Data from Ofra_1a_PS_OCX5_Reflection_2.txt Node
Date: Tue Jul 20 10:39:56 EDT 2021
User: Adam
Spectrometer: FLMT01687
Trigger mode: 0
Integration Time (sec): 1.004000E0
Scans to average: 2
Electric dark correction enabled: true
Nonlinearity correction enabled: false
Boxcar width: 2
XAxis mode: Wavelengths
Number of Pixels in Spectrum: 3648
>>>>>Begin Spectral Data<<<<<
179.494	-262.94
179.716	-283.21
179.937	1018.73
180.158	-992.36
180.38	158.68
180.601	88.39
180.823	127.89
181.044	-12.82
181.265	165.63
181.486	49.54
181.708	44.58
181.929	2709.09
182.15	1.97
182.372	-30.54
182.593	116.43
182.814	-132.09
183.035	26.9
183.257	23.37
183.478	-1.75
183.699	-15.54
183.92	-56.78
184.141	-69.18
184.363	-54.56
184.584	-77.9
184.805	-50.35
185.026	-7.45
185.247	-20.91
185.468	-36.43
185.689	-11.26
185.91	-52.24
186.132	-37.41
186.353	-16.47
186.574	-25.86
186.795	-22.32
187.016	25.69
187.237	6.54
187.458	-1.63
187.679	9.54
187.9	26.16
188.121	17.06
188.342	41.92
188.563	43.85
188.784	53.66
189.005	19.99
189.226	23.96
189.447	19.7
189.667	20.75
189.888	-5.48
190.109	1.08
190.33	1.45
190.551	-7.33
190.772	-30.26
190.993	-34
191.214	-74.3
191.434	-112.62
191.655	-180.69
191.876	-44.36
192.097	-5.76
192.318	37.56
192.538	14.04
192.759	16.31
192.98	15.79
193.201	11.94
193.421	15.52
193.642	27.39
193.863	48.54
194.083	35.85
194.304	33.01
194.525	8.39
194.745	9.09
194.966	9.65
195.187	4.16
195.407	-26.95
195.628	-10.88
195.848	-26.76
196.069	-59.85
196.29	-59.55
196.51	-45.58
196.731	-45.88
196.951	-22.26
197.172	10.63
197.392	31.22
197.613	42.49
197.833	24.93
198.054	17.78
198.274	7.88
198.495	-0.18
198.715	0.55
198.936	26.91
199.156	15.75
199.377	12.39
199.597	22.3
199.817	11.15
200.038	-14.23
200.258	11.85
200.479	23.57
200.699	24.18
200.919	34.8
201.14	35.08
201.36	22.46
201.58	12.93
201.801	-26.59
202.021	-37.44
202.241	-29.33
202.461	-3.71
202.682	-19.12
202.902	10.31
203.122	21.83
203.342	9.03
203.563	0.03
203.783	2.95
204.003	-2.76
204.223	6.31
204.443	27.07
204.663	38.01
204.884	71.8
205.104	60.17
205.324	31.37
205.544	11.94
205.764	15.55
205.984	-15.12
206.204	24.16
206.424	-3.31
206.644	-22.42
206.864	-81.96
207.084	-37.81
207.304	-99.13
207.525	-39.71
207.745	-6.7
207.964	25.95
208.184	46.43
208.404	43.74
208.624	36.34
208.844	29.49
209.064	27.03
209.284	21.62
209.504	24.45
209.724	5.53
209.944	-5.05
210.164	-10.82
210.384	-30.53
210.604	-60.07
210.823	-47.21
211.043	-22.97
211.263	-97.36
211.483	-64.8
211.703	-22.97
211.922	-53.93
212.142	-35.08
212.362	2.98
212.582	-0.22
212.801	-13.38
213.021	-5.08
213.241	-38.07
213.461	-27.99
213.68	4.6
213.9	-3.86
214.12	0.58
214.339	13.6
214.559	16.11
214.779	0.29
214.998	9.79
215.218	17.3
215.438	17.99
215.657	13.61
215.877	-10.46
216.096	12.13
216.316	1.56
216.535	1.21
216.755	12.95
216.974	23.19
217.194	-9.93
217.413	-9.72
217.633	-26.7
217.852	-33.3
218.072	-22.52
218.291	-21.69
218.511	-21.31
218.73	-10.43
218.95	-31.66
219.169	-30.39
219.389	-4.21
219.608	-3.62
219.827	-0.59
220.047	8.14
220.266	-3.68
220.485	-20.19
220.705	-10.76
220.924	-26.83
221.143	-5.08
221.363	22.13
221.582	23.78
221.801	24.01
222.021	30.59
222.24	26.92
222.459	32.53
222.678	30.75
222.897	10.17
223.117	16.86
223.336	17.67
223.555	23.51
223.774	27.57
223.993	65.27
224.213	64.8
224.432	41.3
224.651	24.15
224.87	18.85
225.089	10.65
225.308	8.87
225.527	15.76
225.746	14.87
225.965	6.17
226.184	3.2
226.404	-2.22
226.623	7.3
226.842	-0.72
227.061	-0.5
227.28	15.06
227.499	12.28
227.718	-1.77
227.936	1.15
228.155	3.59
228.374	-6.61
228.593	0.35
228.812	17.71
229.031	21.55
229.25	4.73
229.469	5.18
229.688	4.21
229.907	6.58
230.125	2.7
230.344	18.45
230.563	16.98
230.782	16.66
231.001	15.02
231.22	11.75
231.438	10.13
231.657	21.66
231.876	25.22
232.095	25.71
232.313	8.87
232.532	5.78
232.751	-2.28
232.969	-3.48
233.188	-17.21
233.407	11.08
233.625	27.35
233.844	25.57
234.063	15.99
234.281	25.56
234.5	24.95
234.719	13.05
234.937	-11.97
235.156	-16.23
235.374	-16.9
235.593	-15.49
235.811	2.65
236.03	29.58
236.249	40.9
236.467	37.55
236.686	34.4
236.904	16.84
237.123	10.92
237.341	-5.5
237.559	5.63
237.778	40.11
237.996	66.8
238.215	64.43
238.433	45.34
238.652	23.88
238.87	-21.95
239.088	-50.09
239.307	-22.18
239.525	-13.99
239.743	-20.53
239.962	-31.35
240.18	-16.91
240.398	-31.47
240.617	-26.19
240.835	-20.92
241.053	-21.77
241.271	-7.99
241.49	19.64
241.708	12.95
241.926	-9.3
242.144	7.27
242.363	-16.39
242.581	-93.34
242.799	-116.2
243.017	-32.53
243.235	-16.15
243.453	-19.36
243.672	0.26
243.89	12.85
244.108	7.23
244.326	6.4
244.544	10.48
244.762	4.2
244.98	3.89
245.198	2.24
245.416	-3.26
245.634	5.21
245.852	-6.82
246.07	15.03
246.288	21.08
246.506	17.96
246.724	13.92
246.942	21.88
247.16	6.35
247.378	-11.29
247.596	6.58
247.814	8.6
248.032	18.97
248.25	21.27
248.468	16.61
248.685	18.96
248.903	8.24
249.121	8.47
249.339	11.57
249.557	29.36
249.775	28.02
249.992	37.45
250.21	30.62
250.428	43.17
250.646	24.56
250.863	11.05
251.081	8.67
251.299	17.43
251.517	-5.7
251.734	-7.82
251.952	-0.91
252.17	1.96
252.387	-5.53
252.605	2.51
252.823	23.48
253.04	44.54
253.258	52.81
253.475	44.49
253.693	40.93
253.911	14.57
254.128	8.96
254.346	4.48
254.563	15.31
254.781	16.85
254.998	15.76
255.216	-31.46
255.433	-70.7
255.651	-79.64
255.868	-77.66
256.086	-42.85
256.303	5.34
256.521	31.62
256.738	30.21
256.956	29.76
257.173	22.61
257.39	2.1
257.608	-8.88
257.825	-8.45
258.043	-0.25
258.26	-7.52
258.477	-4.43
258.695	-11.2
258.912	-12.2
259.129	-34.41
259.346	-52.12
259.564	-52.08
259.781	-19.77
259.998	5.97
260.216	26.98
260.433	26.17
260.65	26.9
260.867	28.1
261.084	17.15
261.302	6.3
261.519	30.75
261.736	24.05
261.953	6.18
262.17	20.23
262.387	20.87
262.604	13.91
262.822	22.71
263.039	30.49
263.256	17.37
263.473	14.77
263.69	22.96
263.907	33.16
264.124	28.05
264.341	30.77
264.558	33.08
264.775	7.73
264.992	-5.77
265.209	-16.22
265.426	-48.15
265.643	-52.06
265.86	-67.53
266.077	-55.11
266.294	-30.29
266.51	13.62
266.727	23.76
266.944	41.02
267.161	35.38
267.378	42.43
267.595	15.95
267.812	-1.37
268.028	-35.58
268.245	-35.36
268.462	-25.9
268.679	1.81
268.896	17.31
269.112	27.27
269.329	9.14
269.546	27.66
269.763	27.53
269.979	25.44
270.196	27.95
270.413	36
270.629	9
270.846	5.96
271.063	10.29
271.279	8.8
271.496	12.1
271.712	21.53
271.929	15.66
272.146	14.34
272.362	9.89
272.579	-7.58
272.795	-14.47
273.012	-1.72
273.228	4.09
273.445	6.45
273.661	18.03
273.878	11.9
274.094	-4.87
274.311	-24.37
274.527	-61.54
274.744	-43.73
274.96	-15.25
275.177	-11.95
275.393	1.99
275.609	26.91
275.826	16.22
276.042	1.77
276.259	-2.68
276.475	1.37
276.691	-4.94
276.908	1.55
277.124	3.17
277.34	0.67
277.557	-9.11
277.773	-11.72
277.989	-2.82
278.205	7.04
278.422	7.68
278.638	17.73
278.854	11.1
279.07	14.35
279.286	16.64
279.503	25.78
279.719	20.52
279.935	14.69
280.151	4.14
280.367	-3.65
280.583	-11.7
280.799	-15.73
281.016	-27.47
281.232	-10.62
281.448	-3.85
281.664	-6.94
281.88	4.88
282.096	4.4
282.312	3.99
282.528	-0.37
282.744	8.72
282.96	-23.9
283.176	-26.69
283.392	-55.56
283.608	-33.17
283.824	-48.42
284.04	-59.84
284.256	-25.94
284.471	-14.5
284.687	-2.57
284.903	0.02
285.119	24.86
285.335	30.98
285.551	19.58
285.767	12.13
285.982	7.96
286.198	-15.44
286.414	-36.33
286.63	1.23
286.846	1.75
287.061	4.66
287.277	14.11
287.493	6.46
287.709	5.57
287.924	24.72
288.14	28.47
288.356	33.41
288.571	36.88
288.787	24.16
289.003	21.27
289.218	-0.78
289.434	-0.94
289.65	25.94
289.865	32.82
290.081	20.46
290.296	37.47
290.512	26.88
290.727	13.72
290.943	16.53
291.159	23.7
291.374	9.16
291.59	16.54
291.805	-10.33
292.021	-16.26
292.236	-25.71
292.451	-20.27
292.667	-17.05
292.882	14.98
293.098	28.89
293.313	13.83
293.529	20.23
293.744	13.27
293.959	2.57
294.175	-1.18
294.39	-1.71
294.605	11.14
294.821	-0.56
295.036	0.58
295.251	9.23
295.467	4.33
295.682	-3.15
295.897	-4.36
296.112	-12.27
296.328	-15.85
296.543	-18.17
296.758	-22.43
296.973	-19.74
297.188	-15.05
297.404	-37.55
297.619	-50.09
297.834	-70.22
298.049	-41.87
298.264	-12.65
298.479	-29.39
298.694	16.02
298.909	28.03
299.125	9.83
299.34	3.31
299.555	12.61
299.77	16.35
299.985	12.91
300.2	35.07
300.415	31.81
300.63	26.17
300.845	1.23
301.06	-6.42
301.275	-16.97
301.49	-20.39
301.704	-16.15
301.919	-19.31
302.134	-22.85
302.349	-19.17
302.564	-7.37
302.779	3.5
302.994	26.75
303.209	38.85
303.423	38.22
303.638	42.39
303.853	23.2
304.068	-7.92
304.283	-9.3
304.497	-11.43
304.712	-14.6
304.927	1.83
305.142	22.18
305.356	43.49
305.571	31.58
305.786	34.41
306	38.5
306.215	36.35
306.43	0.03
306.644	-8.07
306.859	-28.12
307.074	-8.63
307.288	-21.25
307.503	-7.42
307.717	7.19
307.932	17.21
308.147	0.96
308.361	3.39
308.576	-17.27
308.79	-17.15
309.005	-39.12
309.219	-27.65
309.434	-20.5
309.648	-10
309.863	-14.53
310.077	-8.73
310.292	7.67
310.506	-4.54
310.72	1.41
310.935	30.01
311.149	37.3
311.364	33.24
311.578	36.6
311.792	43.59
312.007	21.78
312.221	-5.08
312.435	-9.21
312.649	-0.66
312.864	5.87
313.078	10.53
313.292	20.97
313.507	30.99
313.721	28.99
313.935	35.28
314.149	19.51
314.363	21.27
314.578	6.18
314.792	-18.28
315.006	-46.52
315.22	-22.29
315.434	-4.33
315.648	3.09
315.862	15.28
316.077	16.28
316.291	8.48
316.505	-24.03
316.719	-17.68
316.933	-16.73
317.147	5.95
317.361	15.77
317.575	25.94
317.789	30.66
318.003	21.24
318.217	11.18
318.431	1.94
318.645	-16.12
318.859	-9.46
319.073	0.56
319.287	1.92
319.5	4.39
319.714	14.39
319.928	1.61
320.142	-2.76
320.356	0.31
320.57	-31.06
320.784	-28.63
320.997	-47.85
321.211	-24.05
321.425	-54.32
321.639	-5.46
321.853	0.48
322.066	-4.26
322.28	-19.4
322.494	-3.55
322.707	-19.92
322.921	-31.56
323.135	-15.44
323.349	-10.2
323.562	-0.12
323.776	11.05
323.989	18.01
324.203	10.77
324.417	18.35
324.63	3.78
324.844	-9.72
325.057	-36.74
325.271	-21.21
325.485	-43.5
325.698	-21.6
325.912	9.56
326.125	12.32
326.339	20.14
326.552	20.2
326.766	7.44
326.979	-29.25
327.193	-20.19
327.406	-40.04
327.619	-26
327.833	-30.55
328.046	-3.75
328.26	-7.57
328.473	-6.1
328.686	5.08
328.9	14.32
329.113	17.22
329.326	9.89
329.54	16.85
329.753	21.61
329.966	24.26
330.179	15.14
330.393	21.89
330.606	13.71
330.819	-13.41
331.032	-10.37
331.246	-2.55
331.459	5.25
331.672	13.83
331.885	18.93
332.098	18.91
332.311	16.97
332.525	7.15
332.738	6.8
332.951	-0.51
333.164	0.52
333.377	-0.24
333.59	-4.59
333.803	-4.89
334.016	-15.66
334.229	-18.35
334.442	-27.61
334.655	-17.44
334.868	-16.78
335.081	-0.37
335.294	1.91
335.507	13.95
335.72	19.29
335.933	25.02
336.146	27.48
336.359	26.31
336.572	32.74
336.785	27.42
336.997	4.92
337.21	7.02
337.423	-17.31
337.636	-19.74
337.849	-3.8
338.062	1.72
338.274	7.22
338.487	-1.64
338.7	-15.37
338.913	-6.5
339.125	-18.89
339.338	-20.2
339.551	-5.22
339.763	4.92
339.976	-18.55
340.189	-7.75
340.402	3.97
340.614	7.2
340.827	14.26
341.039	27.33
341.252	31.75
341.465	14.4
341.677	16.03
341.89	8.56
342.102	15.02
342.315	8.71
342.527	15.85
342.74	-5.73
342.952	-12.18
343.165	-31.53
343.377	-12.33
343.59	-1.26
343.802	14.33
344.015	28.83
344.227	42.19
344.44	26.73
344.652	15.59
344.864	11.5
345.077	8.1
345.289	5.66
345.502	15.71
345.714	11
345.926	9.33
346.139	-23.01
346.351	-21.43
346.563	-11.72
346.775	9.64
346.988	30.32
347.2	52.93
347.412	51.46
347.624	40.54
347.837	33.4
348.049	22.98
348.261	2.88
348.473	-13.32
348.685	-28.66
348.897	-37.28
349.11	-30.54
349.322	-10.43
349.534	-17.15
349.746	-11.29
349.958	-17.4
350.17	-40.35
350.382	-39.64
350.594	-17.12
350.806	5.88
351.018	1.79
351.23	8.08
351.442	16.07
351.654	16.26
351.866	2.18
352.078	11.03
352.29	16.6
352.502	9.51
352.714	8.57
352.926	11.1
353.138	29.28
353.35	31.96
353.561	20.82
353.773	17.29
353.985	21
354.197	1.14
354.409	-2.05
354.621	-6.78
354.832	-11.51
355.044	-30.2
355.256	-21.8
355.468	-42.14
355.679	0.15
355.891	15.17
356.103	26.2
356.314	23.43
356.526	24.8
356.738	-7.56
356.949	-22.59
357.161	-13.58
357.373	-5.43
357.584	6.5
357.796	23.01
358.008	33.12
358.219	22.84
358.431	19.84
358.642	24.08
358.854	21.96
359.065	2.19
359.277	0.35
359.488	-0.22
359.7	0.77
359.911	-15.57
360.123	0.15
360.334	6.8
360.546	-0.37
360.757	-4.79
360.969	-4.19
361.18	5.6
361.391	14.52
361.603	18.77
361.814	14.48
362.025	27.77
362.237	23.13
362.448	15.39
362.659	8.16
362.871	1.89
363.082	-14.43
363.293	-16.75
363.504	-27.18
363.716	-16.91
363.927	-0.57
364.138	-8.41
364.349	-18.81
364.56	-21.48
364.772	-4.07
364.983	-7.46
365.194	1.34
365.405	11.24
365.616	15.37
365.827	1.09
366.038	4.54
366.25	9.43
366.461	8.08
366.672	6.27
366.883	4.82
367.094	1.06
367.305	-16.46
367.516	-25.39
367.727	-29.33
367.938	-27.11
368.149	-29.99
368.36	-15.07
368.571	-23.48
368.781	-16.21
368.992	-16.55
369.203	-8.64
369.414	-10
369.625	-8.07
369.836	11.26
370.047	21.15
370.258	14.94
370.468	17.42
370.679	19.52
370.89	-1.46
371.101	6.6
371.312	5.44
371.522	11.25
371.733	5.45
371.944	-3.45
372.155	-8.52
372.365	3.52
372.576	-9.77
372.787	-0.12
372.997	17.72
373.208	10.48
373.419	11.6
373.629	7.72
373.84	2.41
374.05	-9.26
374.261	-18.52
374.472	-24.78
374.682	-15.43
374.893	-13.69
375.103	-12.11
375.314	5.65
375.524	7.83
375.735	4.12
375.945	0.13
376.156	2.2
376.366	-2.42
376.577	-3.41
376.787	6.68
376.997	20.25
377.208	21.18
377.418	16.87
377.629	16.94
377.839	14.27
378.049	12.17
378.26	2.5
378.47	0.14
378.68	-0.54
378.89	-0.75
379.101	-3.53
379.311	9.51
379.521	5.06
379.732	14.16
379.942	10.53
380.152	1.44
380.362	-7.76
380.572	13.25
380.783	17.43
380.993	17.17
381.203	23.27
381.413	24.58
381.623	12.28
381.833	5.53
382.043	3.6
382.253	2.35
382.463	14.3
382.674	13.59
382.884	19.77
383.094	18.86
383.304	12.02
383.514	5.7
383.724	-0.46
383.934	-14.66
384.144	-7.82
384.353	-0.9
384.563	-2.73
384.773	6.19
384.983	2.38
385.193	0.09
385.403	-3.38
385.613	-1.97
385.823	-9.65
386.033	-1.69
386.242	-5.84
386.452	-3.68
386.662	-3.98
386.872	3.32
387.082	-4.36
387.291	-6.58
387.501	-6.5
387.711	-2.92
387.921	-5.39
388.13	1.14
388.34	5.47
388.55	6.64
388.759	0.01
388.969	-0.73
389.179	-4.53
389.388	-4.14
389.598	-8.86
389.807	-9.06
390.017	-8.65
390.227	-8.24
390.436	-7.42
390.646	-2.82
390.855	1.16
391.065	0.57
391.274	4
391.484	2.17
391.693	0.34
391.903	-2.18
392.112	-2.92
392.322	-5.38
392.531	-3.86
392.74	-5.83
392.95	-3.81
393.159	-2.6
393.369	-1.87
393.578	-3.45
393.787	-1.04
393.997	-0.68
394.206	0.35
394.415	0.81
394.625	1.16
394.834	1.16
395.043	0.82
395.252	2.55
395.462	3.3
395.671	3.83
395.88	4.83
396.089	4.36
396.298	2.88
396.508	2.21
396.717	1.88
396.926	0.83
397.135	1.78
397.344	2.02
397.553	1.72
397.762	3
397.971	2.64
398.181	2.52
398.39	2.13
398.599	2.85
398.808	2.45
399.017	2.63
399.226	2.95
399.435	2.72
399.644	2.75
399.853	3.04
400.062	3.38
400.27	2.36
400.479	2.87
400.688	2.85
400.897	2.49
401.106	2.4
401.315	2.68
401.524	2.5
401.733	2.36
401.941	2.6
402.15	2.34
402.359	2.43
402.568	2.68
402.777	2.91
402.985	2.34
403.194	2.51
403.403	2.72
403.612	2.45
403.82	2.05
404.029	2.36
404.238	2.48
404.446	2.59
404.655	2.81
404.864	2.99
405.072	3.02
405.281	2.99
405.489	2.77
405.698	2.7
405.906	2.72
406.115	2.49
406.324	2.45
406.532	2.64
406.741	2.55
406.949	2.58
407.158	2.71
407.366	2.68
407.574	2.48
407.783	2.57
407.991	2.45
408.2	2.63
408.408	2.58
408.617	2.62
408.825	2.57
409.033	2.58
409.242	2.55
409.45	2.6
409.658	2.62
409.867	2.54
410.075	2.62
410.283	2.43
410.491	2.4
410.7	2.34
410.908	2.4
411.116	2.47
411.324	2.51
411.533	2.46
411.741	2.48
411.949	2.56
412.157	2.39
412.365	2.53
412.573	2.49
412.781	2.46
412.99	2.35
413.198	2.47
413.406	2.41
413.614	2.6
413.822	2.73
414.03	2.79
414.238	2.81
414.446	2.85
414.654	2.68
414.862	2.5
415.07	2.28
415.278	2.27
415.486	2.12
415.694	2.21
415.902	2.17
416.109	2.35
416.317	2.3
416.525	2.25
416.733	2.11
416.941	2.13
417.149	2.06
417.357	2.11
417.564	2.24
417.772	2.48
417.98	2.64
418.188	2.64
418.395	2.41
418.603	2.26
418.811	2.08
419.019	2.01
419.226	2.07
419.434	2.1
419.642	2.04
419.849	2.08
420.057	2.09
420.265	2.09
420.472	2.13
420.68	2.25
420.887	2.2
421.095	2.34
421.302	2.25
421.51	2.26
421.717	2.41
421.925	2.47
422.132	2.38
422.34	2.3
422.547	2.28
422.755	2.19
422.962	2.19
423.17	1.92
423.377	2.17
423.585	2.33
423.792	2.26
423.999	2.18
424.207	2.3
424.414	2.1
424.621	1.92
424.829	1.99
425.036	2.04
425.243	2.04
425.451	2.05
425.658	2.16
425.865	2.19
426.072	2.1
426.28	2.15
426.487	2.25
426.694	2.13
426.901	2
427.108	1.99
427.315	2
427.523	1.9
427.73	2
427.937	1.93
428.144	1.98
428.351	1.98
428.558	2.08
428.765	2.06
428.972	2.14
429.179	2.01
429.386	1.97
429.593	1.91
429.8	1.93
430.007	1.96
430.214	2.08
430.421	2.17
430.628	2.17
430.835	2.09
431.042	1.98
431.249	1.94
431.456	1.87
431.662	1.98
431.869	2.17
432.076	2.25
432.283	2.37
432.49	2.35
432.697	2.23
432.903	2.07
433.11	2.14
433.317	2.14
433.524	2.23
433.73	2.21
433.937	2.34
434.144	2.19
434.35	2.01
434.557	2.12
434.764	2.08
434.97	1.9
435.177	2.08
435.384	2.36
435.59	2.12
435.797	2.3
436.003	2.37
436.21	2.25
436.416	2.11
436.623	2.28
436.829	2.22
437.036	2.15
437.242	2.32
437.449	2.34
437.655	2.29
437.862	2.33
438.068	2.34
438.275	2.36
438.481	2.3
438.687	2.32
438.894	2.35
439.1	2.28
439.307	2.29
439.513	2.34
439.719	2.41
439.926	2.35
440.132	2.5
440.338	2.39
440.544	2.41
440.751	2.27
440.957	2.35
441.163	2.36
441.369	2.37
441.575	2.35
441.782	2.44
441.988	2.49
442.194	2.47
442.4	2.46
442.606	2.56
442.812	2.52
443.018	2.47
443.224	2.57
443.431	2.6
443.637	2.57
443.843	2.68
444.049	2.73
444.255	2.68
444.461	2.62
444.667	2.59
444.873	2.55
445.079	2.45
445.284	2.49
445.49	2.52
445.696	2.55
445.902	2.51
446.108	2.57
446.314	2.54
446.52	2.58
446.726	2.58
446.931	2.48
447.137	2.51
447.343	2.59
447.549	2.63
447.755	2.58
447.96	2.74
448.166	2.72
448.372	2.7
448.578	2.59
448.783	2.59
448.989	2.63
449.195	2.56
449.4	2.59
449.606	2.67
449.812	2.66
450.017	2.6
450.223	2.66
450.428	2.66
450.634	2.7
450.84	2.73
451.045	2.78
451.251	2.84
451.456	2.79
451.662	2.78
451.867	2.84
452.073	2.84
452.278	2.8
452.483	2.84
452.689	2.88
452.894	2.87
453.1	2.78
453.305	2.85
453.51	2.9
453.716	2.86
453.921	2.88
454.127	2.92
454.332	2.91
454.537	2.8
454.742	2.71
454.948	2.73
455.153	2.81
455.358	2.79
455.563	2.87
455.769	3.02
455.974	2.95
456.179	2.85
456.384	2.73
456.589	2.58
456.795	2.5
457	2.52
457.205	2.48
457.41	2.51
457.615	2.6
457.82	2.7
458.025	2.7
458.23	2.79
458.435	2.83
458.64	2.83
458.845	2.78
459.05	2.82
459.255	2.78
459.46	2.79
459.665	2.79
459.87	2.77
460.075	2.82
460.28	2.95
460.485	2.97
460.69	2.99
460.895	3.1
461.099	2.92
461.304	2.72
461.509	2.79
461.714	2.86
461.919	2.78
462.123	2.96
462.328	3.01
462.533	2.94
462.738	2.84
462.942	2.82
463.147	2.72
463.352	2.79
463.556	2.79
463.761	2.8
463.966	2.85
464.17	2.89
464.375	2.99
464.58	2.98
464.784	2.99
464.989	2.99
465.193	2.97
465.398	2.92
465.602	3.09
465.807	3.11
466.011	3.04
466.216	3
466.42	3.03
466.625	2.97
466.829	2.96
467.034	3.1
467.238	3.2
467.443	3.21
467.647	3.22
467.851	3.24
468.056	3.24
468.26	3.25
468.464	3.29
468.669	3.3
468.873	3.35
469.077	3.27
469.282	3.28
469.486	3.22
469.69	3.25
469.894	3.26
470.099	3.3
470.303	3.31
470.507	3.34
470.711	3.3
470.915	3.34
471.119	3.42
471.324	3.45
471.528	3.51
471.732	3.56
471.936	3.59
472.14	3.56
472.344	3.63
472.548	3.61
472.752	3.54
472.956	3.48
473.16	3.49
473.364	3.51
473.568	3.44
473.772	3.49
473.976	3.62
474.18	3.6
474.384	3.53
474.588	3.63
474.792	3.55
474.995	3.49
475.199	3.52
475.403	3.57
475.607	3.6
475.811	3.69
476.015	3.61
476.218	3.61
476.422	3.61
476.626	3.6
476.83	3.65
477.033	3.77
477.237	3.8
477.441	3.74
477.644	3.68
477.848	3.71
478.052	3.72
478.255	3.83
478.459	3.85
478.663	3.93
478.866	3.92
479.07	3.89
479.273	3.9
479.477	3.91
479.681	3.94
479.884	3.97
480.088	4.02
480.291	3.94
480.495	3.94
480.698	3.91
480.901	3.94
481.105	3.97
481.308	4.04
481.512	4.11
481.715	4.22
481.919	4.31
482.122	4.31
482.325	4.38
482.529	4.39
482.732	4.26
482.935	4.12
483.138	3.97
483.342	3.95
483.545	4.02
483.748	4.13
483.952	4.19
484.155	4.37
484.358	4.36
484.561	4.25
484.764	4.22
484.967	4.28
485.171	4.26
485.374	4.23
485.577	4.25
485.78	4.25
485.983	4.16
486.186	4.09
486.389	4.17
486.592	4.15
486.795	4.22
486.998	4.21
487.201	4.27
487.404	4.32
487.607	4.39
487.81	4.34
488.013	4.36
488.216	4.37
488.419	4.26
488.622	4.25
488.825	4.3
489.028	4.33
489.231	4.31
489.433	4.39
489.636	4.36
489.839	4.33
490.042	4.4
490.245	4.42
490.447	4.4
490.65	4.46
490.853	4.47
491.056	4.42
491.258	4.47
491.461	4.46
491.664	4.43
491.866	4.4
492.069	4.45
492.272	4.32
492.474	4.32
492.677	4.35
492.879	4.36
493.082	4.36
493.285	4.48
493.487	4.54
493.69	4.52
493.892	4.51
494.095	4.52
494.297	4.56
494.5	4.53
494.702	4.57
494.905	4.67
495.107	4.68
495.309	4.69
495.512	4.69
495.714	4.71
495.917	4.75
496.119	4.77
496.321	4.72
496.524	4.74
496.726	4.71
496.928	4.6
497.13	4.54
497.333	4.63
497.535	4.69
497.737	4.74
497.939	4.82
498.142	4.9
498.344	4.89
498.546	4.88
498.748	4.91
498.95	4.94
499.152	4.97
499.355	4.95
499.557	4.96
499.759	5.06
499.961	5.07
500.163	5.11
500.365	5.17
500.567	5.21
500.769	5.18
500.971	5.19
501.173	5.14
501.375	5.2
501.577	5.17
501.779	5.17
501.981	5.18
502.183	5.17
502.385	5.21
502.587	5.24
502.788	5.22
502.99	5.26
503.192	5.36
503.394	5.31
503.596	5.34
503.798	5.37
503.999	5.39
504.201	5.4
504.403	5.42
504.605	5.43
504.806	5.51
505.008	5.53
505.21	5.52
505.411	5.52
505.613	5.59
505.815	5.59
506.016	5.6
506.218	5.65
506.42	5.7
506.621	5.68
506.823	5.69
507.024	5.64
507.226	5.58
507.427	5.62
507.629	5.63
507.83	5.63
508.032	5.72
508.233	5.83
508.435	5.84
508.636	5.87
508.838	5.85
509.039	5.84
509.24	5.85
509.442	5.85
509.643	5.85
509.845	5.88
510.046	5.9
510.247	5.93
510.448	5.95
510.65	5.99
510.851	6.02
511.052	6.05
511.254	6.12
511.455	6.12
511.656	6.07
511.857	6.04
512.058	6.06
512.26	5.99
512.461	6
512.662	6.04
512.863	6.02
513.064	6.05
513.265	6.09
513.466	6.12
513.667	6.16
513.868	6.22
514.069	6.18
514.27	6.22
514.471	6.2
514.672	6.24
514.873	6.28
515.074	6.39
515.275	6.35
515.476	6.41
515.677	6.43
515.878	6.46
516.079	6.46
516.28	6.53
516.481	6.47
516.682	6.5
516.882	6.5
517.083	6.42
517.284	6.4
517.485	6.48
517.686	6.45
517.886	6.47
518.087	6.53
518.288	6.56
518.488	6.55
518.689	6.54
518.89	6.55
519.091	6.62
519.291	6.53
519.492	6.58
519.692	6.62
519.893	6.68
520.094	6.62
520.294	6.73
520.495	6.72
520.695	6.75
520.896	6.72
521.096	6.79
521.297	6.73
521.497	6.72
521.698	6.69
521.898	6.7
522.099	6.68
522.299	6.73
522.499	6.77
522.7	6.81
522.9	6.85
523.101	6.83
523.301	6.86
523.501	6.83
523.702	6.87
523.902	6.84
524.102	6.91
524.302	6.98
524.503	6.97
524.703	6.96
524.903	7.01
525.103	7.02
525.304	6.97
525.504	7.08
525.704	7.09
525.904	7.05
526.104	7.08
526.304	7.13
526.504	7.11
526.705	7.12
526.905	7.17
527.105	7.16
527.305	7.14
527.505	7.15
527.705	7.11
527.905	7.18
528.105	7.19
528.305	7.25
528.505	7.25
528.705	7.33
528.905	7.32
529.105	7.35
529.304	7.37
529.504	7.43
529.704	7.44
529.904	7.44
530.104	7.47
530.304	7.45
530.503	7.48
530.703	7.45
530.903	7.44
531.103	7.48
531.303	7.5
531.502	7.55
531.702	7.57
531.902	7.7
532.101	7.7
532.301	7.74
532.501	7.7
532.7	7.74
532.9	7.75
533.1	7.72
533.299	7.73
533.499	7.76
533.698	7.76
533.898	7.77
534.097	7.79
534.297	7.81
534.496	7.85
534.696	7.92
534.895	7.92
535.095	7.99
535.294	8.03
535.494	8.07
535.693	8.11
535.892	8.09
536.092	8.09
536.291	8.1
536.491	8.13
536.69	8.16
536.889	8.17
537.088	8.24
537.288	8.26
537.487	8.27
537.686	8.24
537.886	8.32
538.085	8.27
538.284	8.34
538.483	8.38
538.682	8.42
538.882	8.49
539.081	8.55
539.28	8.5
539.479	8.56
539.678	8.58
539.877	8.58
540.076	8.6
540.275	8.67
540.474	8.68
540.673	8.74
540.872	8.76
541.071	8.82
541.27	8.9
541.469	8.91
541.668	8.95
541.867	8.98
542.066	9.05
542.265	9.05
542.464	9.1
542.663	9.14
542.862	9.25
543.06	9.31
543.259	9.4
543.458	9.5
543.657	9.54
543.856	9.55
544.054	9.51
544.253	9.51
544.452	9.51
544.651	9.56
544.849	9.57
545.048	9.69
545.247	9.79
545.445	9.83
545.644	9.91
545.843	9.98
546.041	9.97
546.24	9.95
546.438	10.03
546.637	10.07
546.836	10.12
547.034	10.18
547.233	10.35
547.431	10.39
547.63	10.39
547.828	10.45
548.027	10.52
548.225	10.49
548.423	10.52
548.622	10.6
548.82	10.65
549.019	10.69
549.217	10.73
549.415	10.78
549.614	10.91
549.812	10.92
550.01	11.04
550.209	11.18
550.407	11.32
550.605	11.31
550.803	11.44
551.002	11.52
551.2	11.54
551.398	11.64
551.596	11.73
551.794	11.78
551.993	11.83
552.191	11.96
552.389	12.02
552.587	12.09
552.785	12.24
552.983	12.32
553.181	12.34
553.379	12.4
553.577	12.52
553.775	12.58
553.973	12.71
554.171	12.81
554.369	12.92
554.567	13.03
554.765	13.09
554.963	13.14
555.161	13.2
555.359	13.28
555.557	13.3
555.755	13.39
555.952	13.52
556.15	13.64
556.348	13.7
556.546	13.92
556.744	14.02
556.941	14.06
557.139	14.23
557.337	14.36
557.535	14.34
557.732	14.4
557.93	14.47
558.128	14.48
558.325	14.5
558.523	14.65
558.721	14.82
558.918	14.95
559.116	15.11
559.313	15.28
559.511	15.4
559.708	15.49
559.906	15.64
560.104	15.67
560.301	15.77
560.498	15.88
560.696	15.98
560.893	16.12
561.091	16.24
561.288	16.39
561.486	16.45
561.683	16.54
561.88	16.68
562.078	16.77
562.275	16.84
562.473	16.97
562.67	17.06
562.867	17.08
563.064	17.28
563.262	17.36
563.459	17.49
563.656	17.61
563.853	17.74
564.051	17.86
564.248	17.97
564.445	18.07
564.642	18.14
564.839	18.25
565.036	18.41
565.234	18.54
565.431	18.65
565.628	18.76
565.825	18.85
566.022	18.84
566.219	18.95
566.416	19.03
566.613	19.19
566.81	19.28
567.007	19.41
567.204	19.42
567.401	19.56
567.598	19.64
567.795	19.69
567.991	19.73
568.188	19.84
568.385	19.83
568.582	19.94
568.779	20.02
568.976	20.1
569.172	20.21
569.369	20.28
569.566	20.36
569.763	20.4
569.96	20.49
570.156	20.62
570.353	20.69
570.55	20.7
570.746	20.82
570.943	20.86
571.14	20.85
571.336	20.86
571.533	20.92
571.729	20.91
571.926	21.04
572.123	21.19
572.319	21.38
572.516	21.44
572.712	21.5
572.909	21.5
573.105	21.47
573.302	21.41
573.498	21.45
573.695	21.52
573.891	21.55
574.087	21.54
574.284	21.64
574.48	21.65
574.677	21.73
574.873	21.73
575.069	21.81
575.266	21.85
575.462	21.87
575.658	21.85
575.854	21.9
576.051	21.96
576.247	21.91
576.443	21.96
576.639	21.95
576.835	21.94
577.032	21.91
577.228	22.02
577.424	22.01
577.62	22.04
577.816	22.05
578.012	22.08
578.208	22.04
578.404	22.11
578.6	22.21
578.796	22.28
578.993	22.33
579.189	22.4
579.384	22.39
579.58	22.34
579.776	22.29
579.972	22.23
580.168	22.1
580.364	22.11
580.56	22.02
580.756	22.04
580.952	22.08
581.148	22.24
581.343	22.29
581.539	22.35
581.735	22.34
581.931	22.22
582.127	22.12
582.322	22.01
582.518	22
582.714	22.01
582.909	22.1
583.105	22.06
583.301	22.12
583.496	22.08
583.692	21.97
583.888	21.94
584.083	21.98
584.279	21.88
584.474	21.9
584.67	21.95
584.866	21.96
585.061	21.93
585.257	21.94
585.452	21.9
585.648	21.85
585.843	21.79
586.039	21.81
586.234	21.82
586.429	21.84
586.625	21.9
586.82	21.97
587.015	21.94
587.211	21.9
587.406	21.86
587.601	21.84
587.797	21.86
587.992	21.89
588.187	21.94
588.383	22.03
588.578	22
588.773	22.01
588.968	22.07
589.163	22.08
589.359	22.03
589.554	22.04
589.749	21.99
589.944	21.98
590.139	22
590.334	22.04
590.529	22.12
590.724	22.28
590.919	22.28
591.114	22.35
591.309	22.4
591.504	22.46
591.699	22.36
591.894	22.41
592.089	22.39
592.284	22.47
592.479	22.43
592.674	22.53
592.869	22.64
593.064	22.68
593.259	22.73
593.454	22.73
593.648	22.83
593.843	22.78
594.038	22.88
594.233	22.93
594.428	23.09
594.622	23.18
594.817	23.31
595.012	23.37
595.206	23.41
595.401	23.56
595.596	23.5
595.79	23.53
595.985	23.6
596.18	23.72
596.374	23.77
596.569	23.96
596.763	24.01
596.958	24.16
597.153	24.26
597.347	24.3
597.542	24.33
597.736	24.46
597.931	24.43
598.125	24.52
598.319	24.58
598.514	24.6
598.708	24.58
598.903	24.73
599.097	24.8
599.291	24.79
599.486	24.88
599.68	25.05
599.874	25.08
600.069	25.1
600.263	25.24
600.457	25.28
600.651	25.31
600.846	25.43
601.04	25.43
601.234	25.46
601.428	25.56
601.622	25.62
601.817	25.6
602.011	25.59
602.205	25.64
602.399	25.6
602.593	25.55
602.787	25.49
602.981	25.55
603.175	25.52
603.369	25.55
603.563	25.69
603.757	25.76
603.951	25.77
604.145	25.84
604.339	25.83
604.533	25.71
604.727	25.75
604.921	25.75
605.115	25.6
605.309	25.59
605.502	25.66
605.696	25.46
605.89	25.46
606.084	25.56
606.278	25.53
606.471	25.44
606.665	25.48
606.859	25.32
607.053	25.21
607.246	25.16
607.44	25.05
607.634	25.02
607.827	25.02
608.021	24.95
608.214	24.79
608.408	24.67
608.602	24.52
608.795	24.53
608.989	24.47
609.182	24.54
609.376	24.59
609.569	24.61
609.763	24.41
609.956	24.31
610.15	24.16
610.343	24.12
610.537	24.03
610.73	24
610.923	23.97
611.117	24.07
611.31	23.87
611.504	23.75
611.697	23.73
611.89	23.64
612.083	23.39
612.277	23.42
612.47	23.39
612.663	23.27
612.856	23.22
613.05	23.14
613.243	22.99
613.436	22.92
613.629	22.85
613.822	22.71
614.015	22.68
614.209	22.62
614.402	22.55
614.595	22.53
614.788	22.53
614.981	22.47
615.174	22.36
615.367	22.26
615.56	22.14
615.753	22.11
615.946	22.02
616.139	21.99
616.332	22.02
616.525	21.94
616.718	21.89
616.911	21.87
617.103	21.78
617.296	21.66
617.489	21.63
617.682	21.54
617.875	21.44
618.067	21.42
618.26	21.39
618.453	21.38
618.646	21.34
618.838	21.31
619.031	21.26
619.224	21.2
619.417	21.11
619.609	21.04
619.802	21.07
619.994	21.05
620.187	20.94
620.38	20.89
620.572	20.85
620.765	20.73
620.957	20.73
621.15	20.76
621.342	20.81
621.535	20.82
621.727	20.75
621.92	20.74
622.112	20.7
622.305	20.66
622.497	20.63
622.69	20.7
622.882	20.64
623.074	20.64
623.267	20.6
623.459	20.55
623.651	20.5
623.844	20.52
624.036	20.55
624.228	20.54
624.42	20.49
624.613	20.52
624.805	20.43
624.997	20.37
625.189	20.33
625.381	20.27
625.574	20.13
625.766	20.09
625.958	20.09
626.15	20.04
626.342	20.07
626.534	20.1
626.726	20.1
626.918	19.98
627.11	19.96
627.302	19.92
627.494	19.89
627.686	19.83
627.878	19.82
628.07	19.82
628.262	19.79
628.454	19.78
628.646	19.73
628.838	19.77
629.029	19.69
629.221	19.59
629.413	19.5
629.605	19.45
629.797	19.38
629.989	19.37
630.18	19.4
630.372	19.4
630.564	19.35
630.755	19.29
630.947	19.26
631.139	19.22
631.33	19.17
631.522	19.17
631.714	19.1
631.905	19.1
632.097	19.11
632.289	19.1
632.48	19.07
632.672	19.09
632.863	18.99
633.055	18.99
633.246	18.95
633.438	18.97
633.629	18.91
633.821	18.85
634.012	18.8
634.203	18.79
634.395	18.75
634.586	18.74
634.777	18.73
634.969	18.76
635.16	18.68
635.351	18.63
635.543	18.59
635.734	18.64
635.925	18.62
636.117	18.66
636.308	18.77
636.499	18.78
636.69	18.74
636.881	18.66
637.073	18.66
637.264	18.54
637.455	18.56
637.646	18.58
637.837	18.55
638.028	18.46
638.219	18.53
638.41	18.52
638.601	18.52
638.792	18.56
638.983	18.57
639.174	18.47
639.365	18.45
639.556	18.24
639.747	18.17
639.938	18.19
640.129	18.21
640.32	18.22
640.511	18.33
640.701	18.33
640.892	18.24
641.083	18.21
641.274	18.08
641.465	18.1
641.655	18.09
641.846	18.02
642.037	17.96
642.228	17.89
642.418	17.79
642.609	17.71
642.8	17.78
642.99	17.7
643.181	17.81
643.372	17.72
643.562	17.64
643.753	17.54
643.943	17.52
644.134	17.36
644.324	17.43
644.515	17.49
644.705	17.48
644.896	17.55
645.086	17.63
645.277	17.6
645.467	17.57
645.658	17.59
645.848	17.58
646.038	17.45
646.229	17.44
646.419	17.33
646.61	17.35
646.8	17.3
646.99	17.29
647.18	17.2
647.371	17.18
647.561	16.98
647.751	16.92
647.941	16.89
648.132	16.92
648.322	16.92
648.512	17.06
648.702	17.12
648.892	17.19
649.082	17.21
649.272	17.22
649.462	17.22
649.653	17.14
649.843	17.05
650.033	17.02
650.223	16.93
650.413	16.85
650.603	16.85
650.793	16.82
650.983	16.76
651.172	16.78
651.362	16.66
651.552	16.6
651.742	16.54
651.932	16.55
652.122	16.55
652.312	16.52
652.502	16.43
652.691	16.39
652.881	16.27
653.071	16.15
653.261	16.13
653.45	16.09
653.64	16
653.83	15.96
654.019	15.82
654.209	15.7
654.399	15.49
654.588	15.29
654.778	15.03
654.968	14.95
655.157	14.83
655.347	14.7
655.536	14.59
655.726	14.46
655.915	14.36
656.105	14.26
656.294	14.11
656.484	14.03
656.673	13.92
656.863	13.78
657.052	13.58
657.241	13.49
657.431	13.3
657.62	13.25
657.809	12.97
657.999	12.77
658.188	12.67
658.377	12.51
658.567	12.26
658.756	12.15
658.945	12
659.134	11.73
659.324	11.53
659.513	11.43
659.702	11.33
659.891	11.21
660.08	11.09
660.269	10.99
660.458	10.75
660.648	10.51
660.837	10.31
661.026	10.1
661.215	9.98
661.404	9.77
661.593	9.71
661.782	9.58
661.971	9.4
662.16	9.24
662.349	9.11
662.538	8.95
662.726	8.79
662.915	8.82
663.104	8.65
663.293	8.57
663.482	8.38
663.671	8.31
663.86	8.18
664.048	8.19
664.237	8.15
664.426	8.11
664.615	7.96
664.803	7.81
664.992	7.57
665.181	7.41
665.369	7.26
665.558	7.25
665.747	7.18
665.935	7.19
666.124	7.2
666.312	7.2
666.501	7.13
666.69	7.19
666.878	7.14
667.067	7.02
667.255	6.93
667.444	6.88
667.632	6.78
667.82	6.69
668.009	6.59
668.197	6.59
668.386	6.52
668.574	6.45
668.762	6.46
668.951	6.5
669.139	6.43
669.327	6.4
669.516	6.4
669.704	6.36
669.892	6.34
670.08	6.39
670.269	6.44
670.457	6.44
670.645	6.39
670.833	6.54
671.021	6.56
671.21	6.59
671.398	6.64
671.586	6.74
671.774	6.81
671.962	6.76
672.15	6.91
672.338	6.9
672.526	6.95
672.714	6.87
672.902	7.02
673.09	7.06
673.278	7.24
673.466	7.31
673.654	7.33
673.842	7.29
674.03	7.28
674.218	7.32
674.405	7.33
674.593	7.48
674.781	7.57
674.969	7.68
675.157	7.7
675.344	7.85
675.532	7.86
675.72	7.95
675.908	7.81
676.095	7.78
676.283	7.88
676.471	8.01
676.658	8.19
676.846	8.38
677.033	8.49
677.221	8.51
677.409	8.6
677.596	8.56
677.784	8.77
677.971	8.82
678.159	8.93
678.346	9.04
678.534	9.16
678.721	9.26
678.909	9.52
679.096	9.62
679.283	9.68
679.471	9.81
679.658	9.87
679.846	9.91
680.033	10.06
680.22	10.21
680.408	10.11
680.595	10.23
680.782	10.37
680.969	10.5
681.157	10.62
681.344	10.88
681.531	10.92
681.718	11.04
681.905	11.12
682.093	11.18
682.28	11.47
682.467	11.7
682.654	11.91
682.841	12.11
683.028	12.24
683.215	12.5
683.402	12.62
683.589	12.85
683.776	13.09
683.963	13.41
684.15	13.57
684.337	13.99
684.524	14.12
684.711	14.41
684.898	14.51
685.085	14.68
685.271	14.92
685.458	15.33
685.645	15.49
685.832	15.94
686.019	16.22
686.205	16.57
686.392	16.74
686.579	17.26
686.766	17.65
686.952	18.02
687.139	18.41
687.326	18.92
687.512	19.15
687.699	19.59
687.886	20
688.072	20.26
688.259	20.71
688.445	21.41
688.632	21.84
688.818	22.39
689.005	23.08
689.191	23.56
689.378	23.95
689.564	24.62
689.751	25.16
689.937	25.67
690.124	26.25
690.31	26.69
690.496	27.22
690.683	27.97
690.869	28.53
691.055	29.1
691.242	29.68
691.428	30.15
691.614	30.87
691.8	31.55
691.987	32.57
692.173	33.47
692.359	34.4
692.545	35.02
692.731	35.82
692.918	36.2
693.104	36.86
693.29	37.42
693.476	38.03
693.662	38.49
693.848	39.3
694.034	40.25
694.22	40.96
694.406	41.73
694.592	42.58
694.778	43.21
694.964	43.8
695.15	44.55
695.336	45.33
695.522	46.15
695.708	46.89
695.894	47.58
696.08	48.41
696.265	49
696.451	49.48
696.637	50.47
696.823	51.01
697.009	51.63
697.194	52.34
697.38	53.06
697.566	53.37
697.751	54.21
697.937	54.84
698.123	55.39
698.308	55.86
698.494	56.54
698.68	56.89
698.865	57.37
699.051	57.99
699.236	58.72
699.422	59.26
699.607	60.11
699.793	60.94
699.978	61.31
700.164	61.7
700.349	62.2
700.535	62.46
700.72	62.64
700.906	63.05
701.091	63.68
701.276	64.3
701.462	64.79
701.647	65.08
701.832	65.71
702.018	66.4
702.203	66.95
702.388	67.38
702.573	68.22
702.759	68.72
702.944	68.73
703.129	68.79
703.314	68.96
703.499	69.11
703.684	69.55
703.87	69.91
704.055	70.42
704.24	71.11
704.425	71.48
704.61	71.77
704.795	72.51
704.98	72.91
705.165	73.39
705.35	73.95
705.535	74.25
705.72	74.33
705.905	74.93
706.09	75.29
706.275	75.35
706.459	75.98
706.644	76.34
706.829	76.43
707.014	76.6
707.199	77.16
707.384	77.37
707.568	77.43
707.753	77.8
707.938	78.12
708.123	78.59
708.307	78.72
708.492	79.29
708.677	79.17
708.861	79.52
709.046	79.18
709.231	79.25
709.415	79.5
709.6	79.44
709.784	79.61
709.969	80.24
710.153	80.24
710.338	80.49
710.522	81.37
710.707	81.35
710.891	81.13
711.076	81.62
711.26	81.67
711.445	81.77
711.629	81.88
711.813	82.39
711.998	82.7
712.182	83.12
712.366	83.88
712.551	84.37
712.735	84.49
712.919	84.82
713.103	84.87
713.288	84.16
713.472	84.42
713.656	84.34
713.84	84.42
714.024	84.51
714.208	84.61
714.393	84.72
714.577	85.26
714.761	85.01
714.945	85.35
715.129	85.73
715.313	85.76
715.497	85.74
715.681	85.82
715.865	85.48
716.049	85.61
716.233	85.46
716.417	85.38
716.601	85.99
716.785	86.59
716.968	86.64
717.152	86.82
717.336	87.24
717.52	87.24
717.704	87.42
717.888	87.42
718.071	87.5
718.255	88.01
718.439	88.11
718.622	87.51
718.806	87.52
718.99	87.4
719.174	87.27
719.357	87.58
719.541	88.92
719.724	89.45
719.908	89.91
720.092	89.62
720.275	89.46
720.459	88.78
720.642	88.56
720.826	88.25
721.009	88.08
721.193	87.99
721.376	88.12
721.559	88.51
721.743	89.09
721.926	89.68
722.11	90.58
722.293	91.46
722.476	90.95
722.66	91.68
722.843	91.93
723.026	91.68
723.21	90.77
723.393	91.87
723.576	91.43
723.759	91.53
723.942	91.18
724.126	91.51
724.309	91.44
724.492	91.6
724.675	91.67
724.858	92.07
725.041	92.68
725.224	93.14
725.407	93.18
725.59	93.59
725.774	93.57
725.957	93.13
726.14	92.39
726.322	93.04
726.505	92.91
726.688	92.91
726.871	92.94
727.054	93.72
727.237	93.1
727.42	92.97
727.603	93.69
727.786	94.13
727.968	93.53
728.151	93.85
728.334	93.98
728.517	93.77
728.699	93.46
728.882	93.92
729.065	93.6
729.248	93.54
729.43	93.38
729.613	93.76
729.796	94.31
729.978	94.5
730.161	94.52
730.343	94.99
730.526	95.42
730.708	95.03
730.891	95.36
731.073	95.41
731.256	95.43
731.438	95.92
731.621	96.17
731.803	96.08
731.986	96.77
732.168	97.46
732.35	97.16
732.533	96.67
732.715	97
732.898	96.45
733.08	96.29
733.262	95.95
733.444	96.95
733.627	96.96
733.809	97.86
733.991	97.78
734.173	97.7
734.355	97.11
734.538	97.65
734.72	96.92
734.902	97.16
735.084	97.24
735.266	97.6
735.448	97.43
735.63	98.64
735.812	98.65
735.994	98.7
736.176	99.47
736.358	99.31
736.54	99.19
736.722	98.42
736.904	98.83
737.086	97.94
737.268	98.61
737.45	98.69
737.632	99.3
737.814	99.78
737.995	99.8
738.177	99.09
738.359	98.49
738.541	99.03
738.723	98.91
738.904	99.12
739.086	100.86
739.268	101.45
739.449	100.19
739.631	100.25
739.813	99.91
739.994	98.69
740.176	98.45
740.358	99.81
740.539	99.27
740.721	100.25
740.902	100.02
741.084	100.39
741.265	100.11
741.447	101.36
741.628	100.75
741.81	100.77
741.991	100.52
742.172	100.04
742.354	99.69
742.535	99.5
742.717	98.96
742.898	99.4
743.079	100.35
743.261	100.18
743.442	99.13
743.623	99.85
743.804	99.15
743.986	99.19
744.167	98.07
744.348	98.59
744.529	99
744.71	99.02
744.891	97.46
745.073	98.88
745.254	100.03
745.435	99.56
745.616	99.54
745.797	99.94
745.978	99.37
746.159	99.91
746.34	100.28
746.521	100.68
746.702	102.39
746.883	102.16
747.064	101.98
747.245	102.1
747.426	101.98
747.606	100.78
747.787	101.96
747.968	100.05
748.149	99.75
748.33	99.54
748.51	98.63
748.691	98.2
748.872	100.16
749.053	98.72
749.233	98.39
749.414	99.12
749.595	98.15
749.775	96.12
749.956	98.09
750.137	97.9
750.317	96.81
750.498	97.68
750.678	98.62
750.859	97.89
751.04	98.6
751.22	99.01
751.4	99.4
751.581	100.2
751.761	101.1
751.942	101.22
752.122	102.27
752.303	101.71
752.483	100.56
752.663	98.81
752.844	99
753.024	99.16
753.204	99.35
753.385	100.99
753.565	101.64
753.745	99.85
753.925	98.14
754.106	98.05
754.286	96.86
754.466	96.85
754.646	97.72
754.826	99.16
755.006	97.55
755.187	98.56
755.367	97.33
755.547	98.62
755.727	98.93
755.907	100.33
756.087	98.7
756.267	98.73
756.447	98.01
756.627	98.64
756.807	98.95
756.987	99.75
757.167	101
757.346	100.34
757.526	99.94
757.706	99.24
757.886	99.4
758.066	99.5
758.246	99.11
758.425	97.33
758.605	96.99
758.785	96.5
758.965	96.8
759.144	96.4
759.324	98.5
759.504	99.33
759.683	99.12
759.863	98.91
760.043	99.14
760.222	98.34
760.402	96.15
760.581	96.96
760.761	95.9
760.94	97.49
761.12	95.23
761.299	96.82
761.479	97.46
761.658	97.86
761.838	97.39
762.017	99.64
762.197	98.26
762.376	97.2
762.555	97.5
762.735	97.47
762.914	97.19
763.093	98.4
763.273	97.69
763.452	96.55
763.631	94.53
763.81	93.35
763.99	92.93
764.169	92.99
764.348	93.39
764.527	95.71
764.706	96.3
764.885	97.44
765.064	98.47
765.243	98.5
765.423	98.18
765.602	98.19
765.781	96.33
765.96	95.49
766.139	96.18
766.318	97.88
766.497	97.8
766.676	96.37
766.854	96.79
767.033	97.21
767.212	97.04
767.391	97.47
767.57	101.33
767.749	99.61
767.928	99.59
768.106	96.72
768.285	96.45
768.464	95.22
768.643	95.59
768.821	94.81
769	95.27
769.179	94.28
769.357	94.44
769.536	94.79
769.715	93.48
769.893	92.53
770.072	92.21
770.25	90.29
770.429	89.68
770.607	91.69
770.786	91.08
770.964	92.92
771.143	94.51
771.321	93.5
771.5	92.31
771.678	93
771.857	91.14
772.035	91.94
772.213	93.25
772.392	93.02
772.57	93.6
772.748	94.18
772.927	92.8
773.105	94.71
773.283	93.14
773.461	93
773.64	92.41
773.818	92.18
773.996	90.1
774.174	91.39
774.352	90.12
774.531	90.78
774.709	90.71
774.887	88.98
775.065	90.51
775.243	91.22
775.421	90.45
775.599	90.9
775.777	91.23
775.955	89.38
776.133	89.79
776.311	90.51
776.489	90.41
776.667	92.54
776.844	93.43
777.022	93.79
777.2	92.15
777.378	90.51
777.556	91.73
777.734	91.25
777.911	90.04
778.089	92.72
778.267	93.48
778.445	94.3
778.622	95.61
778.8	93.29
778.978	92.96
779.155	94.55
779.333	92.07
779.511	91.19
779.688	93.56
779.866	94.28
780.043	95.02
780.221	96.42
780.398	93.91
780.576	93.55
780.753	90.75
780.931	89.97
781.108	90.33
781.286	93.91
781.463	94.63
781.64	95.42
781.818	95.74
781.995	93.56
782.172	91.41
782.35	90.41
782.527	89.87
782.704	87.68
782.882	84.61
783.059	84.63
783.236	86.65
783.413	85.02
783.59	87.17
783.768	91.62
783.945	92.39
784.122	88.92
784.299	91.85
784.476	87.59
784.653	86.63
784.83	84.35
785.007	85.09
785.184	81.88
785.361	85.77
785.538	83.62
785.715	86.3
785.892	89.19
786.069	92.23
786.246	88.96
786.423	92.27
786.6	90.61
786.776	89.89
786.953	87.97
787.13	91.29
787.307	87.55
787.484	83.12
787.66	81.1
787.837	82.65
788.014	82.16
788.191	80.97
788.367	82.44
788.544	84.72
788.721	81.16
788.897	77.75
789.074	79.85
789.25	81.8
789.427	77.38
789.603	80.22
789.78	82.78
789.956	82.41
790.133	81.04
790.309	83.81
790.486	83.27
790.662	79.93
790.839	78.65
791.015	82.24
791.192	79.83
791.368	80.65
791.544	84.33
791.721	85.32
791.897	84.34
792.073	85.42
792.249	85.12
792.426	85.26
792.602	87.73
792.778	87.33
792.954	89.02
793.13	88.19
793.307	86.48
793.483	84.14
793.659	82.08
793.835	82.36
794.011	87.73
794.187	88.65
794.363	88.19
794.539	91.75
794.715	91.46
794.891	85.5
795.067	87.02
795.243	89.27
795.419	88.15
795.595	94.53
795.771	94.32
795.947	92.47
796.122	85.71
796.298	82.68
796.474	81.85
796.65	86.16
796.826	83.13
797.001	88.54
797.177	87.68
797.353	82.95
797.529	78.54
797.704	81.69
797.88	80.33
798.056	84.41
798.231	80.93
798.407	84.67
798.582	83.51
798.758	86.68
798.934	89.67
799.109	89.72
799.285	87.05
799.46	84.8
799.636	83.72
799.811	79.73
799.986	80.88
800.162	76.64
800.337	82.7
800.513	86.18
800.688	81.62
800.863	90.87
801.039	96.37
801.214	87.93
801.389	86.72
801.565	94.2
801.74	84.9
801.915	81.29
802.09	82.36
802.265	77.34
802.441	74.53
802.616	76.82
802.791	79.17
802.966	82.42
803.141	84.33
803.316	85.74
803.491	86.29
803.666	89.21
803.841	84.24
804.016	84.79
804.191	85.23
804.366	84.43
804.541	82.5
804.716	84.84
804.891	83.96
805.066	84.43
805.241	79
805.416	84.79
805.591	88.88
805.765	95.03
805.94	95.69
806.115	103.5
806.29	98.95
806.464	91.83
806.639	87.5
806.814	84.43
806.989	78.29
807.163	76.11
807.338	81.09
807.512	83.97
807.687	80.67
807.862	81.48
808.036	84.36
808.211	86.29
808.385	86.15
808.56	82.54
808.734	75.55
808.909	78.74
809.083	77.31
809.258	78.08
809.432	82.27
809.606	92.58
809.781	89.67
809.955	93.62
810.13	85.83
810.304	88.94
810.478	82.88
810.652	74.99
810.827	78.39
811.001	79.26
811.175	79.99
811.349	84.47
811.524	92.79
811.698	82.01
811.872	82.43
812.046	76.71
812.22	74.18
812.394	70.1
812.568	71.07
812.742	68.23
812.916	74.44
813.09	73.91
813.264	74.02
813.438	75.96
813.612	78.82
813.786	71.25
813.96	74.8
814.134	77.6
814.308	80.8
814.482	78.65
814.656	79.06
814.83	77.14
815.003	76.82
815.177	71.61
815.351	74.81
815.525	74.99
815.698	71.73
815.872	64.3
816.046	58.21
816.219	59.59
816.393	57.49
816.567	53.08
816.74	51.74
816.914	56.84
817.088	54.23
817.261	63.08
817.435	73.96
817.608	73.25
817.782	68.94
817.955	71.52
818.129	66.34
818.302	62.3
818.475	67.04
818.649	74.62
818.822	74.48
818.996	85.65
819.169	97.16
819.342	96.25
819.516	96.24
819.689	95.4
819.862	80.55
820.035	73.99
820.209	73.29
820.382	66.61
820.555	61.3
820.728	70.23
820.901	63.47
821.075	60.13
821.248	65.54
821.421	58.66
821.594	57.89
821.767	67.14
821.94	68.31
822.113	70.25
822.286	86
822.459	77.49
822.632	78.41
822.805	78.57
822.978	71.13
823.151	69.82
823.324	68.14
823.496	58.51
823.669	58.82
823.842	66.25
824.015	65.93
824.188	77.69
824.361	74.74
824.533	74.36
824.706	66.06
824.879	57.96
825.051	60.08
825.224	59.09
825.397	55.61
825.569	65.58
825.742	63.1
825.915	53.76
826.087	50.36
826.26	44.81
826.432	31.91
826.605	27.49
826.777	33.58
826.95	39.08
827.122	31.09
827.295	48.37
827.467	71.37
827.64	61.3
827.812	62.58
827.984	75.74
828.157	61.59
828.329	70.63
828.501	74.6
828.674	79.61
828.846	92.12
829.018	86.86
829.19	63.5
829.363	61.11
829.535	66.21
829.707	62.34
829.879	64.24
830.051	84.31
830.223	80.64
830.395	63.15
830.568	57.26
830.74	51.99
830.912	52.13
831.084	54.43
831.256	53.31
831.428	59.14
831.6	62.38
831.772	46.61
831.943	42.08
832.115	43.23
832.287	54.82
832.459	54.04
832.631	60.56
832.803	58.91
832.975	53.15
833.146	49.27
833.318	49.64
833.49	45.87
833.662	55.97
833.833	81.83
834.005	66.01
834.177	63.82
834.348	60.22
834.52	50.86
834.692	35.98
834.863	45.18
835.035	49.24
835.206	53.86
835.378	66.42
835.549	62.7
835.721	55.71
835.892	53.24
836.064	54.6
836.235	54.19
836.407	65.82
836.578	68.67
836.749	64.12
836.921	58.66
837.092	54.92
837.264	51.52
837.435	51.08
837.606	56.6
837.777	65
837.949	65.22
838.12	64.97
838.291	71.91
838.462	68.75
838.633	61.03
838.805	51.18
838.976	53.93
839.147	55.24
839.318	71.17
839.489	83.97
839.66	86.15
839.831	77.97
840.002	74.71
840.173	74.81
840.344	72.76
840.515	65.95
840.686	80.35
840.857	73.56
841.028	69.22
841.199	74.82
841.369	76.2
841.54	64.77
841.711	93.57
841.882	90.8
842.053	61.94
842.223	54.93
842.394	63
842.565	43.37
842.736	38.45
842.906	37.48
843.077	39.19
843.248	37.27
843.418	44.48
843.589	50.3
843.759	51.34
843.93	59.48
844.101	64.02
844.271	84.58
844.442	73.74
844.612	83.96
844.783	72.76
844.953	71.17
845.123	38.33
845.294	35.59
845.464	14.71
845.635	18.44
845.805	-8.4
845.975	56.08
846.146	49.71
846.316	47.9
846.486	58.43
846.656	54.97
846.827	62.71
846.997	70.98
847.167	65.8
847.337	55.95
847.507	60.95
847.677	55.31
847.848	54.06
848.018	69.27
848.188	81.77
848.358	72.28
848.528	53.59
848.698	46.29
848.868	58.66
849.038	49.2
849.208	64.92
849.378	81.08
849.548	89.22
849.718	49.4
849.887	27.21
850.057	-9.02
850.227	3.49
850.397	6.68
850.567	-2.35
850.737	37.07
850.906	51.37
851.076	29.08
851.246	67.8
851.415	71.53
851.585	48.58
851.755	67.93
851.924	75.1
852.094	43.19
852.264	52.69
852.433	40.47
852.603	13.11
852.772	32.6
852.942	79.23
853.111	93.06
853.281	96.19
853.45	87.1
853.62	75.86
853.789	30.69
853.959	15.59
854.128	21.89
854.297	33.56
854.467	37.77
854.636	59.03
854.805	61.04
854.975	54.21
855.144	62.81
855.313	83.74
855.482	65.66
855.652	80.03
855.821	47.95
855.99	41.2
856.159	17.28
856.328	17.38
856.497	15.54
856.667	34.27
856.836	41.39
857.005	67.96
857.174	70.72
857.343	66.04
857.512	59.18
857.681	53.81
857.85	26.15
858.019	-8.19
858.188	-7.38
858.356	18.5
858.525	47.36
858.694	58.32
858.863	36.84
859.032	54.98
859.201	61.19
859.369	-0.31
859.538	13.35
859.707	33.77
859.876	54.34
860.044	53.89
860.213	58.17
860.382	38.41
860.55	19.77
860.719	-7.24
860.888	-28.72
861.056	-45.69
861.225	-27.39
861.393	-9.75
861.562	1.1
861.73	10.51
861.899	9.56
862.067	5.18
862.236	2.74
862.404	-2.6
862.572	-1.4
862.741	13.34
862.909	17.21
863.078	33.16
863.246	14.77
863.414	12.83
863.582	11.75
863.751	6.42
863.919	17.93
864.087	43.66
864.255	59.81
864.424	50.83
864.592	52.7
864.76	41.39
864.928	46.75
865.096	51.41
865.264	58.76
865.432	71.91
865.6	87.29
865.768	80.51
865.936	58.9
866.104	92.98
866.272	110.54
866.44	69.03
866.608	52.73
866.776	71.91
866.944	59.15
867.112	29.12
867.28	39.46
867.448	47.24
867.615	31.96
867.783	15.62
867.951	44.55
868.119	39.9
868.286	4.06
868.454	16.77
868.622	27.21
868.789	16.18
868.957	34.71
869.125	51.46
869.292	50.36
869.46	60.52
869.627	74.11
869.795	61.86
869.963	67.56
870.13	67.22
870.298	51.9
870.465	55.6
870.632	35.37
870.8	-8.44
870.967	12.28
871.135	6.29
871.302	7.62
871.469	45.22
871.637	76.52
871.804	80.1
871.971	67.76
872.139	78.37
872.306	39.97
872.473	32.83
872.64	2.47
872.807	-87.32
872.975	-232.3
873.142	-35.25
873.309	-9.87
873.476	36.61
873.643	78.63
873.81	64.24
873.977	83.75
874.144	70.9
874.311	11.27
874.478	20.85
874.645	6.41
874.812	72.8
874.979	125.53
875.146	163.21
875.313	121.2
875.48	102.97
875.647	34.89
875.813	-7.72
875.98	0.07
876.147	-29.57
876.314	20.96
876.481	90.26
876.647	75.15
876.814	51.94
876.981	51.82
877.147	48.95
877.314	36.96
877.481	53.74
877.647	65.24
877.814	69.69
877.98	67.47
878.147	78.08
878.314	79.28
878.48	92.68
878.647	90.64
878.813	104.47
878.979	59.04
879.146	72.03
879.312	62.92
879.479	57.46
879.645	19.31
879.811	44.87
879.978	41.77
880.144	39.93
880.31	0.34
880.477	20.46
880.643	25.39
880.809	-24.9
880.975	-22.87
881.142	39.28
881.308	120.86
881.474	431.26
881.64	13.62
881.806	-81.44
881.972	-49.59
882.138	-7.39
882.304	26.82
882.47	-21.35
882.636	-4.38
882.802	-9.97
882.968	-14.8
883.134	1.13
883.3	23.65
883.466	57.96
883.632	123.46
883.798	216.2
883.964	161.09
884.129	519.65
884.295	148.73
884.461	65.64
884.627	36.04
884.793	55.67
884.958	49.74
885.124	20.54
885.29	40.93
885.455	7.11
885.621	35.96
885.787	43.99
885.952	66.27
886.118	33.17
886.283	51.98
886.449	42.9
886.614	36.41
886.78	33.17
886.945	27.9
887.111	-8.81
887.276	-13.78
887.442	-49.87
887.607	-39.21
887.773	1.53
887.938	30.74
888.103	23.3
888.269	50.03
888.434	45.17
888.599	29.06
888.764	38.55
888.93	47.83
889.095	26.98
889.26	1.05
889.425	6.59
889.59	9.66
889.756	-11.19
889.921	0.51
890.086	39.59
890.251	26.74
890.416	1.92
890.581	4.26
890.746	31.23
890.911	40.2
891.076	58.1
891.241	60.42
891.406	49.71
891.571	60.07
891.736	90.32
891.901	80.51
892.065	48.32
892.23	52.35
892.395	51.64
892.56	32.6
892.725	-33.71
892.889	21.95
893.054	94.47
893.219	23.24
893.384	-0.65
893.548	-14.92
893.713	-56.87
893.878	-188.1
