Data from Ofra_PS_T2_2A_8CX24_Reflection_1.txt Node
Date: Wed Jul 21 17:18:33 EDT 2021
User: Adam
Spectrometer: FLMT01687
Trigger mode: 0
Integration Time (sec): 1.100000E0
Scans to average: 2
Electric dark correction enabled: true
Nonlinearity correction enabled: false
Boxcar width: 2
XAxis mode: Wavelengths
Number of Pixels in Spectrum: 3648
>>>>>Begin Spectral Data<<<<<
179.494	546.2
179.716	625.65
179.937	568.5
180.158	518.94
180.38	845.47
180.601	236.88
180.823	65.92
181.044	-7.23
181.265	165.26
181.486	61.86
181.708	81
181.929	311.73
182.15	-3.87
182.372	154.14
182.593	45.03
182.814	16.05
183.035	76.22
183.257	59.69
183.478	9.63
183.699	75.82
183.92	57.08
184.141	71.44
184.363	43.94
184.584	55.66
184.805	57.01
185.026	71.05
185.247	50.18
185.468	28.46
185.689	46.63
185.91	34.54
186.132	17.39
186.353	6.14
186.574	55.53
186.795	32.35
187.016	6.2
187.237	-0.54
187.458	-10.14
187.679	-30.86
187.9	-26.52
188.121	-15.27
188.342	16.66
188.563	39.12
188.784	91.75
189.005	104.99
189.226	158.31
189.447	137.58
189.667	195.27
189.888	-159.48
190.109	-1129.55
190.33	-760.48
190.551	-1361.73
190.772	-277.42
190.993	-161.04
191.214	-64.14
191.434	-26.03
191.655	64.45
191.876	21.36
192.097	-46.11
192.318	-113.68
192.538	-226.03
192.759	-187.76
192.98	-69.03
193.201	-12.74
193.421	9.27
193.642	43.21
193.863	55.52
194.083	33.76
194.304	38.29
194.525	51.88
194.745	61.78
194.966	32.49
195.187	24.15
195.407	-19.56
195.628	-84.6
195.848	-90.01
196.069	-109.91
196.29	-59.48
196.51	-54.37
196.731	-73.02
196.951	-86.94
197.172	-66.35
197.392	-95.71
197.613	-83.47
197.833	-70.75
198.054	-75.12
198.274	-49.3
198.495	-54.41
198.715	-19.22
198.936	-35.55
199.156	-28
199.377	-92.51
199.597	-103.14
199.817	-123.56
200.038	-37.05
200.258	-61.56
200.479	-8.01
200.699	5.34
200.919	42.17
201.14	-18.68
201.36	-32.08
201.58	29.52
201.801	62.96
202.021	28.31
202.241	34.51
202.461	32.79
202.682	-43.64
202.902	-132.41
203.122	-62.74
203.342	-38.75
203.563	8.56
203.783	19.74
204.003	5.77
204.223	4.18
204.443	44.96
204.663	16.98
204.884	31.91
205.104	69.95
205.324	106.45
205.544	89.04
205.764	96.54
205.984	83.41
206.204	56.64
206.424	37.06
206.644	3.23
206.864	-6.05
207.084	-65.39
207.304	18.07
207.525	-55.23
207.745	-20.78
207.964	-1.08
208.184	-30.22
208.404	-113.5
208.624	-110.47
208.844	-94.02
209.064	-434.04
209.284	-423.51
209.504	-160.93
209.724	-38.65
209.944	-28.06
210.164	21.18
210.384	40.54
210.604	25.9
210.823	8.12
211.043	-12.65
211.263	-8.21
211.483	-21.97
211.703	-66.7
211.922	-65.97
212.142	-2.54
212.362	-2.09
212.582	-4.79
212.801	1.46
213.021	-11.74
213.241	-42.42
213.461	-56
213.68	-63.57
213.9	-33.34
214.12	-7.95
214.339	-49.73
214.559	-38.24
214.779	6.91
214.998	34.35
215.218	14.58
215.438	40.66
215.657	46.6
215.877	37.49
216.096	16.55
216.316	25.09
216.535	26.04
216.755	23.9
216.974	-33.06
217.194	-47.15
217.413	-95.84
217.633	-109.87
217.852	-207.82
218.072	-82.5
218.291	-42.74
218.511	8.1
218.73	0.44
218.95	-0.15
219.169	-2.86
219.389	-39.32
219.608	-28.92
219.827	-35.15
220.047	-10.91
220.266	6.23
220.485	-1.96
220.705	0.02
220.924	-18.56
221.143	10.74
221.363	-30.39
221.582	-7.3
221.801	-24.84
222.021	8.37
222.24	-75.38
222.459	9.85
222.678	-9.71
222.897	-24.64
223.117	-58.73
223.336	-31.76
223.555	-7.86
223.774	23.55
223.993	46.13
224.213	85.74
224.432	69.49
224.651	78.93
224.87	45.68
225.089	50.21
225.308	35.59
225.527	58.73
225.746	41.55
225.965	37.85
226.184	32.65
226.404	43.35
226.623	9.39
226.842	17.08
227.061	38.18
227.28	40.65
227.499	27.59
227.718	46.79
227.936	35.03
228.155	56.39
228.374	42.19
228.593	40.65
228.812	35.34
229.031	38.25
229.25	-23.02
229.469	-24.26
229.688	-0.88
229.907	11.9
230.125	34.84
230.344	45.54
230.563	53.15
230.782	51.33
231.001	-20.62
231.22	-27.97
231.438	1.8
231.657	0.58
231.876	0.7
232.095	58.32
232.313	75.11
232.532	70.68
232.751	66.66
232.969	32.8
233.188	-14.48
233.407	-12.53
233.625	-16.51
233.844	-44.08
234.063	-25.48
234.281	0.2
234.5	-9.87
234.719	11.93
234.937	40.8
235.156	40.04
235.374	36.48
235.593	30.78
235.811	18.35
236.03	-2.24
236.249	-19.03
236.467	-13.03
236.686	13.8
236.904	30.84
237.123	20.81
237.341	20.81
237.559	22.85
237.778	12.9
237.996	-4.95
238.215	11.86
238.433	12.36
238.652	10.67
238.87	-23.78
239.088	-5.97
239.307	3.18
239.525	6.72
239.743	-26.9
239.962	-7.22
240.18	-37.72
240.398	-71.06
240.617	-78.14
240.835	-42.29
241.053	-6.84
241.271	59.12
241.49	49.18
241.708	50.39
241.926	49.71
242.144	30.48
242.363	-33.25
242.581	-53.14
242.799	-12.15
243.017	16.06
243.235	6.92
243.453	14.09
243.672	22
243.89	7.94
244.108	-16.11
244.326	-4.83
244.544	-7.92
244.762	-8.72
244.98	11.78
245.198	31.99
245.416	11.71
245.634	16.07
245.852	11.06
246.07	0.02
246.288	-25.08
246.506	-39.7
246.724	-24.84
246.942	-25
247.16	-5.5
247.378	21.37
247.596	42.76
247.814	39.92
248.032	21.96
248.25	25.26
248.468	12.05
248.685	12.55
248.903	45.97
249.121	47.21
249.339	21.69
249.557	21.54
249.775	32.68
249.992	-37.81
250.21	-34.25
250.428	-21.26
250.646	-55.67
250.863	-83.13
251.081	-58.34
251.299	-49.11
251.517	-42.43
251.734	-14.87
251.952	-17.69
252.17	-15.49
252.387	-6.21
252.605	-25.03
252.823	-17.61
253.04	6
253.258	38.78
253.475	26.48
253.693	60.58
253.911	43.2
254.128	55.93
254.346	35.76
254.563	13.79
254.781	-10.62
254.998	-4.38
255.216	-31.42
255.433	-17.77
255.651	41.12
255.868	90.65
256.086	93.18
256.303	83.99
256.521	75.33
256.738	53.24
256.956	4.36
257.173	-16.92
257.39	-39.88
257.608	-71.62
257.825	17.99
258.043	45.14
258.26	46.85
258.477	76.76
258.695	63.22
258.912	-30.88
259.129	-4.11
259.346	-43.07
259.564	-60.03
259.781	-88.82
259.998	-19.42
260.216	6.22
260.433	54.74
260.65	37.71
260.867	78.31
261.084	42.3
261.302	3.38
261.519	1.35
261.736	-26.2
261.953	-62.91
262.17	-21.21
262.387	-28
262.604	-85.32
262.822	-62.78
263.039	-42.02
263.256	-70.49
263.473	-25.42
263.69	4.97
263.907	22.86
264.124	34.14
264.341	37.58
264.558	29.86
264.775	45.54
264.992	43.14
265.209	36.35
265.426	50.48
265.643	44.77
265.86	40.93
266.077	58.02
266.294	45.99
266.51	9.67
266.727	-14.24
266.944	-1.89
267.161	-36.99
267.378	-26.39
267.595	12.65
267.812	6.97
268.028	-18.11
268.245	7.26
268.462	-24.23
268.679	-54.08
268.896	8.31
269.112	19.67
269.329	16.56
269.546	23.4
269.763	32.74
269.979	-5.64
270.196	2.91
270.413	-33.27
270.629	-37.14
270.846	-56.58
271.063	-37.92
271.279	-73.46
271.496	-55.79
271.712	-12.03
271.929	15.96
272.146	17.59
272.362	29.48
272.579	69.16
272.795	61.01
273.012	64.57
273.228	67.04
273.445	49.71
273.661	28.25
273.878	-22.93
274.094	-36.78
274.311	-68.55
274.527	3.29
274.744	-1.51
274.96	-7.74
275.177	5.96
275.393	17.33
275.609	1.88
275.826	29.08
276.042	38.22
276.259	4.33
276.475	24.79
276.691	30.6
276.908	-0.92
277.124	10.67
277.34	29.79
277.557	8.21
277.773	-12.47
277.989	2.71
278.205	-11.18
278.422	-2.38
278.638	3.5
278.854	36.51
279.07	23.42
279.286	28.47
279.503	10
279.719	12.76
279.935	-34.15
280.151	-10.75
280.367	6.3
280.583	-18.09
280.799	-16.88
281.016	-40.91
281.232	-15.34
281.448	-20.95
281.664	16.35
281.88	-13.62
282.096	22.53
282.312	30.74
282.528	63.62
282.744	70.7
282.96	78.66
283.176	48.28
283.392	36.41
283.608	12.81
283.824	5.96
284.04	9.47
284.256	34
284.471	23.08
284.687	23.68
284.903	49.48
285.119	82.99
285.335	51.89
285.551	68.42
285.767	39.63
285.982	17.44
286.198	-59.4
286.414	0.62
286.63	11.33
286.846	53.3
287.061	21.46
287.277	52.32
287.493	19.5
287.709	26.11
287.924	-7.17
288.14	41.94
288.356	39.37
288.571	54.82
288.787	30.53
289.003	34.88
289.218	5.19
289.434	-33.03
289.65	-28.57
289.865	-12.82
290.081	6.43
290.296	10.33
290.512	26.4
290.727	0.41
290.943	-1.2
291.159	-26.09
291.374	-19.81
291.59	-37
291.805	-39.1
292.021	-31.55
292.236	-23.88
292.451	5.3
292.667	22.26
292.882	47.49
293.098	35.5
293.313	40.89
293.529	-12.34
293.744	-39.21
293.959	-45.3
294.175	-34.57
294.39	-13.04
294.605	12
294.821	43.51
295.036	49.03
295.251	48.13
295.467	39.53
295.682	25.63
295.897	-24.94
296.112	-45.39
296.328	-30.36
296.543	-50.26
296.758	-45.92
296.973	-10.54
297.188	25.75
297.404	-3.65
297.619	-17.64
297.834	-22.02
298.049	-40.51
298.264	-63.03
298.479	-1.04
298.694	6.52
298.909	19.55
299.125	23.96
299.34	32.79
299.555	-8.22
299.77	9.31
299.985	-38.51
300.2	-85.42
300.415	-97.69
300.63	-37.44
300.845	-38.37
301.06	-9.91
301.275	18.52
301.49	32.47
301.704	-3.72
301.919	-36.2
302.134	-56.28
302.349	-42.03
302.564	-105.5
302.779	-86.16
302.994	-38.05
303.209	11.11
303.423	-2.04
303.638	47.37
303.853	0.4
304.068	-6.66
304.283	-7.26
304.497	-8
304.712	-24.58
304.927	-12.22
305.142	-7.01
305.356	1.1
305.571	4.71
305.786	-13.61
306	-33.34
306.215	-39.92
306.43	-68.65
306.644	-62.46
306.859	7.7
307.074	40.79
307.288	9.28
307.503	0.28
307.717	-12.71
307.932	-42.03
308.147	-49.75
308.361	-27.62
308.576	-26.9
308.79	-79
309.005	-57.27
309.219	-51.13
309.434	-46.01
309.648	-42.11
309.863	-2.35
310.077	3.01
310.292	1.82
310.506	-2.75
310.72	19.08
310.935	30.53
311.149	26.52
311.364	53.23
311.578	62.07
311.792	57.97
312.007	46.02
312.221	34.88
312.435	32.02
312.649	12.25
312.864	-3.91
313.078	23.29
313.292	85.54
313.507	52.82
313.721	95.28
313.935	84.02
314.149	78.23
314.363	37.02
314.578	40.47
314.792	37.81
315.006	19.59
315.22	27.06
315.434	42.93
315.648	40.36
315.862	32.93
316.077	35.62
316.291	10.02
316.505	15.04
316.719	6.85
316.933	-22.16
317.147	-28.54
317.361	-61.55
317.575	-72.63
317.789	-88.86
318.003	-103.92
318.217	-79.86
318.431	9.6
318.645	41.9
318.859	31.4
319.073	47.27
319.287	40.18
319.5	-1.44
319.714	-55.21
319.928	-71.33
320.142	-89.02
320.356	-35.21
320.57	-10.38
320.784	-1.22
320.997	-14.61
321.211	1.24
321.425	-58.68
321.639	-73.01
321.853	-32.99
322.066	-8.56
322.28	-21.15
322.494	4.54
322.707	27.95
322.921	21.32
323.135	17.63
323.349	25.85
323.562	-8.08
323.776	-17.39
323.989	-23.43
324.203	-44.17
324.417	-47.28
324.63	-61.19
324.844	-78.24
325.057	-75.35
325.271	-40.71
325.485	-11.45
325.698	28.99
325.912	58.02
326.125	43.35
326.339	36.04
326.552	27.22
326.766	19.76
326.979	11.24
327.193	53.23
327.406	40.18
327.619	31.47
327.833	42.12
328.046	25.03
328.26	-7.01
328.473	12.3
328.686	-11.2
328.9	-3.05
329.113	16.83
329.326	-11.9
329.54	-2.5
329.753	-6.31
329.966	-37.11
330.179	-47.85
330.393	-9.54
330.606	-12.1
330.819	18.9
331.032	22.9
331.246	29.77
331.459	52.78
331.672	44.63
331.885	28.91
332.098	10.66
332.311	9.72
332.525	-46.01
332.738	-28.27
332.951	9.83
333.164	51.97
333.377	53.53
333.59	71.83
333.803	70.3
334.016	40.12
334.229	20.85
334.442	20.81
334.655	27.17
334.868	25.91
335.081	53.28
335.294	36.88
335.507	34.02
335.72	25.25
335.933	24.94
336.146	10.67
336.359	-6.99
336.572	-45.95
336.785	-81.84
336.997	-72.96
337.21	-35.63
337.423	-18.11
337.636	-5.79
337.849	13.38
338.062	2.09
338.274	-9.1
338.487	-12.94
338.7	4.24
338.913	-28.64
339.125	-52.61
339.338	-83.82
339.551	-36.17
339.763	-26.48
339.976	0.66
340.189	14.2
340.402	28.5
340.614	-2.4
340.827	-4.62
341.039	-17.89
341.252	5.45
341.465	20.09
341.677	24.34
341.89	-2.71
342.102	20.51
342.315	-1.67
342.527	-32.32
342.74	-22.04
342.952	12.26
343.165	9.48
343.377	33.98
343.59	25.66
343.802	42.83
344.015	38.16
344.227	47.76
344.44	39.12
344.652	32.11
344.864	-4.89
345.077	15.97
345.289	20.5
345.502	26.89
345.714	19.39
345.926	28.91
346.139	20.49
346.351	27.83
346.563	31.79
346.775	47.6
346.988	36.96
347.2	21.98
347.412	-25.19
347.624	-70.38
347.837	-96.45
348.049	-52.28
348.261	-6.13
348.473	-0.92
348.685	13.32
348.897	17.65
349.11	-7.87
349.322	-28.8
349.534	-13.75
349.746	-12.03
349.958	-11.55
350.17	11.44
350.382	28.75
350.594	27.59
350.806	28.15
351.018	32.17
351.23	22.21
351.442	-45.16
351.654	-48.68
351.866	-45.22
352.078	-40.73
352.29	-25.09
352.502	9.4
352.714	21.79
352.926	10.49
353.138	0.01
353.35	-1.21
353.561	-8.98
353.773	-39.21
353.985	-14.99
354.197	-15.23
354.409	-36.09
354.621	-29.97
354.832	-7.01
355.044	-15.58
355.256	-6.61
355.468	23.46
355.679	19.11
355.891	24.92
356.103	-0.46
356.314	-4.83
356.526	-8.69
356.738	2.54
356.949	-7.94
357.161	25.25
357.373	33.53
357.584	17.86
357.796	15.9
358.008	8.91
358.219	20.56
358.431	21.72
358.642	27.66
358.854	27.21
359.065	22.97
359.277	-2.37
359.488	-24.79
359.7	-47.53
359.911	-68.77
360.123	-32.51
360.334	-43.47
360.546	-57.31
360.757	-47.95
360.969	-2.73
361.18	-29.94
361.391	2.33
361.603	-7.35
361.814	3.5
362.025	-26.24
362.237	-16.86
362.448	-9.91
362.659	20.71
362.871	10.85
363.082	17.83
363.293	21.77
363.504	3.78
363.716	-21.29
363.927	-31.39
364.138	-58.82
364.349	-79.63
364.56	-78.44
364.772	-59.18
364.983	-26.13
365.194	-8.99
365.405	9.33
365.616	35.6
365.827	34
366.038	11.91
366.25	1.64
366.461	-27.55
366.672	-9.21
366.883	13.64
367.094	25.41
367.305	13.07
367.516	22.82
367.727	-12.58
367.938	-36.25
368.149	-39.48
368.36	-13.04
368.571	-8.82
368.781	-17.12
368.992	-29.61
369.203	-45.91
369.414	-91.28
369.625	-93.95
369.836	-72.88
370.047	-88.26
370.258	-72.54
370.468	-48.67
370.679	-67.77
370.89	-57.48
371.101	-28.24
371.312	-34.09
371.522	-25.82
371.733	-10.68
371.944	-0.93
372.155	1.75
372.365	-4.52
372.576	-3.93
372.787	1.09
372.997	-26.59
373.208	-19.42
373.419	8.47
373.629	-24.7
373.84	-32.54
374.05	-39.5
374.261	-25.68
374.472	-44.9
374.682	2.16
374.893	5.96
375.103	46.79
375.314	32.8
375.524	40.94
375.735	36.38
375.945	43.37
376.156	4.18
376.366	5.74
376.577	-2.16
376.787	-9.98
376.997	-9.3
377.208	2.78
377.418	-6.53
377.629	11.13
377.839	15.03
378.049	3.61
378.26	19.73
378.47	23.61
378.68	8.46
378.89	0.97
379.101	0.11
379.311	-39.23
379.521	-66.21
379.732	-60.27
379.942	-54.58
380.152	-70.04
380.362	-28.93
380.572	-21.55
380.783	-10.38
380.993	-1.32
381.203	7.11
381.413	10.28
381.623	12.45
381.833	16.23
382.043	3.45
382.253	3.87
382.463	5.73
382.674	1.21
382.884	-19.7
383.094	-14.8
383.304	-8.1
383.514	-10.61
383.724	-0.16
383.934	-2.21
384.144	-13.42
384.353	-18.38
384.563	-11.97
384.773	-7.95
384.983	-7.98
385.193	11.54
385.403	12.53
385.613	6.76
385.823	-7.77
386.033	-1.44
386.242	-15.91
386.452	-16.84
386.662	-22.69
386.872	-5.93
387.082	-9.65
387.291	-10.69
387.501	-13.12
387.711	-8.11
387.921	-18.53
388.13	-14.78
388.34	3.53
388.55	-1.73
388.759	-4.25
388.969	1.57
389.179	-0.74
389.388	-4.75
389.598	-1.62
389.807	-6.02
390.017	-8.35
390.227	-6.24
390.436	-13.67
390.646	-12.09
390.855	-8.16
391.065	-8.48
391.274	-11.45
391.484	-11.24
391.693	-7.86
391.903	-5.7
392.112	0.44
392.322	7.65
392.531	13.96
392.74	13.93
392.95	9.65
393.159	6.49
393.369	2.51
393.578	-0.76
393.787	-3.56
393.997	-0.63
394.206	-2.49
394.415	-2.7
394.625	-2.13
394.834	-3.84
395.043	-3.71
395.252	-1.16
395.462	1.25
395.671	3.28
395.88	5.47
396.089	6.5
396.298	4.28
396.508	2.87
396.717	0.92
396.926	1.04
397.135	-0.09
397.344	0.35
397.553	1.23
397.762	2.64
397.971	2.65
398.181	2.85
398.39	2.2
398.599	1.23
398.808	1.08
399.017	1.8
399.226	3.03
399.435	4.58
399.644	5.15
399.853	4.08
400.062	3.57
400.27	2.8
400.479	2.17
400.688	1.16
400.897	1.91
401.106	1.74
401.315	1.7
401.524	1.79
401.733	2.64
401.941	2.98
402.15	3.19
402.359	2.98
402.568	3.52
402.777	3.79
402.985	3.44
403.194	3.23
403.403	3.43
403.612	2.67
403.82	2.25
404.029	2.31
404.238	2.38
404.446	2.66
404.655	2.59
404.864	2.66
405.072	2.38
405.281	2.5
405.489	2.19
405.698	2.31
405.906	2.32
406.115	2.45
406.324	2.23
406.532	2.34
406.741	2.63
406.949	2.58
407.158	2.47
407.366	2.57
407.574	2.47
407.783	2.39
407.991	2.1
408.2	2.38
408.408	2.27
408.617	2.23
408.825	2.07
409.033	2.38
409.242	2.31
409.45	2.47
409.658	2.33
409.867	2.47
410.075	2.28
410.283	2.19
410.491	2
410.7	2.03
410.908	1.96
411.116	2.37
411.324	2.32
411.533	2.38
411.741	2.69
411.949	2.75
412.157	2.29
412.365	2.32
412.573	2.3
412.781	2.21
412.99	2.07
413.198	2.3
413.406	2.46
413.614	2.43
413.822	2.2
414.03	2.17
414.238	1.91
414.446	1.88
414.654	1.79
414.862	1.96
415.07	2.11
415.278	2.41
415.486	2.16
415.694	2.28
415.902	2.13
416.109	1.85
416.317	1.74
416.525	1.7
416.733	1.62
416.941	1.77
417.149	1.84
417.357	1.88
417.564	2.05
417.772	2.32
417.98	2.22
418.188	2.32
418.395	2.42
418.603	2.59
418.811	2.15
419.019	2.18
419.226	2.31
419.434	2.24
419.642	1.88
419.849	2.14
420.057	2.16
420.265	2.05
420.472	1.85
420.68	2
420.887	1.87
421.095	1.93
421.302	1.87
421.51	2.08
421.717	2.12
421.925	2.22
422.132	2.02
422.34	1.88
422.547	1.78
422.755	1.7
422.962	1.54
423.17	1.48
423.377	1.68
423.585	1.75
423.792	1.74
423.999	1.73
424.207	1.71
424.414	1.81
424.621	1.76
424.829	1.87
425.036	1.93
425.243	2.24
425.451	1.93
425.658	1.72
425.865	1.77
426.072	1.89
426.28	1.94
426.487	1.93
426.694	2.11
426.901	1.79
427.108	1.67
427.315	1.54
427.523	1.84
427.73	1.86
427.937	1.85
428.144	1.6
428.351	1.49
428.558	1.6
428.765	1.51
428.972	1.5
429.179	1.86
429.386	2.23
429.593	1.93
429.8	1.86
430.007	2.01
430.214	2.09
430.421	1.79
430.628	1.72
430.835	1.71
431.042	1.85
431.249	1.79
431.456	1.79
431.662	1.88
431.869	2
432.076	2
432.283	2.06
432.49	2.11
432.697	2.14
432.903	1.91
433.11	1.71
433.317	1.74
433.524	1.89
433.73	1.83
433.937	2.24
434.144	2.35
434.35	2.29
434.557	2.02
434.764	2.14
434.97	1.93
435.177	2.06
435.384	1.98
435.59	2.27
435.797	2.4
436.003	2.56
436.21	2.5
436.416	2.55
436.623	2.45
436.829	2.45
437.036	2.42
437.242	2.46
437.449	2.43
437.655	2.4
437.862	2.35
438.068	2.27
438.275	2.41
438.481	2.58
438.687	2.6
438.894	2.63
439.1	2.67
439.307	2.73
439.513	2.6
439.719	2.55
439.926	2.68
440.132	2.73
440.338	2.59
440.544	2.76
440.751	2.82
440.957	2.76
441.163	2.65
441.369	2.72
441.575	2.47
441.782	2.47
441.988	2.33
442.194	2.34
442.4	2.24
442.606	2.42
442.812	2.45
443.018	2.63
443.224	2.72
443.431	2.96
443.637	2.78
443.843	2.63
444.049	2.58
444.255	2.43
444.461	2.35
444.667	2.39
444.873	2.65
445.079	2.65
445.284	2.77
445.49	2.54
445.696	2.46
445.902	2.23
446.108	2.19
446.314	2.15
446.52	2.21
446.726	2.51
446.931	2.63
447.137	2.62
447.343	2.62
447.549	2.62
447.755	2.41
447.96	2.46
448.166	2.39
448.372	2.42
448.578	2.41
448.783	2.52
448.989	2.52
449.195	2.69
449.4	2.63
449.606	2.64
449.812	2.5
450.017	2.51
450.223	2.38
450.428	2.38
450.634	2.49
450.84	2.61
451.045	2.59
451.251	2.53
451.456	2.77
451.662	2.85
451.867	2.87
452.073	2.79
452.278	2.95
452.483	2.95
452.689	2.83
452.894	2.85
453.1	2.84
453.305	2.78
453.51	2.65
453.716	2.65
453.921	2.62
454.127	2.65
454.332	2.63
454.537	2.54
454.742	2.49
454.948	2.44
455.153	2.46
455.358	2.47
455.563	2.7
455.769	2.85
455.974	2.85
456.179	2.74
456.384	2.78
456.589	2.66
456.795	2.44
457	2.47
457.205	2.72
457.41	2.66
457.615	2.65
457.82	2.72
458.025	2.72
458.23	2.56
458.435	2.65
458.64	2.59
458.845	2.78
459.05	2.83
459.255	2.92
459.46	2.9
459.665	2.88
459.87	2.84
460.075	2.78
460.28	2.69
460.485	2.69
460.69	2.76
460.895	2.57
461.099	2.45
461.304	2.64
461.509	2.69
461.714	2.58
461.919	2.8
462.123	2.84
462.328	2.85
462.533	2.75
462.738	2.95
462.942	2.81
463.147	2.88
463.352	2.86
463.556	2.88
463.761	2.79
463.966	2.85
464.17	2.88
464.375	2.71
464.58	2.67
464.784	2.68
464.989	2.53
465.193	2.51
465.398	2.58
465.602	2.71
465.807	2.77
466.011	2.89
466.216	2.92
466.42	2.98
466.625	3.01
466.829	2.99
467.034	2.99
467.238	3.2
467.443	3.12
467.647	2.98
467.851	3.05
468.056	3.15
468.26	3.03
468.464	3.15
468.669	3.22
468.873	3.36
469.077	3.25
469.282	3.3
469.486	3.24
469.69	3.26
469.894	3.05
470.099	3.15
470.303	3.19
470.507	3.14
470.711	3.04
470.915	3.12
471.119	3.03
471.324	2.94
471.528	3
471.732	3.1
471.936	3.01
472.14	3.09
472.344	3.12
472.548	3.14
472.752	3.27
472.956	3.55
473.16	3.51
473.364	3.38
473.568	3.41
473.772	3.38
473.976	3.17
474.18	3.16
474.384	3.25
474.588	3.19
474.792	3.02
474.995	3.13
475.199	3.22
475.403	3.34
475.607	3.39
475.811	3.44
476.015	3.52
476.218	3.55
476.422	3.4
476.626	3.46
476.83	3.63
477.033	3.49
477.237	3.37
477.441	3.44
477.644	3.46
477.848	3.31
478.052	3.24
478.255	3.29
478.459	3.32
478.663	3.41
478.866	3.49
479.07	3.62
479.273	3.81
479.477	3.83
479.681	3.75
479.884	3.7
480.088	3.63
480.291	3.49
480.495	3.47
480.698	3.46
480.901	3.49
481.105	3.59
481.308	3.61
481.512	3.6
481.715	3.62
481.919	3.64
482.122	3.61
482.325	3.61
482.529	3.6
482.732	3.59
482.935	3.57
483.138	3.55
483.342	3.64
483.545	3.74
483.748	3.79
483.952	3.85
484.155	4
484.358	3.98
484.561	3.92
484.764	3.93
484.967	3.96
485.171	3.99
485.374	3.92
485.577	3.99
485.78	4
485.983	4.03
486.186	3.85
486.389	3.84
486.592	3.86
486.795	3.85
486.998	3.78
487.201	3.88
487.404	3.95
487.607	4.05
487.81	4.05
488.013	4.16
488.216	4.12
488.419	4.13
488.622	4.03
488.825	3.98
489.028	3.86
489.231	3.83
489.433	3.74
489.636	3.64
489.839	3.65
490.042	3.57
490.245	3.52
490.447	3.64
490.65	3.68
490.853	3.66
491.056	3.83
491.258	3.91
491.461	3.83
491.664	3.92
491.866	3.86
492.069	3.96
492.272	3.97
492.474	4.02
492.677	4.02
492.879	4.18
493.082	4.09
493.285	4.23
493.487	4.22
493.69	4.11
493.892	3.93
494.095	3.91
494.297	3.78
494.5	3.78
494.702	3.86
494.905	4.01
495.107	4
495.309	4.03
495.512	4.1
495.714	4.14
495.917	4.14
496.119	4.15
496.321	4.2
496.524	4.19
496.726	4.13
496.928	4.13
497.13	4.09
497.333	4.04
497.535	4.07
497.737	4.09
497.939	4.08
498.142	4.13
498.344	4.09
498.546	3.98
498.748	4.05
498.95	4.18
499.152	4.13
499.355	4.2
499.557	4.38
499.759	4.44
499.961	4.39
500.163	4.44
500.365	4.44
500.567	4.45
500.769	4.35
500.971	4.35
501.173	4.31
501.375	4.3
501.577	4.17
501.779	4.17
501.981	4.22
502.183	4.25
502.385	4.25
502.587	4.19
502.788	4.27
502.99	4.16
503.192	4.19
503.394	4.21
503.596	4.3
503.798	4.32
503.999	4.43
504.201	4.45
504.403	4.53
504.605	4.58
504.806	4.55
505.008	4.51
505.21	4.53
505.411	4.51
505.613	4.54
505.815	4.55
506.016	4.64
506.218	4.75
506.42	4.75
506.621	4.71
506.823	4.7
507.024	4.59
507.226	4.5
507.427	4.51
507.629	4.62
507.83	4.72
508.032	4.78
508.233	4.87
508.435	4.94
508.636	4.93
508.838	4.86
509.039	4.87
509.24	4.88
509.442	4.89
509.643	4.82
509.845	4.84
510.046	4.91
510.247	4.92
510.448	4.87
510.65	4.94
510.851	5.05
511.052	4.98
511.254	4.95
511.455	5.06
511.656	5.12
511.857	5.12
512.058	5.11
512.26	5.08
512.461	5.05
512.662	5.1
512.863	5.04
513.064	5.06
513.265	5.08
513.466	5.1
513.667	5.01
513.868	5.04
514.069	5.13
514.27	5.22
514.471	5.19
514.672	5.23
514.873	5.23
515.074	5.23
515.275	5.1
515.476	5.1
515.677	5.12
515.878	5.17
516.079	5.16
516.28	5.23
516.481	5.37
516.682	5.41
516.882	5.39
517.083	5.37
517.284	5.34
517.485	5.27
517.686	5.21
517.886	5.18
518.087	5.21
518.288	5.25
518.488	5.2
518.689	5.24
518.89	5.25
519.091	5.29
519.291	5.29
519.492	5.36
519.692	5.37
519.893	5.46
520.094	5.47
520.294	5.46
520.495	5.42
520.695	5.5
520.896	5.45
521.096	5.46
521.297	5.48
521.497	5.48
521.698	5.4
521.898	5.44
522.099	5.42
522.299	5.51
522.499	5.57
522.7	5.6
522.9	5.57
523.101	5.68
523.301	5.63
523.501	5.67
523.702	5.71
523.902	5.8
524.102	5.81
524.302	5.82
524.503	5.83
524.703	5.83
524.903	5.86
525.103	5.77
525.304	5.84
525.504	5.87
525.704	5.92
525.904	5.83
526.104	5.87
526.304	5.85
526.504	5.86
526.705	5.83
526.905	5.93
527.105	5.92
527.305	5.92
527.505	5.84
527.705	5.84
527.905	5.83
528.105	5.89
528.305	5.85
528.505	5.98
528.705	6.05
528.905	6.02
529.105	6
529.304	6.08
529.504	6.05
529.704	6.04
529.904	6.11
530.104	6.15
530.304	6.21
530.503	6.2
530.703	6.14
530.903	6.09
531.103	6.11
531.303	6.07
531.502	6.08
531.702	6.19
531.902	6.24
532.101	6.2
532.301	6.22
532.501	6.29
532.7	6.23
532.9	6.24
533.1	6.28
533.299	6.29
533.499	6.29
533.698	6.31
533.898	6.31
534.097	6.34
534.297	6.44
534.496	6.46
534.696	6.5
534.895	6.63
535.095	6.73
535.294	6.67
535.494	6.68
535.693	6.74
535.892	6.69
536.092	6.58
536.291	6.59
536.491	6.65
536.69	6.71
536.889	6.66
537.088	6.68
537.288	6.76
537.487	6.8
537.686	6.76
537.886	6.86
538.085	6.87
538.284	6.93
538.483	6.85
538.682	6.93
538.882	6.93
539.081	7.03
539.28	6.93
539.479	6.98
539.678	6.93
539.877	7.04
540.076	7.06
540.275	7.1
540.474	7.17
540.673	7.26
540.872	7.22
541.071	7.29
541.27	7.37
541.469	7.36
541.668	7.33
541.867	7.36
542.066	7.38
542.265	7.43
542.464	7.41
542.663	7.44
542.862	7.59
543.06	7.59
543.259	7.59
543.458	7.7
543.657	7.78
543.856	7.75
544.054	7.69
544.253	7.72
544.452	7.64
544.651	7.74
544.849	7.67
545.048	7.81
545.247	7.82
545.445	7.98
545.644	7.96
545.843	8.01
546.041	8.03
546.24	8.16
546.438	8.24
546.637	8.28
546.836	8.42
547.034	8.47
547.233	8.48
547.431	8.44
547.63	8.47
547.828	8.46
548.027	8.51
548.225	8.52
548.423	8.56
548.622	8.64
548.82	8.68
549.019	8.77
549.217	8.93
549.415	8.95
549.614	9.03
549.812	9.09
550.01	9.05
550.209	9.04
550.407	9.2
550.605	9.18
550.803	9.29
551.002	9.44
551.2	9.42
551.398	9.5
551.596	9.68
551.794	9.7
551.993	9.71
552.191	9.85
552.389	9.93
552.587	9.97
552.785	10.07
552.983	10.18
553.181	10.27
553.379	10.33
553.577	10.34
553.775	10.41
553.973	10.45
554.171	10.51
554.369	10.47
554.567	10.59
554.765	10.68
554.963	10.88
555.161	10.86
555.359	11
555.557	11.15
555.755	11.15
555.952	11.19
556.15	11.29
556.348	11.37
556.546	11.42
556.744	11.52
556.941	11.54
557.139	11.67
557.337	11.7
557.535	11.7
557.732	11.83
557.93	11.95
558.128	12.08
558.325	12.22
558.523	12.24
558.721	12.35
558.918	12.33
559.116	12.36
559.313	12.33
559.511	12.57
559.708	12.57
559.906	12.73
560.104	12.82
560.301	13.05
560.498	13.04
560.696	13.17
560.893	13.21
561.091	13.32
561.288	13.45
561.486	13.6
561.683	13.65
561.88	13.76
562.078	13.83
562.275	13.76
562.473	13.81
562.67	14
562.867	14.24
563.064	14.38
563.262	14.53
563.459	14.61
563.656	14.7
563.853	14.65
564.051	14.68
564.248	14.85
564.445	15.01
564.642	15.09
564.839	15.22
565.036	15.38
565.234	15.54
565.431	15.54
565.628	15.69
565.825	15.81
566.022	15.95
566.219	16.01
566.416	16.15
566.613	16.17
566.81	16.26
567.007	16.23
567.204	16.23
567.401	16.26
567.598	16.34
567.795	16.32
567.991	16.37
568.188	16.48
568.385	16.66
568.582	16.71
568.779	16.85
568.976	16.98
569.172	17.12
569.369	17.12
569.566	17.19
569.763	17.31
569.96	17.33
570.156	17.28
570.353	17.27
570.55	17.33
570.746	17.33
570.943	17.41
571.14	17.37
571.336	17.49
571.533	17.58
571.729	17.57
571.926	17.68
572.123	17.86
572.319	17.87
572.516	17.9
572.712	17.99
572.909	17.96
573.105	18.03
573.302	18.11
573.498	18.19
573.695	18.18
573.891	18.25
574.087	18.24
574.284	18.2
574.48	18.12
574.677	18.21
574.873	18.29
575.069	18.37
575.266	18.47
575.462	18.53
575.658	18.62
575.854	18.62
576.051	18.61
576.247	18.62
576.443	18.62
576.639	18.58
576.835	18.49
577.032	18.47
577.228	18.54
577.424	18.64
577.62	18.52
577.816	18.61
578.012	18.61
578.208	18.59
578.404	18.63
578.6	18.74
578.796	18.74
578.993	18.83
579.189	18.8
579.384	18.7
579.58	18.62
579.776	18.59
579.972	18.51
580.168	18.37
580.364	18.42
580.56	18.47
580.756	18.44
580.952	18.38
581.148	18.51
581.343	18.54
581.539	18.55
581.735	18.65
581.931	18.8
582.127	18.82
582.322	18.71
582.518	18.76
582.714	18.74
582.909	18.65
583.105	18.56
583.301	18.53
583.496	18.48
583.692	18.44
583.888	18.39
584.083	18.46
584.279	18.5
584.474	18.54
584.67	18.59
584.866	18.64
585.061	18.54
585.257	18.69
585.452	18.64
585.648	18.51
585.843	18.5
586.039	18.52
586.234	18.42
586.429	18.36
586.625	18.48
586.82	18.45
587.015	18.45
587.211	18.34
587.406	18.38
587.601	18.34
587.797	18.33
587.992	18.35
588.187	18.46
588.383	18.51
588.578	18.49
588.773	18.56
588.968	18.63
589.163	18.67
589.359	18.63
589.554	18.59
589.749	18.59
589.944	18.65
590.139	18.71
590.334	18.75
590.529	18.88
590.724	18.94
590.919	18.97
591.114	18.96
591.309	19.05
591.504	19.05
591.699	19.07
591.894	19.16
592.089	19.1
592.284	19.11
592.479	19.32
592.674	19.3
592.869	19.27
593.064	19.49
593.259	19.58
593.454	19.55
593.648	19.65
593.843	19.71
594.038	19.62
594.233	19.58
594.428	19.61
594.622	19.64
594.817	19.8
595.012	19.9
595.206	19.96
595.401	20.01
595.596	20.16
595.79	20.12
595.985	20.31
596.18	20.46
596.374	20.58
596.569	20.53
596.763	20.61
596.958	20.66
597.153	20.74
597.347	20.7
597.542	20.93
597.736	20.89
597.931	20.88
598.125	20.99
598.319	21.16
598.514	21.1
598.708	21.28
598.903	21.32
599.097	21.32
599.291	21.27
599.486	21.34
599.68	21.26
599.874	21.37
600.069	21.39
600.263	21.42
600.457	21.46
600.651	21.57
600.846	21.58
601.04	21.63
601.234	21.72
601.428	21.87
601.622	21.97
601.817	21.97
602.011	22.06
602.205	22.13
602.399	22.07
602.593	21.94
602.787	21.98
602.981	21.91
603.175	21.88
603.369	21.79
603.563	21.95
603.757	22.02
603.951	22.09
604.145	22.08
604.339	22.19
604.533	22.06
604.727	21.94
604.921	21.87
605.115	21.97
605.309	22.03
605.502	22.07
605.696	22.09
605.89	22.06
606.084	21.92
606.278	21.81
606.471	21.69
606.665	21.67
606.859	21.56
607.053	21.53
607.246	21.43
607.44	21.47
607.634	21.33
607.827	21.32
608.021	21.21
608.214	21.24
608.408	21.1
608.602	21.1
608.795	21.04
608.989	20.98
609.182	20.83
609.376	20.77
609.569	20.71
609.763	20.61
609.956	20.49
610.15	20.43
610.343	20.43
610.537	20.35
610.73	20.4
610.923	20.41
611.117	20.39
611.31	20.22
611.504	20.2
611.697	19.99
611.89	19.92
612.083	19.89
612.277	19.87
612.47	19.75
612.663	19.73
612.856	19.71
613.05	19.48
613.243	19.41
613.436	19.31
613.629	19.24
613.822	19.11
614.015	19.12
614.209	19.03
614.402	19.05
614.595	18.97
614.788	18.93
614.981	18.79
615.174	18.65
615.367	18.53
615.56	18.51
615.753	18.4
615.946	18.39
616.139	18.54
616.332	18.61
616.525	18.53
616.718	18.57
616.911	18.6
617.103	18.45
617.296	18.38
617.489	18.38
617.682	18.24
617.875	18.22
618.067	18.13
618.26	17.94
618.453	17.94
618.646	17.95
618.838	17.89
619.031	18.01
619.224	18.05
619.417	18
619.609	18.06
619.802	18.01
619.994	17.93
620.187	17.93
620.38	17.85
620.572	17.74
620.765	17.78
620.957	17.69
621.15	17.52
621.342	17.48
621.535	17.48
621.727	17.41
621.92	17.38
622.112	17.43
622.305	17.49
622.497	17.41
622.69	17.41
622.882	17.43
623.074	17.44
623.267	17.33
623.459	17.29
623.651	17.23
623.844	17.2
624.036	17.27
624.228	17.2
624.42	17.16
624.613	17.25
624.805	17.19
624.997	17.1
625.189	17.14
625.381	17.26
625.574	17.06
625.766	17
625.958	17.08
626.15	17.03
626.342	16.92
626.534	17
626.726	17.03
626.918	16.91
627.11	16.89
627.302	16.87
627.494	16.75
627.686	16.78
627.878	16.71
628.07	16.68
628.262	16.68
628.454	16.74
628.646	16.74
628.838	16.75
629.029	16.71
629.221	16.75
629.413	16.57
629.605	16.38
629.797	16.28
629.989	16.31
630.18	16.26
630.372	16.31
630.564	16.35
630.755	16.42
630.947	16.52
631.139	16.4
631.33	16.32
631.522	16.44
631.714	16.43
631.905	16.35
632.097	16.31
632.289	16.39
632.48	16.3
632.672	16.21
632.863	16.02
633.055	16.05
633.246	16.03
633.438	15.94
633.629	16
633.821	16.07
634.012	16.03
634.203	15.97
634.395	15.9
634.586	15.89
634.777	15.81
634.969	15.83
635.16	15.87
635.351	15.89
635.543	15.81
635.734	15.8
635.925	15.72
636.117	15.73
636.308	15.77
636.499	15.77
636.69	15.77
636.881	15.77
637.073	15.81
637.264	15.87
637.455	15.88
637.646	16.08
637.837	16.14
638.028	16.06
638.219	16.05
638.41	15.99
638.601	15.79
638.792	15.85
638.983	15.85
639.174	15.66
639.365	15.76
639.556	15.76
639.747	15.67
639.938	15.72
640.129	15.77
640.32	15.68
640.511	15.69
640.701	15.75
640.892	15.66
641.083	15.71
641.274	15.72
641.465	15.73
641.655	15.58
641.846	15.54
642.037	15.49
642.228	15.37
642.418	15.38
642.609	15.46
642.8	15.51
642.99	15.48
643.181	15.56
643.372	15.62
643.562	15.5
643.753	15.42
643.943	15.37
644.134	15.3
644.324	15.14
644.515	15.18
644.705	15.25
644.896	15.22
645.086	15.21
645.277	15.2
645.467	15.25
645.658	15.17
645.848	15.24
646.038	15.24
646.229	15.18
646.419	15.02
646.61	15.03
646.8	14.88
646.99	14.84
647.18	14.84
647.371	14.86
647.561	14.82
647.751	14.85
647.941	14.73
648.132	14.75
648.322	14.77
648.512	14.81
648.702	14.74
648.892	14.74
649.082	14.67
649.272	14.45
649.462	14.21
649.653	14.21
649.843	14.22
650.033	14.24
650.223	14.32
650.413	14.39
650.603	14.35
650.793	14.35
650.983	14.17
651.172	14.07
651.362	14.01
651.552	13.92
651.742	13.79
651.932	13.81
652.122	13.87
652.312	13.87
652.502	13.85
652.691	13.82
652.881	13.7
653.071	13.62
653.261	13.43
653.45	13.2
653.64	13.19
653.83	13.02
654.019	12.89
654.209	12.91
654.399	12.98
654.588	12.79
654.778	12.78
654.968	12.66
655.157	12.53
655.347	12.37
655.536	12.24
655.726	12.12
655.915	11.98
656.105	11.87
656.294	11.75
656.484	11.62
656.673	11.49
656.863	11.41
657.052	11.23
657.241	11.04
657.431	10.83
657.62	10.65
657.809	10.33
657.999	10.11
658.188	10.01
658.377	9.89
658.567	9.84
658.756	9.75
658.945	9.7
659.134	9.51
659.324	9.42
659.513	9.19
659.702	9.06
659.891	8.94
660.08	8.77
660.269	8.68
660.458	8.56
660.648	8.49
660.837	8.36
661.026	8.28
661.215	8.13
661.404	8.01
661.593	7.86
661.782	7.61
661.971	7.56
662.16	7.43
662.349	7.36
662.538	7.16
662.726	7.22
662.915	7
663.104	6.88
663.293	6.86
663.482	6.98
663.671	6.8
663.86	6.77
664.048	6.7
664.237	6.57
664.426	6.24
664.615	6.31
664.803	6.35
664.992	6.39
665.181	6.28
665.369	6.32
665.558	6.14
665.747	5.99
665.935	6
666.124	6.06
666.312	6.14
666.501	6.16
666.69	6.1
666.878	5.97
667.067	5.82
667.255	5.8
667.444	5.97
667.632	6.02
667.82	6.05
668.009	6.1
668.197	6.01
668.386	5.88
668.574	6.01
668.762	5.97
668.951	5.98
669.139	6.04
669.327	5.9
669.516	5.87
669.704	5.85
669.892	5.98
670.08	5.93
670.269	5.86
670.457	5.71
670.645	5.51
670.833	5.47
671.021	5.46
671.21	5.63
671.398	5.84
671.586	6
671.774	5.85
671.962	5.81
672.15	5.83
672.338	5.7
672.526	5.78
672.714	5.8
672.902	5.88
673.09	6.06
673.278	6.25
673.466	6.41
673.654	6.58
673.842	6.62
674.03	6.58
674.218	6.44
674.405	6.3
674.593	6.22
674.781	6.34
674.969	6.32
675.157	6.56
675.344	6.78
675.532	6.94
675.72	7.03
675.908	7.17
676.095	7.02
676.283	6.97
676.471	7.19
676.658	7.14
676.846	7.17
677.033	7.33
677.221	7.35
677.409	7.14
677.596	7.24
677.784	7.25
677.971	7.25
678.159	7.34
678.346	7.49
678.534	7.52
678.721	7.7
678.909	7.71
679.096	7.78
679.283	7.99
679.471	8.15
679.658	8.17
679.846	8.34
680.033	8.58
680.22	8.54
680.408	8.45
680.595	8.56
680.782	8.54
680.969	8.52
681.157	8.59
681.344	8.72
681.531	8.73
681.718	8.85
681.905	8.97
682.093	9.19
682.28	9.45
682.467	9.77
682.654	10
682.841	10.13
683.028	10.4
683.215	10.57
683.402	10.52
683.589	10.72
683.776	10.95
683.963	10.89
684.15	11.1
684.337	11.34
684.524	11.52
684.711	11.85
684.898	12.06
685.085	12.36
685.271	12.79
685.458	12.92
685.645	12.96
685.832	13.37
686.019	13.56
686.205	13.6
686.392	14.09
686.579	14.32
686.766	14.57
686.952	14.73
687.139	15.32
687.326	15.53
687.512	16
687.699	16.32
687.886	16.71
688.072	16.79
688.259	17.25
688.445	17.69
688.632	18.02
688.818	18.78
689.005	19.3
689.191	19.66
689.378	20.26
689.564	21.04
689.751	21.36
689.937	21.97
690.124	22.71
690.31	22.99
690.496	23.35
690.683	23.96
690.869	24.34
691.055	24.81
691.242	25.66
691.428	26.2
691.614	26.74
691.8	27.57
691.987	28.15
692.173	28.65
692.359	29.51
692.545	30.3
692.731	31.01
692.918	31.87
693.104	32.57
693.29	33.14
693.476	33.74
693.662	34.23
693.848	34.81
694.034	35.38
694.22	35.95
694.406	36.67
694.592	37.51
694.778	38.13
694.964	38.98
695.15	39.92
695.336	40.55
695.522	41.53
695.708	42.3
695.894	43.03
696.08	43.92
696.265	44.41
696.451	44.91
696.637	45.58
696.823	46.28
697.009	46.7
697.194	47.57
697.38	47.99
697.566	48.52
697.751	49.19
697.937	50.07
698.123	50.83
698.308	51.75
698.494	52.63
698.68	53.01
698.865	53.54
699.051	54.18
699.236	54.45
699.422	54.98
699.607	55.41
699.793	55.7
699.978	56.06
700.164	56.49
700.349	57.3
700.535	58.16
700.72	58.64
700.906	59.56
701.091	60.53
701.276	60.93
701.462	61.59
701.647	62.45
701.832	62.67
702.018	63.07
702.203	63.2
702.388	63.06
702.573	63.33
702.759	64.08
702.944	64.49
703.129	64.97
703.314	65.84
703.499	66.17
703.684	66.18
703.87	67.01
704.055	67.72
704.24	67.93
704.425	68.6
704.61	69.15
704.795	68.78
704.98	68.84
705.165	69.08
705.35	69.13
705.535	69.44
705.72	70.18
705.905	70.45
706.09	71.16
706.275	71.47
706.459	71.26
706.644	71.4
706.829	72.02
707.014	71.96
707.199	72.32
707.384	72.86
707.568	73.45
707.753	73.75
707.938	74.17
708.123	74.4
708.307	74.89
708.492	74.55
708.677	74.73
708.861	74.71
709.046	74.87
709.231	75.19
709.415	75.77
709.6	75.53
709.784	75.57
709.969	75.8
710.153	75.81
710.338	76.05
710.522	76.42
710.707	77.31
710.891	77.58
711.076	77.91
711.26	77.91
711.445	78.27
711.629	78.05
711.813	78.27
711.998	78.54
712.182	78.7
712.366	79.33
712.551	80.42
712.735	80.37
712.919	80.17
713.103	80.57
713.288	80.2
713.472	79.59
713.656	80.33
713.84	80.74
714.024	80.82
714.208	80.68
714.393	81.19
714.577	81.3
714.761	81.45
714.945	81.22
715.129	81.76
715.313	82.05
715.497	81.9
715.681	82.4
715.865	82.55
716.049	82.66
716.233	82.28
716.417	81.95
716.601	81.56
716.785	81.69
716.968	81.8
717.152	81.86
717.336	82.61
717.52	82.65
717.704	82.99
717.888	83.69
718.071	84.1
718.255	84.12
718.439	84.14
718.622	84.45
718.806	83.88
718.99	83.58
719.174	83.3
719.357	83.44
719.541	83.49
719.724	83.7
719.908	84.45
720.092	85.35
720.275	85.9
720.459	85.47
720.642	85.18
720.826	84.77
721.009	83.88
721.193	83.47
721.376	84.16
721.559	84.32
721.743	84.66
721.926	85.05
722.11	85.44
722.293	85.09
722.476	85.12
722.66	85.09
722.843	85.17
723.026	84.98
723.21	85.55
723.393	86.4
723.576	86.29
723.759	86.15
723.942	86.21
724.126	85.89
724.309	85.4
724.492	85.22
724.675	85.45
724.858	85.82
725.041	86.48
725.224	86.87
725.407	87.4
725.59	87.69
725.774	87.34
725.957	86.35
726.14	86.4
726.322	86.68
726.505	86.51
726.688	87.22
726.871	87.67
727.054	87.28
727.237	86.67
727.42	86.82
727.603	86.68
727.786	87.16
727.968	87.95
728.151	88.59
728.334	88.87
728.517	88.72
728.699	88.79
728.882	88.62
729.065	89.14
729.248	89.25
729.43	90.02
729.613	90.7
729.796	91.48
729.978	90.65
730.161	90.97
730.343	90.24
730.526	89.82
730.708	88.6
730.891	89.07
731.073	88.83
731.256	88.73
731.438	89.26
731.621	90.13
731.803	89.8
731.986	89.41
732.168	89.26
732.35	89.05
732.533	89.28
732.715	89.81
732.898	90.75
733.08	91.27
733.262	91.13
733.444	90.21
733.627	90.59
733.809	90.56
733.991	91.54
734.173	91.67
734.355	92.09
734.538	92.03
734.72	91.43
734.902	90.59
735.084	90.76
735.266	90.9
735.448	91.32
735.63	91.73
735.812	91.69
735.994	92.35
736.176	92.01
736.358	90.91
736.54	91.77
736.722	91.42
736.904	90.41
737.086	90.68
737.268	91.91
737.45	91.29
737.632	91.78
737.814	91.71
737.995	92.5
738.177	92.34
738.359	91.56
738.541	92.11
738.723	92.34
738.904	92.4
739.086	91.98
739.268	92.14
739.449	91.81
739.631	91.57
739.813	91.29
739.994	91.62
740.176	92.31
740.358	92.26
740.539	93.68
740.721	94.15
740.902	94.33
741.084	93.99
741.265	93.82
741.447	93.35
741.628	93.84
741.81	93.11
741.991	94.79
742.172	96.19
742.354	95.58
742.535	94.94
742.717	95.63
742.898	94.68
743.079	94.84
743.261	95.24
743.442	94.8
743.623	95.37
743.804	95.51
743.986	96.12
744.167	95.24
744.348	94.66
744.529	94.79
744.71	92.99
744.891	91.53
745.073	91.55
745.254	91.69
745.435	90.28
745.616	91.31
745.797	91.06
745.978	91.9
746.159	92.52
746.34	91.27
746.521	92.72
746.702	91.57
746.883	90.71
747.064	89.94
747.245	91.44
747.426	90.17
747.606	91.91
747.787	92.19
747.968	92.48
748.149	92.47
748.33	92.44
748.51	91.97
748.691	92.02
748.872	92.73
749.053	92.95
749.233	92.24
749.414	91.85
749.595	90.77
749.775	90.1
749.956	89.39
750.137	90.13
750.317	90.91
750.498	93.51
750.678	92.94
750.859	94.37
751.04	93.79
751.22	92.36
751.4	90.57
751.581	89.43
751.761	89.13
751.942	90.34
752.122	89.4
752.303	88.53
752.483	88.38
752.663	87.56
752.844	85.68
753.024	87.6
753.204	88.65
753.385	89.33
753.565	90.55
753.745	92.8
753.925	91.55
754.106	91.68
754.286	91.56
754.466	90.93
754.646	89.71
754.826	89.8
755.006	87.24
755.187	88.57
755.367	88.12
755.547	88.32
755.727	90.03
755.907	92.72
756.087	92.76
756.267	92.58
756.447	92.44
756.627	88.52
756.807	88.84
756.987	87.88
757.167	87.89
757.346	87.48
757.526	88.12
757.706	88.8
757.886	89.91
758.066	89.85
758.246	91.06
758.425	92.15
758.605	91.18
758.785	91.24
758.965	91.26
759.144	89.01
759.324	89.67
759.504	89.04
759.683	89.3
759.863	88.49
760.043	89.05
760.222	88.83
760.402	88.67
760.581	88.45
760.761	90.23
760.94	89.16
761.12	90.58
761.299	90.93
761.479	89.64
761.658	87.98
761.838	89.33
762.017	88.75
762.197	89.76
762.376	90.79
762.555	91.97
762.735	92.3
762.914	89.57
763.093	88.66
763.273	87.65
763.452	87
763.631	85.72
763.81	87.2
763.99	86.9
764.169	86.69
764.348	84.84
764.527	84.54
764.706	85.68
764.885	87.19
765.064	85.99
765.243	87.04
765.423	88.47
765.602	86.86
765.781	83.87
765.96	83.14
766.139	82.38
766.318	82.95
766.497	82.54
766.676	84.68
766.854	87.23
767.033	88.68
767.212	88.08
767.391	88.76
767.57	88.29
767.749	88.18
767.928	88.32
768.106	86.16
768.285	84.67
768.464	83.94
768.643	82.4
768.821	82.9
769	86.06
769.179	86.8
769.357	86.11
769.536	86.01
769.715	84.31
769.893	83.61
770.072	83.48
770.25	84.09
770.429	84.74
770.607	85.09
770.786	84.19
770.964	84.18
771.143	84.04
771.321	86.43
771.5	87.72
771.678	86.78
771.857	84.74
772.035	86.96
772.213	85.67
772.392	82.2
772.57	84.6
772.748	88.26
772.927	84.42
773.105	83.61
773.283	86.6
773.461	85.82
773.64	85.23
773.818	87.93
773.996	89.51
774.174	89.45
774.352	86.94
774.531	84.14
774.709	84.86
774.887	82.11
775.065	81.34
775.243	82.56
775.421	85.97
775.599	86.04
775.777	85.64
775.955	82.23
776.133	79.97
776.311	77.78
776.489	73.69
776.667	73.1
776.844	76.66
777.022	76.68
777.2	76.63
777.378	77.35
777.556	79.54
777.734	81.66
777.911	86.08
778.089	86.25
778.267	86.23
778.445	83.72
778.622	81.14
778.8	77.25
778.978	79.72
779.155	79.09
779.333	81.7
779.511	81.44
779.688	86.37
779.866	80.57
780.043	79.68
780.221	77.59
780.398	74.99
780.576	74.3
780.753	76.99
780.931	76.79
781.108	75.1
781.286	77.57
781.463	72.04
781.64	69.76
781.818	74.6
781.995	77.56
782.172	77.35
782.35	78.9
782.527	85.79
782.704	82.7
782.882	82.24
783.059	81.04
783.236	83.22
783.413	79.96
783.59	79.65
783.768	76.63
783.945	78.59
784.122	79.03
784.299	78.98
784.476	77.99
784.653	80.73
784.83	78.6
785.007	72.72
785.184	71.93
785.361	70.69
785.538	75.61
785.715	77.77
785.892	81.77
786.069	84.22
786.246	87.79
786.423	85.45
786.6	83.68
786.776	84.94
786.953	83.68
787.13	87.43
787.307	83.62
787.484	84.37
787.66	81.03
787.837	81.54
788.014	76.5
788.191	73.3
788.367	70.91
788.544	75.57
788.721	74.17
788.897	75.77
789.074	80.73
789.25	79.78
789.427	80.18
789.603	78.98
789.78	78.73
789.956	77.06
790.133	76.82
790.309	74.16
790.486	77.81
790.662	74.58
790.839	75.24
791.015	75.47
791.192	74.11
791.368	74.13
791.544	72.89
791.721	72.76
791.897	75.59
792.073	74.04
792.249	65.24
792.426	70.08
792.602	72.19
792.778	74.88
792.954	74.93
793.13	80.05
793.307	70.69
793.483	63.44
793.659	59.38
793.835	59.09
794.011	59.82
794.187	68.17
794.363	68.68
794.539	74.98
794.715	73.15
794.891	70.61
795.067	68
795.243	77.48
795.419	73.49
795.595	75.83
795.771	78
795.947	77.67
796.122	67.7
796.298	69.67
796.474	71.85
796.65	71.59
796.826	69.35
797.001	72.89
797.177	67.11
797.353	69.05
797.529	69.73
797.704	73.64
797.88	74.4
798.056	72.24
798.231	66.6
798.407	65.32
798.582	64.12
798.758	70.66
798.934	78.05
799.109	77.69
799.285	75.8
799.46	75.28
799.636	70.74
799.811	69.39
799.986	72.73
800.162	78.15
800.337	81.74
800.513	72.73
800.688	68.08
800.863	77.14
801.039	65.72
801.214	59.06
801.389	67.94
801.565	71.94
801.74	59.99
801.915	74.79
802.09	74.82
802.265	77.78
802.441	76.36
802.616	76.67
802.791	67.62
802.966	72.52
803.141	70.11
803.316	61.93
803.491	63.75
803.666	73.93
803.841	74.05
804.016	66.71
804.191	74.88
804.366	70.16
804.541	64.25
804.716	58.12
804.891	55.27
805.066	59.69
805.241	57.55
805.416	52.92
805.591	52.16
805.765	58.75
805.94	59.55
806.115	65.69
806.29	61.89
806.464	65.18
806.639	59.73
806.814	52.63
806.989	40.29
807.163	60.36
807.338	62.23
807.512	63.63
807.687	53.52
807.862	74.18
808.036	64.59
808.211	64.97
808.385	69.08
808.56	83.7
808.734	77.09
808.909	73.28
809.083	73.61
809.258	84.15
809.432	82.14
809.606	72.92
809.781	67.52
809.955	69.89
810.13	69.2
810.304	62.31
810.478	58.92
810.652	71.78
810.827	74.06
811.001	65.97
811.175	62.72
811.349	65.11
811.524	57.49
811.698	46.24
811.872	46.82
812.046	55.61
812.22	65.86
812.394	62.16
812.568	65.58
812.742	68.68
812.916	62.88
813.09	56.63
813.264	56.41
813.438	61
813.612	53.38
813.786	56.3
813.96	63.92
814.134	69.79
814.308	81.43
814.482	84.12
814.656	77.11
814.83	81.79
815.003	81.52
815.177	58.53
815.351	57.74
815.525	61.3
815.698	51.38
815.872	46.84
816.046	46.12
816.219	55.78
816.393	64.92
816.567	77.5
816.74	79.62
816.914	86.29
817.088	82.49
817.261	82.51
817.435	50.56
817.608	59.76
817.782	55.16
817.955	56.79
818.129	44.85
818.302	59.03
818.475	68.74
818.649	68.77
818.822	66.82
818.996	76.26
819.169	83.12
819.342	59.68
819.516	70.96
819.689	71.26
819.862	72.28
820.035	59.2
820.209	59.63
820.382	63.55
820.555	68.48
820.728	53.56
820.901	50.82
821.075	54.26
821.248	46.84
821.421	24.67
821.594	32.39
821.767	63.01
821.94	76.82
822.113	57.97
822.286	69
822.459	93.81
822.632	92.79
822.805	71.23
822.978	67.79
823.151	56.51
823.324	30.26
823.496	4.08
823.669	3.59
823.842	24.21
824.015	15.79
824.188	2.67
824.361	3.66
824.533	6.25
824.706	16.31
824.879	28.42
825.051	60.63
825.224	56.2
825.397	55.28
825.569	34.69
825.742	53.97
825.915	49.52
826.087	77.78
826.26	67.09
826.432	70.5
826.605	65.58
826.777	39.72
826.95	35.91
827.122	29.05
827.295	38.47
827.467	40.28
827.64	28.07
827.812	13.31
827.984	33.6
828.157	27
828.329	-12.64
828.501	-9.65
828.674	33.03
828.846	14.55
829.018	33.49
829.19	15.91
829.363	48.88
829.535	38.82
829.707	36.49
829.879	6.17
830.051	30.26
830.223	22.27
830.395	-11.65
830.568	-10.53
830.74	-11.44
830.912	12.59
831.084	-2.27
831.256	8.24
831.428	17.2
831.6	17.65
831.772	-19.19
831.943	-22.51
832.115	2.95
832.287	18.68
832.459	25.57
832.631	42.18
832.803	66.5
832.975	75.94
833.146	52.42
833.318	61.48
833.49	63.04
833.662	38.34
833.833	16.42
834.005	22.04
834.177	20.79
834.348	20.57
834.52	-6.67
834.692	-0.23
834.863	-27.89
835.035	-31.53
835.206	-96.45
835.378	-30.84
835.549	-21.08
835.721	8.93
835.892	10.84
836.064	39.05
836.235	43.8
836.407	71.28
836.578	52.6
836.749	88.29
836.921	19.55
837.092	-29.21
837.264	-54.73
837.435	-63.54
837.606	-14.41
837.777	38.32
837.949	63.2
838.12	65.34
838.291	75.67
838.462	64.36
838.633	31.46
838.805	16.16
838.976	28.75
839.147	3
839.318	-35.72
839.489	-64.09
839.66	-37.78
839.831	10.15
840.002	5.22
840.173	5.86
840.344	75.62
840.515	111.46
840.686	37.75
840.857	64.91
841.028	63.55
841.199	-8.74
841.369	-20.44
841.54	-20.61
841.711	-9.1
841.882	12.02
842.053	12.83
842.223	-1.87
842.394	6.93
842.565	4.1
842.736	18.7
842.906	37.94
843.077	56.15
843.248	84.69
843.418	111.52
843.589	100.16
843.759	151.14
843.93	142.18
844.101	84.73
844.271	78.36
844.442	88.77
844.612	74.15
844.783	43.97
844.953	-4.39
845.123	-26.54
845.294	-38.16
845.464	-147.69
845.635	-28.09
845.805	66.48
845.975	40.25
846.146	2.72
846.316	-2.87
846.486	16.41
846.656	36.71
846.827	30.18
846.997	26.2
847.167	31.23
847.337	14.58
847.507	-11.59
847.677	-8.06
847.848	55.1
848.018	52.43
848.188	58.01
848.358	40.94
848.528	37.74
848.698	-18.47
848.868	-67.83
849.038	-150.58
849.208	-33.46
849.378	4.27
849.548	13.98
849.718	17.58
849.887	31.13
850.057	4.57
850.227	-27.93
850.397	-43.97
850.567	-153.78
850.737	-374.24
850.906	-1079.69
851.076	-763.87
851.246	-400.39
851.415	-27.23
851.585	-42.5
851.755	-66.01
851.924	-26
852.094	-34.93
852.264	-163.88
852.433	-954.57
852.603	-149.94
852.772	-135.07
852.942	-31.09
853.111	-13.52
853.281	43.94
853.45	56.46
853.62	38.63
853.789	12.36
853.959	63.6
854.128	23.3
854.297	-30.01
854.467	-73.6
854.636	-91.33
854.805	-13.49
854.975	-34.82
855.144	-13.9
855.313	283.39
855.482	26.46
855.652	-154.14
855.821	-76.67
855.99	-4.44
856.159	-5.09
856.328	-0.43
856.497	-3.62
856.667	-8.81
856.836	-6.5
857.005	-28.41
857.174	-33.34
857.343	-13.14
857.512	85.32
857.681	1.42
857.85	-10.03
858.019	-7.8
858.188	-23.01
858.356	-49.13
858.525	-77.45
858.694	-59.53
858.863	-121.45
859.032	-69.51
859.201	-152.2
859.369	-13.71
859.538	46.01
859.707	53.12
859.876	31.97
860.044	54.04
860.213	52.79
860.382	36.83
860.55	22.02
860.719	58.55
860.888	70.24
861.056	33.11
861.225	12.95
861.393	78.61
861.562	80.33
861.73	9.42
861.899	-29.71
862.067	-1426.72
862.236	-159.89
862.404	-343.16
862.572	-202.15
862.741	-66.96
862.909	-34.51
863.078	-119.65
863.246	-44.51
863.414	-14.4
863.582	47.92
863.751	65.33
863.919	51.47
864.087	58.38
864.255	22.09
864.424	-347.71
864.592	-77.31
864.76	-88.37
864.928	-59.8
865.096	-8.52
865.264	18.67
865.432	-831.25
865.6	70.62
865.768	-112.05
865.936	-142.91
866.104	-199.72
866.272	-249.3
866.44	-514.86
866.608	788.99
866.776	370.23
866.944	3125
867.112	-502.01
867.28	-193.52
867.448	-35.44
867.615	3.53
867.783	32.53
867.951	17.02
868.119	60.39
868.286	72.37
868.454	22.34
868.622	9.37
868.789	19.27
868.957	-619.64
869.125	-2367.76
869.292	-139.25
869.46	-261.48
869.627	-42.88
869.795	-41.97
869.963	-9.93
870.13	11.48
870.298	30.61
870.465	-24.9
870.632	-43.39
870.8	-23.33
870.967	-95.02
871.135	-174.61
871.302	-147.63
871.469	-203.04
871.637	-230.52
871.804	-69.75
871.971	-43.23
872.139	-301.28
872.306	74.55
872.473	9.46
872.64	-136.37
872.807	-5.76
872.975	92.87
873.142	-90.45
873.309	696.62
873.476	132.7
873.643	148.27
873.81	86.47
873.977	103.7
874.144	83.4
874.311	-91
874.478	-106.23
874.645	-141.13
874.812	-95.13
874.979	-44.42
875.146	-15.01
875.313	-28.58
875.48	35.87
875.647	2.61
875.813	-27.87
875.98	-18.1
876.147	-53.25
876.314	-117.55
876.481	1100.62
876.647	-1213.2
876.814	400.91
876.981	86.63
877.147	11.92
877.314	44.11
877.481	54.82
877.647	65.33
877.814	32.72
877.98	34.53
878.147	42.77
878.314	73.22
878.48	9.37
878.647	9.43
878.813	52.6
878.979	68.83
879.146	20.7
879.312	-5.72
879.479	-34.84
879.645	-125.05
879.811	-292.35
879.978	-748.66
880.144	-155.83
880.31	-58.46
880.477	-257.07
880.643	-318.93
880.809	-96.35
880.975	-19.06
881.142	-588.86
881.308	-37.45
881.474	14.07
881.64	32.67
881.806	-68.85
881.972	9.4
882.138	24.21
882.304	20.82
882.47	-165.45
882.636	-703.07
882.802	-203.42
882.968	-23.72
883.134	-14.84
883.3	-12.11
883.466	42.97
883.632	68.38
883.798	27.58
883.964	21.52
884.129	47.46
884.295	43.85
884.461	-33.85
884.627	-17.77
884.793	-28.77
884.958	-15.81
885.124	-109.09
885.29	-156.71
885.455	-276.58
885.621	-52.51
885.787	-94.02
885.952	7.81
886.118	-28.68
886.283	-36.32
886.449	-112.84
886.614	-134.96
886.78	-364.52
886.945	1199.59
887.111	-611.99
887.276	-606.68
887.442	-967.95
887.607	-363.56
887.773	-234
887.938	-154.24
888.103	-102.09
888.269	24.47
888.434	3.38
888.599	2.9
888.764	4.74
888.93	5.79
889.095	-20.52
889.26	-75.14
889.425	-16.59
889.59	50.96
889.756	12.9
889.921	21.97
890.086	94.36
890.251	52.95
890.416	-87.13
890.581	-681.85
890.746	81.34
890.911	62.9
891.076	81.16
891.241	-131.9
891.406	69.06
891.571	3.61
891.736	-192.55
891.901	-490.93
892.065	573.35
892.23	164.01
892.395	231.26
892.56	372.76
892.725	-306.84
892.889	-394.51
893.054	-151.34
893.219	-23.28
893.384	27.71
893.548	-38.73
893.713	-60.61
893.878	-3.62
