Data from Ofra_1a_PS_9GT30_Reflection_1.txt Node
Date: Tue Jul 20 11:06:16 EDT 2021
User: Adam
Spectrometer: FLMT01687
Trigger mode: 0
Integration Time (sec): 1.004000E0
Scans to average: 2
Electric dark correction enabled: true
Nonlinearity correction enabled: false
Boxcar width: 2
XAxis mode: Wavelengths
Number of Pixels in Spectrum: 3648
>>>>>Begin Spectral Data<<<<<
179.494	-291.37
179.716	-552.67
179.937	1276.92
180.158	-1759.24
180.38	175.52
180.601	97.88
180.823	-31.03
181.044	-201.79
181.265	-326.01
181.486	174.92
181.708	129.02
181.929	1436.36
182.15	-167.84
182.372	793.1
182.593	578.83
182.814	-440.41
183.035	-55.37
183.257	-4.31
183.478	-22.2
183.699	-52.39
183.92	-108.93
184.141	-108.15
184.363	-96.15
184.584	-115.32
184.805	-40.74
185.026	22.21
185.247	-0.68
185.468	-5.72
185.689	14.45
185.91	-32.04
186.132	-8.78
186.353	22.98
186.574	36.03
186.795	43.42
187.016	76.05
187.237	92.02
187.458	72.77
187.679	76.83
187.9	68.35
188.121	85.97
188.342	76.86
188.563	87.84
188.784	70.04
189.005	44.64
189.226	17.4
189.447	-5.73
189.667	-17.71
189.888	-39.42
190.109	-27.05
190.33	21.6
190.551	24.84
190.772	43.21
190.993	48.85
191.214	3.5
191.434	-49.55
191.655	-49.76
191.876	-41.08
192.097	-6.24
192.318	40.39
192.538	14.81
192.759	-4.46
192.98	15.92
193.201	21.9
193.421	16.9
193.642	25.2
193.863	41.97
194.083	30.96
194.304	36.97
194.525	1.73
194.745	-3.98
194.966	-18.72
195.187	-21.35
195.407	-52.12
195.628	-21.67
195.848	-28.83
196.069	-40.62
196.29	-17.77
196.51	-21.88
196.731	-22.61
196.951	-6.66
197.172	9.07
197.392	-10.35
197.613	21.75
197.833	12.52
198.054	6.43
198.274	-2.43
198.495	-3.96
198.715	-23.46
198.936	-6.27
199.156	-1.26
199.377	14.38
199.597	14.68
199.817	7.22
200.038	-25.18
200.258	6.96
200.479	17.11
200.699	28.33
200.919	33.45
201.14	35.01
201.36	20.99
201.58	-0.04
201.801	10.6
202.021	-8.06
202.241	4.42
202.461	1.69
202.682	32.85
202.902	31.2
203.122	57.43
203.342	62.48
203.563	55.02
203.783	29.11
204.003	26.53
204.223	27.02
204.443	45.17
204.663	58.23
204.884	84.64
205.104	78.36
205.324	66.33
205.544	17.17
205.764	36.58
205.984	14.61
206.204	18.11
206.424	-16.57
206.644	-24.48
206.864	-75.74
207.084	-32.72
207.304	-44
207.525	-1.99
207.745	22.21
207.964	48.33
208.184	62.08
208.404	33.55
208.624	32.26
208.844	43.11
209.064	25.7
209.284	25.53
209.504	23.9
209.724	32.31
209.944	0.63
210.164	20.86
210.384	11.12
210.604	-4.36
210.823	-54.7
211.043	-11.24
211.263	-114.61
211.483	-64.56
211.703	-28.17
211.922	-19.05
212.142	0.9
212.362	15.4
212.582	16.23
212.801	33.67
213.021	22.86
213.241	2.04
213.461	15.85
213.68	13.11
213.9	2.51
214.12	-4.79
214.339	-12.82
214.559	-5.6
214.779	-10.44
214.998	-2.54
215.218	15.95
215.438	31.45
215.657	35.52
215.877	35.76
216.096	36.1
216.316	44.62
216.535	34.15
216.755	30.31
216.974	31.34
217.194	24.9
217.413	6.9
217.633	13
217.852	14.49
218.072	27.42
218.291	38.92
218.511	31.5
218.73	24.53
218.95	-11.47
219.169	-38.55
219.389	-34.53
219.608	-26.22
219.827	-7.98
220.047	12.8
220.266	4.21
220.485	-16.92
220.705	-21.37
220.924	-42.22
221.143	-17.71
221.363	10.46
221.582	11.38
221.801	22.23
222.021	27.7
222.24	29.51
222.459	16.42
222.678	31.36
222.897	21.21
223.117	11.9
223.336	15.45
223.555	18.74
223.774	-2.19
223.993	11.63
224.213	21.25
224.432	11.75
224.651	1.82
224.87	5.5
225.089	2.17
225.308	11.34
225.527	10.28
225.746	24.69
225.965	13.67
226.184	1.44
226.404	-14.55
226.623	-13.85
226.842	-14.57
227.061	-5.13
227.28	16.85
227.499	24.49
227.718	25.15
227.936	22.76
228.155	18.09
228.374	9.29
228.593	7.49
228.812	1.58
229.031	2.46
229.25	-18.34
229.469	-17.67
229.688	-20.06
229.907	-13.43
230.125	-11.04
230.344	7.71
230.563	12.05
230.782	18.24
231.001	27.02
231.22	29.27
231.438	42.59
231.657	38.9
231.876	40.09
232.095	44.36
232.313	27.41
232.532	18.07
232.751	-0.61
232.969	-12.31
233.188	-22.7
233.407	2.99
233.625	0.67
233.844	20.47
234.063	28.37
234.281	30.7
234.5	17.82
234.719	27.41
234.937	6.59
235.156	-1.77
235.374	-4.51
235.593	25.49
235.811	15.89
236.03	25.01
236.249	28.53
236.467	25.74
236.686	2.95
236.904	11.48
237.123	8.15
237.341	-8.53
237.559	-24.28
237.778	-11.77
237.996	-54.85
238.215	-100.89
238.433	-102.4
238.652	-16.21
238.87	-11.76
239.088	10.46
239.307	8.05
239.525	12.13
239.743	-8.29
239.962	-12.09
240.18	0.64
240.398	15.23
240.617	6.28
240.835	43.05
241.053	35.97
241.271	28.15
241.49	20.63
241.708	14.57
241.926	-5.44
242.144	-12.81
242.363	-19.22
242.581	-54.73
242.799	-39.11
243.017	-8.19
243.235	-5.64
243.453	-25.66
243.672	10.65
243.89	20.08
244.108	28.56
244.326	35.16
244.544	47.16
244.762	28.08
244.98	22.38
245.198	25.04
245.416	16.74
245.634	5
245.852	-9.69
246.07	2
246.288	0.14
246.506	-7.64
246.724	6.26
246.942	17.18
247.16	17.92
247.378	5.11
247.596	48.8
247.814	25.2
248.032	11.43
248.25	27.06
248.468	29.65
248.685	27.88
248.903	36.9
249.121	35.91
249.339	22.51
249.557	23.14
249.775	30.55
249.992	33.05
250.21	35.46
250.428	51.75
250.646	48.48
250.863	23.1
251.081	20.88
251.299	42.42
251.517	40.5
251.734	27.02
251.952	14.48
252.17	10.14
252.387	-25.08
252.605	-29.8
252.823	-40.14
253.04	28.12
253.258	32.78
253.475	57.7
253.693	50.26
253.911	45
254.128	27.29
254.346	25.06
254.563	24.03
254.781	13.09
254.998	-1.65
255.216	-32.59
255.433	-43.12
255.651	-47.15
255.868	-40.07
256.086	-12.43
256.303	1.13
256.521	10.73
256.738	-4.03
256.956	4.65
257.173	-6.06
257.39	-0.19
257.608	-8.77
257.825	16.35
258.043	31
258.26	38.24
258.477	31.73
258.695	31.51
258.912	14.38
259.129	-13.18
259.346	-45.05
259.564	-53.6
259.781	-41.7
259.998	-13.88
260.216	-3.22
260.433	3.24
260.65	8.41
260.867	6.9
261.084	0.15
261.302	-4.45
261.519	18.57
261.736	19.47
261.953	14.31
262.17	24.84
262.387	24.94
262.604	24.39
262.822	33.31
263.039	33.02
263.256	22.63
263.473	23.88
263.69	20.63
263.907	18.38
264.124	17.69
264.341	29.1
264.558	30.71
264.775	41
264.992	37.22
265.209	32.66
265.426	15.1
265.643	18.32
265.86	-22.94
266.077	-20.45
266.294	1.8
266.51	26.78
266.727	13.97
266.944	25.45
267.161	24.98
267.378	20.65
267.595	15.89
267.812	-0.56
268.028	-14.41
268.245	-9.46
268.462	-1.21
268.679	11.65
268.896	34.18
269.112	35.31
269.329	13.93
269.546	32.74
269.763	15.63
269.979	15.75
270.196	13.13
270.413	19.6
270.629	-8.18
270.846	-15.21
271.063	-5.81
271.279	8.36
271.496	7.53
271.712	18.9
271.929	40.52
272.146	45.29
272.362	40.62
272.579	18.09
272.795	24.14
273.012	15.13
273.228	8.28
273.445	3.53
273.661	28.96
273.878	8.97
274.094	-2.49
274.311	-4.95
274.527	-9.77
274.744	9.64
274.96	19.07
275.177	18.94
275.393	30.41
275.609	34.79
275.826	17.57
276.042	5.64
276.259	7.8
276.475	-9.39
276.691	-20.23
276.908	-15.45
277.124	8.29
277.34	-2.35
277.557	-4.3
277.773	-0.78
277.989	2.38
278.205	0.54
278.422	27.92
278.638	35.04
278.854	38.58
279.07	35.64
279.286	28.77
279.503	8.66
279.719	14.66
279.935	2.07
280.151	-1.35
280.367	7.19
280.583	14.08
280.799	6.94
281.016	-5.05
281.232	20.66
281.448	5.49
281.664	-1.69
281.88	7.84
282.096	24.33
282.312	17.1
282.528	16.1
282.744	24.77
282.96	7.69
283.176	-2.87
283.392	-31.11
283.608	-14.64
283.824	-44.49
284.04	-59.59
284.256	-8.85
284.471	6.05
284.687	6.95
284.903	14.24
285.119	37.87
285.335	35.28
285.551	34.19
285.767	33.48
285.982	32.59
286.198	1.92
286.414	-4.97
286.63	-14.07
286.846	24.34
287.061	14.36
287.277	-8.83
287.493	-27.44
287.709	-9.09
287.924	-4.39
288.14	10.75
288.356	41.58
288.571	49.81
288.787	31.87
289.003	30.19
289.218	12.13
289.434	1.32
289.65	17.41
289.865	37.27
290.081	36.6
290.296	47.96
290.512	38.92
290.727	27.63
290.943	9.01
291.159	-1.15
291.374	-12.72
291.59	7.33
291.805	4.08
292.021	20.04
292.236	18.3
292.451	15.94
292.667	15.81
292.882	24.22
293.098	24.68
293.313	25.37
293.529	16.95
293.744	-9.53
293.959	-7.83
294.175	3.77
294.39	-6.21
294.605	14.32
294.821	20.18
295.036	9.05
295.251	16.26
295.467	15.72
295.682	20.39
295.897	9.06
296.112	1.27
296.328	-8.31
296.543	-16.75
296.758	-30.04
296.973	-4.01
297.188	13.85
297.404	-1.47
297.619	18.27
297.834	-17.54
298.049	7.69
298.264	-21.2
298.479	-4.18
298.694	9.99
298.909	33.4
299.125	11.69
299.34	23.29
299.555	18.43
299.77	22.95
299.985	13.37
300.2	15.63
300.415	16.42
300.63	14.58
300.845	6.74
301.06	12.71
301.275	20.97
301.49	20.54
301.704	18.65
301.919	12.49
302.134	1.03
302.349	-1.72
302.564	-6.46
302.779	-4.46
302.994	15.91
303.209	28.83
303.423	27.98
303.638	35.08
303.853	29.43
304.068	15.19
304.283	27.35
304.497	25.64
304.712	24.22
304.927	15.95
305.142	19.2
305.356	17.89
305.571	24.36
305.786	13.91
306	38.08
306.215	28.09
306.43	5.43
306.644	5.31
306.859	22.63
307.074	7.57
307.288	12.63
307.503	27.1
307.717	16.13
307.932	7.24
308.147	3.47
308.361	16.66
308.576	-4.45
308.79	4.83
309.005	-0.03
309.219	24.01
309.434	20.88
309.648	25.22
309.863	40
310.077	47.41
310.292	17.12
310.506	1.16
310.72	9.24
310.935	13.81
311.149	15.33
311.364	26.06
311.578	20.65
311.792	20.55
312.007	7.69
312.221	-6.71
312.435	-10.44
312.649	-0.2
312.864	-22.42
313.078	-30.38
313.292	-21.95
313.507	-14.51
313.721	-17.05
313.935	13.88
314.149	16.04
314.363	17.82
314.578	18.23
314.792	-3.18
315.006	-23.68
315.22	7.93
315.434	-6.83
315.648	-19.99
315.862	3.02
316.077	4.24
316.291	-13.58
316.505	-34.17
316.719	-25.14
316.933	-24.42
317.147	-16.27
317.361	-14.16
317.575	9.67
317.789	17.27
318.003	13.7
318.217	28.52
318.431	28.59
318.645	19.08
318.859	17.74
319.073	23.33
319.287	8.55
319.5	2.17
319.714	0.33
319.928	-1.48
320.142	-7.31
320.356	1.28
320.57	-7.93
320.784	-4.19
320.997	-25.77
321.211	-2.82
321.425	-17.26
321.639	3.06
321.853	22.79
322.066	30.22
322.28	18.57
322.494	13.39
322.707	9.26
322.921	-4.65
323.135	-8.98
323.349	5.37
323.562	10.15
323.776	16.35
323.989	30.85
324.203	20.46
324.417	12.34
324.63	6.83
324.844	5.88
325.057	-38.04
325.271	-23.48
325.485	-24.98
325.698	-0.2
325.912	19.82
326.125	26.07
326.339	34.41
326.552	44.67
326.766	37.38
326.979	6.97
327.193	27.83
327.406	16.41
327.619	1.95
327.833	4.93
328.046	7.1
328.26	-15.91
328.473	-5.6
328.686	1.16
328.9	4.7
329.113	10.98
329.326	23.64
329.54	21.43
329.753	21
329.966	17.23
330.179	16.71
330.393	18.06
330.606	8.84
330.819	-3.9
331.032	9.91
331.246	20.13
331.459	35.53
331.672	46.77
331.885	51.68
332.098	54.54
332.311	29.16
332.525	19.11
332.738	25.94
332.951	21.44
333.164	12.85
333.377	15.35
333.59	8.9
333.803	-2.4
334.016	12.39
334.229	14.61
334.442	13.95
334.655	15.18
334.868	14.61
335.081	13.98
335.294	6.4
335.507	26.28
335.72	19.4
335.933	23.03
336.146	20.82
336.359	29.92
336.572	27.34
336.785	26.62
336.997	27.4
337.21	26.16
337.423	7.21
337.636	-6.48
337.849	-2.71
338.062	5.5
338.274	25.3
338.487	17.65
338.7	10.18
338.913	18.96
339.125	16.03
339.338	-1.48
339.551	7.51
339.763	14.8
339.976	12.13
340.189	1.83
340.402	8.93
340.614	11.86
340.827	24.71
341.039	24.74
341.252	34.59
341.465	17.9
341.677	19.61
341.89	0.3
342.102	24.81
342.315	27.14
342.527	33.83
342.74	26.12
342.952	26.32
343.165	-6.78
343.377	-3.56
343.59	-9.83
343.802	-5.96
344.015	17.56
344.227	26.77
344.44	18.79
344.652	17.26
344.864	22
345.077	16.13
345.289	11.25
345.502	31.19
345.714	40.72
345.926	41.29
346.139	35.39
346.351	27.46
346.563	11.72
346.775	14.89
346.988	30.45
347.2	29.23
347.412	34.9
347.624	22.91
347.837	23.54
348.049	13.73
348.261	3.92
348.473	-10.22
348.685	-21.34
348.897	-31
349.11	-23.43
349.322	-0.47
349.534	6.62
349.746	22.61
349.958	15.11
350.17	-13.76
350.382	-15.46
350.594	-4.95
350.806	8.83
351.018	14.24
351.23	35.36
351.442	37.4
351.654	34.51
351.866	22.72
352.078	25.38
352.29	22.21
352.502	11.64
352.714	15.72
352.926	11.7
353.138	13.7
353.35	2.91
353.561	4.37
353.773	-8.83
353.985	7.01
354.197	10.78
354.409	16.88
354.621	3.16
354.832	0.73
355.044	-27.64
355.256	-47.36
355.468	-64.43
355.679	-16.88
355.891	3.14
356.103	3.77
356.314	-3.79
356.526	-10.08
356.738	-29.76
356.949	-47.6
357.161	-23.44
357.373	-19.17
357.584	-5.92
357.796	-4.5
358.008	7.46
358.219	2.4
358.431	12.93
358.642	24.17
358.854	30.99
359.065	18.95
359.277	21.03
359.488	22.43
359.7	10.69
359.911	6.66
360.123	16.11
360.334	1.3
360.546	-7.29
360.757	1.12
360.969	-8.04
361.18	-7.57
361.391	2.61
361.603	13.69
361.814	15.18
362.025	29.55
362.237	27.04
362.448	29.87
362.659	24.98
362.871	9.86
363.082	12.9
363.293	10.44
363.504	8.62
363.716	-0.45
363.927	18.22
364.138	-6.22
364.349	-27.46
364.56	-47.12
364.772	-34.43
364.983	-28.85
365.194	-1.34
365.405	31.72
365.616	46.46
365.827	42.31
366.038	33.1
366.25	18.66
366.461	9.68
366.672	0.7
366.883	-0.27
367.094	2.2
367.305	-12.47
367.516	-0.48
367.727	-5.11
367.938	-4.15
368.149	-16.46
368.36	-3.27
368.571	-31.69
368.781	-20.28
368.992	-22.59
369.203	-9.14
369.414	-12.25
369.625	1.32
369.836	10.45
370.047	8.43
370.258	16.07
370.468	7.99
370.679	7.5
370.89	-2.51
371.101	22.63
371.312	4.81
371.522	13.48
371.733	1.09
371.944	-9.57
372.155	-7.46
372.365	3.94
372.576	17.74
372.787	35.58
372.997	45.99
373.208	35.07
373.419	36.15
373.629	10.43
373.84	3.69
374.05	3.72
374.261	-16.32
374.472	-15.24
374.682	-0.03
374.893	-14.54
375.103	-10.65
375.314	11.5
375.524	9.87
375.735	13.15
375.945	24.33
376.156	10.78
376.366	11.18
376.577	13.59
376.787	14.19
376.997	16.79
377.208	24.64
377.418	15.86
377.629	18.7
377.839	21.51
378.049	20.34
378.26	18.8
378.47	18.74
378.68	18.33
378.89	8.93
379.101	11.71
379.311	7.55
379.521	3.91
379.732	5.99
379.942	10.29
380.152	-3.95
380.362	2.54
380.572	16.12
380.783	16.52
380.993	15.4
381.203	21.66
381.413	20.81
381.623	18.43
381.833	16.35
382.043	22.81
382.253	30
382.463	36.7
382.674	42.06
382.884	43.69
383.094	40.36
383.304	32.2
383.514	25.92
383.724	15.79
383.934	2.95
384.144	4.46
384.353	3.85
384.563	7.11
384.773	12.86
384.983	13
385.193	9.63
385.403	8.84
385.613	0.7
385.823	-0.23
386.033	-0.3
386.242	-3.01
386.452	-5.3
386.662	-3.22
386.872	-5.19
387.082	-4.11
387.291	-5.66
387.501	0.65
387.711	4.78
387.921	5.73
388.13	10.04
388.34	11.94
388.55	7.59
388.759	-1.64
388.969	-2.33
389.179	-1.89
389.388	-1.27
389.598	-2.62
389.807	-0.01
390.017	-0.75
390.227	-5.96
390.436	-5.7
390.646	-2.38
390.855	-0.33
391.065	2.53
391.274	4.94
391.484	4.14
391.693	4.33
391.903	4.57
392.112	4.79
392.322	3.99
392.531	5.77
392.74	6.3
392.95	5.21
393.159	4.64
393.369	5.37
393.578	5.5
393.787	3
393.997	4.57
394.206	2.57
394.415	4.51
394.625	4.18
394.834	4.76
395.043	5.62
395.252	9.07
395.462	8.84
395.671	8.46
395.88	9.9
396.089	9.26
396.298	8.21
396.508	7.05
396.717	7.15
396.926	5.76
397.135	5.41
397.344	3.92
397.553	4.46
397.762	5.4
397.971	5.64
398.181	5.79
398.39	6.28
398.599	5.8
398.808	5.08
399.017	5.18
399.226	5.35
399.435	5.51
399.644	5.69
399.853	5.98
400.062	5.84
400.27	5.43
400.479	5.3
400.688	5.2
400.897	5.15
401.106	5.2
401.315	5.25
401.524	5.34
401.733	5.07
401.941	4.44
402.15	4.43
402.359	4.39
402.568	4.43
402.777	4.8
402.985	4.88
403.194	4.88
403.403	4.89
403.612	4.98
403.82	4.63
404.029	4.84
404.238	4.87
404.446	5.06
404.655	4.89
404.864	5.2
405.072	5.2
405.281	5.15
405.489	5.01
405.698	5
405.906	4.98
406.115	5.05
406.324	4.88
406.532	4.91
406.741	4.94
406.949	4.88
407.158	4.78
407.366	4.89
407.574	4.9
407.783	4.84
407.991	4.73
408.2	4.85
408.408	4.86
408.617	4.71
408.825	4.54
409.033	4.65
409.242	4.48
409.45	4.48
409.658	4.42
409.867	4.47
410.075	4.45
410.283	4.41
410.491	4.31
410.7	4.31
410.908	4.5
411.116	4.61
411.324	4.61
411.533	4.74
411.741	4.64
411.949	4.47
412.157	4.26
412.365	4.44
412.573	4.33
412.781	4.44
412.99	4.44
413.198	4.5
413.406	4.46
413.614	4.58
413.822	4.73
414.03	4.77
414.238	4.82
414.446	4.77
414.654	4.63
414.862	4.5
415.07	4.44
415.278	4.53
415.486	4.36
415.694	4.4
415.902	4.38
416.109	4.28
416.317	4.12
416.525	4.11
416.733	4.05
416.941	4.03
417.149	4.14
417.357	4.21
417.564	4.31
417.772	4.33
417.98	4.3
418.188	4.19
418.395	3.99
418.603	3.97
418.811	3.93
419.019	3.98
419.226	4.13
419.434	4.21
419.642	4.16
419.849	4.24
420.057	4.22
420.265	4.2
420.472	4.14
420.68	4.15
420.887	4.06
421.095	4.1
421.302	4.13
421.51	3.95
421.717	3.89
421.925	3.86
422.132	3.93
422.34	3.6
422.547	3.72
422.755	3.88
422.962	3.93
423.17	3.63
423.377	3.8
423.585	3.9
423.792	3.77
423.999	3.73
424.207	3.86
424.414	3.95
424.621	3.89
424.829	3.94
425.036	3.93
425.243	3.9
425.451	3.75
425.658	3.78
425.865	3.81
426.072	3.88
426.28	3.93
426.487	3.92
426.694	3.87
426.901	3.95
427.108	3.86
427.315	3.87
427.523	3.96
427.73	4.09
427.937	3.85
428.144	3.9
428.351	3.85
428.558	3.87
428.765	3.76
428.972	3.85
429.179	3.87
429.386	3.95
429.593	3.81
429.8	3.76
430.007	3.85
430.214	3.76
430.421	3.75
430.628	3.82
430.835	3.97
431.042	3.87
431.249	3.85
431.456	3.79
431.662	3.99
431.869	4.01
432.076	4.06
432.283	4.28
432.49	4.36
432.697	4.27
432.903	4.22
433.11	4.35
433.317	4.28
433.524	4.28
433.73	4.25
433.937	4.34
434.144	4.09
434.35	4.08
434.557	4.25
434.764	4.29
434.97	4.18
435.177	4.47
435.384	4.49
435.59	4.39
435.797	4.49
436.003	4.66
436.21	4.52
436.416	4.6
436.623	4.65
436.829	4.59
437.036	4.48
437.242	4.6
437.449	4.38
437.655	4.47
437.862	4.51
438.068	4.61
438.275	4.6
438.481	4.77
438.687	4.64
438.894	4.72
439.1	4.66
439.307	4.75
439.513	4.75
439.719	4.79
439.926	4.77
440.132	4.82
440.338	4.71
440.544	4.66
440.751	4.63
440.957	4.66
441.163	4.52
441.369	4.53
441.575	4.61
441.782	4.67
441.988	4.67
442.194	4.72
442.4	4.78
442.606	4.94
442.812	4.96
443.018	4.9
443.224	5.07
443.431	5.15
443.637	5.02
443.843	5.01
444.049	5.07
444.255	5.12
444.461	5.01
444.667	5.03
444.873	4.99
445.079	4.97
445.284	4.87
445.49	4.86
445.696	4.84
445.902	4.95
446.108	4.95
446.314	4.99
446.52	5.19
446.726	5.24
446.931	5.15
447.137	5.18
447.343	5.2
447.549	5.04
447.755	5.05
447.96	5.13
448.166	5.19
448.372	5.12
448.578	5.12
448.783	5.15
448.989	5.25
449.195	5.15
449.4	5.17
449.606	5.18
449.812	5.13
450.017	5.1
450.223	5.21
450.428	5.25
450.634	5.27
450.84	5.21
451.045	5.19
451.251	5.24
451.456	5.27
451.662	5.35
451.867	5.46
452.073	5.52
452.278	5.42
452.483	5.46
452.689	5.47
452.894	5.53
453.1	5.45
453.305	5.5
453.51	5.48
453.716	5.41
453.921	5.37
454.127	5.38
454.332	5.36
454.537	5.36
454.742	5.42
454.948	5.42
455.153	5.42
455.358	5.47
455.563	5.5
455.769	5.48
455.974	5.38
456.179	5.31
456.384	5.28
456.589	5.23
456.795	5.21
457	5.28
457.205	5.31
457.41	5.33
457.615	5.36
457.82	5.39
458.025	5.37
458.23	5.41
458.435	5.4
458.64	5.32
458.845	5.28
459.05	5.35
459.255	5.36
459.46	5.34
459.665	5.41
459.87	5.36
460.075	5.37
460.28	5.4
460.485	5.45
460.69	5.45
460.895	5.58
461.099	5.56
461.304	5.45
461.509	5.46
461.714	5.53
461.919	5.49
462.123	5.47
462.328	5.41
462.533	5.31
462.738	5.22
462.942	5.16
463.147	5.2
463.352	5.37
463.556	5.44
463.761	5.54
463.966	5.62
464.17	5.74
464.375	5.78
464.58	5.78
464.784	5.74
464.989	5.8
465.193	5.69
465.398	5.69
465.602	5.92
465.807	5.96
466.011	5.91
466.216	5.87
466.42	5.92
466.625	5.84
466.829	5.88
467.034	5.93
467.238	6.08
467.443	6.07
467.647	6
467.851	5.99
468.056	6.11
468.26	6.06
468.464	6.12
468.669	6.19
468.873	6.24
469.077	6.22
469.282	6.25
469.486	6.15
469.69	6.15
469.894	6.16
470.099	6.19
470.303	6.22
470.507	6.37
470.711	6.34
470.915	6.33
471.119	6.36
471.324	6.4
471.528	6.4
471.732	6.52
471.936	6.55
472.14	6.59
472.344	6.72
472.548	6.8
472.752	6.77
472.956	6.82
473.16	6.75
473.364	6.67
473.568	6.59
473.772	6.6
473.976	6.63
474.18	6.69
474.384	6.64
474.588	6.7
474.792	6.76
474.995	6.77
475.199	6.73
475.403	6.91
475.607	7.01
475.811	7.05
476.015	7.03
476.218	7.11
476.422	7.09
476.626	7.04
476.83	7.08
477.033	7.18
477.237	7.2
477.441	7.22
477.644	7.2
477.848	7.25
478.052	7.14
478.255	7.22
478.459	7.22
478.663	7.41
478.866	7.41
479.07	7.43
479.273	7.51
479.477	7.52
479.681	7.5
479.884	7.47
480.088	7.57
480.291	7.55
480.495	7.6
480.698	7.52
480.901	7.61
481.105	7.62
481.308	7.61
481.512	7.56
481.715	7.7
481.919	7.76
482.122	7.8
482.325	7.84
482.529	7.88
482.732	7.76
482.935	7.61
483.138	7.56
483.342	7.59
483.545	7.68
483.748	7.83
483.952	7.9
484.155	8
484.358	8.06
484.561	8.02
484.764	7.94
484.967	8.02
485.171	8.02
485.374	7.95
485.577	7.99
485.78	8.04
485.983	7.97
486.186	7.94
486.389	7.97
486.592	7.98
486.795	8.01
486.998	8.01
487.201	8.04
487.404	8.14
487.607	8.18
487.81	8.15
488.013	8.23
488.216	8.19
488.419	8.06
488.622	8.02
488.825	8.08
489.028	8.02
489.231	8.08
489.433	8.2
489.636	8.18
489.839	8.18
490.042	8.28
490.245	8.3
490.447	8.29
490.65	8.36
490.853	8.3
491.056	8.29
491.258	8.29
491.461	8.19
491.664	8.2
491.866	8.2
492.069	8.31
492.272	8.21
492.474	8.33
492.677	8.31
492.879	8.35
493.082	8.3
493.285	8.46
493.487	8.49
493.69	8.49
493.892	8.55
494.095	8.5
494.297	8.46
494.5	8.43
494.702	8.44
494.905	8.43
495.107	8.45
495.309	8.51
495.512	8.56
495.714	8.68
495.917	8.76
496.119	8.87
496.321	8.88
496.524	8.89
496.726	8.87
496.928	8.83
497.13	8.8
497.333	8.84
497.535	8.92
497.737	8.98
497.939	9
498.142	8.96
498.344	8.93
498.546	8.94
498.748	8.95
498.95	9
499.152	9.14
499.355	9.21
499.557	9.19
499.759	9.28
499.961	9.37
500.163	9.37
500.365	9.39
500.567	9.46
500.769	9.4
500.971	9.35
501.173	9.38
501.375	9.53
501.577	9.52
501.779	9.52
501.981	9.61
502.183	9.64
502.385	9.6
502.587	9.66
502.788	9.8
502.99	9.86
503.192	9.9
503.394	9.97
503.596	9.99
503.798	9.96
503.999	10
504.201	10.04
504.403	10.05
504.605	10.13
504.806	10.26
505.008	10.3
505.21	10.32
505.411	10.4
505.613	10.41
505.815	10.4
506.016	10.47
506.218	10.56
506.42	10.58
506.621	10.62
506.823	10.71
507.024	10.69
507.226	10.76
507.427	10.85
507.629	10.95
507.83	11
508.032	11.03
508.233	11.09
508.435	11.1
508.636	11.12
508.838	11.11
509.039	11.19
509.24	11.24
509.442	11.33
509.643	11.41
509.845	11.46
510.046	11.5
510.247	11.53
510.448	11.58
510.65	11.63
510.851	11.69
511.052	11.75
511.254	11.84
511.455	11.92
511.656	11.9
511.857	11.94
512.058	12.02
512.26	12.02
512.461	12
512.662	12.09
512.863	12.08
513.064	12.09
513.265	12.05
513.466	12.07
513.667	12.1
513.868	12.13
514.069	12.15
514.27	12.26
514.471	12.29
514.672	12.34
514.873	12.38
515.074	12.44
515.275	12.44
515.476	12.49
515.677	12.49
515.878	12.66
516.079	12.68
516.28	12.74
516.481	12.85
516.682	12.86
516.882	12.77
517.083	12.77
517.284	12.77
517.485	12.65
517.686	12.73
517.886	12.77
518.087	12.88
518.288	12.9
518.488	13.03
518.689	12.98
518.89	13.06
519.091	13
519.291	12.9
519.492	12.93
519.692	12.98
519.893	12.98
520.094	13.04
520.294	13.19
520.495	13.25
520.695	13.34
520.896	13.36
521.096	13.42
521.297	13.42
521.497	13.38
521.698	13.37
521.898	13.44
522.099	13.49
522.299	13.54
522.499	13.54
522.7	13.6
522.9	13.58
523.101	13.5
523.301	13.52
523.501	13.58
523.702	13.63
523.902	13.65
524.102	13.77
524.302	13.81
524.503	13.84
524.703	13.83
524.903	13.85
525.103	13.78
525.304	13.8
525.504	13.86
525.704	13.96
525.904	13.97
526.104	14.04
526.304	14.04
526.504	14.07
526.705	13.98
526.905	14.04
527.105	14.07
527.305	14.13
527.505	14.1
527.705	14.11
527.905	14.18
528.105	14.17
528.305	14.14
528.505	14.23
528.705	14.33
528.905	14.31
529.105	14.37
529.304	14.45
529.504	14.49
529.704	14.47
529.904	14.51
530.104	14.53
530.304	14.5
530.503	14.46
530.703	14.45
530.903	14.44
531.103	14.53
531.303	14.56
531.502	14.61
531.702	14.71
531.902	14.86
532.101	14.85
532.301	14.92
532.501	15.02
532.7	15.03
532.9	15.01
533.1	14.95
533.299	15.02
533.499	14.99
533.698	15.01
533.898	15.03
534.097	15.16
534.297	15.19
534.496	15.29
534.696	15.32
534.895	15.36
535.095	15.38
535.294	15.39
535.494	15.35
535.693	15.43
535.892	15.42
536.092	15.48
536.291	15.51
536.491	15.57
536.69	15.59
536.889	15.62
537.088	15.66
537.288	15.64
537.487	15.69
537.686	15.69
537.886	15.73
538.085	15.73
538.284	15.85
538.483	15.8
538.682	15.85
538.882	15.96
539.081	16.06
539.28	16.07
539.479	16.16
539.678	16.2
539.877	16.22
540.076	16.23
540.275	16.34
540.474	16.41
540.673	16.47
540.872	16.48
541.071	16.59
541.27	16.53
541.469	16.56
541.668	16.66
541.867	16.67
542.066	16.64
542.265	16.82
542.464	16.9
542.663	17.03
542.862	17.23
543.06	17.38
543.259	17.47
543.458	17.57
543.657	17.58
543.856	17.66
544.054	17.71
544.253	17.72
544.452	17.79
544.651	17.91
544.849	17.84
545.048	17.87
545.247	17.93
545.445	17.89
545.644	17.88
545.843	17.98
546.041	18.1
546.24	18.2
546.438	18.31
546.637	18.42
546.836	18.55
547.034	18.62
547.233	18.64
547.431	18.75
547.63	18.79
547.828	18.81
548.027	18.78
548.225	18.88
548.423	18.9
548.622	18.96
548.82	19.05
549.019	19.18
549.217	19.32
549.415	19.38
549.614	19.58
549.812	19.68
550.01	19.77
550.209	19.87
550.407	19.98
550.605	19.91
550.803	19.98
551.002	20.07
551.2	20.04
551.398	20.23
551.596	20.37
551.794	20.47
551.993	20.56
552.191	20.75
552.389	20.78
552.587	20.97
552.785	21.06
552.983	21.2
553.181	21.26
553.379	21.39
553.577	21.41
553.775	21.53
553.973	21.68
554.171	21.79
554.369	21.91
554.567	21.97
554.765	22
554.963	22.08
555.161	22.17
555.359	22.2
555.557	22.42
555.755	22.58
555.952	22.72
556.15	22.77
556.348	22.92
556.546	23.01
556.744	23.07
556.941	23.05
557.139	23.2
557.337	23.35
557.535	23.48
557.732	23.6
557.93	23.86
558.128	24.01
558.325	24.14
558.523	24.22
558.721	24.46
558.918	24.61
559.116	24.76
559.313	24.89
559.511	25.05
559.708	25.11
559.906	25.19
560.104	25.27
560.301	25.33
560.498	25.53
560.696	25.6
560.893	25.61
561.091	25.78
561.288	25.92
561.486	25.95
561.683	26.11
561.88	26.36
562.078	26.48
562.275	26.62
562.473	26.77
562.67	26.93
562.867	27.03
563.064	27.13
563.262	27.23
563.459	27.45
563.656	27.57
563.853	27.7
564.051	27.86
564.248	27.99
564.445	27.93
564.642	27.94
564.839	28.06
565.036	28.18
565.234	28.38
565.431	28.48
565.628	28.68
565.825	28.74
566.022	28.9
566.219	28.98
566.416	29.11
566.613	29.23
566.81	29.39
567.007	29.48
567.204	29.53
567.401	29.7
567.598	29.8
567.795	29.81
567.991	29.81
568.188	29.91
568.385	29.92
568.582	30.02
568.779	30.16
568.976	30.32
569.172	30.4
569.369	30.5
569.566	30.48
569.763	30.46
569.96	30.48
570.156	30.64
570.353	30.69
570.55	30.7
570.746	30.91
570.943	30.94
571.14	30.87
571.336	30.92
571.533	31.15
571.729	31.16
571.926	31.21
572.123	31.33
572.319	31.37
572.516	31.3
572.712	31.28
572.909	31.34
573.105	31.39
573.302	31.44
573.498	31.46
573.695	31.5
573.891	31.55
574.087	31.47
574.284	31.58
574.48	31.61
574.677	31.69
574.873	31.75
575.069	31.84
575.266	31.83
575.462	31.86
575.658	31.92
575.854	31.84
576.051	31.94
576.247	31.87
576.443	31.89
576.639	31.81
576.835	31.77
577.032	31.63
577.228	31.66
577.424	31.65
577.62	31.62
577.816	31.76
578.012	31.76
578.208	31.81
578.404	31.77
578.6	31.88
578.796	31.91
578.993	31.96
579.189	32
579.384	32.05
579.58	32.04
579.776	31.97
579.972	31.92
580.168	31.86
580.364	31.94
580.56	31.87
580.756	31.77
580.952	31.84
581.148	31.76
581.343	31.67
581.539	31.67
581.735	31.71
581.931	31.6
582.127	31.71
582.322	31.65
582.518	31.61
582.714	31.61
582.909	31.58
583.105	31.43
583.301	31.52
583.496	31.55
583.692	31.45
583.888	31.44
584.083	31.6
584.279	31.51
584.474	31.51
584.67	31.48
584.866	31.55
585.061	31.49
585.257	31.47
585.452	31.48
585.648	31.51
585.843	31.5
586.039	31.48
586.234	31.57
586.429	31.51
586.625	31.62
586.82	31.79
587.015	31.7
587.211	31.63
587.406	31.65
587.601	31.63
587.797	31.48
587.992	31.49
588.187	31.46
588.383	31.52
588.578	31.5
588.773	31.48
588.968	31.57
589.163	31.66
589.359	31.64
589.554	31.67
589.749	31.71
589.944	31.78
590.139	31.78
590.334	31.87
590.529	31.92
590.724	32.05
590.919	32.09
591.114	32.17
591.309	32.17
591.504	32.19
591.699	32.12
591.894	32.09
592.089	32.11
592.284	32.17
592.479	32.24
592.674	32.31
592.869	32.33
593.064	32.43
593.259	32.49
593.454	32.52
593.648	32.57
593.843	32.65
594.038	32.63
594.233	32.68
594.428	32.78
594.622	32.84
594.817	32.99
595.012	33.08
595.206	33.24
595.401	33.4
595.596	33.51
595.79	33.54
595.985	33.61
596.18	33.64
596.374	33.74
596.569	33.79
596.763	33.91
596.958	34.05
597.153	34.13
597.347	34.09
597.542	34.13
597.736	34.28
597.931	34.29
598.125	34.42
598.319	34.45
598.514	34.57
598.708	34.57
598.903	34.67
599.097	34.73
599.291	34.88
599.486	35.01
599.68	35.07
599.874	35.12
600.069	35.21
600.263	35.28
600.457	35.35
600.651	35.31
600.846	35.36
601.04	35.32
601.234	35.37
601.428	35.35
601.622	35.49
601.817	35.51
602.011	35.55
602.205	35.54
602.399	35.53
602.593	35.6
602.787	35.55
602.981	35.53
603.175	35.65
603.369	35.73
603.563	35.73
603.757	35.76
603.951	35.74
604.145	35.59
604.339	35.57
604.533	35.49
604.727	35.57
604.921	35.61
605.115	35.6
605.309	35.44
605.502	35.5
605.696	35.46
605.89	35.55
606.084	35.58
606.278	35.74
606.471	35.65
606.665	35.59
606.859	35.37
607.053	35.2
607.246	35.08
607.44	34.96
607.634	34.94
607.827	34.87
608.021	34.82
608.214	34.68
608.408	34.66
608.602	34.45
608.795	34.47
608.989	34.53
609.182	34.47
609.376	34.47
609.569	34.55
609.763	34.51
609.956	34.37
610.15	34.32
610.343	34.22
610.537	34.09
610.73	33.88
610.923	33.82
611.117	33.72
611.31	33.55
611.504	33.58
611.697	33.56
611.89	33.54
612.083	33.51
612.277	33.47
612.47	33.24
612.663	33.16
612.856	33.1
613.05	33.01
613.243	32.87
613.436	32.75
613.629	32.68
613.822	32.61
614.015	32.42
614.209	32.36
614.402	32.29
614.595	32.2
614.788	32.14
614.981	32.1
615.174	32
615.367	31.96
615.56	31.8
615.753	31.68
615.946	31.67
616.139	31.71
616.332	31.63
616.525	31.62
616.718	31.58
616.911	31.48
617.103	31.46
617.296	31.47
617.489	31.3
617.682	31.27
617.875	31.24
618.067	31.1
618.26	30.95
618.453	31.04
618.646	30.95
618.838	30.88
619.031	30.83
619.224	30.85
619.417	30.78
619.609	30.69
619.802	30.54
619.994	30.57
620.187	30.48
620.38	30.42
620.572	30.29
620.765	30.35
620.957	30.29
621.15	30.23
621.342	30.28
621.535	30.32
621.727	30.33
621.92	30.3
622.112	30.32
622.305	30.23
622.497	30.12
622.69	30.08
622.882	30.02
623.074	30.11
623.267	30.06
623.459	30.01
623.651	29.92
623.844	29.96
624.036	29.86
624.228	29.86
624.42	29.83
624.613	29.81
624.805	29.72
624.997	29.65
625.189	29.66
625.381	29.63
625.574	29.57
625.766	29.6
625.958	29.62
626.15	29.6
626.342	29.6
626.534	29.64
626.726	29.6
626.918	29.51
627.11	29.46
627.302	29.52
627.494	29.47
627.686	29.36
627.878	29.28
628.07	29.27
628.262	29.23
628.454	29.27
628.646	29.2
628.838	29.29
629.029	29.12
629.221	29.09
629.413	28.91
629.605	28.94
629.797	28.81
629.989	28.82
630.18	28.76
630.372	28.76
630.564	28.72
630.755	28.73
630.947	28.72
631.139	28.59
631.33	28.52
631.522	28.46
631.714	28.42
631.905	28.42
632.097	28.45
632.289	28.49
632.48	28.43
632.672	28.37
632.863	28.23
633.055	28.16
633.246	28.09
633.438	28.04
633.629	28.01
633.821	28.09
634.012	28.07
634.203	28.05
634.395	28.1
634.586	28.08
634.777	27.88
634.969	27.89
635.16	27.86
635.351	27.75
635.543	27.7
635.734	27.79
635.925	27.79
636.117	27.83
636.308	27.88
636.499	27.84
636.69	27.84
636.881	27.85
637.073	27.81
637.264	27.76
637.455	27.68
637.646	27.68
637.837	27.66
638.028	27.65
638.219	27.75
638.41	27.95
638.601	27.85
638.792	27.79
638.983	27.78
639.174	27.59
639.365	27.51
639.556	27.52
639.747	27.53
639.938	27.49
640.129	27.51
640.32	27.43
640.511	27.43
640.701	27.4
640.892	27.37
641.083	27.34
641.274	27.32
641.465	27.23
641.655	27.15
641.846	27.16
642.037	27.1
642.228	26.98
642.418	26.96
642.609	26.96
642.8	26.83
642.99	26.86
643.181	26.94
643.372	27.01
643.562	26.91
643.753	26.9
643.943	26.8
644.134	26.65
644.324	26.47
644.515	26.55
644.705	26.48
644.896	26.49
645.086	26.52
645.277	26.54
645.467	26.49
645.658	26.42
645.848	26.42
646.038	26.42
646.229	26.47
646.419	26.22
646.61	26.28
646.8	26.19
646.99	26.1
647.18	26.05
647.371	26.1
647.561	26.06
647.751	26.06
647.941	26.05
648.132	25.93
648.322	25.96
648.512	26
648.702	25.95
648.892	25.97
649.082	25.93
649.272	25.9
649.462	25.82
649.653	25.7
649.843	25.57
650.033	25.56
650.223	25.49
650.413	25.43
650.603	25.48
650.793	25.39
650.983	25.34
651.172	25.27
651.362	25.12
651.552	24.99
651.742	24.96
651.932	24.96
652.122	24.97
652.312	24.98
652.502	24.93
652.691	24.91
652.881	24.83
653.071	24.75
653.261	24.56
653.45	24.48
653.64	24.42
653.83	24.32
654.019	24.15
654.209	24.03
654.399	23.82
654.588	23.56
654.778	23.35
654.968	23.3
655.157	23.18
655.347	23.18
655.536	23.02
655.726	22.85
655.915	22.68
656.105	22.57
656.294	22.25
656.484	22.08
656.673	21.98
656.863	21.79
657.052	21.5
657.241	21.38
657.431	21.25
657.62	21.04
657.809	20.77
657.999	20.67
658.188	20.46
658.377	20.27
658.567	20.07
658.756	19.81
658.945	19.61
659.134	19.45
659.324	19.24
659.513	18.96
659.702	18.8
659.891	18.57
660.08	18.26
660.269	18.01
660.458	17.84
660.648	17.59
660.837	17.37
661.026	17.22
661.215	17.06
661.404	16.83
661.593	16.69
661.782	16.47
661.971	16.23
662.16	16.07
662.349	15.84
662.538	15.63
662.726	15.46
662.915	15.37
663.104	15.1
663.293	14.98
663.482	14.85
663.671	14.69
663.86	14.43
664.048	14.39
664.237	14.31
664.426	14.15
664.615	13.94
664.803	13.82
664.992	13.52
665.181	13.36
665.369	13.12
665.558	13.06
665.747	12.91
665.935	12.91
666.124	12.75
666.312	12.74
666.501	12.61
666.69	12.63
666.878	12.42
667.067	12.28
667.255	12.28
667.444	12.28
667.632	12.17
667.82	12.17
668.009	12.1
668.197	11.93
668.386	11.89
668.574	11.85
668.762	11.77
668.951	11.75
669.139	11.71
669.327	11.68
669.516	11.66
669.704	11.64
669.892	11.63
670.08	11.57
670.269	11.54
670.457	11.53
670.645	11.42
670.833	11.48
671.021	11.59
671.21	11.5
671.398	11.47
671.586	11.48
671.774	11.47
671.962	11.41
672.15	11.54
672.338	11.55
672.526	11.7
672.714	11.72
672.902	11.78
673.09	11.83
673.278	12.01
673.466	12.09
673.654	12.16
673.842	12.23
674.03	12.25
674.218	12.18
674.405	12.23
674.593	12.35
674.781	12.5
674.969	12.52
675.157	12.77
675.344	12.78
675.532	12.72
675.72	12.7
675.908	12.9
676.095	12.9
676.283	13.13
676.471	13.3
676.658	13.51
676.846	13.5
677.033	13.47
677.221	13.52
677.409	13.6
677.596	13.58
677.784	13.74
677.971	13.85
678.159	13.89
678.346	14.04
678.534	14.29
678.721	14.5
678.909	14.89
679.096	15
679.283	15.13
679.471	15.26
679.658	15.39
679.846	15.37
680.033	15.8
680.22	16.08
680.408	16.09
680.595	16.16
680.782	16.4
680.969	16.4
681.157	16.51
681.344	16.64
681.531	16.8
681.718	16.97
681.905	17.22
682.093	17.53
682.28	17.92
682.467	18.35
682.654	18.49
682.841	18.76
683.028	18.9
683.215	19.31
683.402	19.43
683.589	19.92
683.776	20.25
683.963	20.52
684.15	20.72
684.337	21.16
684.524	21.44
684.711	21.71
684.898	22.15
685.085	22.43
685.271	22.81
685.458	23.1
685.645	23.52
685.832	23.89
686.019	24.3
686.205	24.65
686.392	25.17
686.579	25.6
686.766	26.06
686.952	26.55
687.139	27.11
687.326	27.5
687.512	27.95
687.699	28.58
687.886	29.01
688.072	29.48
688.259	30.02
688.445	30.73
688.632	31.12
688.818	31.82
689.005	32.45
689.191	33.13
689.378	33.64
689.564	34.31
689.751	34.86
689.937	35.58
690.124	36.17
690.31	36.69
690.496	37.32
690.683	38.13
690.869	38.65
691.055	39.46
691.242	40.15
691.428	40.77
691.614	41.47
691.8	42.19
691.987	42.84
692.173	43.48
692.359	44.26
692.545	45.08
692.731	45.72
692.918	46.28
693.104	47.12
693.29	47.8
693.476	48.38
693.662	49.16
693.848	49.78
694.034	50.66
694.22	51.35
694.406	52.04
694.592	52.64
694.778	53.24
694.964	53.49
695.15	54.08
695.336	54.71
695.522	55.21
695.708	56.11
695.894	57.02
696.08	57.84
696.265	58.47
696.451	59.02
696.637	59.53
696.823	60.1
697.009	60.64
697.194	61.17
697.38	62.13
697.566	62.65
697.751	63.17
697.937	64.01
698.123	64.53
698.308	64.9
698.494	65.89
698.68	66.67
698.865	67.01
699.051	67.65
699.236	68.22
699.422	68.29
699.607	68.74
699.793	69.3
699.978	69.83
700.164	70.28
700.349	70.97
700.535	71.09
700.72	71.57
700.906	71.99
701.091	72.67
701.276	72.8
701.462	73.64
701.647	73.7
701.832	73.91
702.018	74.48
702.203	75.16
702.388	75.15
702.573	75.77
702.759	76.52
702.944	76.15
703.129	76.3
703.314	76.77
703.499	76.84
703.684	77.1
703.87	77.63
704.055	78.38
704.24	78.99
704.425	79.45
704.61	79.57
704.795	80.2
704.98	79.86
705.165	79.73
705.35	80.2
705.535	80.66
705.72	80.59
705.905	81.3
706.09	82.23
706.275	82.35
706.459	82.59
706.644	82.99
706.829	83.36
707.014	83.38
707.199	83.79
707.384	83.59
707.568	83.75
707.753	83.9
707.938	84.21
708.123	84.52
708.307	85.26
708.492	85.53
708.677	85.51
708.861	85.09
709.046	84.62
709.231	84.3
709.415	84.46
709.6	84.63
709.784	85.41
709.969	86.24
710.153	86.33
710.338	86.85
710.522	87.22
710.707	86.92
710.891	86.75
711.076	86.94
711.26	87.04
711.445	87.2
711.629	87.32
711.813	87.64
711.998	88.16
712.182	87.79
712.366	88.18
712.551	88.45
712.735	88.64
712.919	89.02
713.103	89.51
713.288	89.14
713.472	89.55
713.656	88.86
713.84	88.88
714.024	89.15
714.208	89.15
714.393	89.21
714.577	90.2
714.761	90.26
714.945	89.67
715.129	89.88
715.313	89.93
715.497	89.65
715.681	89.35
715.865	89.93
716.049	90.22
716.233	90.25
716.417	90.66
716.601	91.24
716.785	91.55
716.968	91.54
717.152	91.83
717.336	92.2
717.52	92.07
717.704	92.1
717.888	92.57
718.071	92.33
718.255	92.06
718.439	92.15
718.622	92.47
718.806	92.39
718.99	92.29
719.174	92.86
719.357	92.85
719.541	92.78
719.724	92.68
719.908	92.66
720.092	91.89
720.275	92.53
720.459	92.33
720.642	92.28
720.826	92.62
721.009	92.86
721.193	92.19
721.376	92.61
721.559	93.1
721.743	93.71
721.926	94.06
722.11	94.65
722.293	95.22
722.476	94.74
722.66	94.88
722.843	94.6
723.026	94.61
723.21	93.89
723.393	94.48
723.576	94.19
723.759	94.52
723.942	94.65
724.126	94.75
724.309	94.67
724.492	94.65
724.675	94.96
724.858	94.84
725.041	95.14
725.224	95.23
725.407	95.08
725.59	94.83
725.774	95.18
725.957	95.09
726.14	95.1
726.322	95.72
726.505	95.61
726.688	95.48
726.871	95.32
727.054	95.5
727.237	95.11
727.42	95.17
727.603	95.23
727.786	95.52
727.968	94.72
728.151	95.06
728.334	95.88
728.517	95.77
728.699	95.84
728.882	96.5
729.065	96.07
729.248	96.48
729.43	97.03
729.613	96.58
729.796	97.03
729.978	97.35
730.161	96.94
730.343	96.86
730.526	98
730.708	97.8
730.891	98.27
731.073	98.03
731.256	98.4
731.438	98.56
731.621	98.76
731.803	97.95
731.986	98.22
732.168	98.44
732.35	98.28
732.533	98.01
732.715	99
732.898	98.96
733.08	97.92
733.262	97.43
733.444	98.42
733.627	98.14
733.809	98.42
733.991	99.66
734.173	100.08
734.355	99.75
734.538	100.13
734.72	99.82
734.902	99.56
735.084	99.35
735.266	99.36
735.448	99.89
735.63	100.45
735.812	100.32
735.994	100.49
736.176	100.8
736.358	100.63
736.54	101.45
736.722	101.31
736.904	101.58
737.086	101.43
737.268	101.69
737.45	100.92
737.632	101.39
737.814	101.61
737.995	101.48
738.177	100.68
738.359	100.37
738.541	99.97
738.723	100.31
738.904	99.8
739.086	100.64
739.268	100.91
739.449	100.16
739.631	99.34
739.813	99.47
739.994	98.34
740.176	98.18
740.358	99.16
740.539	99.7
740.721	100.59
740.902	101.29
741.084	101.89
741.265	101.67
741.447	102.27
741.628	101.46
741.81	102.1
741.991	102.24
742.172	102.17
742.354	101.18
742.535	101.96
742.717	100.5
742.898	100.11
743.079	100.67
743.261	101.09
743.442	99.48
743.623	100.24
743.804	100.08
743.986	99.79
744.167	98.5
744.348	99.32
744.529	99.32
744.71	99.25
744.891	99.45
745.073	101.08
745.254	101.41
745.435	100.79
745.616	100.15
745.797	99.57
745.978	99.03
746.159	98.72
746.34	100.09
746.521	100.57
746.702	101.5
746.883	101.38
747.064	101.34
747.245	100.62
747.426	101.57
747.606	100.54
747.787	101.5
747.968	101.24
748.149	101.13
748.33	99.8
748.51	99.76
748.691	98.23
748.872	99.18
749.053	98.89
749.233	98.43
749.414	99.36
749.595	100.03
749.775	99.12
749.956	98.97
750.137	100.08
750.317	98.56
750.498	98.93
750.678	99.13
750.859	100.43
751.04	100.26
751.22	99.86
751.4	98.89
751.581	99.19
751.761	98.99
751.942	99.19
752.122	98.91
752.303	99.67
752.483	99.82
752.663	99.11
752.844	99.06
753.024	100.95
753.204	101.03
753.385	100.51
753.565	101.36
753.745	100.44
753.925	99.06
754.106	98.46
754.286	98.35
754.466	97.53
754.646	98.31
754.826	100.08
755.006	99.6
755.187	100.15
755.367	99.24
755.547	99.39
755.727	98.3
755.907	98.68
756.087	96.99
756.267	95.43
756.447	95.36
756.627	95.24
756.807	96.68
756.987	96.66
757.167	99.13
757.346	97.99
757.526	99.88
757.706	97.84
757.886	98.25
758.066	98.1
758.246	97.77
758.425	95.22
758.605	95.67
758.785	96.62
758.965	96.27
759.144	95.67
759.324	97.69
759.504	98.16
759.683	97.34
759.863	99.06
760.043	99.44
760.222	97.97
760.402	97.78
760.581	99.59
760.761	97.9
760.94	97.89
761.12	97.26
761.299	97.9
761.479	96.63
761.658	95.22
761.838	96.04
762.017	97.64
762.197	95.14
762.376	95.61
762.555	95.82
762.735	94.88
762.914	92.77
763.093	93.87
763.273	91.95
763.452	93.18
763.631	93.08
763.81	95.01
763.99	94.25
764.169	95.2
764.348	93.98
764.527	94.54
764.706	93.62
764.885	95.16
765.064	95.83
765.243	96.41
765.423	96.56
765.602	97.35
765.781	94.81
765.96	93.8
766.139	94.11
766.318	95.05
766.497	94.42
766.676	94.7
766.854	96.11
767.033	96.12
767.212	96.54
767.391	94.85
767.57	98.46
767.749	96.25
767.928	97.19
768.106	94.54
768.285	95.42
768.464	94.25
768.643	95.28
768.821	93.11
769	94.15
769.179	94.12
769.357	92.37
769.536	91.68
769.715	90.95
769.893	90.9
770.072	89.23
770.25	88.6
770.429	88.26
770.607	90.3
770.786	89.21
770.964	90.18
771.143	90.62
771.321	91.01
771.5	90.28
771.678	91.3
771.857	91.17
772.035	92.17
772.213	92.21
772.392	89.9
772.57	90.05
772.748	90.31
772.927	90.54
773.105	90.24
773.283	92.42
773.461	91.81
773.64	92.27
773.818	92.93
773.996	95.12
774.174	95.66
774.352	94.76
774.531	93.8
774.709	92.68
774.887	89.07
775.065	88.05
775.243	87.87
775.421	87.04
775.599	86.37
775.777	87.3
775.955	85.82
776.133	87.03
776.311	87.05
776.489	86.58
776.667	86.31
776.844	87.89
777.022	87.22
777.2	89.33
777.378	89.58
777.556	91.45
777.734	91.36
777.911	93.52
778.089	93.49
778.267	94.25
778.445	97.23
778.622	97.21
778.8	92.92
778.978	91.68
779.155	92.02
779.333	88.98
779.511	88.92
779.688	90.58
779.866	91.64
780.043	92.67
780.221	93.78
780.398	92.37
780.576	92.23
780.753	90.65
780.931	89.19
781.108	89.13
781.286	91.35
781.463	90.34
781.64	88.36
781.818	88.08
781.995	84.66
782.172	85.5
782.35	87.32
782.527	88.53
782.704	87.38
782.882	85.63
783.059	84.64
783.236	86.9
783.413	87.82
783.59	88.6
783.768	89.82
783.945	89.15
784.122	87.54
784.299	90.41
784.476	87.69
784.653	89.46
784.83	87.48
785.007	85.78
785.184	80.84
785.361	83.63
785.538	82.58
785.715	86.97
785.892	85.53
786.069	88.24
786.246	88.05
786.423	90.6
786.6	87.47
786.776	89.2
786.953	88.42
787.13	87.1
787.307	87.02
787.484	85.23
787.66	84.13
787.837	82.44
788.014	85.82
788.191	82.02
788.367	81.9
788.544	84.47
788.721	87.4
788.897	86.55
789.074	89.83
789.25	90.21
789.427	86.73
789.603	85.65
789.78	83.53
789.956	81.27
790.133	82.59
790.309	82.72
790.486	85.07
790.662	84.8
790.839	85.12
791.015	86.22
791.192	87.58
791.368	83.55
791.544	82.21
791.721	83.57
791.897	80.8
792.073	80.23
792.249	79.04
792.426	79.52
792.602	77.68
792.778	77.23
792.954	79.3
793.13	81.09
793.307	82.83
793.483	81.05
793.659	82.5
793.835	83.88
794.011	88.62
794.187	88.08
794.363	88.74
794.539	86.39
794.715	83.76
794.891	82.28
795.067	82.22
795.243	84.5
795.419	86.81
795.595	89.76
795.771	85.02
795.947	84.01
796.122	77.03
796.298	76.94
796.474	80.85
796.65	84.63
796.826	81.76
797.001	89.59
797.177	84.73
797.353	77.95
797.529	76.84
797.704	81.59
797.88	77.28
798.056	81.91
798.231	80.34
798.407	81.02
798.582	77.45
798.758	79.52
798.934	83.85
799.109	84.01
799.285	85.04
799.46	84.78
799.636	86.55
799.811	83.55
799.986	86.67
800.162	81.45
800.337	88.23
800.513	80.86
800.688	80.69
800.863	86.95
801.039	88.21
801.214	80.56
801.389	87.13
801.565	90.73
801.74	83.24
801.915	86.58
802.09	88.26
802.265	87.96
802.441	84.27
802.616	83.24
802.791	83.02
802.966	84.25
803.141	85.48
803.316	82.08
803.491	83.64
803.666	83.23
803.841	81.07
804.016	73.36
804.191	76.46
804.366	73.64
804.541	76.73
804.716	72.84
804.891	76.11
805.066	81.29
805.241	78.25
805.416	79.32
805.591	89.29
805.765	98.52
805.94	94.6
806.115	90.43
806.29	82.08
806.464	75.73
806.639	69.68
806.814	68.38
806.989	72.21
807.163	79.58
807.338	79.69
807.512	77.87
807.687	75.48
807.862	83.28
808.036	77.08
808.211	78.12
808.385	78.91
808.56	78.01
808.734	67.66
808.909	71.61
809.083	77.52
809.258	81.99
809.432	84.75
809.606	94.57
809.781	93.49
809.955	93.34
810.13	86.95
810.304	84.89
810.478	80.46
810.652	77.01
810.827	78.37
811.001	80.73
811.175	78.8
811.349	80.49
811.524	80.46
811.698	68.15
811.872	68.21
812.046	69.45
812.22	74.31
812.394	74.45
812.568	82.29
812.742	83.11
812.916	86
813.09	76.86
813.264	74.61
813.438	72.2
813.612	72.24
813.786	67.37
813.96	77.57
814.134	75.29
814.308	79.78
814.482	71.72
814.656	75.43
814.83	72.8
815.003	75.22
815.177	71.75
815.351	82.5
815.525	84.08
815.698	76.2
815.872	72.38
816.046	64.33
816.219	62.01
816.393	55.76
816.567	61.04
816.74	60.69
816.914	65.23
817.088	66.14
817.261	65.68
817.435	64.26
817.608	65.66
817.782	51.95
817.955	55.49
818.129	58.88
818.302	58.22
818.475	62.42
818.649	64.71
818.822	57.4
818.996	74.29
819.169	74.55
819.342	72.16
819.516	98.91
819.689	99.34
819.862	79.25
820.035	82.76
820.209	76.01
820.382	48.39
820.555	30.95
820.728	39.07
820.901	28.55
821.075	33.45
821.248	50.31
821.421	66.39
821.594	66.53
821.767	85.99
821.94	81.78
822.113	84.46
822.286	86.18
822.459	90.81
822.632	82.47
822.805	85.72
822.978	80.54
823.151	78.13
823.324	61.47
823.496	49.38
823.669	52.95
823.842	51.01
824.015	47.32
824.188	56.24
824.361	68.31
824.533	53
824.706	49.39
824.879	67.96
825.051	70.29
825.224	65.3
825.397	71.5
825.569	70.49
825.742	68.55
825.915	58.13
826.087	51.13
826.26	55.3
826.432	63.5
826.605	57.84
826.777	65.59
826.95	84.93
827.122	74.39
827.295	81.52
827.467	87.22
827.64	70.61
827.812	47.44
827.984	77.8
828.157	53.29
828.329	43.69
828.501	51.82
828.674	55.57
828.846	42.15
829.018	43.54
829.19	38.35
829.363	36.79
829.535	40.76
829.707	47.41
829.879	46.98
830.051	57.9
830.223	65.15
830.395	48.09
830.568	50.72
830.74	51.18
830.912	62.37
831.084	64.93
831.256	75.28
831.428	60.93
831.6	52.09
831.772	34.95
831.943	25.8
832.115	19.16
832.287	34.1
832.459	45.65
832.631	53.03
832.803	58.05
832.975	54.39
833.146	51.85
833.318	48.1
833.49	48.09
833.662	53.89
833.833	66.29
834.005	54.78
834.177	71.4
834.348	68.98
834.52	62.91
834.692	55.87
834.863	59.97
835.035	57.44
835.206	49.9
835.378	49.91
835.549	38.34
835.721	44.51
835.892	41.05
836.064	39.35
836.235	35.4
836.407	49.63
836.578	45.58
836.749	44.58
836.921	44.14
837.092	34.06
837.264	36.7
837.435	24.53
837.606	38.13
837.777	42.68
837.949	63.29
838.12	60.98
838.291	64.71
838.462	60.64
838.633	61.5
838.805	37.72
838.976	36.45
839.147	53.13
839.318	57.67
839.489	45.64
839.66	57.84
839.831	55.48
840.002	51.67
840.173	45.71
840.344	54.09
840.515	41.36
840.686	40.08
840.857	39.39
841.028	38.94
841.199	45.61
841.369	56.69
841.54	65.23
841.711	73.73
841.882	98.2
842.053	75
842.223	62.82
842.394	59.67
842.565	50.22
842.736	49.65
842.906	48.87
843.077	58.89
843.248	75.37
843.418	65.15
843.589	49.5
843.759	53.53
843.93	70.33
844.101	46.59
844.271	83.4
844.442	94.04
844.612	87.3
844.783	67.47
844.953	67.44
845.123	39.17
845.294	37.49
845.464	29.55
845.635	40
845.805	46.69
845.975	54
846.146	37.19
846.316	30.43
846.486	23.36
846.656	45.01
846.827	58.86
846.997	64.25
847.167	52.98
847.337	44.84
847.507	40.03
847.677	31.54
847.848	33.95
848.018	45.42
848.188	59.35
848.358	23.56
848.528	41.1
848.698	26.02
848.868	22.94
849.038	9.99
849.208	44.55
849.378	39.21
849.548	42.88
849.718	27.68
849.887	28.42
850.057	-13.7
850.227	-17.16
850.397	-10.78
850.567	0.85
850.737	32.49
850.906	23.7
851.076	8.03
851.246	30.2
851.415	31.96
851.585	13.01
851.755	71.24
851.924	88.3
852.094	91.77
852.264	91.16
852.433	67.43
852.603	10.59
852.772	15.04
852.942	25.19
853.111	-1.16
853.281	17.66
853.45	38.04
853.62	48.28
853.789	24.04
853.959	38.13
854.128	46.06
854.297	35.27
854.467	25.63
854.636	42.31
854.805	49.47
854.975	25.66
855.144	17.57
855.313	32.53
855.482	26.37
855.652	-4.18
855.821	25.54
855.99	61.52
856.159	50.34
856.328	48.6
856.497	49.49
856.667	39.11
856.836	29.08
857.005	18.39
857.174	10.48
857.343	7.88
857.512	28.77
857.681	40.92
857.85	41.89
858.019	60.24
858.188	41.58
858.356	25.54
858.525	12.18
858.694	12.79
858.863	24.09
859.032	47.58
859.201	43.85
859.369	49.92
859.538	43.05
859.707	25.68
859.876	25.55
860.044	48.33
860.213	73.66
860.382	90.14
860.55	87.45
860.719	89.99
860.888	78
861.056	57.22
861.225	14.18
861.393	28.04
861.562	-1.1
861.73	-8.03
861.899	-5.81
862.067	-16.4
862.236	-24.89
862.404	-6.22
862.572	-20.57
862.741	-32.48
862.909	-29.98
863.078	3.88
863.246	-27.24
863.414	12.75
863.582	8.29
863.751	5.17
863.919	-7.15
864.087	33.77
864.255	-10.61
864.424	-14.51
864.592	24.95
864.76	13.44
864.928	10.29
865.096	42.49
865.264	35.41
865.432	30.84
865.6	51.71
865.768	27.82
865.936	12.27
866.104	41
866.272	-16.19
866.44	-5.63
866.608	6.83
866.776	15.22
866.944	25.71
867.112	70.1
867.28	61.61
867.448	78.49
867.615	79.07
867.783	56.78
867.951	18.84
868.119	23.99
868.286	15.33
868.454	-5.31
868.622	-7.89
868.789	6.58
868.957	21.44
869.125	18.42
869.292	-5.15
869.46	36.99
869.627	40
869.795	-3.61
869.963	27.3
870.13	41.62
870.298	9.8
870.465	9.61
870.632	1.8
870.8	-24.88
870.967	-35.82
871.135	-72.03
871.302	-60.34
871.469	-30.77
871.637	-45.76
871.804	-3.55
871.971	2.86
872.139	15.94
872.306	2.3
872.473	-31.15
872.64	-116.46
872.807	-80.96
872.975	-216.4
873.142	-53.6
873.309	-48.63
873.476	3.9
873.643	36.77
873.81	20.12
873.977	-40.33
874.144	11.58
874.311	-3.04
874.478	-48.16
874.645	-63.28
874.812	15.6
874.979	47.4
875.146	54.47
875.313	36.85
875.48	73.81
875.647	81.87
875.813	42.77
875.98	42.24
876.147	24.5
876.314	3.75
876.481	-7.95
876.647	-9.77
876.814	-20.96
876.981	-1.32
877.147	-11.26
877.314	18.71
877.481	35.74
877.647	67.01
877.814	53.38
877.98	76.24
878.147	63.55
878.314	59.3
878.48	68.67
878.647	79.99
878.813	90.4
878.979	109.26
879.146	136.09
879.312	141.23
879.479	112.07
879.645	99.93
879.811	62.68
879.978	62.81
880.144	47.29
880.31	57.62
880.477	38.4
880.643	43.12
880.809	-27.3
880.975	-21.21
881.142	-137.54
881.308	500.94
881.474	843.25
881.64	-50.89
881.806	-101.91
881.972	-1.85
882.138	33.57
882.304	54.2
882.47	24.47
882.636	30.67
882.802	27.34
882.968	47.76
883.134	40.14
883.3	19.03
883.466	74.14
883.632	84.03
883.798	65.57
883.964	120.77
884.129	156.33
884.295	-6.23
884.461	-37.09
884.627	-6.76
884.793	-56.64
884.958	30.06
885.124	-1.45
885.29	-30.93
885.455	-100.06
885.621	-40.67
885.787	-63.14
885.952	-47.35
886.118	-2.48
886.283	10.27
886.449	15.25
886.614	0.29
886.78	11.5
886.945	-2.91
887.111	-25.15
887.276	-65.85
887.442	-120.3
887.607	-88.82
887.773	-59.02
887.938	-47.63
888.103	-21.7
888.269	5.76
888.434	-3.05
888.599	-11.15
888.764	13.54
888.93	27
889.095	0.39
889.26	-24.53
889.425	-18.35
889.59	-95.6
889.756	-103.12
889.921	-50.49
890.086	-5.41
890.251	-23.07
890.416	24.8
890.581	-10.21
890.746	50.14
890.911	31.64
891.076	43.49
891.241	16.88
891.406	53.96
891.571	38.63
891.736	7.42
891.901	22.7
892.065	26.49
892.23	42.59
892.395	21.64
892.56	-7.91
892.725	37.74
892.889	88.06
893.054	0.67
893.219	13.3
893.384	102.13
893.548	37.13
893.713	66.25
893.878	94.42
