Data from Ofra_PS_T2_1A_2GT03_Reflection_1.txt Node
Date: Wed Jul 21 17:55:13 EDT 2021
User: Adam
Spectrometer: FLMT01687
Trigger mode: 0
Integration Time (sec): 1.100000E0
Scans to average: 2
Electric dark correction enabled: true
Nonlinearity correction enabled: false
Boxcar width: 2
XAxis mode: Wavelengths
Number of Pixels in Spectrum: 3648
>>>>>Begin Spectral Data<<<<<
179.494	555.4
179.716	628.71
179.937	637.55
180.158	641.31
180.38	1067.03
180.601	306.77
180.823	95.2
181.044	-181.87
181.265	-138.79
181.486	-23.26
181.708	144.17
181.929	1108.67
182.15	-773.59
182.372	-3.13
182.593	-53.4
182.814	9.77
183.035	82.39
183.257	52.65
183.478	-43.46
183.699	-19.77
183.92	-18.32
184.141	-56.69
184.363	-90.59
184.584	-4.25
184.805	29.24
185.026	44.95
185.247	60.75
185.468	34.11
185.689	17.3
185.91	15.62
186.132	16.52
186.353	10.26
186.574	65.35
186.795	62.56
187.016	7.12
187.237	-25.54
187.458	-55.39
187.679	-51.15
187.9	-51.52
188.121	-37.84
188.342	3.61
188.563	50.99
188.784	74.88
189.005	108.65
189.226	191.76
189.447	162.42
189.667	135.32
189.888	-150.86
190.109	-1126.3
190.33	-845.97
190.551	-1295.8
190.772	-209.99
190.993	-177.63
191.214	-115.99
191.434	-71.84
191.655	5.12
191.876	-86.9
192.097	-99.17
192.318	-161.12
192.538	-223.53
192.759	-185.91
192.98	-58.5
193.201	-27.53
193.421	-8.32
193.642	12.45
193.863	16.97
194.083	-16.79
194.304	-19.83
194.525	-19.75
194.745	-48.78
194.966	-81.19
195.187	-64.74
195.407	-68.95
195.628	-147.16
195.848	-140.13
196.069	-101.88
196.29	-42.66
196.51	-71.44
196.731	-39.7
196.951	-31.46
197.172	-82.18
197.392	-131.21
197.613	-127.36
197.833	-169.47
198.054	-151.81
198.274	-77.83
198.495	-109.13
198.715	-72.39
198.936	-73.64
199.156	-52.6
199.377	-160.08
199.597	-154.78
199.817	-171.95
200.038	-102.97
200.258	-198.71
200.479	-96.55
200.699	-83.26
200.919	-24.39
201.14	-51.99
201.36	-34.9
201.58	3.37
201.801	45.02
202.021	9.86
202.241	20.64
202.461	7.5
202.682	-109.38
202.902	-188.33
203.122	-99.19
203.342	-91.71
203.563	-45.79
203.783	11.08
204.003	-27.85
204.223	-42.24
204.443	10.41
204.663	-20.57
204.884	-14.16
205.104	16.33
205.324	43.55
205.544	36.09
205.764	50.35
205.984	48.96
206.204	52.74
206.424	41.33
206.644	-1.09
206.864	-2.4
207.084	-66.8
207.304	-84.68
207.525	-303.83
207.745	-161.59
207.964	-79.02
208.184	-96.39
208.404	-136.31
208.624	-133.29
208.844	-138.07
209.064	-483.24
209.284	-563.54
209.504	-283.16
209.724	-86.16
209.944	-45.38
210.164	-4.21
210.384	29.37
210.604	8.82
210.823	-41.83
211.043	-73.5
211.263	-52.65
211.483	-64.19
211.703	-106.01
211.922	-88.57
212.142	12.32
212.362	24.4
212.582	12.9
212.801	37.03
213.021	7.04
213.241	-26.71
213.461	-61.02
213.68	-77.59
213.9	-78.24
214.12	-51.22
214.339	-115.74
214.559	-98.17
214.779	-14.25
214.998	-18.87
215.218	-42.2
215.438	-12.06
215.657	-14.16
215.877	-60.69
216.096	-26.91
216.316	-5.21
216.535	-10.57
216.755	-15.26
216.974	-71.88
217.194	-71.31
217.413	-97.07
217.633	-99.76
217.852	-192.37
218.072	-104
218.291	-70.3
218.511	-29.64
218.73	-63.33
218.95	-42.33
219.169	-34.16
219.389	-74.2
219.608	-66.77
219.827	-46.78
220.047	-35.42
220.266	-29.94
220.485	-31.79
220.705	-3.74
220.924	-29.05
221.143	16.29
221.363	-17.72
221.582	9.69
221.801	-1.48
222.021	12.31
222.24	-88.86
222.459	30.94
222.678	-15.99
222.897	-89.28
223.117	-110.43
223.336	-90.7
223.555	-109.48
223.774	-77.35
223.993	-41.75
224.213	22.22
224.432	11.8
224.651	59.8
224.87	46.92
225.089	51.73
225.308	33.1
225.527	48.9
225.746	43.92
225.965	19.66
226.184	-14
226.404	12.01
226.623	-20.3
226.842	-27.9
227.061	9.38
227.28	16.27
227.499	-1.58
227.718	13.56
227.936	6.54
228.155	6.63
228.374	-14.22
228.593	-2.22
228.812	-3.51
229.031	-6.08
229.25	-61.92
229.469	-41.84
229.688	-17.46
229.907	12.78
230.125	39.87
230.344	57.6
230.563	61.07
230.782	52.21
231.001	-46.01
231.22	-68.37
231.438	-45.39
231.657	-43.65
231.876	-61.71
232.095	11.99
232.313	21.55
232.532	-16.57
232.751	-38.15
232.969	-53.65
233.188	-130.76
233.407	-63.17
233.625	-15.19
233.844	-15.34
234.063	8.32
234.281	16.6
234.5	22.78
234.719	13.98
234.937	10.7
235.156	6.66
235.374	11.44
235.593	-20.93
235.811	-42.22
236.03	-28.11
236.249	-64.29
236.467	-52.25
236.686	-8.59
236.904	17.5
237.123	-16.39
237.341	-14.22
237.559	-9.36
237.778	-16.84
237.996	-58.13
238.215	2.66
238.433	14.12
238.652	10.64
238.87	-22.25
239.088	-1.83
239.307	-5.79
239.525	-10.88
239.743	-26.28
239.962	-11.4
240.18	-34.84
240.398	-85.9
240.617	-99.08
240.835	-80.86
241.053	-48.93
241.271	3.29
241.49	21.52
241.708	10.54
241.926	-33.15
242.144	-27.76
242.363	-98.4
242.581	-144.33
242.799	-88.48
243.017	-26.09
243.235	-48.77
243.453	-27.6
243.672	-5.64
243.89	-4.13
244.108	-22.62
244.326	-5.98
244.544	4.85
244.762	-8.57
244.98	-6.86
245.198	-2.3
245.416	-21.16
245.634	-22.12
245.852	-22.34
246.07	-20.58
246.288	-15.94
246.506	-45.39
246.724	-43.7
246.942	-24.16
247.16	-7.75
247.378	1.32
247.596	40.64
247.814	46.93
248.032	2.44
248.25	2.69
248.468	-3.11
248.685	-15.89
248.903	6.02
249.121	19.22
249.339	-24.29
249.557	-23.34
249.775	-3.62
249.992	-70.48
250.21	-76.58
250.428	-33.37
250.646	-92.48
250.863	-121.67
251.081	-73.99
251.299	-31.9
251.517	-23.64
251.734	9.83
251.952	17.05
252.17	-1.51
252.387	-1.71
252.605	-12.33
252.823	2.17
253.04	22.9
253.258	42.89
253.475	44.24
253.693	55.69
253.911	47.08
254.128	44.13
254.346	44.72
254.563	10.27
254.781	-5.85
254.998	-39.17
255.216	-63.69
255.433	-51.25
255.651	-0.58
255.868	13.74
256.086	78.84
256.303	50.82
256.521	36.55
256.738	11.78
256.956	-28.9
257.173	-76.47
257.39	-75.07
257.608	-101.4
257.825	-64.39
258.043	-11.78
258.26	-7.86
258.477	45.13
258.695	31.19
258.912	-8.09
259.129	3.75
259.346	-16.5
259.564	-63.97
259.781	-63.49
259.998	-8.19
260.216	6.87
260.433	46.32
260.65	30.02
260.867	57.21
261.084	36.74
261.302	6.03
261.519	-12.73
261.736	-29.65
261.953	-59.93
262.17	-34.24
262.387	-57.94
262.604	-121.06
262.822	-125.35
263.039	-118.16
263.256	-170.96
263.473	-127.8
263.69	-67.07
263.907	-11.9
264.124	5.85
264.341	5.15
264.558	-1.69
264.775	15.38
264.992	-11.41
265.209	-17.25
265.426	24.63
265.643	37.39
265.86	36.25
266.077	47.43
266.294	37.81
266.51	-24.78
266.727	-57.31
266.944	-58.64
267.161	-65.56
267.378	-76.47
267.595	-24.68
267.812	-50.79
268.028	-56.39
268.245	-33.13
268.462	-40.09
268.679	-57.75
268.896	15.19
269.112	11.91
269.329	10.81
269.546	26.16
269.763	19.16
269.979	-0.2
270.196	-10.58
270.413	-39.41
270.629	-67.79
270.846	-86.55
271.063	-78.35
271.279	-86.12
271.496	-73.79
271.712	-17.58
271.929	8.32
272.146	-16.79
272.362	-3.57
272.579	30.43
272.795	33.19
273.012	33.99
273.228	45.26
273.445	23.76
273.661	-20.39
273.878	-88.23
274.094	-68.46
274.311	-98.59
274.527	-8.31
274.744	14.25
274.96	29.23
275.177	26.24
275.393	46.87
275.609	39.49
275.826	53.35
276.042	46.07
276.259	33.53
276.475	34.19
276.691	28.66
276.908	0.61
277.124	24.2
277.34	20.16
277.557	6.08
277.773	-7.92
277.989	-9.8
278.205	-30.62
278.422	-5.24
278.638	-1.32
278.854	26.88
279.07	39.58
279.286	45.27
279.503	12.79
279.719	19.54
279.935	-34.63
280.151	-65.84
280.367	-42.52
280.583	-61.74
280.799	-58.86
281.016	-79.09
281.232	-39.91
281.448	-47.29
281.664	-6.03
281.88	-50.43
282.096	-29.89
282.312	1.79
282.528	24.38
282.744	27.84
282.96	51.16
283.176	45.41
283.392	28.82
283.608	16.42
283.824	13.27
284.04	26.74
284.256	40.56
284.471	31.01
284.687	20.79
284.903	39.4
285.119	56.18
285.335	26.54
285.551	50.48
285.767	30.93
285.982	4.64
286.198	-59.92
286.414	8.47
286.63	16.47
286.846	46.89
287.061	19.82
287.277	59.24
287.493	25.97
287.709	18.21
287.924	-1.68
288.14	20.78
288.356	-2.66
288.571	28.26
288.787	18.77
289.003	19.49
289.218	16.12
289.434	-23.75
289.65	-22.81
289.865	-26.51
290.081	-16.28
290.296	-25.79
290.512	-3.87
290.727	-41.76
290.943	-44.6
291.159	-48.44
291.374	-36.54
291.59	-61.04
291.805	-49.71
292.021	-37.73
292.236	-46.26
292.451	-30.36
292.667	-10.21
292.882	2.38
293.098	-9.59
293.313	-29.97
293.529	-70.24
293.744	-98.22
293.959	-78.93
294.175	-70.93
294.39	-21.12
294.605	4.38
294.821	34.19
295.036	33.02
295.251	38.57
295.467	1.02
295.682	-2.61
295.897	-62.76
296.112	-74.08
296.328	-60.97
296.543	-64.59
296.758	-72.44
296.973	-5.49
297.188	21.97
297.404	-23.19
297.619	-29.05
297.834	-44.08
298.049	-87.55
298.264	-116.8
298.479	-35.07
298.694	-21.18
298.909	4.16
299.125	13.34
299.34	32.92
299.555	17.33
299.77	17.21
299.985	-32.12
300.2	-75.76
300.415	-115.78
300.63	-86.65
300.845	-81.21
301.06	-68.35
301.275	-21.93
301.49	3.52
301.704	-14.45
301.919	-31.08
302.134	-49.78
302.349	-53.95
302.564	-132.04
302.779	-143.06
302.994	-135.46
303.209	-65.42
303.423	-44.22
303.638	43.7
303.853	3.84
304.068	1.1
304.283	-7.46
304.497	-14.87
304.712	-28.34
304.927	-17.2
305.142	-23.27
305.356	-5.9
305.571	-17.17
305.786	-32.42
306	-50.82
306.215	-51.5
306.43	-79.71
306.644	-71.4
306.859	-16.91
307.074	13.57
307.288	-22.28
307.503	-20.45
307.717	-34.57
307.932	-46.32
308.147	-56.09
308.361	-24.58
308.576	-53.67
308.79	-93.42
309.005	-81.66
309.219	-61.16
309.434	-61.06
309.648	-31.1
309.863	1.72
310.077	-7.59
310.292	-6.87
310.506	-4.85
310.72	6.15
310.935	15.4
311.149	8.58
311.364	17.15
311.578	25.99
311.792	13.73
312.007	7.75
312.221	6.91
312.435	0.96
312.649	-13.33
312.864	-39.26
313.078	-33
313.292	4.38
313.507	-48.95
313.721	-68.01
313.935	-5.8
314.149	-11.71
314.363	-12.56
314.578	-2.68
314.792	11.1
315.006	-3.61
315.22	5.87
315.434	-4.99
315.648	8.5
315.862	-3.64
316.077	7.05
316.291	-16.15
316.505	-17.95
316.719	-23.1
316.933	-25.53
317.147	-7.64
317.361	-60.28
317.575	-70.45
317.789	-93.39
318.003	-149.84
318.217	-138.59
318.431	-17.92
318.645	15.69
318.859	9.73
319.073	36.78
319.287	12.64
319.5	-27.61
319.714	-72.74
319.928	-110.35
320.142	-154.8
320.356	-86.23
320.57	-45.26
320.784	-44.79
320.997	-46.68
321.211	-22.24
321.425	-92.54
321.639	-106.94
321.853	-25.09
322.066	-7.89
322.28	-16.58
322.494	10.3
322.707	25.09
322.921	-2.98
323.135	0.3
323.349	9.04
323.562	-8.41
323.776	-24.83
323.989	-29.9
324.203	-55.1
324.417	-49.54
324.63	-65.62
324.844	-74.87
325.057	-77.06
325.271	-59.74
325.485	-37.14
325.698	-11.78
325.912	12.1
326.125	-7.98
326.339	3.32
326.552	-18.88
326.766	-20.54
326.979	-12.02
327.193	26.6
327.406	0.5
327.619	2.61
327.833	6.23
328.046	-18.7
328.26	-59.35
328.473	-24.91
328.686	-44.88
328.9	-42.29
329.113	-20.43
329.326	-30.07
329.54	-29.79
329.753	-49.21
329.966	-53.99
330.179	-40
330.393	-23.03
330.606	-15.08
330.819	18.01
331.032	10.41
331.246	4.39
331.459	32
331.672	18.76
331.885	1.9
332.098	-6.09
332.311	-12.19
332.525	-62.31
332.738	-22
332.951	9.57
333.164	33.86
333.377	29.37
333.59	48.75
333.803	31.69
334.016	12.36
334.229	-5.84
334.442	19.8
334.655	22.86
334.868	26.9
335.081	30.42
335.294	23.77
335.507	2.33
335.72	-5.03
335.933	-14.19
336.146	-19.8
336.359	-9.22
336.572	-32.97
336.785	-66.8
336.997	-57.37
337.21	-20.81
337.423	-31.74
337.636	-25.69
337.849	3.16
338.062	-2.85
338.274	-9.3
338.487	-15.22
338.7	-16.93
338.913	-63.15
339.125	-77.66
339.338	-115.5
339.551	-79.19
339.763	-19.42
339.976	11.08
340.189	30.54
340.402	28.84
340.614	15.88
340.827	-17.27
341.039	-35.44
341.252	-40.68
341.465	-22.75
341.677	-37.62
341.89	-56.66
342.102	-30.41
342.315	-43.78
342.527	-84.76
342.74	-74.97
342.952	-29.93
343.165	-20.3
343.377	5.42
343.59	1.55
343.802	31.96
344.015	27.89
344.227	37.78
344.44	29.2
344.652	38.56
344.864	9.64
345.077	25.11
345.289	19.06
345.502	24.55
345.714	14.86
345.926	31.2
346.139	26.38
346.351	33.75
346.563	42.23
346.775	55.91
346.988	40.39
347.2	18.16
347.412	-31.38
347.624	-61.61
347.837	-84.99
348.049	-63.73
348.261	-22.98
348.473	-6.16
348.685	-12.93
348.897	-18.35
349.11	-49.19
349.322	-83.03
349.534	-65.9
349.746	-50.38
349.958	-45.39
350.17	-32.92
350.382	0.33
350.594	-1.23
350.806	3.15
351.018	10.59
351.23	9.67
351.442	-46.42
351.654	-63.52
351.866	-64.22
352.078	-66.74
352.29	-38.97
352.502	-11.88
352.714	7.16
352.926	-4.5
353.138	4.96
353.35	-1.84
353.561	3.03
353.773	-19.62
353.985	-4.62
354.197	-18.8
354.409	-26.46
354.621	-28.56
354.832	-21.08
355.044	-31.99
355.256	-31.89
355.468	-16.7
355.679	-29.61
355.891	-18.4
356.103	-26.96
356.314	-23.32
356.526	-27.57
356.738	-17.9
356.949	-37.49
357.161	-11.03
357.373	-3.24
357.584	-19.12
357.796	-4.71
358.008	0.12
358.219	4.04
358.431	3.49
358.642	27.63
358.854	26.06
359.065	21.04
359.277	-2.57
359.488	-15.6
359.7	-45.66
359.911	-62.39
360.123	-47.16
360.334	-57.89
360.546	-72.54
360.757	-68.29
360.969	-44.75
361.18	-39.75
361.391	-30.09
361.603	-41.87
361.814	-21.31
362.025	-40.35
362.237	-37
362.448	-8.57
362.659	16.52
362.871	3.83
363.082	7.11
363.293	-2.7
363.504	-21.62
363.716	-43.77
363.927	-55.54
364.138	-78.1
364.349	-93.09
364.56	-84.5
364.772	-70.04
364.983	-47.89
365.194	-39.36
365.405	-15.28
365.616	0.46
365.827	-4.83
366.038	-14.89
366.25	-23.28
366.461	-49.64
366.672	-40.82
366.883	-13.19
367.094	-7.53
367.305	-20.57
367.516	-24.67
367.727	-49.83
367.938	-79.64
368.149	-82.08
368.36	-57.32
368.571	-49.64
368.781	-58.99
368.992	-62.28
369.203	-78.02
369.414	-90.44
369.625	-69.41
369.836	-55.91
370.047	-77.82
370.258	-51.53
370.468	-51.23
370.679	-76.23
370.89	-66.57
371.101	-40.96
371.312	-51.8
371.522	-55.25
371.733	-48.94
371.944	-34.43
372.155	-16.69
372.365	-18.91
372.576	-8.16
372.787	-7.03
372.997	-31.4
373.208	-38.87
373.419	-8.47
373.629	-51.25
373.84	-36.73
374.05	-41.56
374.261	-21.31
374.472	-27.07
374.682	30.38
374.893	24.93
375.103	55.29
375.314	38.98
375.524	29.92
375.735	26.16
375.945	33.34
376.156	-0.49
376.366	4.69
376.577	3.99
376.787	-8.84
376.997	-6.68
377.208	6.11
377.418	-8.19
377.629	-3.68
377.839	-6.76
378.049	-10.7
378.26	0.85
378.47	10.12
378.68	-1.5
378.89	-1.16
379.101	-15.85
379.311	-50.27
379.521	-77.99
379.732	-66.77
379.942	-67.98
380.152	-62.41
380.362	-26.08
380.572	-24.69
380.783	-9.63
380.993	-1.45
381.203	7.78
381.413	22.53
381.623	32.05
381.833	19.12
382.043	16.8
382.253	7.5
382.463	-5.27
382.674	-15.98
382.884	-33.82
383.094	-34.67
383.304	-29
383.514	-18.74
383.724	-7.04
383.934	-10.01
384.144	-20.89
384.353	-26.22
384.563	-38.18
384.773	-32
384.983	-37.18
385.193	-14.32
385.403	-9.07
385.613	-10.02
385.823	-23.74
386.033	-12.18
386.242	-21.49
386.452	-23.47
386.662	-24.52
386.872	-6.83
387.082	-9.23
387.291	-18.29
387.501	-18.21
387.711	-3.22
387.921	-10.72
388.13	-9.88
388.34	10.1
388.55	3.31
388.759	-4.16
388.969	0.91
389.179	1.08
389.388	-6.08
389.598	2
389.807	-6.8
390.017	-14.89
390.227	-16.74
390.436	-16.03
390.646	-14.47
390.855	-5.98
391.065	-2.91
391.274	-2.98
391.484	-5.59
391.693	-2.4
391.903	-2.24
392.112	1.33
392.322	7.07
392.531	9.57
392.74	6.93
392.95	1.43
393.159	0.07
393.369	-1.81
393.578	-2.99
393.787	-3.99
393.997	-2.04
394.206	-3.28
394.415	-3.82
394.625	-2.78
394.834	-3.84
395.043	-2.54
395.252	-0.03
395.462	2.22
395.671	3.46
395.88	4.42
396.089	5.91
396.298	4.46
396.508	3.43
396.717	1.65
396.926	2.36
397.135	1.04
397.344	0.69
397.553	2.23
397.762	3.6
397.971	3.55
398.181	3.52
398.39	2.94
398.599	1.84
398.808	1.4
399.017	1.52
399.226	3.27
399.435	4.71
399.644	4.91
399.853	4.14
400.062	3.91
400.27	3.29
400.479	2.91
400.688	2.22
400.897	2.69
401.106	3.01
401.315	2.39
401.524	2.16
401.733	2.82
401.941	2.96
402.15	3.04
402.359	3.08
402.568	3.62
402.777	3.57
402.985	3.66
403.194	3.38
403.403	3.51
403.612	2.94
403.82	2.68
404.029	2.68
404.238	2.58
404.446	2.93
404.655	2.82
404.864	2.82
405.072	2.63
405.281	2.84
405.489	2.39
405.698	2.43
405.906	2.41
406.115	2.53
406.324	2.3
406.532	2.51
406.741	2.82
406.949	2.82
407.158	2.68
407.366	2.72
407.574	2.56
407.783	2.54
407.991	2.33
408.2	2.53
408.408	2.54
408.617	2.47
408.825	2.11
409.033	2.31
409.242	2.33
409.45	2.38
409.658	2.38
409.867	2.63
410.075	2.49
410.283	2.3
410.491	2.24
410.7	2.18
410.908	2.18
411.116	2.57
411.324	2.63
411.533	2.59
411.741	2.95
411.949	2.96
412.157	2.55
412.365	2.57
412.573	2.67
412.781	2.55
412.99	2.42
413.198	2.63
413.406	2.64
413.614	2.62
413.822	2.41
414.03	2.46
414.238	2.29
414.446	2.38
414.654	2.08
414.862	2.32
415.07	2.3
415.278	2.45
415.486	2.14
415.694	2.39
415.902	2.22
416.109	2.07
416.317	1.99
416.525	2.07
416.733	2
416.941	2.15
417.149	2.25
417.357	2.27
417.564	2.39
417.772	2.73
417.98	2.59
418.188	2.54
418.395	2.73
418.603	2.79
418.811	2.27
419.019	2.3
419.226	2.44
419.434	2.5
419.642	2.39
419.849	2.64
420.057	2.59
420.265	2.53
420.472	2.17
420.68	2.12
420.887	2.03
421.095	2.15
421.302	2.08
421.51	2.21
421.717	2.3
421.925	2.41
422.132	2.25
422.34	2.14
422.547	2.3
422.755	2.08
422.962	1.93
423.17	1.95
423.377	2.11
423.585	1.97
423.792	2.08
423.999	2.19
424.207	2.25
424.414	2.26
424.621	2.33
424.829	2.33
425.036	2.31
425.243	2.41
425.451	2.28
425.658	2.08
425.865	2.32
426.072	2.29
426.28	2.46
426.487	2.47
426.694	2.63
426.901	2.39
427.108	2.37
427.315	2.12
427.523	2.35
427.73	2.29
427.937	2.08
428.144	1.95
428.351	1.92
428.558	2.1
428.765	2.01
428.972	2.12
429.179	2.4
429.386	2.63
429.593	2.2
429.8	2.14
430.007	2.27
430.214	2.29
430.421	1.98
430.628	1.84
430.835	1.76
431.042	1.96
431.249	1.91
431.456	2.05
431.662	2.27
431.869	2.52
432.076	2.34
432.283	2.34
432.49	2.27
432.697	2.36
432.903	2.15
433.11	2.11
433.317	2.22
433.524	2.39
433.73	2.26
433.937	2.56
434.144	2.49
434.35	2.45
434.557	2.31
434.764	2.35
434.97	2.09
435.177	2.38
435.384	2.21
435.59	2.33
435.797	2.48
436.003	2.57
436.21	2.38
436.416	2.52
436.623	2.52
436.829	2.52
437.036	2.64
437.242	2.6
437.449	2.51
437.655	2.46
437.862	2.36
438.068	2.3
438.275	2.53
438.481	2.79
438.687	2.72
438.894	2.67
439.1	2.7
439.307	2.77
439.513	2.59
439.719	2.59
439.926	2.76
440.132	2.69
440.338	2.44
440.544	2.54
440.751	2.52
440.957	2.58
441.163	2.55
441.369	2.7
441.575	2.49
441.782	2.49
441.988	2.35
442.194	2.4
442.4	2.34
442.606	2.67
442.812	2.81
443.018	2.88
443.224	2.92
443.431	3.08
443.637	2.88
443.843	2.74
444.049	2.79
444.255	2.68
444.461	2.72
444.667	2.66
444.873	2.83
445.079	2.78
445.284	2.95
445.49	2.59
445.696	2.48
445.902	2.37
446.108	2.24
446.314	2.15
446.52	2.27
446.726	2.51
446.931	2.44
447.137	2.56
447.343	2.49
447.549	2.43
447.755	2.3
447.96	2.38
448.166	2.38
448.372	2.38
448.578	2.47
448.783	2.51
448.989	2.61
449.195	2.76
449.4	2.84
449.606	2.83
449.812	2.72
450.017	2.67
450.223	2.53
450.428	2.44
450.634	2.62
450.84	2.79
451.045	2.72
451.251	2.67
451.456	2.96
451.662	2.95
451.867	2.94
452.073	3.01
452.278	3.13
452.483	3.13
452.689	2.95
452.894	2.97
453.1	2.96
453.305	2.92
453.51	2.77
453.716	2.84
453.921	2.83
454.127	2.79
454.332	2.66
454.537	2.57
454.742	2.47
454.948	2.42
455.153	2.4
455.358	2.51
455.563	2.74
455.769	2.96
455.974	2.92
456.179	2.79
456.384	2.78
456.589	2.65
456.795	2.37
457	2.33
457.205	2.61
457.41	2.54
457.615	2.49
457.82	2.67
458.025	2.74
458.23	2.56
458.435	2.65
458.64	2.6
458.845	2.69
459.05	2.68
459.255	2.74
459.46	2.66
459.665	2.71
459.87	2.59
460.075	2.56
460.28	2.56
460.485	2.6
460.69	2.58
460.895	2.46
461.099	2.45
461.304	2.65
461.509	2.74
461.714	2.66
461.919	2.82
462.123	2.73
462.328	2.69
462.533	2.58
462.738	2.73
462.942	2.65
463.147	2.81
463.352	2.82
463.556	2.82
463.761	2.85
463.966	2.96
464.17	2.94
464.375	2.77
464.58	2.76
464.784	2.65
464.989	2.5
465.193	2.51
465.398	2.51
465.602	2.66
465.807	2.71
466.011	2.86
466.216	2.88
466.42	3
466.625	2.96
466.829	2.96
467.034	2.95
467.238	3.08
467.443	2.98
467.647	2.91
467.851	2.98
468.056	3.02
468.26	2.95
468.464	3.01
468.669	3.17
468.873	3.32
469.077	3.25
469.282	3.31
469.486	3.36
469.69	3.32
469.894	3.19
470.099	3.31
470.303	3.4
470.507	3.32
470.711	3.27
470.915	3.24
471.119	3.12
471.324	2.97
471.528	3.02
471.732	3.04
471.936	3.03
472.14	3.12
472.344	3.12
472.548	3.16
472.752	3.28
472.956	3.57
473.16	3.55
473.364	3.46
473.568	3.49
473.772	3.51
473.976	3.38
474.18	3.39
474.384	3.53
474.588	3.48
474.792	3.28
474.995	3.36
475.199	3.41
475.403	3.44
475.607	3.48
475.811	3.54
476.015	3.57
476.218	3.59
476.422	3.5
476.626	3.49
476.83	3.6
477.033	3.47
477.237	3.34
477.441	3.44
477.644	3.42
477.848	3.43
478.052	3.38
478.255	3.44
478.459	3.44
478.663	3.6
478.866	3.57
479.07	3.66
479.273	3.84
479.477	3.86
479.681	3.76
479.884	3.75
480.088	3.68
480.291	3.59
480.495	3.58
480.698	3.62
480.901	3.71
481.105	3.88
481.308	3.87
481.512	3.85
481.715	3.94
481.919	3.93
482.122	3.87
482.325	3.86
482.529	3.97
482.732	3.94
482.935	3.89
483.138	3.83
483.342	4.02
483.545	4.07
483.748	4.06
483.952	4.11
484.155	4.29
484.358	4.23
484.561	4.14
484.764	4.24
484.967	4.4
485.171	4.47
485.374	4.38
485.577	4.55
485.78	4.56
485.983	4.54
486.186	4.51
486.389	4.59
486.592	4.57
486.795	4.67
486.998	4.65
487.201	4.77
487.404	4.94
487.607	5.05
487.81	5.1
488.013	5.21
488.216	5.22
488.419	5.26
488.622	5.28
488.825	5.22
489.028	5.28
489.231	5.33
489.433	5.35
489.636	5.37
489.839	5.52
490.042	5.48
490.245	5.56
490.447	5.76
490.65	5.9
490.853	5.99
491.056	6.2
491.258	6.34
491.461	6.4
491.664	6.62
491.866	6.7
492.069	7.01
492.272	7.08
492.474	7.25
492.677	7.39
492.879	7.66
493.082	7.76
493.285	8.06
493.487	8.18
493.69	8.24
493.892	8.28
494.095	8.38
494.297	8.5
494.5	8.7
494.702	8.9
494.905	9.16
495.107	9.32
495.309	9.5
495.512	9.74
495.714	9.92
495.917	10.08
496.119	10.27
496.321	10.43
496.524	10.61
496.726	10.78
496.928	11.06
497.13	11.26
497.333	11.45
497.535	11.66
497.737	11.83
497.939	11.93
498.142	12.11
498.344	12.23
498.546	12.21
498.748	12.42
498.95	12.67
499.152	12.79
499.355	12.96
499.557	13.17
499.759	13.39
499.961	13.4
500.163	13.58
500.365	13.71
500.567	13.94
500.769	13.88
500.971	14
501.173	13.98
501.375	14.07
501.577	14.01
501.779	14.11
501.981	14.12
502.183	14.18
502.385	14.15
502.587	14.24
502.788	14.29
502.99	14.36
503.192	14.4
503.394	14.37
503.596	14.32
503.798	14.37
503.999	14.35
504.201	14.31
504.403	14.37
504.605	14.37
504.806	14.2
505.008	14.17
505.21	14.14
505.411	14.11
505.613	14.06
505.815	14.05
506.016	14.01
506.218	14.05
506.42	13.92
506.621	13.83
506.823	13.74
507.024	13.59
507.226	13.38
507.427	13.29
507.629	13.26
507.83	13.27
508.032	13.21
508.233	13.27
508.435	13.31
508.636	13.23
508.838	13.04
509.039	12.89
509.24	12.75
509.442	12.6
509.643	12.48
509.845	12.44
510.046	12.46
510.247	12.29
510.448	12.19
510.65	12.13
510.851	12.22
511.052	12.1
511.254	12.04
511.455	12.05
511.656	12.02
511.857	11.94
512.058	11.87
512.26	11.84
512.461	11.74
512.662	11.66
512.863	11.45
513.064	11.41
513.265	11.39
513.466	11.38
513.667	11.29
513.868	11.26
514.069	11.3
514.27	11.32
514.471	11.2
514.672	11.17
514.873	11.13
515.074	11.09
515.275	10.9
515.476	10.85
515.677	10.84
515.878	10.82
516.079	10.7
516.28	10.67
516.481	10.74
516.682	10.68
516.882	10.57
517.083	10.53
517.284	10.51
517.485	10.39
517.686	10.33
517.886	10.34
518.087	10.36
518.288	10.33
518.488	10.26
518.689	10.28
518.89	10.22
519.091	10.17
519.291	10.15
519.492	10.15
519.692	10.1
519.893	10.16
520.094	10.13
520.294	10.06
520.495	10.02
520.695	10.06
520.896	10.01
521.096	10.05
521.297	10.11
521.497	10.13
521.698	9.98
521.898	9.95
522.099	9.89
522.299	9.92
522.499	9.9
522.7	9.94
522.9	9.88
523.101	9.9
523.301	9.81
523.501	9.78
523.702	9.77
523.902	9.84
524.102	9.87
524.302	9.83
524.503	9.86
524.703	9.84
524.903	9.81
525.103	9.65
525.304	9.73
525.504	9.76
525.704	9.79
525.904	9.78
526.104	9.77
526.304	9.7
526.504	9.67
526.705	9.64
526.905	9.67
527.105	9.72
527.305	9.74
527.505	9.67
527.705	9.66
527.905	9.63
528.105	9.61
528.305	9.56
528.505	9.63
528.705	9.73
528.905	9.66
529.105	9.68
529.304	9.75
529.504	9.8
529.704	9.69
529.904	9.78
530.104	9.76
530.304	9.82
530.503	9.73
530.703	9.71
530.903	9.69
531.103	9.73
531.303	9.66
531.502	9.68
531.702	9.83
531.902	9.88
532.101	9.79
532.301	9.84
532.501	9.88
532.7	9.82
532.9	9.84
533.1	9.95
533.299	9.88
533.499	9.9
533.698	9.88
533.898	9.85
534.097	9.82
534.297	9.92
534.496	9.87
534.696	9.9
534.895	10.03
535.095	10.15
535.294	10.14
535.494	10.14
535.693	10.16
535.892	10.13
536.092	10.08
536.291	10.03
536.491	10.15
536.69	10.17
536.889	10.12
537.088	10.11
537.288	10.18
537.487	10.24
537.686	10.28
537.886	10.34
538.085	10.39
538.284	10.5
538.483	10.42
538.682	10.45
538.882	10.5
539.081	10.52
539.28	10.38
539.479	10.4
539.678	10.35
539.877	10.38
540.076	10.37
540.275	10.42
540.474	10.5
540.673	10.56
540.872	10.52
541.071	10.56
541.27	10.58
541.469	10.55
541.668	10.54
541.867	10.54
542.066	10.59
542.265	10.66
542.464	10.63
542.663	10.63
542.862	10.73
543.06	10.74
543.259	10.73
543.458	10.79
543.657	10.9
543.856	10.93
544.054	10.94
544.253	11.02
544.452	11.04
544.651	11.06
544.849	11.04
545.048	11.11
545.247	11.12
545.445	11.17
545.644	11.21
545.843	11.18
546.041	11.18
546.24	11.21
546.438	11.25
546.637	11.26
546.836	11.41
547.034	11.46
547.233	11.47
547.431	11.49
547.63	11.51
547.828	11.48
548.027	11.52
548.225	11.52
548.423	11.51
548.622	11.61
548.82	11.65
549.019	11.7
549.217	11.83
549.415	11.91
549.614	11.95
549.812	11.95
550.01	11.89
550.209	11.91
550.407	12.02
550.605	11.96
550.803	12.1
551.002	12.23
551.2	12.22
551.398	12.33
551.596	12.52
551.794	12.58
551.993	12.64
552.191	12.7
552.389	12.72
552.587	12.8
552.785	12.83
552.983	12.89
553.181	13.04
553.379	13.08
553.577	13.02
553.775	13.14
553.973	13.21
554.171	13.33
554.369	13.32
554.567	13.4
554.765	13.47
554.963	13.61
555.161	13.52
555.359	13.69
555.557	13.87
555.755	13.92
555.952	13.93
556.15	14.02
556.348	14.14
556.546	14.14
556.744	14.18
556.941	14.2
557.139	14.31
557.337	14.3
557.535	14.32
557.732	14.43
557.93	14.66
558.128	14.79
558.325	14.9
558.523	15.05
558.721	15.17
558.918	15.16
559.116	15.2
559.313	15.22
559.511	15.35
559.708	15.34
559.906	15.36
560.104	15.46
560.301	15.62
560.498	15.6
560.696	15.73
560.893	15.95
561.091	16.04
561.288	16.17
561.486	16.34
561.683	16.41
561.88	16.48
562.078	16.55
562.275	16.57
562.473	16.66
562.67	16.84
562.867	16.95
563.064	17.09
563.262	17.14
563.459	17.26
563.656	17.36
563.853	17.48
564.051	17.61
564.248	17.88
564.445	18
564.642	18.13
564.839	18.27
565.036	18.42
565.234	18.47
565.431	18.53
565.628	18.59
565.825	18.67
566.022	18.78
566.219	18.9
566.416	19.06
566.613	19.21
566.81	19.29
567.007	19.28
567.204	19.3
567.401	19.36
567.598	19.39
567.795	19.45
567.991	19.55
568.188	19.73
568.385	19.86
568.582	19.97
568.779	20.08
568.976	20.19
569.172	20.27
569.369	20.3
569.566	20.38
569.763	20.53
569.96	20.61
570.156	20.63
570.353	20.71
570.55	20.8
570.746	20.84
570.943	20.91
571.14	21.02
571.336	21.19
571.533	21.37
571.729	21.39
571.926	21.58
572.123	21.76
572.319	21.87
572.516	21.82
572.712	21.97
572.909	21.91
573.105	21.97
573.302	21.97
573.498	22.12
573.695	22.13
573.891	22.31
574.087	22.37
574.284	22.37
574.48	22.38
574.677	22.51
574.873	22.55
575.069	22.61
575.266	22.8
575.462	22.81
575.658	22.98
575.854	23.1
576.051	23.14
576.247	23.12
576.443	23.17
576.639	23.1
576.835	23.04
577.032	23
577.228	23.2
577.424	23.33
577.62	23.33
577.816	23.45
578.012	23.54
578.208	23.42
578.404	23.41
578.6	23.56
578.796	23.52
578.993	23.54
579.189	23.56
579.384	23.51
579.58	23.46
579.776	23.52
579.972	23.48
580.168	23.38
580.364	23.42
580.56	23.37
580.756	23.32
580.952	23.32
581.148	23.48
581.343	23.5
581.539	23.59
581.735	23.61
581.931	23.71
582.127	23.73
582.322	23.69
582.518	23.67
582.714	23.69
582.909	23.68
583.105	23.61
583.301	23.64
583.496	23.69
583.692	23.62
583.888	23.46
584.083	23.5
584.279	23.53
584.474	23.49
584.67	23.53
584.866	23.59
585.061	23.46
585.257	23.45
585.452	23.41
585.648	23.32
585.843	23.35
586.039	23.38
586.234	23.38
586.429	23.34
586.625	23.45
586.82	23.38
587.015	23.35
587.211	23.13
587.406	23.11
587.601	23.07
587.797	23.11
587.992	23.09
588.187	23.26
588.383	23.17
588.578	23.09
588.773	23.12
588.968	23.09
589.163	23.17
589.359	23.18
589.554	23.21
589.749	23.14
589.944	23.21
590.139	23.2
590.334	23.26
590.529	23.26
590.724	23.34
590.919	23.36
591.114	23.25
591.309	23.31
591.504	23.35
591.699	23.28
591.894	23.38
592.089	23.46
592.284	23.48
592.479	23.61
592.674	23.63
592.869	23.67
593.064	23.77
593.259	23.85
593.454	23.87
593.648	24
593.843	23.98
594.038	23.96
594.233	23.94
594.428	23.86
594.622	23.96
594.817	24.07
595.012	24.13
595.206	24.24
595.401	24.35
595.596	24.32
595.79	24.48
595.985	24.63
596.18	24.76
596.374	24.94
596.569	24.99
596.763	24.91
596.958	24.99
597.153	24.98
597.347	24.92
597.542	25.16
597.736	25.29
597.931	25.36
598.125	25.42
598.319	25.63
598.514	25.59
598.708	25.71
598.903	25.72
599.097	25.9
599.291	25.96
599.486	25.96
599.68	25.92
599.874	26.04
600.069	25.99
600.263	25.95
600.457	26.09
600.651	26.21
600.846	26.23
601.04	26.25
601.234	26.31
601.428	26.42
601.622	26.42
601.817	26.48
602.011	26.62
602.205	26.68
602.399	26.56
602.593	26.56
602.787	26.56
602.981	26.48
603.175	26.48
603.369	26.49
603.563	26.6
603.757	26.65
603.951	26.69
604.145	26.63
604.339	26.72
604.533	26.55
604.727	26.46
604.921	26.43
605.115	26.48
605.309	26.47
605.502	26.53
605.696	26.51
605.89	26.39
606.084	26.27
606.278	26.27
606.471	26.19
606.665	26.09
606.859	26.12
607.053	26.07
607.246	25.96
607.44	25.97
607.634	25.93
607.827	25.96
608.021	25.86
608.214	25.81
608.408	25.66
608.602	25.66
608.795	25.53
608.989	25.42
609.182	25.34
609.376	25.28
609.569	25.13
609.763	25.06
609.956	25.12
610.15	25
610.343	24.93
610.537	24.85
610.73	24.79
610.923	24.7
611.117	24.7
611.31	24.66
611.504	24.61
611.697	24.45
611.89	24.37
612.083	24.28
612.277	24.22
612.47	24.1
612.663	24.13
612.856	24.03
613.05	23.89
613.243	23.77
613.436	23.7
613.629	23.53
613.822	23.36
614.015	23.29
614.209	23.07
614.402	23.16
614.595	23.21
614.788	23.21
614.981	23.1
615.174	23.04
615.367	22.8
615.56	22.63
615.753	22.59
615.946	22.59
616.139	22.6
616.332	22.72
616.525	22.67
616.718	22.7
616.911	22.63
617.103	22.66
617.296	22.53
617.489	22.5
617.682	22.37
617.875	22.3
618.067	22.17
618.26	22.07
618.453	21.97
618.646	21.93
618.838	21.94
619.031	22.02
619.224	22.01
619.417	21.98
619.609	22.07
619.802	21.97
619.994	21.92
620.187	21.83
620.38	21.82
620.572	21.68
620.765	21.72
620.957	21.62
621.15	21.59
621.342	21.5
621.535	21.52
621.727	21.41
621.92	21.35
622.112	21.34
622.305	21.43
622.497	21.29
622.69	21.3
622.882	21.3
623.074	21.29
623.267	21.18
623.459	21.14
623.651	21.02
623.844	21.03
624.036	21.02
624.228	20.95
624.42	20.96
624.613	21.12
624.805	21.08
624.997	20.99
625.189	21.04
625.381	21.05
625.574	20.88
625.766	20.82
625.958	20.86
626.15	20.86
626.342	20.81
626.534	20.81
626.726	20.83
626.918	20.81
627.11	20.72
627.302	20.7
627.494	20.66
627.686	20.64
627.878	20.55
628.07	20.45
628.262	20.39
628.454	20.41
628.646	20.39
628.838	20.41
629.029	20.42
629.221	20.53
629.413	20.4
629.605	20.29
629.797	20.14
629.989	20.17
630.18	20.01
630.372	19.96
630.564	19.92
630.755	20.04
630.947	20.03
631.139	19.87
631.33	19.84
631.522	19.96
631.714	19.83
631.905	19.86
632.097	19.88
632.289	19.93
632.48	19.87
632.672	19.76
632.863	19.51
633.055	19.53
633.246	19.5
633.438	19.33
633.629	19.37
633.821	19.5
634.012	19.48
634.203	19.35
634.395	19.41
634.586	19.39
634.777	19.22
634.969	19.22
635.16	19.32
635.351	19.26
635.543	19.36
635.734	19.47
635.925	19.42
636.117	19.38
636.308	19.4
636.499	19.28
636.69	19.12
636.881	19.08
637.073	19.09
637.264	19.04
637.455	19.06
637.646	19.22
637.837	19.3
638.028	19.19
638.219	19.27
638.41	19.23
638.601	19.09
638.792	19.01
638.983	19.03
639.174	18.92
639.365	18.93
639.556	19
639.747	18.97
639.938	19.05
640.129	19
640.32	18.92
640.511	18.91
640.701	19.05
640.892	18.96
641.083	18.99
641.274	19.03
641.465	18.97
641.655	18.75
641.846	18.73
642.037	18.66
642.228	18.62
642.418	18.67
642.609	18.72
642.8	18.7
642.99	18.68
643.181	18.65
643.372	18.6
643.562	18.56
643.753	18.5
643.943	18.46
644.134	18.36
644.324	18.29
644.515	18.26
644.705	18.33
644.896	18.36
645.086	18.38
645.277	18.31
645.467	18.28
645.658	18.2
645.848	18.18
646.038	18.1
646.229	18.16
646.419	18.06
646.61	18.06
646.8	18
646.99	18.04
647.18	17.93
647.371	17.97
647.561	17.87
647.751	17.92
647.941	17.78
648.132	17.83
648.322	17.78
648.512	17.91
648.702	17.87
648.892	17.96
649.082	17.92
649.272	17.81
649.462	17.58
649.653	17.5
649.843	17.41
650.033	17.43
650.223	17.47
650.413	17.42
650.603	17.45
650.793	17.42
650.983	17.27
651.172	17.2
651.362	17.18
651.552	17.07
651.742	16.95
651.932	16.96
652.122	16.97
652.312	17.02
652.502	16.91
652.691	16.91
652.881	16.84
653.071	16.71
653.261	16.49
653.45	16.37
653.64	16.32
653.83	16.09
654.019	15.95
654.209	15.96
654.399	15.84
654.588	15.67
654.778	15.59
654.968	15.51
655.157	15.38
655.347	15.37
655.536	15.19
655.726	15.04
655.915	14.87
656.105	14.75
656.294	14.58
656.484	14.41
656.673	14.32
656.863	14.26
657.052	13.99
657.241	13.78
657.431	13.62
657.62	13.43
657.809	13.11
657.999	12.85
658.188	12.63
658.377	12.49
658.567	12.41
658.756	12.27
658.945	12.14
659.134	12.01
659.324	11.8
659.513	11.53
659.702	11.32
659.891	11.21
660.08	11.07
660.269	11.03
660.458	10.84
660.648	10.75
660.837	10.66
661.026	10.53
661.215	10.31
661.404	10.19
661.593	10.08
661.782	9.72
661.971	9.69
662.16	9.58
662.349	9.54
662.538	9.31
662.726	9.4
662.915	9.14
663.104	8.94
663.293	8.91
663.482	8.99
663.671	8.82
663.86	8.61
664.048	8.51
664.237	8.4
664.426	8.19
664.615	8.08
664.803	8.12
664.992	7.98
665.181	7.74
665.369	7.61
665.558	7.56
665.747	7.51
665.935	7.66
666.124	7.75
666.312	7.77
666.501	7.76
666.69	7.59
666.878	7.45
667.067	7.23
667.255	7.23
667.444	7.51
667.632	7.63
667.82	7.76
668.009	7.85
668.197	7.83
668.386	7.53
668.574	7.59
668.762	7.43
668.951	7.34
669.139	7.36
669.327	7.32
669.516	7.33
669.704	7.28
669.892	7.41
670.08	7.36
670.269	7.23
670.457	7.15
670.645	7.02
670.833	7.11
671.021	7.12
671.21	7.27
671.398	7.46
671.586	7.6
671.774	7.4
671.962	7.47
672.15	7.52
672.338	7.32
672.526	7.39
672.714	7.39
672.902	7.42
673.09	7.55
673.278	7.87
673.466	7.92
673.654	8.12
673.842	8.09
674.03	8.12
674.218	7.82
674.405	7.92
674.593	7.93
674.781	8.08
674.969	8.12
675.157	8.4
675.344	8.51
675.532	8.59
675.72	8.67
675.908	8.75
676.095	8.72
676.283	8.72
676.471	8.94
676.658	9
676.846	9.12
677.033	9.3
677.221	9.39
677.409	9.21
677.596	9.29
677.784	9.26
677.971	9.31
678.159	9.5
678.346	9.72
678.534	9.83
678.721	10.14
678.909	10.16
679.096	10.17
679.283	10.38
679.471	10.6
679.658	10.57
679.846	10.82
680.033	11.15
680.22	11.27
680.408	11.18
680.595	11.27
680.782	11.21
680.969	11.18
681.157	11.25
681.344	11.47
681.531	11.58
681.718	11.74
681.905	11.9
682.093	12.09
682.28	12.34
682.467	12.66
682.654	12.84
682.841	13.02
683.028	13.2
683.215	13.28
683.402	13.27
683.589	13.51
683.776	13.76
683.963	13.9
684.15	14.23
684.337	14.53
684.524	14.93
684.711	15.29
684.898	15.48
685.085	15.69
685.271	16.05
685.458	16.12
685.645	16.31
685.832	16.74
686.019	17.09
686.205	17.51
686.392	17.97
686.579	18.3
686.766	18.79
686.952	19.24
687.139	19.87
687.326	20.12
687.512	20.56
687.699	20.87
687.886	21.13
688.072	21.3
688.259	21.96
688.445	22.45
688.632	22.82
688.818	23.7
689.005	24.23
689.191	24.67
689.378	25.43
689.564	26.17
689.751	26.5
689.937	27.09
690.124	27.65
690.31	27.96
690.496	28.63
690.683	29.29
690.869	29.92
691.055	30.6
691.242	31.48
691.428	32.13
691.614	32.98
691.8	33.91
691.987	34.69
692.173	35.35
692.359	36.16
692.545	36.84
692.731	37.31
692.918	38.21
693.104	38.87
693.29	39.51
693.476	40.41
693.662	41.29
693.848	41.73
694.034	42.44
694.22	42.93
694.406	43.4
694.592	44.29
694.778	45.27
694.964	46.02
695.15	47.05
695.336	47.8
695.522	48.57
695.708	49.39
695.894	50.14
696.08	50.91
696.265	51.79
696.451	52.36
696.637	52.9
696.823	53.86
697.009	54.51
697.194	55.05
697.38	55.54
697.566	56.26
697.751	56.71
697.937	57.5
698.123	58.14
698.308	58.88
698.494	59.84
698.68	60.56
698.865	60.94
699.051	61.81
699.236	62.42
699.422	62.67
699.607	63.08
699.793	63.76
699.978	64.03
700.164	64.46
700.349	65.49
700.535	65.95
700.72	66.41
700.906	67.28
701.091	68
701.276	68.31
701.462	69.25
701.647	69.89
701.832	69.98
702.018	70.08
702.203	70.39
702.388	70.29
702.573	70.62
702.759	71.74
702.944	72.32
703.129	72.52
703.314	73.25
703.499	73.52
703.684	73.01
703.87	73.87
704.055	74.71
704.24	74.87
704.425	75.48
704.61	76.17
704.795	76.13
704.98	76.11
705.165	76.42
705.35	76.69
705.535	77.16
705.72	77.54
705.905	77.69
706.09	78.22
706.275	78.3
706.459	78.16
706.644	78.35
706.829	78.8
707.014	78.95
707.199	79.49
707.384	80.14
707.568	80
707.753	80.61
707.938	81.08
708.123	80.95
708.307	80.81
708.492	81.35
708.677	81.02
708.861	80.9
709.046	81.13
709.231	81.7
709.415	82.2
709.6	82.14
709.784	82.17
709.969	82.36
710.153	82.13
710.338	82.31
710.522	82.44
710.707	82.86
710.891	83.04
711.076	83.45
711.26	83.15
711.445	83.7
711.629	84.08
711.813	83.98
711.998	84.44
712.182	84.57
712.366	85.27
712.551	85.67
712.735	85.91
712.919	85.79
713.103	86.29
713.288	85.64
713.472	85.42
713.656	86.26
713.84	86.07
714.024	86.39
714.208	86.74
714.393	86.9
714.577	86.65
714.761	87.25
714.945	87.06
715.129	87.1
715.313	87.28
715.497	87.1
715.681	87.5
715.865	87.51
716.049	87.71
716.233	87.6
716.417	88.39
716.601	88.08
716.785	87.86
716.968	87.3
717.152	87.65
717.336	87.49
717.52	87.4
717.704	87.9
717.888	89.09
718.071	89.2
718.255	89.24
718.439	89.02
718.622	89.11
718.806	89.1
718.99	88.55
719.174	88.25
719.357	88.63
719.541	88.63
719.724	88.3
719.908	89.17
720.092	89.98
720.275	90.25
720.459	90.34
720.642	90.39
720.826	89.84
721.009	89.63
721.193	89.41
721.376	89.83
721.559	90.27
721.743	90.98
721.926	90.77
722.11	90.93
722.293	89.97
722.476	89.47
722.66	89.2
722.843	89.47
723.026	89.11
723.21	90.05
723.393	90.76
723.576	90.46
723.759	89.91
723.942	90.42
724.126	90.24
724.309	89.55
724.492	90.16
724.675	90.65
724.858	91.02
725.041	91.72
725.224	92.33
725.407	91.98
725.59	92.11
725.774	91.82
725.957	90.97
726.14	90.67
726.322	90.98
726.505	90.59
726.688	91.28
726.871	90.97
727.054	91.62
727.237	91.38
727.42	92.29
727.603	91.85
727.786	92.32
727.968	92.36
728.151	92.11
728.334	91.69
728.517	91.73
728.699	92.09
728.882	91.78
729.065	92.69
729.248	93.33
729.43	93.66
729.613	94.48
729.796	95.24
729.978	94.2
730.161	93.76
730.343	93.41
730.526	93.74
730.708	92.93
730.891	94.09
731.073	93.75
731.256	93.47
731.438	92.62
731.621	93.21
731.803	92.71
731.986	93.12
732.168	93.54
732.35	93.48
732.533	93.4
732.715	93.82
732.898	94.07
733.08	93.86
733.262	94.11
733.444	93.77
733.627	93.47
733.809	93.64
733.991	94.16
734.173	93.71
734.355	93.57
734.538	94.16
734.72	94.05
734.902	93.73
735.084	94.19
735.266	94.81
735.448	94.66
735.63	94.81
735.812	94.86
735.994	96.54
736.176	96.67
736.358	96.42
736.54	97.17
736.722	96.98
736.904	95.77
737.086	95.55
737.268	96.59
737.45	96.02
737.632	96.72
737.814	95.27
737.995	95.32
738.177	95.31
738.359	94.96
738.541	94.72
738.723	96.41
738.904	97.09
739.086	96.76
739.268	97.6
739.449	97.63
739.631	96.64
739.813	96.7
739.994	96.93
740.176	96.77
740.358	97.34
740.539	99.02
740.721	98.02
740.902	99.14
741.084	99.03
741.265	98.04
741.447	97.12
741.628	98.21
741.81	95.89
741.991	96.48
742.172	97.59
742.354	98.75
742.535	98.35
742.717	99.99
742.898	99.26
743.079	99.34
743.261	98.06
743.442	97.12
743.623	97.16
743.804	97.15
743.986	97.35
744.167	96.59
744.348	97.37
744.529	95.69
744.71	94.61
744.891	93.73
745.073	93.13
745.254	91.37
745.435	90.89
745.616	91.02
745.797	90.85
745.978	91.22
746.159	93.61
746.34	94.01
746.521	96.7
746.702	95.61
746.883	96.58
747.064	96.26
747.245	96.77
747.426	94.7
747.606	95.92
747.787	95.55
747.968	94.7
748.149	95.87
748.33	95.88
748.51	95.92
748.691	94.96
748.872	95.83
749.053	94.89
749.233	94.02
749.414	93.29
749.595	93.39
749.775	91.83
749.956	91.42
750.137	92.08
750.317	92.96
750.498	94.71
750.678	95.69
750.859	96.74
751.04	97.14
751.22	95.98
751.4	95.14
751.581	93.8
751.761	92.59
751.942	93.64
752.122	95.01
752.303	94.34
752.483	95.37
752.663	95.45
752.844	93.05
753.024	93.52
753.204	94.37
753.385	93.88
753.565	93.78
753.745	94.63
753.925	93.42
754.106	92.36
754.286	92.27
754.466	92.11
754.646	93.41
754.826	93.08
755.006	92.13
755.187	93.35
755.367	94.22
755.547	92.96
755.727	94.25
755.907	95.2
756.087	96.52
756.267	95.02
756.447	95.56
756.627	93.07
756.807	93.84
756.987	90.84
757.167	92.69
757.346	92.55
757.526	92.73
757.706	92.72
757.886	94.49
758.066	94.21
758.246	95.36
758.425	96.02
758.605	95.34
758.785	94.73
758.965	94.65
759.144	91.91
759.324	92.74
759.504	93.03
759.683	92.53
759.863	90.77
760.043	90.38
760.222	88.97
760.402	87.9
760.581	87.04
760.761	88.99
760.94	88.7
761.12	91.46
761.299	91.73
761.479	92.66
761.658	90.09
761.838	91.1
762.017	89.61
762.197	90.5
762.376	90.85
762.555	93.62
762.735	94.75
762.914	93.53
763.093	93.06
763.273	92.07
763.452	90.13
763.631	88.3
763.81	87.41
763.99	88.14
764.169	88.73
764.348	87.56
764.527	87.31
764.706	89.79
764.885	89.19
765.064	87.92
765.243	89.51
765.423	90.85
765.602	88.77
765.781	85.94
765.96	85.34
766.139	83.56
766.318	83.87
766.497	83.96
766.676	86.19
766.854	89.25
767.033	89.47
767.212	87.52
767.391	88.76
767.57	90.46
767.749	89.13
767.928	92.29
768.106	92.69
768.285	91.43
768.464	90.62
768.643	89.14
768.821	87.87
769	89.49
769.179	88.98
769.357	87.5
769.536	87.52
769.715	87.55
769.893	87.47
770.072	87.22
770.25	88.3
770.429	90.69
770.607	89.85
770.786	88.25
770.964	88.87
771.143	86.58
771.321	86.59
771.5	87.96
771.678	87.52
771.857	87.21
772.035	88.52
772.213	87
772.392	83.94
772.57	86.94
772.748	88.11
772.927	87.27
773.105	87.18
773.283	89.56
773.461	89.8
773.64	89.69
773.818	89.42
773.996	90.07
774.174	88.09
774.352	83.91
774.531	81.06
774.709	82.59
774.887	80.12
775.065	80.57
775.243	81.54
775.421	82.98
775.599	84.31
775.777	83.42
775.955	81.13
776.133	79.65
776.311	79.87
776.489	75.21
776.667	77.52
776.844	80.65
777.022	81.06
777.2	81.81
777.378	84.07
777.556	84.25
777.734	84.55
777.911	87.98
778.089	86.69
778.267	85.96
778.445	83.84
778.622	81.4
778.8	79.97
778.978	80.48
779.155	80.91
779.333	81.14
779.511	80.59
779.688	80.67
779.866	76.9
780.043	75.55
780.221	77.82
780.398	77.08
780.576	80.17
780.753	85.45
780.931	84.75
781.108	81.93
781.286	86.09
781.463	81.64
781.64	75.41
781.818	77.84
781.995	80.4
782.172	78.39
782.35	77.56
782.527	82.9
782.704	81.34
782.882	81.2
783.059	78.74
783.236	79.72
783.413	80.38
783.59	79.23
783.768	74.93
783.945	78.96
784.122	79.4
784.299	76.85
784.476	77.56
784.653	77.98
784.83	72.76
785.007	67.6
785.184	68.56
785.361	66.1
785.538	74.31
785.715	79.34
785.892	82.5
786.069	83.14
786.246	86.86
786.423	81.39
786.6	78.43
786.776	79.8
786.953	79.58
787.13	81.14
787.307	79
787.484	78.33
787.66	76.55
787.837	76.57
788.014	73.1
788.191	69.92
788.367	66.62
788.544	70.3
788.721	65.71
788.897	67.7
789.074	71.92
789.25	73.01
789.427	70.65
789.603	73.32
789.78	77.42
789.956	75.69
790.133	76.74
790.309	75.55
790.486	78.38
790.662	68.96
790.839	70.25
791.015	71.3
791.192	70.52
791.368	71.75
791.544	71.84
791.721	71.94
791.897	71.1
792.073	70.99
792.249	60.6
792.426	65.31
792.602	65.91
792.778	65.82
792.954	65.06
793.13	71.82
793.307	67.83
793.483	63.44
793.659	64.3
793.835	68.87
794.011	65.78
794.187	63.66
794.363	62.29
794.539	63.7
794.715	56.24
794.891	58
795.067	60.45
795.243	67.12
795.419	61.96
795.595	67.01
795.771	67.32
795.947	66.49
796.122	61.94
796.298	67.05
796.474	66.2
796.65	66.16
796.826	66.84
797.001	65.94
797.177	61.12
797.353	65.87
797.529	68.39
797.704	67.26
797.88	68.53
798.056	65.28
798.231	58.93
798.407	60.25
798.582	61.34
798.758	70.38
798.934	81.34
799.109	80.97
799.285	75.24
799.46	79.24
799.636	72.18
799.811	64.78
799.986	64.75
800.162	68.63
800.337	68.54
800.513	61.06
800.688	64.57
800.863	75.27
801.039	68.94
801.214	60.28
801.389	67.3
801.565	64.83
801.74	47.39
801.915	56.63
802.09	60.6
802.265	66.67
802.441	64.03
802.616	67.67
802.791	65.5
802.966	66.73
803.141	62.96
803.316	67.25
803.491	74.01
803.666	74.8
803.841	66.26
804.016	62.02
804.191	64.35
804.366	55.76
804.541	51.89
804.716	54.16
804.891	47.68
805.066	52.53
805.241	55.05
805.416	53.26
805.591	57.26
805.765	65.73
805.94	59.17
806.115	56.56
806.29	49.16
806.464	52.8
806.639	45.13
806.814	38.89
806.989	30.4
807.163	48.44
807.338	47.41
807.512	51.56
807.687	42.85
807.862	63.12
808.036	58.34
808.211	59.12
808.385	63.4
808.56	78.84
808.734	72.77
808.909	67.47
809.083	63.6
809.258	70.91
809.432	71.88
809.606	58.32
809.781	62.29
809.955	69.07
810.13	67.57
810.304	61.9
810.478	61.66
810.652	66.98
810.827	63.49
811.001	54.19
811.175	51.73
811.349	57.52
811.524	50.34
811.698	43.43
811.872	49.32
812.046	59.73
812.22	70.25
812.394	66.88
812.568	69.48
812.742	67.33
812.916	59.79
813.09	46.15
813.264	46.61
813.438	49.3
813.612	52.16
813.786	50.9
813.96	64.86
814.134	62.93
814.308	73.37
814.482	71.1
814.656	65.81
814.83	67.05
815.003	75.16
815.177	54.98
815.351	51.45
815.525	56.19
815.698	40.29
815.872	25.99
816.046	11.16
816.219	21.76
816.393	30.46
816.567	40.1
816.74	46.72
816.914	65.56
817.088	60.69
817.261	43.42
817.435	31.14
817.608	40.4
817.782	33.99
817.955	39.52
818.129	43.17
818.302	52.66
818.475	67.37
818.649	70.2
818.822	55.99
818.996	74.75
819.169	72.01
819.342	49.06
819.516	63.63
819.689	71.35
819.862	51.74
820.035	44.68
820.209	44.4
820.382	36.57
820.555	41.38
820.728	33.89
820.901	38.35
821.075	39.02
821.248	47.37
821.421	23.54
821.594	31.97
821.767	56.73
821.94	73.78
822.113	43.02
822.286	52.14
822.459	60.41
822.632	33.24
822.805	6.21
822.978	11.63
823.151	3.75
823.324	-13.28
823.496	-18.92
823.669	-17.43
823.842	-1.93
824.015	-7.74
824.188	-12.74
824.361	-18.92
824.533	-10.2
824.706	-9.08
824.879	-0.7
825.051	24.26
825.224	35.18
825.397	34.13
825.569	24.48
825.742	42.07
825.915	36.5
826.087	48.33
826.26	31.53
826.432	37.65
826.605	31.65
826.777	21.77
826.95	28.98
827.122	26.67
827.295	39.01
827.467	49.94
827.64	17.67
827.812	-28.65
827.984	-31.69
828.157	-71.69
828.329	-138.58
828.501	-80.76
828.674	-16.42
828.846	-11.64
829.018	30.94
829.19	26
829.363	53.5
829.535	48.75
829.707	52.45
829.879	16.41
830.051	18.65
830.223	-12.76
830.395	-37.84
830.568	-38.68
830.74	-43.4
830.912	7.57
831.084	3.98
831.256	6.87
831.428	0.17
831.6	-11.71
831.772	-60.4
831.943	-81.54
832.115	-64.32
832.287	-45.75
832.459	-11.96
832.631	15.7
832.803	50.65
832.975	86.95
833.146	71.17
833.318	69.43
833.49	71.21
833.662	48.44
833.833	-0.2
834.005	16.82
834.177	24.37
834.348	4.44
834.52	-24.76
834.692	-7.68
834.863	-49.74
835.035	-60.28
835.206	-97.82
835.378	-42.84
835.549	-45.82
835.721	-17.83
835.892	-27.07
836.064	-26.57
836.235	-25.73
836.407	-11.11
836.578	-41.89
836.749	-24.13
836.921	-22.1
837.092	-64.54
837.264	-66.44
837.435	-57.64
837.606	-6.42
837.777	16.47
837.949	36.85
838.12	39.54
838.291	45.84
838.462	40.96
838.633	8.84
838.805	4.95
838.976	18.49
839.147	-16.35
839.318	-67.8
839.489	-106.31
839.66	-95.25
839.831	-63
840.002	-47.6
840.173	-75.19
840.344	-1.52
840.515	-26.62
840.686	-173.43
840.857	-165.69
841.028	-112.09
841.199	-91.79
841.369	-96.93
841.54	-85.34
841.711	-29.2
841.882	-5.48
842.053	-8.24
842.223	-14.42
842.394	11.44
842.565	-10.1
842.736	-3.58
842.906	-9.95
843.077	15.42
843.248	13.04
843.418	32.23
843.589	8.76
843.759	83.71
843.93	44.01
844.101	39.56
844.271	26.51
844.442	49.44
844.612	52.97
844.783	25.69
844.953	-7.8
845.123	-16.59
845.294	-4.23
845.464	-211.42
845.635	-54.29
845.805	20.72
845.975	16
846.146	-37.49
846.316	-26.2
846.486	-3.78
846.656	15.18
846.827	10.38
846.997	-3.7
847.167	15.58
847.337	2.26
847.507	-31.31
847.677	-13.96
847.848	40.77
848.018	30.71
848.188	40.35
848.358	18.66
848.528	4.66
848.698	-37.49
848.868	-115.07
849.038	-264.76
849.208	-70.62
849.378	-10.82
849.548	-11.87
849.718	-10.38
849.887	15.21
850.057	-20.03
850.227	-67.9
850.397	-86.98
850.567	-191.6
850.737	-481.41
850.906	-1541.56
851.076	-902.54
851.246	-411.65
851.415	-56.94
851.585	-16.56
851.755	-35.18
851.924	-9.75
852.094	-42.34
852.264	-100.94
852.433	-1246.39
852.603	-233.23
852.772	-235.58
852.942	-129.96
853.111	-105.43
853.281	-45.35
853.45	-22.97
853.62	-90.22
853.789	-97.61
853.959	-92.8
854.128	-98.3
854.297	-130.58
854.467	-138.73
854.636	-159.68
854.805	-79.21
854.975	-98.42
855.144	-157.88
855.313	-195.28
855.482	-282.66
855.652	-195.51
855.821	-118.68
855.99	31.61
856.159	23.84
856.328	16.4
856.497	15.58
856.667	12.89
856.836	15.86
857.005	-14.24
857.174	-39.59
857.343	-102.82
857.512	-85.32
857.681	-153.94
857.85	-188.21
858.019	-104.23
858.188	-59.17
858.356	-68.18
858.525	-141.89
858.694	-107.1
858.863	-180.43
859.032	-188.45
859.201	-334.74
859.369	-290.11
859.538	-243.24
859.707	-208.65
859.876	-225.18
860.044	-152.55
860.213	-13.15
860.382	-14.85
860.55	18.13
860.719	48.41
860.888	40.57
861.056	-3.28
861.225	-27.8
861.393	-17.64
861.562	-29.6
861.73	-162.94
861.899	-454.06
862.067	-3704.31
862.236	-252.43
862.404	-431.48
862.572	-205.85
862.741	-61.25
862.909	-19.54
863.078	-95.08
863.246	-48.13
863.414	-23.5
863.582	7.88
863.751	-44.6
863.919	-46.76
864.087	-17.77
864.255	-34.04
864.424	-392.13
864.592	-54.14
864.76	-111.41
864.928	-365
865.096	-253.26
865.264	-177.16
865.432	-2271.02
865.6	-151.63
865.768	-141.38
865.936	-138.61
866.104	-165.76
866.272	-244.77
866.44	-537.5
866.608	815.35
866.776	382.63
866.944	4019.19
867.112	-700.53
867.28	-294.83
867.448	-148.92
867.615	-68.6
867.783	-43.08
867.951	-48.85
868.119	-17.02
868.286	-36.21
868.454	-184.22
868.622	-137.53
868.789	-162.5
868.957	-2251.79
869.125	-1445.39
869.292	-25.12
869.46	-58.2
869.627	51.99
869.795	-4.76
869.963	-6.11
870.13	-12.25
870.298	-25.78
870.465	-157.51
870.632	-153.26
870.8	-119.16
870.967	-157.23
871.135	-216.65
871.302	-193.16
871.469	-228.37
871.637	-335.32
871.804	-200.42
871.971	-178.51
872.139	-453.6
872.306	-1.52
872.473	-17.31
872.64	-132.73
872.807	12.58
872.975	78.62
873.142	-145.18
873.309	1776.35
873.476	12.83
873.643	43.82
873.81	-4.45
873.977	29.39
874.144	18.39
874.311	-181.47
874.478	-234.45
874.645	-253.33
874.812	-158.12
874.979	-96.29
875.146	-56.63
875.313	-60.12
875.48	-0.03
875.647	-28.27
875.813	-64.92
875.98	-50.61
876.147	-72.94
876.314	-130.59
876.481	1165.5
876.647	-1375.56
876.814	528.63
876.981	-23.17
877.147	-50.13
877.314	-0.94
877.481	21.28
877.647	9.54
877.814	-62.34
877.98	-135.63
878.147	-67.07
878.314	8.6
878.48	-14.28
878.647	23.67
878.813	104.17
878.979	62.89
879.146	-6.32
879.312	-15.75
879.479	-90.74
879.645	-286.65
879.811	-437.3
879.978	-1097.14
880.144	-343.05
880.31	-172.74
880.477	-412.23
880.643	-568.4
880.809	-237.9
880.975	-191.75
881.142	-1192.05
881.308	-157.67
881.474	-73.59
881.64	-38.5
881.806	-100.29
881.972	-28.53
882.138	-34.23
882.304	-29.47
882.47	-245.16
882.636	-939.55
882.802	-301.04
882.968	-75.04
883.134	-51.29
883.3	-35.08
883.466	25.17
883.632	45.18
883.798	-9.69
883.964	-19.6
884.129	-38.05
884.295	-47.88
884.461	-86.61
884.627	-93.06
884.793	-128.1
884.958	-64.07
885.124	-158.81
885.29	-261.32
885.455	-391.87
885.621	-96.79
885.787	-185.15
885.952	-107.95
886.118	-122.98
886.283	-134.83
886.449	-304.62
886.614	-299.51
886.78	-601.25
886.945	1972.54
887.111	-803.03
887.276	-593.32
887.442	-1200.23
887.607	-477
887.773	-319.19
887.938	-281.27
888.103	-322.37
888.269	-200.68
888.434	-405.54
888.599	-204.8
888.764	-59.81
888.93	-13.08
889.095	-32.18
889.26	-70.35
889.425	5.9
889.59	-22.49
889.756	-53.62
889.921	-33.54
890.086	2.87
890.251	-30.87
890.416	-225.92
890.581	-1955.24
890.746	325.8
890.911	540.92
891.076	243.09
891.241	-676.31
891.406	-34.55
891.571	-87.5
891.736	-357.91
891.901	-594.91
892.065	590.38
892.23	140.01
892.395	231.36
892.56	376.37
892.725	-532.23
892.889	-1442.07
893.054	-343.61
893.219	-145.27
893.384	-65.57
893.548	-128.43
893.713	-140.46
893.878	-79.09
