Data from Ofra_PS_T2_1A_1GT37_Reflection_3.txt Node
Date: Wed Jul 21 17:48:17 EDT 2021
User: Adam
Spectrometer: FLMT01687
Trigger mode: 0
Integration Time (sec): 1.100000E0
Scans to average: 2
Electric dark correction enabled: true
Nonlinearity correction enabled: false
Boxcar width: 2
XAxis mode: Wavelengths
Number of Pixels in Spectrum: 3648
>>>>>Begin Spectral Data<<<<<
179.494	558
179.716	660.71
179.937	636.59
180.158	583.12
180.38	921.56
180.601	423.48
180.823	132.35
181.044	-93.13
181.265	173.16
181.486	71.98
181.708	99.42
181.929	364.29
182.15	-437.32
182.372	68.41
182.593	-6.79
182.814	50.34
183.035	76.96
183.257	37.66
183.478	-55.21
183.699	-12.2
183.92	-24.6
184.141	-20.38
184.363	-82.55
184.584	-23.21
184.805	-1.39
185.026	13.57
185.247	17.97
185.468	23.49
185.689	29.16
185.91	20.49
186.132	42.6
186.353	59.64
186.574	121.4
186.795	105.13
187.016	86.29
187.237	30.42
187.458	-15.26
187.679	-30.36
187.9	-45.58
188.121	-48.8
188.342	-85.34
188.563	7.9
188.784	20.65
189.005	36.29
189.226	124.12
189.447	151.2
189.667	54.61
189.888	-225.37
190.109	-1011.04
190.33	-852.58
190.551	-1708.41
190.772	-383.9
190.993	-326.13
191.214	-270.2
191.434	-153.89
191.655	-14.17
191.876	-63.68
192.097	-63.2
192.318	-75.31
192.538	-142.08
192.759	-142.3
192.98	-33.8
193.201	-9.5
193.421	-19.33
193.642	0.6
193.863	17.8
194.083	1.46
194.304	-20.89
194.525	-19.22
194.745	-51.19
194.966	-84.02
195.187	-71.98
195.407	-88.33
195.628	-152.22
195.848	-102.18
196.069	-80.75
196.29	-77.41
196.51	-83.93
196.731	-45.54
196.951	-68.88
197.172	-88.2
197.392	-112.73
197.613	-83.69
197.833	-110.94
198.054	-111.24
198.274	-52.79
198.495	-83.6
198.715	-61.72
198.936	-94.16
199.156	-63.39
199.377	-186.03
199.597	-159.33
199.817	-159.67
200.038	-87.4
200.258	-162.32
200.479	-79.02
200.699	-82.42
200.919	-17.2
201.14	-34.47
201.36	-59.55
201.58	-0.5
201.801	38.93
202.021	0.85
202.241	6.12
202.461	8.19
202.682	-96.04
202.902	-170.15
203.122	-98.38
203.342	-111.37
203.563	-41.15
203.783	-11.4
204.003	-56.1
204.223	-57.41
204.443	46.22
204.663	15.16
204.884	38.12
205.104	74.58
205.324	115.42
205.544	61.62
205.764	58.47
205.984	50.35
206.204	44.4
206.424	23.73
206.644	-5.75
206.864	14.39
207.084	-29.15
207.304	-45.83
207.525	-230.16
207.745	-137.05
207.964	-63.97
208.184	-89.35
208.404	-126.51
208.624	-86.74
208.844	-86.56
209.064	-390.21
209.284	-372.67
209.504	-109.47
209.724	-28.44
209.944	1.56
210.164	28.77
210.384	39.66
210.604	29.01
210.823	-8.23
211.043	-38.13
211.263	-17.87
211.483	-48.13
211.703	-96.62
211.922	-69.16
212.142	-1.05
212.362	3.47
212.582	7.47
212.801	-0.84
213.021	-25.98
213.241	-54.58
213.461	-74.81
213.68	-84.84
213.9	-49.09
214.12	-33.83
214.339	-104
214.559	-107.44
214.779	-37.03
214.998	-25.92
215.218	-71.44
215.438	-31.73
215.657	-37.29
215.877	-48.51
216.096	-29.87
216.316	-12
216.535	-36.21
216.755	-29
216.974	-151.74
217.194	-213.08
217.413	-172.23
217.633	-135.75
217.852	-235.8
218.072	-105.61
218.291	-55.84
218.511	-17.51
218.73	-33.04
218.95	-31.42
219.169	-31.99
219.389	-79.18
219.608	-69.1
219.827	-63.53
220.047	-37.47
220.266	-14.48
220.485	-4.64
220.705	3.61
220.924	-19.65
221.143	4.81
221.363	-27.98
221.582	-15.4
221.801	-2.82
222.021	26.22
222.24	-23.67
222.459	39.5
222.678	-1.55
222.897	-112.74
223.117	-176.06
223.336	-169.7
223.555	-126.14
223.774	-85.69
223.993	-62.98
224.213	-9.65
224.432	-5.01
224.651	44.52
224.87	25.28
225.089	44.44
225.308	42.49
225.527	58.8
225.746	48.46
225.965	35.84
226.184	13.12
226.404	23.79
226.623	6.41
226.842	13.61
227.061	44.06
227.28	42.69
227.499	33.73
227.718	31.65
227.936	22.17
228.155	30.5
228.374	6.45
228.593	28.36
228.812	26.71
229.031	8.67
229.25	-56.14
229.469	-23.88
229.688	-56.66
229.907	-3.08
230.125	19.95
230.344	41.11
230.563	31.71
230.782	51.41
231.001	-24.17
231.22	-37.44
231.438	-4.56
231.657	-0.28
231.876	-19.54
232.095	26.96
232.313	31.68
232.532	4.63
232.751	-29.6
232.969	-40.96
233.188	-130.97
233.407	-36.1
233.625	-21.17
233.844	-32.88
234.063	-23.47
234.281	6.44
234.5	-24.71
234.719	-29.79
234.937	-3.02
235.156	4.87
235.374	10.66
235.593	14.25
235.811	20.86
236.03	5.39
236.249	-32.13
236.467	-40.47
236.686	-14.71
236.904	-2.59
237.123	-29.39
237.341	-20.58
237.559	-22.64
237.778	-37.86
237.996	-89.03
238.215	-20.34
238.433	-10.48
238.652	6.37
238.87	-22.92
239.088	29.64
239.307	18.91
239.525	31.55
239.743	-0.54
239.962	35.3
240.18	-32.26
240.398	-63.68
240.617	-68.23
240.835	-65.22
241.053	-41.61
241.271	43.87
241.49	42.75
241.708	25.65
241.926	22.14
242.144	2.56
242.363	-93.36
242.581	-123.07
242.799	-63.98
243.017	-12.33
243.235	-21.22
243.453	-1.05
243.672	-4.13
243.89	-17.16
244.108	-37.48
244.326	-14.93
244.544	-5.86
244.762	3.37
244.98	19.35
245.198	30.42
245.416	-14.73
245.634	-17.82
245.852	-35.64
246.07	-57.35
246.288	-61.38
246.506	-65.22
246.724	-35.23
246.942	-19.22
247.16	22.42
247.378	17.68
247.596	54.73
247.814	26.78
248.032	-1.23
248.25	-11.16
248.468	1.98
248.685	2.19
248.903	37.4
249.121	48.57
249.339	18.64
249.557	13.46
249.775	2.49
249.992	-64.3
250.21	-63.94
250.428	-39.56
250.646	-84.55
250.863	-95.94
251.081	-47.57
251.299	-37.24
251.517	-42.88
251.734	-25.31
251.952	-35.95
252.17	-41.77
252.387	-26.5
252.605	-33.46
252.823	-13.91
253.04	10.11
253.258	35.7
253.475	23.02
253.693	57.63
253.911	44.88
254.128	48.65
254.346	38.16
254.563	24.88
254.781	-1.98
254.998	-28.02
255.216	-45.98
255.433	-39.01
255.651	0.7
255.868	25.96
256.086	77.59
256.303	71.43
256.521	52.85
256.738	28.89
256.956	-2.74
257.173	-46.25
257.39	-66.1
257.608	-91.94
257.825	-44.92
258.043	-3
258.26	14.96
258.477	59.53
258.695	55.49
258.912	2.42
259.129	5.47
259.346	-40.01
259.564	-90.93
259.781	-110.34
259.998	-24.63
260.216	4.71
260.433	53.63
260.65	51.56
260.867	67.5
261.084	24.11
261.302	-19.81
261.519	-34.29
261.736	-44.57
261.953	-69.31
262.17	-8.77
262.387	-32.43
262.604	-69.96
262.822	-76.96
263.039	-45.01
263.256	-102.15
263.473	-59.69
263.69	-52.1
263.907	-5.02
264.124	-2.93
264.341	-8.1
264.558	-11.8
264.775	19.24
264.992	9.86
265.209	10.56
265.426	40.15
265.643	45.63
265.86	52.54
266.077	43.75
266.294	47.77
266.51	-5.6
266.727	-29.61
266.944	-38.96
267.161	-60.48
267.378	-62.2
267.595	-30.18
267.812	-41.61
268.028	-56.25
268.245	-1.94
268.462	-19.42
268.679	-20.21
268.896	34.99
269.112	35.85
269.329	28.22
269.546	16.03
269.763	12.39
269.979	-6.5
270.196	-15.26
270.413	-53.09
270.629	-60.06
270.846	-62.24
271.063	-72.28
271.279	-80.35
271.496	-65.11
271.712	-15.83
271.929	3.07
272.146	7.32
272.362	11.59
272.579	46.55
272.795	52.75
273.012	44.73
273.228	41.77
273.445	23.43
273.661	-3.64
273.878	-78.94
274.094	-76.29
274.311	-101.72
274.527	-20.34
274.744	-19.69
274.96	-8.26
275.177	10.32
275.393	19.23
275.609	-0.84
275.826	24.85
276.042	13.62
276.259	-4.22
276.475	20.54
276.691	30.03
276.908	1.17
277.124	20.03
277.34	22.04
277.557	4.86
277.773	-7.67
277.989	-5.48
278.205	-11.93
278.422	9.33
278.638	14.18
278.854	44.97
279.07	46.13
279.286	43.65
279.503	10.75
279.719	9.89
279.935	-21.41
280.151	-30.22
280.367	-14.13
280.583	-55.4
280.799	-39.45
281.016	-77.89
281.232	-16.86
281.448	-12.78
281.664	39.63
281.88	4.5
282.096	20.57
282.312	18.41
282.528	34.88
282.744	19.48
282.96	34.02
283.176	28.24
283.392	8.43
283.608	-5.74
283.824	-6.71
284.04	-5.99
284.256	0.43
284.471	-5.23
284.687	-4.75
284.903	16.39
285.119	54.35
285.335	35.08
285.551	51.53
285.767	15.58
285.982	-13.47
286.198	-68.55
286.414	-15.06
286.63	-10.9
286.846	31.87
287.061	13
287.277	45.67
287.493	13.35
287.709	33.58
287.924	4.43
288.14	44.46
288.356	37.15
288.571	51.98
288.787	25.45
289.003	22.41
289.218	-4.66
289.434	-42.58
289.65	-39.9
289.865	-31.49
290.081	4.01
290.296	12.35
290.512	17.56
290.727	-19.99
290.943	-30.5
291.159	-42.7
291.374	-41.75
291.59	-61.85
291.805	-51.09
292.021	-37.32
292.236	-51.83
292.451	-34.47
292.667	-13.68
292.882	7.09
293.098	1.6
293.313	-8.01
293.529	-20.65
293.744	-39.82
293.959	-40.5
294.175	-44.58
294.39	-0.06
294.605	11.45
294.821	38.1
295.036	32.7
295.251	42.32
295.467	1.41
295.682	-22.37
295.897	-97.94
296.112	-99.08
296.328	-102.25
296.543	-110.92
296.758	-98.32
296.973	-24.33
297.188	18.02
297.404	9.26
297.619	11.67
297.834	-9.12
298.049	-50.66
298.264	-81.14
298.479	-19.03
298.694	-21.93
298.909	11.92
299.125	19.77
299.34	21.62
299.555	-23.22
299.77	5.32
299.985	-47.18
300.2	-94.63
300.415	-114.29
300.63	-59.49
300.845	-75.04
301.06	-70.77
301.275	-24.16
301.49	-3.11
301.704	-20.35
301.919	-32.18
302.134	-35.91
302.349	-47.99
302.564	-115.58
302.779	-176.22
302.994	-125.78
303.209	-83.68
303.423	-52.65
303.638	31.82
303.853	10.89
304.068	-8.06
304.283	-5.37
304.497	-14.78
304.712	-24
304.927	-7.94
305.142	-11.08
305.356	2.71
305.571	9.15
305.786	-10.22
306	-22.59
306.215	-22.52
306.43	-61.05
306.644	-57.9
306.859	-19.5
307.074	-22.61
307.288	-49.27
307.503	-49.4
307.717	-49.65
307.932	-41.6
308.147	-37.94
308.361	-1.54
308.576	-10.81
308.79	-46.18
309.005	-43.8
309.219	-21.96
309.434	-49.33
309.648	-46.81
309.863	-21.63
310.077	-29.86
310.292	-35.61
310.506	-25.84
310.72	-12.98
310.935	5.06
311.149	-5.46
311.364	20.82
311.578	43.55
311.792	39.75
312.007	36.05
312.221	25.27
312.435	12.12
312.649	-11.35
312.864	-10.36
313.078	2.37
313.292	68.33
313.507	58.74
313.721	109.29
313.935	69.17
314.149	52.62
314.363	12.94
314.578	11.68
314.792	11.19
315.006	1.8
315.22	10.2
315.434	23.66
315.648	29.2
315.862	17.62
316.077	19.6
316.291	2.76
316.505	7.15
316.719	-44.04
316.933	-58.36
317.147	-47.19
317.361	-91.05
317.575	-105.64
317.789	-99.67
318.003	-143.12
318.217	-133.43
318.431	-32.39
318.645	4.56
318.859	-3.17
319.073	23.94
319.287	11.11
319.5	-23.64
319.714	-59.87
319.928	-73.29
320.142	-102.66
320.356	-32.7
320.57	15.99
320.784	9.17
320.997	0.17
321.211	21.75
321.425	-53.16
321.639	-95.23
321.853	-37.92
322.066	-25.98
322.28	-29.77
322.494	-10.95
322.707	13.88
322.921	-10.74
323.135	1.65
323.349	16.37
323.562	-12.91
323.776	-33.92
323.989	-21.22
324.203	-39.33
324.417	-41.91
324.63	-51.29
324.844	-58.54
325.057	-45.74
325.271	-9.99
325.485	2.51
325.698	27.54
325.912	49.24
326.125	14.9
326.339	9.76
326.552	-20.15
326.766	-31.76
326.979	-26.23
327.193	30.79
327.406	-4.41
327.619	-12.31
327.833	15.46
328.046	-3.32
328.26	-40.64
328.473	-3.11
328.686	-22.11
328.9	-38.5
329.113	-18.51
329.326	-62.46
329.54	-50.95
329.753	-41.03
329.966	-75
330.179	-98.05
330.393	-47.11
330.606	-33.84
330.819	-17.08
331.032	4.78
331.246	24.6
331.459	44.46
331.672	21.54
331.885	13.83
332.098	-9.66
332.311	-23.87
332.525	-77.98
332.738	-77.28
332.951	-49.6
333.164	-15.18
333.377	-5.96
333.59	19.63
333.803	30.28
334.016	26.91
334.229	24.69
334.442	20.89
334.655	29.62
334.868	40.58
335.081	33.96
335.294	7.35
335.507	-9.48
335.72	-15.3
335.933	-35.94
336.146	-53.36
336.359	-38.13
336.572	-57.66
336.785	-96.2
336.997	-82.17
337.21	-45.02
337.423	-46.28
337.636	-32.09
337.849	-4.43
338.062	-4.44
338.274	4.47
338.487	-8.17
338.7	-4.53
338.913	-33.92
339.125	-56.83
339.338	-136.51
339.551	-97.97
339.763	-52.88
339.976	-20.59
340.189	-2.5
340.402	31.42
340.614	18.75
340.827	5.99
341.039	-21.39
341.252	-13.77
341.465	-11.53
341.677	-22.34
341.89	-66.19
342.102	-18.5
342.315	-38.81
342.527	-52.52
342.74	-44.21
342.952	-14.08
343.165	-23.24
343.377	2.56
343.59	-6.45
343.802	21.07
344.015	29.02
344.227	32.14
344.44	20.03
344.652	18.31
344.864	-9.27
345.077	13.18
345.289	17.1
345.502	22.51
345.714	18.08
345.926	33.47
346.139	18.45
346.351	25.12
346.563	22.95
346.775	24.18
346.988	5.74
347.2	-11.62
347.412	-57.97
347.624	-75.2
347.837	-90.5
348.049	-60.26
348.261	-18.35
348.473	-5.5
348.685	-11.86
348.897	-15.8
349.11	-32.3
349.322	-71.14
349.534	-58.65
349.746	-45.44
349.958	-19.46
350.17	-22.05
350.382	-1.47
350.594	-9.62
350.806	-10.81
351.018	-27.28
351.23	-51.75
351.442	-98.74
351.654	-110.45
351.866	-111.58
352.078	-83.76
352.29	-41.26
352.502	-16.9
352.714	-1.73
352.926	-1.7
353.138	-10
353.35	-17.59
353.561	-14.74
353.773	-30.15
353.985	-5.61
354.197	-10.82
354.409	-6.93
354.621	-9.44
354.832	-0.68
355.044	-23.72
355.256	-17.46
355.468	-2.88
355.679	-11.07
355.891	-4.56
356.103	-24.5
356.314	-17.18
356.526	-15.86
356.738	-4.97
356.949	-23.76
357.161	-1.33
357.373	-11.36
357.584	-30.61
357.796	-17.76
358.008	-31.55
358.219	-8.86
358.431	4.11
358.642	7.46
358.854	-1.76
359.065	6.25
359.277	-23.95
359.488	-43.32
359.7	-58.91
359.911	-67.74
360.123	-43.02
360.334	-51.09
360.546	-67.56
360.757	-80.6
360.969	-62.88
361.18	-50.67
361.391	-21.69
361.603	-22.01
361.814	6.52
362.025	8.67
362.237	2.98
362.448	23
362.659	43.77
362.871	37.26
363.082	28.86
363.293	24.52
363.504	-12.4
363.716	-40.86
363.927	-41.43
364.138	-69.1
364.349	-78.45
364.56	-79.33
364.772	-68.43
364.983	-47.82
365.194	-39.29
365.405	-26.1
365.616	-1.95
365.827	-13.42
366.038	-44.55
366.25	-43.36
366.461	-95.27
366.672	-58.65
366.883	-21.04
367.094	-11.86
367.305	-25.46
367.516	-9.78
367.727	-51.25
367.938	-74.22
368.149	-70.36
368.36	-44.32
368.571	-39.17
368.781	-40.74
368.992	-53.38
369.203	-62.11
369.414	-98.57
369.625	-104.09
369.836	-85.43
370.047	-98.85
370.258	-82.91
370.468	-73.18
370.679	-83.25
370.89	-86.3
371.101	-51.25
371.312	-56.25
371.522	-39.6
371.733	-23.23
371.944	-3.68
372.155	-13.67
372.365	-25.56
372.576	-27.54
372.787	-30.99
372.997	-59.77
373.208	-49.95
373.419	-11.06
373.629	-38.13
373.84	-48.66
374.05	-51.47
374.261	-40.82
374.472	-73.44
374.682	-19.97
374.893	-9.35
375.103	28.67
375.314	20.93
375.524	24.92
375.735	17.05
375.945	13.73
376.156	-19.11
376.366	-11.75
376.577	-9.65
376.787	-19.58
376.997	-14.66
377.208	-9.99
377.418	-22.08
377.629	-12
377.839	-6.23
378.049	-1.8
378.26	18.06
378.47	22.06
378.68	15.01
378.89	11.86
379.101	2.67
379.311	-31.43
379.521	-61.28
379.732	-71.25
379.942	-69.02
380.152	-91.28
380.362	-53.7
380.572	-40.85
380.783	-23.67
380.993	-11.56
381.203	0.29
381.413	7.95
381.623	5.84
381.833	-1.09
382.043	-14.15
382.253	-16.64
382.463	-16.95
382.674	-24.56
382.884	-42.26
383.094	-39.15
383.304	-32.48
383.514	-28.96
383.724	-4.41
383.934	-2.01
384.144	-3.29
384.353	-11.06
384.563	-13.46
384.773	-18.26
384.983	-20.97
385.193	-7.65
385.403	1.19
385.613	-1.56
385.823	-18.27
386.033	-9.17
386.242	-14.55
386.452	-17.17
386.662	-25.28
386.872	-8.57
387.082	-14.41
387.291	-29.69
387.501	-36.36
387.711	-23.65
387.921	-33.16
388.13	-29.28
388.34	-8.06
388.55	-7.68
388.759	-12.33
388.969	-5.19
389.179	-7.4
389.388	-13.38
389.598	-7.2
389.807	-12.55
390.017	-17.59
390.227	-13.23
390.436	-13.85
390.646	-12.51
390.855	-6.18
391.065	-4.64
391.274	-10
391.484	-11.08
391.693	-10.54
391.903	-10.73
392.112	-5.33
392.322	-0.7
392.531	3.97
392.74	4.28
392.95	0.34
393.159	-1.76
393.369	-1.66
393.578	-3.13
393.787	-4.28
393.997	-2.52
394.206	-5.03
394.415	-5.43
394.625	-6.26
394.834	-7.77
395.043	-5.53
395.252	-1.93
395.462	0.14
395.671	1.57
395.88	2.24
396.089	3.34
396.298	1.17
396.508	0.45
396.717	-0.91
396.926	-0.4
397.135	-1.28
397.344	-0.94
397.553	0.1
397.762	2.34
397.971	1.93
398.181	1.58
398.39	0.65
398.599	-0.56
398.808	-1.41
399.017	0.29
399.226	1.81
399.435	3.19
399.644	3.74
399.853	3.08
400.062	2.34
400.27	1.8
400.479	1.57
400.688	0.62
400.897	1.13
401.106	0.88
401.315	0.34
401.524	0.2
401.733	1.2
401.941	1.66
402.15	1.97
402.359	2.09
402.568	2.69
402.777	2.62
402.985	1.94
403.194	1.62
403.403	1.71
403.612	1.01
403.82	0.87
404.029	1.18
404.238	1.19
404.446	1.36
404.655	1.44
404.864	1.47
405.072	1.24
405.281	1.44
405.489	1.13
405.698	0.98
405.906	0.86
406.115	0.78
406.324	0.72
406.532	0.89
406.741	1.34
406.949	1.31
407.158	1.36
407.366	1.37
407.574	1.2
407.783	1.02
407.991	0.98
408.2	1.21
408.408	1.14
408.617	1.18
408.825	1.01
409.033	1.13
409.242	1.09
409.45	1.19
409.658	1.02
409.867	1.26
410.075	1.11
410.283	1
410.491	0.95
410.7	0.99
410.908	0.93
411.116	1.27
411.324	1.28
411.533	1.22
411.741	1.52
411.949	1.49
412.157	1.18
412.365	1.19
412.573	1.25
412.781	1.19
412.99	1.15
413.198	1.32
413.406	1.35
413.614	1.32
413.822	1.08
414.03	0.96
414.238	0.81
414.446	0.81
414.654	0.64
414.862	0.87
415.07	1.03
415.278	1.24
415.486	1.14
415.694	1.41
415.902	1.28
416.109	1.1
416.317	1.08
416.525	1.05
416.733	0.96
416.941	1.09
417.149	1.1
417.357	1.03
417.564	1.19
417.772	1.38
417.98	1.18
418.188	1.3
418.395	1.37
418.603	1.54
418.811	1.15
419.019	1.1
419.226	1.28
419.434	1.33
419.642	0.94
419.849	1.22
420.057	1.33
420.265	1.2
420.472	0.82
420.68	1
420.887	0.73
421.095	0.84
421.302	0.95
421.51	1.3
421.717	1.34
421.925	1.52
422.132	1.24
422.34	0.83
422.547	0.81
422.755	0.67
422.962	0.59
423.17	0.63
423.377	0.93
423.585	0.9
423.792	0.93
423.999	1.01
424.207	1.02
424.414	1.14
424.621	1.19
424.829	1.18
425.036	1.15
425.243	1.26
425.451	1.14
425.658	0.78
425.865	1.08
426.072	1.1
426.28	1.44
426.487	1.23
426.694	1.46
426.901	1.11
427.108	1.14
427.315	0.86
427.523	1.31
427.73	1.29
427.937	1.3
428.144	1.12
428.351	1.06
428.558	1.12
428.765	0.91
428.972	0.81
429.179	0.93
429.386	1.27
429.593	0.8
429.8	0.74
430.007	0.9
430.214	1.04
430.421	0.63
430.628	0.61
430.835	0.6
431.042	0.87
431.249	0.9
431.456	1.02
431.662	1.23
431.869	1.47
432.076	1.41
432.283	1.45
432.49	1.46
432.697	1.42
432.903	1.2
433.11	1.07
433.317	1.1
433.524	1.33
433.73	1.34
433.937	1.66
434.144	1.56
434.35	1.48
434.557	1.13
434.764	1.06
434.97	0.95
435.177	1.12
435.384	0.98
435.59	1.15
435.797	1.37
436.003	1.44
436.21	1.35
436.416	1.47
436.623	1.43
436.829	1.47
437.036	1.53
437.242	1.5
437.449	1.41
437.655	1.45
437.862	1.27
438.068	1.13
438.275	1.33
438.481	1.61
438.687	1.56
438.894	1.6
439.1	1.63
439.307	1.73
439.513	1.56
439.719	1.53
439.926	1.67
440.132	1.65
440.338	1.33
440.544	1.47
440.751	1.42
440.957	1.38
441.163	1.36
441.369	1.53
441.575	1.17
441.782	1.22
441.988	1.04
442.194	1.07
442.4	0.95
442.606	1.37
442.812	1.45
443.018	1.62
443.224	1.61
443.431	1.75
443.637	1.48
443.843	1.37
444.049	1.29
444.255	1.29
444.461	1.33
444.667	1.34
444.873	1.51
445.079	1.52
445.284	1.61
445.49	1.37
445.696	1.28
445.902	1.15
446.108	1.12
446.314	0.99
446.52	1.08
446.726	1.32
446.931	1.34
447.137	1.37
447.343	1.48
447.549	1.35
447.755	1.17
447.96	1.21
448.166	1.22
448.372	1.13
448.578	1.27
448.783	1.33
448.989	1.4
449.195	1.64
449.4	1.73
449.606	1.59
449.812	1.58
450.017	1.63
450.223	1.37
450.428	1.21
450.634	1.47
450.84	1.57
451.045	1.4
451.251	1.34
451.456	1.7
451.662	1.7
451.867	1.68
452.073	1.68
452.278	1.82
452.483	1.79
452.689	1.63
452.894	1.7
453.1	1.71
453.305	1.6
453.51	1.52
453.716	1.47
453.921	1.5
454.127	1.48
454.332	1.5
454.537	1.36
454.742	1.41
454.948	1.37
455.153	1.41
455.358	1.48
455.563	1.72
455.769	1.83
455.974	1.78
456.179	1.71
456.384	1.74
456.589	1.58
456.795	1.4
457	1.35
457.205	1.62
457.41	1.44
457.615	1.39
457.82	1.49
458.025	1.54
458.23	1.37
458.435	1.48
458.64	1.46
458.845	1.61
459.05	1.55
459.255	1.52
459.46	1.54
459.665	1.59
459.87	1.56
460.075	1.59
460.28	1.57
460.485	1.63
460.69	1.63
460.895	1.41
461.099	1.33
461.304	1.45
461.509	1.46
461.714	1.4
461.919	1.57
462.123	1.56
462.328	1.69
462.533	1.57
462.738	1.77
462.942	1.66
463.147	1.73
463.352	1.67
463.556	1.64
463.761	1.6
463.966	1.65
464.17	1.63
464.375	1.45
464.58	1.47
464.784	1.35
464.989	1.28
465.193	1.3
465.398	1.39
465.602	1.49
465.807	1.5
466.011	1.57
466.216	1.6
466.42	1.59
466.625	1.67
466.829	1.79
467.034	1.84
467.238	2.07
467.443	2.05
467.647	1.87
467.851	1.84
468.056	1.88
468.26	1.7
468.464	1.71
468.669	1.9
468.873	2.08
469.077	1.98
469.282	2.01
469.486	2.09
469.69	2.08
469.894	1.86
470.099	2.05
470.303	2.11
470.507	2.03
470.711	1.89
470.915	1.92
471.119	1.74
471.324	1.64
471.528	1.67
471.732	1.72
471.936	1.69
472.14	1.8
472.344	1.84
472.548	1.9
472.752	2.06
472.956	2.31
473.16	2.3
473.364	2.21
473.568	2.16
473.772	2.17
473.976	1.96
474.18	1.92
474.384	2
474.588	1.97
474.792	1.81
474.995	1.97
475.199	2.1
475.403	2.16
475.607	2.2
475.811	2.18
476.015	2.14
476.218	2.13
476.422	1.98
476.626	2.04
476.83	2.17
477.033	2.12
477.237	2
477.441	2.15
477.644	2.11
477.848	2.11
478.052	2.06
478.255	2.12
478.459	2.09
478.663	2.21
478.866	2.23
479.07	2.27
479.273	2.45
479.477	2.5
479.681	2.41
479.884	2.38
480.088	2.39
480.291	2.24
480.495	2.18
480.698	2.2
480.901	2.24
481.105	2.37
481.308	2.39
481.512	2.43
481.715	2.46
481.919	2.48
482.122	2.43
482.325	2.42
482.529	2.43
482.732	2.4
482.935	2.28
483.138	2.22
483.342	2.32
483.545	2.38
483.748	2.45
483.952	2.55
484.155	2.7
484.358	2.68
484.561	2.65
484.764	2.61
484.967	2.68
485.171	2.69
485.374	2.63
485.577	2.71
485.78	2.73
485.983	2.7
486.186	2.56
486.389	2.51
486.592	2.45
486.795	2.48
486.998	2.44
487.201	2.51
487.404	2.67
487.607	2.75
487.81	2.78
488.013	2.87
488.216	2.84
488.419	2.79
488.622	2.64
488.825	2.57
489.028	2.48
489.231	2.53
489.433	2.46
489.636	2.48
489.839	2.51
490.042	2.42
490.245	2.35
490.447	2.41
490.65	2.42
490.853	2.39
491.056	2.5
491.258	2.54
491.461	2.58
491.664	2.69
491.866	2.64
492.069	2.78
492.272	2.71
492.474	2.74
492.677	2.75
492.879	2.84
493.082	2.85
493.285	3.04
493.487	2.94
493.69	2.86
493.892	2.78
494.095	2.69
494.297	2.57
494.5	2.66
494.702	2.66
494.905	2.76
495.107	2.76
495.309	2.77
495.512	2.8
495.714	2.9
495.917	2.92
496.119	2.89
496.321	3.01
496.524	3.04
496.726	3.02
496.928	3
497.13	3.05
497.333	2.98
497.535	3.01
497.737	2.98
497.939	3.01
498.142	3.02
498.344	3.04
498.546	2.86
498.748	2.9
498.95	2.98
499.152	3
499.355	3.04
499.557	3.19
499.759	3.29
499.961	3.22
500.163	3.22
500.365	3.23
500.567	3.31
500.769	3.14
500.971	3.21
501.173	3.12
501.375	3.14
501.577	3.05
501.779	3.12
501.981	3.1
502.183	3.19
502.385	3.15
502.587	3.06
502.788	3.11
502.99	3.11
503.192	3.2
503.394	3.16
503.596	3.26
503.798	3.27
503.999	3.32
504.201	3.22
504.403	3.28
504.605	3.32
504.806	3.3
505.008	3.26
505.21	3.33
505.411	3.37
505.613	3.32
505.815	3.3
506.016	3.32
506.218	3.44
506.42	3.41
506.621	3.48
506.823	3.54
507.024	3.49
507.226	3.4
507.427	3.37
507.629	3.36
507.83	3.39
508.032	3.39
508.233	3.45
508.435	3.54
508.636	3.64
508.838	3.6
509.039	3.64
509.24	3.65
509.442	3.68
509.643	3.57
509.845	3.62
510.046	3.69
510.247	3.69
510.448	3.69
510.65	3.76
510.851	3.87
511.052	3.85
511.254	3.78
511.455	3.87
511.656	3.97
511.857	3.96
512.058	3.96
512.26	4.03
512.461	4
512.662	3.99
512.863	3.84
513.064	3.89
513.265	3.91
513.466	3.9
513.667	3.8
513.868	3.94
514.069	3.98
514.27	4.03
514.471	3.99
514.672	4.03
514.873	4.01
515.074	4.03
515.275	3.92
515.476	3.98
515.677	4.03
515.878	4.1
516.079	4.07
516.28	4.14
516.481	4.21
516.682	4.21
516.882	4.11
517.083	4.08
517.284	4
517.485	3.96
517.686	3.9
517.886	3.94
518.087	4.02
518.288	4.09
518.488	4.06
518.689	4.12
518.89	4.08
519.091	4.09
519.291	4.08
519.492	4.12
519.692	4.17
519.893	4.26
520.094	4.27
520.294	4.28
520.495	4.28
520.695	4.28
520.896	4.27
521.096	4.3
521.297	4.35
521.497	4.36
521.698	4.3
521.898	4.27
522.099	4.23
522.299	4.28
522.499	4.31
522.7	4.36
522.9	4.37
523.101	4.46
523.301	4.45
523.501	4.46
523.702	4.5
523.902	4.61
524.102	4.66
524.302	4.63
524.503	4.68
524.703	4.68
524.903	4.66
525.103	4.56
525.304	4.66
525.504	4.76
525.704	4.78
525.904	4.8
526.104	4.77
526.304	4.78
526.504	4.68
526.705	4.71
526.905	4.76
527.105	4.83
527.305	4.75
527.505	4.72
527.705	4.65
527.905	4.69
528.105	4.69
528.305	4.64
528.505	4.74
528.705	4.84
528.905	4.71
529.105	4.73
529.304	4.82
529.504	4.88
529.704	4.8
529.904	4.83
530.104	4.87
530.304	4.97
530.503	4.9
530.703	4.88
530.903	4.91
531.103	4.96
531.303	4.89
531.502	4.95
531.702	5.08
531.902	5.12
532.101	5.06
532.301	5.05
532.501	5.07
532.7	5.02
532.9	5.02
533.1	5.01
533.299	5.06
533.499	5.02
533.698	5.01
533.898	5.01
534.097	5.06
534.297	5.14
534.496	5.15
534.696	5.22
534.895	5.31
535.095	5.39
535.294	5.3
535.494	5.27
535.693	5.28
535.892	5.26
536.092	5.18
536.291	5.17
536.491	5.26
536.69	5.29
536.889	5.26
537.088	5.26
537.288	5.36
537.487	5.41
537.686	5.36
537.886	5.44
538.085	5.53
538.284	5.59
538.483	5.55
538.682	5.65
538.882	5.67
539.081	5.7
539.28	5.6
539.479	5.62
539.678	5.58
539.877	5.6
540.076	5.58
540.275	5.6
540.474	5.69
540.673	5.73
540.872	5.72
541.071	5.77
541.27	5.81
541.469	5.83
541.668	5.89
541.867	5.91
542.066	5.96
542.265	6.06
542.464	6.03
542.663	5.99
542.862	6.14
543.06	6.2
543.259	6.22
543.458	6.34
543.657	6.47
543.856	6.47
544.054	6.42
544.253	6.41
544.452	6.38
544.651	6.42
544.849	6.33
545.048	6.41
545.247	6.43
545.445	6.54
545.644	6.51
545.843	6.54
546.041	6.56
546.24	6.7
546.438	6.76
546.637	6.82
546.836	7.02
547.034	7.15
547.233	7.12
547.431	7.04
547.63	7.08
547.828	7.03
548.027	7.03
548.225	7.09
548.423	7.16
548.622	7.23
548.82	7.2
549.019	7.26
549.217	7.32
549.415	7.39
549.614	7.44
549.812	7.46
550.01	7.39
550.209	7.44
550.407	7.52
550.605	7.54
550.803	7.72
551.002	7.83
551.2	7.84
551.398	7.88
551.596	7.98
551.794	8
551.993	8.09
552.191	8.16
552.389	8.26
552.587	8.34
552.785	8.37
552.983	8.47
553.181	8.61
553.379	8.62
553.577	8.61
553.775	8.76
553.973	8.75
554.171	8.82
554.369	8.8
554.567	8.88
554.765	8.9
554.963	9.03
555.161	8.99
555.359	9.15
555.557	9.29
555.755	9.36
555.952	9.42
556.15	9.58
556.348	9.64
556.546	9.68
556.744	9.73
556.941	9.77
557.139	9.86
557.337	9.9
557.535	9.9
557.732	10.03
557.93	10.21
558.128	10.21
558.325	10.35
558.523	10.47
558.721	10.6
558.918	10.6
559.116	10.7
559.313	10.72
559.511	10.9
559.708	10.87
559.906	10.89
560.104	10.99
560.301	11.14
560.498	11.18
560.696	11.32
560.893	11.44
561.091	11.55
561.288	11.63
561.486	11.72
561.683	11.74
561.88	11.86
562.078	11.91
562.275	11.96
562.473	11.99
562.67	12.09
562.867	12.16
563.064	12.31
563.262	12.41
563.459	12.58
563.656	12.82
563.853	12.9
564.051	12.96
564.248	13.11
564.445	13.14
564.642	13.04
564.839	13.17
565.036	13.35
565.234	13.46
565.431	13.53
565.628	13.69
565.825	13.82
566.022	13.84
566.219	13.82
566.416	13.98
566.613	14.03
566.81	14.05
567.007	14.03
567.204	14.13
567.401	14.08
567.598	14.14
567.795	14.22
567.991	14.3
568.188	14.37
568.385	14.52
568.582	14.58
568.779	14.61
568.976	14.72
569.172	14.88
569.369	14.85
569.566	14.99
569.763	15.06
569.96	15.08
570.156	15.02
570.353	15.05
570.55	15.03
570.746	15.09
570.943	15.08
571.14	15.09
571.336	15.23
571.533	15.29
571.729	15.26
571.926	15.39
572.123	15.5
572.319	15.46
572.516	15.48
572.712	15.58
572.909	15.51
573.105	15.6
573.302	15.64
573.498	15.7
573.695	15.65
573.891	15.78
574.087	15.8
574.284	15.8
574.48	15.73
574.677	15.82
574.873	15.78
575.069	15.83
575.266	15.9
575.462	16.01
575.658	16.08
575.854	16.21
576.051	16.14
576.247	16.13
576.443	16.08
576.639	16.03
576.835	15.88
577.032	15.83
577.228	15.96
577.424	16.05
577.62	16.09
577.816	16.21
578.012	16.27
578.208	16.11
578.404	16.06
578.6	16.09
578.796	16.04
578.993	16.07
579.189	16.06
579.384	15.98
579.58	15.81
579.776	15.76
579.972	15.7
580.168	15.76
580.364	15.82
580.56	15.88
580.756	15.9
580.952	15.84
581.148	15.85
581.343	15.83
581.539	15.94
581.735	16
581.931	16.08
582.127	16.09
582.322	16.12
582.518	16.03
582.714	15.97
582.909	15.92
583.105	15.9
583.301	15.91
583.496	15.94
583.692	15.89
583.888	15.86
584.083	15.89
584.279	15.86
584.474	15.77
584.67	15.79
584.866	15.91
585.061	15.67
585.257	15.68
585.452	15.68
585.648	15.67
585.843	15.59
586.039	15.77
586.234	15.75
586.429	15.75
586.625	15.82
586.82	15.8
587.015	15.76
587.211	15.66
587.406	15.62
587.601	15.45
587.797	15.44
587.992	15.4
588.187	15.49
588.383	15.44
588.578	15.52
588.773	15.61
588.968	15.74
589.163	15.77
589.359	15.84
589.554	15.87
589.749	15.87
589.944	15.79
590.139	15.8
590.334	15.81
590.529	15.81
590.724	15.82
590.919	15.92
591.114	15.89
591.309	16.04
591.504	16.07
591.699	16.03
591.894	16.09
592.089	16.13
592.284	16.09
592.479	16.28
592.674	16.33
592.869	16.37
593.064	16.48
593.259	16.57
593.454	16.61
593.648	16.58
593.843	16.55
594.038	16.59
594.233	16.64
594.428	16.52
594.622	16.62
594.817	16.72
595.012	16.69
595.206	16.66
595.401	16.77
595.596	16.81
595.79	16.86
595.985	16.99
596.18	17.09
596.374	17.2
596.569	17.33
596.763	17.33
596.958	17.32
597.153	17.39
597.347	17.31
597.542	17.37
597.736	17.38
597.931	17.51
598.125	17.51
598.319	17.68
598.514	17.6
598.708	17.74
598.903	17.71
599.097	17.74
599.291	17.77
599.486	17.86
599.68	17.81
599.874	17.96
600.069	18.04
600.263	18.03
600.457	18.07
600.651	18.2
600.846	18.21
601.04	18.21
601.234	18.26
601.428	18.38
601.622	18.4
601.817	18.38
602.011	18.42
602.205	18.46
602.399	18.4
602.593	18.4
602.787	18.4
602.981	18.41
603.175	18.48
603.369	18.5
603.563	18.54
603.757	18.58
603.951	18.66
604.145	18.63
604.339	18.7
604.533	18.57
604.727	18.52
604.921	18.44
605.115	18.46
605.309	18.41
605.502	18.54
605.696	18.53
605.89	18.46
606.084	18.36
606.278	18.27
606.471	18.16
606.665	18.09
606.859	18.06
607.053	18.08
607.246	18.13
607.44	18.14
607.634	18.1
607.827	18.1
608.021	17.96
608.214	17.89
608.408	17.78
608.602	17.68
608.795	17.61
608.989	17.58
609.182	17.48
609.376	17.4
609.569	17.43
609.763	17.33
609.956	17.29
610.15	17.19
610.343	17.17
610.537	17.03
610.73	17.03
610.923	17.03
611.117	17.01
611.31	16.97
611.504	16.97
611.697	16.86
611.89	16.73
612.083	16.68
612.277	16.67
612.47	16.53
612.663	16.44
612.856	16.4
613.05	16.28
613.243	16.14
613.436	16.09
613.629	16.06
613.822	15.96
614.015	15.9
614.209	15.75
614.402	15.8
614.595	15.75
614.788	15.71
614.981	15.63
615.174	15.59
615.367	15.49
615.56	15.47
615.753	15.42
615.946	15.37
616.139	15.44
616.332	15.45
616.525	15.32
616.718	15.36
616.911	15.34
617.103	15.29
617.296	15.21
617.489	15.21
617.682	15.04
617.875	14.98
618.067	14.92
618.26	14.81
618.453	14.89
618.646	14.85
618.838	14.84
619.031	14.89
619.224	14.9
619.417	14.79
619.609	14.8
619.802	14.72
619.994	14.61
620.187	14.59
620.38	14.59
620.572	14.48
620.765	14.58
620.957	14.5
621.15	14.4
621.342	14.31
621.535	14.4
621.727	14.23
621.92	14.23
622.112	14.24
622.305	14.25
622.497	14.17
622.69	14.21
622.882	14.26
623.074	14.31
623.267	14.2
623.459	14.13
623.651	14.07
623.844	13.98
624.036	13.87
624.228	13.87
624.42	13.86
624.613	13.94
624.805	13.92
624.997	13.97
625.189	13.98
625.381	14.06
625.574	14.01
625.766	13.93
625.958	13.9
626.15	13.91
626.342	13.85
626.534	13.79
626.726	13.81
626.918	13.8
627.11	13.72
627.302	13.73
627.494	13.71
627.686	13.74
627.878	13.66
628.07	13.65
628.262	13.54
628.454	13.53
628.646	13.52
628.838	13.6
629.029	13.54
629.221	13.67
629.413	13.56
629.605	13.48
629.797	13.38
629.989	13.39
630.18	13.23
630.372	13.23
630.564	13.21
630.755	13.21
630.947	13.2
631.139	13.03
631.33	12.96
631.522	13.06
631.714	13.07
631.905	13.03
632.097	13.15
632.289	13.15
632.48	12.92
632.672	12.8
632.863	12.65
633.055	12.62
633.246	12.6
633.438	12.55
633.629	12.55
633.821	12.64
634.012	12.65
634.203	12.56
634.395	12.7
634.586	12.71
634.777	12.63
634.969	12.55
635.16	12.7
635.351	12.6
635.543	12.56
635.734	12.6
635.925	12.61
636.117	12.58
636.308	12.52
636.499	12.51
636.69	12.42
636.881	12.37
637.073	12.38
637.264	12.34
637.455	12.34
637.646	12.43
637.837	12.45
638.028	12.33
638.219	12.36
638.41	12.27
638.601	12.12
638.792	12.14
638.983	12.12
639.174	12.14
639.365	12.2
639.556	12.22
639.747	12.14
639.938	12.19
640.129	12.05
640.32	11.96
640.511	12.04
640.701	12.15
640.892	12.04
641.083	12.17
641.274	12.2
641.465	12.16
641.655	11.96
641.846	12
642.037	11.91
642.228	11.78
642.418	11.79
642.609	11.84
642.8	11.86
642.99	11.82
643.181	11.85
643.372	11.78
643.562	11.75
643.753	11.65
643.943	11.6
644.134	11.52
644.324	11.47
644.515	11.48
644.705	11.55
644.896	11.63
645.086	11.73
645.277	11.69
645.467	11.7
645.658	11.59
645.848	11.57
646.038	11.53
646.229	11.53
646.419	11.39
646.61	11.31
646.8	11.25
646.99	11.19
647.18	11.13
647.371	11.12
647.561	11.04
647.751	11
647.941	10.92
648.132	10.96
648.322	11
648.512	11.07
648.702	11.11
648.892	11.13
649.082	11.12
649.272	11.02
649.462	11.04
649.653	10.88
649.843	10.88
650.033	10.89
650.223	10.86
650.413	10.73
650.603	10.76
650.793	10.77
650.983	10.65
651.172	10.66
651.362	10.63
651.552	10.65
651.742	10.52
651.932	10.57
652.122	10.55
652.312	10.65
652.502	10.65
652.691	10.61
652.881	10.56
653.071	10.43
653.261	10.22
653.45	10.13
653.64	10.23
653.83	10.09
654.019	10.04
654.209	10.11
654.399	10.08
654.588	9.85
654.778	9.82
654.968	9.78
655.157	9.67
655.347	9.5
655.536	9.48
655.726	9.41
655.915	9.27
656.105	9.18
656.294	9.15
656.484	8.99
656.673	8.88
656.863	8.88
657.052	8.67
657.241	8.51
657.431	8.37
657.62	8.27
657.809	7.96
657.999	7.91
658.188	7.86
658.377	7.64
658.567	7.55
658.756	7.51
658.945	7.38
659.134	7.12
659.324	7.12
659.513	6.96
659.702	6.81
659.891	6.69
660.08	6.6
660.269	6.57
660.458	6.42
660.648	6.42
660.837	6.3
661.026	6.31
661.215	6.19
661.404	6.01
661.593	5.97
661.782	5.8
661.971	5.66
662.16	5.51
662.349	5.53
662.538	5.33
662.726	5.39
662.915	5.3
663.104	5.18
663.293	5.17
663.482	5.2
663.671	5.01
663.86	4.87
664.048	4.84
664.237	4.83
664.426	4.58
664.615	4.59
664.803	4.57
664.992	4.43
665.181	4.19
665.369	4.21
665.558	4.1
665.747	4.06
665.935	4.14
666.124	4.28
666.312	4.31
666.501	4.34
666.69	4.27
666.878	4.23
667.067	4.06
667.255	4.12
667.444	4.37
667.632	4.43
667.82	4.53
668.009	4.53
668.197	4.47
668.386	4.27
668.574	4.38
668.762	4.21
668.951	4.22
669.139	4.25
669.327	4.04
669.516	4.04
669.704	4.03
669.892	4.16
670.08	4.04
670.269	4.06
670.457	3.92
670.645	3.82
670.833	3.83
671.021	3.93
671.21	4.09
671.398	4.28
671.586	4.39
671.774	4.29
671.962	4.22
672.15	4.25
672.338	4.13
672.526	4.24
672.714	4.29
672.902	4.33
673.09	4.49
673.278	4.77
673.466	4.82
673.654	5
673.842	5.04
674.03	4.98
674.218	4.79
674.405	4.72
674.593	4.5
674.781	4.7
674.969	4.69
675.157	4.93
675.344	5.14
675.532	5.27
675.72	5.3
675.908	5.38
676.095	5.17
676.283	5.18
676.471	5.43
676.658	5.42
676.846	5.46
677.033	5.7
677.221	5.7
677.409	5.49
677.596	5.54
677.784	5.52
677.971	5.49
678.159	5.58
678.346	5.78
678.534	5.77
678.721	5.93
678.909	5.91
679.096	5.94
679.283	6.06
679.471	6.27
679.658	6.38
679.846	6.72
680.033	6.96
680.22	6.99
680.408	6.91
680.595	6.93
680.782	6.78
680.969	6.79
681.157	6.74
681.344	6.81
681.531	6.93
681.718	6.91
681.905	6.98
682.093	7.2
682.28	7.47
682.467	7.61
682.654	7.85
682.841	7.93
683.028	8.18
683.215	8.2
683.402	8.17
683.589	8.32
683.776	8.39
683.963	8.35
684.15	8.57
684.337	8.77
684.524	8.92
684.711	9.13
684.898	9.13
685.085	9.23
685.271	9.53
685.458	9.76
685.645	9.98
685.832	10.35
686.019	10.72
686.205	10.89
686.392	11.07
686.579	11.26
686.766	11.6
686.952	11.75
687.139	12.17
687.326	12.41
687.512	12.69
687.699	12.96
687.886	13.18
688.072	13.33
688.259	13.66
688.445	13.99
688.632	14.11
688.818	14.62
689.005	14.93
689.191	15.32
689.378	15.93
689.564	16.63
689.751	16.94
689.937	17.31
690.124	17.67
690.31	17.77
690.496	18.07
690.683	18.59
690.869	19.1
691.055	19.63
691.242	20.41
691.428	20.93
691.614	21.39
691.8	22.07
691.987	22.69
692.173	23.17
692.359	23.76
692.545	24.45
692.731	24.74
692.918	25.46
693.104	25.89
693.29	26.43
693.476	26.89
693.662	27.65
693.848	28.07
694.034	28.65
694.22	29.05
694.406	29.56
694.592	30.07
694.778	30.57
694.964	30.97
695.15	31.54
695.336	32.13
695.522	32.97
695.708	33.55
695.894	34.32
696.08	35.2
696.265	35.72
696.451	35.96
696.637	36.55
696.823	37.02
697.009	37.34
697.194	37.94
697.38	38.63
697.566	39.11
697.751	39.85
697.937	40.54
698.123	40.95
698.308	41.65
698.494	42.2
698.68	42.63
698.865	42.95
699.051	43.54
699.236	43.64
699.422	44.19
699.607	44.57
699.793	45.2
699.978	45.69
700.164	46.15
700.349	46.77
700.535	47.08
700.72	47.52
700.906	47.94
701.091	48.58
701.276	48.74
701.462	49.91
701.647	50.52
701.832	51.13
702.018	51.39
702.203	51.79
702.388	51.58
702.573	51.73
702.759	52.22
702.944	52.46
703.129	52.73
703.314	53.23
703.499	53.63
703.684	53.78
703.87	54.95
704.055	55.73
704.24	56
704.425	56.49
704.61	56.89
704.795	56.76
704.98	56.95
705.165	57.09
705.35	57.27
705.535	57.52
705.72	57.76
705.905	58.01
706.09	58.89
706.275	59.15
706.459	59.18
706.644	59.18
706.829	59.66
707.014	59.38
707.199	59.76
707.384	60.46
707.568	61.14
707.753	61.68
707.938	62.02
708.123	62
708.307	62.18
708.492	62.31
708.677	62.01
708.861	62.21
709.046	62.47
709.231	63.07
709.415	63.35
709.6	63.35
709.784	63.45
709.969	63.79
710.153	63.6
710.338	63.64
710.522	63.98
710.707	64.56
710.891	64.56
711.076	64.38
711.26	64.55
711.445	65.04
711.629	65.2
711.813	65.59
711.998	66.28
712.182	66.37
712.366	66.73
712.551	67.16
712.735	67.17
712.919	66.67
713.103	67.16
713.288	66.53
713.472	66.17
713.656	66.83
713.84	67.02
714.024	66.85
714.208	67.18
714.393	67.56
714.577	67.68
714.761	68.18
714.945	68.24
715.129	68.4
715.313	68.62
715.497	68.31
715.681	69.2
715.865	69.24
716.049	69.41
716.233	69.04
716.417	69.36
716.601	68.92
716.785	68.94
716.968	69.1
717.152	69.34
717.336	69.21
717.52	68.82
717.704	68.98
717.888	69.27
718.071	69.55
718.255	70.35
718.439	70.28
718.622	70.73
718.806	70.79
718.99	70.5
719.174	70.21
719.357	71.09
719.541	71.08
719.724	71.22
719.908	72.29
720.092	72.85
720.275	72.96
720.459	73.25
720.642	73.02
720.826	72.17
721.009	71.36
721.193	70.6
721.376	70.73
721.559	70.82
721.743	71.25
721.926	71.86
722.11	72.49
722.293	71.71
722.476	72.21
722.66	72.36
722.843	72.26
723.026	71.73
723.21	72.68
723.393	72.98
723.576	73.33
723.759	72.67
723.942	73.09
724.126	72.81
724.309	72.71
724.492	72.25
724.675	72.52
724.858	72.72
725.041	73.23
725.224	73.05
725.407	73.29
725.59	73.83
725.774	73.9
725.957	73.05
726.14	73.12
726.322	73.43
726.505	73
726.688	73.51
726.871	73.83
727.054	73.66
727.237	73.19
727.42	74.03
727.603	73.54
727.786	73.78
727.968	73.92
728.151	74.15
728.334	73.3
728.517	73.48
728.699	73.82
728.882	73.6
729.065	73.71
729.248	75.32
729.43	76.08
729.613	76.8
729.796	77.62
729.978	77.45
730.161	76.68
730.343	76.05
730.526	76.63
730.708	75.68
730.891	76.38
731.073	75.78
731.256	75.68
731.438	74.86
731.621	76.23
731.803	76.08
731.986	76.51
732.168	76.56
732.35	76.76
732.533	76.01
732.715	76.01
732.898	76.88
733.08	76.97
733.262	77.31
733.444	77.14
733.627	77.37
733.809	77.72
733.991	78.43
734.173	77.75
734.355	78.81
734.538	78.96
734.72	77.53
734.902	77.67
735.084	77.4
735.266	77.17
735.448	77.45
735.63	78.14
735.812	77.21
735.994	78.69
736.176	78.26
736.358	77.61
736.54	78.39
736.722	78.58
736.904	77.6
737.086	77.76
737.268	78.77
737.45	78.59
737.632	78.76
737.814	78.06
737.995	78.08
738.177	77.35
738.359	76.79
738.541	76.9
738.723	77.63
738.904	78.64
739.086	78.89
739.268	78.54
739.449	78.98
739.631	79.18
739.813	78.7
739.994	78.44
740.176	78.77
740.358	78.2
740.539	79.46
740.721	79.6
740.902	81.24
741.084	81.39
741.265	81.64
741.447	81.05
741.628	81.88
741.81	80.07
741.991	81.06
742.172	82.03
742.354	81.97
742.535	81.21
742.717	82.24
742.898	81.6
743.079	81.55
743.261	81.54
743.442	80.31
743.623	80.85
743.804	81.49
743.986	81.31
744.167	80.29
744.348	80.56
744.529	79.85
744.71	78.75
744.891	78
745.073	77.78
745.254	78.5
745.435	78.28
745.616	78.26
745.797	78.47
745.978	78.13
746.159	78.8
746.34	77.76
746.521	79.37
746.702	78.61
746.883	79.83
747.064	78.82
747.245	79.77
747.426	78.47
747.606	79.69
747.787	79.83
747.968	79.12
748.149	79.73
748.33	80.1
748.51	79.43
748.691	78.14
748.872	80.32
749.053	79.61
749.233	77.83
749.414	77.76
749.595	77.4
749.775	75.68
749.956	74.99
750.137	76.17
750.317	77.73
750.498	79.73
750.678	79.74
750.859	80.02
751.04	80.74
751.22	78.5
751.4	76.71
751.581	75.95
751.761	77.1
751.942	77.06
752.122	77.96
752.303	78.64
752.483	79.42
752.663	78.23
752.844	76.8
753.024	77.05
753.204	77.69
753.385	76.12
753.565	76.8
753.745	77.7
753.925	76.37
754.106	74.96
754.286	75.47
754.466	74.04
754.646	74.49
754.826	74.81
755.006	74.01
755.187	75.56
755.367	77.18
755.547	76.46
755.727	77.66
755.907	78.73
756.087	79.32
756.267	78.48
756.447	78.78
756.627	77.36
756.807	78.03
756.987	76.62
757.167	77.75
757.346	77.54
757.526	77.52
757.706	78.57
757.886	79.34
758.066	79.22
758.246	81.15
758.425	80.72
758.605	78.79
758.785	78.83
758.965	76.88
759.144	72.8
759.324	73.61
759.504	74.86
759.683	74.04
759.863	73.19
760.043	74.07
760.222	73.89
760.402	72.78
760.581	72.63
760.761	75.43
760.94	75.38
761.12	77.45
761.299	77.67
761.479	77.72
761.658	76.63
761.838	76.83
762.017	75.73
762.197	76.15
762.376	77.29
762.555	78.09
762.735	79.14
762.914	78.08
763.093	78.39
763.273	76.44
763.452	76.26
763.631	74.38
763.81	74.38
763.99	73.81
764.169	74.41
764.348	72.64
764.527	73.43
764.706	75.4
764.885	76.83
765.064	76.47
765.243	78.04
765.423	78.95
765.602	77.57
765.781	75.13
765.96	74.2
766.139	72.54
766.318	73.12
766.497	71.12
766.676	72.64
766.854	75.62
767.033	75.03
767.212	73.36
767.391	74.02
767.57	73.82
767.749	72.82
767.928	75.38
768.106	74.88
768.285	74.34
768.464	73.74
768.643	72.03
768.821	70.41
769	72.85
769.179	72.35
769.357	70.61
769.536	70.04
769.715	71.83
769.893	72.23
770.072	73.17
770.25	73.24
770.429	73.92
770.607	71.15
770.786	70.25
770.964	70.03
771.143	70.85
771.321	75.45
771.5	77.29
771.678	75.4
771.857	75.65
772.035	75.35
772.213	72.64
772.392	70.86
772.57	73.2
772.748	73.53
772.927	72.39
773.105	70.29
773.283	70.95
773.461	70.94
773.64	70.93
773.818	71.44
773.996	73.14
774.174	73.07
774.352	70.32
774.531	67.8
774.709	70.12
774.887	69.2
775.065	69.09
775.243	69.7
775.421	71.96
775.599	71.28
775.777	68.51
775.955	65.49
776.133	63.15
776.311	63.38
776.489	60.61
776.667	63.12
776.844	67.35
777.022	66.79
777.2	66.64
777.378	67.51
777.556	67.94
777.734	69.87
777.911	75.92
778.089	75.11
778.267	76.22
778.445	72.4
778.622	68.92
778.8	65.97
778.978	68.69
779.155	67.49
779.333	70.57
779.511	70.71
779.688	71.67
779.866	64.48
780.043	61.42
780.221	60.14
780.398	58.69
780.576	60.78
780.753	65.14
780.931	68.1
781.108	66.8
781.286	69.22
781.463	64.83
781.64	60.05
781.818	60.18
781.995	62.48
782.172	60.78
782.35	61.97
782.527	70.1
782.704	68.12
782.882	68.81
783.059	69.91
783.236	70.51
783.413	68.28
783.59	70.37
783.768	64.95
783.945	66.24
784.122	66.88
784.299	65.89
784.476	63.51
784.653	65.91
784.83	61.71
785.007	58.33
785.184	58.63
785.361	58.3
785.538	64.16
785.715	69.43
785.892	70.78
786.069	72.23
786.246	75.31
786.423	72.36
786.6	71.42
786.776	73.83
786.953	72.31
787.13	74.77
787.307	73.61
787.484	70.98
787.66	67.27
787.837	66.78
788.014	62.51
788.191	60.68
788.367	56.96
788.544	61.01
788.721	62.53
788.897	67.28
789.074	69.95
789.25	70.24
789.427	68.91
789.603	65.88
789.78	65.41
789.956	61.07
790.133	61.03
790.309	60.61
790.486	64.98
790.662	60.3
790.839	62.83
791.015	63.21
791.192	62.07
791.368	61.45
791.544	58.98
791.721	59.29
791.897	61.71
792.073	60.68
792.249	52.66
792.426	59.03
792.602	63.66
792.778	62.29
792.954	62.12
793.13	66.38
793.307	58.84
793.483	49.18
793.659	48.5
793.835	54.79
794.011	49.73
794.187	52.93
794.363	53.44
794.539	58.87
794.715	48.78
794.891	51.91
795.067	50.61
795.243	58.6
795.419	52.46
795.595	52.32
795.771	52.98
795.947	56.37
796.122	51.29
796.298	58.71
796.474	64.49
796.65	67.77
796.826	65.94
797.001	68.26
797.177	60.49
797.353	64.03
797.529	63.65
797.704	60.23
797.88	54.52
798.056	51.67
798.231	46.78
798.407	52.75
798.582	57.58
798.758	64.1
798.934	72.03
799.109	71.66
799.285	57.59
799.46	59.21
799.636	57.39
799.811	55.83
799.986	57.29
800.162	67.6
800.337	64.31
800.513	60.99
800.688	62.18
800.863	70.66
801.039	58.54
801.214	59.38
801.389	65.39
801.565	59.46
801.74	46.11
801.915	59.43
802.09	57.3
802.265	58.84
802.441	59.5
802.616	59.63
802.791	56.28
802.966	60.6
803.141	56.12
803.316	54.03
803.491	60.06
803.666	64.72
803.841	58.07
804.016	53.41
804.191	55.52
804.366	44.61
804.541	36.94
804.716	40.05
804.891	40.97
805.066	48.58
805.241	49.98
805.416	50.4
805.591	48.7
805.765	52.73
805.94	53.24
806.115	58.63
806.29	54.95
806.464	54.63
806.639	44.26
806.814	36.57
806.989	28.08
807.163	37.37
807.338	36.51
807.512	43.82
807.687	31.76
807.862	45.34
808.036	47.57
808.211	55.63
808.385	62.69
808.56	80.84
808.734	76.78
808.909	68.52
809.083	63.37
809.258	68.56
809.432	56.23
809.606	42.72
809.781	42.35
809.955	43.47
810.13	39.08
810.304	40.62
810.478	39.03
810.652	44.7
810.827	52.05
811.001	44.26
811.175	43.87
811.349	50.63
811.524	42.87
811.698	21.87
811.872	22.72
812.046	29.99
812.22	40.29
812.394	37.15
812.568	48.14
812.742	54.23
812.916	50.01
813.09	37.86
813.264	38.55
813.438	49.62
813.612	45.1
813.786	33.98
813.96	44.47
814.134	53.6
814.308	59.06
814.482	62.79
814.656	67.94
814.83	67.02
815.003	70.73
815.177	56.4
815.351	46.13
815.525	49.12
815.698	42.9
815.872	31.46
816.046	21.04
816.219	30.36
816.393	44.46
816.567	54.6
816.74	56.4
816.914	69.69
817.088	69.43
817.261	54.74
817.435	34.78
817.608	36.44
817.782	21.6
817.955	25.69
818.129	24.59
818.302	33.94
818.475	49.03
818.649	54.11
818.822	44.37
818.996	64.73
819.169	71.03
819.342	47.94
819.516	55.28
819.689	68.88
819.862	53.13
820.035	36.25
820.209	40.94
820.382	37.78
820.555	39.14
820.728	28.86
820.901	35.72
821.075	38.47
821.248	46.67
821.421	24.18
821.594	28.33
821.767	53.41
821.94	72.88
822.113	43.32
822.286	47.83
822.459	63.36
822.632	54.56
822.805	25.37
822.978	31.64
823.151	23.72
823.324	7.23
823.496	-16.35
823.669	-20.02
823.842	-13.8
824.015	-22.96
824.188	-46.05
824.361	-37.37
824.533	-24.86
824.706	-10.84
824.879	-0.48
825.051	22.87
825.224	19.23
825.397	-0.76
825.569	-25.16
825.742	8.47
825.915	22.38
826.087	34.01
826.26	30.19
826.432	31.9
826.605	19.07
826.777	3.65
826.95	-0.31
827.122	-9.38
827.295	11.57
827.467	12.42
827.64	-24.39
827.812	-26.34
827.984	-5.28
828.157	-30.7
828.329	-78.77
828.501	-39.19
828.674	6.46
828.846	-8.82
829.018	26.36
829.19	27.68
829.363	51.42
829.535	35.01
829.707	33.96
829.879	-0.94
830.051	-7
830.223	-21.59
830.395	-41.61
830.568	-39.59
830.74	-43.28
830.912	16.74
831.084	-5.23
831.256	-9.99
831.428	-15.76
831.6	-19.79
831.772	-77.13
831.943	-83.62
832.115	-56.19
832.287	-42.28
832.459	-27.3
832.631	-8.95
832.803	25.09
832.975	48.4
833.146	43.23
833.318	50.26
833.49	65.35
833.662	23.1
833.833	-8.02
834.005	9.52
834.177	5.87
834.348	-10.18
834.52	-2.34
834.692	-25.4
834.863	-90.75
835.035	-68.41
835.206	-126.38
835.378	-87.16
835.549	-80.4
835.721	-36.45
835.892	-46.77
836.064	-42.31
836.235	-46.91
836.407	5.96
836.578	-26.92
836.749	-41.35
836.921	-47.31
837.092	-69.44
837.264	-67.88
837.435	-69.39
837.606	12.02
837.777	51.32
837.949	55.68
838.12	43.73
838.291	48.56
838.462	10.78
838.633	-28.23
838.805	-20.67
838.976	-21.31
839.147	-92.52
839.318	-95.66
839.489	-139.03
839.66	-146.5
839.831	-82.52
840.002	-79.94
840.173	-110.64
840.344	-30.63
840.515	-71.29
840.686	-261.93
840.857	-137.55
841.028	-61.7
841.199	-64.03
841.369	-62.21
841.54	-53.67
841.711	-17.67
841.882	13.77
842.053	13.66
842.223	2.71
842.394	23.02
842.565	20.28
842.736	13.67
842.906	0.81
843.077	14.84
843.248	24.96
843.418	21.27
843.589	-30.38
843.759	32.57
843.93	42.22
844.101	13.24
844.271	19.12
844.442	38.24
844.612	46.34
844.783	10.1
844.953	-18.54
845.123	-49.87
845.294	-83.62
845.464	-307.61
845.635	-145.19
845.805	-39.19
845.975	8.01
846.146	-48.7
846.316	-40.05
846.486	-10.08
846.656	24.16
846.827	13.04
846.997	31.9
847.167	65.21
847.337	37.87
847.507	-6.11
847.677	-7.95
847.848	39.55
848.018	21.63
848.188	27.73
848.358	11.13
848.528	-4.76
848.698	-55.09
848.868	-159.1
849.038	-300.95
849.208	-115.43
849.378	-60.27
849.548	-34.9
849.718	-13.22
849.887	16.21
850.057	-34
850.227	-69.34
850.397	-108.95
850.567	-243.71
850.737	-587.61
850.906	-1554.38
851.076	-1088.67
851.246	-586.65
851.415	-53.84
851.585	-26.43
851.755	-27.87
851.924	18.45
852.094	18.78
852.264	-93.25
852.433	-959.13
852.603	-162.25
852.772	-134.64
852.942	-71.95
853.111	-47.62
853.281	-1.93
853.45	25.3
853.62	-44.9
853.789	-57.13
853.959	-51.81
854.128	-63.37
854.297	-110.33
854.467	-136.56
854.636	-135.69
854.805	-21.73
854.975	-58.01
855.144	-89.18
855.313	114.34
855.482	-226.64
855.652	-305.81
855.821	-248.98
855.99	-70.91
856.159	-21.31
856.328	1.66
856.497	5.85
856.667	21.2
856.836	48.63
857.005	13.78
857.174	-22.53
857.343	-81.48
857.512	-38.27
857.681	-99.46
857.85	-161.4
858.019	-79.51
858.188	-51.33
858.356	-72.85
858.525	-110.91
858.694	-84.59
858.863	-146.87
859.032	-115.48
859.201	-188.82
859.369	-164.92
859.538	-167.55
859.707	-145.62
859.876	-172.02
860.044	-135.53
860.213	-8.79
860.382	-18.14
860.55	-22.69
860.719	23.07
860.888	14.5
861.056	-25.9
861.225	-38.08
861.393	-16.14
861.562	-43.01
861.73	-71.19
861.899	-296.07
862.067	-1401.72
862.236	-57.23
862.404	-303.89
862.572	-220.5
862.741	-97.06
862.909	-119.46
863.078	-282.28
863.246	-142.12
863.414	-133.31
863.582	-79.75
863.751	-83.6
863.919	-61.45
864.087	-28.58
864.255	-43.87
864.424	-438.05
864.592	-53.87
864.76	-107.1
864.928	-325.2
865.096	-232.64
865.264	-158.89
865.432	-2096.59
865.6	-86.25
865.768	-155.14
865.936	-119.37
866.104	-122.61
866.272	-167.34
866.44	-410.43
866.608	626.9
866.776	360.08
866.944	2926.74
867.112	-580.3
867.28	-256.96
867.448	-92.18
867.615	0.73
867.783	0.14
867.951	-18.48
868.119	13.55
868.286	-13.21
868.454	-258.79
868.622	-255.97
868.789	-303.95
868.957	-4532.14
869.125	-3303.95
869.292	-200.86
869.46	-307.97
869.627	-54.84
869.795	-56.37
869.963	-12.86
870.13	13.12
870.298	37.16
870.465	-54.22
870.632	-88.46
870.8	-60.9
870.967	-122.64
871.135	-218.44
871.302	-190.79
871.469	-194.8
871.637	-270.64
871.804	-125.8
871.971	-127.77
872.139	-436.05
872.306	-32.32
872.473	-71.27
872.64	-336.7
872.807	-211.85
872.975	-28.13
873.142	-414
873.309	3247.3
873.476	-11.47
873.643	133.7
873.81	32.75
873.977	76.65
874.144	85.55
874.311	-117.53
874.478	-209.24
874.645	-198.53
874.812	-123.84
874.979	-75.76
875.146	-93.21
875.313	-85.63
875.48	8.88
875.647	-28.58
875.813	-87.45
875.98	-39.87
876.147	-86.23
876.314	-191.13
876.481	1399.59
876.647	-1660.11
876.814	675.39
876.981	-124.04
877.147	-99.91
877.314	-40.26
877.481	-2.2
877.647	1.73
877.814	-62.15
877.98	-96.61
878.147	-45.46
878.314	-1.55
878.48	-57.2
878.647	-14.1
878.813	51.78
878.979	57.18
879.146	20.53
879.312	23.74
879.479	-50.08
879.645	-131.81
879.811	-331.7
879.978	-921.76
880.144	-271.77
880.31	-100.39
880.477	-380.7
880.643	-447.36
880.809	-219.13
880.975	-182.72
881.142	-1100.45
881.308	-137.4
881.474	-43.31
881.64	-17.77
881.806	-109.63
881.972	-46.61
882.138	-59.23
882.304	-85.16
882.47	-244.69
882.636	-854.51
882.802	-276.59
882.968	-86.88
883.134	-70.22
883.3	-69.27
883.466	-1.24
883.632	39.47
883.798	9.55
883.964	20.37
884.129	8.47
884.295	10.06
884.461	-57.78
884.627	-91.02
884.793	-122.53
884.958	-42.98
885.124	-132.03
885.29	-223.46
885.455	-229.37
885.621	-27.69
885.787	-125.32
885.952	-65.4
886.118	-60.92
886.283	-43.45
886.449	-114.66
886.614	-90.8
886.78	-88.27
886.945	81.15
887.111	-540.17
887.276	-380.97
887.442	-778.64
887.607	-304.95
887.773	-278.5
887.938	-192.3
888.103	-278.17
888.269	-142.32
888.434	-330
888.599	-94.19
888.764	-12.01
888.93	18.61
889.095	-9.45
889.26	-28.23
889.425	-14.84
889.59	58.85
889.756	-10.98
889.921	-10.97
890.086	38.85
890.251	34.07
890.416	-123.23
890.581	-1120.16
890.746	84.11
890.911	335.35
891.076	184.68
891.241	-444.4
891.406	21.99
891.571	-115.52
891.736	-377.75
891.901	-824.34
892.065	970.88
892.23	189.38
892.395	248.63
892.56	350.72
892.725	-493.36
892.889	-1576.83
893.054	-365.77
893.219	-179.42
893.384	-126.8
893.548	-157.27
893.713	-182.29
893.878	-124.07
