Data from Ofra_2a_PS_8CX24_Reflection_1.txt Node
Date: Tue Jul 20 09:54:48 EDT 2021
User: Adam
Spectrometer: FLMT01687
Trigger mode: 0
Integration Time (sec): 9.450000E-1
Scans to average: 3
Electric dark correction enabled: true
Nonlinearity correction enabled: false
Boxcar width: 3
XAxis mode: Wavelengths
Number of Pixels in Spectrum: 3648
>>>>>Begin Spectral Data<<<<<
179.494	1140.83
179.716	718.4
179.937	823.63
180.158	3398.05
180.38	-1872.97
180.601	-443.77
180.823	-104.32
181.044	-114.64
181.265	-239.59
181.486	12.68
181.708	-129.35
181.929	157.79
182.15	402.84
182.372	29.15
182.593	-54.54
182.814	386.38
183.035	270.35
183.257	105.84
183.478	93.48
183.699	98.32
183.92	52.2
184.141	53.62
184.363	44.57
184.584	24.83
184.805	40.19
185.026	-6.45
185.247	-8.43
185.468	5.02
185.689	7.93
185.91	13.98
186.132	18.47
186.353	9.09
186.574	12.65
186.795	-2.73
187.016	-3.28
187.237	-3.16
187.458	-5.03
187.679	-32.42
187.9	-28.94
188.121	-12.49
188.342	23.7
188.563	35.17
188.784	22.4
189.005	31.42
189.226	48.76
189.447	49.4
189.667	46.47
189.888	45.93
190.109	41.97
190.33	50.03
190.551	43.63
190.772	30.14
190.993	29.7
191.214	33.35
191.434	24.52
191.655	24.17
191.876	25.04
192.097	18.49
192.318	20.05
192.538	11.27
192.759	10.7
192.98	16.5
193.201	20.11
193.421	14.52
193.642	15.2
193.863	6.11
194.083	21.99
194.304	9.19
194.525	10.55
194.745	1.36
194.966	8.95
195.187	10.77
195.407	12.07
195.628	9.33
195.848	-0.82
196.069	1.11
196.29	-6.26
196.51	-11.39
196.731	-3.38
196.951	15.67
197.172	-8.08
197.392	13.16
197.613	8.06
197.833	8
198.054	12.42
198.274	5.87
198.495	5.83
198.715	3.94
198.936	-2.67
199.156	8.3
199.377	15.82
199.597	9.82
199.817	6.63
200.038	9.93
200.258	21.24
200.479	29.52
200.699	17.26
200.919	-4.21
201.14	1.69
201.36	9.53
201.58	4.99
201.801	7.35
202.021	3.2
202.241	6
202.461	32.11
202.682	35.7
202.902	28.37
203.122	24.7
203.342	35.4
203.563	38.89
203.783	39.38
204.003	28.7
204.223	26.28
204.443	23.96
204.663	30.25
204.884	12.44
205.104	17.26
205.324	27.44
205.544	34.34
205.764	29.11
205.984	38.26
206.204	34.72
206.424	38.59
206.644	29.94
206.864	21.42
207.084	37.18
207.304	34.72
207.525	29.42
207.745	29.84
207.964	43.74
208.184	36.89
208.404	24.17
208.624	-7.01
208.844	-29.15
209.064	-19.18
209.284	-27.77
209.504	-42.42
209.724	-71.39
209.944	-62.76
210.164	-38.65
210.384	-10.99
210.604	-16.23
210.823	-6.85
211.043	-9.76
211.263	17.84
211.483	12.06
211.703	10.39
211.922	14.86
212.142	16.42
212.362	21.61
212.582	25.53
212.801	13.92
213.021	25.48
213.241	24.81
213.461	10.25
213.68	13.46
213.9	8.97
214.12	5.72
214.339	4.12
214.559	1.38
214.779	9.02
214.998	21.6
215.218	25.61
215.438	29.19
215.657	34.26
215.877	33.32
216.096	35.64
216.316	32.01
216.535	17.42
216.755	-6.02
216.974	-11.11
217.194	-25.9
217.413	-6.01
217.633	-15.96
217.852	-33.98
218.072	-31.6
218.291	9.08
218.511	13.4
218.73	13.77
218.95	9.87
219.169	19.63
219.389	16.47
219.608	34.98
219.827	16.44
220.047	19.36
220.266	30.67
220.485	29.96
220.705	15.64
220.924	21.7
221.143	-4.28
221.363	1.02
221.582	2.74
221.801	1.64
222.021	6.73
222.24	14.4
222.459	26.4
222.678	37.17
222.897	28.22
223.117	30.29
223.336	22.96
223.555	12.81
223.774	15
223.993	24.1
224.213	19.51
224.432	30.13
224.651	15.95
224.87	27.87
225.089	40.31
225.308	43.41
225.527	28.82
225.746	46.19
225.965	31.53
226.184	30.89
226.404	14.42
226.623	11.8
226.842	6.03
227.061	6.29
227.28	-1.24
227.499	21.3
227.718	22.04
227.936	20.83
228.155	17.21
228.374	15.94
228.593	14.35
228.812	8.47
229.031	-4.63
229.25	5.91
229.469	12.47
229.688	22.5
229.907	16.52
230.125	20.05
230.344	27.87
230.563	34.3
230.782	21.41
231.001	20.44
231.22	22.04
231.438	23.74
231.657	30.24
231.876	23.94
232.095	15.21
232.313	27.29
232.532	30.8
232.751	35.7
232.969	40.42
233.188	32.81
233.407	43.03
233.625	36.47
233.844	35.04
234.063	29.61
234.281	10.82
234.5	6.86
234.719	0.41
234.937	2.04
235.156	6.88
235.374	6.09
235.593	7.15
235.811	4.35
236.03	3.01
236.249	15.33
236.467	10.52
236.686	33.04
236.904	23.58
237.123	32.58
237.341	29.5
237.559	37.15
237.778	33.91
237.996	30.63
238.215	17.47
238.433	20.19
238.652	10.61
238.87	13.32
239.088	1.76
239.307	5.12
239.525	-4.99
239.743	-13.95
239.962	-26.96
240.18	-19.11
240.398	-18.11
240.617	-3.21
240.835	-5
241.053	11.22
241.271	14.54
241.49	16.09
241.708	9
241.926	1.21
242.144	2.88
242.363	0.21
242.581	-2.64
242.799	0.52
243.017	9.77
243.235	2.36
243.453	7.91
243.672	4.95
243.89	6.66
244.108	27.65
244.326	29.61
244.544	29.01
244.762	38.28
244.98	25.12
245.198	15.25
245.416	16.33
245.634	7.48
245.852	11.53
246.07	10.5
246.288	-1.9
246.506	18.32
246.724	34.13
246.942	43.49
247.16	25.07
247.378	10.49
247.596	22.99
247.814	17.2
248.032	7.2
248.25	-6.27
248.468	-4.14
248.685	7.85
248.903	16.15
249.121	-0.1
249.339	19.61
249.557	29.74
249.775	18.7
249.992	8.45
250.21	1.05
250.428	6.93
250.646	11.96
250.863	4.15
251.081	2
251.299	23.29
251.517	28.5
251.734	32.54
251.952	30.29
252.17	12.73
252.387	15.47
252.605	23.28
252.823	9.62
253.04	0.14
253.258	6.06
253.475	6.25
253.693	33.44
253.911	31.76
254.128	30.3
254.346	30.71
254.563	36.87
254.781	35.9
254.998	38.95
255.216	33.27
255.433	37.6
255.651	30.26
255.868	39.09
256.086	40.95
256.303	36.95
256.521	32.82
256.738	19.4
256.956	2.26
257.173	4.91
257.39	4.73
257.608	7.64
257.825	7.23
258.043	10.36
258.26	16.51
258.477	26.37
258.695	25.8
258.912	27.91
259.129	15.23
259.346	19.45
259.564	15.94
259.781	20.34
259.998	20.83
260.216	30.31
260.433	28.87
260.65	36.89
260.867	23.54
261.084	35.64
261.302	34.04
261.519	24.77
261.736	14.14
261.953	13.84
262.17	16.48
262.387	19.5
262.604	1.83
262.822	1.36
263.039	4.88
263.256	6.95
263.473	3
263.69	-3.19
263.907	1.13
264.124	4.24
264.341	-0.93
264.558	5.41
264.775	11.24
264.992	13.24
265.209	25.26
265.426	22.52
265.643	18.42
265.86	23.94
266.077	25.26
266.294	27.46
266.51	28.65
266.727	25.81
266.944	27.63
267.161	28.65
267.378	18.98
267.595	10.85
267.812	-9.64
268.028	-8.42
268.245	-10.6
268.462	-1.27
268.679	6.4
268.896	6.01
269.112	16.01
269.329	28.7
269.546	21.8
269.763	22.73
269.979	16.54
270.196	17.15
270.413	19.56
270.629	14.69
270.846	14.48
271.063	17.26
271.279	9.59
271.496	0.01
271.712	-1.09
271.929	2.56
272.146	10.78
272.362	-3.68
272.579	8.28
272.795	8.34
273.012	18.43
273.228	16.92
273.445	18.9
273.661	4.63
273.878	13.81
274.094	10.44
274.311	17.78
274.527	16.45
274.744	12.63
274.96	3.26
275.177	9.9
275.393	19.73
275.609	16.68
275.826	16.79
276.042	29.1
276.259	22.85
276.475	25.36
276.691	27.36
276.908	13.07
277.124	12.26
277.34	8.38
277.557	-3.59
277.773	1.22
277.989	-1.02
278.205	-21.82
278.422	-15.93
278.638	-10.58
278.854	-2.18
279.07	-14.77
279.286	-10.59
279.503	-5.43
279.719	19.45
279.935	8.62
280.151	13.94
280.367	6.64
280.583	19.11
280.799	24.89
281.016	22.8
281.232	18.99
281.448	24.76
281.664	19.37
281.88	26.09
282.096	28.92
282.312	5.9
282.528	3.61
282.744	-0.2
282.96	8.29
283.176	7.08
283.392	9.36
283.608	9.73
283.824	17.36
284.04	21.5
284.256	14.56
284.471	9.82
284.687	11.95
284.903	3.64
285.119	-14.39
285.335	-5.78
285.551	-10.33
285.767	0.56
285.982	7.27
286.198	12.6
286.414	29.59
286.63	47.64
286.846	45.42
287.061	49.3
287.277	52
287.493	48.48
287.709	37.04
287.924	36.22
288.14	40.03
288.356	55.23
288.571	47.76
288.787	42.9
289.003	48.1
289.218	47.2
289.434	41.94
289.65	33.52
289.865	35.11
290.081	36.16
290.296	31.49
290.512	29.28
290.727	40.23
290.943	31.62
291.159	24.87
291.374	7.84
291.59	8.98
291.805	12.66
292.021	-2.54
292.236	-1.51
292.451	10.03
292.667	10.13
292.882	7.79
293.098	4.34
293.313	3.87
293.529	8.86
293.744	3.23
293.959	-2.1
294.175	2.43
294.39	23.25
294.605	26.61
294.821	30.75
295.036	36.02
295.251	45.12
295.467	36.72
295.682	36.63
295.897	22.64
296.112	19.29
296.328	19.28
296.543	17.48
296.758	8.62
296.973	7.63
297.188	3.46
297.404	11.09
297.619	12.82
297.834	10.1
298.049	11.92
298.264	11.29
298.479	3.7
298.694	7.53
298.909	-4.15
299.125	1.81
299.34	-1.66
299.555	-2.89
299.77	-4.88
299.985	-3.68
300.2	-5.71
300.415	5.46
300.63	6.28
300.845	13.54
301.06	14.89
301.275	26.17
301.49	35.28
301.704	34.44
301.919	25.96
302.134	20.28
302.349	5.76
302.564	-0.25
302.779	-7.69
302.994	-9.84
303.209	-15.18
303.423	4.09
303.638	0.01
303.853	14.4
304.068	17.29
304.283	1.76
304.497	2.61
304.712	10.73
304.927	-5.27
305.142	-3.68
305.356	-3.42
305.571	8.9
305.786	15.83
306	18.05
306.215	14.55
306.43	29.57
306.644	30.46
306.859	34.35
307.074	28.54
307.288	32.11
307.503	24.79
307.717	20.2
307.932	19.06
308.147	21.29
308.361	20.01
308.576	10.39
308.79	3.61
309.005	12.81
309.219	16.71
309.434	7.13
309.648	-3.91
309.863	-8.22
310.077	-8.33
310.292	-10.54
310.506	-0.72
310.72	1.93
310.935	11.26
311.149	18.21
311.364	21.33
311.578	20.15
311.792	23.33
312.007	8.49
312.221	16.48
312.435	17.41
312.649	27.25
312.864	12.11
313.078	27.49
313.292	39.07
313.507	46.85
313.721	36.05
313.935	49.76
314.149	35.93
314.363	42.77
314.578	53.81
314.792	51.24
315.006	56
315.22	60.4
315.434	46.6
315.648	46.68
315.862	47.93
316.077	36.99
316.291	34.97
316.505	31.4
316.719	16.04
316.933	21.16
317.147	11.79
317.361	11.26
317.575	4.71
317.789	8.01
318.003	13.37
318.217	22.96
318.431	21.8
318.645	32.38
318.859	14.2
319.073	15.45
319.287	14.36
319.5	9.11
319.714	2.66
319.928	2.42
320.142	-5.22
320.356	23.57
320.57	23.52
320.784	22.67
320.997	28.53
321.211	26.86
321.425	19.55
321.639	20.07
321.853	7.01
322.066	3.64
322.28	5.24
322.494	-5.3
322.707	-0.94
322.921	1.3
323.135	11.69
323.349	11.88
323.562	17.49
323.776	17.91
323.989	16.35
324.203	21.55
324.417	16.23
324.63	1.87
324.844	-3.07
325.057	1.45
325.271	-7.43
325.485	-1.65
325.698	-4.52
325.912	10.71
326.125	10.91
326.339	14.42
326.552	4.39
326.766	11.03
326.979	12.17
327.193	8.42
327.406	5.44
327.619	-1.33
327.833	-0.85
328.046	4.97
328.26	-0.18
328.473	0.94
328.686	2.82
328.9	-1.57
329.113	11.5
329.326	17.53
329.54	17.04
329.753	20.07
329.966	19.91
330.179	20.83
330.393	21.93
330.606	25.38
330.819	22.73
331.032	25.97
331.246	27
331.459	25.44
331.672	26.71
331.885	21.37
332.098	17.48
332.311	1.07
332.525	5.84
332.738	5.63
332.951	7.38
333.164	2.5
333.377	-5.75
333.59	-5.37
333.803	10.14
334.016	-1.26
334.229	2.43
334.442	4.26
334.655	14.78
334.868	29.12
335.081	28.38
335.294	24.44
335.507	28.86
335.72	16.57
335.933	22.01
336.146	16.47
336.359	12.8
336.572	12.61
336.785	16.3
336.997	17.23
337.21	26.62
337.423	19.8
337.636	22.41
337.849	13.47
338.062	12.86
338.274	12.53
338.487	2.41
338.7	2.28
338.913	0.57
339.125	-6.23
339.338	9.34
339.551	16.25
339.763	14.88
339.976	19.82
340.189	16.93
340.402	15.29
340.614	21.42
340.827	9.4
341.039	4.82
341.252	9.86
341.465	6.83
341.677	6.67
341.89	17.07
342.102	17.82
342.315	28.26
342.527	28.27
342.74	18.94
342.952	23.09
343.165	30.62
343.377	19.48
343.59	22.88
343.802	26.29
344.015	30.96
344.227	29.85
344.44	26.46
344.652	20.63
344.864	30.55
345.077	21.29
345.289	12.92
345.502	8.43
345.714	3.83
345.926	7.26
346.139	10.62
346.351	2.3
346.563	14.85
346.775	10.07
346.988	7.85
347.2	16.89
347.412	13.94
347.624	19.91
347.837	17.93
348.049	14.19
348.261	21.68
348.473	18.78
348.685	25.23
348.897	20.44
349.11	15.55
349.322	12.32
349.534	13.3
349.746	8.87
349.958	9.57
350.17	0.89
350.382	6.53
350.594	13.52
350.806	22.96
351.018	18.2
351.23	17.39
351.442	19.39
351.654	25.85
351.866	31.55
352.078	16.31
352.29	14.49
352.502	20.41
352.714	22.73
352.926	21.3
353.138	10.81
353.35	4.46
353.561	9.59
353.773	10.7
353.985	7.52
354.197	-1.29
354.409	3.91
354.621	10.03
354.832	7.99
355.044	19.18
355.256	10.56
355.468	7.83
355.679	24.12
355.891	20.77
356.103	20.7
356.314	22.19
356.526	11.89
356.738	7.6
356.949	12.2
357.161	2.91
357.373	-1.08
357.584	1.71
357.796	2.85
358.008	17.03
358.219	33.35
358.431	27.82
358.642	28.28
358.854	26.02
359.065	21.45
359.277	18.44
359.488	5.22
359.7	0.81
359.911	2.14
360.123	6.58
360.334	8.53
360.546	1.33
360.757	8.36
360.969	18.91
361.18	11.22
361.391	8.77
361.603	8.29
361.814	8.21
362.025	13.3
362.237	13.69
362.448	11.39
362.659	6.96
362.871	15.75
363.082	19.05
363.293	22.62
363.504	21.45
363.716	18.22
363.927	18.68
364.138	24.21
364.349	26.04
364.56	17.35
364.772	18.8
364.983	14.93
365.194	15.14
365.405	10.48
365.616	3.53
365.827	-5.42
366.038	7.97
366.25	2.34
366.461	17.98
366.672	17
366.883	17.68
367.094	22.85
367.305	29.28
367.516	19.06
367.727	17.21
367.938	8.09
368.149	10.32
368.36	9.26
368.571	7.84
368.781	2.06
368.992	8.9
369.203	8.26
369.414	11.21
369.625	6.78
369.836	10.75
370.047	16
370.258	18.67
370.468	9.75
370.679	6.4
370.89	10.41
371.101	8.74
371.312	5.09
371.522	3.87
371.733	-5.26
371.944	2.03
372.155	0.31
372.365	-0.96
372.576	5.35
372.787	4.23
372.997	7.43
373.208	17.69
373.419	17.91
373.629	26.24
373.84	19.86
374.05	19.56
374.261	21.42
374.472	16.14
374.682	12.11
374.893	10.96
375.103	19.76
375.314	18.56
375.524	15.55
375.735	15.64
375.945	15.46
376.156	18.72
376.366	25.13
376.577	23.05
376.787	26.15
376.997	28.96
377.208	28.22
377.418	27
377.629	17.8
377.839	15.3
378.049	15.34
378.26	11.62
378.47	13.81
378.68	14.55
378.89	8.78
379.101	10.52
379.311	2.37
379.521	1.62
379.732	-2.12
379.942	-1.33
380.152	1.07
380.362	7.65
380.572	18.8
380.783	21.22
380.993	18.84
381.203	25.82
381.413	27.28
381.623	29.66
381.833	26.24
382.043	13.83
382.253	16.36
382.463	19.57
382.674	13.36
382.884	4.99
383.094	-0.04
383.304	-1.13
383.514	4.49
383.724	-0.12
383.934	-4.92
384.144	0.74
384.353	2.55
384.563	-1.86
384.773	-2.97
384.983	-1.96
385.193	3.08
385.403	3.63
385.613	0.7
385.823	-4.05
386.033	2.41
386.242	7.93
386.452	7.07
386.662	6.91
386.872	5.45
387.082	-0.09
387.291	4.77
387.501	2.51
387.711	2.25
387.921	2.46
388.13	2.14
388.34	3.02
388.55	9.91
388.759	11.7
388.969	9.48
389.179	10.39
389.388	10.76
389.598	9.9
389.807	10.15
390.017	8.4
390.227	5.3
390.436	6.28
390.646	6.22
390.855	4.03
391.065	2.63
391.274	0.71
391.484	1.23
391.693	2.7
391.903	3.21
392.112	1.28
392.322	3.33
392.531	4.78
392.74	4.01
392.95	5.4
393.159	6.31
393.369	5.5
393.578	6.24
393.787	5.18
393.997	5.17
394.206	5.63
394.415	4.31
394.625	3.27
394.834	2.65
395.043	2.94
395.252	3.08
395.462	3.08
395.671	3.85
395.88	4.08
396.089	4.23
396.298	4.91
396.508	4.02
396.717	3.09
396.926	2.48
397.135	1.36
397.344	1.05
397.553	1.01
397.762	0.67
397.971	0.88
398.181	1.21
398.39	1.49
398.599	1.91
398.808	1.9
399.017	2.27
399.226	2.5
399.435	2.46
399.644	2.52
399.853	2.52
400.062	2.57
400.27	2.61
400.479	2.31
400.688	2.22
400.897	2.28
401.106	2.39
401.315	2.12
401.524	2.21
401.733	2.3
401.941	2.32
402.15	2.02
402.359	2.07
402.568	2.02
402.777	2.08
402.985	1.93
403.194	1.69
403.403	1.37
403.612	1.5
403.82	1.47
404.029	1.39
404.238	1.47
404.446	1.47
404.655	1.49
404.864	1.63
405.072	1.59
405.281	1.55
405.489	1.56
405.698	1.43
405.906	1.43
406.115	1.41
406.324	1.37
406.532	1.52
406.741	1.53
406.949	1.4
407.158	1.43
407.366	1.49
407.574	1.53
407.783	1.44
407.991	1.33
408.2	1.29
408.408	1.34
408.617	1.36
408.825	1.33
409.033	1.24
409.242	1.28
409.45	1.35
409.658	1.36
409.867	1.36
410.075	1.29
410.283	1.18
410.491	1.18
410.7	1.29
410.908	1.24
411.116	1.18
411.324	1.29
411.533	1.26
411.741	1.28
411.949	1.33
412.157	1.3
412.365	1.34
412.573	1.36
412.781	1.3
412.99	1.45
413.198	1.54
413.406	1.46
413.614	1.45
413.822	1.4
414.03	1.36
414.238	1.34
414.446	1.23
414.654	1.14
414.862	1.2
415.07	1.28
415.278	1.2
415.486	1.33
415.694	1.3
415.902	1.27
416.109	1.23
416.317	1.19
416.525	1.16
416.733	1.24
416.941	1.11
417.149	1.19
417.357	1.22
417.564	1.25
417.772	1.26
417.98	1.16
418.188	1.13
418.395	1.16
418.603	1.02
418.811	0.97
419.019	1.02
419.226	1.09
419.434	1.02
419.642	1.02
419.849	1.08
420.057	1.19
420.265	1.23
420.472	1.21
420.68	1.11
420.887	1.2
421.095	1.21
421.302	1.19
421.51	1.17
421.717	1.19
421.925	1.15
422.132	1.16
422.34	1.15
422.547	1.14
422.755	1.15
422.962	1.13
423.17	1.13
423.377	1.23
423.585	1.24
423.792	1.17
423.999	1.16
424.207	1.07
424.414	1.03
424.621	0.99
424.829	0.9
425.036	0.82
425.243	0.89
425.451	0.93
425.658	0.99
425.865	0.95
426.072	1.01
426.28	1.07
426.487	1.14
426.694	1.16
426.901	1.07
427.108	1.07
427.315	1.1
427.523	1.1
427.73	1.05
427.937	1.08
428.144	1.08
428.351	1.21
428.558	1.17
428.765	1.13
428.972	1.14
429.179	1.07
429.386	1.11
429.593	1.06
429.8	1.02
430.007	1.08
430.214	1.17
430.421	1.14
430.628	1.1
430.835	1
431.042	1
431.249	1.02
431.456	1.05
431.662	1.07
431.869	1.14
432.076	1.23
432.283	1.21
432.49	1.19
432.697	1.14
432.903	1.12
433.11	1.13
433.317	1.13
433.524	1.03
433.73	1.07
433.937	1.05
434.144	1.15
434.35	1.14
434.557	1.04
434.764	1.02
434.97	1.14
435.177	1.1
435.384	1.23
435.59	1.15
435.797	1.15
436.003	1.18
436.21	1.11
436.416	1.12
436.623	1.18
436.829	1.11
437.036	1.12
437.242	1.09
437.449	1.19
437.655	1.22
437.862	1.24
438.068	1.28
438.275	1.29
438.481	1.34
438.687	1.38
438.894	1.31
439.1	1.34
439.307	1.28
439.513	1.23
439.719	1.24
439.926	1.22
440.132	1.18
440.338	1.26
440.544	1.2
440.751	1.24
440.957	1.23
441.163	1.22
441.369	1.22
441.575	1.18
441.782	1.06
441.988	1.09
442.194	1.13
442.4	1.16
442.606	1.21
442.812	1.22
443.018	1.26
443.224	1.35
443.431	1.34
443.637	1.25
443.843	1.28
444.049	1.21
444.255	1.21
444.461	1.23
444.667	1.21
444.873	1.21
445.079	1.28
445.284	1.24
445.49	1.23
445.696	1.22
445.902	1.27
446.108	1.27
446.314	1.35
446.52	1.4
446.726	1.43
446.931	1.48
447.137	1.49
447.343	1.44
447.549	1.43
447.755	1.36
447.96	1.3
448.166	1.34
448.372	1.3
448.578	1.29
448.783	1.26
448.989	1.27
449.195	1.27
449.4	1.26
449.606	1.19
449.812	1.25
450.017	1.26
450.223	1.27
450.428	1.32
450.634	1.39
450.84	1.42
451.045	1.44
451.251	1.45
451.456	1.43
451.662	1.44
451.867	1.37
452.073	1.3
452.278	1.26
452.483	1.29
452.689	1.28
452.894	1.3
453.1	1.26
453.305	1.31
453.51	1.31
453.716	1.35
453.921	1.35
454.127	1.31
454.332	1.3
454.537	1.42
454.742	1.41
454.948	1.41
455.153	1.4
455.358	1.42
455.563	1.41
455.769	1.41
455.974	1.34
456.179	1.33
456.384	1.38
456.589	1.43
456.795	1.36
457	1.42
457.205	1.37
457.41	1.38
457.615	1.44
457.82	1.47
458.025	1.4
458.23	1.46
458.435	1.35
458.64	1.46
458.845	1.43
459.05	1.39
459.255	1.37
459.46	1.4
459.665	1.4
459.87	1.46
460.075	1.41
460.28	1.45
460.485	1.48
460.69	1.42
460.895	1.44
461.099	1.45
461.304	1.45
461.509	1.41
461.714	1.44
461.919	1.39
462.123	1.48
462.328	1.46
462.533	1.41
462.738	1.43
462.942	1.5
463.147	1.49
463.352	1.51
463.556	1.51
463.761	1.52
463.966	1.6
464.17	1.59
464.375	1.52
464.58	1.5
464.784	1.49
464.989	1.43
465.193	1.41
465.398	1.39
465.602	1.38
465.807	1.44
466.011	1.51
466.216	1.54
466.42	1.61
466.625	1.62
466.829	1.64
467.034	1.73
467.238	1.74
467.443	1.71
467.647	1.71
467.851	1.69
468.056	1.71
468.26	1.67
468.464	1.63
468.669	1.65
468.873	1.62
469.077	1.62
469.282	1.66
469.486	1.68
469.69	1.68
469.894	1.71
470.099	1.7
470.303	1.7
470.507	1.68
470.711	1.66
470.915	1.7
471.119	1.74
471.324	1.65
471.528	1.68
471.732	1.67
471.936	1.73
472.14	1.7
472.344	1.66
472.548	1.66
472.752	1.79
472.956	1.82
473.16	1.85
473.364	1.81
473.568	1.86
473.772	1.94
473.976	1.94
474.18	1.87
474.384	1.81
474.588	1.81
474.792	1.82
474.995	1.82
475.199	1.8
475.403	1.8
475.607	1.84
475.811	1.89
476.015	1.93
476.218	1.92
476.422	1.93
476.626	1.95
476.83	1.94
477.033	1.95
477.237	1.93
477.441	1.91
477.644	1.96
477.848	1.92
478.052	1.88
478.255	1.89
478.459	1.95
478.663	1.98
478.866	2.01
479.07	1.98
479.273	2.01
479.477	2.05
479.681	2.05
479.884	1.96
480.088	1.97
480.291	1.98
480.495	2.02
480.698	2.04
480.901	2.04
481.105	2.07
481.308	2.12
481.512	2.11
481.715	2.11
481.919	2.1
482.122	2.09
482.325	2.12
482.529	2.15
482.732	2.17
482.935	2.23
483.138	2.23
483.342	2.27
483.545	2.32
483.748	2.35
483.952	2.36
484.155	2.35
484.358	2.31
484.561	2.32
484.764	2.31
484.967	2.31
485.171	2.29
485.374	2.32
485.577	2.35
485.78	2.35
485.983	2.33
486.186	2.31
486.389	2.28
486.592	2.28
486.795	2.25
486.998	2.24
487.201	2.25
487.404	2.3
487.607	2.3
487.81	2.36
488.013	2.33
488.216	2.35
488.419	2.32
488.622	2.29
488.825	2.28
489.028	2.28
489.231	2.21
489.433	2.25
489.636	2.2
489.839	2.21
490.042	2.23
490.245	2.23
490.447	2.22
490.65	2.26
490.853	2.24
491.056	2.25
491.258	2.29
491.461	2.29
491.664	2.26
491.866	2.29
492.069	2.29
492.272	2.26
492.474	2.29
492.677	2.26
492.879	2.29
493.082	2.31
493.285	2.31
493.487	2.31
493.69	2.33
493.892	2.34
494.095	2.31
494.297	2.33
494.5	2.37
494.702	2.38
494.905	2.39
495.107	2.38
495.309	2.35
495.512	2.41
495.714	2.42
495.917	2.4
496.119	2.4
496.321	2.46
496.524	2.52
496.726	2.53
496.928	2.54
497.13	2.54
497.333	2.54
497.535	2.54
497.737	2.5
497.939	2.46
498.142	2.45
498.344	2.46
498.546	2.48
498.748	2.49
498.95	2.5
499.152	2.5
499.355	2.52
499.557	2.56
499.759	2.59
499.961	2.6
500.163	2.64
500.365	2.63
500.567	2.67
500.769	2.7
500.971	2.71
501.173	2.66
501.375	2.65
501.577	2.65
501.779	2.69
501.981	2.69
502.183	2.67
502.385	2.65
502.587	2.69
502.788	2.68
502.99	2.68
503.192	2.68
503.394	2.7
503.596	2.73
503.798	2.81
503.999	2.83
504.201	2.85
504.403	2.86
504.605	2.87
504.806	2.89
505.008	2.88
505.21	2.85
505.411	2.86
505.613	2.91
505.815	2.88
506.016	2.91
506.218	2.93
506.42	2.95
506.621	2.98
506.823	2.99
507.024	2.99
507.226	3.02
507.427	2.98
507.629	3.01
507.83	3.01
508.032	3.05
508.233	3.06
508.435	3.07
508.636	3.08
508.838	3.17
509.039	3.17
509.24	3.19
509.442	3.14
509.643	3.14
509.845	3.13
510.046	3.12
510.247	3.16
510.448	3.17
510.65	3.19
510.851	3.23
511.052	3.25
511.254	3.3
511.455	3.34
511.656	3.31
511.857	3.31
512.058	3.35
512.26	3.35
512.461	3.38
512.662	3.37
512.863	3.36
513.064	3.33
513.265	3.37
513.466	3.37
513.667	3.39
513.868	3.37
514.069	3.39
514.27	3.4
514.471	3.46
514.672	3.5
514.873	3.5
515.074	3.52
515.275	3.53
515.476	3.56
515.677	3.6
515.878	3.62
516.079	3.58
516.28	3.58
516.481	3.57
516.682	3.59
516.882	3.57
517.083	3.54
517.284	3.52
517.485	3.55
517.686	3.59
517.886	3.62
518.087	3.64
518.288	3.63
518.488	3.65
518.689	3.65
518.89	3.66
519.091	3.63
519.291	3.66
519.492	3.68
519.692	3.73
519.893	3.75
520.094	3.8
520.294	3.79
520.495	3.81
520.695	3.8
520.896	3.79
521.096	3.8
521.297	3.79
521.497	3.78
521.698	3.81
521.898	3.81
522.099	3.79
522.299	3.79
522.499	3.79
522.7	3.82
522.9	3.82
523.101	3.84
523.301	3.86
523.501	3.91
523.702	3.92
523.902	3.93
524.102	3.94
524.302	3.95
524.503	3.93
524.703	3.94
524.903	3.96
525.103	3.98
525.304	3.98
525.504	3.98
525.704	4.01
525.904	4.05
526.104	4.05
526.304	4.05
526.504	4.06
526.705	4.08
526.905	4.1
527.105	4.11
527.305	4.09
527.505	4.11
527.705	4.1
527.905	4.09
528.105	4.1
528.305	4.11
528.505	4.1
528.705	4.12
528.905	4.11
529.105	4.19
529.304	4.23
529.504	4.23
529.704	4.23
529.904	4.25
530.104	4.26
530.304	4.29
530.503	4.26
530.703	4.27
530.903	4.3
531.103	4.32
531.303	4.36
531.502	4.36
531.702	4.38
531.902	4.37
532.101	4.36
532.301	4.36
532.501	4.39
532.7	4.37
532.9	4.41
533.1	4.4
533.299	4.45
533.499	4.47
533.698	4.52
533.898	4.52
534.097	4.54
534.297	4.57
534.496	4.6
534.696	4.61
534.895	4.64
535.095	4.63
535.294	4.64
535.494	4.64
535.693	4.64
535.892	4.65
536.092	4.66
536.291	4.68
536.491	4.71
536.69	4.72
536.889	4.73
537.088	4.74
537.288	4.8
537.487	4.82
537.686	4.83
537.886	4.85
538.085	4.92
538.284	4.96
538.483	5
538.682	4.99
538.882	5
539.081	5.04
539.28	5.03
539.479	5.02
539.678	5.08
539.877	5.12
540.076	5.15
540.275	5.19
540.474	5.16
540.673	5.2
540.872	5.24
541.071	5.24
541.27	5.24
541.469	5.27
541.668	5.31
541.867	5.36
542.066	5.41
542.265	5.43
542.464	5.47
542.663	5.54
542.862	5.59
543.06	5.61
543.259	5.64
543.458	5.62
543.657	5.67
543.856	5.7
544.054	5.71
544.253	5.71
544.452	5.71
544.651	5.74
544.849	5.82
545.048	5.83
545.247	5.87
545.445	5.86
545.644	5.9
545.843	5.95
546.041	6.03
546.24	6.05
546.438	6.12
546.637	6.2
546.836	6.27
547.034	6.3
547.233	6.37
547.431	6.4
547.63	6.43
547.828	6.46
548.027	6.47
548.225	6.52
548.423	6.6
548.622	6.64
548.82	6.69
549.019	6.74
549.217	6.82
549.415	6.89
549.614	6.91
549.812	6.96
550.01	7
550.209	7.06
550.407	7.12
550.605	7.15
550.803	7.19
551.002	7.26
551.2	7.35
551.398	7.4
551.596	7.45
551.794	7.52
551.993	7.52
552.191	7.62
552.389	7.71
552.587	7.73
552.785	7.82
552.983	7.9
553.181	7.94
553.379	8.05
553.577	8.12
553.775	8.17
553.973	8.24
554.171	8.28
554.369	8.34
554.567	8.41
554.765	8.51
554.963	8.59
555.161	8.68
555.359	8.74
555.557	8.81
555.755	8.89
555.952	8.96
556.15	9.01
556.348	9.11
556.546	9.17
556.744	9.25
556.941	9.37
557.139	9.47
557.337	9.54
557.535	9.66
557.732	9.71
557.93	9.8
558.128	9.88
558.325	9.95
558.523	9.97
558.721	10.1
558.918	10.15
559.116	10.22
559.313	10.34
559.511	10.43
559.708	10.52
559.906	10.66
560.104	10.72
560.301	10.85
560.498	10.93
560.696	10.98
560.893	11.06
561.091	11.16
561.288	11.23
561.486	11.29
561.683	11.36
561.88	11.49
562.078	11.55
562.275	11.66
562.473	11.69
562.67	11.77
562.867	11.92
563.064	12.05
563.262	12.15
563.459	12.26
563.656	12.37
563.853	12.51
564.051	12.63
564.248	12.7
564.445	12.73
564.642	12.78
564.839	12.88
565.036	12.99
565.234	13.09
565.431	13.18
565.628	13.29
565.825	13.43
566.022	13.52
566.219	13.59
566.416	13.69
566.613	13.77
566.81	13.83
567.007	13.87
567.204	13.89
567.401	13.97
567.598	14.03
567.795	14.07
567.991	14.13
568.188	14.21
568.385	14.36
568.582	14.52
568.779	14.58
568.976	14.68
569.172	14.75
569.369	14.81
569.566	14.89
569.763	14.94
569.96	14.98
570.156	15.02
570.353	15.04
570.55	15.09
570.746	15.14
570.943	15.21
571.14	15.21
571.336	15.26
571.533	15.31
571.729	15.37
571.926	15.42
572.123	15.48
572.319	15.53
572.516	15.57
572.712	15.58
572.909	15.62
573.105	15.66
573.302	15.63
573.498	15.65
573.695	15.63
573.891	15.69
574.087	15.7
574.284	15.69
574.48	15.72
574.677	15.79
574.873	15.8
575.069	15.86
575.266	15.86
575.462	15.92
575.658	16.02
575.854	16.06
576.051	16.09
576.247	16.15
576.443	16.21
576.639	16.2
576.835	16.23
577.032	16.3
577.228	16.28
577.424	16.33
577.62	16.34
577.816	16.25
578.012	16.29
578.208	16.31
578.404	16.27
578.6	16.35
578.796	16.31
578.993	16.34
579.189	16.36
579.384	16.34
579.58	16.37
579.776	16.32
579.972	16.26
580.168	16.26
580.364	16.29
580.56	16.31
580.756	16.28
580.952	16.27
581.148	16.26
581.343	16.28
581.539	16.27
581.735	16.22
581.931	16.22
582.127	16.21
582.322	16.16
582.518	16.2
582.714	16.15
582.909	16.14
583.105	16.12
583.301	16.14
583.496	16.16
583.692	16.13
583.888	16.11
584.083	16.14
584.279	16.17
584.474	16.16
584.67	16.14
584.866	16.13
585.061	16.16
585.257	16.14
585.452	16.14
585.648	16.08
585.843	16.12
586.039	16.07
586.234	16.08
586.429	16.09
586.625	16.09
586.82	16.02
587.015	16.04
587.211	16.05
587.406	16.15
587.601	16.18
587.797	16.15
587.992	16.17
588.187	16.26
588.383	16.28
588.578	16.26
588.773	16.21
588.968	16.24
589.163	16.3
589.359	16.31
589.554	16.37
589.749	16.41
589.944	16.48
590.139	16.55
590.334	16.55
590.529	16.6
590.724	16.63
590.919	16.64
591.114	16.68
591.309	16.69
591.504	16.69
591.699	16.73
591.894	16.77
592.089	16.84
592.284	16.84
592.479	16.82
592.674	16.88
592.869	16.93
593.064	17.04
593.259	17.05
593.454	17.05
593.648	17.12
593.843	17.17
594.038	17.23
594.233	17.33
594.428	17.33
594.622	17.39
594.817	17.47
595.012	17.59
595.206	17.71
595.401	17.7
595.596	17.76
595.79	17.83
595.985	17.95
596.18	18.07
596.374	18.14
596.569	18.2
596.763	18.4
596.958	18.46
597.153	18.57
597.347	18.6
597.542	18.67
597.736	18.75
597.931	18.83
598.125	18.87
598.319	18.93
598.514	18.96
598.708	19.05
598.903	19.11
599.097	19.14
599.291	19.2
599.486	19.24
599.68	19.33
599.874	19.45
600.069	19.53
600.263	19.56
600.457	19.63
600.651	19.69
600.846	19.71
601.04	19.72
601.234	19.73
601.428	19.75
601.622	19.78
601.817	19.82
602.011	19.86
602.205	19.94
602.399	20.01
602.593	20.02
602.787	20.04
602.981	20.08
603.175	20.04
603.369	20.03
603.563	20.08
603.757	20.04
603.951	20.02
604.145	19.99
604.339	19.97
604.533	20.02
604.727	20.02
604.921	19.97
605.115	19.94
605.309	19.96
605.502	19.98
605.696	19.93
605.89	19.91
606.084	19.88
606.278	19.83
606.471	19.81
606.665	19.74
606.859	19.64
607.053	19.65
607.246	19.58
607.44	19.5
607.634	19.46
607.827	19.37
608.021	19.31
608.214	19.26
608.408	19.14
608.602	19.1
608.795	19.03
608.989	18.97
609.182	19.01
609.376	18.95
609.569	18.91
609.763	18.94
609.956	18.83
610.15	18.8
610.343	18.74
610.537	18.65
610.73	18.63
610.923	18.53
611.117	18.35
611.31	18.31
611.504	18.24
611.697	18.18
611.89	18.08
612.083	17.98
612.277	17.91
612.47	17.87
612.663	17.8
612.856	17.71
613.05	17.63
613.243	17.58
613.436	17.49
613.629	17.49
613.822	17.42
614.015	17.32
614.209	17.25
614.402	17.18
614.595	17.11
614.788	17.05
614.981	16.96
615.174	16.93
615.367	16.89
615.56	16.8
615.753	16.71
615.946	16.64
616.139	16.6
616.332	16.51
616.525	16.48
616.718	16.39
616.911	16.41
617.103	16.36
617.296	16.32
617.489	16.27
617.682	16.22
617.875	16.11
618.067	16.05
618.26	16.01
618.453	15.97
618.646	15.93
618.838	15.86
619.031	15.87
619.224	15.9
619.417	15.92
619.609	15.87
619.802	15.86
619.994	15.8
620.187	15.81
620.38	15.73
620.572	15.69
620.765	15.61
620.957	15.56
621.15	15.55
621.342	15.55
621.535	15.5
621.727	15.5
621.92	15.46
622.112	15.5
622.305	15.45
622.497	15.37
622.69	15.34
622.882	15.38
623.074	15.33
623.267	15.25
623.459	15.18
623.651	15.2
623.844	15.2
624.036	15.24
624.228	15.17
624.42	15.23
624.613	15.23
624.805	15.24
624.997	15.22
625.189	15.2
625.381	15.11
625.574	15.08
625.766	15.01
625.958	15.04
626.15	15.04
626.342	15.01
626.534	14.99
626.726	14.99
626.918	14.91
627.11	14.86
627.302	14.79
627.494	14.72
627.686	14.68
627.878	14.65
628.07	14.65
628.262	14.63
628.454	14.61
628.646	14.61
628.838	14.53
629.029	14.46
629.221	14.4
629.413	14.3
629.605	14.28
629.797	14.28
629.989	14.22
630.18	14.22
630.372	14.26
630.564	14.25
630.755	14.25
630.947	14.22
631.139	14.15
631.33	14.14
631.522	14.11
631.714	14.08
631.905	14.07
632.097	14.05
632.289	14.03
632.48	13.99
632.672	13.9
632.863	13.88
633.055	13.82
633.246	13.81
633.438	13.79
633.629	13.8
633.821	13.88
634.012	13.88
634.203	13.9
634.395	13.94
634.586	13.89
634.777	13.83
634.969	13.8
635.16	13.69
635.351	13.73
635.543	13.66
635.734	13.58
635.925	13.67
636.117	13.72
636.308	13.7
636.499	13.73
636.69	13.75
636.881	13.78
637.073	13.78
637.264	13.7
637.455	13.7
637.646	13.69
637.837	13.64
638.028	13.62
638.219	13.61
638.41	13.59
638.601	13.65
638.792	13.58
638.983	13.51
639.174	13.55
639.365	13.47
639.556	13.46
639.747	13.5
639.938	13.45
640.129	13.46
640.32	13.49
640.511	13.47
640.701	13.43
640.892	13.44
641.083	13.39
641.274	13.33
641.465	13.31
641.655	13.29
641.846	13.25
642.037	13.29
642.228	13.24
642.418	13.2
642.609	13.21
642.8	13.16
642.99	13.15
643.181	13.18
643.372	13.12
643.562	13.05
643.753	13.04
643.943	12.98
644.134	12.99
644.324	12.97
644.515	12.93
644.705	12.96
644.896	12.92
645.086	12.92
645.277	12.94
645.467	12.9
645.658	12.88
645.848	12.85
646.038	12.85
646.229	12.87
646.419	12.87
646.61	12.8
646.8	12.83
646.99	12.8
647.18	12.75
647.371	12.7
647.561	12.7
647.751	12.64
647.941	12.64
648.132	12.63
648.322	12.66
648.512	12.7
648.702	12.68
648.892	12.71
649.082	12.71
649.272	12.67
649.462	12.6
649.653	12.53
649.843	12.43
650.033	12.36
650.223	12.32
650.413	12.33
650.603	12.33
650.793	12.33
650.983	12.33
651.172	12.33
651.362	12.34
651.552	12.25
651.742	12.15
651.932	12.11
652.122	12.04
652.312	11.93
652.502	11.87
652.691	11.86
652.881	11.85
653.071	11.75
653.261	11.68
653.45	11.61
653.64	11.59
653.83	11.55
654.019	11.38
654.209	11.25
654.399	11.22
654.588	11.08
654.778	11.02
654.968	10.88
655.157	10.73
655.347	10.63
655.536	10.48
655.726	10.36
655.915	10.22
656.105	10.07
656.294	9.96
656.484	9.81
656.673	9.73
656.863	9.68
657.052	9.55
657.241	9.43
657.431	9.28
657.62	9.08
657.809	9
657.999	8.84
658.188	8.69
658.377	8.59
658.567	8.46
658.756	8.28
658.945	8.23
659.134	8.04
659.324	7.89
659.513	7.7
659.702	7.49
659.891	7.36
660.08	7.28
660.269	7.14
660.458	7.06
660.648	6.94
660.837	6.86
661.026	6.79
661.215	6.71
661.404	6.58
661.593	6.46
661.782	6.32
661.971	6.23
662.16	6.16
662.349	6.07
662.538	6
662.726	5.9
662.915	5.79
663.104	5.64
663.293	5.53
663.482	5.38
663.671	5.32
663.86	5.2
664.048	5.11
664.237	5.07
664.426	5.06
664.615	5
664.803	4.92
664.992	4.83
665.181	4.8
665.369	4.72
665.558	4.68
665.747	4.71
665.935	4.71
666.124	4.73
666.312	4.68
666.501	4.62
666.69	4.63
666.878	4.56
667.067	4.48
667.255	4.42
667.444	4.41
667.632	4.37
667.82	4.36
668.009	4.34
668.197	4.32
668.386	4.3
668.574	4.26
668.762	4.24
668.951	4.28
669.139	4.32
669.327	4.34
669.516	4.37
669.704	4.41
669.892	4.43
670.08	4.42
670.269	4.49
670.457	4.43
670.645	4.44
670.833	4.45
671.021	4.44
671.21	4.56
671.398	4.57
671.586	4.55
671.774	4.59
671.962	4.62
672.15	4.63
672.338	4.71
672.526	4.69
672.714	4.74
672.902	4.72
673.09	4.79
673.278	4.82
673.466	4.93
673.654	4.95
673.842	5.02
674.03	5.14
674.218	5.22
674.405	5.28
674.593	5.34
674.781	5.34
674.969	5.43
675.157	5.46
675.344	5.46
675.532	5.54
675.72	5.59
675.908	5.63
676.095	5.8
676.283	5.81
676.471	5.88
676.658	5.94
676.846	6.03
677.033	6.07
677.221	6.15
677.409	6.17
677.596	6.37
677.784	6.46
677.971	6.57
678.159	6.67
678.346	6.78
678.534	6.9
678.721	6.97
678.909	6.89
679.096	6.97
679.283	7.01
679.471	7.11
679.658	7.19
679.846	7.26
680.033	7.38
680.22	7.5
680.408	7.54
680.595	7.57
680.782	7.6
680.969	7.65
681.157	7.74
681.344	7.84
681.531	7.93
681.718	8.13
681.905	8.36
682.093	8.53
682.28	8.77
682.467	8.85
682.654	8.93
682.841	9.15
683.028	9.28
683.215	9.36
683.402	9.43
683.589	9.48
683.776	9.66
683.963	9.87
684.15	10.04
684.337	10.22
684.524	10.44
684.711	10.69
684.898	10.94
685.085	11.18
685.271	11.45
685.458	11.7
685.645	11.89
685.832	12.15
686.019	12.44
686.205	12.65
686.392	12.91
686.579	13.12
686.766	13.38
686.952	13.8
687.139	14.09
687.326	14.41
687.512	14.86
687.699	15.28
687.886	15.64
688.072	16.12
688.259	16.48
688.445	16.94
688.632	17.48
688.818	17.86
689.005	18.38
689.191	19.01
689.378	19.45
689.564	19.98
689.751	20.57
689.937	21.04
690.124	21.68
690.31	22.18
690.496	22.65
690.683	23.29
690.869	23.85
691.055	24.55
691.242	25.06
691.428	25.69
691.614	26.42
691.8	27.09
691.987	27.83
692.173	28.62
692.359	29.28
692.545	30.05
692.731	30.88
692.918	31.66
693.104	32.44
693.29	33.15
693.476	33.85
693.662	34.57
693.848	35.34
694.034	35.98
694.22	36.63
694.406	37.43
694.592	38.1
694.778	38.81
694.964	39.52
695.15	40.4
695.336	41.36
695.522	42.1
695.708	42.92
695.894	43.84
696.08	44.69
696.265	45.45
696.451	46.15
696.637	46.71
696.823	47.59
697.009	48.28
697.194	48.98
697.38	49.67
697.566	50.48
697.751	51.38
697.937	52.21
698.123	52.87
698.308	53.44
698.494	54.1
698.68	54.84
698.865	55.64
699.051	56.12
699.236	56.71
699.422	57.22
699.607	57.88
699.793	58.58
699.978	59.19
700.164	59.76
700.349	60.4
700.535	60.99
700.72	61.73
700.906	62.41
701.091	62.85
701.276	63.49
701.462	64.07
701.647	64.49
701.832	65
702.018	65.47
702.203	65.76
702.388	66.17
702.573	66.52
702.759	66.88
702.944	67.44
703.129	67.87
703.314	68.43
703.499	69.04
703.684	69.79
703.87	70.38
704.055	70.8
704.24	71.39
704.425	72.03
704.61	72.29
704.795	72.63
704.98	72.79
705.165	72.96
705.35	73.37
705.535	73.67
705.72	73.96
705.905	74.22
706.09	74.63
706.275	74.98
706.459	75.55
706.644	75.87
706.829	76.18
707.014	76.28
707.199	76.62
707.384	77.11
707.568	77.48
707.753	77.66
707.938	77.87
708.123	77.95
708.307	78.36
708.492	78.58
708.677	78.74
708.861	79.03
709.046	79.16
709.231	79.52
709.415	79.89
709.6	79.99
709.784	80.46
709.969	80.61
710.153	80.93
710.338	81.22
710.522	81.5
710.707	81.55
710.891	81.84
711.076	81.7
711.26	81.92
711.445	81.85
711.629	82.16
711.813	82.06
711.998	82.27
712.182	82.64
712.366	83.12
712.551	83.39
712.735	83.51
712.919	83.86
713.103	84.19
713.288	84.51
713.472	84.48
713.656	84.42
713.84	84.55
714.024	84.84
714.208	84.8
714.393	85.09
714.577	85.29
714.761	85.61
714.945	85.91
715.129	85.92
715.313	86.11
715.497	86.38
715.681	86.6
715.865	86.66
716.049	86.67
716.233	86.96
716.417	87.4
716.601	87.79
716.785	87.68
716.968	87.1
717.152	87.33
717.336	87.51
717.52	87.69
717.704	87.76
717.888	87.56
718.071	87.77
718.255	88.54
718.439	88.36
718.622	88.57
718.806	88.39
718.99	88.42
719.174	88.55
719.357	88.58
719.541	88.58
719.724	89.34
719.908	89.4
720.092	89.68
720.275	89.78
720.459	89.96
720.642	89.98
720.826	90.15
721.009	89.74
721.193	89.84
721.376	89.85
721.559	90.03
721.743	90.1
721.926	90.11
722.11	90.31
722.293	90.09
722.476	89.86
722.66	90.03
722.843	90.06
723.026	90.36
723.21	90.56
723.393	90.51
723.576	90.84
723.759	91.3
723.942	91.38
724.126	91.27
724.309	91.39
724.492	91.74
724.675	91.87
724.858	92.49
725.041	92.41
725.224	92.53
725.407	92.43
725.59	92.15
725.774	92.13
725.957	92.36
726.14	91.83
726.322	91.78
726.505	92.29
726.688	92.63
726.871	92.78
727.054	92.71
727.237	92.68
727.42	93.01
727.603	93.18
727.786	93.15
727.968	93.61
728.151	94.09
728.334	94.47
728.517	94.56
728.699	95.05
728.882	95.6
729.065	95.66
729.248	95.44
729.43	95.21
729.613	95.65
729.796	95.83
729.978	95.98
730.161	95.95
730.343	96.03
730.526	96.26
730.708	96.81
730.891	96.61
731.073	96.32
731.256	96.19
731.438	96.25
731.621	96.57
731.803	96.75
731.986	96.76
732.168	96.58
732.35	97.38
732.533	97.33
732.715	97.68
732.898	97.7
733.08	98.3
733.262	97.86
733.444	97.8
733.627	97.87
733.809	98.14
733.991	97.78
734.173	97.22
734.355	96.92
734.538	97.29
734.72	98.29
734.902	97.82
735.084	97.5
735.266	97.69
735.448	98.28
735.63	98.15
735.812	98.57
735.994	97.94
736.176	98.39
736.358	98.86
736.54	98.86
736.722	98.71
736.904	98.88
737.086	98.28
737.268	98.5
737.45	98.01
737.632	97.22
737.814	97.35
737.995	97.34
738.177	97.26
738.359	97.59
738.541	97.42
738.723	97.49
738.904	98.14
739.086	98.36
739.268	98.94
739.449	99.29
739.631	99.68
739.813	99.67
739.994	99.99
740.176	99.94
740.358	99.92
740.539	99.67
740.721	98.99
740.902	98.27
741.084	98.31
741.265	98.47
741.447	98.13
741.628	97.78
741.81	97.99
741.991	98.91
742.172	99.57
742.354	100.07
742.535	100.23
742.717	100.4
742.898	101.38
743.079	101.07
743.261	100.84
743.442	100.84
743.623	100.62
743.804	100.6
743.986	100.62
744.167	99.37
744.348	99.93
744.529	99.57
744.71	98.92
744.891	99.04
745.073	98.91
745.254	99.3
745.435	99.73
745.616	99.04
745.797	98.33
745.978	99.45
746.159	98.82
746.34	98.82
746.521	98.68
746.702	98.31
746.883	98.2
747.064	98.71
747.245	98.68
747.426	99.33
747.606	99.25
747.787	99.81
747.968	100.83
748.149	100.96
748.33	101.5
748.51	100.65
748.691	100.5
748.872	100.58
749.053	99.6
749.233	98.82
749.414	98.76
749.595	98.09
749.775	98.16
749.956	97.39
750.137	97.3
750.317	97.56
750.498	97.76
750.678	97.55
750.859	97.99
751.04	98.15
751.22	98.06
751.4	98.26
751.581	98.31
751.761	98.41
751.942	98.58
752.122	98.18
752.303	98.39
752.483	99.23
752.663	99.18
752.844	99.01
753.024	99.12
753.204	99.22
753.385	99.4
753.565	99.03
753.745	98.92
753.925	98.49
754.106	98.65
754.286	98.14
754.466	97.88
754.646	97.6
754.826	97.29
755.006	96.74
755.187	97.27
755.367	97.12
755.547	96.87
755.727	96.93
755.907	97.87
756.087	98.16
756.267	98.32
756.447	97.57
756.627	97.09
756.807	97.82
756.987	98.66
757.167	98.15
757.346	97.59
757.526	97.96
757.706	97.98
757.886	98.3
758.066	97.96
758.246	97.45
758.425	97.54
758.605	98.15
758.785	97.93
758.965	96.98
759.144	97.88
759.324	98.59
759.504	98.2
759.683	97.17
759.863	96.42
760.043	96.72
760.222	97.48
760.402	97.83
760.581	96.22
760.761	95.92
760.94	96.4
761.12	96.72
761.299	95.86
761.479	96.49
761.658	94.6
761.838	95.62
762.017	96.33
762.197	97.42
762.376	97.27
762.555	97.88
762.735	96.78
762.914	97.59
763.093	96.27
763.273	95.8
763.452	93.91
763.631	92.8
763.81	92.8
763.99	93.23
764.169	92.22
764.348	93.75
764.527	93.66
764.706	94.59
764.885	95.6
765.064	94.95
765.243	94.98
765.423	95.22
765.602	94.17
765.781	93.68
765.96	93.98
766.139	93.17
766.318	93.49
766.497	93.32
766.676	94.62
766.854	94.63
767.033	95.38
767.212	94.05
767.391	94.62
767.57	94.32
767.749	94.35
767.928	93.87
768.106	93.75
768.285	93.42
768.464	93.78
768.643	94.45
768.821	94.27
769	95.59
769.179	94.51
769.357	94.36
769.536	94.35
769.715	94.3
769.893	92.96
770.072	93.39
770.25	91.66
770.429	92.83
770.607	92.83
770.786	93.29
770.964	92.98
771.143	93.98
771.321	93.41
771.5	93.08
771.678	92.18
771.857	91.91
772.035	90.83
772.213	91.29
772.392	91.31
772.57	91.67
772.748	91.58
772.927	91.71
773.105	93.23
773.283	92.83
773.461	92.64
773.64	91.79
773.818	90.94
773.996	91.72
774.174	91.97
774.352	90.4
774.531	89.8
774.709	90.33
774.887	89.99
775.065	90.08
775.243	91.02
775.421	90.96
775.599	89.99
775.777	90.86
775.955	89.73
776.133	90.29
776.311	90.37
776.489	88.3
776.667	86.97
776.844	87.66
777.022	86.88
777.2	87.63
777.378	87.79
777.556	89.09
777.734	90.05
777.911	91.89
778.089	91.74
778.267	91.9
778.445	91.13
778.622	90.29
778.8	88.94
778.978	88.16
779.155	86.83
779.333	85.6
779.511	86.29
779.688	85.96
779.866	85.38
780.043	86.6
780.221	85.94
780.398	86.14
780.576	87.31
780.753	86.09
780.931	87.35
781.108	88.68
781.286	86.07
781.463	87.88
781.64	88.66
781.818	88.95
781.995	89.64
782.172	89
782.35	87.64
782.527	91.24
782.704	89.63
782.882	88.85
783.059	87.75
783.236	88.34
783.413	87.69
783.59	87.11
783.768	84.58
783.945	85.63
784.122	85.39
784.299	86.13
784.476	86.55
784.653	86.42
784.83	85.69
785.007	84.72
785.184	84.91
785.361	85.55
785.538	86.42
785.715	85.21
785.892	84.31
786.069	87.15
786.246	88.31
786.423	89.08
786.6	88.52
786.776	86.82
786.953	87.26
787.13	90.08
787.307	89.36
787.484	89.47
787.66	86.51
787.837	86.72
788.014	87.42
788.191	85.9
788.367	84.25
788.544	85.09
788.721	84.25
788.897	86.16
789.074	85.94
789.25	86.8
789.427	87.09
789.603	89.07
789.78	88.33
789.956	88.32
790.133	88.33
790.309	88.06
790.486	89.27
790.662	90.26
790.839	89.3
791.015	90.08
791.192	89.51
791.368	89.69
791.544	91.11
791.721	87.48
791.897	87.32
792.073	85.73
792.249	86.89
792.426	89.74
792.602	87.67
792.778	84.65
792.954	87.37
793.13	87.47
793.307	87.31
793.483	83.59
793.659	82.67
793.835	82.59
794.011	84.06
794.187	79.87
794.363	80.59
794.539	79.93
794.715	80.18
794.891	76.75
795.067	76.95
795.243	76.5
795.419	80.68
795.595	78.09
795.771	80.59
795.947	82.2
796.122	83.36
796.298	82.92
796.474	84.39
796.65	81.93
796.826	84.91
797.001	86.47
797.177	84.72
797.353	86.8
797.529	88.55
797.704	88.29
797.88	87.77
798.056	86.6
798.231	81.93
798.407	83.24
798.582	83.45
798.758	83.67
798.934	81.73
799.109	81.06
799.285	82.48
799.46	84.22
799.636	84.42
799.811	86.73
799.986	86.37
800.162	87.49
800.337	89.02
800.513	89.5
800.688	90.95
800.863	91.35
801.039	85.75
801.214	86.69
801.389	86.34
801.565	89.98
801.74	85.76
801.915	81.99
802.09	78.9
802.265	80.94
802.441	81.43
802.616	78.93
802.791	75.83
802.966	78.37
803.141	76.69
803.316	80.21
803.491	78.44
803.666	76.83
803.841	79.56
804.016	80.68
804.191	79.34
804.366	82.75
804.541	81.94
804.716	78.36
804.891	80.72
805.066	78.78
805.241	76.71
805.416	76.32
805.591	78.6
805.765	78.92
805.94	81.3
806.115	76.34
806.29	78.38
806.464	76.91
806.639	77.53
806.814	69.68
806.989	66.61
807.163	70.06
807.338	73.58
807.512	68.24
807.687	70.71
807.862	72.14
808.036	77.2
808.211	82.28
808.385	81.4
808.56	80.19
808.734	84.8
808.909	86.03
809.083	81.73
809.258	85.05
809.432	76.81
809.606	74.81
809.781	73.25
809.955	76.93
810.13	74.69
810.304	76
810.478	76.92
810.652	86.79
810.827	84.77
811.001	85.81
811.175	74.73
811.349	75.75
811.524	75.04
811.698	72.32
811.872	69.45
812.046	69.83
812.22	65.55
812.394	72.98
812.568	74.07
812.742	77.35
812.916	78.59
813.09	74.82
813.264	77.44
813.438	86.14
813.612	84.9
813.786	82.15
813.96	82.33
814.134	84.08
814.308	84.92
814.482	81.62
814.656	81.03
814.83	82.37
815.003	80.83
815.177	81.97
815.351	84.34
815.525	82.11
815.698	82.12
815.872	78.9
816.046	78.33
816.219	79.9
816.393	70.08
816.567	61.06
816.74	62.43
816.914	71.5
817.088	66.03
817.261	62.71
817.435	62.66
817.608	72.73
817.782	75.87
817.955	76.2
818.129	72.08
818.302	80.59
818.475	85.23
818.649	80.5
818.822	77.05
818.996	78.65
819.169	79.28
819.342	78.42
819.516	80.61
819.689	79.19
819.862	83.76
820.035	82.76
820.209	80.49
820.382	77.65
820.555	73.57
820.728	62.82
820.901	61.96
821.075	65.04
821.248	62.42
821.421	57.78
821.594	60.67
821.767	63.28
821.94	63.99
822.113	65.98
822.286	64.38
822.459	70.55
822.632	75.25
822.805	75.5
822.978	70.6
823.151	68.53
823.324	61.13
823.496	53.97
823.669	49.17
823.842	52.93
824.015	46.34
824.188	51.97
824.361	54.51
824.533	63.62
824.706	75.17
824.879	87.52
825.051	88.24
825.224	95.03
825.397	90.47
825.569	100.38
825.742	99.44
825.915	93.75
826.087	84.24
826.26	79.21
826.432	80.58
826.605	76.44
826.777	69.73
826.95	61.2
827.122	60.61
827.295	65.72
827.467	62.47
827.64	53.45
827.812	56.46
827.984	58
828.157	63.7
828.329	59.69
828.501	60.84
828.674	64.95
828.846	69.25
829.018	63.47
829.19	53.95
829.363	49.62
829.535	51.17
829.707	45.43
829.879	43.95
830.051	38.69
830.223	39.39
830.395	43.08
830.568	53.19
830.74	55.46
830.912	52.77
831.084	50.25
831.256	47.76
831.428	48.63
831.6	46.1
831.772	41.2
831.943	45.14
832.115	56.92
832.287	55.5
832.459	70.66
832.631	69.31
832.803	77.59
832.975	77.87
833.146	73.28
833.318	61.83
833.49	67.57
833.662	54.79
833.833	63.3
834.005	67.05
834.177	64.84
834.348	56.76
834.52	67.59
834.692	70.06
834.863	80.44
835.035	70.33
835.206	64.93
835.378	62.04
835.549	64.8
835.721	57.17
835.892	50.44
836.064	54.14
836.235	56.91
836.407	50.86
836.578	55.59
836.749	53.9
836.921	53.14
837.092	61.02
837.264	54.32
837.435	51.06
837.606	60.63
837.777	47.76
837.949	45.97
838.12	41.81
838.291	47.71
838.462	49.27
838.633	47.87
838.805	40.13
838.976	52.91
839.147	50.56
839.318	46.14
839.489	30.34
839.66	38.92
839.831	34.42
840.002	39.13
840.173	37.36
840.344	48.19
840.515	48.4
840.686	62.47
840.857	50.75
841.028	58.64
841.199	55.55
841.369	47.12
841.54	46.67
841.711	57.76
841.882	43.4
842.053	37.19
842.223	20.08
842.394	38.9
842.565	51.73
842.736	51.23
842.906	45.51
843.077	69.14
843.248	70.4
843.418	71.22
843.589	75.46
843.759	77.23
843.93	83.98
844.101	78.16
844.271	75.49
844.442	83.19
844.612	85.74
844.783	66.41
844.953	68.29
845.123	61.94
845.294	64.13
845.464	57.62
845.635	49.23
845.805	51.89
845.975	43.9
846.146	30.13
846.316	32.55
846.486	41.5
846.656	49.32
846.827	49.72
846.997	60.16
847.167	69.82
847.337	69.54
847.507	66.75
847.677	80.34
847.848	78.26
848.018	79.52
848.188	75.21
848.358	70.69
848.528	79.2
848.698	61.04
848.868	43.85
849.038	40.34
849.208	49.04
849.378	42.96
849.548	59.98
849.718	59.3
849.887	55.8
850.057	44.65
850.227	39.98
850.397	27.85
850.567	21
850.737	8.95
850.906	11.77
851.076	24.55
851.246	42.23
851.415	53.82
851.585	48.39
851.755	53.57
851.924	65.6
852.094	54.29
852.264	52.82
852.433	51.27
852.603	51.36
852.772	51.71
852.942	44.31
853.111	49.03
853.281	55.65
853.45	60.52
853.62	39.33
853.789	24.45
853.959	24.62
854.128	20.12
854.297	-2.94
854.467	11.98
854.636	17.89
854.805	46.86
854.975	58.16
855.144	68.98
855.313	86.19
855.482	93.63
855.652	85.82
855.821	84.67
855.99	87.71
856.159	80.95
856.328	61.18
856.497	44.95
856.667	37.96
856.836	30.87
857.005	13.58
857.174	15.84
857.343	6.75
857.512	-6.66
857.681	-7.24
857.85	7.79
858.019	13.9
858.188	18.5
858.356	-3.19
858.525	19.78
858.694	38.43
858.863	41.15
859.032	45.53
859.201	46.38
859.369	57.86
859.538	66.62
859.707	66.88
859.876	67.04
860.044	79.78
860.213	49.16
860.382	42.56
860.55	49.04
860.719	66.14
860.888	60.45
861.056	61.71
861.225	59.84
861.393	78.47
861.562	70.36
861.73	41.43
861.899	1.98
862.067	17.75
862.236	9.72
862.404	12.65
862.572	-2.36
862.741	2.5
862.909	10.3
863.078	18.94
863.246	5.05
863.414	17.13
863.582	0.98
863.751	8.43
863.919	23.26
864.087	26.14
864.255	27.08
864.424	37.04
864.592	39.51
864.76	55.96
864.928	56.05
865.096	42.84
865.264	46.87
865.432	41.22
865.6	23.47
865.768	14.86
865.936	-0.3
866.104	-16.45
866.272	3.93
866.44	-49.11
866.608	-22.04
866.776	19.5
866.944	15.27
867.112	-11
867.28	-29.76
867.448	-7.44
867.615	19.79
867.783	-9.69
867.951	-29.6
868.119	10.65
868.286	24.72
868.454	48.78
868.622	29.86
868.789	44.77
868.957	51.9
869.125	40.88
869.292	38.66
869.46	40.98
869.627	22.03
869.795	22.52
869.963	15.46
870.13	25.66
870.298	31.58
870.465	-2.96
870.632	-8.53
870.8	-7.78
870.967	7.88
871.135	7.52
871.302	11.62
871.469	16.64
871.637	15.14
871.804	26.86
871.971	33.25
872.139	44.43
872.306	42.99
872.473	36.58
872.64	31.3
872.807	52.97
872.975	65.64
873.142	65.51
873.309	35.37
873.476	20.92
873.643	70.67
873.81	68.06
873.977	45.98
874.144	-0.91
874.311	-37.69
874.478	-45.53
874.645	-43.97
874.812	-25.53
874.979	-49.11
875.146	-114.14
875.313	-90.1
875.48	-27.39
875.647	-22.61
875.813	-30.92
875.98	-10.65
876.147	42.36
876.314	62.21
876.481	22.76
876.647	23.77
876.814	42.18
876.981	44.84
877.147	38.56
877.314	37.47
877.481	42.37
877.647	40.15
877.814	39.44
877.98	37.14
878.147	35.04
878.314	19.34
878.48	10.68
878.647	25.08
878.813	42.87
878.979	55.62
879.146	20.58
879.312	34.33
879.479	55.55
879.645	41.3
879.811	1.72
879.978	4.59
880.144	-3.69
880.31	-12.34
880.477	-37.55
880.643	-203.45
880.809	-17.66
880.975	-39.15
881.142	-28.21
881.308	-36.26
881.474	5.21
881.64	-70.17
881.806	-25.94
881.972	-59.52
882.138	-33.05
882.304	-129.26
882.47	-110.7
882.636	-159.64
882.802	-147.17
882.968	-226.18
883.134	-462.81
883.3	-201.26
883.466	-26.94
883.632	-16.37
883.798	18.4
883.964	20.9
884.129	25.71
884.295	24.32
884.461	-0.47
884.627	-53.99
884.793	-21.87
884.958	-31.67
885.124	-96.4
885.29	-61.6
885.455	-50.11
885.621	-13.2
885.787	-13.59
885.952	-26.74
886.118	0.95
886.283	39.12
886.449	23.63
886.614	36
886.78	41.15
886.945	15.35
887.111	29.91
887.276	4.14
887.442	8.44
887.607	27.87
887.773	14.59
887.938	-16.46
888.103	21.94
888.269	11.17
888.434	11.64
888.599	3.88
888.764	6.14
888.93	19.6
889.095	-5.49
889.26	-5.12
889.425	24.1
889.59	6.11
889.756	-5.98
889.921	-4.03
890.086	5.3
890.251	14.74
890.416	-8.37
890.581	-8.83
890.746	-1.03
890.911	-27.13
891.076	-32.77
891.241	-102.24
891.406	-4.85
891.571	6.34
891.736	-12.32
891.901	21.65
892.065	37.46
892.23	15.57
892.395	0.94
892.56	18.73
892.725	39.21
892.889	18
893.054	-37.08
893.219	-68.51
893.384	-115.75
893.548	-152.5
893.713	704.21
893.878	575
