Data from Ofra_PS_T2_1A_2CX12_Reflection_2.txt Node
Date: Wed Jul 21 17:52:48 EDT 2021
User: Adam
Spectrometer: FLMT01687
Trigger mode: 0
Integration Time (sec): 1.100000E0
Scans to average: 2
Electric dark correction enabled: true
Nonlinearity correction enabled: false
Boxcar width: 2
XAxis mode: Wavelengths
Number of Pixels in Spectrum: 3648
>>>>>Begin Spectral Data<<<<<
179.494	519.8
179.716	598.82
179.937	555.19
180.158	555.69
180.38	926.09
180.601	404.28
180.823	100.45
181.044	-42.77
181.265	152.02
181.486	49.8
181.708	78.23
181.929	477.04
182.15	-185.56
182.372	198.73
182.593	74.3
182.814	52.19
183.035	112.74
183.257	51.85
183.478	-89.31
183.699	-30.06
183.92	-43.94
184.141	-56.24
184.363	-70.85
184.584	13.08
184.805	34.83
185.026	47.19
185.247	49.7
185.468	26.56
185.689	30.07
185.91	18.15
186.132	33.66
186.353	35.61
186.574	90.61
186.795	74.5
187.016	32.2
187.237	19.09
187.458	-29.27
187.679	-34.76
187.9	-20.12
188.121	18.65
188.342	21.11
188.563	74.61
188.784	120.25
189.005	107.97
189.226	128.18
189.447	113.14
189.667	-33.37
189.888	-319.09
190.109	-1390.58
190.33	-777.9
190.551	-1308.63
190.772	-283.23
190.993	-251.25
191.214	-178.77
191.434	-123.44
191.655	-38.62
191.876	-101.2
192.097	-122.16
192.318	-184.99
192.538	-251.54
192.759	-201.24
192.98	-96.44
193.201	-33.72
193.421	12.59
193.642	26.14
193.863	51.32
194.083	39.42
194.304	18.28
194.525	-4.46
194.745	-17.2
194.966	-56.49
195.187	-60.31
195.407	-79.05
195.628	-139.11
195.848	-118.03
196.069	-130.79
196.29	-68.73
196.51	-78.39
196.731	-64.3
196.951	-111.05
197.172	-86.16
197.392	-126.77
197.613	-127.68
197.833	-154
198.054	-105.72
198.274	-70.37
198.495	-83.46
198.715	-53.34
198.936	-59.54
199.156	-70.44
199.377	-169.12
199.597	-145.9
199.817	-157.74
200.038	-76.69
200.258	-117.58
200.479	-41.39
200.699	-41.83
200.919	5.44
201.14	-18.68
201.36	-44.85
201.58	4
201.801	38.39
202.021	-2.45
202.241	-13.62
202.461	-2.1
202.682	-102.93
202.902	-205.02
203.122	-106.35
203.342	-70.62
203.563	-28.44
203.783	0.63
204.003	-28.1
204.223	-28.12
204.443	22.03
204.663	-9.76
204.884	17.21
205.104	66.85
205.324	112.76
205.544	82.71
205.764	91.66
205.984	88.27
206.204	79.85
206.424	54.09
206.644	39.9
206.864	57.06
207.084	12.05
207.304	4.05
207.525	-95.55
207.745	-2.77
207.964	-10.72
208.184	-62.97
208.404	-107.08
208.624	-108.22
208.844	-118.25
209.064	-461
209.284	-421.96
209.504	-201.45
209.724	-49.05
209.944	-40.06
210.164	10.6
210.384	23.45
210.604	8.86
210.823	-50.15
211.043	-72.45
211.263	-73.84
211.483	-69.99
211.703	-125.98
211.922	-106.39
212.142	-23.72
212.362	0.93
212.582	-25.57
212.801	1.94
213.021	-4.04
213.241	-28
213.461	-68.44
213.68	-75.26
213.9	-68.62
214.12	-49.64
214.339	-124.37
214.559	-109.5
214.779	-34.01
214.998	-16.81
215.218	-42.75
215.438	3.28
215.657	23.59
215.877	10.37
216.096	29.34
216.316	39.14
216.535	34.71
216.755	16.62
216.974	-58.74
217.194	-134.31
217.413	-155.77
217.633	-156.68
217.852	-250.43
218.072	-108.71
218.291	-59.12
218.511	0.43
218.73	-17.19
218.95	-14.14
219.169	-11.32
219.389	-56.84
219.608	-54.14
219.827	-55.82
220.047	-41.5
220.266	-32.04
220.485	-4.52
220.705	-3.92
220.924	-14.5
221.143	24.12
221.363	-6.67
221.582	-2.2
221.801	11.93
222.021	29.68
222.24	-38.09
222.459	94.54
222.678	83.79
222.897	26.15
223.117	-35.73
223.336	-45.53
223.555	-85.74
223.774	-52.7
223.993	-73.08
224.213	-0.95
224.432	-16.05
224.651	22.11
224.87	-8.52
225.089	18.75
225.308	19.64
225.527	37.92
225.746	31.22
225.965	28.58
226.184	-0.22
226.404	6.62
226.623	-20.46
226.842	-10.3
227.061	6.13
227.28	23.5
227.499	4.18
227.718	34.1
227.936	12.78
228.155	28.61
228.374	8.98
228.593	26.93
228.812	15.93
229.031	26.13
229.25	-37.93
229.469	-44.49
229.688	-46.87
229.907	-20.32
230.125	-7.59
230.344	7.4
230.563	30.85
230.782	46.93
231.001	-18.53
231.22	-23.54
231.438	8.69
231.657	-2.43
231.876	-31.74
232.095	28.92
232.313	36.33
232.532	32.83
232.751	8.7
232.969	-3.25
233.188	-97.62
233.407	-50.2
233.625	-42.09
233.844	-72.6
234.063	-50.5
234.281	-24.07
234.5	-25.81
234.719	-20.79
234.937	19.54
235.156	17.97
235.374	18.86
235.593	-1.62
235.811	-11.07
236.03	-38.36
236.249	-77.48
236.467	-69.9
236.686	-22.02
236.904	-7.98
237.123	-39.29
237.341	-29.43
237.559	-26.97
237.778	-43.66
237.996	-67.78
238.215	-3.23
238.433	13.33
238.652	17.78
238.87	-18.12
239.088	4
239.307	-1.1
239.525	-17.32
239.743	-37.97
239.962	9.85
240.18	-40.89
240.398	-103.26
240.617	-113.99
240.835	-104.16
241.053	-99.79
241.271	-27.71
241.49	9.81
241.708	-3.08
241.926	-27.7
242.144	-30.43
242.363	-115.85
242.581	-159.12
242.799	-110.62
243.017	-60.14
243.235	-85.44
243.453	-52.3
243.672	-31.81
243.89	-11.43
244.108	-16.94
244.326	11.47
244.544	23.09
244.762	16.21
244.98	5.58
245.198	13.72
245.416	-28.54
245.634	-37.09
245.852	-42.22
246.07	-56.28
246.288	-63.34
246.506	-71.3
246.724	-45.56
246.942	-42.58
247.16	5.98
247.378	25.37
247.596	56.93
247.814	43
248.032	11.88
248.25	-6.97
248.468	-15.11
248.685	-8.13
248.903	15.66
249.121	19.25
249.339	-13.86
249.557	-29.49
249.775	-22.68
249.992	-94
250.21	-65.19
250.428	-37.59
250.646	-58.54
250.863	-90.32
251.081	-53
251.299	-82.3
251.517	-86.29
251.734	-57.46
251.952	-49.48
252.17	-32.34
252.387	-13.41
252.605	-30.23
252.823	-24.75
253.04	-10.02
253.258	2.66
253.475	-8.65
253.693	43.77
253.911	50.13
254.128	48.94
254.346	53.29
254.563	26.09
254.781	-7.07
254.998	-56.75
255.216	-72.29
255.433	-57.61
255.651	2.54
255.868	33.29
256.086	79.57
256.303	58.68
256.521	27.3
256.738	-0.66
256.956	-39.63
257.173	-62.61
257.39	-53.47
257.608	-69.03
257.825	-23.86
258.043	30.26
258.26	25.19
258.477	69.23
258.695	75.5
258.912	38.76
259.129	24.76
259.346	8.95
259.564	-36.35
259.781	-50.17
259.998	10.4
260.216	19.3
260.433	55.14
260.65	63.73
260.867	74.97
261.084	38.05
261.302	16.36
261.519	9.55
261.736	-35.54
261.953	-70.57
262.17	-22.29
262.387	-31.47
262.604	-78.86
262.822	-64.74
263.039	-50.02
263.256	-119.6
263.473	-73.79
263.69	-49.3
263.907	1.4
264.124	25.78
264.341	24.58
264.558	7.47
264.775	32.6
264.992	6.93
265.209	7.28
265.426	44.1
265.643	55.95
265.86	59.9
266.077	71.18
266.294	62.75
266.51	-1.02
266.727	-23.67
266.944	-35.72
267.161	-42.78
267.378	-33.34
267.595	7.84
267.812	-17.89
268.028	-32.76
268.245	-8.25
268.462	-36.56
268.679	-52.16
268.896	5.2
269.112	15.8
269.329	-2.62
269.546	-6.96
269.763	-19.78
269.979	-42.01
270.196	-47.54
270.413	-61.64
270.629	-77.25
270.846	-73.6
271.063	-49.81
271.279	-63.77
271.496	-59.85
271.712	-14.48
271.929	16.21
272.146	-19.41
272.362	-15.25
272.579	21.73
272.795	26.9
273.012	11.28
273.228	9.98
273.445	-7.75
273.661	-33.44
273.878	-85.41
274.094	-60.92
274.311	-80.15
274.527	8.5
274.744	-4.74
274.96	12.55
275.177	9.09
275.393	33.41
275.609	14.74
275.826	35.43
276.042	24
276.259	26.31
276.475	37.57
276.691	24.87
276.908	1.58
277.124	23.16
277.34	20.19
277.557	5.16
277.773	-5.84
277.989	-1.34
278.205	-18.58
278.422	-14.32
278.638	-17.73
278.854	12.35
279.07	-4.67
279.286	5.05
279.503	-20.82
279.719	-36.83
279.935	-69.66
280.151	-60.66
280.367	-57.97
280.583	-60.27
280.799	-42.13
281.016	-74.13
281.232	-31.17
281.448	-18.56
281.664	9.47
281.88	-18.49
282.096	12.5
282.312	22.61
282.528	31.08
282.744	20.4
282.96	44.33
283.176	26.49
283.392	14.98
283.608	-3.19
283.824	0.98
284.04	-2.5
284.256	4.7
284.471	-15.75
284.687	-0.52
284.903	21.81
285.119	41.59
285.335	14.79
285.551	30.32
285.767	-11.54
285.982	-37.46
286.198	-94.22
286.414	-15.35
286.63	-4.31
286.846	32.39
287.061	8.53
287.277	44.33
287.493	-3.31
287.709	22.56
287.924	1.85
288.14	32.93
288.356	29.66
288.571	60.33
288.787	30.67
289.003	33.31
289.218	11.7
289.434	-17.52
289.65	-18.62
289.865	-29.33
290.081	-8.68
290.296	0.02
290.512	-7.09
290.727	-41.34
290.943	-40.42
291.159	-57.55
291.374	-62.73
291.59	-83
291.805	-50.99
292.021	-31.86
292.236	-32.13
292.451	-3.57
292.667	3.84
292.882	5.91
293.098	-7.68
293.313	-27.84
293.529	-67.87
293.744	-76.33
293.959	-81.54
294.175	-67.7
294.39	-14.57
294.605	2.38
294.821	32.81
295.036	39.49
295.251	51.94
295.467	0.75
295.682	-10.19
295.897	-76.22
296.112	-82.2
296.328	-97.35
296.543	-96.49
296.758	-91.62
296.973	-33.79
297.188	8.22
297.404	-16.33
297.619	-20.59
297.834	-32.68
298.049	-46.78
298.264	-77.2
298.479	-14.88
298.694	1.53
298.909	22.81
299.125	23.96
299.34	33.57
299.555	8.08
299.77	22.27
299.985	-14.08
300.2	-57.73
300.415	-72.19
300.63	-25.71
300.845	-51.65
301.06	-43.98
301.275	-18.13
301.49	-5.2
301.704	-23.99
301.919	-33.8
302.134	-43.04
302.349	-50.55
302.564	-110.94
302.779	-157.3
302.994	-147.14
303.209	-82.36
303.423	-16.54
303.638	41.37
303.853	18.53
304.068	20.58
304.283	15.23
304.497	-4.36
304.712	-20.85
304.927	-2.17
305.142	-2.47
305.356	1.87
305.571	-0.31
305.786	-6.8
306	-31.01
306.215	-31.27
306.43	-70.06
306.644	-60.09
306.859	1.87
307.074	12.87
307.288	-31.5
307.503	-21.43
307.717	-21.44
307.932	-37.42
308.147	-36.08
308.361	-2.69
308.576	-13.53
308.79	-69.61
309.005	-61.73
309.219	-56.13
309.434	-54.22
309.648	-53.69
309.863	-8.95
310.077	-1.75
310.292	2.9
310.506	-7.24
310.72	18.06
310.935	25.39
311.149	17.92
311.364	34.33
311.578	41.94
311.792	22.4
312.007	18.6
312.221	-6.65
312.435	-19.67
312.649	-36.28
312.864	-29.41
313.078	-14.66
313.292	61.62
313.507	37.69
313.721	64.35
313.935	25.78
314.149	18.42
314.363	-1.08
314.578	6.44
314.792	13.63
315.006	10.23
315.22	23.8
315.434	21.04
315.648	35.21
315.862	24.37
316.077	25.55
316.291	-3.05
316.505	7.77
316.719	-28.58
316.933	-19.39
317.147	-24.18
317.361	-80.94
317.575	-103.03
317.789	-137.36
318.003	-248.38
318.217	-196.55
318.431	-74.1
318.645	-18.02
318.859	-12.67
319.073	36.03
319.287	13.84
319.5	-14.35
319.714	-62.86
319.928	-80.22
320.142	-111.59
320.356	-48.29
320.57	-29.87
320.784	-31.37
320.997	-36.41
321.211	-53.22
321.425	-106.29
321.639	-123.97
321.853	-59.31
322.066	-41.27
322.28	-41.32
322.494	-24.23
322.707	-2.11
322.921	-12.38
323.135	-7.7
323.349	23.71
323.562	3.68
323.776	-6.59
323.989	-8.24
324.203	-40.8
324.417	-57.22
324.63	-74.56
324.844	-80.64
325.057	-82.68
325.271	-38.77
325.485	-19.34
325.698	6.2
325.912	22.67
326.125	0.81
326.339	-6.65
326.552	-39.3
326.766	-50.41
326.979	-37.73
327.193	9.9
327.406	-6.39
327.619	1.76
327.833	19.76
328.046	-11.57
328.26	-43.52
328.473	-5.89
328.686	-42.9
328.9	-28.37
329.113	4.42
329.326	-30.28
329.54	-35.25
329.753	-19.95
329.966	-66.71
330.179	-72.6
330.393	-23.98
330.606	-19.03
330.819	-4.46
331.032	16.24
331.246	18.3
331.459	44.75
331.672	42.19
331.885	30.54
332.098	-0.9
332.311	-10.64
332.525	-78.76
332.738	-73.17
332.951	-23.75
333.164	10.2
333.377	28.76
333.59	43.33
333.803	37.4
334.016	25.36
334.229	24.05
334.442	11.09
334.655	31.45
334.868	40.7
335.081	24.37
335.294	6.01
335.507	10.37
335.72	-5
335.933	-26.45
336.146	-26.24
336.359	-10.59
336.572	-48.19
336.785	-69.28
336.997	-48.83
337.21	-30.24
337.423	-48.45
337.636	-46.76
337.849	-29.89
338.062	-46.99
338.274	-46.95
338.487	-57.99
338.7	-35.82
338.913	-73.19
339.125	-81.51
339.338	-132.28
339.551	-77.73
339.763	-49.66
339.976	-16.41
340.189	6.01
340.402	31.34
340.614	-2.58
340.827	-23.32
341.039	-56.52
341.252	-65.38
341.465	-45.78
341.677	-39.15
341.89	-77.4
342.102	-33.69
342.315	-36.27
342.527	-70.08
342.74	-62.07
342.952	-13.1
343.165	-22.8
343.377	-4.33
343.59	-13.03
343.802	9.62
344.015	0.75
344.227	17.39
344.44	9.28
344.652	24.42
344.864	0.01
345.077	25.36
345.289	20.6
345.502	23.3
345.714	2.94
345.926	17.55
346.139	-1.17
346.351	8.59
346.563	14.79
346.775	30.66
346.988	10.8
347.2	-2.04
347.412	-39
347.624	-56.87
347.837	-82.7
348.049	-36.83
348.261	3.71
348.473	2.25
348.685	2.72
348.897	-5.22
349.11	-27.74
349.322	-49.79
349.534	-17.43
349.746	-9.18
349.958	9.8
350.17	14.19
350.382	26.15
350.594	0.53
350.806	-5.79
351.018	-1.87
351.23	-26.82
351.442	-90.1
351.654	-73.97
351.866	-58.36
352.078	-45.02
352.29	-16.42
352.502	10.36
352.714	26.01
352.926	9.68
353.138	3.24
353.35	-6.81
353.561	-16.77
353.773	-44.64
353.985	-30.11
354.197	-31.43
354.409	-29.79
354.621	-32.42
354.832	-20.07
355.044	-26.16
355.256	-36.14
355.468	-15.95
355.679	-20.6
355.891	-21.85
356.103	-43.63
356.314	-20.72
356.526	-40.77
356.738	-28.34
356.949	-40.39
357.161	-1.23
357.373	-15.61
357.584	-21.44
357.796	-14.64
358.008	-18.32
358.219	-8.51
358.431	-15.9
358.642	-6.01
358.854	-2.38
359.065	-12.18
359.277	-54.36
359.488	-54.79
359.7	-76.37
359.911	-93.83
360.123	-49.16
360.334	-50.34
360.546	-66.42
360.757	-72.96
360.969	-58.65
361.18	-70.31
361.391	-27.94
361.603	-23.16
361.814	-0.17
362.025	-10.11
362.237	-20.95
362.448	-20.51
362.659	6.62
362.871	6.74
363.082	10.13
363.293	18.81
363.504	3.35
363.716	-29.71
363.927	-38.66
364.138	-64.09
364.349	-80.18
364.56	-71.77
364.772	-53.9
364.983	-34.56
365.194	-25.03
365.405	-4.82
365.616	15.38
365.827	20.65
366.038	-3.74
366.25	-3.08
366.461	-50.02
366.672	-33.96
366.883	-11.82
367.094	9.86
367.305	-2.17
367.516	21.2
367.727	-3.55
367.938	-22.78
368.149	-33.73
368.36	-14.01
368.571	-16.1
368.781	-26.8
368.992	-40.4
369.203	-52.75
369.414	-74.63
369.625	-82.11
369.836	-69.03
370.047	-72.18
370.258	-49.68
370.468	-35.72
370.679	-50.9
370.89	-39.62
371.101	-24.56
371.312	-39.61
371.522	-36.86
371.733	-24.93
371.944	-14.19
372.155	-1.72
372.365	-5.3
372.576	-11.69
372.787	-13.63
372.997	-50.24
373.208	-54.36
373.419	-18.73
373.629	-52.13
373.84	-41.68
374.05	-38.65
374.261	-36.49
374.472	-59.29
374.682	-4.43
374.893	-16.95
375.103	21.49
375.314	16.35
375.524	19.18
375.735	15.74
375.945	21.1
376.156	-8.09
376.366	-3.31
376.577	-5.36
376.787	-13.58
376.997	-6.28
377.208	1.86
377.418	-8.92
377.629	-2.95
377.839	-4.77
378.049	-4
378.26	8.73
378.47	15.15
378.68	1.42
378.89	-7.38
379.101	-17
379.311	-56.67
379.521	-99.18
379.732	-87.73
379.942	-73.02
380.152	-94.94
380.362	-57
380.572	-32.56
380.783	-17.7
380.993	-4.31
381.203	16.63
381.413	29.56
381.623	34.64
381.833	20.39
382.043	7.42
382.253	-3.96
382.463	-10.34
382.674	-27.41
382.884	-44.36
383.094	-36.33
383.304	-27.14
383.514	-14.84
383.724	2.75
383.934	2.38
384.144	-13.86
384.353	-27.3
384.563	-37.27
384.773	-36.76
384.983	-45.07
385.193	-24.78
385.403	-14.9
385.613	-14.49
385.823	-28.99
386.033	-17.75
386.242	-22.68
386.452	-27.29
386.662	-32.44
386.872	-9.62
387.082	-11.08
387.291	-18.94
387.501	-13.12
387.711	-7.52
387.921	-19.59
388.13	-16.66
388.34	1.1
388.55	-5.41
388.759	-6.92
388.969	-2.88
389.179	-9.99
389.388	-15.93
389.598	-7.31
389.807	-14.06
390.017	-15.93
390.227	-12.66
390.436	-13.36
390.646	-16.05
390.855	-9.2
391.065	-8.51
391.274	-9.6
391.484	-11.24
391.693	-7.23
391.903	-6.87
392.112	-0.78
392.322	3.58
392.531	6.53
392.74	5.86
392.95	1.59
393.159	-4.14
393.369	-6.07
393.578	-6.7
393.787	-7.79
393.997	-5.18
394.206	-5.23
394.415	-3.71
394.625	-4.81
394.834	-5.58
395.043	-4.86
395.252	-1.82
395.462	0.04
395.671	1.71
395.88	2.47
396.089	2.47
396.298	0.06
396.508	-0.74
396.717	-1.62
396.926	-0.77
397.135	-0.86
397.344	-0.46
397.553	0.2
397.762	2.03
397.971	1.82
398.181	1.87
398.39	1.38
398.599	0.55
398.808	-0.26
399.017	0.88
399.226	2.29
399.435	3.3
399.644	3.7
399.853	3.41
400.062	2.54
400.27	1.66
400.479	1.32
400.688	0.25
400.897	0.73
401.106	0.75
401.315	0.52
401.524	0.48
401.733	1.8
401.941	2.17
402.15	2.61
402.359	2.61
402.568	3.14
402.777	3.32
402.985	2.93
403.194	2.57
403.403	2.61
403.612	2.02
403.82	1.48
404.029	1.71
404.238	1.5
404.446	2.03
404.655	1.86
404.864	1.73
405.072	1.42
405.281	1.82
405.489	1.29
405.698	1.53
405.906	1.7
406.115	1.8
406.324	1.62
406.532	1.82
406.741	2.11
406.949	2.07
407.158	1.98
407.366	2.1
407.574	2
407.783	1.8
407.991	1.64
408.2	1.85
408.408	1.75
408.617	1.83
408.825	1.76
409.033	1.88
409.242	1.97
409.45	2.02
409.658	1.86
409.867	2.03
410.075	1.95
410.283	1.66
410.491	1.58
410.7	1.55
410.908	1.5
411.116	1.85
411.324	1.9
411.533	1.99
411.741	2.23
411.949	2.2
412.157	1.86
412.365	1.92
412.573	1.89
412.781	1.89
412.99	1.88
413.198	2.11
413.406	2.06
413.614	2.02
413.822	1.89
414.03	1.75
414.238	1.49
414.446	1.62
414.654	1.53
414.862	1.67
415.07	1.81
415.278	2.06
415.486	1.76
415.694	1.89
415.902	1.71
416.109	1.54
416.317	1.51
416.525	1.51
416.733	1.47
416.941	1.64
417.149	1.59
417.357	1.62
417.564	1.84
417.772	2.01
417.98	1.86
418.188	2.05
418.395	1.93
418.603	1.93
418.811	1.58
419.019	1.57
419.226	1.8
419.434	1.94
419.642	1.76
419.849	1.98
420.057	2.04
420.265	1.95
420.472	1.76
420.68	1.82
420.887	1.59
421.095	1.62
421.302	1.6
421.51	1.85
421.717	1.89
421.925	2.02
422.132	1.83
422.34	1.46
422.547	1.32
422.755	1.23
422.962	1.21
423.17	1.25
423.377	1.47
423.585	1.51
423.792	1.42
423.999	1.39
424.207	1.42
424.414	1.57
424.621	1.57
424.829	1.64
425.036	1.7
425.243	1.77
425.451	1.54
425.658	1.32
425.865	1.54
426.072	1.52
426.28	1.74
426.487	1.84
426.694	1.98
426.901	1.72
427.108	1.77
427.315	1.52
427.523	1.71
427.73	1.81
427.937	1.79
428.144	1.57
428.351	1.62
428.558	1.59
428.765	1.42
428.972	1.43
429.179	1.75
429.386	1.93
429.593	1.7
429.8	1.59
430.007	1.8
430.214	1.78
430.421	1.5
430.628	1.36
430.835	1.26
431.042	1.32
431.249	1.37
431.456	1.4
431.662	1.62
431.869	1.9
432.076	1.82
432.283	1.82
432.49	1.89
432.697	1.87
432.903	1.63
433.11	1.6
433.317	1.67
433.524	1.84
433.73	1.81
433.937	2.05
434.144	1.88
434.35	1.7
434.557	1.57
434.764	1.56
434.97	1.41
435.177	1.66
435.384	1.61
435.59	1.62
435.797	1.89
436.003	2.01
436.21	1.94
436.416	2.03
436.623	2
436.829	1.86
437.036	1.9
437.242	1.87
437.449	1.75
437.655	1.74
437.862	1.76
438.068	1.64
438.275	1.71
438.481	1.91
438.687	1.88
438.894	1.79
439.1	1.81
439.307	1.91
439.513	1.84
439.719	1.81
439.926	1.93
440.132	1.9
440.338	1.74
440.544	1.89
440.751	1.89
440.957	1.91
441.163	1.88
441.369	1.98
441.575	1.76
441.782	1.77
441.988	1.65
442.194	1.6
442.4	1.59
442.606	1.8
442.812	1.9
443.018	2.03
443.224	2.11
443.431	2.2
443.637	2.04
443.843	1.88
444.049	1.79
444.255	1.75
444.461	1.74
444.667	1.73
444.873	1.88
445.079	1.81
445.284	1.83
445.49	1.58
445.696	1.43
445.902	1.25
446.108	1.25
446.314	1.26
446.52	1.34
446.726	1.56
446.931	1.65
447.137	1.76
447.343	1.77
447.549	1.67
447.755	1.56
447.96	1.61
448.166	1.51
448.372	1.42
448.578	1.49
448.783	1.49
448.989	1.54
449.195	1.75
449.4	1.85
449.606	1.83
449.812	1.77
450.017	1.76
450.223	1.56
450.428	1.45
450.634	1.59
450.84	1.7
451.045	1.57
451.251	1.52
451.456	1.87
451.662	1.91
451.867	2.01
452.073	1.99
452.278	2.1
452.483	2.09
452.689	1.89
452.894	1.89
453.1	1.9
453.305	1.81
453.51	1.68
453.716	1.65
453.921	1.59
454.127	1.59
454.332	1.6
454.537	1.47
454.742	1.55
454.948	1.55
455.153	1.58
455.358	1.72
455.563	1.89
455.769	1.96
455.974	1.91
456.179	1.76
456.384	1.69
456.589	1.69
456.795	1.52
457	1.53
457.205	1.85
457.41	1.74
457.615	1.65
457.82	1.75
458.025	1.76
458.23	1.56
458.435	1.75
458.64	1.61
458.845	1.77
459.05	1.8
459.255	1.75
459.46	1.64
459.665	1.72
459.87	1.62
460.075	1.57
460.28	1.63
460.485	1.71
460.69	1.77
460.895	1.58
461.099	1.55
461.304	1.67
461.509	1.64
461.714	1.51
461.919	1.72
462.123	1.67
462.328	1.72
462.533	1.67
462.738	1.82
462.942	1.7
463.147	1.77
463.352	1.73
463.556	1.78
463.761	1.79
463.966	1.81
464.17	1.89
464.375	1.73
464.58	1.62
464.784	1.54
464.989	1.47
465.193	1.46
465.398	1.53
465.602	1.75
465.807	1.69
466.011	1.8
466.216	1.76
466.42	1.81
466.625	1.75
466.829	1.87
467.034	1.88
467.238	2.12
467.443	2.06
467.647	1.97
467.851	2.01
468.056	2.07
468.26	1.93
468.464	1.91
468.669	2.05
468.873	2.15
469.077	2.11
469.282	2.11
469.486	2.13
469.69	2.08
469.894	1.88
470.099	1.92
470.303	2.04
470.507	1.95
470.711	1.85
470.915	1.82
471.119	1.7
471.324	1.58
471.528	1.65
471.732	1.72
471.936	1.72
472.14	1.8
472.344	1.81
472.548	1.81
472.752	2.01
472.956	2.25
473.16	2.2
473.364	2.16
473.568	2.19
473.772	2.06
473.976	1.89
474.18	1.96
474.384	1.98
474.588	1.91
474.792	1.8
474.995	1.86
475.199	1.89
475.403	1.93
475.607	1.96
475.811	1.97
476.015	1.99
476.218	2.05
476.422	1.94
476.626	2.05
476.83	2.16
477.033	2.12
477.237	1.92
477.441	1.98
477.644	1.85
477.848	1.88
478.052	1.82
478.255	1.88
478.459	1.87
478.663	2.01
478.866	1.97
479.07	2.02
479.273	2.13
479.477	2.19
479.681	2.19
479.884	2.14
480.088	2.07
480.291	1.98
480.495	2.01
480.698	2.02
480.901	2.1
481.105	2.26
481.308	2.21
481.512	2.11
481.715	2.16
481.919	2.16
482.122	2.09
482.325	2.16
482.529	2.23
482.732	2.17
482.935	2.13
483.138	2.06
483.342	2.15
483.545	2.23
483.748	2.3
483.952	2.34
484.155	2.5
484.358	2.49
484.561	2.45
484.764	2.36
484.967	2.41
485.171	2.44
485.374	2.42
485.577	2.44
485.78	2.48
485.983	2.51
486.186	2.38
486.389	2.29
486.592	2.28
486.795	2.25
486.998	2.22
487.201	2.3
487.404	2.39
487.607	2.46
487.81	2.47
488.013	2.5
488.216	2.47
488.419	2.47
488.622	2.37
488.825	2.3
489.028	2.18
489.231	2.17
489.433	2.12
489.636	2.06
489.839	2.15
490.042	2.09
490.245	2.08
490.447	2.11
490.65	2.13
490.853	2.09
491.056	2.23
491.258	2.3
491.461	2.33
491.664	2.45
491.866	2.41
492.069	2.49
492.272	2.4
492.474	2.45
492.677	2.47
492.879	2.57
493.082	2.57
493.285	2.76
493.487	2.69
493.69	2.59
493.892	2.46
494.095	2.39
494.297	2.24
494.5	2.29
494.702	2.31
494.905	2.38
495.107	2.43
495.309	2.43
495.512	2.52
495.714	2.58
495.917	2.61
496.119	2.55
496.321	2.66
496.524	2.6
496.726	2.56
496.928	2.63
497.13	2.65
497.333	2.58
497.535	2.63
497.737	2.63
497.939	2.58
498.142	2.64
498.344	2.61
498.546	2.46
498.748	2.5
498.95	2.64
499.152	2.57
499.355	2.61
499.557	2.73
499.759	2.78
499.961	2.67
500.163	2.72
500.365	2.77
500.567	2.83
500.769	2.76
500.971	2.8
501.173	2.76
501.375	2.79
501.577	2.7
501.779	2.72
501.981	2.72
502.183	2.78
502.385	2.77
502.587	2.78
502.788	2.89
502.99	2.9
503.192	2.99
503.394	2.96
503.596	3.01
503.798	3.05
503.999	3.08
504.201	3.01
504.403	3.08
504.605	3.08
504.806	2.96
505.008	2.96
505.21	3.05
505.411	3.04
505.613	3.05
505.815	3.11
506.016	3.2
506.218	3.25
506.42	3.24
506.621	3.28
506.823	3.3
507.024	3.16
507.226	3.13
507.427	3.11
507.629	3.11
507.83	3.18
508.032	3.21
508.233	3.25
508.435	3.34
508.636	3.43
508.838	3.37
509.039	3.41
509.24	3.44
509.442	3.41
509.643	3.32
509.845	3.34
510.046	3.41
510.247	3.42
510.448	3.47
510.65	3.51
510.851	3.57
511.052	3.53
511.254	3.5
511.455	3.61
511.656	3.69
511.857	3.82
512.058	3.82
512.26	3.85
512.461	3.75
512.662	3.75
512.863	3.57
513.064	3.55
513.265	3.55
513.466	3.57
513.667	3.56
513.868	3.63
514.069	3.76
514.27	3.87
514.471	3.84
514.672	3.84
514.873	3.82
515.074	3.82
515.275	3.67
515.476	3.71
515.677	3.71
515.878	3.83
516.079	3.78
516.28	3.84
516.481	3.93
516.682	3.94
516.882	3.83
517.083	3.83
517.284	3.8
517.485	3.73
517.686	3.72
517.886	3.73
518.087	3.81
518.288	3.86
518.488	3.85
518.689	3.86
518.89	3.83
519.091	3.83
519.291	3.83
519.492	3.85
519.692	3.94
519.893	4.06
520.094	4.04
520.294	4.04
520.495	4.02
520.695	4.02
520.896	3.98
521.096	4.04
521.297	4.04
521.497	4.03
521.698	3.99
521.898	3.99
522.099	3.98
522.299	4.03
522.499	4.06
522.7	4.06
522.9	4.04
523.101	4.1
523.301	4.06
523.501	4.06
523.702	4.1
523.902	4.18
524.102	4.17
524.302	4.17
524.503	4.25
524.703	4.24
524.903	4.19
525.103	4.1
525.304	4.24
525.504	4.23
525.704	4.3
525.904	4.33
526.104	4.36
526.304	4.29
526.504	4.29
526.705	4.27
526.905	4.33
527.105	4.38
527.305	4.33
527.505	4.27
527.705	4.25
527.905	4.2
528.105	4.21
528.305	4.21
528.505	4.28
528.705	4.35
528.905	4.34
529.105	4.32
529.304	4.41
529.504	4.49
529.704	4.45
529.904	4.49
530.104	4.48
530.304	4.53
530.503	4.45
530.703	4.36
530.903	4.34
531.103	4.36
531.303	4.3
531.502	4.34
531.702	4.49
531.902	4.54
532.101	4.56
532.301	4.54
532.501	4.54
532.7	4.49
532.9	4.48
533.1	4.46
533.299	4.51
533.499	4.54
533.698	4.52
533.898	4.52
534.097	4.55
534.297	4.62
534.496	4.57
534.696	4.67
534.895	4.75
535.095	4.87
535.294	4.79
535.494	4.74
535.693	4.71
535.892	4.72
536.092	4.61
536.291	4.64
536.491	4.76
536.69	4.82
536.889	4.77
537.088	4.76
537.288	4.82
537.487	4.87
537.686	4.84
537.886	4.89
538.085	4.97
538.284	5.09
538.483	5.02
538.682	5.08
538.882	5.09
539.081	5.13
539.28	5
539.479	5.04
539.678	5.01
539.877	5.13
540.076	5.13
540.275	5.17
540.474	5.23
540.673	5.31
540.872	5.24
541.071	5.24
541.27	5.32
541.469	5.38
541.668	5.42
541.867	5.43
542.066	5.52
542.265	5.54
542.464	5.46
542.663	5.46
542.862	5.63
543.06	5.63
543.259	5.63
543.458	5.7
543.657	5.77
543.856	5.69
544.054	5.66
544.253	5.66
544.452	5.68
544.651	5.76
544.849	5.77
545.048	5.83
545.247	5.93
545.445	6.01
545.644	5.96
545.843	5.97
546.041	5.99
546.24	6.01
546.438	6.06
546.637	6.11
546.836	6.26
547.034	6.36
547.233	6.41
547.431	6.41
547.63	6.44
547.828	6.44
548.027	6.44
548.225	6.45
548.423	6.48
548.622	6.61
548.82	6.57
549.019	6.63
549.217	6.75
549.415	6.8
549.614	6.85
549.812	6.89
550.01	6.85
550.209	6.85
550.407	6.92
550.605	6.9
550.803	7.04
551.002	7.19
551.2	7.25
551.398	7.3
551.596	7.42
551.794	7.44
551.993	7.48
552.191	7.48
552.389	7.59
552.587	7.64
552.785	7.67
552.983	7.71
553.181	7.84
553.379	7.86
553.577	7.85
553.775	7.92
553.973	7.96
554.171	8.05
554.369	8.04
554.567	8.07
554.765	8.19
554.963	8.31
555.161	8.23
555.359	8.3
555.557	8.43
555.755	8.48
555.952	8.62
556.15	8.75
556.348	8.91
556.546	9.05
556.744	9.1
556.941	9.04
557.139	9.18
557.337	9.15
557.535	9.12
557.732	9.22
557.93	9.4
558.128	9.42
558.325	9.52
558.523	9.58
558.721	9.67
558.918	9.68
559.116	9.82
559.313	9.91
559.511	10.04
559.708	10.03
559.906	10.1
560.104	10.19
560.301	10.29
560.498	10.33
560.696	10.47
560.893	10.54
561.091	10.61
561.288	10.75
561.486	10.84
561.683	10.94
561.88	11.13
562.078	11.2
562.275	11.17
562.473	11.31
562.67	11.45
562.867	11.53
563.064	11.59
563.262	11.64
563.459	11.65
563.656	11.74
563.853	11.72
564.051	11.86
564.248	12.07
564.445	12.21
564.642	12.26
564.839	12.44
565.036	12.49
565.234	12.69
565.431	12.76
565.628	12.85
565.825	12.98
566.022	13.07
566.219	13.08
566.416	13.23
566.613	13.34
566.81	13.39
567.007	13.41
567.204	13.41
567.401	13.42
567.598	13.48
567.795	13.47
567.991	13.54
568.188	13.62
568.385	13.7
568.582	13.77
568.779	13.87
568.976	14.02
569.172	14.19
569.369	14.13
569.566	14.17
569.763	14.24
569.96	14.22
570.156	14.16
570.353	14.25
570.55	14.26
570.746	14.39
570.943	14.45
571.14	14.42
571.336	14.58
571.533	14.67
571.729	14.53
571.926	14.63
572.123	14.8
572.319	14.8
572.516	14.87
572.712	15.08
572.909	15.11
573.105	15.28
573.302	15.25
573.498	15.3
573.695	15.18
573.891	15.19
574.087	15.04
574.284	15.12
574.48	15.01
574.677	15.14
574.873	15.18
575.069	15.36
575.266	15.38
575.462	15.45
575.658	15.54
575.854	15.6
576.051	15.53
576.247	15.48
576.443	15.49
576.639	15.32
576.835	15.23
577.032	15.15
577.228	15.31
577.424	15.37
577.62	15.4
577.816	15.48
578.012	15.55
578.208	15.49
578.404	15.53
578.6	15.64
578.796	15.61
578.993	15.59
579.189	15.6
579.384	15.49
579.58	15.36
579.776	15.36
579.972	15.32
580.168	15.25
580.364	15.32
580.56	15.37
580.756	15.28
580.952	15.18
581.148	15.18
581.343	15.11
581.539	15.15
581.735	15.19
581.931	15.34
582.127	15.37
582.322	15.33
582.518	15.33
582.714	15.29
582.909	15.21
583.105	15.16
583.301	15.16
583.496	15.14
583.692	15.14
583.888	15.09
584.083	15.15
584.279	15.23
584.474	15.16
584.67	15.2
584.866	15.18
585.061	15.03
585.257	15.03
585.452	15.03
585.648	15.02
585.843	15.11
586.039	15.19
586.234	15.12
586.429	15.09
586.625	15.1
586.82	15.02
587.015	14.98
587.211	14.9
587.406	14.93
587.601	14.8
587.797	14.77
587.992	14.74
588.187	14.85
588.383	14.85
588.578	14.96
588.773	15.11
588.968	15.24
589.163	15.23
589.359	15.16
589.554	15.13
589.749	15.04
589.944	15.03
590.139	14.98
590.334	15
590.529	14.98
590.724	15.07
590.919	15.09
591.114	15.17
591.309	15.25
591.504	15.34
591.699	15.3
591.894	15.35
592.089	15.38
592.284	15.39
592.479	15.37
592.674	15.37
592.869	15.42
593.064	15.52
593.259	15.66
593.454	15.9
593.648	15.95
593.843	15.9
594.038	15.98
594.233	15.9
594.428	15.8
594.622	15.86
594.817	16.03
595.012	16
595.206	16.09
595.401	16.14
595.596	16.24
595.79	16.23
595.985	16.34
596.18	16.4
596.374	16.53
596.569	16.6
596.763	16.57
596.958	16.66
597.153	16.83
597.347	16.84
597.542	16.92
597.736	17.04
597.931	17.08
598.125	17.06
598.319	17.2
598.514	17.23
598.708	17.32
598.903	17.41
599.097	17.47
599.291	17.5
599.486	17.53
599.68	17.57
599.874	17.54
600.069	17.57
600.263	17.52
600.457	17.55
600.651	17.61
600.846	17.68
601.04	17.67
601.234	17.71
601.428	17.78
601.622	17.85
601.817	17.81
602.011	17.84
602.205	17.96
602.399	17.98
602.593	17.91
602.787	18.04
602.981	18.06
603.175	18.06
603.369	17.98
603.563	18.04
603.757	17.99
603.951	18.09
604.145	18.08
604.339	18.19
604.533	18.08
604.727	18.1
604.921	18.04
605.115	18.06
605.309	18.1
605.502	18.11
605.696	17.95
605.89	17.89
606.084	17.82
606.278	17.6
606.471	17.55
606.665	17.49
606.859	17.42
607.053	17.3
607.246	17.38
607.44	17.39
607.634	17.39
607.827	17.36
608.021	17.25
608.214	17.11
608.408	16.99
608.602	17
608.795	16.9
608.989	16.89
609.182	16.89
609.376	16.86
609.569	16.76
609.763	16.7
609.956	16.61
610.15	16.38
610.343	16.31
610.537	16.23
610.73	16.28
610.923	16.24
611.117	16.29
611.31	16.23
611.504	16.15
611.697	15.98
611.89	15.95
612.083	15.89
612.277	15.89
612.47	15.82
612.663	15.72
612.856	15.62
613.05	15.53
613.243	15.52
613.436	15.49
613.629	15.48
613.822	15.42
614.015	15.26
614.209	14.97
614.402	14.95
614.595	14.87
614.788	14.8
614.981	14.82
615.174	14.8
615.367	14.69
615.56	14.51
615.753	14.52
615.946	14.43
616.139	14.45
616.332	14.49
616.525	14.51
616.718	14.51
616.911	14.44
617.103	14.36
617.296	14.26
617.489	14.19
617.682	14.02
617.875	14.09
618.067	13.98
618.26	13.8
618.453	13.8
618.646	13.82
618.838	13.83
619.031	13.98
619.224	14.03
619.417	14.05
619.609	14.11
619.802	13.95
619.994	13.86
620.187	13.9
620.38	13.8
620.572	13.6
620.765	13.64
620.957	13.52
621.15	13.31
621.342	13.24
621.535	13.41
621.727	13.36
621.92	13.36
622.112	13.41
622.305	13.48
622.497	13.27
622.69	13.27
622.882	13.31
623.074	13.37
623.267	13.35
623.459	13.3
623.651	13.23
623.844	13.14
624.036	13.1
624.228	13.02
624.42	13.06
624.613	13.16
624.805	13.13
624.997	13.12
625.189	13.1
625.381	13.1
625.574	12.97
625.766	12.88
625.958	12.86
626.15	12.83
626.342	12.8
626.534	12.83
626.726	12.87
626.918	12.83
627.11	12.82
627.302	12.77
627.494	12.67
627.686	12.69
627.878	12.63
628.07	12.63
628.262	12.59
628.454	12.6
628.646	12.55
628.838	12.6
629.029	12.46
629.221	12.59
629.413	12.51
629.605	12.42
629.797	12.37
629.989	12.4
630.18	12.29
630.372	12.23
630.564	12.23
630.755	12.27
630.947	12.31
631.139	12.15
631.33	12.13
631.522	12.27
631.714	12.18
631.905	12.16
632.097	12.12
632.289	12.17
632.48	12
632.672	11.88
632.863	11.73
633.055	11.78
633.246	11.79
633.438	11.77
633.629	11.8
633.821	11.89
634.012	11.92
634.203	11.8
634.395	11.8
634.586	11.81
634.777	11.67
634.969	11.58
635.16	11.66
635.351	11.6
635.543	11.63
635.734	11.67
635.925	11.64
636.117	11.62
636.308	11.62
636.499	11.58
636.69	11.5
636.881	11.45
637.073	11.56
637.264	11.57
637.455	11.54
637.646	11.66
637.837	11.76
638.028	11.61
638.219	11.59
638.41	11.55
638.601	11.43
638.792	11.44
638.983	11.37
639.174	11.33
639.365	11.38
639.556	11.4
639.747	11.37
639.938	11.43
640.129	11.44
640.32	11.31
640.511	11.31
640.701	11.42
640.892	11.35
641.083	11.41
641.274	11.5
641.465	11.5
641.655	11.34
641.846	11.33
642.037	11.23
642.228	11.18
642.418	11.18
642.609	11.19
642.8	11.26
642.99	11.24
643.181	11.31
643.372	11.29
643.562	11.23
643.753	11.11
643.943	11.02
644.134	10.91
644.324	10.9
644.515	10.84
644.705	10.84
644.896	10.91
645.086	10.89
645.277	10.81
645.467	10.89
645.658	10.9
645.848	10.93
646.038	10.97
646.229	11.02
646.419	10.96
646.61	10.88
646.8	10.74
646.99	10.65
647.18	10.58
647.371	10.51
647.561	10.49
647.751	10.58
647.941	10.52
648.132	10.5
648.322	10.54
648.512	10.59
648.702	10.49
648.892	10.48
649.082	10.5
649.272	10.31
649.462	10.2
649.653	10.16
649.843	10.05
650.033	9.97
650.223	9.98
650.413	9.96
650.603	10.01
650.793	10.13
650.983	10.12
651.172	10.14
651.362	10.14
651.552	10.03
651.742	9.91
651.932	9.82
652.122	9.8
652.312	9.88
652.502	9.88
652.691	9.85
652.881	9.83
653.071	9.7
653.261	9.39
653.45	9.31
653.64	9.34
653.83	9.18
654.019	9.13
654.209	9.15
654.399	9.1
654.588	9
654.778	9
654.968	8.97
655.157	8.91
655.347	8.76
655.536	8.57
655.726	8.49
655.915	8.31
656.105	8.19
656.294	8.19
656.484	8.12
656.673	7.96
656.863	7.98
657.052	7.89
657.241	7.67
657.431	7.5
657.62	7.38
657.809	7.06
657.999	6.89
658.188	6.78
658.377	6.64
658.567	6.58
658.756	6.55
658.945	6.46
659.134	6.33
659.324	6.34
659.513	6.29
659.702	6.32
659.891	6.27
660.08	6.17
660.269	6.07
660.458	5.86
660.648	5.67
660.837	5.5
661.026	5.53
661.215	5.43
661.404	5.31
661.593	5.31
661.782	5.13
661.971	5.05
662.16	4.92
662.349	4.94
662.538	4.72
662.726	4.73
662.915	4.55
663.104	4.43
663.293	4.39
663.482	4.46
663.671	4.39
663.86	4.33
664.048	4.41
664.237	4.33
664.426	4.09
664.615	4.15
664.803	4.15
664.992	4
665.181	3.9
665.369	3.9
665.558	3.71
665.747	3.66
665.935	3.78
666.124	3.84
666.312	3.89
666.501	3.93
666.69	3.88
666.878	3.78
667.067	3.64
667.255	3.73
667.444	4.01
667.632	4.11
667.82	4.18
668.009	4.19
668.197	4.1
668.386	3.92
668.574	4
668.762	3.92
668.951	3.9
669.139	3.9
669.327	3.72
669.516	3.74
669.704	3.7
669.892	3.93
670.08	4.03
670.269	4.04
670.457	3.83
670.645	3.77
670.833	3.76
671.021	3.72
671.21	3.84
671.398	4.1
671.586	4.11
671.774	3.93
671.962	4.01
672.15	4.04
672.338	3.89
672.526	4.01
672.714	4
672.902	3.96
673.09	4.09
673.278	4.35
673.466	4.41
673.654	4.69
673.842	4.79
674.03	4.79
674.218	4.64
674.405	4.66
674.593	4.57
674.781	4.61
674.969	4.62
675.157	4.87
675.344	4.96
675.532	5.07
675.72	5.19
675.908	5.28
676.095	5.12
676.283	5.21
676.471	5.36
676.658	5.22
676.846	5.18
677.033	5.28
677.221	5.31
677.409	5.17
677.596	5.31
677.784	5.33
677.971	5.41
678.159	5.42
678.346	5.5
678.534	5.63
678.721	5.88
678.909	5.87
679.096	5.89
679.283	6.14
679.471	6.19
679.658	6.15
679.846	6.39
680.033	6.6
680.22	6.52
680.408	6.48
680.595	6.52
680.782	6.39
680.969	6.33
681.157	6.29
681.344	6.42
681.531	6.57
681.718	6.59
681.905	6.82
682.093	7.05
682.28	7.2
682.467	7.31
682.654	7.54
682.841	7.56
683.028	7.75
683.215	7.95
683.402	7.9
683.589	7.98
683.776	8.17
683.963	8.19
684.15	8.31
684.337	8.61
684.524	8.81
684.711	8.94
684.898	8.91
685.085	9.04
685.271	9.24
685.458	9.37
685.645	9.55
685.832	9.95
686.019	10.16
686.205	10.34
686.392	10.6
686.579	10.76
686.766	11.03
686.952	11.1
687.139	11.44
687.326	11.54
687.512	11.86
687.699	12.11
687.886	12.4
688.072	12.35
688.259	12.82
688.445	13.21
688.632	13.31
688.818	13.88
689.005	14.46
689.191	14.87
689.378	15.4
689.564	16.03
689.751	16.32
689.937	16.74
690.124	17.08
690.31	17.25
690.496	17.78
690.683	18.36
690.869	18.85
691.055	19.38
691.242	20.08
691.428	20.67
691.614	21.23
691.8	21.99
691.987	22.68
692.173	23.14
692.359	23.6
692.545	24.22
692.731	24.48
692.918	25.03
693.104	25.64
693.29	26.31
693.476	26.91
693.662	27.81
693.848	28.45
694.034	28.95
694.22	29.34
694.406	29.94
694.592	30.48
694.778	30.88
694.964	31.54
695.15	32.41
695.336	32.76
695.522	33.4
695.708	34.14
695.894	34.74
696.08	35.27
696.265	36.13
696.451	36.69
696.637	37.52
696.823	38.28
697.009	38.86
697.194	39.59
697.38	40.25
697.566	40.65
697.751	41.21
697.937	42.07
698.123	42.42
698.308	43
698.494	43.85
698.68	44.6
698.865	45.11
699.051	46.02
699.236	46.34
699.422	46.81
699.607	47.08
699.793	47.69
699.978	48.13
700.164	49.08
700.349	49.92
700.535	50.67
700.72	51.02
700.906	51.6
701.091	52.1
701.276	52.32
701.462	53.16
701.647	54.1
701.832	54.55
702.018	54.9
702.203	55.29
702.388	55.22
702.573	55.39
702.759	56.03
702.944	56.48
703.129	56.93
703.314	57.66
703.499	58.09
703.684	58.33
703.87	59.37
704.055	60.36
704.24	60.69
704.425	61.35
704.61	61.71
704.795	61.5
704.98	61.56
705.165	61.92
705.35	62.04
705.535	62.59
705.72	63
705.905	63.33
706.09	64.05
706.275	64.21
706.459	64.21
706.644	64.66
706.829	64.91
707.014	64.79
707.199	65.52
707.384	65.85
707.568	66.05
707.753	66.68
707.938	66.98
708.123	66.97
708.307	67.26
708.492	67.3
708.677	67.19
708.861	67.46
709.046	67.46
709.231	68.01
709.415	68.58
709.6	68.71
709.784	68.82
709.969	69.3
710.153	69.19
710.338	69.48
710.522	69.75
710.707	70.19
710.891	70.38
711.076	70.65
711.26	70.22
711.445	70.6
711.629	71.12
711.813	71.35
711.998	71.86
712.182	72.41
712.366	73.1
712.551	73.3
712.735	73.44
712.919	73.46
713.103	73.94
713.288	73.27
713.472	72.87
713.656	73.33
713.84	73.42
714.024	73.42
714.208	73.74
714.393	74.52
714.577	74.45
714.761	74.36
714.945	74.06
715.129	73.95
715.313	73.89
715.497	73.97
715.681	74.73
715.865	75.21
716.049	75.42
716.233	75.2
716.417	75.47
716.601	75.26
716.785	75.33
716.968	75.74
717.152	76.05
717.336	76.13
717.52	75.87
717.704	75.72
717.888	76.18
718.071	76.52
718.255	76.55
718.439	76.53
718.622	77.28
718.806	77.37
718.99	77.19
719.174	77.05
719.357	77.41
719.541	77.41
719.724	76.85
719.908	77.21
720.092	77.63
720.275	77.96
720.459	77.72
720.642	77.91
720.826	77.81
721.009	77.54
721.193	77.04
721.376	77.3
721.559	77.73
721.743	77.64
721.926	78.48
722.11	79.03
722.293	78.77
722.476	78.37
722.66	78.56
722.843	78.08
723.026	77.54
723.21	78.05
723.393	78.89
723.576	78.7
723.759	78.58
723.942	79.01
724.126	79.04
724.309	78.85
724.492	79.1
724.675	79.21
724.858	79.37
725.041	79.34
725.224	78.79
725.407	78.92
725.59	78.95
725.774	79.11
725.957	78.45
726.14	78.78
726.322	78.61
726.505	78.74
726.688	79.52
726.871	80.06
727.054	80.33
727.237	80.23
727.42	81.3
727.603	80.84
727.786	81.25
727.968	81.47
728.151	81.76
728.334	80.78
728.517	80.69
728.699	81.11
728.882	81.18
729.065	81.16
729.248	82.04
729.43	82.27
729.613	82.35
729.796	82.73
729.978	82.71
730.161	82
730.343	82.15
730.526	82.13
730.708	81.32
730.891	81.83
731.073	82.13
731.256	81.82
731.438	81.97
731.621	82.91
731.803	83.05
731.986	83.13
732.168	83.15
732.35	83.2
732.533	82.8
732.715	82.97
732.898	83.16
733.08	83.73
733.262	83.67
733.444	83.54
733.627	83.59
733.809	84.18
733.991	84.91
734.173	84.1
734.355	84.46
734.538	84.78
734.72	84.28
734.902	84.08
735.084	84.37
735.266	84.36
735.448	84.08
735.63	83.88
735.812	83.53
735.994	85.31
736.176	85.84
736.358	85.14
736.54	86.25
736.722	85.72
736.904	83.92
737.086	83.37
737.268	84.93
737.45	84.87
737.632	84.49
737.814	84.88
737.995	85.26
738.177	84.78
738.359	83.22
738.541	84.91
738.723	85.38
738.904	86.01
739.086	86.1
739.268	86.53
739.449	85.84
739.631	85.32
739.813	84.57
739.994	84.96
740.176	85.9
740.358	85.71
740.539	87.03
740.721	87.5
740.902	87.78
741.084	87.42
741.265	87.06
741.447	87.06
741.628	87.73
741.81	86.72
741.991	87.32
742.172	89
742.354	88.98
742.535	88.4
742.717	89.02
742.898	88.76
743.079	89
743.261	88.3
743.442	87.6
743.623	87.73
743.804	88.33
743.986	87.86
744.167	86.49
744.348	85.45
744.529	85.85
744.71	84.19
744.891	82.89
745.073	83.71
745.254	84.64
745.435	83.67
745.616	84.15
745.797	85.14
745.978	85.12
746.159	85.68
746.34	85.21
746.521	86.6
746.702	85.37
746.883	85.06
747.064	84.3
747.245	84.34
747.426	83.3
747.606	84.12
747.787	85.05
747.968	84.98
748.149	85.29
748.33	85.84
748.51	86.14
748.691	85.36
748.872	86.07
749.053	85.32
749.233	84.32
749.414	83.38
749.595	82.76
749.775	81.37
749.956	81.56
750.137	81.44
750.317	82.21
750.498	84.32
750.678	86.17
750.859	87.26
751.04	87.68
751.22	87.18
751.4	86.26
751.581	85.42
751.761	85.06
751.942	86.86
752.122	87.35
752.303	85.61
752.483	86.01
752.663	85.25
752.844	81.72
753.024	81.73
753.204	83.69
753.385	82.1
753.565	82.83
753.745	84.43
753.925	83.78
754.106	82.79
754.286	84.18
754.466	83.27
754.646	84.38
754.826	83.18
755.006	82.75
755.187	83.14
755.367	83.45
755.547	82.47
755.727	83.38
755.907	84.32
756.087	84.88
756.267	84.91
756.447	85.16
756.627	84.03
756.807	83.95
756.987	81.94
757.167	82.08
757.346	81.73
757.526	81.36
757.706	82.67
757.886	84.79
758.066	86.13
758.246	88.27
758.425	89.5
758.605	87.42
758.785	86.12
758.965	85.87
759.144	83.07
759.324	82.58
759.504	83.71
759.683	83.68
759.863	81.41
760.043	80.27
760.222	80.76
760.402	80.1
760.581	79.28
760.761	81.15
760.94	81.41
761.12	82.43
761.299	82.71
761.479	82.88
761.658	80.18
761.838	81.01
762.017	80.36
762.197	80.48
762.376	81.67
762.555	84.86
762.735	86.04
762.914	84.56
763.093	84.88
763.273	83.09
763.452	82.04
763.631	80.16
763.81	81.64
763.99	80.09
764.169	80.6
764.348	77.53
764.527	77.44
764.706	77.58
764.885	77.94
765.064	76.76
765.243	79.88
765.423	82.19
765.602	81.68
765.781	80.15
765.96	79.27
766.139	78.19
766.318	77.62
766.497	76.96
766.676	78.69
766.854	83.14
767.033	83.03
767.212	81.02
767.391	81.68
767.57	81.92
767.749	79.83
767.928	82.68
768.106	82.96
768.285	80.31
768.464	80.52
768.643	79.55
768.821	77.45
769	79.03
769.179	80.47
769.357	77.7
769.536	78.3
769.715	77.49
769.893	78.08
770.072	76.52
770.25	78.45
770.429	78.53
770.607	77.98
770.786	77.81
770.964	80.15
771.143	78.3
771.321	78.03
771.5	78.96
771.678	76.12
771.857	74.5
772.035	75.23
772.213	74.41
772.392	72.96
772.57	75.74
772.748	77.35
772.927	76.98
773.105	75.91
773.283	77.57
773.461	76.93
773.64	76.14
773.818	76.72
773.996	80.71
774.174	78.61
774.352	74.92
774.531	73.53
774.709	75.63
774.887	72.82
775.065	73.05
775.243	75.52
775.421	74.94
775.599	75.15
775.777	74.3
775.955	72.82
776.133	69.9
776.311	71.31
776.489	66.85
776.667	69.1
776.844	71.95
777.022	72.56
777.2	73.17
777.378	75.75
777.556	74.92
777.734	77.41
777.911	82.61
778.089	81.07
778.267	80.59
778.445	78.78
778.622	75.87
778.8	74.14
778.978	75.35
779.155	76.41
779.333	75.75
779.511	75.09
779.688	75.76
779.866	72.03
780.043	69.33
780.221	70.39
780.398	69.36
780.576	69.59
780.753	73.74
780.931	72.91
781.108	72.32
781.286	73.6
781.463	69.15
781.64	65.94
781.818	69.15
781.995	69.88
782.172	68.55
782.35	72.7
782.527	76.69
782.704	71.86
782.882	71.29
783.059	72.62
783.236	70.86
783.413	70.42
783.59	74.08
783.768	72.91
783.945	73.05
784.122	73.22
784.299	72.6
784.476	69.43
784.653	68.67
784.83	67.4
785.007	63.06
785.184	64.13
785.361	64.17
785.538	68.93
785.715	70.77
785.892	72.46
786.069	70.59
786.246	73.77
786.423	73.1
786.6	71.5
786.776	74.98
786.953	74.83
787.13	76.87
787.307	76.98
787.484	77.83
787.66	75.14
787.837	74.33
788.014	69.75
788.191	67.25
788.367	63.49
788.544	67.39
788.721	67.73
788.897	69.41
789.074	69.08
789.25	68.5
789.427	65.48
789.603	64.48
789.78	68.32
789.956	68.85
790.133	69.06
790.309	73.08
790.486	76.71
790.662	70.71
790.839	69.63
791.015	69.79
791.192	62.91
791.368	62.92
791.544	62.91
791.721	64.01
791.897	64.39
792.073	64.35
792.249	54.24
792.426	58.83
792.602	61.03
792.778	64.27
792.954	62.68
793.13	67.47
793.307	58.78
793.483	51.6
793.659	44.6
793.835	50.9
794.011	52.93
794.187	55.51
794.363	54.62
794.539	64.82
794.715	57.4
794.891	55.29
795.067	53.94
795.243	61.01
795.419	55.26
795.595	56.73
795.771	53.86
795.947	54.72
796.122	53.15
796.298	55.16
796.474	59.68
796.65	61.62
796.826	64.58
797.001	60.2
797.177	59.71
797.353	62.95
797.529	64.49
797.704	60.41
797.88	60.41
798.056	60.53
798.231	52.59
798.407	55.87
798.582	59.34
798.758	66.97
798.934	70.41
799.109	69.08
799.285	64.76
799.46	67.89
799.636	60.17
799.811	56.24
799.986	59.52
800.162	63.51
800.337	63.73
800.513	66.74
800.688	65.71
800.863	75.69
801.039	66.18
801.214	59.76
801.389	59.39
801.565	59.3
801.74	45.07
801.915	53.56
802.09	55.64
802.265	60.11
802.441	56.4
802.616	57.31
802.791	56.78
802.966	56.58
803.141	52.8
803.316	54.01
803.491	62.06
803.666	61.21
803.841	55.41
804.016	53.06
804.191	52.07
804.366	43.35
804.541	40.25
804.716	44.8
804.891	41.13
805.066	47
805.241	47.89
805.416	49.6
805.591	46.25
805.765	49.75
805.94	50.58
806.115	48.72
806.29	43.63
806.464	46.49
806.639	44.73
806.814	34.82
806.989	29.8
807.163	45.6
807.338	49.63
807.512	48.22
807.687	42.13
807.862	62.1
808.036	58.73
808.211	57.52
808.385	63.41
808.56	79.01
808.734	75.34
808.909	71.02
809.083	64.36
809.258	75.05
809.432	68.72
809.606	56.12
809.781	55.24
809.955	63.32
810.13	59.84
810.304	56.28
810.478	52.62
810.652	60.33
810.827	62.43
811.001	56.62
811.175	55.28
811.349	59.28
811.524	53.66
811.698	36.87
811.872	34.03
812.046	43.28
812.22	52.06
812.394	47.35
812.568	54.39
812.742	61.84
812.916	49.98
813.09	33.2
813.264	31.8
813.438	42.41
813.612	35.01
813.786	37.61
813.96	52.12
814.134	50.78
814.308	59.19
814.482	68.57
814.656	73.04
814.83	72.83
815.003	75.94
815.177	61.34
815.351	51.47
815.525	48.77
815.698	37.92
815.872	35.73
816.046	25.71
816.219	32.75
816.393	41.96
816.567	50.66
816.74	48.5
816.914	59.97
817.088	58.44
817.261	56.26
817.435	38.55
817.608	45.02
817.782	17.92
817.955	20.74
818.129	10.99
818.302	24.56
818.475	38.17
818.649	52.3
818.822	40.88
818.996	62.24
819.169	55.57
819.342	23.11
819.516	29.48
819.689	48.87
819.862	30.12
820.035	29.8
820.209	42.99
820.382	40.68
820.555	41.87
820.728	26.42
820.901	26.51
821.075	18.76
821.248	21.34
821.421	-5.28
821.594	14.34
821.767	45.14
821.94	65.82
822.113	41.5
822.286	42.98
822.459	55
822.632	30.33
822.805	18.66
822.978	24.71
823.151	30.35
823.324	18.45
823.496	0.8
823.669	4.78
823.842	11.97
824.015	4.96
824.188	-11.83
824.361	-2.41
824.533	-5.01
824.706	17.02
824.879	17.03
825.051	46.81
825.224	54.23
825.397	39.73
825.569	10.76
825.742	35.46
825.915	22.66
826.087	20.25
826.26	18.99
826.432	28.72
826.605	18.02
826.777	12.18
826.95	12.84
827.122	18.35
827.295	27.68
827.467	33.55
827.64	11.63
827.812	11.78
827.984	22.52
828.157	-10.05
828.329	-54.53
828.501	-24.89
828.674	-9.62
828.846	-42.96
829.018	-9.7
829.19	-1.38
829.363	25.3
829.535	27.85
829.707	41.88
829.879	19.51
830.051	6.18
830.223	-18.63
830.395	-51.64
830.568	-43.61
830.74	-46.03
830.912	-6.46
831.084	-16.15
831.256	-12.07
831.428	-29.44
831.6	-40.79
831.772	-91.73
831.943	-99.83
832.115	-59.4
832.287	-34.52
832.459	-6.29
832.631	16.51
832.803	35.95
832.975	48.31
833.146	37.78
833.318	31.97
833.49	43.07
833.662	26.16
833.833	-11.23
834.005	-5.65
834.177	0.38
834.348	-11.43
834.52	-24.5
834.692	-27.3
834.863	-56.16
835.035	-56.88
835.206	-113.63
835.378	-82.55
835.549	-61.47
835.721	-50.37
835.892	-59.03
836.064	-32.08
836.235	-21.06
836.407	-15.23
836.578	-19.18
836.749	6.33
836.921	-43.25
837.092	-67.35
837.264	-64.38
837.435	-68.16
837.606	-10.67
837.777	31.21
837.949	48.18
838.12	46.74
838.291	56.86
838.462	37.86
838.633	8.53
838.805	-6.19
838.976	-3.39
839.147	-59.67
839.318	-59.46
839.489	-96.66
839.66	-74.88
839.831	-28.09
840.002	-10.12
840.173	-60.88
840.344	15.56
840.515	3.62
840.686	-147.68
840.857	-104.2
841.028	-39.72
841.199	-38.66
841.369	-75.13
841.54	-41.52
841.711	-15.48
841.882	10.39
842.053	-27.3
842.223	-12.73
842.394	-7.98
842.565	-23.26
842.736	-16.8
842.906	-12.45
843.077	-10.84
843.248	2.9
843.418	5.03
843.589	-26.34
843.759	39.46
843.93	81.34
844.101	16.91
844.271	30.31
844.442	45.83
844.612	50.37
844.783	15.91
844.953	-19.68
845.123	-46.95
845.294	-52.6
845.464	-293.66
845.635	-129
845.805	-13.97
845.975	-3.91
846.146	-52.12
846.316	-33.49
846.486	-8.65
846.656	20.54
846.827	13.31
846.997	21.93
847.167	57.73
847.337	40.5
847.507	5.39
847.677	19.54
847.848	58.53
848.018	44.54
848.188	39.95
848.358	25.38
848.528	18.16
848.698	-40.9
848.868	-108.38
849.038	-202.26
849.208	-75.96
849.378	-36.55
849.548	-0.24
849.718	-0.83
849.887	18.94
850.057	3.89
850.227	-34.05
850.397	-94.2
850.567	-218.03
850.737	-456.41
850.906	-1477.19
851.076	-1080.27
851.246	-408.25
851.415	-21.12
851.585	-27.73
851.755	-45.77
851.924	-13.13
852.094	-47.01
852.264	-201.71
852.433	-1436.3
852.603	-311.82
852.772	-330.63
852.942	-165.08
853.111	-118.91
853.281	-34.05
853.45	3.67
853.62	-33.22
853.789	-47.49
853.959	-2.81
854.128	-10.4
854.297	-68.52
854.467	-92.31
854.636	-57.75
854.805	-13.49
854.975	-81.58
855.144	-129.79
855.313	-79.55
855.482	-472.81
855.652	-308.36
855.821	-200.51
855.99	-10.39
856.159	3.19
856.328	10.23
856.497	-6.22
856.667	12.72
856.836	20.16
857.005	11.34
857.174	16.2
857.343	-37.74
857.512	-51.84
857.681	-115.74
857.85	-190.77
858.019	-122.56
858.188	-81.02
858.356	-80.05
858.525	-175.8
858.694	-140.65
858.863	-285.54
859.032	-219.51
859.201	-290.89
859.369	-95.6
859.538	-69.52
859.707	-41.96
859.876	-23.07
860.044	-40.58
860.213	17.61
860.382	-5.01
860.55	1.67
860.719	12.41
860.888	23.85
861.056	-53.14
861.225	-59.65
861.393	-16.28
861.562	-35.7
861.73	-117.14
861.899	-270.03
862.067	-1892.24
862.236	-180.51
862.404	-334.51
862.572	-205.75
862.741	-78.84
862.909	-81.21
863.078	-206.46
863.246	-124.15
863.414	-137.11
863.582	-87.04
863.751	-85.99
863.919	-58.48
864.087	-30.72
864.255	-19.26
864.424	-332.17
864.592	-57.64
864.76	-76.58
864.928	-143.8
865.096	-206.29
865.264	-155.19
865.432	-2317.61
865.6	-274.38
865.768	-195.44
865.936	-122.97
866.104	-120.21
866.272	-154.61
866.44	-427.46
866.608	655.3
866.776	356.34
866.944	3508.72
867.112	-537.61
867.28	-196.65
867.448	-62.41
867.615	5.28
867.783	29.97
867.951	-16.16
868.119	-12.26
868.286	-70.44
868.454	-242.02
868.622	-242.66
868.789	-290.88
868.957	-3469.64
869.125	-2454.61
869.292	-138.51
869.46	-215.55
869.627	13.91
869.795	-41.03
869.963	-1.91
870.13	-5.07
870.298	25.51
870.465	-75.59
870.632	-64.56
870.8	-62.04
870.967	-114.95
871.135	-197.68
871.302	-184.81
871.469	-236.89
871.637	-268.95
871.804	-136.73
871.971	-209.83
872.139	-478.49
872.306	-22.66
872.473	-48.27
872.64	-207.19
872.807	38.07
872.975	56.29
873.142	-199.55
873.309	1993.92
873.476	1.73
873.643	42.74
873.81	-0.5
873.977	52.75
874.144	56.28
874.311	-78.29
874.478	-152.5
874.645	-168.64
874.812	-77.88
874.979	3.92
875.146	-8.67
875.313	11.48
875.48	75.59
875.647	25.47
875.813	-35.43
875.98	-16.77
876.147	-51.64
876.314	-136.33
876.481	1140.29
876.647	-1122.19
876.814	436.66
876.981	-2.21
877.147	-32.49
877.314	20.84
877.481	28.44
877.647	32.94
877.814	7.86
877.98	-12.72
878.147	-23.01
878.314	15.91
878.48	-33.35
878.647	-63.73
878.813	-7.53
878.979	-8.34
879.146	-44.93
879.312	-37.17
879.479	-76.2
879.645	-165.27
879.811	-339.67
879.978	-856.3
880.144	-263.69
880.31	-131.94
880.477	-369.22
880.643	-393.93
880.809	-160.41
880.975	-148.21
881.142	-989.77
881.308	-119.48
881.474	-92.86
881.64	-98.98
881.806	-141.94
881.972	-60.21
882.138	-47.1
882.304	-25.86
882.47	-180.57
882.636	-830.94
882.802	-235.91
882.968	-45.61
883.134	-14.84
883.3	-20.87
883.466	38.02
883.632	67.04
883.798	12.35
883.964	-3.18
884.129	3.04
884.295	-4.88
884.461	-82.78
884.627	-93.43
884.793	-149.3
884.958	-85.59
885.124	-179.28
885.29	-266.75
885.455	-604.25
885.621	-177.28
885.787	-236.7
885.952	-133.35
886.118	-136.9
886.283	-109.33
886.449	-221.65
886.614	-220.67
886.78	-410.67
886.945	1386.48
887.111	-672.69
887.276	-497.59
887.442	-965.23
887.607	-353.66
887.773	-287.5
887.938	-245.1
888.103	-305.5
888.269	-185.17
888.434	-377.7
888.599	-145.68
888.764	-73.78
888.93	-46
889.095	-62.96
889.26	-102.17
889.425	-33.21
889.59	-7.07
889.756	-42.81
889.921	-28.29
890.086	12.5
890.251	-30.04
890.416	-222.37
890.581	-1997.98
890.746	326.7
890.911	613.22
891.076	191.12
891.241	-346.83
891.406	59.04
891.571	5.75
891.736	-222.82
891.901	-814.82
892.065	1090.93
892.23	208.15
892.395	298.19
892.56	428.25
892.725	-440.43
892.889	-643.29
893.054	-188.25
893.219	-66.74
893.384	-17.47
893.548	-87.58
893.713	-126.56
893.878	-87.73
