Data from Ofra_2a_PS_2CX10_Reflection_3.txt Node
Date: Tue Jul 20 09:37:34 EDT 2021
User: Adam
Spectrometer: FLMT01687
Trigger mode: 0
Integration Time (sec): 9.450000E-1
Scans to average: 3
Electric dark correction enabled: true
Nonlinearity correction enabled: false
Boxcar width: 3
XAxis mode: Wavelengths
Number of Pixels in Spectrum: 3648
>>>>>Begin Spectral Data<<<<<
179.494	806.51
179.716	470.51
179.937	559.89
180.158	2360.55
180.38	-1467.15
180.601	-261.62
180.823	-71.16
181.044	18.43
181.265	-0.84
181.486	74.59
181.708	-594.57
181.929	115
182.15	561.93
182.372	8.21
182.593	4.71
182.814	264.82
183.035	206.3
183.257	163.36
183.478	96.12
183.699	92.62
183.92	70.41
184.141	65.42
184.363	44.76
184.584	39.89
184.805	43.86
185.026	44.15
185.247	6.87
185.468	2.75
185.689	6.66
185.91	8.62
186.132	17.02
186.353	-1.22
186.574	9.92
186.795	1.84
187.016	9.91
187.237	11.67
187.458	21.05
187.679	-4.05
187.9	8.62
188.121	-3.38
188.342	27.62
188.563	40.77
188.784	24.03
189.005	16.17
189.226	19.7
189.447	19.93
189.667	27.34
189.888	17.25
190.109	-4.07
190.33	7.44
190.551	0.18
190.772	-4.84
190.993	2.51
191.214	-7.48
191.434	-11.97
191.655	-2.45
191.876	3.67
192.097	-1.07
192.318	5.81
192.538	5.67
192.759	5.15
192.98	7.05
193.201	28.19
193.421	34.23
193.642	56.86
193.863	68.54
194.083	66.92
194.304	53.36
194.525	53.18
194.745	35.25
194.966	34.99
195.187	35.64
195.407	30.14
195.628	26.08
195.848	36.01
196.069	30.58
196.29	20.03
196.51	4.62
196.731	0.46
196.951	7.37
197.172	2.94
197.392	5.43
197.613	7.12
197.833	9.89
198.054	-2.74
198.274	-25.02
198.495	-29.02
198.715	-26.54
198.936	-22.61
199.156	-6.72
199.377	3.43
199.597	13.59
199.817	30.22
200.038	25.28
200.258	24.16
200.479	34.94
200.699	44.77
200.919	33.41
201.14	47.5
201.36	52.36
201.58	58.15
201.801	55.92
202.021	42.3
202.241	42.93
202.461	47.81
202.682	45.65
202.902	49.83
203.122	46.15
203.342	59.58
203.563	54.88
203.783	52.02
204.003	49.34
204.223	50.97
204.443	52.4
204.663	51.41
204.884	33.89
205.104	43.84
205.324	51.75
205.544	52.13
205.764	60.6
205.984	56.52
206.204	57.3
206.424	63.92
206.644	64.17
206.864	54.39
207.084	68.91
207.304	62.68
207.525	58.75
207.745	61.73
207.964	57.57
208.184	42.35
208.404	32.49
208.624	2.17
208.844	-12.25
209.064	-5.06
209.284	-1.58
209.504	1.12
209.724	-21.53
209.944	-12.2
210.164	14.6
210.384	30.4
210.604	15.45
210.823	5.8
211.043	-10.95
211.263	17.76
211.483	17.66
211.703	16.12
211.922	9.39
212.142	23.43
212.362	23.83
212.582	21.71
212.801	12.44
213.021	-1.04
213.241	-10.32
213.461	-0.07
213.68	-4.7
213.9	-2.9
214.12	7.38
214.339	10.17
214.559	26.1
214.779	23.11
214.998	20.46
215.218	19.99
215.438	31.27
215.657	28.82
215.877	25
216.096	17.61
216.316	17.96
216.535	18.47
216.755	3.45
216.974	-1.13
217.194	-1.24
217.413	4.45
217.633	3.81
217.852	-2.51
218.072	-32.93
218.291	14.89
218.511	13.79
218.73	5.53
218.95	3.52
219.169	1.89
219.389	1.22
219.608	30.13
219.827	8.02
220.047	16.41
220.266	26.1
220.485	26.59
220.705	18.06
220.924	25.76
221.143	16.43
221.363	18.61
221.582	16.18
221.801	14.41
222.021	15.66
222.24	21.97
222.459	20.14
222.678	5.27
222.897	0.68
223.117	-7.85
223.336	-6.46
223.555	-13.37
223.774	-1.36
223.993	7.49
224.213	17.95
224.432	24.91
224.651	26.16
224.87	27.11
225.089	32.02
225.308	23.08
225.527	18
225.746	10.45
225.965	7.69
226.184	3.56
226.404	-8.76
226.623	17.21
226.842	24.26
227.061	10.52
227.28	34.02
227.499	44.73
227.718	40.88
227.936	47.06
228.155	35.69
228.374	30.55
228.593	37.65
228.812	29.07
229.031	12.87
229.25	24.73
229.469	23.37
229.688	22.35
229.907	15.91
230.125	22.65
230.344	21.57
230.563	36.36
230.782	25.4
231.001	31.36
231.22	31.03
231.438	40.38
231.657	36.25
231.876	31.86
232.095	22.35
232.313	39.53
232.532	35.41
232.751	35.57
232.969	34.02
233.188	31.42
233.407	33.19
233.625	30.74
233.844	29.65
234.063	27.44
234.281	27.79
234.5	24.79
234.719	24.4
234.937	36.09
235.156	32.91
235.374	21.93
235.593	19.01
235.811	10.9
236.03	11.92
236.249	28.58
236.467	24.41
236.686	38.31
236.904	33.06
237.123	33.29
237.341	40.9
237.559	39.89
237.778	38.63
237.996	37.02
238.215	24.48
238.433	31.94
238.652	27.67
238.87	20.86
239.088	16.7
239.307	17.05
239.525	10.08
239.743	9.87
239.962	12.31
240.18	16.24
240.398	11.48
240.617	17.45
240.835	9.53
241.053	18.6
241.271	26.75
241.49	13.02
241.708	14.94
241.926	17.28
242.144	16.37
242.363	20.69
242.581	14.34
242.799	2.5
243.017	12.97
243.235	15.63
243.453	10.64
243.672	11.15
243.89	12.58
244.108	21.97
244.326	25.4
244.544	19.66
244.762	14.19
244.98	29.04
245.198	24.82
245.416	22.56
245.634	24.15
245.852	29.72
246.07	33.08
246.288	36.9
246.506	32.1
246.724	39.28
246.942	37.82
247.16	24.01
247.378	17.31
247.596	15.78
247.814	5.59
248.032	4.42
248.25	-2.43
248.468	3.03
248.685	11.7
248.903	17.35
249.121	15.9
249.339	30.12
249.557	30.31
249.775	19.34
249.992	15.54
250.21	6.21
250.428	5.25
250.646	3.52
250.863	-0.97
251.081	-12.42
251.299	6.84
251.517	2.17
251.734	15.34
251.952	15.52
252.17	5.63
252.387	11.1
252.605	25.27
252.823	0.43
253.04	4.77
253.258	3.96
253.475	13.52
253.693	30.46
253.911	28.93
254.128	22.37
254.346	24.56
254.563	23.74
254.781	21.02
254.998	17.03
255.216	20.11
255.433	18.71
255.651	17.42
255.868	20.88
256.086	27.43
256.303	33.83
256.521	17.19
256.738	2.71
256.956	-0.16
257.173	4.85
257.39	11.96
257.608	4.82
257.825	1.32
258.043	12.78
258.26	8.72
258.477	16.96
258.695	14.03
258.912	13.38
259.129	19.11
259.346	19.64
259.564	17.8
259.781	24.46
259.998	17.16
260.216	24.91
260.433	18.89
260.65	19.84
260.867	9.06
261.084	20.32
261.302	6.34
261.519	-8.06
261.736	-12.51
261.953	9.19
262.17	12.84
262.387	12.78
262.604	3.23
262.822	14.67
263.039	23.78
263.256	23.8
263.473	10.77
263.69	8.87
263.907	14.32
264.124	18.9
264.341	23.77
264.558	29.42
264.775	22.89
264.992	26.18
265.209	20.9
265.426	16.83
265.643	12
265.86	10.08
266.077	7.01
266.294	8.48
266.51	7.92
266.727	-5.85
266.944	-46.46
267.161	-55.07
267.378	-62.05
267.595	-60.75
267.812	-59.62
268.028	-57.94
268.245	-34.67
268.462	9.41
268.679	11.62
268.896	5.95
269.112	18.87
269.329	30.14
269.546	29.02
269.763	22.68
269.979	17.72
270.196	21.78
270.413	27.04
270.629	18.01
270.846	17.07
271.063	19
271.279	26.82
271.496	20.26
271.712	25.34
271.929	27.25
272.146	27.51
272.362	3.26
272.579	3.94
272.795	-3.78
273.012	4.34
273.228	-1.23
273.445	-2.34
273.661	-4.51
273.878	12.81
274.094	18.78
274.311	23.23
274.527	18.45
274.744	18.34
274.96	14.53
275.177	27.26
275.393	27.39
275.609	20.62
275.826	19.57
276.042	36.25
276.259	35.27
276.475	33.11
276.691	30.84
276.908	27.53
277.124	33.9
277.34	29.19
277.557	19.98
277.773	23.05
277.989	27.56
278.205	-0.47
278.422	-2.78
278.638	0.76
278.854	9.35
279.07	1.02
279.286	-3.92
279.503	-2.19
279.719	25.15
279.935	14.13
280.151	12.77
280.367	4.11
280.583	14.72
280.799	16.99
281.016	9.99
281.232	-1.84
281.448	6.69
281.664	2.99
281.88	12.78
282.096	12.13
282.312	9.67
282.528	15.71
282.744	25.34
282.96	24.34
283.176	24.46
283.392	27.34
283.608	32.72
283.824	30.01
284.04	32
284.256	32.77
284.471	35.83
284.687	33.69
284.903	35.37
285.119	23.47
285.335	18.83
285.551	28.3
285.767	20.97
285.982	18.23
286.198	13.91
286.414	10.11
286.63	15.05
286.846	24.32
287.061	25.4
287.277	22.52
287.493	27.44
287.709	22.11
287.924	27.71
288.14	30.86
288.356	33.53
288.571	14.67
288.787	26.56
289.003	28.14
289.218	36.78
289.434	32.88
289.65	25.79
289.865	23.15
290.081	27.25
290.296	27.26
290.512	27.91
290.727	30.73
290.943	21.65
291.159	26.15
291.374	30.04
291.59	30.36
291.805	27.6
292.021	2.38
292.236	1.11
292.451	9.42
292.667	15.7
292.882	4.75
293.098	1.54
293.313	0.56
293.529	20.04
293.744	20.33
293.959	17.9
294.175	13.88
294.39	22.66
294.605	20.16
294.821	12.95
295.036	15.02
295.251	23.58
295.467	23.58
295.682	21.64
295.897	20.71
296.112	25.69
296.328	37.74
296.543	23.05
296.758	15.77
296.973	20.5
297.188	17.28
297.404	13.22
297.619	11.59
297.834	11.32
298.049	22.31
298.264	18.36
298.479	8.03
298.694	18.64
298.909	16.25
299.125	25.48
299.34	21.65
299.555	24.55
299.77	25.46
299.985	33.37
300.2	28.72
300.415	32.97
300.63	23.68
300.845	24.26
301.06	22.14
301.275	27.32
301.49	23.55
301.704	18.82
301.919	10.75
302.134	15.17
302.349	9.48
302.564	7.14
302.779	5.65
302.994	8.09
303.209	8.33
303.423	16.98
303.638	18.12
303.853	23.86
304.068	15.12
304.283	16.01
304.497	14.5
304.712	20.6
304.927	19.18
305.142	21.47
305.356	23.51
305.571	35.81
305.786	29.82
306	34.42
306.215	31.32
306.43	34.95
306.644	32.23
306.859	33.11
307.074	25.2
307.288	22.53
307.503	15.59
307.717	11.58
307.932	8.15
308.147	4.44
308.361	1.89
308.576	6.29
308.79	13.3
309.005	19.59
309.219	22.71
309.434	16.99
309.648	10.56
309.863	6.76
310.077	1.8
310.292	3.49
310.506	11.99
310.72	12.25
310.935	15.47
311.149	25.86
311.364	32.5
311.578	32.56
311.792	29.82
312.007	23.46
312.221	23.72
312.435	27.41
312.649	10.77
312.864	-8.52
313.078	2.26
313.292	-11.87
313.507	-6.62
313.721	-11.21
313.935	12.27
314.149	23.05
314.363	33.65
314.578	32.3
314.792	42.78
315.006	39.21
315.22	44.74
315.434	27.75
315.648	28.73
315.862	25.54
316.077	26.53
316.291	23.5
316.505	23.75
316.719	3.89
316.933	8.18
317.147	1.4
317.361	4.13
317.575	4.37
317.789	11.04
318.003	18.72
318.217	28.18
318.431	30.36
318.645	36.71
318.859	24.25
319.073	16.71
319.287	18.38
319.5	18.29
319.714	21.01
319.928	24
320.142	22.26
320.356	45.16
320.57	48.68
320.784	41.63
320.997	37.09
321.211	37.78
321.425	26.31
321.639	24.87
321.853	4.11
322.066	2.99
322.28	8.78
322.494	8.84
322.707	4.62
322.921	10.51
323.135	17.27
323.349	24.73
323.562	28.55
323.776	24.32
323.989	23.63
324.203	32.81
324.417	28.82
324.63	27.99
324.844	18.49
325.057	21.19
325.271	11.98
325.485	7.71
325.698	3.43
325.912	12.78
326.125	16.34
326.339	20.95
326.552	13.63
326.766	26.22
326.979	28.09
327.193	19.48
327.406	10.23
327.619	-10.78
327.833	-0.25
328.046	-1.48
328.26	-9.99
328.473	-10.5
328.686	-4.1
328.9	-4.53
329.113	5.94
329.326	10.68
329.54	11.79
329.753	13.73
329.966	14.51
330.179	21.22
330.393	35.43
330.606	37.01
330.819	35.33
331.032	37.02
331.246	43.07
331.459	47.4
331.672	46.05
331.885	36.94
332.098	34.98
332.311	19.14
332.525	29.88
332.738	17.38
332.951	11.81
333.164	0.76
333.377	-18.1
333.59	-9.39
333.803	8.59
334.016	-12.61
334.229	0.45
334.442	10.31
334.655	15.27
334.868	29.37
335.081	31.78
335.294	18.93
335.507	21.88
335.72	9.76
335.933	7.46
336.146	18.78
336.359	12.27
336.572	2.68
336.785	12.97
336.997	12.95
337.21	26.57
337.423	28.5
337.636	24.98
337.849	30.1
338.062	39.63
338.274	37.6
338.487	27.86
338.7	23.76
338.913	23.7
339.125	15.03
339.338	21.09
339.551	21.34
339.763	22.09
339.976	28.09
340.189	30.41
340.402	27.81
340.614	31.66
340.827	15.93
341.039	16.85
341.252	15.41
341.465	12.51
341.677	1.94
341.89	0.17
342.102	6.8
342.315	20.46
342.527	8.99
342.74	9.88
342.952	14.37
343.165	29.88
343.377	39.13
343.59	35.25
343.802	31.59
344.015	32.19
344.227	24.02
344.44	21.4
344.652	14.14
344.864	3.99
345.077	-6.06
345.289	-5.05
345.502	-0.13
345.714	2.28
345.926	-4.16
346.139	-0.76
346.351	-9.39
346.563	1.18
346.775	-2.94
346.988	-4.9
347.2	4.05
347.412	7.96
347.624	15.38
347.837	19.38
348.049	19.69
348.261	22.61
348.473	18.1
348.685	20.52
348.897	24.09
349.11	17.19
349.322	14.97
349.534	6.94
349.746	8.3
349.958	11.37
350.17	8.04
350.382	-7.82
350.594	-12.8
350.806	0.66
351.018	8.36
351.23	5.11
351.442	10.87
351.654	15.9
351.866	24.52
352.078	27.95
352.29	27.89
352.502	28.41
352.714	32.79
352.926	32.99
353.138	31.31
353.35	33.28
353.561	27.2
353.773	28.13
353.985	27.6
354.197	18.56
354.409	25.96
354.621	21.65
354.832	19.9
355.044	29.45
355.256	20.44
355.468	15.91
355.679	28.71
355.891	21.24
356.103	27.27
356.314	20.42
356.526	9.71
356.738	9.45
356.949	14.44
357.161	9.6
357.373	4.36
357.584	6.26
357.796	15.23
358.008	20.34
358.219	30.31
358.431	23.87
358.642	19.65
358.854	25.12
359.065	18.2
359.277	13.17
359.488	8.03
359.7	5.02
359.911	-0.45
360.123	12.74
360.334	13.94
360.546	13.53
360.757	17.28
360.969	28.74
361.18	25.96
361.391	29.8
361.603	26.61
361.814	24.95
362.025	24.46
362.237	26.59
362.448	20.81
362.659	11.09
362.871	11.72
363.082	18.07
363.293	16.93
363.504	13.18
363.716	14.98
363.927	14.98
364.138	23.32
364.349	30.48
364.56	25.3
364.772	26.77
364.983	26.55
365.194	25.89
365.405	23.34
365.616	18.49
365.827	4
366.038	10.75
366.25	8.27
366.461	13.48
366.672	9.15
366.883	19.04
367.094	21.37
367.305	22.63
367.516	14.59
367.727	9.72
367.938	12.75
368.149	12.67
368.36	4.04
368.571	4.43
368.781	5.19
368.992	7.33
369.203	6.46
369.414	-1.03
369.625	2.08
369.836	4.02
370.047	4.59
370.258	1.98
370.468	1.98
370.679	3.38
370.89	11.92
371.101	8.53
371.312	5.52
371.522	8.8
371.733	10.61
371.944	10.78
372.155	3.35
372.365	-5.56
372.576	-4.41
372.787	-1.44
372.997	-3.19
373.208	1.85
373.419	-0.42
373.629	15.18
373.84	12.24
374.05	19.52
374.261	15.39
374.472	12.34
374.682	10.58
374.893	6.01
375.103	5.79
375.314	7.1
375.524	-1.28
375.735	4.12
375.945	3.27
376.156	0.81
376.366	9.22
376.577	8.56
376.787	11.81
376.997	17.16
377.208	14.23
377.418	12.31
377.629	11.29
377.839	15.38
378.049	16.51
378.26	19.27
378.47	18.75
378.68	20.66
378.89	18.33
379.101	13.77
379.311	4.04
379.521	4.35
379.732	-2.72
379.942	-0.85
380.152	4.35
380.362	12.5
380.572	21.08
380.783	22.1
380.993	19.37
381.203	21.65
381.413	21.87
381.623	16.02
381.833	10.67
382.043	7.94
382.253	6.43
382.463	3.51
382.674	3.95
382.884	-1.46
383.094	-0.61
383.304	-2.53
383.514	2.24
383.724	0.26
383.934	5.5
384.144	10.12
384.353	10.59
384.563	7.73
384.773	12.95
384.983	10.73
385.193	16.72
385.403	17.54
385.613	10.99
385.823	11.67
386.033	12.83
386.242	8.76
386.452	7.12
386.662	5.28
386.872	0.49
387.082	2.15
387.291	2.7
387.501	7.34
387.711	8.58
387.921	8.49
388.13	6.62
388.34	5.63
388.55	8.11
388.759	7.4
388.969	3.19
389.179	6.43
389.388	5.84
389.598	4.87
389.807	5.05
390.017	3.55
390.227	3.44
390.436	2.49
390.646	1.42
390.855	2.46
391.065	2.78
391.274	3.75
391.484	3.59
391.693	3.56
391.903	4.65
392.112	4.15
392.322	5.18
392.531	5.28
392.74	5.22
392.95	5.83
393.159	6.88
393.369	6.59
393.578	6.03
393.787	4.35
393.997	5.5
394.206	4.82
394.415	4.25
394.625	2.57
394.834	1.71
395.043	1.98
395.252	3.34
395.462	2.97
395.671	4.14
395.88	4.31
396.089	4.81
396.298	4.77
396.508	4.52
396.717	3.66
396.926	3.14
397.135	2.11
397.344	2.29
397.553	2.22
397.762	2.46
397.971	2.44
398.181	2.18
398.39	2.7
398.599	3.13
398.808	2.85
399.017	3.26
399.226	3.68
399.435	3.55
399.644	3.65
399.853	3.52
400.062	3.29
400.27	3.3
400.479	3.15
400.688	2.95
400.897	3.36
401.106	3.47
401.315	3.31
401.524	3.34
401.733	3.55
401.941	3.47
402.15	3.23
402.359	2.99
402.568	2.92
402.777	2.88
402.985	2.94
403.194	2.77
403.403	2.66
403.612	2.78
403.82	2.79
404.029	2.81
404.238	2.96
404.446	2.95
404.655	2.77
404.864	2.86
405.072	2.77
405.281	2.72
405.489	2.72
405.698	2.61
405.906	2.53
406.115	2.67
406.324	2.57
406.532	2.62
406.741	2.65
406.949	2.53
407.158	2.56
407.366	2.59
407.574	2.57
407.783	2.48
407.991	2.4
408.2	2.36
408.408	2.41
408.617	2.35
408.825	2.3
409.033	2.26
409.242	2.35
409.45	2.36
409.658	2.28
409.867	2.26
410.075	2.22
410.283	2.2
410.491	2.22
410.7	2.22
410.908	2.27
411.116	2.26
411.324	2.34
411.533	2.26
411.741	2.29
411.949	2.3
412.157	2.3
412.365	2.2
412.573	2.22
412.781	2.16
412.99	2.25
413.198	2.24
413.406	2.2
413.614	2.27
413.822	2.27
414.03	2.22
414.238	2.27
414.446	2.21
414.654	2.19
414.862	2.16
415.07	2.11
415.278	2.09
415.486	2.24
415.694	2.16
415.902	2.14
416.109	2.23
416.317	2.21
416.525	2.26
416.733	2.38
416.941	2.29
417.149	2.41
417.357	2.51
417.564	2.39
417.772	2.44
417.98	2.37
418.188	2.23
418.395	2.3
418.603	2.18
418.811	2.05
419.019	2.14
419.226	2.18
419.434	2.12
419.642	2.18
419.849	2.1
420.057	2.11
420.265	2.18
420.472	2.11
420.68	2.05
420.887	2.07
421.095	2.06
421.302	2.13
421.51	2.19
421.717	2.2
421.925	2.14
422.132	2.06
422.34	2.07
422.547	1.97
422.755	1.87
422.962	1.76
423.17	1.73
423.377	1.94
423.585	1.99
423.792	1.95
423.999	2.01
424.207	2.01
424.414	2.05
424.621	2.16
424.829	1.92
425.036	1.91
425.243	1.97
425.451	1.97
425.658	1.98
425.865	1.88
426.072	1.88
426.28	1.89
426.487	1.86
426.694	1.87
426.901	1.83
427.108	1.8
427.315	1.82
427.523	1.68
427.73	1.76
427.937	1.78
428.144	1.78
428.351	1.82
428.558	1.77
428.765	1.76
428.972	1.8
429.179	1.74
429.386	1.86
429.593	1.83
429.8	1.89
430.007	2.03
430.214	2.18
430.421	2.18
430.628	2.11
430.835	2.01
431.042	2.07
431.249	2.07
431.456	2.08
431.662	2.05
431.869	2.2
432.076	2.34
432.283	2.33
432.49	2.29
432.697	2.28
432.903	2.25
433.11	2.29
433.317	2.23
433.524	2.13
433.73	2.18
433.937	2.13
434.144	2.21
434.35	2.22
434.557	2.12
434.764	2.1
434.97	2.24
435.177	2.17
435.384	2.28
435.59	2.18
435.797	2.14
436.003	2.23
436.21	2.19
436.416	2.16
436.623	2.34
436.829	2.28
437.036	2.33
437.242	2.39
437.449	2.4
437.655	2.44
437.862	2.4
438.068	2.31
438.275	2.31
438.481	2.36
438.687	2.41
438.894	2.38
439.1	2.43
439.307	2.49
439.513	2.47
439.719	2.56
439.926	2.62
440.132	2.58
440.338	2.57
440.544	2.55
440.751	2.56
440.957	2.55
441.163	2.59
441.369	2.53
441.575	2.54
441.782	2.58
441.988	2.57
442.194	2.62
442.4	2.71
442.606	2.65
442.812	2.7
443.018	2.67
443.224	2.64
443.431	2.68
443.637	2.62
443.843	2.6
444.049	2.57
444.255	2.5
444.461	2.53
444.667	2.6
444.873	2.57
445.079	2.63
445.284	2.6
445.49	2.63
445.696	2.71
445.902	2.77
446.108	2.71
446.314	2.74
446.52	2.71
446.726	2.75
446.931	2.77
447.137	2.75
447.343	2.69
447.549	2.75
447.755	2.72
447.96	2.76
448.166	2.73
448.372	2.76
448.578	2.77
448.783	2.77
448.989	2.75
449.195	2.79
449.4	2.77
449.606	2.77
449.812	2.77
450.017	2.77
450.223	2.77
450.428	2.78
450.634	2.79
450.84	2.82
451.045	2.88
451.251	2.86
451.456	2.84
451.662	2.86
451.867	2.92
452.073	2.89
452.278	2.89
452.483	2.86
452.689	2.88
452.894	2.89
453.1	2.84
453.305	2.84
453.51	2.88
453.716	2.86
453.921	2.89
454.127	2.9
454.332	2.93
454.537	3
454.742	2.93
454.948	2.89
455.153	2.89
455.358	2.94
455.563	2.96
455.769	2.97
455.974	2.91
456.179	2.89
456.384	2.94
456.589	3.04
456.795	2.94
457	2.95
457.205	2.94
457.41	3.01
457.615	3.12
457.82	3.18
458.025	3.13
458.23	3.21
458.435	3.19
458.64	3.25
458.845	3.21
459.05	3.18
459.255	3.11
459.46	3.09
459.665	3.12
459.87	3.12
460.075	3.12
460.28	3.15
460.485	3.18
460.69	3.14
460.895	3.17
461.099	3.14
461.304	3.19
461.509	3.13
461.714	3.14
461.919	3.11
462.123	3.21
462.328	3.21
462.533	3.2
462.738	3.19
462.942	3.25
463.147	3.27
463.352	3.33
463.556	3.31
463.761	3.35
463.966	3.39
464.17	3.42
464.375	3.38
464.58	3.34
464.784	3.36
464.989	3.37
465.193	3.4
465.398	3.39
465.602	3.38
465.807	3.45
466.011	3.52
466.216	3.51
466.42	3.56
466.625	3.52
466.829	3.54
467.034	3.55
467.238	3.57
467.443	3.58
467.647	3.64
467.851	3.64
468.056	3.67
468.26	3.67
468.464	3.7
468.669	3.72
468.873	3.67
469.077	3.62
469.282	3.63
469.486	3.68
469.69	3.71
469.894	3.78
470.099	3.82
470.303	3.89
470.507	3.93
470.711	3.9
470.915	3.92
471.119	3.92
471.324	3.85
471.528	3.81
471.732	3.77
471.936	3.8
472.14	3.81
472.344	3.8
472.548	3.84
472.752	3.89
472.956	3.96
473.16	4.05
473.364	4.04
473.568	4.08
473.772	4.15
473.976	4.15
474.18	4.15
474.384	4.1
474.588	4.06
474.792	4.08
474.995	4.06
475.199	4.03
475.403	4.06
475.607	4.05
475.811	4.06
476.015	4.14
476.218	4.19
476.422	4.23
476.626	4.21
476.83	4.23
477.033	4.28
477.237	4.3
477.441	4.28
477.644	4.3
477.848	4.3
478.052	4.33
478.255	4.32
478.459	4.36
478.663	4.38
478.866	4.39
479.07	4.4
479.273	4.37
479.477	4.41
479.681	4.43
479.884	4.4
480.088	4.42
480.291	4.42
480.495	4.39
480.698	4.44
480.901	4.42
481.105	4.46
481.308	4.48
481.512	4.46
481.715	4.48
481.919	4.5
482.122	4.5
482.325	4.53
482.529	4.58
482.732	4.63
482.935	4.67
483.138	4.71
483.342	4.72
483.545	4.72
483.748	4.75
483.952	4.71
484.155	4.71
484.358	4.71
484.561	4.73
484.764	4.74
484.967	4.77
485.171	4.74
485.374	4.76
485.577	4.77
485.78	4.79
485.983	4.77
486.186	4.74
486.389	4.75
486.592	4.79
486.795	4.81
486.998	4.82
487.201	4.83
487.404	4.86
487.607	4.85
487.81	4.88
488.013	4.84
488.216	4.82
488.419	4.79
488.622	4.77
488.825	4.77
489.028	4.79
489.231	4.78
489.433	4.79
489.636	4.76
489.839	4.79
490.042	4.82
490.245	4.84
490.447	4.85
490.65	4.85
490.853	4.88
491.056	4.89
491.258	4.89
491.461	4.83
491.664	4.78
491.866	4.81
492.069	4.81
492.272	4.78
492.474	4.79
492.677	4.77
492.879	4.78
493.082	4.81
493.285	4.79
493.487	4.75
493.69	4.77
493.892	4.8
494.095	4.8
494.297	4.88
494.5	4.87
494.702	4.9
494.905	4.95
495.107	4.93
495.309	4.89
495.512	4.94
495.714	4.9
495.917	4.92
496.119	4.94
496.321	4.95
496.524	4.97
496.726	5
496.928	5.03
497.13	5.06
497.333	5.1
497.535	5.09
497.737	5.11
497.939	5.12
498.142	5.1
498.344	5.07
498.546	5.08
498.748	5.07
498.95	5.07
499.152	5.05
499.355	5.09
499.557	5.15
499.759	5.19
499.961	5.2
500.163	5.21
500.365	5.21
500.567	5.23
500.769	5.25
500.971	5.23
501.173	5.24
501.375	5.25
501.577	5.28
501.779	5.34
501.981	5.37
502.183	5.36
502.385	5.38
502.587	5.34
502.788	5.35
502.99	5.34
503.192	5.34
503.394	5.33
503.596	5.34
503.798	5.4
503.999	5.45
504.201	5.48
504.403	5.52
504.605	5.51
504.806	5.55
505.008	5.56
505.21	5.54
505.411	5.56
505.613	5.57
505.815	5.56
506.016	5.61
506.218	5.61
506.42	5.66
506.621	5.69
506.823	5.71
507.024	5.68
507.226	5.73
507.427	5.7
507.629	5.74
507.83	5.73
508.032	5.77
508.233	5.8
508.435	5.87
508.636	5.9
508.838	5.94
509.039	5.95
509.24	6
509.442	5.95
509.643	5.94
509.845	5.92
510.046	5.9
510.247	5.94
510.448	5.95
510.65	5.95
510.851	6
511.052	6.03
511.254	6.06
511.455	6.11
511.656	6.09
511.857	6.1
512.058	6.14
512.26	6.16
512.461	6.19
512.662	6.21
512.863	6.18
513.064	6.2
513.265	6.23
513.466	6.25
513.667	6.25
513.868	6.24
514.069	6.25
514.27	6.3
514.471	6.36
514.672	6.38
514.873	6.41
515.074	6.45
515.275	6.45
515.476	6.46
515.677	6.46
515.878	6.46
516.079	6.49
516.28	6.46
516.481	6.46
516.682	6.48
516.882	6.48
517.083	6.51
517.284	6.52
517.485	6.51
517.686	6.53
517.886	6.53
518.087	6.57
518.288	6.59
518.488	6.58
518.689	6.55
518.89	6.6
519.091	6.61
519.291	6.65
519.492	6.65
519.692	6.67
519.893	6.66
520.094	6.71
520.294	6.66
520.495	6.67
520.695	6.65
520.896	6.64
521.096	6.64
521.297	6.67
521.497	6.66
521.698	6.69
521.898	6.71
522.099	6.7
522.299	6.71
522.499	6.73
522.7	6.74
522.9	6.75
523.101	6.8
523.301	6.81
523.501	6.86
523.702	6.88
523.902	6.91
524.102	6.92
524.302	6.93
524.503	6.91
524.703	6.91
524.903	6.92
525.103	6.95
525.304	6.94
525.504	6.96
525.704	6.98
525.904	7.02
526.104	7.06
526.304	7.06
526.504	7.04
526.705	7.09
526.905	7.1
527.105	7.12
527.305	7.08
527.505	7.07
527.705	7.05
527.905	7.04
528.105	7.03
528.305	7.04
528.505	7.01
528.705	7.07
528.905	7.08
529.105	7.14
529.304	7.2
529.504	7.18
529.704	7.21
529.904	7.25
530.104	7.23
530.304	7.25
530.503	7.25
530.703	7.25
530.903	7.27
531.103	7.28
531.303	7.35
531.502	7.37
531.702	7.36
531.902	7.37
532.101	7.4
532.301	7.43
532.501	7.43
532.7	7.41
532.9	7.43
533.1	7.44
533.299	7.46
533.499	7.46
533.698	7.51
533.898	7.55
534.097	7.56
534.297	7.57
534.496	7.59
534.696	7.6
534.895	7.62
535.095	7.62
535.294	7.63
535.494	7.65
535.693	7.71
535.892	7.72
536.092	7.77
536.291	7.81
536.491	7.82
536.69	7.84
536.889	7.84
537.088	7.84
537.288	7.9
537.487	7.9
537.686	7.93
537.886	7.94
538.085	7.99
538.284	8
538.483	8.04
538.682	8.05
538.882	8.07
539.081	8.07
539.28	8.09
539.479	8.1
539.678	8.17
539.877	8.18
540.076	8.2
540.275	8.27
540.474	8.29
540.673	8.33
540.872	8.4
541.071	8.4
541.27	8.44
541.469	8.48
541.668	8.49
541.867	8.54
542.066	8.58
542.265	8.59
542.464	8.64
542.663	8.72
542.862	8.74
543.06	8.82
543.259	8.85
543.458	8.89
543.657	8.92
543.856	8.94
544.054	8.95
544.253	8.97
544.452	8.94
544.651	8.98
544.849	9
545.048	9.06
545.247	9.09
545.445	9.11
545.644	9.16
545.843	9.2
546.041	9.25
546.24	9.33
546.438	9.39
546.637	9.46
546.836	9.52
547.034	9.6
547.233	9.7
547.431	9.74
547.63	9.76
547.828	9.79
548.027	9.84
548.225	9.89
548.423	9.93
548.622	9.95
548.82	10.01
549.019	10.1
549.217	10.19
549.415	10.24
549.614	10.24
549.812	10.29
550.01	10.35
550.209	10.44
550.407	10.48
550.605	10.53
550.803	10.63
551.002	10.75
551.2	10.85
551.398	10.91
551.596	10.98
551.794	11.06
551.993	11.09
552.191	11.15
552.389	11.26
552.587	11.31
552.785	11.42
552.983	11.49
553.181	11.51
553.379	11.61
553.577	11.69
553.775	11.72
553.973	11.8
554.171	11.84
554.369	11.92
554.567	12.03
554.765	12.05
554.963	12.11
555.161	12.25
555.359	12.29
555.557	12.41
555.755	12.54
555.952	12.63
556.15	12.77
556.348	12.86
556.546	12.95
556.744	13.05
556.941	13.17
557.139	13.25
557.337	13.29
557.535	13.4
557.732	13.5
557.93	13.57
558.128	13.66
558.325	13.7
558.523	13.75
558.721	13.89
558.918	13.97
559.116	14.02
559.313	14.15
559.511	14.22
559.708	14.33
559.906	14.45
560.104	14.59
560.301	14.67
560.498	14.78
560.696	14.84
560.893	14.98
561.091	15.09
561.288	15.19
561.486	15.24
561.683	15.35
561.88	15.45
562.078	15.57
562.275	15.67
562.473	15.74
562.67	15.84
562.867	15.96
563.064	16.1
563.262	16.24
563.459	16.37
563.656	16.48
563.853	16.64
564.051	16.69
564.248	16.8
564.445	16.88
564.642	16.98
564.839	17.08
565.036	17.19
565.234	17.25
565.431	17.36
565.628	17.46
565.825	17.54
566.022	17.62
566.219	17.67
566.416	17.72
566.613	17.83
566.81	17.89
567.007	17.94
567.204	18.03
567.401	18.13
567.598	18.19
567.795	18.27
567.991	18.37
568.188	18.49
568.385	18.63
568.582	18.69
568.779	18.76
568.976	18.85
569.172	18.95
569.369	18.97
569.566	18.99
569.763	19.01
569.96	19.09
570.156	19.13
570.353	19.22
570.55	19.29
570.746	19.35
570.943	19.5
571.14	19.55
571.336	19.56
571.533	19.64
571.729	19.65
571.926	19.67
572.123	19.72
572.319	19.71
572.516	19.76
572.712	19.85
572.909	19.84
573.105	19.89
573.302	19.94
573.498	19.95
573.695	19.99
573.891	20.01
574.087	20.03
574.284	20.05
574.48	20.07
574.677	20.08
574.873	20.19
575.069	20.24
575.266	20.3
575.462	20.32
575.658	20.38
575.854	20.43
576.051	20.49
576.247	20.41
576.443	20.43
576.639	20.44
576.835	20.41
577.032	20.42
577.228	20.42
577.424	20.4
577.62	20.42
577.816	20.4
578.012	20.37
578.208	20.4
578.404	20.35
578.6	20.35
578.796	20.34
578.993	20.37
579.189	20.37
579.384	20.36
579.58	20.35
579.776	20.34
579.972	20.34
580.168	20.37
580.364	20.36
580.56	20.37
580.756	20.34
580.952	20.39
581.148	20.42
581.343	20.42
581.539	20.39
581.735	20.41
581.931	20.43
582.127	20.44
582.322	20.41
582.518	20.37
582.714	20.36
582.909	20.33
583.105	20.28
583.301	20.2
583.496	20.2
583.692	20.15
583.888	20.16
584.083	20.14
584.279	20.18
584.474	20.17
584.67	20.2
584.866	20.19
585.061	20.24
585.257	20.27
585.452	20.27
585.648	20.25
585.843	20.28
586.039	20.27
586.234	20.27
586.429	20.25
586.625	20.25
586.82	20.25
587.015	20.24
587.211	20.24
587.406	20.25
587.601	20.28
587.797	20.26
587.992	20.23
588.187	20.29
588.383	20.27
588.578	20.24
588.773	20.28
588.968	20.29
589.163	20.36
589.359	20.39
589.554	20.37
589.749	20.4
589.944	20.45
590.139	20.45
590.334	20.49
590.529	20.55
590.724	20.6
590.919	20.72
591.114	20.79
591.309	20.87
591.504	20.9
591.699	20.95
591.894	20.95
592.089	21
592.284	20.96
592.479	20.97
592.674	20.99
592.869	21.08
593.064	21.12
593.259	21.15
593.454	21.2
593.648	21.23
593.843	21.3
594.038	21.34
594.233	21.4
594.428	21.46
594.622	21.46
594.817	21.55
595.012	21.64
595.206	21.73
595.401	21.83
595.596	21.9
595.79	22
595.985	22.16
596.18	22.23
596.374	22.31
596.569	22.39
596.763	22.49
596.958	22.6
597.153	22.64
597.347	22.68
597.542	22.78
597.736	22.85
597.931	22.93
598.125	23.03
598.319	23.09
598.514	23.15
598.708	23.23
598.903	23.31
599.097	23.39
599.291	23.48
599.486	23.5
599.68	23.52
599.874	23.65
600.069	23.76
600.263	23.77
600.457	23.83
600.651	23.89
600.846	23.95
601.04	24.08
601.234	24.08
601.428	24.1
601.622	24.15
601.817	24.2
602.011	24.18
602.205	24.17
602.399	24.17
602.593	24.21
602.787	24.24
602.981	24.26
603.175	24.26
603.369	24.26
603.563	24.32
603.757	24.3
603.951	24.24
604.145	24.23
604.339	24.24
604.533	24.25
604.727	24.25
604.921	24.21
605.115	24.18
605.309	24.23
605.502	24.24
605.696	24.17
605.89	24.16
606.084	24.15
606.278	24.13
606.471	24.07
606.665	24.04
606.859	23.94
607.053	23.91
607.246	23.83
607.44	23.74
607.634	23.65
607.827	23.6
608.021	23.48
608.214	23.43
608.408	23.4
608.602	23.36
608.795	23.28
608.989	23.31
609.182	23.33
609.376	23.22
609.569	23.17
609.763	23.14
609.956	23.04
610.15	22.99
610.343	22.86
610.537	22.73
610.73	22.79
610.923	22.74
611.117	22.58
611.31	22.54
611.504	22.52
611.697	22.49
611.89	22.39
612.083	22.33
612.277	22.21
612.47	22.17
612.663	22.1
612.856	21.94
613.05	21.83
613.243	21.79
613.436	21.64
613.629	21.62
613.822	21.53
614.015	21.45
614.209	21.46
614.402	21.41
614.595	21.32
614.788	21.25
614.981	21.17
615.174	21.1
615.367	21.07
615.56	20.95
615.753	20.85
615.946	20.82
616.139	20.79
616.332	20.69
616.525	20.65
616.718	20.57
616.911	20.54
617.103	20.47
617.296	20.38
617.489	20.36
617.682	20.36
617.875	20.33
618.067	20.24
618.26	20.14
618.453	20.11
618.646	20.08
618.838	20.02
619.031	19.95
619.224	19.89
619.417	19.84
619.609	19.85
619.802	19.81
619.994	19.77
620.187	19.72
620.38	19.69
620.572	19.67
620.765	19.65
620.957	19.6
621.15	19.58
621.342	19.59
621.535	19.54
621.727	19.52
621.92	19.46
622.112	19.45
622.305	19.41
622.497	19.4
622.69	19.34
622.882	19.33
623.074	19.35
623.267	19.35
623.459	19.32
623.651	19.33
623.844	19.36
624.036	19.37
624.228	19.36
624.42	19.28
624.613	19.23
624.805	19.21
624.997	19.2
625.189	19.11
625.381	19.03
625.574	18.97
625.766	18.97
625.958	18.95
626.15	18.97
626.342	18.93
626.534	18.91
626.726	18.91
626.918	18.86
627.11	18.78
627.302	18.78
627.494	18.75
627.686	18.67
627.878	18.63
628.07	18.6
628.262	18.56
628.454	18.55
628.646	18.48
628.838	18.39
629.029	18.36
629.221	18.33
629.413	18.26
629.605	18.23
629.797	18.24
629.989	18.18
630.18	18.17
630.372	18.18
630.564	18.19
630.755	18.19
630.947	18.16
631.139	18.09
631.33	18.15
631.522	18.08
631.714	18.07
631.905	18
632.097	17.97
632.289	17.94
632.48	17.9
632.672	17.81
632.863	17.82
633.055	17.77
633.246	17.78
633.438	17.76
633.629	17.85
633.821	17.89
634.012	17.89
634.203	17.9
634.395	17.9
634.586	17.86
634.777	17.81
634.969	17.73
635.16	17.62
635.351	17.6
635.543	17.52
635.734	17.44
635.925	17.47
636.117	17.51
636.308	17.46
636.499	17.5
636.69	17.55
636.881	17.58
637.073	17.61
637.264	17.54
637.455	17.55
637.646	17.62
637.837	17.62
638.028	17.58
638.219	17.55
638.41	17.54
638.601	17.57
638.792	17.49
638.983	17.4
639.174	17.41
639.365	17.33
639.556	17.33
639.747	17.36
639.938	17.31
640.129	17.34
640.32	17.34
640.511	17.31
640.701	17.29
640.892	17.31
641.083	17.28
641.274	17.3
641.465	17.2
641.655	17.22
641.846	17.18
642.037	17.23
642.228	17.17
642.418	17.1
642.609	17.05
642.8	17.12
642.99	17.06
643.181	17.05
643.372	17.02
643.562	16.98
643.753	16.98
643.943	16.93
644.134	16.88
644.324	16.84
644.515	16.81
644.705	16.77
644.896	16.75
645.086	16.72
645.277	16.77
645.467	16.73
645.658	16.76
645.848	16.76
646.038	16.73
646.229	16.75
646.419	16.75
646.61	16.69
646.8	16.68
646.99	16.62
647.18	16.57
647.371	16.56
647.561	16.49
647.751	16.42
647.941	16.37
648.132	16.33
648.322	16.33
648.512	16.34
648.702	16.28
648.892	16.27
649.082	16.28
649.272	16.3
649.462	16.3
649.653	16.26
649.843	16.18
650.033	16.18
650.223	16.17
650.413	16.17
650.603	16.11
650.793	16.02
650.983	16.01
651.172	16.01
651.362	15.93
651.552	15.88
651.742	15.79
651.932	15.77
652.122	15.79
652.312	15.63
652.502	15.53
652.691	15.49
652.881	15.42
653.071	15.3
653.261	15.2
653.45	15.07
653.64	15.06
653.83	14.97
654.019	14.8
654.209	14.7
654.399	14.65
654.588	14.54
654.778	14.4
654.968	14.26
655.157	14.11
655.347	13.99
655.536	13.76
655.726	13.65
655.915	13.52
656.105	13.45
656.294	13.35
656.484	13.26
656.673	13.2
656.863	13.16
657.052	12.95
657.241	12.76
657.431	12.58
657.62	12.32
657.809	12.17
657.999	12.01
658.188	11.83
658.377	11.75
658.567	11.59
658.756	11.39
658.945	11.3
659.134	11.08
659.324	10.85
659.513	10.65
659.702	10.46
659.891	10.32
660.08	10.24
660.269	10.12
660.458	10.01
660.648	9.92
660.837	9.84
661.026	9.74
661.215	9.65
661.404	9.46
661.593	9.32
661.782	9.18
661.971	9.05
662.16	8.86
662.349	8.69
662.538	8.59
662.726	8.42
662.915	8.29
663.104	8.17
663.293	8.02
663.482	7.92
663.671	7.85
663.86	7.71
664.048	7.63
664.237	7.56
664.426	7.54
664.615	7.42
664.803	7.33
664.992	7.24
665.181	7.14
665.369	7.06
665.558	7.01
665.747	6.98
665.935	6.98
666.124	6.95
666.312	6.84
666.501	6.75
666.69	6.71
666.878	6.58
667.067	6.5
667.255	6.48
667.444	6.46
667.632	6.45
667.82	6.45
668.009	6.42
668.197	6.44
668.386	6.33
668.574	6.3
668.762	6.23
668.951	6.18
669.139	6.21
669.327	6.19
669.516	6.19
669.704	6.26
669.892	6.18
670.08	6.17
670.269	6.26
670.457	6.28
670.645	6.33
670.833	6.35
671.021	6.31
671.21	6.39
671.398	6.4
671.586	6.39
671.774	6.31
671.962	6.32
672.15	6.28
672.338	6.29
672.526	6.28
672.714	6.32
672.902	6.25
673.09	6.31
673.278	6.25
673.466	6.29
673.654	6.34
673.842	6.38
674.03	6.46
674.218	6.52
674.405	6.6
674.593	6.68
674.781	6.71
674.969	6.72
675.157	6.78
675.344	6.81
675.532	6.89
675.72	6.89
675.908	6.95
676.095	7.1
676.283	7.13
676.471	7.13
676.658	7.13
676.846	7.21
677.033	7.28
677.221	7.36
677.409	7.35
677.596	7.51
677.784	7.67
677.971	7.78
678.159	7.85
678.346	7.95
678.534	7.99
678.721	8.04
678.909	8.04
679.096	8.11
679.283	8.17
679.471	8.26
679.658	8.4
679.846	8.45
680.033	8.62
680.22	8.74
680.408	8.84
680.595	8.97
680.782	9.05
680.969	9.03
681.157	9.17
681.344	9.24
681.531	9.34
681.718	9.43
681.905	9.57
682.093	9.79
682.28	10.02
682.467	10.07
682.654	10.16
682.841	10.31
683.028	10.47
683.215	10.59
683.402	10.64
683.589	10.79
683.776	11.09
683.963	11.3
684.15	11.5
684.337	11.69
684.524	11.93
684.711	12.16
684.898	12.34
685.085	12.61
685.271	12.91
685.458	13.12
685.645	13.34
685.832	13.65
686.019	13.99
686.205	14.28
686.392	14.5
686.579	14.68
686.766	15.04
686.952	15.46
687.139	15.77
687.326	16.01
687.512	16.34
687.699	16.72
687.886	17.13
688.072	17.65
688.259	18.01
688.445	18.38
688.632	19.03
688.818	19.52
689.005	20.17
689.191	20.69
689.378	21.01
689.564	21.51
689.751	22.15
689.937	22.5
690.124	23.04
690.31	23.4
690.496	24.04
690.683	24.66
690.869	25.29
691.055	25.88
691.242	26.49
691.428	27.24
691.614	27.9
691.8	28.45
691.987	29.19
692.173	29.91
692.359	30.57
692.545	31.34
692.731	31.95
692.918	32.59
693.104	33.29
693.29	33.94
693.476	34.56
693.662	35.21
693.848	35.89
694.034	36.44
694.22	37.19
694.406	37.87
694.592	38.48
694.778	39.03
694.964	39.67
695.15	40.25
695.336	41.18
695.522	41.84
695.708	42.59
695.894	43.43
696.08	44.18
696.265	44.87
696.451	45.69
696.637	46.25
696.823	46.92
697.009	47.41
697.194	47.94
697.38	48.51
697.566	49.19
697.751	49.68
697.937	50.23
698.123	50.85
698.308	51.43
698.494	52.03
698.68	52.67
698.865	53.25
699.051	53.8
699.236	54.31
699.422	54.86
699.607	55.53
699.793	56.06
699.978	56.4
700.164	56.78
700.349	57.36
700.535	57.85
700.72	58.27
700.906	58.8
701.091	59.13
701.276	59.74
701.462	60.21
701.647	60.55
701.832	60.93
702.018	61.38
702.203	61.73
702.388	62.16
702.573	62.75
702.759	63.29
702.944	63.86
703.129	64.36
703.314	64.87
703.499	65.39
703.684	65.99
703.87	66.18
704.055	66.66
704.24	67.02
704.425	67.55
704.61	67.73
704.795	68
704.98	68.32
705.165	68.75
705.35	68.9
705.535	69.17
705.72	69.29
705.905	69.64
706.09	69.95
706.275	70.11
706.459	70.38
706.644	70.59
706.829	70.69
707.014	70.89
707.199	71.07
707.384	71.32
707.568	71.69
707.753	72.02
707.938	72.07
708.123	72.19
708.307	72.66
708.492	72.98
708.677	73.22
708.861	73.37
709.046	73.3
709.231	73.89
709.415	74.42
709.6	74.46
709.784	74.57
709.969	74.66
710.153	74.99
710.338	75.26
710.522	75.21
710.707	74.93
710.891	75.06
711.076	75.13
711.26	75.2
711.445	75.21
711.629	75.61
711.813	75.77
711.998	76.21
712.182	76.58
712.366	76.87
712.551	77.24
712.735	77.17
712.919	77.28
713.103	77.61
713.288	77.87
713.472	77.96
713.656	77.96
713.84	78
714.024	78.29
714.208	78.16
714.393	78.08
714.577	78.23
714.761	78.26
714.945	78.34
715.129	78.61
715.313	78.76
715.497	79.03
715.681	79.46
715.865	79.33
716.049	79.46
716.233	79.77
716.417	79.86
716.601	79.79
716.785	80
716.968	79.72
717.152	79.97
717.336	79.97
717.52	80.14
717.704	80.24
717.888	80.39
718.071	80.22
718.255	80.18
718.439	79.99
718.622	80.35
718.806	80.13
718.99	80.08
719.174	80.32
719.357	80.62
719.541	81.06
719.724	81.69
719.908	81.38
720.092	81.72
720.275	81.81
720.459	81.75
720.642	81.76
720.826	81.87
721.009	81.5
721.193	81.69
721.376	81.58
721.559	81.64
721.743	81.58
721.926	81.33
722.11	81.28
722.293	81.22
722.476	81.28
722.66	81.43
722.843	81.63
723.026	81.71
723.21	81.91
723.393	81.95
723.576	82.18
723.759	82.39
723.942	82.39
724.126	81.92
724.309	82.37
724.492	82.5
724.675	82.49
724.858	82.77
725.041	82.85
725.224	82.97
725.407	83.19
725.59	83
725.774	83.27
725.957	83.59
726.14	83.6
726.322	83.53
726.505	83.69
726.688	84.07
726.871	84.4
727.054	84.54
727.237	84.31
727.42	84.39
727.603	84.36
727.786	84.45
727.968	84.38
728.151	84.53
728.334	84.46
728.517	84.91
728.699	84.84
728.882	85.44
729.065	84.98
729.248	84.93
729.43	84.72
729.613	84.5
729.796	84.33
729.978	84.53
730.161	84.62
730.343	85.34
730.526	85.58
730.708	86.04
730.891	86.42
731.073	86.57
731.256	86.54
731.438	86.55
731.621	87.05
731.803	87.23
731.986	86.94
732.168	86.83
732.35	86.87
732.533	87.28
732.715	87.04
732.898	86.44
733.08	86.3
733.262	86.24
733.444	86.22
733.627	85.86
733.809	85.48
733.991	85.61
734.173	85.55
734.355	85.86
734.538	85.99
734.72	86.28
734.902	86.66
735.084	86.77
735.266	86.66
735.448	87.16
735.63	86.84
735.812	86.8
735.994	86.47
736.176	86.55
736.358	86.93
736.54	86.7
736.722	86.27
736.904	86.58
737.086	86.78
737.268	87.11
737.45	87.42
737.632	87.11
737.814	87.27
737.995	87.67
738.177	87.69
738.359	87.94
738.541	87.53
738.723	87.5
738.904	87.53
739.086	88.05
739.268	88.55
739.449	88.78
739.631	88.47
739.813	88.95
739.994	89.03
740.176	89.25
740.358	89.06
740.539	88.39
740.721	88.3
740.902	88.05
741.084	88.31
741.265	88.04
741.447	87.68
741.628	87.39
741.81	87.66
741.991	87.74
742.172	88.18
742.354	88.51
742.535	88.39
742.717	88.59
742.898	88.8
743.079	88.66
743.261	88.86
743.442	89.31
743.623	88.87
743.804	88.81
743.986	88.52
744.167	88.31
744.348	88.69
744.529	88.59
744.71	88.09
744.891	88.06
745.073	88.06
745.254	88.2
745.435	88.6
745.616	87.79
745.797	86.94
745.978	86.96
746.159	87.04
746.34	87.55
746.521	87.57
746.702	86.88
746.883	87.54
747.064	88.22
747.245	88.87
747.426	88.38
747.606	87.72
747.787	88.39
747.968	89.13
748.149	89.18
748.33	89.63
748.51	88.77
748.691	89.11
748.872	89.47
749.053	88.88
749.233	88.29
749.414	87.92
749.595	87.14
749.775	87.4
749.956	87.2
750.137	86.8
750.317	86.97
750.498	86.81
750.678	86.82
750.859	86.74
751.04	87.16
751.22	87.31
751.4	87.9
751.581	87.42
751.761	88.16
751.942	87.89
752.122	88.03
752.303	87.3
752.483	87.74
752.663	88.45
752.844	88.59
753.024	88.53
753.204	88.45
753.385	88.73
753.565	88.89
753.745	88.61
753.925	88.04
754.106	88.22
754.286	88.4
754.466	88.35
754.646	87.66
754.826	87.54
755.006	87.38
755.187	87.07
755.367	87.12
755.547	86.66
755.727	86.8
755.907	87.18
756.087	86.93
756.267	86.14
756.447	85.73
756.627	85.54
756.807	86.43
756.987	87.11
757.167	87.28
757.346	87.31
757.526	87.84
757.706	87.74
757.886	88.05
758.066	87.36
758.246	86.63
758.425	86.1
758.605	85.88
758.785	85.61
758.965	85.37
759.144	85.94
759.324	86.08
759.504	86.13
759.683	85.9
759.863	86.46
760.043	86.75
760.222	86.85
760.402	86.19
760.581	85.79
760.761	85.29
760.94	85.51
761.12	84.14
761.299	83.72
761.479	84.14
761.658	83.53
761.838	83.45
762.017	84.11
762.197	84.69
762.376	85.76
762.555	86.4
762.735	85.67
762.914	86.34
763.093	86.56
763.273	86.32
763.452	86.04
763.631	85.27
763.81	85.69
763.99	86.22
764.169	85.88
764.348	85.7
764.527	85.36
764.706	85.8
764.885	86.58
765.064	85.75
765.243	85.59
765.423	86.21
765.602	85.14
765.781	85.16
765.96	85.1
766.139	85.23
766.318	85.67
766.497	85.73
766.676	86.11
766.854	87.28
767.033	88.13
767.212	87.1
767.391	86.73
767.57	86.57
767.749	86.45
767.928	84.88
768.106	84.31
768.285	84.4
768.464	84.86
768.643	84.81
768.821	85.24
769	85.95
769.179	85.37
769.357	85.43
769.536	84.4
769.715	84.33
769.893	84.17
770.072	83.26
770.25	83.28
770.429	84.59
770.607	84.65
770.786	85.26
770.964	85.01
771.143	85.16
771.321	84.94
771.5	84.32
771.678	83.83
771.857	83.21
772.035	82.39
772.213	82.48
772.392	81.97
772.57	82.51
772.748	81.44
772.927	82.09
773.105	82.71
773.283	82.43
773.461	81.87
773.64	81.45
773.818	80.29
773.996	81.44
774.174	81.34
774.352	81.72
774.531	82.29
774.709	82.95
774.887	83.11
775.065	83.8
775.243	84.36
775.421	84.17
775.599	83.08
775.777	84.04
775.955	82.34
776.133	81.86
776.311	81.63
776.489	80.41
776.667	80.34
776.844	79.08
777.022	78.12
777.2	79.45
777.378	81.11
777.556	82.18
777.734	83.05
777.911	83.94
778.089	85.2
778.267	85.34
778.445	85.14
778.622	84.1
778.8	83.36
778.978	82.86
779.155	80.6
779.333	79.4
779.511	79.78
779.688	78.9
779.866	78.91
780.043	80.01
780.221	81.07
780.398	82.16
780.576	83.48
780.753	81.88
780.931	82.39
781.108	83.08
781.286	81.03
781.463	80.45
781.64	79.45
781.818	79.75
781.995	81.44
782.172	81.71
782.35	81.13
782.527	82.54
782.704	80.8
782.882	81.2
783.059	80.1
783.236	78.51
783.413	79.15
783.59	79.91
783.768	79.37
783.945	80.76
784.122	81.49
784.299	82.1
784.476	82.6
784.653	81.76
784.83	80.31
785.007	80.71
785.184	80.36
785.361	79.95
785.538	80.88
785.715	80.37
785.892	80.02
786.069	80.78
786.246	79.84
786.423	80.79
786.6	81.71
786.776	79.27
786.953	78.8
787.13	80.65
787.307	80.67
787.484	81.22
787.66	78.76
787.837	77.99
788.014	79.48
788.191	81.7
788.367	79.78
788.544	80.16
788.721	80.46
788.897	85.83
789.074	85.21
789.25	85.44
789.427	83.78
789.603	86.52
789.78	86.22
789.956	84.37
790.133	79.89
790.309	80.15
790.486	81.9
790.662	83.66
790.839	83.65
791.015	84.17
791.192	85.24
791.368	87.08
791.544	89.34
791.721	87.06
791.897	85.21
792.073	83.37
792.249	83.34
792.426	81.91
792.602	78.72
792.778	76.1
792.954	76.54
793.13	77.58
793.307	76.36
793.483	75.72
793.659	77.93
793.835	79.95
794.011	80.47
794.187	79.05
794.363	79.77
794.539	81.56
794.715	80.06
794.891	79.24
795.067	79.23
795.243	78.84
795.419	81.3
795.595	78.29
795.771	77.6
795.947	76.66
796.122	77.12
796.298	75.12
796.474	75.82
796.65	75.26
796.826	78.89
797.001	79.27
797.177	80.58
797.353	81.24
797.529	83.87
797.704	83.24
797.88	82.18
798.056	81.18
798.231	80.18
798.407	80.17
798.582	77.39
798.758	77.38
798.934	75.15
799.109	72.99
799.285	72.82
799.46	72.44
799.636	73.58
799.811	76.23
799.986	75.67
800.162	78.96
800.337	80.08
800.513	81.52
800.688	84.61
800.863	85.35
801.039	82.27
801.214	81.37
801.389	81.1
801.565	83.42
801.74	76.56
801.915	73.55
802.09	73.36
802.265	76.13
802.441	77.08
802.616	74.89
802.791	75.55
802.966	81.64
803.141	79.87
803.316	81.01
803.491	78.25
803.666	77.95
803.841	78.72
804.016	78.06
804.191	77.12
804.366	77.76
804.541	75.81
804.716	74.98
804.891	79.13
805.066	77.91
805.241	76.92
805.416	75.57
805.591	78.64
805.765	79.66
805.94	78.96
806.115	71.37
806.29	72.27
806.464	70.81
806.639	70.27
806.814	65.4
806.989	62.92
807.163	61.14
807.338	64.05
807.512	59.04
807.687	58.59
807.862	58.9
808.036	61.45
808.211	64.1
808.385	66.41
808.56	65.11
808.734	69.19
808.909	65.96
809.083	65.85
809.258	70.58
809.432	68.87
809.606	67.03
809.781	68.67
809.955	72.34
810.13	78.28
810.304	80.28
810.478	78.17
810.652	80.48
810.827	84.62
811.001	82.52
811.175	76.66
811.349	75.52
811.524	71.92
811.698	72.12
811.872	70.14
812.046	67.89
812.22	67.7
812.394	71.45
812.568	72.15
812.742	76.66
812.916	74.76
813.09	72.68
813.264	76.72
813.438	85.74
813.612	82.97
813.786	85.58
813.96	82.89
814.134	84.91
814.308	84.35
814.482	82.75
814.656	76.82
814.83	80.44
815.003	77.45
815.177	79.98
815.351	78.24
815.525	76.64
815.698	75.84
815.872	74.86
816.046	69.15
816.219	71.74
816.393	67.44
816.567	63.22
816.74	67.69
816.914	66.49
817.088	62.93
817.261	68.2
817.435	63.18
817.608	63.4
817.782	67.54
817.955	62.42
818.129	66.04
818.302	76.11
818.475	76.6
818.649	75.77
818.822	79.27
818.996	79.56
819.169	82.98
819.342	77.29
819.516	73.69
819.689	73.83
819.862	71.71
820.035	70.63
820.209	65.58
820.382	63.46
820.555	63.56
820.728	58.86
820.901	57.9
821.075	64.19
821.248	61.45
821.421	62.25
821.594	68.53
821.767	72.28
821.94	68.84
822.113	74
822.286	75.99
822.459	80.44
822.632	88.63
822.805	82.46
822.978	81.92
823.151	93.42
823.324	82.26
823.496	71.58
823.669	71.36
823.842	73.33
824.015	71.98
824.188	62.47
824.361	50.17
824.533	58.59
824.706	73.44
824.879	73.6
825.051	69.53
825.224	66.88
825.397	66.61
825.569	71.32
825.742	68.6
825.915	63.85
826.087	57.08
826.26	55.59
826.432	57.36
826.605	59.88
826.777	64.22
826.95	59.54
827.122	60.2
827.295	67.01
827.467	55.91
827.64	53.59
827.812	53.92
827.984	54.42
828.157	56.67
828.329	59.21
828.501	56.22
828.674	60.47
828.846	63.16
829.018	61.32
829.19	57.1
829.363	59.13
829.535	55.8
829.707	58.23
829.879	70.05
830.051	64.09
830.223	58.54
830.395	54.86
830.568	63.56
830.74	61.84
830.912	54.9
831.084	44.61
831.256	46.65
831.428	52.35
831.6	51
831.772	38.36
831.943	45.88
832.115	54.18
832.287	54.22
832.459	54.85
832.631	59.09
832.803	70.26
832.975	69.88
833.146	64.05
833.318	54.53
833.49	72.79
833.662	75.07
833.833	74.05
834.005	65.41
834.177	68.05
834.348	62.84
834.52	73.38
834.692	67.62
834.863	68.87
835.035	58.9
835.206	63.3
835.378	62.74
835.549	60.18
835.721	56.46
835.892	48.07
836.064	48.75
836.235	60.6
836.407	64.09
836.578	63.27
836.749	70.85
836.921	62.48
837.092	79.5
837.264	69.39
837.435	56.68
837.606	52.75
837.777	51.88
837.949	40.73
838.12	38.52
838.291	37.14
838.462	36.83
838.633	40.32
838.805	42.62
838.976	40.66
839.147	43.78
839.318	48.17
839.489	38.43
839.66	47.26
839.831	43.64
840.002	40.16
840.173	44.67
840.344	58.33
840.515	66.63
840.686	76.33
840.857	70.54
841.028	76.26
841.199	76.37
841.369	82.58
841.54	84.8
841.711	82.14
841.882	76.21
842.053	75.44
842.223	70.63
842.394	70.93
842.565	67.76
842.736	47.55
842.906	47.09
843.077	57.58
843.248	71.76
843.418	68.2
843.589	65.24
843.759	63.34
843.93	68.53
844.101	57.83
844.271	56.25
844.442	45.98
844.612	49.02
844.783	37.52
844.953	35.72
845.123	42.23
845.294	50.4
845.464	48.39
845.635	45.72
845.805	45.58
845.975	38.13
846.146	28.26
846.316	31.3
846.486	37.04
846.656	46.08
846.827	41.9
846.997	63.13
847.167	74.6
847.337	84.99
847.507	74.37
847.677	83.12
847.848	81.22
848.018	88.86
848.188	61.57
848.358	56.69
848.528	62.34
848.698	55.27
848.868	36.72
849.038	34.41
849.208	42.46
849.378	42.47
849.548	45.04
849.718	36.83
849.887	19.06
850.057	24.55
850.227	23.63
850.397	9.93
850.567	19.65
850.737	19.01
850.906	22.15
851.076	39.69
851.246	58.96
851.415	65.07
851.585	69.13
851.755	68.18
851.924	83.25
852.094	81.51
852.264	76.61
852.433	72.3
852.603	66.28
852.772	66.94
852.942	56.9
853.111	53.26
853.281	49.34
853.45	51.42
853.62	50.41
853.789	56.28
853.959	55.68
854.128	53.21
854.297	48.21
854.467	33.64
854.636	42.39
854.805	36.43
854.975	36.74
855.144	40.9
855.313	47.06
855.482	40.33
855.652	55.15
855.821	52.4
855.99	48.91
856.159	40.95
856.328	52.53
856.497	44.99
856.667	56.82
856.836	49.78
857.005	52.63
857.174	64
857.343	58.71
857.512	41.62
857.681	45.64
857.85	45.65
858.019	47.84
858.188	42.83
858.356	21.71
858.525	22.51
858.694	32.5
858.863	41.43
859.032	25.17
859.201	10.8
859.369	16.68
859.538	9.5
859.707	23.95
859.876	38.76
860.044	33.45
860.213	32.53
860.382	46.07
860.55	61.84
860.719	81.32
860.888	74.44
861.056	68.47
861.225	75.54
861.393	83.76
861.562	81.2
861.73	56.81
861.899	24.32
862.067	26.72
862.236	26.66
862.404	27.14
862.572	24.2
862.741	24.62
862.909	35.41
863.078	38.36
863.246	33.64
863.414	39.52
863.582	32.93
863.751	39.02
863.919	37.3
864.087	27.87
864.255	40.59
864.424	47.28
864.592	45.12
864.76	64.03
864.928	61.9
865.096	56.51
865.264	62.79
865.432	51.35
865.6	64.64
865.768	51.65
865.936	35.93
866.104	32.38
866.272	38.29
866.44	17.53
866.608	19.22
866.776	11.77
866.944	21.13
867.112	-6.74
867.28	4.25
867.448	20.06
867.615	46.22
867.783	36.74
867.951	54.56
868.119	46.33
868.286	56.3
868.454	41.33
868.622	29.57
868.789	29.7
868.957	47.07
869.125	52.44
869.292	54.05
869.46	64.78
869.627	66.94
869.795	67.88
869.963	57.57
870.13	55.08
870.298	28.05
870.465	30.55
870.632	32.29
870.8	9.21
870.967	14.29
871.135	20.53
871.302	25.45
871.469	42.39
871.637	35.96
871.804	26.6
871.971	38.79
872.139	47.47
872.306	38.01
872.473	28.61
872.64	9.91
872.807	18
872.975	49.08
873.142	40.04
873.309	52.79
873.476	153.53
873.643	195.67
873.81	217.97
873.977	139.88
874.144	97.99
874.311	93.36
874.478	15.53
874.645	16.39
874.812	10.98
874.979	-17.14
875.146	-49.03
875.313	-90.4
875.48	-29.74
875.647	-54.66
875.813	-78.11
875.98	-37.04
876.147	30.21
876.314	23.12
876.481	9.72
876.647	11.04
876.814	36.83
876.981	28.82
877.147	17.1
877.314	4.5
877.481	38.51
877.647	71.6
877.814	65.67
877.98	80.63
878.147	92.06
878.314	88.36
878.48	68.5
878.647	76.96
878.813	72.28
878.979	106.4
879.146	69.75
879.312	79.63
879.479	89.24
879.645	82.65
879.811	71.09
879.978	66.87
880.144	52.74
880.31	74.33
880.477	62.06
880.643	83.98
880.809	151.59
880.975	67.05
881.142	64
881.308	47.76
881.474	73.68
881.64	58.16
881.806	44.68
881.972	50.59
882.138	86.64
882.304	81.3
882.47	98.95
882.636	30.38
882.802	48.04
882.968	27.31
883.134	-111.89
883.3	-24.11
883.466	17.17
883.632	3.58
883.798	33.13
883.964	17.86
884.129	48.79
884.295	50.57
884.461	64.95
884.627	67.14
884.793	86.38
884.958	64.44
885.124	71.76
885.29	37.51
885.455	42.88
885.621	23.89
885.787	22.6
885.952	8.01
886.118	34.37
886.283	36.07
886.449	37.71
886.614	39.88
886.78	56.59
886.945	55.52
887.111	58.74
887.276	37.56
887.442	39.83
887.607	38.81
887.773	17.14
887.938	-14.95
888.103	5.55
888.269	5.97
888.434	14.86
888.599	28.03
888.764	34.38
888.93	41.84
889.095	33.1
889.26	54.58
889.425	71.14
889.59	45.68
889.756	33.09
889.921	21.81
890.086	32.5
890.251	35.42
890.416	-3.77
890.581	-34.24
890.746	-24.65
890.911	-53.19
891.076	-88.31
891.241	-114.72
891.406	-18.81
891.571	16.28
891.736	29.8
891.901	41.46
892.065	50.89
892.23	48.27
892.395	27.18
892.56	36.92
892.725	26.56
892.889	20.77
893.054	-32.41
893.219	-79.49
893.384	-149.15
893.548	-315.83
893.713	773.51
893.878	497.83
