Data from Ofra_1a_PS_2CX12_Reflection_3.txt Node
Date: Tue Jul 20 10:47:20 EDT 2021
User: Adam
Spectrometer: FLMT01687
Trigger mode: 0
Integration Time (sec): 1.004000E0
Scans to average: 2
Electric dark correction enabled: true
Nonlinearity correction enabled: false
Boxcar width: 2
XAxis mode: Wavelengths
Number of Pixels in Spectrum: 3648
>>>>>Begin Spectral Data<<<<<
179.494	-331.47
179.716	-356.49
179.937	610.37
180.158	-971.34
180.38	125.86
180.601	-61.51
180.823	-90.31
181.044	-123.25
181.265	-311.93
181.486	177.49
181.708	-78.81
181.929	10481.82
182.15	-225.25
182.372	278.33
182.593	167.41
182.814	-14.43
183.035	-36.34
183.257	3.78
183.478	-37.14
183.699	-21.78
183.92	-63.71
184.141	-44.89
184.363	-34.34
184.584	-46.66
184.805	-49.07
185.026	-9.58
185.247	-19.02
185.468	-68.12
185.689	-64.87
185.91	-100
186.132	-59.16
186.353	-36.99
186.574	-3.41
186.795	21.58
187.016	44.71
187.237	32.74
187.458	26.58
187.679	7.25
187.9	28.08
188.121	25.13
188.342	25.61
188.563	31.99
188.784	49.12
189.005	19.07
189.226	24.26
189.447	25.35
189.667	11.39
189.888	-15.93
190.109	-23.91
190.33	-1.2
190.551	-25.59
190.772	-20.74
190.993	-22
191.214	-41.3
191.434	-138.76
191.655	-170.03
191.876	-88.89
192.097	-37.47
192.318	-1.47
192.538	-31.44
192.759	-8.39
192.98	17.76
193.201	18.64
193.421	12.6
193.642	35
193.863	34.74
194.083	4.07
194.304	7.81
194.525	5.29
194.745	-4.43
194.966	5.25
195.187	10.56
195.407	-25.12
195.628	-10.93
195.848	-11.81
196.069	-33.75
196.29	-36.71
196.51	-18.22
196.731	-29.15
196.951	-24.26
197.172	-4.95
197.392	-4.4
197.613	25.75
197.833	25.29
198.054	14.13
198.274	16.32
198.495	26.56
198.715	7.03
198.936	15.46
199.156	11.61
199.377	5.24
199.597	17.67
199.817	15.62
200.038	12.54
200.258	45.49
200.479	55.12
200.699	44
200.919	29.44
201.14	27.29
201.36	9.09
201.58	10.8
201.801	10
202.021	26.25
202.241	22.65
202.461	20.49
202.682	25.88
202.902	21.15
203.122	23.06
203.342	32.1
203.563	23.87
203.783	12.98
204.003	-0.95
204.223	-2.37
204.443	0.94
204.663	11.83
204.884	7.28
205.104	2.59
205.324	17.7
205.544	-24.93
205.764	-10.72
205.984	-25.98
206.204	-12.49
206.424	-28.03
206.644	-26.98
206.864	-65.5
207.084	-12.49
207.304	-35.94
207.525	-39.28
207.745	-23.48
207.964	-14.3
208.184	-18.95
208.404	-10.15
208.624	-0.2
208.844	-4.79
209.064	1.04
209.284	-24.44
209.504	-22.08
209.724	-25.59
209.944	-36.96
210.164	-43.25
210.384	-26.08
210.604	-51.19
210.823	-72.49
211.043	-55.93
211.263	-132.15
211.483	-134.04
211.703	-89.26
211.922	-128.33
212.142	-101.92
212.362	-65.2
212.582	-33.61
212.801	-54.04
213.021	-31.55
213.241	-37.09
213.461	-27.58
213.68	-19.63
213.9	-3.4
214.12	0.9
214.339	-6.99
214.559	1.84
214.779	-3.24
214.998	9.48
215.218	17.89
215.438	17.57
215.657	22.61
215.877	5.54
216.096	0.49
216.316	-7.82
216.535	-12.59
216.755	-16.35
216.974	-19.5
217.194	-41.82
217.413	-27.78
217.633	-26.32
217.852	-7.09
218.072	9.96
218.291	5.73
218.511	5.56
218.73	9.6
218.95	-30.87
219.169	-66.87
219.389	-15.02
219.608	-15.46
219.827	-6.08
220.047	9.04
220.266	10.88
220.485	-12.91
220.705	-23.44
220.924	-34.16
221.143	-1.73
221.363	9.61
221.582	12.99
221.801	35.31
222.021	38.66
222.24	26.64
222.459	45.81
222.678	54.96
222.897	26.1
223.117	32.46
223.336	42.13
223.555	45.75
223.774	16.79
223.993	49.54
224.213	37.47
224.432	25.45
224.651	19.36
224.87	22.31
225.089	17.38
225.308	15.51
225.527	17.16
225.746	-0.66
225.965	5.5
226.184	-3.6
226.404	-0.63
226.623	15.62
226.842	11.98
227.061	6.67
227.28	13.04
227.499	10.59
227.718	10.36
227.936	22.63
228.155	18.25
228.374	28.74
228.593	30.05
228.812	12.3
229.031	12.57
229.25	-0.01
229.469	-6.82
229.688	-7.68
229.907	7.57
230.125	-3.19
230.344	22.35
230.563	12.61
230.782	18.25
231.001	26.49
231.22	42.65
231.438	40.38
231.657	48.57
231.876	46.02
232.095	39.17
232.313	6.61
232.532	8.11
232.751	0.37
232.969	3.1
233.188	-19.78
233.407	5.01
233.625	2.09
233.844	3.51
234.063	8.22
234.281	22.46
234.5	17.06
234.719	18.74
234.937	13.85
235.156	4.32
235.374	8.45
235.593	15.3
235.811	11.47
236.03	13.71
236.249	17.28
236.467	6.71
236.686	-3.65
236.904	2.64
237.123	1.43
237.341	-12.47
237.559	4.18
237.778	17.59
237.996	-14.89
238.215	-74.26
238.433	-92.93
238.652	-29.06
238.87	-34.87
239.088	-19.24
239.307	15.94
239.525	18.06
239.743	-4.41
239.962	-27.87
240.18	-11.31
240.398	-21.54
240.617	-31.4
240.835	-27.03
241.053	6.57
241.271	7.8
241.49	31.58
241.708	30.18
241.926	26.85
242.144	38.04
242.363	23.26
242.581	-16.39
242.799	-34.79
243.017	-14.63
243.235	-18.06
243.453	-20.91
243.672	-9.82
243.89	-0.81
244.108	10.32
244.326	29.6
244.544	36.71
244.762	29.86
244.98	35.72
245.198	39.04
245.416	25.85
245.634	19.95
245.852	17.38
246.07	25.78
246.288	17.91
246.506	12.48
246.724	9.8
246.942	15.3
247.16	2.72
247.378	-8.27
247.596	8.5
247.814	-7.14
248.032	-15.23
248.25	18.9
248.468	12.62
248.685	10.65
248.903	21.41
249.121	20.79
249.339	14.87
249.557	21.15
249.775	19.89
249.992	13.91
250.21	0.62
250.428	-1.5
250.646	-6.54
250.863	-19.77
251.081	-12.43
251.299	7.62
251.517	20.82
251.734	23.54
251.952	29.94
252.17	10.86
252.387	-14.33
252.605	-31.5
252.823	-61.99
253.04	-31.28
253.258	14.62
253.475	35.79
253.693	20.43
253.911	26.4
254.128	-1.09
254.346	0.16
254.563	-10.26
254.781	-6.11
254.998	-14.13
255.216	-22.41
255.433	-53.27
255.651	-42.12
255.868	-15.17
256.086	10.14
256.303	7.46
256.521	7.21
256.738	2.17
256.956	-17.31
257.173	-38.28
257.39	-19.79
257.608	-13.92
257.825	-12.88
258.043	5.53
258.26	0.95
258.477	-3.08
258.695	0.56
258.912	-5.88
259.129	-20.06
259.346	-12.04
259.564	-10.28
259.781	-7.49
259.998	26.35
260.216	31.19
260.433	20.04
260.65	22.64
260.867	19.57
261.084	9.46
261.302	-6.51
261.519	7.38
261.736	0.39
261.953	-3.37
262.17	12.84
262.387	15.55
262.604	16.51
262.822	23.69
263.039	26.35
263.256	22.76
263.473	21.57
263.69	21.85
263.907	9.26
264.124	2.15
264.341	3.22
264.558	-2.49
264.775	-1.81
264.992	7.54
265.209	-8.05
265.426	-52.9
265.643	-18.38
265.86	-46.49
266.077	-63.56
266.294	-35.63
266.51	9.58
266.727	-4.88
266.944	15.65
267.161	28.87
267.378	27.1
267.595	-2.08
267.812	-15.1
268.028	-32.72
268.245	-34.27
268.462	-13.57
268.679	14.44
268.896	23.26
269.112	4.81
269.329	-13.17
269.546	-10.53
269.763	-9.49
269.979	-5.99
270.196	17.8
270.413	10.89
270.629	-10.94
270.846	-24.27
271.063	-32.47
271.279	-42.55
271.496	-35.59
271.712	-13.8
271.929	2.75
272.146	-7.17
272.362	3.06
272.579	-0.34
272.795	-14.33
273.012	-2.87
273.228	14.59
273.445	6.58
273.661	5.18
273.878	2.62
274.094	-10.85
274.311	-16.94
274.527	-41.16
274.744	-24.9
274.96	-14.46
275.177	-18.81
275.393	-4.22
275.609	7.07
275.826	0.62
276.042	11.89
276.259	15.63
276.475	11.36
276.691	8.55
276.908	9.65
277.124	2.76
277.34	-6.32
277.557	-22.57
277.773	-16.44
277.989	-21.33
278.205	-26.15
278.422	-26.97
278.638	-20.32
278.854	-28.33
279.07	-19.07
279.286	-16.78
279.503	-5.22
279.719	1.65
279.935	8.51
280.151	2.48
280.367	8.9
280.583	14.09
280.799	9.23
281.016	-16.48
281.232	2.85
281.448	-1.45
281.664	-17.59
281.88	-11.74
282.096	-0.4
282.312	-4.6
282.528	-5.86
282.744	-7.1
282.96	-17.77
283.176	-15.44
283.392	-42
283.608	-63.98
283.824	-49.85
284.04	-93.9
284.256	-26.93
284.471	-2.72
284.687	12.97
284.903	6.48
285.119	29.9
285.335	10.92
285.551	11.99
285.767	3.71
285.982	6.97
286.198	-22.84
286.414	-21.33
286.63	-49.43
286.846	-13.92
287.061	-12.12
287.277	-2.03
287.493	14.3
287.709	16.56
287.924	19.07
288.14	36.73
288.356	48.24
288.571	41.49
288.787	27.75
289.003	31.93
289.218	10.73
289.434	-6.41
289.65	8.79
289.865	21.03
290.081	17.82
290.296	25.45
290.512	25.56
290.727	10.36
290.943	8.9
291.159	2
291.374	-27.87
291.59	-18.78
291.805	-22.38
292.021	-11.33
292.236	-12.24
292.451	7.81
292.667	6.5
292.882	32.27
293.098	27.53
293.313	15.86
293.529	24.6
293.744	23.24
293.959	-8.18
294.175	1.71
294.39	-12.18
294.605	-6.96
294.821	-23.73
295.036	-8.11
295.251	-11.09
295.467	-9.3
295.682	-9.94
295.897	-0.01
296.112	-17
296.328	-6.05
296.543	-16.57
296.758	-31.87
296.973	-22.6
297.188	-16.51
297.404	-54.71
297.619	-43.74
297.834	-81.85
298.049	-69.04
298.264	-53.71
298.479	-39.43
298.694	4.17
298.909	27.69
299.125	20.34
299.34	17.77
299.555	13.57
299.77	18.19
299.985	18.39
300.2	16.69
300.415	17.89
300.63	24.72
300.845	17.88
301.06	11.41
301.275	10.32
301.49	22.79
301.704	20.28
301.919	-0.96
302.134	-0.37
302.349	17.04
302.564	-6.93
302.779	-22.17
302.994	12.22
303.209	20.77
303.423	-0.18
303.638	12.2
303.853	5.27
304.068	-27.29
304.283	-31.55
304.497	-29.94
304.712	-15.01
304.927	-2.51
305.142	14.94
305.356	19.99
305.571	18.35
305.786	14.83
306	22.3
306.215	24.39
306.43	8.91
306.644	9.01
306.859	-8.61
307.074	-3.82
307.288	-21.66
307.503	1.85
307.717	-1.54
307.932	7.37
308.147	-9.02
308.361	1.81
308.576	-23.47
308.79	2.26
309.005	-2.63
309.219	11.46
309.434	9.87
309.648	4.5
309.863	-20.51
310.077	-10.23
310.292	-2.56
310.506	-19.3
310.72	-13.03
310.935	-8.91
311.149	-13.13
311.364	-15.89
311.578	-1.04
311.792	4.4
312.007	-7.75
312.221	-22.84
312.435	-24.87
312.649	-24.63
312.864	-17.13
313.078	-9.51
313.292	4.74
313.507	20.32
313.721	10.61
313.935	28.55
314.149	30.92
314.363	34.75
314.578	19.33
314.792	17.51
315.006	-12.55
315.22	2.12
315.434	3.3
315.648	-12.6
315.862	2.36
316.077	-8.88
316.291	-22.37
316.505	-50.12
316.719	-25.75
316.933	-29.06
317.147	-10.5
317.361	-5.56
317.575	10.8
317.789	13
318.003	11.06
318.217	28.19
318.431	17.16
318.645	10.69
318.859	18.06
319.073	27.5
319.287	14.99
319.5	21.08
319.714	9.53
319.928	12.79
320.142	-0.41
320.356	16.82
320.57	-4.05
320.784	17.98
320.997	-5.92
321.211	24.76
321.425	-10.98
321.639	7.19
321.853	17.4
322.066	27.37
322.28	1.81
322.494	14.42
322.707	14.81
322.921	-3.4
323.135	-4.08
323.349	14.62
323.562	13.56
323.776	15.42
323.989	18.24
324.203	10.35
324.417	4.57
324.63	-12.76
324.844	-26.05
325.057	-50.42
325.271	-45.3
325.485	-47.71
325.698	-17.56
325.912	-11.11
326.125	-14.27
326.339	-2.18
326.552	-5.67
326.766	-21.05
326.979	6.98
327.193	17.1
327.406	-12.11
327.619	-3.97
327.833	-6.13
328.046	-17.6
328.26	-15.34
328.473	3.25
328.686	3.85
328.9	17.23
329.113	14.77
329.326	12.58
329.54	6.72
329.753	14.31
329.966	8.07
330.179	11.39
330.393	11.62
330.606	9.11
330.819	-17.47
331.032	-9.64
331.246	5.51
331.459	22.19
331.672	17.49
331.885	30.57
332.098	31.94
332.311	12.23
332.525	5.27
332.738	15.66
332.951	12.52
333.164	17.49
333.377	17.07
333.59	8.14
333.803	2.53
334.016	4.02
334.229	-5
334.442	-6.03
334.655	-3.17
334.868	-13.97
335.081	-17.78
335.294	-42.95
335.507	-30.91
335.72	-21.86
335.933	-2.92
336.146	10.14
336.359	23.83
336.572	24.24
336.785	21.49
336.997	7.42
337.21	0.2
337.423	-9.35
337.636	-29.35
337.849	-23.96
338.062	-12.05
338.274	1.62
338.487	-6.05
338.7	-20.27
338.913	-9.51
339.125	-13.21
339.338	-22.99
339.551	-29.52
339.763	-14.05
339.976	-24.67
340.189	-30.47
340.402	-12.92
340.614	8.9
340.827	15.24
341.039	16.8
341.252	14.64
341.465	-10.68
341.677	-0.18
341.89	3.27
342.102	14.05
342.315	20.72
342.527	23.56
342.74	-1.33
342.952	-21.14
343.165	-30.67
343.377	-11.73
343.59	-5.64
343.802	9.12
344.015	17.81
344.227	21.07
344.44	-2.29
344.652	-4.73
344.864	-9.49
345.077	-5.5
345.289	7.79
345.502	23.66
345.714	19.83
345.926	15.55
346.139	-10.68
346.351	-19.79
346.563	-22.4
346.775	-11.47
346.988	4.63
347.2	10.49
347.412	15.85
347.624	16.33
347.837	16.88
348.049	20.81
348.261	15.88
348.473	1.04
348.685	-13.45
348.897	-22.66
349.11	-23.26
349.322	-0.6
349.534	5.01
349.746	22.93
349.958	11.61
350.17	8.81
350.382	3.39
350.594	6.44
350.806	12.9
351.018	19.01
351.23	23.09
351.442	26.13
351.654	23.79
351.866	13.84
352.078	24.77
352.29	7.86
352.502	8.54
352.714	7.19
352.926	7.64
353.138	5.72
353.35	0.69
353.561	2.7
353.773	2.11
353.985	3.92
354.197	7.3
354.409	21.91
354.621	9.39
354.832	14.4
355.044	0.31
355.256	0.17
355.468	-19.77
355.679	-1.33
355.891	-5.94
356.103	-5.7
356.314	-19.25
356.526	-27.41
356.738	-50.39
356.949	-58.2
357.161	-30.55
357.373	-17.96
357.584	-0.36
357.796	17.91
358.008	27.65
358.219	14.6
358.431	8.67
358.642	9.8
358.854	8
359.065	-5.16
359.277	-1.68
359.488	-0.86
359.7	0.24
359.911	-14.08
360.123	2.04
360.334	-11.65
360.546	-8.07
360.757	-6.47
360.969	2.84
361.18	-1.65
361.391	17.12
361.603	18.28
361.814	13.84
362.025	18.41
362.237	11.83
362.448	13.32
362.659	0.68
362.871	-13.91
363.082	-18.47
363.293	-24.2
363.504	-50.11
363.716	-30.14
363.927	-9.95
364.138	-41.47
364.349	-34.89
364.56	-52.14
364.772	-46.71
364.983	-37.79
365.194	-10.38
365.405	-3.49
365.616	22.22
365.827	19.41
366.038	22.53
366.25	20.95
366.461	27.82
366.672	25.23
366.883	16.17
367.094	8.44
367.305	-10.43
367.516	-29.51
367.727	-46.52
367.938	-39.68
368.149	-52.34
368.36	-46.92
368.571	-66.67
368.781	-53.47
368.992	-45.48
369.203	-29.64
369.414	-24.77
369.625	-8.41
369.836	5.23
370.047	4.64
370.258	12.39
370.468	9.66
370.679	10.85
370.89	-6.62
371.101	3.62
371.312	-11.72
371.522	-20.19
371.733	-16.86
371.944	-28.37
372.155	-21.21
372.365	-13.82
372.576	-13.33
372.787	-7.85
372.997	3.67
373.208	-9.75
373.419	-23.31
373.629	-31.92
373.84	-39.59
374.05	-41.28
374.261	-51.14
374.472	-33.95
374.682	-16.68
374.893	-32.03
375.103	-23.07
375.314	-14.49
375.524	-7.69
375.735	-3.86
375.945	10.75
376.156	4.82
376.366	1.94
376.577	3.64
376.787	4.87
376.997	-2.69
377.208	-5.83
377.418	-2.14
377.629	-1.97
377.839	-0.01
378.049	2.54
378.26	4.75
378.47	5.79
378.68	6.89
378.89	-2.66
379.101	-3.88
379.311	-3.1
379.521	-15.03
379.732	-17.6
379.942	-15.78
380.152	-11.91
380.362	-10.88
380.572	11.39
380.783	14.97
380.993	15.4
381.203	19.64
381.413	26.93
381.623	13.76
381.833	12.65
382.043	14.42
382.253	5.77
382.463	12.88
382.674	17.55
382.884	20.4
383.094	20.63
383.304	26.2
383.514	7.39
383.724	1.9
383.934	-14.52
384.144	-7.46
384.353	-10.85
384.563	-2.9
384.773	4.98
384.983	8.65
385.193	6.85
385.403	3.68
385.613	2.9
385.823	-2.22
386.033	-3.42
386.242	-9.41
386.452	-12.32
386.662	-10.48
386.872	-4.84
387.082	0.13
387.291	-0.38
387.501	7.4
387.711	8.98
387.921	4.89
388.13	9.4
388.34	10.45
388.55	4.84
388.759	-1.47
388.969	2.52
389.179	-0.21
389.388	1.31
389.598	-1.93
389.807	-3
390.017	-5.89
390.227	-10.59
390.436	-8.34
390.646	-3.1
390.855	0.18
391.065	1.02
391.274	2.75
391.484	0.06
391.693	-2.06
391.903	-2.51
392.112	-4.1
392.322	-5.33
392.531	-5.26
392.74	-5.96
392.95	-5.22
393.159	-4.65
393.369	-3.81
393.578	-1.48
393.787	0.69
393.997	3.04
394.206	1.72
394.415	2.23
394.625	1.19
394.834	-1.39
395.043	-2.34
395.252	1.23
395.462	2.53
395.671	2.29
395.88	4.81
396.089	4.54
396.298	3.18
396.508	2.7
396.717	2.63
396.926	1.71
397.135	2.04
397.344	1.93
397.553	1.67
397.762	2.97
397.971	2.79
398.181	2.36
398.39	2.05
398.599	2.2
398.808	1.36
399.017	2.6
399.226	3.26
399.435	3.18
399.644	3.32
399.853	3.5
400.062	2.88
400.27	2.12
400.479	2.31
400.688	2.2
400.897	1.79
401.106	1.74
401.315	1.84
401.524	2
401.733	1.75
401.941	2.31
402.15	2.23
402.359	2.31
402.568	2.42
402.777	2.66
402.985	2.2
403.194	2.2
403.403	2.45
403.612	2.1
403.82	1.68
404.029	1.97
404.238	2.02
404.446	1.93
404.655	2.05
404.864	2.42
405.072	2.19
405.281	2.3
405.489	2.17
405.698	2.34
405.906	2.27
406.115	2.3
406.324	2.24
406.532	2.48
406.741	2.4
406.949	2.37
407.158	2.53
407.366	2.37
407.574	2.27
407.783	2.31
407.991	2.43
408.2	2.37
408.408	2.53
408.617	2.47
408.825	2.39
409.033	2.32
409.242	2.37
409.45	2.31
409.658	2.34
409.867	2.44
410.075	2.45
410.283	2.34
410.491	2.23
410.7	2.12
410.908	1.97
411.116	2.02
411.324	2.03
411.533	2.03
411.741	2.05
411.949	2.19
412.157	2.12
412.365	2.25
412.573	2.31
412.781	2.21
412.99	2.11
413.198	2.08
413.406	2.03
413.614	2.05
413.822	2.26
414.03	2.16
414.238	2.24
414.446	2.31
414.654	2.26
414.862	2.21
415.07	2.3
415.278	2.25
415.486	2.05
415.694	2.06
415.902	2.02
416.109	1.92
416.317	2
416.525	2.02
416.733	1.94
416.941	1.93
417.149	1.94
417.357	1.81
417.564	1.86
417.772	2.05
417.98	2.01
418.188	2.01
418.395	1.91
418.603	1.84
418.811	1.67
419.019	1.69
419.226	1.78
419.434	1.67
419.642	1.61
419.849	1.59
420.057	1.56
420.265	1.51
420.472	1.8
420.68	1.79
420.887	1.82
421.095	1.98
421.302	2.16
421.51	1.89
421.717	2.03
421.925	2.16
422.132	2.06
422.34	1.75
422.547	1.73
422.755	1.71
422.962	1.7
423.17	1.53
423.377	1.75
423.585	2.12
423.792	2.04
423.999	1.95
424.207	1.93
424.414	1.87
424.621	1.68
424.829	1.71
425.036	1.73
425.243	1.85
425.451	1.88
425.658	1.87
425.865	1.94
426.072	1.84
426.28	1.87
426.487	1.74
426.694	1.7
426.901	1.66
427.108	1.72
427.315	1.73
427.523	1.59
427.73	1.79
427.937	1.71
428.144	1.68
428.351	1.64
428.558	1.97
428.765	1.87
428.972	1.97
429.179	1.86
429.386	1.85
429.593	1.66
429.8	1.55
430.007	1.53
430.214	1.73
430.421	1.87
430.628	1.82
430.835	1.88
431.042	1.91
431.249	1.82
431.456	1.57
431.662	1.7
431.869	1.9
432.076	1.85
432.283	1.94
432.49	2.04
432.697	1.95
432.903	1.76
433.11	1.91
433.317	1.93
433.524	1.9
433.73	1.94
433.937	2.05
434.144	1.84
434.35	1.81
434.557	1.94
434.764	2.01
434.97	1.89
435.177	2.05
435.384	2.11
435.59	2.11
435.797	2.12
436.003	2.12
436.21	1.97
436.416	1.96
436.623	1.89
436.829	1.85
437.036	1.91
437.242	2.02
437.449	1.96
437.655	2.04
437.862	2.04
438.068	1.97
438.275	2
438.481	1.98
438.687	1.86
438.894	2.05
439.1	2.05
439.307	2.12
439.513	2.2
439.719	2.31
439.926	2.24
440.132	2.32
440.338	2.17
440.544	2.09
440.751	2.02
440.957	2.03
441.163	1.93
441.369	1.93
441.575	1.94
441.782	2.01
441.988	1.89
442.194	1.93
442.4	1.97
442.606	2.1
442.812	2.1
443.018	2.18
443.224	2.26
443.431	2.27
443.637	2.14
443.843	2.08
444.049	2.08
444.255	2.09
444.461	2.03
444.667	2.11
444.873	2.13
445.079	2.12
445.284	2.07
445.49	2.02
445.696	1.95
445.902	1.99
446.108	1.98
446.314	2.06
446.52	2.22
446.726	2.21
446.931	2.21
447.137	2.21
447.343	2.21
447.549	2.15
447.755	2.2
447.96	2.11
448.166	2.16
448.372	2.09
448.578	2.06
448.783	2.14
448.989	2.28
449.195	2.26
449.4	2.37
449.606	2.4
449.812	2.28
450.017	2.28
450.223	2.23
450.428	2.18
450.634	2.13
450.84	2.15
451.045	2.17
451.251	2.27
451.456	2.25
451.662	2.38
451.867	2.41
452.073	2.42
452.278	2.36
452.483	2.28
452.689	2.3
452.894	2.31
453.1	2.18
453.305	2.15
453.51	2.26
453.716	2.13
453.921	2.1
454.127	2.2
454.332	2.21
454.537	2.12
454.742	2.09
454.948	2.11
455.153	2.12
455.358	2.06
455.563	2.19
455.769	2.29
455.974	2.34
456.179	2.24
456.384	2.23
456.589	2.08
456.795	2.06
457	2.02
457.205	2.06
457.41	2.04
457.615	2.06
457.82	2.11
458.025	2.08
458.23	2.05
458.435	2.21
458.64	2.32
458.845	2.28
459.05	2.27
459.255	2.35
459.46	2.27
459.665	2.25
459.87	2.19
460.075	2.33
460.28	2.3
460.485	2.39
460.69	2.38
460.895	2.45
461.099	2.31
461.304	2.26
461.509	2.19
461.714	2.2
461.919	2.13
462.123	2.19
462.328	2.13
462.533	1.98
462.738	1.93
462.942	1.92
463.147	1.91
463.352	1.95
463.556	2.09
463.761	2.13
463.966	2.12
464.17	2.14
464.375	2.25
464.58	2.22
464.784	2.21
464.989	2.24
465.193	2.27
465.398	2.21
465.602	2.36
465.807	2.36
466.011	2.42
466.216	2.27
466.42	2.34
466.625	2.34
466.829	2.36
467.034	2.43
467.238	2.62
467.443	2.6
467.647	2.49
467.851	2.51
468.056	2.53
468.26	2.5
468.464	2.51
468.669	2.55
468.873	2.54
469.077	2.5
469.282	2.55
469.486	2.52
469.69	2.53
469.894	2.56
470.099	2.48
470.303	2.43
470.507	2.41
470.711	2.34
470.915	2.4
471.119	2.45
471.324	2.47
471.528	2.57
471.732	2.67
471.936	2.64
472.14	2.66
472.344	2.71
472.548	2.72
472.752	2.68
472.956	2.7
473.16	2.7
473.364	2.7
473.568	2.59
473.772	2.63
473.976	2.67
474.18	2.65
474.384	2.56
474.588	2.63
474.792	2.58
474.995	2.58
475.199	2.57
475.403	2.61
475.607	2.66
475.811	2.71
476.015	2.59
476.218	2.6
476.422	2.69
476.626	2.63
476.83	2.7
477.033	2.84
477.237	2.87
477.441	2.77
477.644	2.79
477.848	2.8
478.052	2.81
478.255	2.81
478.459	2.8
478.663	2.9
478.866	2.93
479.07	2.86
479.273	2.9
479.477	2.94
479.681	2.93
479.884	2.86
480.088	2.92
480.291	2.93
480.495	2.98
480.698	2.94
480.901	2.97
481.105	3.01
481.308	3.04
481.512	3.07
481.715	3.15
481.919	3.21
482.122	3.23
482.325	3.29
482.529	3.2
482.732	3.13
482.935	3.03
483.138	2.97
483.342	2.88
483.545	3.05
483.748	3.14
483.952	3.22
484.155	3.36
484.358	3.42
484.561	3.3
484.764	3.25
484.967	3.25
485.171	3.25
485.374	3.17
485.577	3.22
485.78	3.25
485.983	3.22
486.186	3.11
486.389	3.08
486.592	3.06
486.795	3.05
486.998	3.01
487.201	3.1
487.404	3.23
487.607	3.2
487.81	3.15
488.013	3.25
488.216	3.18
488.419	3.04
488.622	3.05
488.825	3.1
489.028	3.08
489.231	3.12
489.433	3.19
489.636	3.19
489.839	3.23
490.042	3.22
490.245	3.18
490.447	3.2
490.65	3.28
490.853	3.23
491.056	3.28
491.258	3.35
491.461	3.32
491.664	3.34
491.866	3.33
492.069	3.31
492.272	3.25
492.474	3.31
492.677	3.27
492.879	3.3
493.082	3.29
493.285	3.38
493.487	3.36
493.69	3.34
493.892	3.32
494.095	3.36
494.297	3.38
494.5	3.41
494.702	3.45
494.905	3.5
495.107	3.52
495.309	3.53
495.512	3.52
495.714	3.51
495.917	3.5
496.119	3.48
496.321	3.46
496.524	3.46
496.726	3.45
496.928	3.42
497.13	3.38
497.333	3.35
497.535	3.39
497.737	3.4
497.939	3.39
498.142	3.42
498.344	3.46
498.546	3.42
498.748	3.47
498.95	3.54
499.152	3.59
499.355	3.55
499.557	3.62
499.759	3.65
499.961	3.64
500.163	3.67
500.365	3.76
500.567	3.7
500.769	3.71
500.971	3.75
501.173	3.71
501.375	3.7
501.577	3.75
501.779	3.8
501.981	3.81
502.183	3.76
502.385	3.79
502.587	3.81
502.788	3.77
502.99	3.78
503.192	3.89
503.394	3.88
503.596	3.83
503.798	3.78
503.999	3.82
504.201	3.85
504.403	3.91
504.605	4.07
504.806	4.2
505.008	4.22
505.21	4.14
505.411	4.11
505.613	4.07
505.815	4.03
506.016	4.09
506.218	4.19
506.42	4.21
506.621	4.3
506.823	4.35
507.024	4.36
507.226	4.41
507.427	4.49
507.629	4.43
507.83	4.47
508.032	4.4
508.233	4.39
508.435	4.36
508.636	4.42
508.838	4.45
509.039	4.47
509.24	4.54
509.442	4.57
509.643	4.56
509.845	4.56
510.046	4.62
510.247	4.6
510.448	4.62
510.65	4.67
510.851	4.69
511.052	4.74
511.254	4.83
511.455	4.82
511.656	4.74
511.857	4.74
512.058	4.73
512.26	4.7
512.461	4.75
512.662	4.79
512.863	4.74
513.064	4.69
513.265	4.71
513.466	4.71
513.667	4.78
513.868	4.83
514.069	4.85
514.27	4.86
514.471	4.86
514.672	4.86
514.873	4.95
515.074	5
515.275	5
515.476	5.03
515.677	5.08
515.878	5.1
516.079	5.13
516.28	5.16
516.481	5.18
516.682	5.13
516.882	5.07
517.083	5.07
517.284	5.1
517.485	5.09
517.686	5.17
517.886	5.15
518.087	5.14
518.288	5.1
518.488	5.14
518.689	5.08
518.89	5.13
519.091	5.22
519.291	5.21
519.492	5.22
519.692	5.3
519.893	5.37
520.094	5.34
520.294	5.4
520.495	5.38
520.695	5.35
520.896	5.32
521.096	5.38
521.297	5.4
521.497	5.43
521.698	5.45
521.898	5.45
522.099	5.39
522.299	5.39
522.499	5.4
522.7	5.4
522.9	5.44
523.101	5.45
523.301	5.41
523.501	5.42
523.702	5.49
523.902	5.48
524.102	5.56
524.302	5.63
524.503	5.63
524.703	5.59
524.903	5.61
525.103	5.55
525.304	5.55
525.504	5.61
525.704	5.6
525.904	5.59
526.104	5.65
526.304	5.65
526.504	5.62
526.705	5.71
526.905	5.75
527.105	5.73
527.305	5.75
527.505	5.75
527.705	5.7
527.905	5.76
528.105	5.78
528.305	5.82
528.505	5.85
528.705	5.93
528.905	5.93
529.105	5.94
529.304	5.93
529.504	5.97
529.704	5.96
529.904	5.96
530.104	6.02
530.304	6.08
530.503	6.09
530.703	6.09
530.903	6.09
531.103	6.12
531.303	6.09
531.502	6.16
531.702	6.22
531.902	6.31
532.101	6.33
532.301	6.39
532.501	6.39
532.7	6.34
532.9	6.37
533.1	6.37
533.299	6.35
533.499	6.31
533.698	6.36
533.898	6.35
534.097	6.37
534.297	6.42
534.496	6.43
534.696	6.5
534.895	6.51
535.095	6.54
535.294	6.58
535.494	6.61
535.693	6.6
535.892	6.57
536.092	6.59
536.291	6.58
536.491	6.66
536.69	6.69
536.889	6.71
537.088	6.75
537.288	6.77
537.487	6.76
537.686	6.77
537.886	6.88
538.085	6.85
538.284	6.89
538.483	6.92
538.682	6.95
538.882	6.92
539.081	7.02
539.28	7
539.479	7.02
539.678	7.04
539.877	7.08
540.076	7.06
540.275	7.1
540.474	7.1
540.673	7.14
540.872	7.15
541.071	7.23
541.27	7.29
541.469	7.33
541.668	7.35
541.867	7.43
542.066	7.41
542.265	7.48
542.464	7.5
542.663	7.63
542.862	7.68
543.06	7.76
543.259	7.86
543.458	7.99
543.657	8.01
543.856	8.09
544.054	8.08
544.253	8.12
544.452	8.18
544.651	8.18
544.849	8.19
545.048	8.26
545.247	8.27
545.445	8.29
545.644	8.34
545.843	8.37
546.041	8.37
546.24	8.4
546.438	8.46
546.637	8.51
546.836	8.56
547.034	8.63
547.233	8.77
547.431	8.78
547.63	8.86
547.828	8.92
548.027	8.97
548.225	8.94
548.423	9
548.622	9.06
548.82	9.06
549.019	9.14
549.217	9.27
549.415	9.29
549.614	9.44
549.812	9.55
550.01	9.57
550.209	9.66
550.407	9.78
550.605	9.68
550.803	9.78
551.002	9.95
551.2	9.95
551.398	10.03
551.596	10.22
551.794	10.3
551.993	10.34
552.191	10.43
552.389	10.48
552.587	10.55
552.785	10.62
552.983	10.73
553.181	10.81
553.379	10.87
553.577	10.98
553.775	11.12
553.973	11.19
554.171	11.29
554.369	11.44
554.567	11.51
554.765	11.56
554.963	11.59
555.161	11.64
555.359	11.73
555.557	11.83
555.755	12.02
555.952	12.15
556.15	12.34
556.348	12.43
556.546	12.6
556.744	12.59
556.941	12.62
557.139	12.75
557.337	12.85
557.535	12.83
557.732	12.93
557.93	13.13
558.128	13.19
558.325	13.3
558.523	13.45
558.721	13.61
558.918	13.69
559.116	13.79
559.313	13.94
559.511	14.07
559.708	14.22
559.906	14.4
560.104	14.44
560.301	14.51
560.498	14.59
560.696	14.64
560.893	14.7
561.091	14.91
561.288	15.07
561.486	15.2
561.683	15.39
561.88	15.6
562.078	15.69
562.275	15.79
562.473	15.97
562.67	16.01
562.867	16.09
563.064	16.24
563.262	16.37
563.459	16.49
563.656	16.63
563.853	16.61
564.051	16.73
564.248	16.85
564.445	16.93
564.642	17.09
564.839	17.29
565.036	17.44
565.234	17.52
565.431	17.71
565.628	17.79
565.825	17.87
566.022	17.95
566.219	18.1
566.416	18.14
566.613	18.28
566.81	18.44
567.007	18.45
567.204	18.5
567.401	18.58
567.598	18.73
567.795	18.8
567.991	18.96
568.188	19.12
568.385	19.25
568.582	19.29
568.779	19.35
568.976	19.45
569.172	19.64
569.369	19.68
569.566	19.73
569.763	19.77
569.96	19.88
570.156	19.82
570.353	19.92
570.55	20
570.746	20.12
570.943	20.24
571.14	20.27
571.336	20.28
571.533	20.37
571.729	20.44
571.926	20.42
572.123	20.48
572.319	20.59
572.516	20.64
572.712	20.69
572.909	20.67
573.105	20.83
573.302	20.88
573.498	20.82
573.695	20.94
573.891	20.95
574.087	20.82
574.284	20.82
574.48	20.89
574.677	20.89
574.873	20.99
575.069	21.02
575.266	21.04
575.462	21.11
575.658	21.08
575.854	21.11
576.051	21.17
576.247	21.14
576.443	21.11
576.639	21.14
576.835	21.11
577.032	21.07
577.228	21.2
577.424	21.26
577.62	21.19
577.816	21.22
578.012	21.27
578.208	21.21
578.404	21.19
578.6	21.3
578.796	21.34
578.993	21.41
579.189	21.44
579.384	21.44
579.58	21.43
579.776	21.4
579.972	21.3
580.168	21.27
580.364	21.32
580.56	21.16
580.756	21.1
580.952	21.1
581.148	21.13
581.343	21.06
581.539	21.12
581.735	21.15
581.931	21.02
582.127	21
582.322	20.9
582.518	20.92
582.714	20.88
582.909	20.96
583.105	20.94
583.301	20.98
583.496	20.92
583.692	20.87
583.888	20.84
584.083	20.8
584.279	20.78
584.474	20.68
584.67	20.73
584.866	20.73
585.061	20.75
585.257	20.78
585.452	20.93
585.648	20.89
585.843	20.92
586.039	20.87
586.234	20.88
586.429	20.79
586.625	20.87
586.82	20.83
587.015	20.87
587.211	20.83
587.406	20.84
587.601	20.81
587.797	20.86
587.992	20.78
588.187	20.74
588.383	20.85
588.578	20.8
588.773	20.85
588.968	20.95
589.163	21
589.359	20.92
589.554	20.88
589.749	20.81
589.944	20.86
590.139	20.89
590.334	21.06
590.529	21.18
590.724	21.29
590.919	21.26
591.114	21.38
591.309	21.25
591.504	21.32
591.699	21.22
591.894	21.23
592.089	21.15
592.284	21.33
592.479	21.29
592.674	21.48
592.869	21.52
593.064	21.59
593.259	21.54
593.454	21.61
593.648	21.61
593.843	21.63
594.038	21.69
594.233	21.67
594.428	21.83
594.622	21.94
594.817	22.18
595.012	22.28
595.206	22.5
595.401	22.5
595.596	22.57
595.79	22.47
595.985	22.48
596.18	22.55
596.374	22.78
596.569	22.82
596.763	23.02
596.958	23.22
597.153	23.23
597.347	23.17
597.542	23.23
597.736	23.28
597.931	23.29
598.125	23.39
598.319	23.45
598.514	23.53
598.708	23.58
598.903	23.68
599.097	23.69
599.291	23.86
599.486	23.94
599.68	24.1
599.874	24.19
600.069	24.37
600.263	24.42
600.457	24.47
600.651	24.38
600.846	24.38
601.04	24.37
601.234	24.42
601.428	24.52
601.622	24.61
601.817	24.58
602.011	24.59
602.205	24.58
602.399	24.52
602.593	24.63
602.787	24.66
602.981	24.68
603.175	24.7
603.369	24.73
603.563	24.74
603.757	24.76
603.951	24.79
604.145	24.73
604.339	24.65
604.533	24.53
604.727	24.49
604.921	24.45
605.115	24.47
605.309	24.47
605.502	24.45
605.696	24.43
605.89	24.44
606.084	24.35
606.278	24.41
606.471	24.37
606.665	24.35
606.859	24.25
607.053	24.21
607.246	24.14
607.44	23.94
607.634	23.85
607.827	23.74
608.021	23.66
608.214	23.55
608.408	23.52
608.602	23.38
608.795	23.33
608.989	23.28
609.182	23.16
609.376	23.16
609.569	23.2
609.763	23.16
609.956	23.11
610.15	23.07
610.343	22.92
610.537	22.83
610.73	22.68
610.923	22.55
611.117	22.45
611.31	22.39
611.504	22.29
611.697	22.27
611.89	22.17
612.083	22.01
612.277	21.91
612.47	21.75
612.663	21.61
612.856	21.54
613.05	21.54
613.243	21.48
613.436	21.47
613.629	21.34
613.822	21.24
614.015	21.09
614.209	20.97
614.402	20.89
614.595	20.92
614.788	20.82
614.981	20.77
615.174	20.69
615.367	20.58
615.56	20.47
615.753	20.54
615.946	20.51
616.139	20.5
616.332	20.47
616.525	20.34
616.718	20.16
616.911	20.05
617.103	19.98
617.296	19.84
617.489	19.85
617.682	19.82
617.875	19.78
618.067	19.71
618.26	19.69
618.453	19.58
618.646	19.54
618.838	19.44
619.031	19.33
619.224	19.27
619.417	19.31
619.609	19.29
619.802	19.24
619.994	19.21
620.187	19.14
620.38	18.96
620.572	18.86
620.765	18.87
620.957	18.85
621.15	18.87
621.342	18.92
621.535	18.89
621.727	18.81
621.92	18.79
622.112	18.71
622.305	18.75
622.497	18.59
622.69	18.5
622.882	18.5
623.074	18.55
623.267	18.41
623.459	18.44
623.651	18.48
623.844	18.46
624.036	18.41
624.228	18.42
624.42	18.49
624.613	18.43
624.805	18.38
624.997	18.26
625.189	18.26
625.381	18.15
625.574	18.15
625.766	18.06
625.958	18.14
626.15	18.06
626.342	18.07
626.534	18.04
626.726	18.07
626.918	17.98
627.11	17.97
627.302	17.86
627.494	17.84
627.686	17.75
627.878	17.7
628.07	17.66
628.262	17.79
628.454	17.72
628.646	17.62
628.838	17.63
629.029	17.57
629.221	17.41
629.413	17.35
629.605	17.39
629.797	17.36
629.989	17.32
630.18	17.4
630.372	17.43
630.564	17.43
630.755	17.41
630.947	17.4
631.139	17.26
631.33	17.14
631.522	17.07
631.714	17.02
631.905	16.93
632.097	16.89
632.289	16.87
632.48	16.87
632.672	16.77
632.863	16.74
633.055	16.71
633.246	16.81
633.438	16.76
633.629	16.8
633.821	16.83
634.012	16.91
634.203	16.82
634.395	16.8
634.586	16.78
634.777	16.77
634.969	16.64
635.16	16.58
635.351	16.53
635.543	16.4
635.734	16.24
635.925	16.29
636.117	16.38
636.308	16.41
636.499	16.49
636.69	16.64
636.881	16.54
637.073	16.5
637.264	16.36
637.455	16.4
637.646	16.37
637.837	16.35
638.028	16.26
638.219	16.41
638.41	16.37
638.601	16.42
638.792	16.51
638.983	16.53
639.174	16.38
639.365	16.34
639.556	16.16
639.747	16.06
639.938	16.12
640.129	16.14
640.32	16.13
640.511	16.2
640.701	16.27
640.892	16.15
641.083	16.2
641.274	16.14
641.465	16.14
641.655	16.08
641.846	16.13
642.037	16.11
642.228	16.06
642.418	15.96
642.609	16
642.8	15.92
642.99	15.85
643.181	15.91
643.372	15.93
643.562	15.78
643.753	15.76
643.943	15.7
644.134	15.62
644.324	15.59
644.515	15.59
644.705	15.6
644.896	15.69
645.086	15.67
645.277	15.68
645.467	15.63
645.658	15.55
645.848	15.47
646.038	15.46
646.229	15.41
646.419	15.31
646.61	15.34
646.8	15.26
646.99	15.21
647.18	15.13
647.371	15.17
647.561	15.06
647.751	15.05
647.941	15.07
648.132	15.06
648.322	15
648.512	15.05
648.702	15.12
648.892	15.13
649.082	15.13
649.272	15.13
649.462	15.07
649.653	14.97
649.843	14.88
650.033	14.91
650.223	14.92
650.413	14.95
650.603	14.86
650.793	14.85
650.983	14.68
651.172	14.62
651.362	14.46
651.552	14.42
651.742	14.32
651.932	14.39
652.122	14.34
652.312	14.3
652.502	14.22
652.691	14.15
652.881	14.07
653.071	13.94
653.261	13.84
653.45	13.77
653.64	13.65
653.83	13.58
654.019	13.46
654.209	13.47
654.399	13.34
654.588	13.24
654.778	13.04
654.968	12.96
655.157	12.76
655.347	12.63
655.536	12.52
655.726	12.25
655.915	12.07
656.105	11.94
656.294	11.77
656.484	11.52
656.673	11.55
656.863	11.48
657.052	11.34
657.241	11.29
657.431	11.24
657.62	11.15
657.809	10.88
657.999	10.69
658.188	10.52
658.377	10.36
658.567	10.16
658.756	10.04
658.945	9.95
659.134	9.73
659.324	9.57
659.513	9.4
659.702	9.19
659.891	9.02
660.08	8.88
660.269	8.66
660.458	8.48
660.648	8.4
660.837	8.3
661.026	8.05
661.215	7.96
661.404	7.82
661.593	7.8
661.782	7.59
661.971	7.51
662.16	7.41
662.349	7.28
662.538	7
662.726	6.8
662.915	6.87
663.104	6.76
663.293	6.69
663.482	6.63
663.671	6.66
663.86	6.48
664.048	6.41
664.237	6.33
664.426	6.26
664.615	6.13
664.803	6.01
664.992	5.86
665.181	5.79
665.369	5.77
665.558	5.7
665.747	5.74
665.935	5.84
666.124	5.88
666.312	5.85
666.501	5.79
666.69	5.72
666.878	5.66
667.067	5.57
667.255	5.53
667.444	5.62
667.632	5.72
667.82	5.62
668.009	5.61
668.197	5.65
668.386	5.54
668.574	5.43
668.762	5.41
668.951	5.39
669.139	5.29
669.327	5.38
669.516	5.43
669.704	5.49
669.892	5.55
670.08	5.66
670.269	5.71
670.457	5.63
670.645	5.55
670.833	5.62
671.021	5.66
671.21	5.61
671.398	5.71
671.586	5.88
671.774	5.96
671.962	5.95
672.15	6.03
672.338	6.1
672.526	6.18
672.714	6.11
672.902	6.14
673.09	6.22
673.278	6.36
673.466	6.43
673.654	6.58
673.842	6.76
674.03	6.73
674.218	6.69
674.405	6.67
674.593	6.76
674.781	6.7
674.969	6.96
675.157	7.13
675.344	7.24
675.532	7.24
675.72	7.34
675.908	7.2
676.095	7.15
676.283	7.35
676.471	7.46
676.658	7.6
676.846	7.75
677.033	7.85
677.221	7.82
677.409	7.94
677.596	7.97
677.784	8.02
677.971	8
678.159	8.01
678.346	8.02
678.534	8.1
678.721	8.25
678.909	8.44
679.096	8.46
679.283	8.55
679.471	8.7
679.658	8.77
679.846	8.88
680.033	9.22
680.22	9.38
680.408	9.28
680.595	9.41
680.782	9.54
680.969	9.67
681.157	9.75
681.344	9.97
681.531	10.19
681.718	10.37
681.905	10.39
682.093	10.55
682.28	10.73
682.467	10.75
682.654	10.76
682.841	10.92
683.028	11.01
683.215	11.15
683.402	11.35
683.589	11.65
683.776	11.76
683.963	12.01
684.15	12.32
684.337	12.47
684.524	12.7
684.711	12.93
684.898	13.16
685.085	13.13
685.271	13.59
685.458	13.8
685.645	14.15
685.832	14.34
686.019	14.8
686.205	14.89
686.392	15.24
686.579	15.6
686.766	16.09
686.952	16.35
687.139	16.8
687.326	17.09
687.512	17.31
687.699	17.73
687.886	18.05
688.072	18.41
688.259	18.81
688.445	19.36
688.632	19.61
688.818	20.28
689.005	20.73
689.191	21.37
689.378	21.92
689.564	22.53
689.751	23.12
689.937	23.83
690.124	24.34
690.31	24.74
690.496	25.23
690.683	25.92
690.869	26.29
691.055	26.88
691.242	27.63
691.428	28.55
691.614	29.31
691.8	30.2
691.987	31.24
692.173	32.1
692.359	32.74
692.545	33.3
692.731	34.13
692.918	34.49
693.104	35.16
693.29	35.8
693.476	36.72
693.662	37.37
693.848	38.26
694.034	39.17
694.22	39.95
694.406	40.41
694.592	41.14
694.778	41.96
694.964	42.58
695.15	43.44
695.336	44.36
695.522	45.17
695.708	45.84
695.894	46.69
696.08	47.51
696.265	48.23
696.451	48.77
696.637	49.71
696.823	50.64
697.009	51.3
697.194	52.15
697.38	53.23
697.566	53.77
697.751	54.25
697.937	55.43
698.123	56.09
698.308	56.63
698.494	57.8
698.68	58.62
698.865	58.89
699.051	59.6
699.236	60.05
699.422	60.28
699.607	60.91
699.793	61.77
699.978	62.48
700.164	63.33
700.349	64.06
700.535	64.51
700.72	64.8
700.906	65.19
701.091	65.7
701.276	66.26
701.462	66.84
701.647	67.45
701.832	68.14
702.018	69.18
702.203	69.67
702.388	70.41
702.573	70.87
702.759	71.55
702.944	71.45
703.129	71.91
703.314	71.86
703.499	72.34
703.684	72.59
703.87	73.09
704.055	73.42
704.24	74.06
704.425	74.49
704.61	74.73
704.795	75.38
704.98	75.61
705.165	76.13
705.35	76.47
705.535	76.98
705.72	77.28
705.905	77.88
706.09	78.47
706.275	78.85
706.459	79.37
706.644	79.84
706.829	80.21
707.014	80.42
707.199	81.05
707.384	81.11
707.568	81.18
707.753	81.71
707.938	82.01
708.123	82.31
708.307	82.77
708.492	83.16
708.677	83.69
708.861	83.6
709.046	83.46
709.231	83.61
709.415	83.89
709.6	83.74
709.784	84.19
709.969	84.71
710.153	84.82
710.338	85.09
710.522	84.94
710.707	85.2
710.891	85.07
711.076	85.45
711.26	85.76
711.445	85.98
711.629	85.85
711.813	86.21
711.998	86.18
712.182	85.75
712.366	86.39
712.551	87.07
712.735	87.24
712.919	87.91
713.103	88.5
713.288	88.19
713.472	88.45
713.656	88.57
713.84	88.34
714.024	88.28
714.208	88.55
714.393	88.33
714.577	88.77
714.761	89.18
714.945	89.84
715.129	89.92
715.313	90.07
715.497	89.81
715.681	89.49
715.865	89.13
716.049	89.42
716.233	89.33
716.417	89.59
716.601	89.78
716.785	90.11
716.968	90.26
717.152	90.54
717.336	90.99
717.52	91.47
717.704	91.45
717.888	91.44
718.071	91.37
718.255	91.04
718.439	91.47
718.622	91.65
718.806	91.46
718.99	91.3
719.174	91.43
719.357	91.24
719.541	91.83
719.724	92.21
719.908	92.78
720.092	92.83
720.275	92.99
720.459	92.69
720.642	93.04
720.826	93.47
721.009	93.44
721.193	92.84
721.376	92.65
721.559	92.76
721.743	92.69
721.926	93.03
722.11	93.79
722.293	94.26
722.476	93.65
722.66	93.72
722.843	94.3
723.026	94.54
723.21	94.63
723.393	95.73
723.576	95.48
723.759	94.88
723.942	94.69
724.126	94.59
724.309	94.58
724.492	95.24
724.675	95.48
724.858	95.73
725.041	96.01
725.224	95.97
725.407	95.7
725.59	96.12
725.774	95.74
725.957	95.86
726.14	95.4
726.322	95.91
726.505	95.68
726.688	96.28
726.871	95.92
727.054	96.3
727.237	96.04
727.42	95.97
727.603	96.54
727.786	97.04
727.968	96.97
728.151	96.95
728.334	97.45
728.517	96.59
728.699	97.03
728.882	97.09
729.065	96.97
729.248	97.12
729.43	97.36
729.613	96.89
729.796	97.76
729.978	98.01
730.161	98.26
730.343	98.82
730.526	99.37
730.708	99.12
730.891	99.42
731.073	99.05
731.256	99.59
731.438	99.82
731.621	99.53
731.803	99.82
731.986	100.17
732.168	99.94
732.35	99.98
732.533	100.5
732.715	100.37
732.898	100.35
733.08	99.74
733.262	99.23
733.444	99.79
733.627	100.16
733.809	100.26
733.991	101
734.173	101.2
734.355	100.51
734.538	100.85
734.72	100.66
734.902	100.43
735.084	100.82
735.266	101.75
735.448	101.47
735.63	102.02
735.812	102.33
735.994	102.44
736.176	101.87
736.358	101.96
736.54	102.48
736.722	101.69
736.904	101.89
737.086	102.07
737.268	103.01
737.45	103.45
737.632	104.01
737.814	104.42
737.995	104.51
738.177	103.87
738.359	103.07
738.541	103.26
738.723	102.47
738.904	102.14
739.086	102.45
739.268	102.35
739.449	101.85
739.631	102.06
739.813	101.97
739.994	101.01
740.176	101.69
740.358	102.25
740.539	102.04
740.721	102.85
740.902	103.67
741.084	103.61
741.265	103.71
741.447	103.99
741.628	104.01
741.81	104.63
741.991	104.39
742.172	104.24
742.354	104.26
742.535	104.65
742.717	103.12
742.898	103.38
743.079	104.84
743.261	104.92
743.442	103.58
743.623	104.16
743.804	104.03
743.986	103.12
744.167	102.95
744.348	103.52
744.529	103.61
744.71	103.41
744.891	102.3
745.073	103.08
745.254	103.38
745.435	103.45
745.616	102.69
745.797	103.36
745.978	102.78
746.159	102.19
746.34	102.7
746.521	103.48
746.702	103.99
746.883	103.79
747.064	104.76
747.245	105.05
747.426	105.41
747.606	105.58
747.787	106.21
747.968	105.11
748.149	104.58
748.33	103.34
748.51	101.88
748.691	101.11
748.872	102.56
749.053	100.93
749.233	101.52
749.414	102.75
749.595	102.87
749.775	101.37
749.956	102.76
750.137	102.28
750.317	101.29
750.498	101.13
750.678	100.61
750.859	100.38
751.04	100.83
751.22	101.2
751.4	101.64
751.581	102.35
751.761	102.86
751.942	103.46
752.122	102.3
752.303	102.68
752.483	102.42
752.663	102.61
752.844	102.35
753.024	104.2
753.204	104.01
753.385	104.84
753.565	104.32
753.745	103.69
753.925	102
754.106	102.89
754.286	101.99
754.466	101.89
754.646	102.28
754.826	103.71
755.006	103.06
755.187	104.6
755.367	103.34
755.547	103.42
755.727	102.79
755.907	102.12
756.087	100.55
756.267	99.81
756.447	100.03
756.627	99.92
756.807	101.66
756.987	101.81
757.167	102.98
757.346	101.15
757.526	101.74
757.706	99.61
757.886	99.99
758.066	101.15
758.246	101.8
758.425	101.18
758.605	101.83
758.785	101.38
758.965	101.15
759.144	99.92
759.324	99.77
759.504	100.43
759.683	99.42
759.863	99.12
760.043	100.65
760.222	100.95
760.402	99.18
760.581	100.39
760.761	100.39
760.94	100.2
761.12	100.07
761.299	100.76
761.479	101.25
761.658	100.99
761.838	101.69
762.017	102.53
762.197	101.6
762.376	100.77
762.555	100.37
762.735	99.94
762.914	99.27
763.093	99.61
763.273	99.79
763.452	99.73
763.631	99.62
763.81	97.65
763.99	97.73
764.169	97.46
764.348	96.79
764.527	96.24
764.706	97.92
764.885	98.15
765.064	98.82
765.243	98.39
765.423	98.49
765.602	98.87
765.781	97.85
765.96	98.52
766.139	99.47
766.318	100.48
766.497	99.46
766.676	99.04
766.854	98.29
767.033	98.58
767.212	98.7
767.391	100.22
767.57	102.1
767.749	100.43
767.928	100.49
768.106	98.31
768.285	95.78
768.464	95.75
768.643	96.43
768.821	96.31
769	97.35
769.179	98.84
769.357	97.19
769.536	95.82
769.715	94.76
769.893	94.81
770.072	93.73
770.25	94.2
770.429	94.86
770.607	96.28
770.786	95.25
770.964	96.24
771.143	97.94
771.321	96.59
771.5	96.83
771.678	98.05
771.857	95.3
772.035	94.18
772.213	95.03
772.392	93.39
772.57	92.39
772.748	93.08
772.927	91.92
773.105	93.57
773.283	93.96
773.461	96.27
773.64	96.94
773.818	97.98
773.996	98.09
774.174	98.65
774.352	94.67
774.531	95.77
774.709	94.54
774.887	91.43
775.065	90.91
775.243	94.58
775.421	92.99
775.599	93.71
775.777	92.76
775.955	91.48
776.133	89.67
776.311	88.7
776.489	89.59
776.667	90.37
776.844	91.51
777.022	90.5
777.2	91.06
777.378	89.91
777.556	91.83
777.734	92.59
777.911	94.29
778.089	96.67
778.267	95.99
778.445	96.95
778.622	94.39
778.8	92.12
778.978	91.03
779.155	92.51
779.333	93.7
779.511	95.55
779.688	96.72
779.866	97.77
780.043	97.95
780.221	96.92
780.398	95.39
780.576	95.54
780.753	95.19
780.931	94.77
781.108	94.44
781.286	96.79
781.463	95.14
781.64	94.64
781.818	94.07
781.995	91.1
782.172	89.19
782.35	91.53
782.527	90.11
782.704	88.62
782.882	86.73
783.059	84.32
783.236	83.34
783.413	82.63
783.59	83.06
783.768	85.56
783.945	87.37
784.122	88.14
784.299	88.95
784.476	87.1
784.653	86.59
784.83	85.84
785.007	83.39
785.184	83.79
785.361	85.71
785.538	85.73
785.715	88.91
785.892	89.54
786.069	88.85
786.246	89.7
786.423	88.94
786.6	87.65
786.776	88.67
786.953	89.09
787.13	88.7
787.307	88.32
787.484	85.14
787.66	83.63
787.837	83.81
788.014	86.03
788.191	87.57
788.367	87.92
788.544	91.03
788.721	91.35
788.897	91.11
789.074	93.03
789.25	93.46
789.427	90.6
789.603	86.57
789.78	85.1
789.956	81.95
790.133	82.69
790.309	82.95
790.486	85.27
790.662	83.19
790.839	82.07
791.015	83.22
791.192	81.93
791.368	82.49
791.544	83.34
791.721	84.85
791.897	83.72
792.073	83.27
792.249	82.64
792.426	80.31
792.602	77.96
792.778	75.64
792.954	77.11
793.13	77.55
793.307	79.55
793.483	77.99
793.659	80.63
793.835	81.57
794.011	86.37
794.187	83.63
794.363	86.59
794.539	87.12
794.715	85.6
794.891	83.31
795.067	86.62
795.243	87.18
795.419	88.19
795.595	89.72
795.771	84.54
795.947	81.34
796.122	79.62
796.298	77.03
796.474	81.52
796.65	83.74
796.826	85.64
797.001	88.02
797.177	82.09
797.353	77.33
797.529	81.91
797.704	81.13
797.88	79.24
798.056	86.98
798.231	83.19
798.407	81.55
798.582	86.61
798.758	84.44
798.934	82.87
799.109	83.66
799.285	81.05
799.46	76.22
799.636	78.51
799.811	79.91
799.986	76.72
800.162	71.23
800.337	72.95
800.513	77.13
800.688	70.72
800.863	77.41
801.039	81.81
801.214	77.69
801.389	71.11
801.565	75.18
801.74	72.17
801.915	72.65
802.09	70.92
802.265	73.56
802.441	72.02
802.616	73.31
802.791	75.33
802.966	81.7
803.141	77.67
803.316	78.87
803.491	79.57
803.666	78.99
803.841	75.46
804.016	76.14
804.191	73.61
804.366	74.34
804.541	74.8
804.716	76.25
804.891	76.18
805.066	79.6
805.241	76.45
805.416	81.72
805.591	82.04
805.765	92.02
805.94	90.22
806.115	91.1
806.29	82.02
806.464	79.13
806.639	71.9
806.814	73.22
806.989	77.26
807.163	83.22
807.338	85.86
807.512	84.45
807.687	81.65
807.862	76.75
808.036	75.24
808.211	76.81
808.385	79.16
808.56	86.64
808.734	77.43
808.909	80.38
809.083	77.99
809.258	79.23
809.432	76.21
809.606	82.9
809.781	72.91
809.955	75.67
810.13	83.37
810.304	84.6
810.478	84.93
810.652	81.81
810.827	79.68
811.001	75.13
811.175	71.06
811.349	74.08
811.524	84.61
811.698	84.61
811.872	83.24
812.046	81.03
812.22	74.91
812.394	59.73
812.568	60.97
812.742	58.97
812.916	68.21
813.09	74.6
813.264	78.43
813.438	74.21
813.612	72.81
813.786	66.47
813.96	68.01
814.134	68.13
814.308	71.01
814.482	74.88
814.656	67.03
814.83	59.27
815.003	65.9
815.177	69.37
815.351	75.76
815.525	86.06
815.698	79.57
815.872	61.88
816.046	63.39
816.219	60.75
816.393	59.34
816.567	63.66
816.74	74.4
816.914	63.49
817.088	66.24
817.261	59.41
817.435	60.18
817.608	51.19
817.782	49.7
817.955	45.48
818.129	52.68
818.302	52.9
818.475	64.52
818.649	61.28
818.822	57.98
818.996	69.22
819.169	70.1
819.342	70.65
819.516	76.89
819.689	70.51
819.862	59.72
820.035	61.01
820.209	57.06
820.382	53.16
820.555	55.27
820.728	63.22
820.901	56.53
821.075	52.56
821.248	60.17
821.421	67.15
821.594	63.11
821.767	66.73
821.94	66.47
822.113	67.08
822.286	62.55
822.459	56.99
822.632	57.41
822.805	65.08
822.978	63.39
823.151	69.31
823.324	62.87
823.496	61.71
823.669	76.41
823.842	76.86
824.015	71.6
824.188	73.53
824.361	68.87
824.533	34.99
824.706	27.3
824.879	30.14
825.051	40.62
825.224	49.04
825.397	61.11
825.569	53.78
825.742	59.8
825.915	69.63
826.087	48.55
826.26	41.23
826.432	53.48
826.605	45.05
826.777	32.18
826.95	43.88
827.122	42.03
827.295	53.37
827.467	59.15
827.64	60.85
827.812	61.38
827.984	86.15
828.157	49
828.329	62.16
828.501	51.66
828.674	56.38
828.846	55.82
829.018	68.4
829.19	62.32
829.363	62.25
829.535	64.9
829.707	50.68
829.879	43.69
830.051	42.89
830.223	50.72
830.395	42.56
830.568	52.22
830.74	53.63
830.912	52.23
831.084	47.28
831.256	55.8
831.428	57.55
831.6	54.63
831.772	51.68
831.943	54.78
832.115	57.77
832.287	49.79
832.459	70.22
832.631	78.62
832.803	80.08
832.975	81.49
833.146	81.89
833.318	68.48
833.49	59.91
833.662	66.12
833.833	38.7
834.005	30.57
834.177	45.48
834.348	38.6
834.52	34.97
834.692	41.78
834.863	44.62
835.035	46.36
835.206	52.34
835.378	50.31
835.549	58.59
835.721	61.15
835.892	47.19
836.064	46.3
836.235	38.97
836.407	37.98
836.578	40.26
836.749	41.01
836.921	37.93
837.092	40.71
837.264	39.17
837.435	18.98
837.606	33.76
837.777	31.42
837.949	47.2
838.12	45.62
838.291	51.07
838.462	39.32
838.633	45.19
838.805	22.17
838.976	29.46
839.147	35.74
839.318	44.24
839.489	43.54
839.66	61.85
839.831	51.55
840.002	48.69
840.173	49.58
840.344	44.46
840.515	28.01
840.686	43.71
840.857	42.44
841.028	49.57
841.199	66.06
841.369	72.52
841.54	87.28
841.711	133.61
841.882	125.02
842.053	83.93
842.223	79.92
842.394	56.6
842.565	30.38
842.736	17.51
842.906	16.35
843.077	37.24
843.248	54.84
843.418	47.61
843.589	45.26
843.759	58.25
843.93	57.75
844.101	41.19
844.271	92.37
844.442	90.13
844.612	77.48
844.783	56.47
844.953	47.53
845.123	27.5
845.294	28.27
845.464	20.51
845.635	10.66
845.805	20.52
845.975	19.03
846.146	21.21
846.316	12.17
846.486	45.97
846.656	47.56
846.827	43.37
846.997	44.1
847.167	58.13
847.337	43.88
847.507	37.5
847.677	40.92
847.848	49.68
848.018	36.34
848.188	38.8
848.358	36.21
848.528	44.99
848.698	40.78
848.868	45.57
849.038	31.31
849.208	29.2
849.378	24.04
849.548	-7.22
849.718	-0.35
849.887	-8.18
850.057	-10.63
850.227	-7.3
850.397	21.73
850.567	-31.85
850.737	-0.29
850.906	-5.31
851.076	-12.6
851.246	1.95
851.415	32.77
851.585	39.19
851.755	45.7
851.924	49
852.094	59.44
852.264	59.54
852.433	37.13
852.603	19.21
852.772	33.52
852.942	43.2
853.111	37.02
853.281	44.71
853.45	54.31
853.62	49.49
853.789	9.95
853.959	20.93
854.128	32.01
854.297	37.26
854.467	39.55
854.636	57.46
854.805	60.99
854.975	54.95
855.144	49.84
855.313	54.27
855.482	21.56
855.652	6.96
855.821	13.66
855.99	10.34
856.159	21.19
856.328	42.96
856.497	38.63
856.667	28.05
856.836	42.14
857.005	31.29
857.174	29.95
857.343	12.15
857.512	17.77
857.681	-3.31
857.85	-23.35
858.019	-54.15
858.188	-39.06
858.356	-14.01
858.525	13.98
858.694	57.72
858.863	50.69
859.032	57.51
859.201	57.73
859.369	30.11
859.538	21.53
859.707	12.69
859.876	12.66
860.044	41.03
860.213	57.01
860.382	53.92
860.55	49.97
860.719	69.38
860.888	47.54
861.056	50.8
861.225	20.3
861.393	8.14
861.562	-32.55
861.73	-28.94
861.899	-45.55
862.067	-51.3
862.236	-34.45
862.404	0.56
862.572	-5.89
862.741	-10.19
862.909	-20.46
863.078	-23.3
863.246	-27.21
863.414	-5.83
863.582	23.85
863.751	38.81
863.919	67.86
864.087	54.86
864.255	83.92
864.424	12.85
864.592	12.36
864.76	0.86
864.928	16.58
865.096	-7.01
865.264	19.45
865.432	39.54
865.6	55.73
865.768	48.78
865.936	32.46
866.104	30.25
866.272	-46.88
866.44	-70.38
866.608	-32.05
866.776	-5.58
866.944	-16.86
867.112	24.97
867.28	29.61
867.448	21.65
867.615	17.25
867.783	14.37
867.951	0.91
868.119	-6.8
868.286	13.39
868.454	6.47
868.622	11.46
868.789	41.18
868.957	45.39
869.125	30.75
869.292	5.07
869.46	17.01
869.627	4.68
869.795	-48.84
869.963	-17.91
870.13	20.04
870.298	30.82
870.465	35.09
870.632	56.46
870.8	70.54
870.967	47.36
871.135	23.7
871.302	2.1
871.469	20.75
871.637	-0.04
871.804	19.2
871.971	23.23
872.139	26.63
872.306	-8.73
872.473	-76.06
872.64	-166.36
872.807	-176.42
872.975	-316.15
873.142	-42.95
873.309	13.8
873.476	60.75
873.643	90.12
873.81	70.7
873.977	52.43
874.144	77.06
874.311	32.29
874.478	-13.15
874.645	-67.83
874.812	6.68
874.979	-16.03
875.146	-46.04
875.313	8.97
875.48	52.53
875.647	35.2
875.813	2.99
875.98	5.77
876.147	-37.72
876.314	-39.59
876.481	-77.79
876.647	-22.81
876.814	-7.9
876.981	4.06
877.147	5.58
877.314	13.2
877.481	14.48
877.647	18.15
877.814	22.03
877.98	11.48
878.147	54.69
878.314	68.84
878.48	74.95
878.647	71.81
878.813	92.65
878.979	71.53
879.146	82.69
879.312	86.85
879.479	44.06
879.645	36.79
879.811	14.11
879.978	23.82
880.144	21.25
880.31	24.03
880.477	16.54
880.643	17.24
880.809	-102.78
880.975	-150.91
881.142	-156.63
881.308	408.75
881.474	663.17
881.64	-88.1
881.806	-102.75
881.972	-126.3
882.138	-32.75
882.304	-42.03
882.47	-25.03
882.636	-29.65
882.802	-20.87
882.968	-25.03
883.134	2.1
883.3	-13.88
883.466	22.16
883.632	61.31
883.798	-36.98
883.964	-66.35
884.129	-676.42
884.295	-40.91
884.461	-94.96
884.627	-16.77
884.793	-25.88
884.958	2.61
885.124	-31.96
885.29	-52.19
885.455	-120.27
885.621	-70.01
885.787	-27.13
885.952	-69.38
886.118	-20.99
886.283	-8.09
886.449	-12.95
886.614	-18.9
886.78	25.2
886.945	13.16
887.111	7.69
887.276	-2.63
887.442	-18.4
887.607	-1.17
887.773	35.49
887.938	10.66
888.103	9.87
888.269	20.75
888.434	27.98
888.599	1.11
888.764	21.74
888.93	41.48
889.095	22.29
889.26	-2.55
889.425	-5.58
889.59	23.5
889.756	-10.81
889.921	-0.04
890.086	-29
890.251	42.09
890.416	-22.61
890.581	-1.83
890.746	22.74
890.911	19.64
891.076	6.43
891.241	10.51
891.406	-36.26
891.571	-60.65
891.736	-117.38
891.901	-5.62
892.065	-7.27
892.23	29.66
892.395	14.44
892.56	37.6
892.725	54.73
892.889	60.68
893.054	60.69
893.219	7.4
893.384	-44.22
893.548	-94.12
893.713	-101.87
893.878	-251.67
