Data from Ofra_1a_PS_1GT42_Reflection_2.txt Node
Date: Tue Jul 20 10:45:21 EDT 2021
User: Adam
Spectrometer: FLMT01687
Trigger mode: 0
Integration Time (sec): 1.004000E0
Scans to average: 2
Electric dark correction enabled: true
Nonlinearity correction enabled: false
Boxcar width: 2
XAxis mode: Wavelengths
Number of Pixels in Spectrum: 3648
>>>>>Begin Spectral Data<<<<<
179.494	-192.39
179.716	-232.06
179.937	449.16
180.158	-121.66
180.38	20.12
180.601	-2.37
180.823	-91.57
181.044	-134.28
181.265	-106.21
181.486	98.77
181.708	70.73
181.929	6427.27
182.15	-81.1
182.372	702.96
182.593	357.38
182.814	-118
183.035	6.19
183.257	57.22
183.478	51.21
183.699	4.44
183.92	-24.96
184.141	-31.06
184.363	-42.95
184.584	-72.71
184.805	-6.98
185.026	6.46
185.247	-14.02
185.468	-48.62
185.689	-38.3
185.91	-68.88
186.132	-46.44
186.353	-26.49
186.574	-22.25
186.795	-12.79
187.016	12.52
187.237	4.54
187.458	-5.3
187.679	-5.98
187.9	7.23
188.121	-0.31
188.342	13.7
188.563	69.8
188.784	59.62
189.005	58.14
189.226	38.3
189.447	42.47
189.667	13.13
189.888	6.95
190.109	-5.43
190.33	20.02
190.551	14.76
190.772	50.79
190.993	60.07
191.214	77.94
191.434	81.13
191.655	91.09
191.876	58.13
192.097	78.19
192.318	45.29
192.538	7.16
192.759	-9.28
192.98	3.45
193.201	-7.24
193.421	7.4
193.642	27.07
193.863	43.32
194.083	27.9
194.304	38.66
194.525	42.54
194.745	34.58
194.966	34.31
195.187	36.21
195.407	26.16
195.628	20.05
195.848	5.62
196.069	-14.65
196.29	-9.83
196.51	0.02
196.731	3.17
196.951	19.58
197.172	26.37
197.392	9.3
197.613	31.95
197.833	21.14
198.054	8.17
198.274	4.37
198.495	18.53
198.715	4.55
198.936	24.1
199.156	43.07
199.377	41.66
199.597	39.77
199.817	39.24
200.038	1.74
200.258	12.93
200.479	26.49
200.699	6.92
200.919	-0.48
201.14	21.73
201.36	10.06
201.58	-24.46
201.801	-13.76
202.021	9.64
202.241	-9.87
202.461	10.43
202.682	42.24
202.902	49.28
203.122	45.95
203.342	38.77
203.563	16.01
203.783	1.59
204.003	-24.92
204.223	-26.45
204.443	-9.31
204.663	-29.45
204.884	-32.19
205.104	-32.64
205.324	-10.53
205.544	-68.53
205.764	-14.41
205.984	0.02
206.204	16.28
206.424	-25.18
206.644	-20.76
206.864	-59.11
207.084	-17.4
207.304	-35.63
207.525	-10.71
207.745	15.73
207.964	28.58
208.184	20.55
208.404	19.34
208.624	18.08
208.844	2.71
209.064	-3.57
209.284	-24.79
209.504	-38.71
209.724	-38.66
209.944	-20.33
210.164	-17.19
210.384	7.73
210.604	-9.73
210.823	-13.53
211.043	-22.33
211.263	-98.91
211.483	-77.01
211.703	-45.75
211.922	-57.96
212.142	-31.91
212.362	12.03
212.582	23.01
212.801	37.63
213.021	12.96
213.241	-11.2
213.461	-13.53
213.68	-11.22
213.9	-15.72
214.12	-1.63
214.339	1.37
214.559	6.41
214.779	-15.82
214.998	-22.47
215.218	-7.02
215.438	4.09
215.657	-9.89
215.877	4.95
216.096	35.81
216.316	34.81
216.535	16.52
216.755	20.84
216.974	19.5
217.194	-7.82
217.413	-7.36
217.633	3.28
217.852	-2.22
218.072	5.07
218.291	3.78
218.511	3.86
218.73	1.51
218.95	22.88
219.169	24.79
219.389	16.77
219.608	-1.03
219.827	7.55
220.047	10.01
220.266	-10.88
220.485	-0.28
220.705	12.63
220.924	4.85
221.143	11.42
221.363	18.18
221.582	18.74
221.801	20.14
222.021	23.03
222.24	21.13
222.459	37.09
222.678	27.92
222.897	25.74
223.117	28.39
223.336	25.6
223.555	17.62
223.774	24.48
223.993	32.49
224.213	26.44
224.432	13.93
224.651	-6.17
224.87	-2.01
225.089	0.38
225.308	0.74
225.527	-5.05
225.746	-12.02
225.965	-8.57
226.184	-41.33
226.404	-40.26
226.623	-12.89
226.842	3.91
227.061	-5.27
227.28	23.41
227.499	24.39
227.718	21.59
227.936	14.92
228.155	15.13
228.374	10.12
228.593	25.5
228.812	22.87
229.031	40.9
229.25	35.67
229.469	21.89
229.688	15.17
229.907	11.38
230.125	-2.16
230.344	8.45
230.563	27.01
230.782	36.68
231.001	49.55
231.22	56.05
231.438	52.53
231.657	42.1
231.876	26.45
232.095	18.71
232.313	19.53
232.532	18.79
232.751	-3.44
232.969	1.97
233.188	-7.54
233.407	-3.5
233.625	-1.56
233.844	15.14
234.063	16.31
234.281	18.36
234.5	1.7
234.719	-4.17
234.937	-14.68
235.156	-35.55
235.374	-13.15
235.593	15.12
235.811	29.04
236.03	26.03
236.249	37.54
236.467	40.76
236.686	30.59
236.904	38.95
237.123	34.94
237.341	24.91
237.559	-10.23
237.778	19.65
237.996	-10.76
238.215	-36
238.433	-50.88
238.652	12.07
238.87	-12.26
239.088	-11.98
239.307	0.82
239.525	-3.53
239.743	-16.5
239.962	-20.77
240.18	-23.9
240.398	-8.4
240.617	4.47
240.835	17.55
241.053	32.11
241.271	55.97
241.49	41.68
241.708	36.75
241.926	28.74
242.144	18.81
242.363	1.94
242.581	-42.93
242.799	-63.46
243.017	-35.08
243.235	-21.14
243.453	-34.3
243.672	-10.22
243.89	6.92
244.108	7.21
244.326	18.96
244.544	35.26
244.762	26.97
244.98	32.01
245.198	32.97
245.416	24.15
245.634	18.88
245.852	6.34
246.07	4.74
246.288	8.24
246.506	7.62
246.724	9.09
246.942	29.79
247.16	36.76
247.378	52.85
247.596	85.51
247.814	80.79
248.032	76.7
248.25	64.2
248.468	47.5
248.685	33.39
248.903	33.43
249.121	26.99
249.339	29.35
249.557	27.84
249.775	32.7
249.992	32.04
250.21	28.72
250.428	33.19
250.646	30.79
250.863	21.3
251.081	28.15
251.299	33.58
251.517	25.25
251.734	21.65
251.952	21.23
252.17	20.54
252.387	21.29
252.605	14.33
252.823	0.8
253.04	-3.64
253.258	-11.09
253.475	-10.04
253.693	-5.3
253.911	1.96
254.128	15.73
254.346	19.58
254.563	16.76
254.781	12.95
254.998	26.63
255.216	-5.71
255.433	-23.99
255.651	-3.99
255.868	4.13
256.086	5.5
256.303	30.57
256.521	40.34
256.738	29.83
256.956	13.35
257.173	5.19
257.39	-11.15
257.608	-13.27
257.825	-4.23
258.043	4.72
258.26	2.21
258.477	4.47
258.695	-0.27
258.912	-19.25
259.129	-33.59
259.346	-54.44
259.564	-48.68
259.781	-27.84
259.998	-1.3
260.216	23.95
260.433	24.82
260.65	20.01
260.867	11.1
261.084	11.49
261.302	-22.25
261.519	-8.95
261.736	-6.76
261.953	2.44
262.17	3.85
262.387	6.18
262.604	14.92
262.822	24.98
263.039	29.37
263.256	34.95
263.473	33.54
263.69	25.37
263.907	34.77
264.124	27.86
264.341	36.74
264.558	40.17
264.775	31.91
264.992	26.9
265.209	23.91
265.426	11.32
265.643	15.9
265.86	15.87
266.077	-17.69
266.294	-3.93
266.51	7.08
266.727	-3.87
266.944	14.94
267.161	19.44
267.378	20.95
267.595	5.59
267.812	4.05
268.028	-12.27
268.245	5.77
268.462	4.14
268.679	20.81
268.896	43.04
269.112	38.63
269.329	4.47
269.546	30.73
269.763	25.69
269.979	4.83
270.196	25.37
270.413	35.52
270.629	6.7
270.846	-0.91
271.063	3.75
271.279	-14.35
271.496	-13.07
271.712	-6.23
271.929	0.34
272.146	-11.31
272.362	-1.63
272.579	-4.19
272.795	-5.4
273.012	3.31
273.228	29.02
273.445	26.57
273.661	28.41
273.878	21.55
274.094	7.79
274.311	-17.3
274.527	-31.39
274.744	-9.2
274.96	5.99
275.177	-1.98
275.393	29.04
275.609	41.78
275.826	33.05
276.042	25.41
276.259	32.44
276.475	6.87
276.691	-11.63
276.908	-18.63
277.124	-14.58
277.34	-15.74
277.557	-34.94
277.773	-28.41
277.989	-4.82
278.205	-7.94
278.422	-16.29
278.638	6.96
278.854	-0.3
279.07	4.13
279.286	3.97
279.503	24.76
279.719	32.83
279.935	28.08
280.151	26.73
280.367	38.34
280.583	33.29
280.799	10.47
281.016	-14.64
281.232	1.04
281.448	-15.11
281.664	-17.4
281.88	14.25
282.096	29.13
282.312	16.76
282.528	23.94
282.744	28.03
282.96	-3.65
283.176	-15.66
283.392	-28.97
283.608	-33.2
283.824	-43.73
284.04	-47.28
284.256	-34.78
284.471	-12.65
284.687	-6.97
284.903	-4.51
285.119	9.77
285.335	21.35
285.551	12.16
285.767	5.79
285.982	16.33
286.198	-12.37
286.414	-38.98
286.63	-39.25
286.846	-55.89
287.061	-38.3
287.277	-37.66
287.493	-11.09
287.709	-18.82
287.924	16.2
288.14	10.26
288.356	29.28
288.571	29.18
288.787	17.86
289.003	16.25
289.218	1.23
289.434	9.7
289.65	18.41
289.865	39.92
290.081	31.83
290.296	37.83
290.512	26.61
290.727	8.65
290.943	0.37
291.159	4.17
291.374	-3.08
291.59	2.11
291.805	6.1
292.021	6.19
292.236	-1.28
292.451	11.16
292.667	8.29
292.882	14.18
293.098	7.75
293.313	7.16
293.529	4.26
293.744	-4.06
293.959	-7.42
294.175	3.64
294.39	-1.53
294.605	-1.22
294.821	8.65
295.036	9.09
295.251	14.83
295.467	7.28
295.682	4.56
295.897	-13.78
296.112	-20.05
296.328	-19.37
296.543	-26.7
296.758	-21.16
296.973	-10.28
297.188	-16.68
297.404	-43.84
297.619	-34.69
297.834	-67.61
298.049	-43.51
298.264	-27.49
298.479	-17.49
298.694	18.1
298.909	26.06
299.125	30.9
299.34	32.3
299.555	36.42
299.77	33.25
299.985	25.04
300.2	18.6
300.415	12.31
300.63	5.55
300.845	-15.17
301.06	1.48
301.275	4.85
301.49	7.03
301.704	18.1
301.919	14.43
302.134	1.07
302.349	-1.68
302.564	7.57
302.779	-6.53
302.994	19.17
303.209	28.88
303.423	30.4
303.638	21
303.853	7.33
304.068	-23.61
304.283	-18.44
304.497	-40.37
304.712	-9.43
304.927	5.84
305.142	19.23
305.356	20.56
305.571	39.03
305.786	40.61
306	55.72
306.215	54.3
306.43	45.91
306.644	11.98
306.859	-25.99
307.074	-16.68
307.288	-21.08
307.503	-9.75
307.717	4.74
307.932	24.46
308.147	25.81
308.361	36.47
308.576	23.67
308.79	19.46
309.005	-3.2
309.219	-2.35
309.434	-1.88
309.648	4.7
309.863	14
310.077	28.84
310.292	32.1
310.506	8.56
310.72	12.64
310.935	15.99
311.149	20.01
311.364	19.17
311.578	34.88
311.792	34.57
312.007	28.76
312.221	20.27
312.435	12.54
312.649	17.45
312.864	16.84
313.078	16.99
313.292	3.92
313.507	6.95
313.721	3.94
313.935	-2.4
314.149	3.6
314.363	25.76
314.578	24.79
314.792	6.04
315.006	1.44
315.22	7.59
315.434	4.03
315.648	-13.11
315.862	-10.32
316.077	-7.87
316.291	-13.72
316.505	-34.55
316.719	0.65
316.933	16.03
317.147	8.47
317.361	3.23
317.575	4.46
317.789	-9.83
318.003	-17.93
318.217	-8.77
318.431	-11.43
318.645	-3.28
318.859	2.27
319.073	17.06
319.287	12.75
319.5	12.36
319.714	9.2
319.928	17.2
320.142	18.95
320.356	38.9
320.57	20.01
320.784	39.34
320.997	28.7
321.211	33.52
321.425	14.33
321.639	42.38
321.853	31.99
322.066	19.41
322.28	-1.48
322.494	12.4
322.707	11.92
322.921	6.64
323.135	13.86
323.349	10.24
323.562	5.91
323.776	0.64
323.989	11.82
324.203	-2.39
324.417	1.4
324.63	-18.12
324.844	-36.88
325.057	-56.79
325.271	-37.45
325.485	-61.68
325.698	-36.27
325.912	-4.99
326.125	-19.26
326.339	1.75
326.552	17.43
326.766	6.74
326.979	2.04
327.193	13.31
327.406	-3.2
327.619	-3.45
327.833	7.12
328.046	8.59
328.26	3.39
328.473	12.25
328.686	12.64
328.9	9.46
329.113	4.39
329.326	17.01
329.54	14.46
329.753	18.87
329.966	23.53
330.179	12.9
330.393	5.45
330.606	1.84
330.819	-8.05
331.032	-3.04
331.246	22.22
331.459	32.66
331.672	19.88
331.885	16.16
332.098	8.8
332.311	-28.34
332.525	-15.16
332.738	1.76
332.951	-13.59
333.164	-7.49
333.377	12.76
333.59	-4.14
333.803	-6.09
334.016	21.75
334.229	24.93
334.442	30.25
334.655	36.15
334.868	19.79
335.081	16.09
335.294	15.37
335.507	15.8
335.72	12.76
335.933	22.27
336.146	12.13
336.359	21.82
336.572	25.11
336.785	27.77
336.997	22.34
337.21	33.64
337.423	12.71
337.636	-12.87
337.849	-16.07
338.062	-1.83
338.274	5.9
338.487	-6.18
338.7	2.61
338.913	14.55
339.125	-6.29
339.338	-22.48
339.551	-8.35
339.763	-29.48
339.976	-40.35
340.189	-30.78
340.402	-14.5
340.614	-9.25
340.827	18.66
341.039	18.46
341.252	15.31
341.465	-2.46
341.677	-0.65
341.89	-10.33
342.102	5.48
342.315	5
342.527	10.93
342.74	-11
342.952	-11.42
343.165	-15.68
343.377	-5.76
343.59	1.14
343.802	8.08
344.015	3.67
344.227	3.46
344.44	0.16
344.652	0.44
344.864	10.42
345.077	22.72
345.289	26.74
345.502	30.63
345.714	28.58
345.926	19.15
346.139	0.21
346.351	-11.85
346.563	-3.53
346.775	-4.48
346.988	16.37
347.2	25.34
347.412	32.86
347.624	17.18
347.837	18.27
348.049	3.75
348.261	-11.54
348.473	-20.67
348.685	-19.82
348.897	-29.69
349.11	-23.71
349.322	-9.12
349.534	-17.65
349.746	-13.16
349.958	-10.84
350.17	-21.94
350.382	-8.4
350.594	1.88
350.806	15.78
351.018	20.12
351.23	32.62
351.442	31.24
351.654	30.85
351.866	24.79
352.078	39.31
352.29	37.58
352.502	31.74
352.714	36.44
352.926	40.24
353.138	33.04
353.35	24.56
353.561	28.69
353.773	20.69
353.985	25.51
354.197	13.96
354.409	13.2
354.621	6.09
354.832	7.6
355.044	-11.1
355.256	-5.67
355.468	-12.74
355.679	10.68
355.891	18.82
356.103	14.46
356.314	12.1
356.526	6.86
356.738	-5.9
356.949	-13.25
357.161	7.29
357.373	6.79
357.584	29.87
357.796	30.67
358.008	29.15
358.219	25.13
358.431	18.14
358.642	4.45
358.854	4.08
359.065	-10.83
359.277	-9.23
359.488	-12.73
359.7	-15.43
359.911	-25.61
360.123	-2.93
360.334	-9.71
360.546	-9.63
360.757	-5.43
360.969	3.14
361.18	-5.07
361.391	2.94
361.603	1.69
361.814	-7.22
362.025	6.19
362.237	11.73
362.448	8.07
362.659	12.28
362.871	7.03
363.082	-9.06
363.293	-13.16
363.504	-9.05
363.716	-9.81
363.927	17.37
364.138	20.84
364.349	4.81
364.56	3.5
364.772	5.54
364.983	4.41
365.194	3.52
365.405	11.23
365.616	23.54
365.827	18.98
366.038	14.32
366.25	18.15
366.461	22.17
366.672	7.22
366.883	3.04
367.094	0.9
367.305	-3.25
367.516	-1.5
367.727	7.16
367.938	15.2
368.149	4.84
368.36	10.24
368.571	-19.8
368.781	-23.34
368.992	-17.59
369.203	-4.55
369.414	-15.5
369.625	10.36
369.836	31.55
370.047	33.67
370.258	38.41
370.468	35.64
370.679	23.96
370.89	3.65
371.101	12.04
371.312	3.96
371.522	10.33
371.733	12.13
371.944	0.01
372.155	-2.36
372.365	-2.21
372.576	-2.28
372.787	11.26
372.997	11.96
373.208	9.61
373.419	9.13
373.629	2.9
373.84	-8.62
374.05	-8.3
374.261	-26.92
374.472	-22.82
374.682	1.98
374.893	0.01
375.103	19.43
375.314	34.59
375.524	34.51
375.735	22.49
375.945	27.64
376.156	18.74
376.366	8.29
376.577	14.83
376.787	13.77
376.997	15.21
377.208	8.36
377.418	11.11
377.629	5.31
377.839	8.64
378.049	6.7
378.26	8.18
378.47	1.74
378.68	4.46
378.89	1.22
379.101	3.78
379.311	5.98
379.521	5.65
379.732	10.14
379.942	9.9
380.152	-5.01
380.362	-0.63
380.572	12.08
380.783	12.17
380.993	6.98
381.203	8.2
381.413	10.97
381.623	4.86
381.833	3.35
382.043	4.31
382.253	7.41
382.463	10.35
382.674	13.49
382.884	22.56
383.094	28.76
383.304	32.92
383.514	30.92
383.724	29.87
383.934	12.95
384.144	9.25
384.353	12.36
384.563	6.66
384.773	11.98
384.983	14.65
385.193	8.93
385.403	5.17
385.613	7.31
385.823	0.37
386.033	0.72
386.242	-0.55
386.452	-5.13
386.662	-1.49
386.872	0.07
387.082	-1.19
387.291	1.64
387.501	2.63
387.711	3.18
387.921	2.71
388.13	8.32
388.34	7.99
388.55	6.74
388.759	-1.47
388.969	-2.42
389.179	-4.73
389.388	-5.26
389.598	-5.52
389.807	-6.07
390.017	-5.97
390.227	-8.5
390.436	-6.87
390.646	-9.05
390.855	-4.17
391.065	-2.71
391.274	-1.5
391.484	-2.04
391.693	1.85
391.903	0.53
392.112	-0.61
392.322	-1.31
392.531	-2.81
392.74	-3.41
392.95	-2.96
393.159	-2.21
393.369	-0.3
393.578	1.71
393.787	2.6
393.997	3.94
394.206	4.5
394.415	3.97
394.625	2.78
394.834	1.69
395.043	1.13
395.252	1.8
395.462	2.06
395.671	2.35
395.88	3.51
396.089	2.85
396.298	2.22
396.508	2.78
396.717	3.15
396.926	2.7
397.135	3.27
397.344	3.03
397.553	2.71
397.762	3.39
397.971	2.97
398.181	2.78
398.39	2.15
398.599	2.23
398.808	2.17
399.017	3.23
399.226	3.1
399.435	3.42
399.644	3.5
399.853	3.06
400.062	2.49
400.27	2.15
400.479	2.18
400.688	1.85
400.897	1.96
401.106	2.24
401.315	2.57
401.524	2.69
401.733	2.9
401.941	3.26
402.15	2.94
402.359	3.11
402.568	3.35
402.777	3.47
402.985	2.85
403.194	2.73
403.403	2.78
403.612	2.4
403.82	1.98
404.029	2.08
404.238	2.27
404.446	2.14
404.655	2.37
404.864	2.65
405.072	2.81
405.281	2.84
405.489	2.95
405.698	2.96
405.906	3.04
406.115	2.84
406.324	2.7
406.532	2.65
406.741	2.62
406.949	2.57
407.158	2.77
407.366	2.67
407.574	2.66
407.783	2.72
407.991	2.58
408.2	2.68
408.408	2.87
408.617	2.82
408.825	2.62
409.033	2.69
409.242	2.64
409.45	2.52
409.658	2.55
409.867	2.69
410.075	2.65
410.283	2.52
410.491	2.48
410.7	2.45
410.908	2.46
411.116	2.43
411.324	2.42
411.533	2.51
411.741	2.51
411.949	2.36
412.157	2.37
412.365	2.41
412.573	2.36
412.781	2.31
412.99	2.42
413.198	2.5
413.406	2.56
413.614	2.68
413.822	2.82
414.03	2.85
414.238	2.84
414.446	2.78
414.654	2.7
414.862	2.61
415.07	2.55
415.278	2.55
415.486	2.4
415.694	2.32
415.902	2.26
416.109	2.22
416.317	2.08
416.525	2.05
416.733	1.98
416.941	2.11
417.149	2.08
417.357	2.17
417.564	2.23
417.772	2.49
417.98	2.38
418.188	2.42
418.395	2.27
418.603	2.17
418.811	1.96
419.019	1.95
419.226	1.95
419.434	2.03
419.642	2.09
419.849	2.15
420.057	2.11
420.265	2.01
420.472	2.04
420.68	2.08
420.887	2.11
421.095	2.16
421.302	2.22
421.51	2.09
421.717	2.22
421.925	2.18
422.132	2.19
422.34	2.02
422.547	2.1
422.755	2.07
422.962	2.17
423.17	1.97
423.377	2.18
423.585	2.34
423.792	2.38
423.999	2.31
424.207	2.33
424.414	2.3
424.621	2.1
424.829	2.06
425.036	2.03
425.243	2.12
425.451	2.13
425.658	2.28
425.865	2.27
426.072	2.28
426.28	2.36
426.487	2.29
426.694	2.14
426.901	2.26
427.108	2.27
427.315	2.22
427.523	2.19
427.73	2.32
427.937	1.99
428.144	2.04
428.351	1.95
428.558	2.21
428.765	2.07
428.972	2.21
429.179	2.04
429.386	2.18
429.593	1.86
429.8	1.92
430.007	1.98
430.214	2.04
430.421	2.04
430.628	2.13
430.835	2.13
431.042	2
431.249	1.95
431.456	1.89
431.662	1.92
431.869	2.18
432.076	2.33
432.283	2.54
432.49	2.59
432.697	2.69
432.903	2.55
433.11	2.58
433.317	2.54
433.524	2.58
433.73	2.49
433.937	2.61
434.144	2.58
434.35	2.59
434.557	2.61
434.764	2.64
434.97	2.51
435.177	2.57
435.384	2.58
435.59	2.58
435.797	2.65
436.003	2.76
436.21	2.74
436.416	2.75
436.623	2.86
436.829	2.71
437.036	2.65
437.242	2.67
437.449	2.64
437.655	2.66
437.862	2.83
438.068	2.81
438.275	2.88
438.481	2.9
438.687	2.74
438.894	2.81
439.1	2.77
439.307	2.81
439.513	2.91
439.719	3.08
439.926	2.93
440.132	3.07
440.338	3
440.544	2.85
440.751	2.75
440.957	2.84
441.163	2.71
441.369	2.76
441.575	2.82
441.782	2.92
441.988	2.94
442.194	3
442.4	2.94
442.606	3.06
442.812	3.02
443.018	3.03
443.224	3.08
443.431	3.07
443.637	2.94
443.843	2.99
444.049	3.06
444.255	3.17
444.461	3.19
444.667	3.26
444.873	3.3
445.079	3.28
445.284	3.21
445.49	3.22
445.696	3.17
445.902	3.02
446.108	3.01
446.314	3
446.52	3.11
446.726	3.17
446.931	3.27
447.137	3.3
447.343	3.4
447.549	3.41
447.755	3.4
447.96	3.52
448.166	3.54
448.372	3.45
448.578	3.41
448.783	3.52
448.989	3.45
449.195	3.38
449.4	3.47
449.606	3.41
449.812	3.34
450.017	3.36
450.223	3.41
450.428	3.41
450.634	3.41
450.84	3.38
451.045	3.48
451.251	3.48
451.456	3.48
451.662	3.53
451.867	3.54
452.073	3.47
452.278	3.44
452.483	3.4
452.689	3.42
452.894	3.6
453.1	3.64
453.305	3.71
453.51	3.78
453.716	3.75
453.921	3.74
454.127	3.69
454.332	3.69
454.537	3.66
454.742	3.72
454.948	3.65
455.153	3.63
455.358	3.62
455.563	3.67
455.769	3.67
455.974	3.65
456.179	3.66
456.384	3.68
456.589	3.68
456.795	3.66
457	3.58
457.205	3.54
457.41	3.52
457.615	3.44
457.82	3.58
458.025	3.69
458.23	3.75
458.435	3.8
458.64	3.87
458.845	3.82
459.05	3.84
459.255	3.84
459.46	3.77
459.665	3.81
459.87	3.75
460.075	3.81
460.28	3.87
460.485	3.95
460.69	3.86
460.895	3.93
461.099	3.79
461.304	3.68
461.509	3.7
461.714	3.86
461.919	3.82
462.123	3.91
462.328	3.92
462.533	3.85
462.738	3.7
462.942	3.67
463.147	3.68
463.352	3.79
463.556	3.88
463.761	3.96
463.966	4
464.17	4.12
464.375	4.14
464.58	4.09
464.784	4.14
464.989	4.1
465.193	4.02
465.398	4.05
465.602	4.15
465.807	4.11
466.011	4.15
466.216	4.12
466.42	4.17
466.625	4.24
466.829	4.27
467.034	4.39
467.238	4.49
467.443	4.42
467.647	4.31
467.851	4.3
468.056	4.34
468.26	4.27
468.464	4.33
468.669	4.44
468.873	4.47
469.077	4.43
469.282	4.48
469.486	4.47
469.69	4.48
469.894	4.51
470.099	4.55
470.303	4.52
470.507	4.57
470.711	4.51
470.915	4.55
471.119	4.58
471.324	4.7
471.528	4.7
471.732	4.75
471.936	4.72
472.14	4.69
472.344	4.69
472.548	4.7
472.752	4.67
472.956	4.72
473.16	4.7
473.364	4.66
473.568	4.62
473.772	4.66
473.976	4.75
474.18	4.85
474.384	4.88
474.588	4.97
474.792	4.97
474.995	4.95
475.199	4.86
475.403	4.91
475.607	4.94
475.811	4.9
476.015	4.83
476.218	4.85
476.422	4.85
476.626	4.83
476.83	4.93
477.033	5.02
477.237	5.07
477.441	5.07
477.644	5.03
477.848	5.01
478.052	4.96
478.255	5.06
478.459	4.98
478.663	5.08
478.866	5.12
479.07	5.09
479.273	5.05
479.477	5.13
479.681	5.15
479.884	5.1
480.088	5.18
480.291	5.16
480.495	5.17
480.698	5.18
480.901	5.24
481.105	5.2
481.308	5.2
481.512	5.27
481.715	5.31
481.919	5.36
482.122	5.41
482.325	5.47
482.529	5.45
482.732	5.38
482.935	5.3
483.138	5.27
483.342	5.27
483.545	5.33
483.748	5.39
483.952	5.42
484.155	5.51
484.358	5.52
484.561	5.47
484.764	5.45
484.967	5.45
485.171	5.43
485.374	5.41
485.577	5.41
485.78	5.37
485.983	5.33
486.186	5.31
486.389	5.34
486.592	5.29
486.795	5.32
486.998	5.32
487.201	5.34
487.404	5.38
487.607	5.46
487.81	5.42
488.013	5.43
488.216	5.44
488.419	5.42
488.622	5.36
488.825	5.38
489.028	5.38
489.231	5.4
489.433	5.36
489.636	5.37
489.839	5.42
490.042	5.47
490.245	5.42
490.447	5.41
490.65	5.45
490.853	5.39
491.056	5.35
491.258	5.38
491.461	5.38
491.664	5.4
491.866	5.37
492.069	5.42
492.272	5.37
492.474	5.38
492.677	5.4
492.879	5.38
493.082	5.42
493.285	5.5
493.487	5.53
493.69	5.52
493.892	5.58
494.095	5.52
494.297	5.53
494.5	5.53
494.702	5.55
494.905	5.55
495.107	5.59
495.309	5.57
495.512	5.6
495.714	5.6
495.917	5.61
496.119	5.57
496.321	5.55
496.524	5.47
496.726	5.41
496.928	5.43
497.13	5.41
497.333	5.39
497.535	5.5
497.737	5.53
497.939	5.58
498.142	5.55
498.344	5.61
498.546	5.55
498.748	5.59
498.95	5.59
499.152	5.66
499.355	5.66
499.557	5.68
499.759	5.73
499.961	5.72
500.163	5.76
500.365	5.78
500.567	5.73
500.769	5.69
500.971	5.75
501.173	5.67
501.375	5.75
501.577	5.76
501.779	5.75
501.981	5.69
502.183	5.68
502.385	5.64
502.587	5.72
502.788	5.78
502.99	5.84
503.192	5.92
503.394	5.87
503.596	5.84
503.798	5.77
503.999	5.76
504.201	5.76
504.403	5.85
504.605	5.88
504.806	5.94
505.008	5.96
505.21	6.02
505.411	5.96
505.613	5.98
505.815	5.98
506.016	5.97
506.218	6.01
506.42	6.02
506.621	6.05
506.823	6.07
507.024	6.08
507.226	6.06
507.427	6.12
507.629	6.13
507.83	6.16
508.032	6.11
508.233	6.12
508.435	6.17
508.636	6.22
508.838	6.19
509.039	6.26
509.24	6.25
509.442	6.25
509.643	6.16
509.845	6.19
510.046	6.27
510.247	6.32
510.448	6.36
510.65	6.47
510.851	6.52
511.052	6.52
511.254	6.54
511.455	6.45
511.656	6.37
511.857	6.32
512.058	6.33
512.26	6.34
512.461	6.45
512.662	6.47
512.863	6.39
513.064	6.35
513.265	6.35
513.466	6.32
513.667	6.36
513.868	6.47
514.069	6.5
514.27	6.46
514.471	6.45
514.672	6.44
514.873	6.42
515.074	6.45
515.275	6.48
515.476	6.56
515.677	6.57
515.878	6.62
516.079	6.64
516.28	6.7
516.481	6.63
516.682	6.64
516.882	6.63
517.083	6.6
517.284	6.6
517.485	6.62
517.686	6.62
517.886	6.64
518.087	6.61
518.288	6.56
518.488	6.57
518.689	6.56
518.89	6.58
519.091	6.7
519.291	6.68
519.492	6.7
519.692	6.74
519.893	6.75
520.094	6.7
520.294	6.76
520.495	6.75
520.695	6.76
520.896	6.73
521.096	6.74
521.297	6.74
521.497	6.76
521.698	6.75
521.898	6.78
522.099	6.81
522.299	6.76
522.499	6.73
522.7	6.79
522.9	6.79
523.101	6.74
523.301	6.77
523.501	6.83
523.702	6.82
523.902	6.83
524.102	6.94
524.302	7.01
524.503	7
524.703	6.98
524.903	6.97
525.103	6.9
525.304	6.92
525.504	6.92
525.704	6.95
525.904	6.95
526.104	6.99
526.304	7
526.504	7.01
526.705	6.98
526.905	7.01
527.105	7
527.305	6.92
527.505	6.89
527.705	6.9
527.905	6.94
528.105	6.93
528.305	6.99
528.505	7.01
528.705	7.08
528.905	7.07
529.105	7.08
529.304	7.08
529.504	7.16
529.704	7.1
529.904	7.13
530.104	7.11
530.304	7.11
530.503	7.07
530.703	7.06
530.903	7.07
531.103	7.18
531.303	7.16
531.502	7.21
531.702	7.28
531.902	7.31
532.101	7.26
532.301	7.31
532.501	7.42
532.7	7.45
532.9	7.44
533.1	7.44
533.299	7.45
533.499	7.35
533.698	7.31
533.898	7.39
534.097	7.42
534.297	7.44
534.496	7.46
534.696	7.53
534.895	7.53
535.095	7.56
535.294	7.57
535.494	7.57
535.693	7.57
535.892	7.55
536.092	7.58
536.291	7.61
536.491	7.67
536.69	7.71
536.889	7.71
537.088	7.73
537.288	7.74
537.487	7.75
537.686	7.71
537.886	7.71
538.085	7.68
538.284	7.7
538.483	7.68
538.682	7.75
538.882	7.79
539.081	7.83
539.28	7.81
539.479	7.82
539.678	7.82
539.877	7.88
540.076	7.92
540.275	7.96
540.474	7.96
540.673	8.01
540.872	7.95
541.071	7.98
541.27	8.01
541.469	8.09
541.668	8.09
541.867	8.17
542.066	8.18
542.265	8.22
542.464	8.2
542.663	8.28
542.862	8.35
543.06	8.46
543.259	8.54
543.458	8.64
543.657	8.65
543.856	8.71
544.054	8.72
544.253	8.76
544.452	8.75
544.651	8.78
544.849	8.71
545.048	8.72
545.247	8.7
545.445	8.75
545.644	8.75
545.843	8.83
546.041	8.87
546.24	8.89
546.438	8.96
546.637	9.02
546.836	9.03
547.034	9.1
547.233	9.23
547.431	9.26
547.63	9.29
547.828	9.28
548.027	9.34
548.225	9.32
548.423	9.33
548.622	9.38
548.82	9.5
549.019	9.45
549.217	9.52
549.415	9.6
549.614	9.72
549.812	9.7
550.01	9.8
550.209	9.88
550.407	9.95
550.605	9.93
550.803	10.01
551.002	10.13
551.2	10.14
551.398	10.26
551.596	10.36
551.794	10.42
551.993	10.42
552.191	10.52
552.389	10.56
552.587	10.6
552.785	10.62
552.983	10.74
553.181	10.79
553.379	10.84
553.577	10.95
553.775	11.12
553.973	11.24
554.171	11.28
554.369	11.35
554.567	11.41
554.765	11.47
554.963	11.49
555.161	11.57
555.359	11.62
555.557	11.62
555.755	11.74
555.952	11.84
556.15	11.96
556.348	11.99
556.546	12.13
556.744	12.15
556.941	12.12
557.139	12.15
557.337	12.33
557.535	12.37
557.732	12.44
557.93	12.63
558.128	12.74
558.325	12.79
558.523	12.93
558.721	13.1
558.918	13.22
559.116	13.3
559.313	13.42
559.511	13.54
559.708	13.58
559.906	13.6
560.104	13.7
560.301	13.76
560.498	13.83
560.696	13.91
560.893	13.97
561.091	14.07
561.288	14.24
561.486	14.22
561.683	14.31
561.88	14.45
562.078	14.55
562.275	14.62
562.473	14.78
562.67	14.92
562.867	14.96
563.064	15.02
563.262	15.07
563.459	15.28
563.656	15.36
563.853	15.43
564.051	15.55
564.248	15.66
564.445	15.65
564.642	15.73
564.839	15.85
565.036	15.98
565.234	16.1
565.431	16.21
565.628	16.3
565.825	16.38
566.022	16.45
566.219	16.58
566.416	16.6
566.613	16.7
566.81	16.86
567.007	16.91
567.204	16.91
567.401	17
567.598	17.09
567.795	17.11
567.991	17.13
568.188	17.18
568.385	17.24
568.582	17.28
568.779	17.32
568.976	17.42
569.172	17.49
569.369	17.52
569.566	17.59
569.763	17.58
569.96	17.68
570.156	17.74
570.353	17.82
570.55	17.94
570.746	18.11
570.943	18.19
571.14	18.21
571.336	18.33
571.533	18.33
571.729	18.36
571.926	18.39
572.123	18.51
572.319	18.56
572.516	18.61
572.712	18.66
572.909	18.6
573.105	18.66
573.302	18.66
573.498	18.59
573.695	18.64
573.891	18.68
574.087	18.63
574.284	18.64
574.48	18.82
574.677	18.89
574.873	19.03
575.069	19.09
575.266	19.18
575.462	19.27
575.658	19.3
575.854	19.21
576.051	19.22
576.247	19.15
576.443	19.1
576.639	19.01
576.835	19.04
577.032	18.96
577.228	19.01
577.424	19.02
577.62	19.04
577.816	19.08
578.012	19.15
578.208	19.16
578.404	19.04
578.6	19.17
578.796	19.13
578.993	19.18
579.189	19.23
579.384	19.31
579.58	19.24
579.776	19.22
579.972	19.17
580.168	19.12
580.364	19.1
580.56	18.97
580.756	18.95
580.952	19
581.148	19.08
581.343	19.09
581.539	19.23
581.735	19.21
581.931	19.12
582.127	19.04
582.322	18.99
582.518	18.93
582.714	19.01
582.909	19
583.105	18.96
583.301	18.97
583.496	18.99
583.692	18.9
583.888	18.91
584.083	18.89
584.279	18.8
584.474	18.68
584.67	18.71
584.866	18.67
585.061	18.69
585.257	18.8
585.452	18.92
585.648	18.96
585.843	19.02
586.039	19.04
586.234	19.04
586.429	18.97
586.625	18.97
586.82	18.94
587.015	18.91
587.211	18.86
587.406	18.93
587.601	18.92
587.797	18.9
587.992	18.93
588.187	18.94
588.383	18.9
588.578	18.97
588.773	19.04
588.968	19.08
589.163	19.21
589.359	19.27
589.554	19.22
589.749	19.27
589.944	19.22
590.139	19.17
590.334	19.21
590.529	19.28
590.724	19.34
590.919	19.41
591.114	19.44
591.309	19.49
591.504	19.41
591.699	19.36
591.894	19.38
592.089	19.37
592.284	19.42
592.479	19.54
592.674	19.56
592.869	19.61
593.064	19.75
593.259	19.77
593.454	19.88
593.648	19.9
593.843	19.87
594.038	19.88
594.233	19.97
594.428	20.02
594.622	20.16
594.817	20.45
595.012	20.53
595.206	20.56
595.401	20.64
595.596	20.71
595.79	20.64
595.985	20.67
596.18	20.71
596.374	20.82
596.569	20.87
596.763	20.97
596.958	21.21
597.153	21.29
597.347	21.21
597.542	21.26
597.736	21.34
597.931	21.26
598.125	21.35
598.319	21.51
598.514	21.61
598.708	21.72
598.903	21.82
599.097	21.88
599.291	21.89
599.486	21.96
599.68	21.96
599.874	22.02
600.069	22.17
600.263	22.28
600.457	22.29
600.651	22.35
600.846	22.38
601.04	22.29
601.234	22.37
601.428	22.49
601.622	22.57
601.817	22.63
602.011	22.73
602.205	22.8
602.399	22.85
602.593	22.81
602.787	22.81
602.981	22.82
603.175	22.82
603.369	22.78
603.563	22.8
603.757	22.82
603.951	22.82
604.145	22.74
604.339	22.81
604.533	22.82
604.727	22.85
604.921	22.84
605.115	22.8
605.309	22.61
605.502	22.63
605.696	22.57
605.89	22.65
606.084	22.66
606.278	22.71
606.471	22.67
606.665	22.59
606.859	22.45
607.053	22.31
607.246	22.23
607.44	22.11
607.634	22.1
607.827	22.03
608.021	22.06
608.214	22.04
608.408	21.94
608.602	21.79
608.795	21.73
608.989	21.62
609.182	21.57
609.376	21.64
609.569	21.6
609.763	21.56
609.956	21.55
610.15	21.49
610.343	21.43
610.537	21.4
610.73	21.26
610.923	21.29
611.117	21.17
611.31	20.98
611.504	20.9
611.697	20.86
611.89	20.75
612.083	20.69
612.277	20.73
612.47	20.62
612.663	20.6
612.856	20.4
613.05	20.38
613.243	20.23
613.436	20.23
613.629	20.13
613.822	20.1
614.015	20.02
614.209	19.95
614.402	19.87
614.595	19.84
614.788	19.84
614.981	19.76
615.174	19.65
615.367	19.54
615.56	19.39
615.753	19.35
615.946	19.3
616.139	19.29
616.332	19.28
616.525	19.29
616.718	19.23
616.911	19.24
617.103	19.21
617.296	19.15
617.489	19.02
617.682	18.98
617.875	18.97
618.067	18.92
618.26	18.88
618.453	18.91
618.646	18.78
618.838	18.68
619.031	18.57
619.224	18.56
619.417	18.57
619.609	18.57
619.802	18.53
619.994	18.6
620.187	18.5
620.38	18.41
620.572	18.37
620.765	18.27
620.957	18.17
621.15	18.13
621.342	18.09
621.535	18.08
621.727	18.07
621.92	18.19
622.112	18.25
622.305	18.3
622.497	18.29
622.69	18.25
622.882	18.08
623.074	18.11
623.267	18.07
623.459	18
623.651	18.03
623.844	18.11
624.036	18.08
624.228	17.99
624.42	17.96
624.613	17.9
624.805	17.81
624.997	17.73
625.189	17.79
625.381	17.71
625.574	17.71
625.766	17.64
625.958	17.6
626.15	17.55
626.342	17.59
626.534	17.55
626.726	17.63
626.918	17.63
627.11	17.59
627.302	17.57
627.494	17.59
627.686	17.51
627.878	17.39
628.07	17.37
628.262	17.39
628.454	17.27
628.646	17.22
628.838	17.28
629.029	17.19
629.221	17.12
629.413	17.12
629.605	17.09
629.797	17.06
629.989	17.08
630.18	17.12
630.372	17.06
630.564	16.99
630.755	16.95
630.947	16.86
631.139	16.74
631.33	16.75
631.522	16.77
631.714	16.67
631.905	16.7
632.097	16.64
632.289	16.55
632.48	16.54
632.672	16.55
632.863	16.46
633.055	16.44
633.246	16.46
633.438	16.42
633.629	16.41
633.821	16.44
634.012	16.44
634.203	16.43
634.395	16.41
634.586	16.47
634.777	16.46
634.969	16.51
635.16	16.44
635.351	16.36
635.543	16.28
635.734	16.21
635.925	16.19
636.117	16.22
636.308	16.3
636.499	16.23
636.69	16.27
636.881	16.22
637.073	16.2
637.264	16.19
637.455	16.14
637.646	16.05
637.837	16.1
638.028	16.09
638.219	16.1
638.41	16.22
638.601	16.23
638.792	16.21
638.983	16.18
639.174	16.07
639.365	16
639.556	15.94
639.747	15.83
639.938	15.89
640.129	15.91
640.32	15.85
640.511	15.92
640.701	15.96
640.892	15.83
641.083	15.73
641.274	15.68
641.465	15.54
641.655	15.56
641.846	15.61
642.037	15.62
642.228	15.61
642.418	15.65
642.609	15.54
642.8	15.48
642.99	15.49
643.181	15.55
643.372	15.56
643.562	15.55
643.753	15.5
643.943	15.37
644.134	15.21
644.324	15.15
644.515	15.15
644.705	15.15
644.896	15.29
645.086	15.36
645.277	15.37
645.467	15.34
645.658	15.27
645.848	15.22
646.038	15.22
646.229	15.18
646.419	15
646.61	15.05
646.8	15.06
646.99	15.06
647.18	15.05
647.371	15.16
647.561	15.09
647.751	15
647.941	14.95
648.132	14.89
648.322	14.87
648.512	14.81
648.702	14.82
648.892	14.76
649.082	14.76
649.272	14.76
649.462	14.85
649.653	14.77
649.843	14.78
650.033	14.82
650.223	14.8
650.413	14.68
650.603	14.75
650.793	14.74
650.983	14.6
651.172	14.55
651.362	14.44
651.552	14.31
651.742	14.23
651.932	14.26
652.122	14.34
652.312	14.39
652.502	14.32
652.691	14.29
652.881	14.25
653.071	14.12
653.261	14.04
653.45	14.01
653.64	13.92
653.83	13.85
654.019	13.69
654.209	13.61
654.399	13.44
654.588	13.33
654.778	13.22
654.968	13.2
655.157	13.15
655.347	13.1
655.536	13.05
655.726	12.86
655.915	12.64
656.105	12.48
656.294	12.34
656.484	12.13
656.673	12.06
656.863	12.09
657.052	11.89
657.241	11.85
657.431	11.79
657.62	11.7
657.809	11.45
657.999	11.34
658.188	11.21
658.377	10.98
658.567	10.83
658.756	10.75
658.945	10.7
659.134	10.51
659.324	10.38
659.513	10.19
659.702	10.01
659.891	9.91
660.08	9.77
660.269	9.68
660.458	9.57
660.648	9.45
660.837	9.22
661.026	9.09
661.215	8.94
661.404	8.83
661.593	8.79
661.782	8.77
661.971	8.6
662.16	8.56
662.349	8.4
662.538	8.22
662.726	8.03
662.915	8.07
663.104	7.91
663.293	7.9
663.482	7.87
663.671	7.83
663.86	7.78
664.048	7.8
664.237	7.73
664.426	7.71
664.615	7.6
664.803	7.49
664.992	7.38
665.181	7.28
665.369	7.09
665.558	7.06
665.747	7.02
665.935	6.96
666.124	6.98
666.312	7.08
666.501	7.12
666.69	7.15
666.878	7.11
667.067	7.01
667.255	6.89
667.444	6.92
667.632	6.81
667.82	6.85
668.009	6.89
668.197	6.92
668.386	6.82
668.574	6.83
668.762	6.79
668.951	6.78
669.139	6.8
669.327	6.75
669.516	6.79
669.704	6.76
669.892	6.73
670.08	6.74
670.269	6.82
670.457	6.8
670.645	6.77
670.833	6.84
671.021	6.87
671.21	6.87
671.398	6.87
671.586	6.94
671.774	6.98
671.962	6.96
672.15	6.99
672.338	7.03
672.526	7.16
672.714	7.19
672.902	7.26
673.09	7.22
673.278	7.27
673.466	7.35
673.654	7.37
673.842	7.46
674.03	7.57
674.218	7.61
674.405	7.53
674.593	7.61
674.781	7.55
674.969	7.65
675.157	7.77
675.344	7.92
675.532	7.93
675.72	8.11
675.908	8.1
676.095	8.12
676.283	8.18
676.471	8.21
676.658	8.25
676.846	8.37
677.033	8.42
677.221	8.45
677.409	8.53
677.596	8.53
677.784	8.55
677.971	8.52
678.159	8.65
678.346	8.82
678.534	8.96
678.721	9.11
678.909	9.28
679.096	9.34
679.283	9.33
679.471	9.47
679.658	9.5
679.846	9.54
680.033	9.69
680.22	9.76
680.408	9.68
680.595	9.68
680.782	9.91
680.969	9.98
681.157	10.02
681.344	10.19
681.531	10.45
681.718	10.51
681.905	10.59
682.093	10.79
682.28	11.1
682.467	11.23
682.654	11.36
682.841	11.55
683.028	11.66
683.215	11.82
683.402	11.84
683.589	12.02
683.776	12.14
683.963	12.47
684.15	12.66
684.337	13
684.524	13.23
684.711	13.38
684.898	13.48
685.085	13.49
685.271	13.77
685.458	13.93
685.645	14.19
685.832	14.45
686.019	14.66
686.205	14.93
686.392	15.26
686.579	15.67
686.766	15.99
686.952	16.29
687.139	16.67
687.326	17.05
687.512	17.35
687.699	17.7
687.886	18.12
688.072	18.38
688.259	18.68
688.445	19.24
688.632	19.73
688.818	20.38
689.005	20.8
689.191	21.27
689.378	21.61
689.564	22.19
689.751	22.7
689.937	23.47
690.124	24.18
690.31	24.57
690.496	25.1
690.683	25.58
690.869	25.85
691.055	26.32
691.242	26.99
691.428	27.53
691.614	28.16
691.8	28.86
691.987	29.7
692.173	30.47
692.359	31.34
692.545	32.05
692.731	32.96
692.918	33.41
693.104	34.01
693.29	34.57
693.476	35.36
693.662	35.79
693.848	36.48
694.034	37.05
694.22	37.59
694.406	38.13
694.592	38.98
694.778	39.69
694.964	40.67
695.15	41.53
695.336	42.39
695.522	43.01
695.708	43.82
695.894	44.54
696.08	45.48
696.265	46.21
696.451	46.87
696.637	47.6
696.823	48.2
697.009	48.66
697.194	49.22
697.38	50.1
697.566	50.51
697.751	51.24
697.937	52.08
698.123	52.48
698.308	52.79
698.494	53.96
698.68	54.64
698.865	55.15
699.051	56.12
699.236	57.11
699.422	57.31
699.607	58.12
699.793	58.94
699.978	59.18
700.164	59.47
700.349	60.38
700.535	60.63
700.72	60.89
700.906	61.26
701.091	61.88
701.276	62.22
701.462	62.82
701.647	63.56
701.832	64.33
702.018	65.38
702.203	65.53
702.388	65.85
702.573	66.07
702.759	66.91
702.944	66.58
703.129	67.34
703.314	67.93
703.499	68.18
703.684	68.27
703.87	68.75
704.055	68.94
704.24	69.08
704.425	69.44
704.61	69.82
704.795	70.22
704.98	70.4
705.165	70.73
705.35	71.22
705.535	71.62
705.72	71.93
705.905	72.67
706.09	73.19
706.275	73.52
706.459	73.95
706.644	74.43
706.829	74.78
707.014	75.18
707.199	75.33
707.384	75.63
707.568	75.67
707.753	75.91
707.938	75.99
708.123	76.47
708.307	76.54
708.492	77.25
708.677	77.56
708.861	77.63
709.046	77.23
709.231	77.44
709.415	77.2
709.6	77.19
709.784	77.53
709.969	78.29
710.153	78.1
710.338	78.75
710.522	79.13
710.707	79.14
710.891	79.27
711.076	79.84
711.26	79.93
711.445	80.03
711.629	80.18
711.813	80.4
711.998	80.75
712.182	80.59
712.366	80.85
712.551	81.21
712.735	81.09
712.919	81.48
713.103	81.9
713.288	81.85
713.472	82.19
713.656	82.28
713.84	81.77
714.024	82.02
714.208	82.11
714.393	82.02
714.577	82.48
714.761	82.45
714.945	82.04
715.129	82.05
715.313	82.11
715.497	82.17
715.681	82.31
715.865	82.73
716.049	83.37
716.233	83.98
716.417	84.06
716.601	84.54
716.785	84.48
716.968	83.88
717.152	83.62
717.336	83.7
717.52	83.69
717.704	83.99
717.888	84.54
718.071	84.46
718.255	84.84
718.439	84.88
718.622	84.83
718.806	84.75
718.99	84.8
719.174	84.6
719.357	84.93
719.541	85.08
719.724	85.27
719.908	85.32
720.092	85.37
720.275	85.38
720.459	85.52
720.642	85.91
720.826	86.2
721.009	86.43
721.193	86.29
721.376	86.09
721.559	85.87
721.743	86.36
721.926	86.21
722.11	86.3
722.293	86.96
722.476	86.65
722.66	86.54
722.843	86.66
723.026	87.1
723.21	86.5
723.393	87.27
723.576	87.23
723.759	87.72
723.942	87.82
724.126	88.27
724.309	87.65
724.492	87.61
724.675	87.52
724.858	87.56
725.041	87.47
725.224	87.86
725.407	87.96
725.59	87.77
725.774	87.39
725.957	87.78
726.14	87.74
726.322	87.87
726.505	87.76
726.688	88.2
726.871	87.97
727.054	88.41
727.237	88.16
727.42	88.05
727.603	88.05
727.786	88.64
727.968	88.32
728.151	88.65
728.334	89.01
728.517	88.95
728.699	88.55
728.882	88.67
729.065	88.36
729.248	89.1
729.43	89.21
729.613	88.75
729.796	89.42
729.978	89.71
730.161	89.34
730.343	89.6
730.526	90.07
730.708	89.53
730.891	90.08
731.073	90.4
731.256	90.55
731.438	91.67
731.621	91.39
731.803	91.16
731.986	90.57
732.168	90.88
732.35	90.41
732.533	90.77
732.715	91.17
732.898	91.92
733.08	91.52
733.262	91.4
733.444	92.17
733.627	92.11
733.809	92.23
733.991	92.55
734.173	92.28
734.355	91.74
734.538	91.95
734.72	92.08
734.902	92.33
735.084	92.7
735.266	93.28
735.448	93.63
735.63	93.81
735.812	94.08
735.994	94.2
736.176	93.8
736.358	93.37
736.54	93.8
736.722	93.25
736.904	92.82
737.086	92.59
737.268	93.01
737.45	92.69
737.632	93.24
737.814	93.87
737.995	94.71
738.177	94.18
738.359	93.73
738.541	92.73
738.723	92.41
738.904	92.16
739.086	92.25
739.268	92.16
739.449	92.3
739.631	92.54
739.813	91.66
739.994	91.36
740.176	91.82
740.358	92.82
740.539	92.66
740.721	93.27
740.902	94.14
741.084	94.01
741.265	93.52
741.447	93.97
741.628	94.03
741.81	94.21
741.991	94.39
742.172	94.57
742.354	94.05
742.535	94.09
742.717	92.77
742.898	92.32
743.079	92.73
743.261	92.65
743.442	91.71
743.623	92.87
743.804	93.22
743.986	93.56
744.167	93.61
744.348	94.36
744.529	93.07
744.71	93.04
744.891	92.73
745.073	92.98
745.254	93.65
745.435	94.34
745.616	93.67
745.797	93.16
745.978	93.68
746.159	93.31
746.34	94.08
746.521	94.47
746.702	93.77
746.883	93.99
747.064	93.77
747.245	94.09
747.426	95.52
747.606	96.65
747.787	95.95
747.968	95.65
748.149	94.85
748.33	92.62
748.51	91.03
748.691	91.48
748.872	93.68
749.053	93.63
749.233	94.84
749.414	96.1
749.595	96.64
749.775	94.67
749.956	94.33
750.137	93.01
750.317	91.63
750.498	91.55
750.678	91.97
750.859	92.85
751.04	93.5
751.22	94.14
751.4	93.72
751.581	93.84
751.761	92.67
751.942	92.99
752.122	91.88
752.303	91.85
752.483	91.32
752.663	92.31
752.844	92.33
753.024	94.49
753.204	94.18
753.385	94.28
753.565	93.56
753.745	93.59
753.925	92.13
754.106	91.99
754.286	92.4
754.466	92.35
754.646	92.83
754.826	95.62
755.006	95.34
755.187	96.3
755.367	95.76
755.547	95.72
755.727	94.43
755.907	95.38
756.087	93.06
756.267	93.87
756.447	94
756.627	93.91
756.807	93.38
756.987	93.52
757.167	93.18
757.346	92.27
757.526	92.96
757.706	93.12
757.886	93.48
758.066	95.2
758.246	95.47
758.425	93.63
758.605	93.3
758.785	92.85
758.965	92.74
759.144	92.18
759.324	94.3
759.504	95.25
759.683	95.95
759.863	95.91
760.043	95.93
760.222	95.12
760.402	93.42
760.581	94.31
760.761	93.33
760.94	93.35
761.12	92.34
761.299	94.09
761.479	94.35
761.658	93.78
761.838	95.21
762.017	96.3
762.197	93.58
762.376	92.34
762.555	92.56
762.735	91.1
762.914	90.81
763.093	91.07
763.273	91.31
763.452	89.29
763.631	89.2
763.81	89.25
763.99	89.99
764.169	90.3
764.348	92.04
764.527	92.37
764.706	91.6
764.885	92.66
765.064	92.31
765.243	92.84
765.423	93.75
765.602	92.69
765.781	91
765.96	89.94
766.139	88.54
766.318	88.53
766.497	89.23
766.676	89.15
766.854	90.98
767.033	94.09
767.212	94.76
767.391	95.71
767.57	97.99
767.749	97.09
767.928	95.44
768.106	94.19
768.285	92.3
768.464	91.02
768.643	91.05
768.821	89.25
769	88.87
769.179	90.01
769.357	90.57
769.536	89.86
769.715	89.55
769.893	90.54
770.072	89.78
770.25	88.7
770.429	88.92
770.607	90.9
770.786	89.82
770.964	91.34
771.143	91.91
771.321	90.18
771.5	90.44
771.678	88.8
771.857	86.93
772.035	87.23
772.213	89.35
772.392	85.87
772.57	87.22
772.748	87.22
772.927	87.71
773.105	88.23
773.283	90.36
773.461	91.95
773.64	92.76
773.818	92.42
773.996	92.41
774.174	92.52
774.352	89.09
774.531	88.13
774.709	87.14
774.887	85.28
775.065	85.15
775.243	87.25
775.421	86.8
775.599	86.68
775.777	85.77
775.955	86.75
776.133	87.24
776.311	88.09
776.489	88.04
776.667	89.56
776.844	88.36
777.022	87.85
777.2	87.2
777.378	86.95
777.556	87.16
777.734	87.96
777.911	88.13
778.089	90.94
778.267	90.94
778.445	93.03
778.622	92.49
778.8	89.61
778.978	87.94
779.155	88.9
779.333	86.82
779.511	86.61
779.688	88.82
779.866	88.8
780.043	89.04
780.221	89.65
780.398	88.84
780.576	89.07
780.753	87.63
780.931	87
781.108	87.55
781.286	90.55
781.463	89.77
781.64	93.14
781.818	94.23
781.995	91.78
782.172	91.58
782.35	90.8
782.527	88.18
782.704	86.94
782.882	85.46
783.059	84.09
783.236	86.37
783.413	85.5
783.59	87.27
783.768	89.67
783.945	87.88
784.122	85.79
784.299	88.39
784.476	82.56
784.653	82.1
784.83	82.06
785.007	81.93
785.184	80.42
785.361	83.26
785.538	81
785.715	82.89
785.892	82.3
786.069	83.88
786.246	84.24
786.423	86.08
786.6	85.7
786.776	86.28
786.953	84.74
787.13	85.48
787.307	85.21
787.484	83.06
787.66	83.9
787.837	82.9
788.014	83.33
788.191	81.49
788.367	79.41
788.544	79.34
788.721	80.71
788.897	78.8
789.074	81.18
789.25	85.08
789.427	83.78
789.603	77.88
789.78	75.14
789.956	72.05
790.133	70.03
790.309	68.54
790.486	72.19
790.662	76.26
790.839	76.72
791.015	78.52
791.192	79.97
791.368	80.79
791.544	79.49
791.721	82.45
791.897	80.2
792.073	78.5
792.249	77.4
792.426	79.09
792.602	80.83
792.778	79.86
792.954	80.79
793.13	81.26
793.307	81.65
793.483	77.44
793.659	79.55
793.835	81.89
794.011	83.35
794.187	81.9
794.363	81.83
794.539	82.27
794.715	81.11
794.891	79.5
795.067	77.45
795.243	79.59
795.419	79.43
795.595	83.86
795.771	83.31
795.947	85.03
796.122	83.71
796.298	83.85
796.474	84.75
796.65	85.45
796.826	81.32
797.001	82.08
797.177	76
797.353	71.42
797.529	69.54
797.704	73.06
797.88	71.84
798.056	75.91
798.231	72.24
798.407	77.31
798.582	74.16
798.758	74.36
798.934	76.23
799.109	78.22
799.285	77.42
799.46	78.06
799.636	77.22
799.811	76.83
799.986	77.9
800.162	71.34
800.337	73.58
800.513	78.19
800.688	70.84
800.863	74.74
801.039	82.92
801.214	79.33
801.389	73.27
801.565	82.31
801.74	75.78
801.915	73.7
802.09	72.5
802.265	74.29
802.441	66.92
802.616	68.21
802.791	70.47
802.966	75.23
803.141	75.44
803.316	82.36
803.491	82.67
803.666	81.74
803.841	80.87
804.016	79.11
804.191	75.23
804.366	73.66
804.541	69
804.716	60.34
804.891	62.13
805.066	68.11
805.241	66.82
805.416	75.15
805.591	83.35
805.765	96.02
805.94	81.67
806.115	77.55
806.29	70.05
806.464	67.98
806.639	56.59
806.814	66.1
806.989	74.11
807.163	81.55
807.338	80.15
807.512	82.23
807.687	79.97
807.862	77.91
808.036	74.4
808.211	83.49
808.385	82.96
808.56	80.25
808.734	70.56
808.909	68.75
809.083	65.77
809.258	70.5
809.432	69.94
809.606	79.63
809.781	74.85
809.955	73.53
810.13	71.34
810.304	72.04
810.478	72.21
810.652	71.21
810.827	68.72
811.001	68.57
811.175	74.59
811.349	73.73
811.524	79.01
811.698	78.6
811.872	79.12
812.046	69.76
812.22	72.82
812.394	71.63
812.568	70.75
812.742	71.13
812.916	72.46
813.09	68.39
813.264	65.24
813.438	71.14
813.612	69.69
813.786	68.86
813.96	76.54
814.134	72.33
814.308	71.59
814.482	71.99
814.656	68.07
814.83	58.75
815.003	71.06
815.177	72.59
815.351	74.98
815.525	87.96
815.698	82.59
815.872	72.58
816.046	64.62
816.219	62.87
816.393	60.07
816.567	67.29
816.74	64.16
816.914	63.89
817.088	59.72
817.261	57.36
817.435	55.36
817.608	60.65
817.782	54.24
817.955	55.97
818.129	54.43
818.302	55.19
818.475	62.84
818.649	66.82
818.822	62.82
818.996	74.81
819.169	78.75
819.342	75.76
819.516	79.13
819.689	76.4
819.862	65.73
820.035	61.69
820.209	56.68
820.382	55.82
820.555	59.44
820.728	62.99
820.901	54.89
821.075	60.26
821.248	62.11
821.421	60.78
821.594	58.79
821.767	59.58
821.94	54.68
822.113	59.14
822.286	59.58
822.459	61.96
822.632	72.47
822.805	81.03
822.978	76.66
823.151	73.99
823.324	66.31
823.496	58.86
823.669	61.01
823.842	74.81
824.015	76.26
824.188	66.98
824.361	77.99
824.533	61.58
824.706	47.41
824.879	63.28
825.051	74.09
825.224	63.09
825.397	64.18
825.569	59.63
825.742	67.29
825.915	71.39
826.087	67.81
826.26	74.37
826.432	69.25
826.605	63.2
826.777	70.4
826.95	82.82
827.122	71.25
827.295	93.74
827.467	86.52
827.64	66.07
827.812	51.61
827.984	85.24
828.157	80.2
828.329	89.97
828.501	90.74
828.674	88.93
828.846	81.34
829.018	74.86
829.19	61.49
829.363	67.37
829.535	65.72
829.707	63.42
829.879	56.89
830.051	70.44
830.223	62.73
830.395	60.69
830.568	62.39
830.74	64.59
830.912	53.83
831.084	53.85
831.256	50.5
831.428	44
831.6	33.08
831.772	26.12
831.943	22.87
832.115	30.21
832.287	40.23
832.459	61.17
832.631	66.81
832.803	71.2
832.975	67.91
833.146	62.92
833.318	62.38
833.49	55.66
833.662	60.04
833.833	49.84
834.005	49.07
834.177	43.97
834.348	41.86
834.52	41.1
834.692	44.6
834.863	50.34
835.035	60.32
835.206	71.26
835.378	68.62
835.549	69.65
835.721	57.04
835.892	46.88
836.064	45.64
836.235	37.08
836.407	46.55
836.578	60.04
836.749	63.08
836.921	60.05
837.092	59.45
837.264	52.56
837.435	48.57
837.606	43.28
837.777	51.46
837.949	66.63
838.12	62.4
838.291	67.47
838.462	75.81
838.633	86.27
838.805	74.01
838.976	78.5
839.147	82.6
839.318	88.35
839.489	59.62
839.66	69.07
839.831	75.79
840.002	60.82
840.173	62.4
840.344	62.47
840.515	41.78
840.686	34.81
840.857	41.28
841.028	42.65
841.199	53.73
841.369	67.46
841.54	68.88
841.711	76.54
841.882	80.41
842.053	46.78
842.223	56.73
842.394	51.37
842.565	47.5
842.736	33.13
842.906	34.01
843.077	26.82
843.248	44.23
843.418	36.24
843.589	43.08
843.759	43.99
843.93	49.38
844.101	26.48
844.271	38.77
844.442	47.68
844.612	70.09
844.783	61.92
844.953	72.21
845.123	57.2
845.294	56.2
845.464	22.15
845.635	25.24
845.805	33.49
845.975	59.55
846.146	42.17
846.316	75.62
846.486	87.06
846.656	69.2
846.827	58.92
846.997	63.42
847.167	59.4
847.337	51.55
847.507	59.24
847.677	60.28
847.848	60.48
848.018	71.41
848.188	59.76
848.358	37.69
848.528	39.32
848.698	32.74
848.868	11.78
849.038	4.75
849.208	33.22
849.378	39.46
849.548	38.24
849.718	43.56
849.887	82.81
850.057	10.63
850.227	26.52
850.397	31.88
850.567	12.63
850.737	28.85
850.906	38.89
851.076	27.86
851.246	51
851.415	83.99
851.585	74.27
851.755	74.72
851.924	69.81
852.094	49.87
852.264	48.42
852.433	40.72
852.603	26.48
852.772	16.8
852.942	18.71
853.111	-11.39
853.281	23.22
853.45	20.73
853.62	18.2
853.789	21.18
853.959	55.61
854.128	43.52
854.297	49.52
854.467	67.22
854.636	75
854.805	53.42
854.975	38.85
855.144	55.84
855.313	50.49
855.482	40.64
855.652	62.23
855.821	75.6
855.99	67.08
856.159	66.85
856.328	94.33
856.497	65.05
856.667	55.67
856.836	44.79
857.005	36.38
857.174	36.25
857.343	27.21
857.512	42.37
857.681	52.47
857.85	41.12
858.019	26.06
858.188	39.06
858.356	40.79
858.525	31.12
858.694	46
858.863	35.8
859.032	42.27
859.201	22.66
859.369	63.98
859.538	48.68
859.707	50.9
859.876	54.32
860.044	71.14
860.213	60.01
860.382	53.95
860.55	68.21
860.719	63.11
860.888	41.89
861.056	50.86
861.225	49.51
861.393	58.51
861.562	59.18
861.73	43.26
861.899	10.4
862.067	-20.48
862.236	-43.68
862.404	-30.56
862.572	-6.93
862.741	18
862.909	34.33
863.078	49.19
863.246	21.27
863.414	30.71
863.582	14.88
863.751	26.1
863.919	16.07
864.087	34.73
864.255	3.16
864.424	21.51
864.592	31.81
864.76	19.96
864.928	36.07
865.096	39.83
865.264	40.71
865.432	32.66
865.6	19.15
865.768	-25.07
865.936	-7.37
866.104	-6.19
866.272	-2.74
866.44	22.72
866.608	39.24
866.776	48.63
866.944	59.81
867.112	50.78
867.28	59.92
867.448	62.24
867.615	51.01
867.783	42.7
867.951	39.41
868.119	22.2
868.286	10.48
868.454	8.38
868.622	14.31
868.789	21.06
868.957	50.34
869.125	55.83
869.292	45.87
869.46	54.08
869.627	52.88
869.795	9.48
869.963	23.75
870.13	16.24
870.298	10.32
870.465	5.4
870.632	-2.2
870.8	-5.53
870.967	27.54
871.135	12.09
871.302	20.02
871.469	36.76
871.637	14.51
871.804	16.11
871.971	12.23
872.139	1.03
872.306	-20.12
872.473	-7.11
872.64	-25.7
872.807	-2.88
872.975	125.34
873.142	74.25
873.309	31.94
873.476	62.38
873.643	94.39
873.81	47.74
873.977	26.27
874.144	61.45
874.311	24.15
874.478	-9.24
874.645	-29.82
874.812	63.44
874.979	96
875.146	104.91
875.313	63.08
875.48	89.34
875.647	48.79
875.813	0.9
875.98	-2.45
876.147	-53.53
876.314	-27.96
876.481	-3.86
876.647	20.28
876.814	16.05
876.981	28.33
877.147	22.45
877.314	12.02
877.481	2.19
877.647	10.05
877.814	-7.9
877.98	3.97
878.147	52.79
878.314	64.56
878.48	46.34
878.647	53.38
878.813	42.55
878.979	-8.24
879.146	20.72
879.312	74.69
879.479	91.64
879.645	90.65
879.811	85.52
879.978	58
880.144	32.2
880.31	37.41
880.477	25.17
880.643	14.5
880.809	-58.26
880.975	-85
881.142	-148.99
881.308	337.42
881.474	295.29
881.64	14.34
881.806	41.33
881.972	46.81
882.138	43.17
882.304	53.17
882.47	46.89
882.636	71.86
882.802	60.63
882.968	41.52
883.134	17.46
883.3	34.85
883.466	14.08
883.632	59.52
883.798	77.49
883.964	132.6
884.129	189.08
884.295	29.62
884.461	-39.4
884.627	18.02
884.793	31.25
884.958	48.84
885.124	48.97
885.29	16.55
885.455	-18.81
885.621	-10.53
885.787	-9.3
885.952	-14.82
886.118	56.55
886.283	70.98
886.449	58.18
886.614	76.93
886.78	63.23
886.945	46.72
887.111	-3.44
887.276	-7.75
887.442	-60.67
887.607	-2.76
887.773	1.13
887.938	-10.66
888.103	11.25
888.269	29.97
888.434	18.3
888.599	17.02
888.764	59.69
888.93	59.34
889.095	57.06
889.26	59.6
889.425	68.96
889.59	60.53
889.756	65.14
889.921	21.52
890.086	9.72
890.251	24.83
890.416	5.11
890.581	-19.58
890.746	45.6
890.911	61.48
891.076	71.51
891.241	72.53
891.406	64.44
891.571	63.77
891.736	-21.63
891.901	7.48
892.065	19.68
892.23	0.03
892.395	-36.15
892.56	-38.78
892.725	-126.46
892.889	-243.06
893.054	-90.27
893.219	-94.66
893.384	-62.69
893.548	-95.32
893.713	-130.63
893.878	-221.19
