Data from Ofra_PS_T2_2A_2HS27_Reflection_1.txt Node
Date: Wed Jul 21 17:08:23 EDT 2021
User: Adam
Spectrometer: FLMT01687
Trigger mode: 0
Integration Time (sec): 1.100000E0
Scans to average: 2
Electric dark correction enabled: true
Nonlinearity correction enabled: false
Boxcar width: 2
XAxis mode: Wavelengths
Number of Pixels in Spectrum: 3648
>>>>>Begin Spectral Data<<<<<
179.494	425
179.716	521.18
179.937	481.1
180.158	491.56
180.38	792.03
180.601	310.64
180.823	62.47
181.044	-67.65
181.265	113.42
181.486	45.38
181.708	109.76
181.929	627.04
182.15	-322.89
182.372	144.51
182.593	39.29
182.814	28.7
183.035	-9.09
183.257	-17.6
183.478	-154.1
183.699	-90.53
183.92	-102.94
184.141	-47.9
184.363	-125.5
184.584	-59.24
184.805	-37.71
185.026	17.71
185.247	30.77
185.468	31.51
185.689	20.01
185.91	39.88
186.132	21.12
186.353	16.01
186.574	56.04
186.795	57.31
187.016	6.69
187.237	-8.53
187.458	-36.4
187.679	-62.28
187.9	-42.03
188.121	-37.09
188.342	-40.71
188.563	12.08
188.784	38.95
189.005	22.55
189.226	41.83
189.447	48.2
189.667	-201.58
189.888	-411.45
190.109	-1166.56
190.33	-544.68
190.551	-1012.61
190.772	-221.13
190.993	-182.16
191.214	-165.34
191.434	-126.87
191.655	-47.27
191.876	-65.23
192.097	-97.77
192.318	-147.8
192.538	-201.83
192.759	-151.4
192.98	-89.68
193.201	-25.64
193.421	2.27
193.642	17.17
193.863	28.77
194.083	20.99
194.304	1.28
194.525	2.36
194.745	-24.84
194.966	-50.33
195.187	-66.48
195.407	-102.45
195.628	-151.74
195.848	-133.16
196.069	-139.1
196.29	-56.47
196.51	-62.54
196.731	-76.18
196.951	-93.7
197.172	-93.67
197.392	-147.78
197.613	-113.13
197.833	-131.45
198.054	-110.02
198.274	-76.96
198.495	-93.1
198.715	-66.74
198.936	-84.77
199.156	-78.31
199.377	-178.79
199.597	-143.69
199.817	-152.39
200.038	-82.53
200.258	-122.15
200.479	-21.08
200.699	-7.11
200.919	21.1
201.14	-8.11
201.36	-62.97
201.58	-11.64
201.801	12.14
202.021	-25.33
202.241	-8.91
202.461	9.17
202.682	-87.49
202.902	-165.72
203.122	-92.7
203.342	-96.32
203.563	-51.32
203.783	-17.14
204.003	-61.52
204.223	-43.31
204.443	12.18
204.663	-22.64
204.884	-13.15
205.104	34
205.324	16.29
205.544	-2.98
205.764	32.53
205.984	20.18
206.204	16.81
206.424	18.45
206.644	-31.42
206.864	-10.67
207.084	-17.54
207.304	36.85
207.525	-62.27
207.745	16.65
207.964	8
208.184	-39.73
208.404	-92.92
208.624	-80.25
208.844	-96.41
209.064	-391.53
209.284	-403.69
209.504	-176.41
209.724	-45.31
209.944	-6.58
210.164	26.8
210.384	43.9
210.604	35.5
210.823	-10.82
211.043	-36.59
211.263	-22.18
211.483	-27.02
211.703	-95.32
211.922	-54.01
212.142	1.76
212.362	5
212.582	-27.98
212.801	-0.34
213.021	-32.59
213.241	-53.23
213.461	-105.17
213.68	-116.47
213.9	-92.82
214.12	-57.48
214.339	-121.62
214.559	-67.21
214.779	-11.43
214.998	11.13
215.218	-34.28
215.438	5.16
215.657	-6.77
215.877	-22.48
216.096	-30.51
216.316	-16.08
216.535	-37.6
216.755	-35.35
216.974	-126.89
217.194	-155.74
217.413	-149.77
217.633	-146.71
217.852	-219.05
218.072	-93.07
218.291	-56.05
218.511	-12.31
218.73	-35.57
218.95	-34.74
219.169	-42.35
219.389	-81.2
219.608	-60.36
219.827	-55.73
220.047	-28.5
220.266	-4.94
220.485	-2.25
220.705	0.35
220.924	2.24
221.143	17.08
221.363	-3.58
221.582	20.01
221.801	19.97
222.021	30.83
222.24	1.08
222.459	78.27
222.678	28.18
222.897	-18.24
223.117	-45.7
223.336	-47.67
223.555	-46.08
223.774	-0.5
223.993	-10.89
224.213	19.49
224.432	2.91
224.651	35.56
224.87	6.95
225.089	25.89
225.308	26.74
225.527	43.2
225.746	31.31
225.965	20.16
226.184	-0.1
226.404	10.93
226.623	-6.97
226.842	-2.77
227.061	23.2
227.28	28.41
227.499	27.85
227.718	33.29
227.936	20.63
228.155	21.46
228.374	14.99
228.593	17.71
228.812	7.76
229.031	12.66
229.25	-34.43
229.469	-24.66
229.688	-36.2
229.907	-1.47
230.125	3.36
230.344	13.24
230.563	20.48
230.782	35.29
231.001	-40.88
231.22	-33.69
231.438	-0.09
231.657	-4.78
231.876	-20.2
232.095	25.62
232.313	21.48
232.532	-1.52
232.751	-16.24
232.969	-41.53
233.188	-96.37
233.407	10.32
233.625	-9.15
233.844	-19.92
234.063	8.96
234.281	24.19
234.5	-6.14
234.719	2.76
234.937	8.05
235.156	5.4
235.374	7.15
235.593	-6.85
235.811	-9.26
236.03	-13.9
236.249	-56.32
236.467	-42.48
236.686	-6.63
236.904	16.06
237.123	9.76
237.341	4.63
237.559	2.22
237.778	-8.31
237.996	-66.66
238.215	-29.68
238.433	-12.09
238.652	-10.53
238.87	-38.51
239.088	5.54
239.307	4.77
239.525	-7.95
239.743	-25.71
239.962	-9.16
240.18	-45.64
240.398	-97.32
240.617	-76.72
240.835	-76.87
241.053	-38.44
241.271	8.02
241.49	37.55
241.708	20.39
241.926	21.79
242.144	4.1
242.363	-55.47
242.581	-101.29
242.799	-54.49
243.017	-27.56
243.235	-47.25
243.453	-24.24
243.672	-15.72
243.89	-11.04
244.108	-27.49
244.326	-6.2
244.544	-9.81
244.762	-10.99
244.98	-17.62
245.198	-10.47
245.416	-34.05
245.634	-39.49
245.852	-43.78
246.07	-57.03
246.288	-53.09
246.506	-96.79
246.724	-41.26
246.942	-17.4
247.16	15.81
247.378	29.04
247.596	68.71
247.814	56.12
248.032	11.77
248.25	1.03
248.468	-3.68
248.685	2.42
248.903	16.72
249.121	29.67
249.339	8.08
249.557	-2.08
249.775	-2.99
249.992	-75.95
250.21	-58.05
250.428	-38.19
250.646	-55.36
250.863	-67.58
251.081	-27.41
251.299	-27.29
251.517	-39.2
251.734	-19.33
251.952	-24.41
252.17	-18.25
252.387	-10.94
252.605	-5.26
252.823	-4.87
253.04	8.92
253.258	21.96
253.475	6.58
253.693	23.21
253.911	25.16
254.128	28.25
254.346	15.58
254.563	-1.18
254.781	-30.32
254.998	-59.07
255.216	-64.04
255.433	-51.09
255.651	-21.92
255.868	-0.69
256.086	31.73
256.303	7.5
256.521	14.84
256.738	8.52
256.956	-16.88
257.173	-45.12
257.39	-53.79
257.608	-75.88
257.825	6.27
258.043	44.06
258.26	62.22
258.477	91.33
258.695	87.7
258.912	8.9
259.129	15.35
259.346	-24.11
259.564	-47.46
259.781	-45.12
259.998	16.03
260.216	7.94
260.433	41.46
260.65	43.73
260.867	52.94
261.084	12.23
261.302	12.67
261.519	17.37
261.736	-23.12
261.953	-41.66
262.17	-2.47
262.387	-32.41
262.604	-68.13
262.822	-59
263.039	-52.21
263.256	-103.7
263.473	-49.6
263.69	-34.34
263.907	9.66
264.124	20.54
264.341	33.75
264.558	11.97
264.775	25.64
264.992	1.14
265.209	0.1
265.426	9.59
265.643	17.19
265.86	16.1
266.077	18.06
266.294	-2.73
266.51	-25.65
266.727	-43.86
266.944	-49.66
267.161	-63.15
267.378	-60.56
267.595	-38.59
267.812	-48.96
268.028	-62.93
268.245	-20.28
268.462	-28.24
268.679	-27.67
268.896	2
269.112	20.72
269.329	5.04
269.546	9.54
269.763	1.65
269.979	-4.41
270.196	-23.76
270.413	-57.01
270.629	-75.04
270.846	-83.95
271.063	-62.01
271.279	-71.32
271.496	-44.78
271.712	-14.38
271.929	-1.57
272.146	-29.13
272.362	-15.66
272.579	12.87
272.795	8.72
273.012	10.09
273.228	23.45
273.445	2.49
273.661	-15.54
273.878	-49.61
274.094	-34.55
274.311	-65.4
274.527	6.67
274.744	1.25
274.96	10.26
275.177	16.28
275.393	19.7
275.609	6.44
275.826	27.57
276.042	32.14
276.259	6
276.475	25.35
276.691	20.17
276.908	1.65
277.124	8.16
277.34	15.71
277.557	2.78
277.773	-1.8
277.989	-12.05
278.205	-11.42
278.422	11.14
278.638	22.04
278.854	31.28
279.07	36
279.286	65.53
279.503	42.24
279.719	38.57
279.935	28.09
280.151	28.53
280.367	-18.51
280.583	-37.75
280.799	-59.11
281.016	-79.16
281.232	-29.2
281.448	-23.25
281.664	2.16
281.88	-7.41
282.096	4.62
282.312	0.58
282.528	5.81
282.744	0.67
282.96	11.77
283.176	-0.24
283.392	5.92
283.608	2.41
283.824	7.83
284.04	18.85
284.256	22.99
284.471	0.26
284.687	2.26
284.903	5.42
285.119	14.2
285.335	-4.65
285.551	3.58
285.767	-17.42
285.982	-29.05
286.198	-67.55
286.414	-4.33
286.63	-4.9
286.846	18.53
287.061	-9.9
287.277	28.28
287.493	-7.42
287.709	3.49
287.924	-11.76
288.14	34.98
288.356	27.28
288.571	46.48
288.787	25.61
289.003	19.72
289.218	4.38
289.434	-32.64
289.65	-34.64
289.865	-45.74
290.081	-21.62
290.296	-15.12
290.512	-3.33
290.727	-12.96
290.943	-0.42
291.159	-19.49
291.374	-17.7
291.59	-29.03
291.805	-21.09
292.021	-16
292.236	-17.26
292.451	-9.56
292.667	-1.19
292.882	5.35
293.098	-9.28
293.313	-9.85
293.529	-42.09
293.744	-51.55
293.959	-61.25
294.175	-42.33
294.39	-14.51
294.605	7.43
294.821	25.43
295.036	31.1
295.251	38.81
295.467	37.97
295.682	44.66
295.897	11.83
296.112	-16.4
296.328	-19.43
296.543	-60.62
296.758	-72.05
296.973	-13.18
297.188	22.9
297.404	-8.41
297.619	-11.27
297.834	-23.37
298.049	-69.24
298.264	-94.23
298.479	-27.9
298.694	-22.06
298.909	-1.75
299.125	13.05
299.34	25.85
299.555	-2.18
299.77	10.37
299.985	-28.79
300.2	-66.33
300.415	-87.59
300.63	-51.34
300.845	-45.67
301.06	-55.95
301.275	-29.9
301.49	-10.83
301.704	-22.28
301.919	-56.71
302.134	-49.13
302.349	-60.57
302.564	-127.15
302.779	-173.26
302.994	-179.35
303.209	-127.62
303.423	-77.13
303.638	13.41
303.853	-2.2
304.068	0.66
304.283	13.16
304.497	1.69
304.712	-19.06
304.927	-14.33
305.142	-12.86
305.356	-6.41
305.571	-2.01
305.786	-21.68
306	-30.33
306.215	-21.17
306.43	-65.96
306.644	-56.69
306.859	4.48
307.074	15.47
307.288	-20.37
307.503	-16.7
307.717	-36.34
307.932	-38.22
308.147	-43.88
308.361	-17.23
308.576	-21.04
308.79	-53.46
309.005	-38.39
309.219	-30.84
309.434	-56.72
309.648	-60.59
309.863	-29.33
310.077	-40.94
310.292	-41.72
310.506	-18.39
310.72	11.97
310.935	19.85
311.149	16.83
311.364	42.78
311.578	44.88
311.792	38.34
312.007	44.62
312.221	28.81
312.435	15.88
312.649	6.74
312.864	4.27
313.078	6.91
313.292	67.25
313.507	46.54
313.721	59.26
313.935	45.85
314.149	21.77
314.363	7.15
314.578	6.99
314.792	9.67
315.006	-14.89
315.22	5.83
315.434	-0.49
315.648	6.39
315.862	-6.88
316.077	1.29
316.291	-18.06
316.505	-21.43
316.719	-62.87
316.933	-71.37
317.147	-51.52
317.361	-98.36
317.575	-109.33
317.789	-136.1
318.003	-149.2
318.217	-136.71
318.431	-42.46
318.645	-2.8
318.859	13.85
319.073	23.49
319.287	13.47
319.5	-17.66
319.714	-52.57
319.928	-81.93
320.142	-94.79
320.356	-36.94
320.57	10.03
320.784	17.59
320.997	29.48
321.211	3.52
321.425	-44.21
321.639	-75.77
321.853	-18.47
322.066	-3.75
322.28	-1.05
322.494	11.32
322.707	21.49
322.921	-5.14
323.135	-6.04
323.349	-8.13
323.562	-30.77
323.776	-36.48
323.989	-26.65
324.203	-42.49
324.417	-37.84
324.63	-54.4
324.844	-61.72
325.057	-48.87
325.271	-37.9
325.485	-5.22
325.698	28.61
325.912	35
326.125	-7.87
326.339	-1.27
326.552	-29.27
326.766	-39.76
326.979	-15.76
327.193	37.04
327.406	30.74
327.619	22.95
327.833	35.37
328.046	13.52
328.26	-35.36
328.473	-18.42
328.686	-50.77
328.9	-50.73
329.113	-40.71
329.326	-52.26
329.54	-40.17
329.753	-23.97
329.966	-58.15
330.179	-45.53
330.393	-13.35
330.606	-9.42
330.819	7.15
331.032	25.26
331.246	31.21
331.459	51.69
331.672	43.92
331.885	43.01
332.098	18.49
332.311	-0.46
332.525	-53.45
332.738	-25.12
332.951	-11.43
333.164	35.39
333.377	49.48
333.59	62.26
333.803	47.94
334.016	44.07
334.229	26.2
334.442	24.4
334.655	35.19
334.868	31.76
335.081	15.33
335.294	1.2
335.507	-21.97
335.72	-26.92
335.933	-37.46
336.146	-48.02
336.359	-44.11
336.572	-66.19
336.785	-98.06
336.997	-69.5
337.21	-42.03
337.423	-41.56
337.636	-26.63
337.849	-11.09
338.062	-15.94
338.274	-10.76
338.487	-26.36
338.7	-26.86
338.913	-57.63
339.125	-97.57
339.338	-150.99
339.551	-118.87
339.763	-77.23
339.976	-35.3
340.189	-11.27
340.402	-6.53
340.614	-9.58
340.827	-21.64
341.039	-39.84
341.252	-41.49
341.465	-17.79
341.677	-12.49
341.89	-16.45
342.102	7.05
342.315	4.6
342.527	-42.82
342.74	-47.26
342.952	-31.03
343.165	-37.42
343.377	-9.06
343.59	7.45
343.802	26.7
344.015	23.99
344.227	35.03
344.44	19.88
344.652	15.01
344.864	-11.86
345.077	7.99
345.289	6.35
345.502	10.08
345.714	5.81
345.926	19.26
346.139	14.52
346.351	20.15
346.563	28.98
346.775	40.09
346.988	29.28
347.2	12.9
347.412	-26.4
347.624	-55.95
347.837	-78.31
348.049	-57.63
348.261	-8.08
348.473	8.68
348.685	2.04
348.897	-9.85
349.11	-19.77
349.322	-46.45
349.534	-35.9
349.746	-27.9
349.958	-18.33
350.17	-26.6
350.382	-8.38
350.594	-4.75
350.806	0.63
351.018	-2.29
351.23	-13
351.442	-64.96
351.654	-85.94
351.866	-87.3
352.078	-59.91
352.29	-25.18
352.502	4.36
352.714	12.76
352.926	9.34
353.138	5.04
353.35	-8.57
353.561	-16.71
353.773	-40.74
353.985	-30.17
354.197	-45.66
354.409	-44.97
354.621	-52.53
354.832	-28.26
355.044	-25.96
355.256	-20.76
355.468	-0.42
355.679	-2.84
355.891	6.02
356.103	-9.83
356.314	1.6
356.526	-13.49
356.738	-7.48
356.949	-36.51
357.161	-29.93
357.373	-26.81
357.584	-43.59
357.796	-26.04
358.008	-19.85
358.219	5.89
358.431	-4.24
358.642	7.33
358.854	13.75
359.065	4.53
359.277	-23.59
359.488	-39.79
359.7	-48.2
359.911	-83.18
360.123	-56.24
360.334	-73.15
360.546	-83.34
360.757	-71.55
360.969	-42.85
361.18	-40.67
361.391	-15.12
361.603	-15.16
361.814	-16.78
362.025	-20.67
362.237	-16.61
362.448	7.28
362.659	19.2
362.871	17.65
363.082	15.05
363.293	17.75
363.504	-6.88
363.716	-31.27
363.927	-48.86
364.138	-60.73
364.349	-89.1
364.56	-74.07
364.772	-52.17
364.983	-20.49
365.194	-21.64
365.405	-0.94
365.616	4.21
365.827	4.21
366.038	-28.09
366.25	-24.63
366.461	-76.26
366.672	-51.81
366.883	-33.31
367.094	-15.73
367.305	-30.41
367.516	-2.71
367.727	-24.69
367.938	-39.28
368.149	-36.75
368.36	-11.05
368.571	-13.31
368.781	-22.02
368.992	-29.28
369.203	-50.85
369.414	-76.12
369.625	-85.61
369.836	-76.47
370.047	-96.59
370.258	-67.82
370.468	-65.42
370.679	-71.69
370.89	-65.64
371.101	-31.59
371.312	-33.03
371.522	-21.85
371.733	-13.35
371.944	1.69
372.155	-9.39
372.365	-12.22
372.576	-9.91
372.787	-10.72
372.997	-46.92
373.208	-34.86
373.419	-11.9
373.629	-45.69
373.84	-53.46
374.05	-48.06
374.261	-43
374.472	-67.53
374.682	-14.71
374.893	-4.56
375.103	23.08
375.314	15.81
375.524	16.77
375.735	26
375.945	29.17
376.156	5.55
376.366	4.65
376.577	9.43
376.787	-5.74
376.997	-11.38
377.208	-8.48
377.418	-14.9
377.629	-9.98
377.839	-24.04
378.049	-16.7
378.26	-5.25
378.47	4.54
378.68	-9.19
378.89	-4.26
379.101	-14.33
379.311	-34.57
379.521	-72.3
379.732	-59.4
379.942	-55.64
380.152	-71.46
380.362	-27
380.572	-13.83
380.783	-0.26
380.993	14.45
381.203	31.12
381.413	31.12
381.623	38.94
381.833	27.93
382.043	15.2
382.253	-2.44
382.463	-9.46
382.674	-24.85
382.884	-42.69
383.094	-48.72
383.304	-32.03
383.514	-25.41
383.724	-14.95
383.934	-18.07
384.144	-21.89
384.353	-33.53
384.563	-39.38
384.773	-28.92
384.983	-30.48
385.193	-8.21
385.403	-0.11
385.613	0.58
385.823	-13.15
386.033	-6.12
386.242	-21.44
386.452	-27.19
386.662	-38.59
386.872	-23.65
387.082	-31.63
387.291	-31.84
387.501	-27.58
387.711	-16.7
387.921	-22.37
388.13	-20.6
388.34	-8.8
388.55	-12.68
388.759	-11.3
388.969	-6.35
389.179	-4.38
389.388	-7.76
389.598	-2.32
389.807	-7.92
390.017	-13.05
390.227	-12.59
390.436	-13.03
390.646	-12.59
390.855	-8.37
391.065	-7.95
391.274	-9.51
391.484	-12.31
391.693	-9.39
391.903	-6.47
392.112	-1.25
392.322	0.88
392.531	6.57
392.74	5.56
392.95	-0.14
393.159	-1.9
393.369	-0.01
393.578	-0.88
393.787	-2.05
393.997	0.52
394.206	-0.98
394.415	-1.17
394.625	-3.81
394.834	-4.22
395.043	-3.42
395.252	-1.52
395.462	0.1
395.671	2.09
395.88	3.2
396.089	3.24
396.298	1.84
396.508	0.94
396.717	0.42
396.926	0.32
397.135	-0.53
397.344	-0.17
397.553	0.86
397.762	2.05
397.971	2.27
398.181	3.24
398.39	2.83
398.599	1.77
398.808	1.23
399.017	1.91
399.226	3.09
399.435	4.26
399.644	4.44
399.853	3.85
400.062	3.05
400.27	1.78
400.479	1.25
400.688	0.87
400.897	1.14
401.106	1.4
401.315	1.76
401.524	1.91
401.733	2.49
401.941	3.05
402.15	3.27
402.359	2.93
402.568	3.42
402.777	3.44
402.985	3.03
403.194	2.83
403.403	3.04
403.612	2.33
403.82	2.1
404.029	2.42
404.238	2.26
404.446	2.28
404.655	2.15
404.864	2.04
405.072	1.84
405.281	2.05
405.489	1.82
405.698	1.87
405.906	1.81
406.115	1.76
406.324	1.74
406.532	2.03
406.741	2.42
406.949	2.56
407.158	2.57
407.366	2.53
407.574	2.54
407.783	2.4
407.991	2.2
408.2	2.37
408.408	2.38
408.617	2.21
408.825	2.11
409.033	2.42
409.242	2.34
409.45	2.43
409.658	2.38
409.867	2.51
410.075	2.28
410.283	2.2
410.491	2.01
410.7	2.02
410.908	2.07
411.116	2.33
411.324	2.38
411.533	2.34
411.741	2.5
411.949	2.39
412.157	2.11
412.365	1.99
412.573	2.08
412.781	2.07
412.99	2.03
413.198	2.33
413.406	2.32
413.614	2.29
413.822	2.07
414.03	1.93
414.238	1.61
414.446	1.85
414.654	1.66
414.862	1.84
415.07	1.99
415.278	2.22
415.486	1.9
415.694	2.11
415.902	1.92
416.109	1.94
416.317	1.84
416.525	1.76
416.733	1.73
416.941	2.06
417.149	2.04
417.357	2.05
417.564	2.33
417.772	2.54
417.98	2.36
418.188	2.22
418.395	2.3
418.603	2.39
418.811	2.08
419.019	2.05
419.226	2.35
419.434	2.46
419.642	2.21
419.849	2.25
420.057	2.24
420.265	2.04
420.472	1.66
420.68	1.73
420.887	1.75
421.095	1.8
421.302	1.79
421.51	1.99
421.717	2.1
421.925	2.27
422.132	2.08
422.34	1.91
422.547	2.05
422.755	1.9
422.962	1.64
423.17	1.57
423.377	1.71
423.585	1.67
423.792	1.59
423.999	1.79
424.207	1.87
424.414	2.01
424.621	1.89
424.829	1.95
425.036	1.89
425.243	2.01
425.451	1.8
425.658	1.61
425.865	1.76
426.072	1.74
426.28	1.96
426.487	1.94
426.694	2.21
426.901	2.07
427.108	2.15
427.315	1.84
427.523	2.2
427.73	2.23
427.937	2.16
428.144	1.99
428.351	2.07
428.558	2.03
428.765	1.86
428.972	1.85
429.179	1.97
429.386	2.2
429.593	1.98
429.8	1.8
430.007	1.91
430.214	2.05
430.421	1.8
430.628	1.65
430.835	1.68
431.042	1.68
431.249	1.63
431.456	1.68
431.662	1.9
431.869	2.15
432.076	2.29
432.283	2.28
432.49	2.2
432.697	2.11
432.903	1.91
433.11	1.78
433.317	1.9
433.524	2.13
433.73	2.2
433.937	2.39
434.144	2.29
434.35	2.28
434.557	2.09
434.764	2.08
434.97	1.99
435.177	2.23
435.384	2.1
435.59	2.23
435.797	2.47
436.003	2.5
436.21	2.47
436.416	2.59
436.623	2.69
436.829	2.63
437.036	2.78
437.242	2.72
437.449	2.62
437.655	2.47
437.862	2.53
438.068	2.37
438.275	2.55
438.481	2.71
438.687	2.74
438.894	2.64
439.1	2.78
439.307	2.9
439.513	2.82
439.719	2.85
439.926	2.99
440.132	3.02
440.338	2.77
440.544	2.82
440.751	2.78
440.957	2.76
441.163	2.61
441.369	2.7
441.575	2.52
441.782	2.57
441.988	2.44
442.194	2.52
442.4	2.52
442.606	2.92
442.812	3
443.018	3.12
443.224	3.22
443.431	3.29
443.637	3.02
443.843	2.82
444.049	2.87
444.255	2.68
444.461	2.69
444.667	2.63
444.873	2.83
445.079	2.83
445.284	3.02
445.49	2.83
445.696	2.74
445.902	2.62
446.108	2.49
446.314	2.34
446.52	2.46
446.726	2.83
446.931	2.88
447.137	2.96
447.343	3.11
447.549	3.06
447.755	2.84
447.96	2.91
448.166	2.84
448.372	2.77
448.578	2.85
448.783	2.89
448.989	2.96
449.195	3.19
449.4	3.22
449.606	3.14
449.812	3.05
450.017	3.03
450.223	2.84
450.428	2.76
450.634	2.88
450.84	3.03
451.045	2.99
451.251	2.99
451.456	3.28
451.662	3.34
451.867	3.42
452.073	3.35
452.278	3.48
452.483	3.41
452.689	3.26
452.894	3.27
453.1	3.3
453.305	3.18
453.51	3.17
453.716	3.2
453.921	3.2
454.127	3.14
454.332	3.11
454.537	3.03
454.742	3.06
454.948	2.98
455.153	3.02
455.358	3.14
455.563	3.26
455.769	3.41
455.974	3.36
456.179	3.34
456.384	3.31
456.589	3.3
456.795	3.1
457	3.11
457.205	3.37
457.41	3.26
457.615	3.17
457.82	3.28
458.025	3.33
458.23	3.07
458.435	3.18
458.64	3.12
458.845	3.22
459.05	3.26
459.255	3.3
459.46	3.28
459.665	3.34
459.87	3.35
460.075	3.29
460.28	3.37
460.485	3.51
460.69	3.58
460.895	3.36
461.099	3.34
461.304	3.46
461.509	3.42
461.714	3.25
461.919	3.47
462.123	3.43
462.328	3.39
462.533	3.26
462.738	3.44
462.942	3.27
463.147	3.38
463.352	3.39
463.556	3.49
463.761	3.48
463.966	3.55
464.17	3.54
464.375	3.43
464.58	3.38
464.784	3.33
464.989	3.23
465.193	3.26
465.398	3.36
465.602	3.51
465.807	3.47
466.011	3.63
466.216	3.65
466.42	3.67
466.625	3.72
466.829	3.86
467.034	3.91
467.238	4.11
467.443	4.05
467.647	3.97
467.851	4.01
468.056	3.97
468.26	3.83
468.464	3.82
468.669	3.94
468.873	4.05
469.077	4.03
469.282	4.11
469.486	4.15
469.69	4.13
469.894	3.91
470.099	3.98
470.303	4.07
470.507	4.04
470.711	3.91
470.915	3.96
471.119	3.93
471.324	3.84
471.528	3.9
471.732	4.01
471.936	4.13
472.14	4.25
472.344	4.31
472.548	4.36
472.752	4.55
472.956	4.67
473.16	4.59
473.364	4.45
473.568	4.47
473.772	4.41
473.976	4.28
474.18	4.26
474.384	4.36
474.588	4.31
474.792	4.18
474.995	4.19
475.199	4.38
475.403	4.46
475.607	4.56
475.811	4.58
476.015	4.68
476.218	4.64
476.422	4.53
476.626	4.56
476.83	4.71
477.033	4.68
477.237	4.56
477.441	4.67
477.644	4.67
477.848	4.62
478.052	4.57
478.255	4.67
478.459	4.63
478.663	4.77
478.866	4.8
479.07	4.88
479.273	5.07
479.477	5.14
479.681	5.09
479.884	5.05
480.088	5.01
480.291	4.98
480.495	4.95
480.698	5.02
480.901	5.12
481.105	5.28
481.308	5.21
481.512	5.28
481.715	5.26
481.919	5.3
482.122	5.3
482.325	5.29
482.529	5.28
482.732	5.25
482.935	5.16
483.138	5.07
483.342	5.21
483.545	5.26
483.748	5.29
483.952	5.34
484.155	5.45
484.358	5.38
484.561	5.37
484.764	5.37
484.967	5.45
485.171	5.57
485.374	5.58
485.577	5.62
485.78	5.64
485.983	5.59
486.186	5.37
486.389	5.29
486.592	5.24
486.795	5.34
486.998	5.3
487.201	5.4
487.404	5.48
487.607	5.56
487.81	5.49
488.013	5.53
488.216	5.59
488.419	5.56
488.622	5.53
488.825	5.46
489.028	5.45
489.231	5.31
489.433	5.27
489.636	5.2
489.839	5.23
490.042	5.16
490.245	5.18
490.447	5.25
490.65	5.33
490.853	5.32
491.056	5.4
491.258	5.5
491.461	5.51
491.664	5.47
491.866	5.47
492.069	5.51
492.272	5.41
492.474	5.43
492.677	5.5
492.879	5.56
493.082	5.6
493.285	5.76
493.487	5.75
493.69	5.64
493.892	5.56
494.095	5.53
494.297	5.49
494.5	5.52
494.702	5.65
494.905	5.73
495.107	5.69
495.309	5.68
495.512	5.71
495.714	5.71
495.917	5.74
496.119	5.75
496.321	5.84
496.524	5.87
496.726	5.88
496.928	5.93
497.13	6.01
497.333	5.97
497.535	6
497.737	5.97
497.939	5.96
498.142	5.93
498.344	5.91
498.546	5.77
498.748	5.81
498.95	5.91
499.152	5.89
499.355	5.94
499.557	6.12
499.759	6.19
499.961	6.11
500.163	6.14
500.365	6.15
500.567	6.18
500.769	6.12
500.971	6.14
501.173	6.12
501.375	6.1
501.577	5.99
501.779	5.98
501.981	5.95
502.183	5.97
502.385	5.95
502.587	5.96
502.788	6.08
502.99	6.15
503.192	6.26
503.394	6.26
503.596	6.29
503.798	6.25
503.999	6.27
504.201	6.24
504.403	6.32
504.605	6.32
504.806	6.29
505.008	6.28
505.21	6.25
505.411	6.27
505.613	6.33
505.815	6.33
506.016	6.42
506.218	6.57
506.42	6.57
506.621	6.56
506.823	6.63
507.024	6.52
507.226	6.43
507.427	6.44
507.629	6.54
507.83	6.58
508.032	6.6
508.233	6.71
508.435	6.76
508.636	6.81
508.838	6.75
509.039	6.84
509.24	6.85
509.442	6.87
509.643	6.78
509.845	6.83
510.046	6.86
510.247	6.86
510.448	6.84
510.65	6.9
510.851	7.02
511.052	6.97
511.254	6.97
511.455	7.1
511.656	7.19
511.857	7.22
512.058	7.26
512.26	7.25
512.461	7.16
512.662	7.13
512.863	7.02
513.064	7.02
513.265	7.07
513.466	7.16
513.667	7.2
513.868	7.27
514.069	7.38
514.27	7.46
514.471	7.39
514.672	7.36
514.873	7.3
515.074	7.23
515.275	7.15
515.476	7.18
515.677	7.22
515.878	7.36
516.079	7.37
516.28	7.39
516.481	7.51
516.682	7.6
516.882	7.5
517.083	7.53
517.284	7.48
517.485	7.38
517.686	7.27
517.886	7.28
518.087	7.34
518.288	7.43
518.488	7.47
518.689	7.53
518.89	7.48
519.091	7.43
519.291	7.4
519.492	7.48
519.692	7.5
519.893	7.64
520.094	7.65
520.294	7.66
520.495	7.6
520.695	7.62
520.896	7.63
521.096	7.7
521.297	7.73
521.497	7.74
521.698	7.72
521.898	7.65
522.099	7.68
522.299	7.76
522.499	7.76
522.7	7.78
522.9	7.79
523.101	7.81
523.301	7.79
523.501	7.83
523.702	7.86
523.902	7.95
524.102	7.98
524.302	7.94
524.503	8.01
524.703	7.99
524.903	8.01
525.103	7.98
525.304	8.08
525.504	8.15
525.704	8.25
525.904	8.21
526.104	8.2
526.304	8.15
526.504	8.13
526.705	8.07
526.905	8.15
527.105	8.18
527.305	8.18
527.505	8.09
527.705	8.12
527.905	8.11
528.105	8.1
528.305	8.09
528.505	8.16
528.705	8.27
528.905	8.21
529.105	8.24
529.304	8.35
529.504	8.43
529.704	8.33
529.904	8.39
530.104	8.42
530.304	8.41
530.503	8.32
530.703	8.32
530.903	8.32
531.103	8.36
531.303	8.33
531.502	8.43
531.702	8.49
531.902	8.5
532.101	8.45
532.301	8.49
532.501	8.52
532.7	8.48
532.9	8.49
533.1	8.54
533.299	8.53
533.499	8.49
533.698	8.51
533.898	8.55
534.097	8.55
534.297	8.65
534.496	8.64
534.696	8.67
534.895	8.78
535.095	8.87
535.294	8.78
535.494	8.75
535.693	8.76
535.892	8.75
536.092	8.68
536.291	8.7
536.491	8.83
536.69	8.9
536.889	8.84
537.088	8.86
537.288	8.96
537.487	9.03
537.686	9.02
537.886	9.08
538.085	9.13
538.284	9.18
538.483	9.15
538.682	9.22
538.882	9.25
539.081	9.32
539.28	9.23
539.479	9.21
539.678	9.14
539.877	9.2
540.076	9.17
540.275	9.26
540.474	9.36
540.673	9.45
540.872	9.37
541.071	9.41
541.27	9.45
541.469	9.48
541.668	9.48
541.867	9.58
542.066	9.64
542.265	9.69
542.464	9.68
542.663	9.74
542.862	9.87
543.06	9.92
543.259	9.97
543.458	10.05
543.657	10.09
543.856	10.1
544.054	10.11
544.253	10.1
544.452	10.09
544.651	10.19
544.849	10.16
545.048	10.23
545.247	10.3
545.445	10.38
545.644	10.36
545.843	10.37
546.041	10.39
546.24	10.47
546.438	10.53
546.637	10.62
546.836	10.8
547.034	10.86
547.233	10.88
547.431	10.87
547.63	10.89
547.828	10.93
548.027	10.94
548.225	10.98
548.423	11
548.622	11.05
548.82	11.04
549.019	11.11
549.217	11.24
549.415	11.36
549.614	11.46
549.812	11.47
550.01	11.52
550.209	11.53
550.407	11.58
550.605	11.58
550.803	11.72
551.002	11.79
551.2	11.78
551.398	11.87
551.596	11.98
551.794	12.02
551.993	12.16
552.191	12.29
552.389	12.37
552.587	12.46
552.785	12.53
552.983	12.55
553.181	12.64
553.379	12.7
553.577	12.75
553.775	12.82
553.973	12.92
554.171	12.97
554.369	12.97
554.567	12.99
554.765	13.03
554.963	13.13
555.161	13.18
555.359	13.29
555.557	13.46
555.755	13.58
555.952	13.63
556.15	13.64
556.348	13.74
556.546	13.94
556.744	14.02
556.941	14.09
557.139	14.31
557.337	14.42
557.535	14.28
557.732	14.38
557.93	14.52
558.128	14.52
558.325	14.66
558.523	14.75
558.721	14.87
558.918	14.89
559.116	15.03
559.313	15.07
559.511	15.25
559.708	15.28
559.906	15.33
560.104	15.41
560.301	15.55
560.498	15.61
560.696	15.74
560.893	15.89
561.091	16.03
561.288	16.14
561.486	16.29
561.683	16.44
561.88	16.53
562.078	16.62
562.275	16.63
562.473	16.68
562.67	16.78
562.867	16.93
563.064	17.08
563.262	17.14
563.459	17.28
563.656	17.43
563.853	17.47
564.051	17.51
564.248	17.67
564.445	17.77
564.642	17.82
564.839	17.99
565.036	18.16
565.234	18.33
565.431	18.45
565.628	18.56
565.825	18.71
566.022	18.82
566.219	18.95
566.416	19.07
566.613	19.15
566.81	19.17
567.007	19.19
567.204	19.15
567.401	19.18
567.598	19.23
567.795	19.33
567.991	19.41
568.188	19.56
568.385	19.72
568.582	19.75
568.779	19.88
568.976	19.91
569.172	20.06
569.369	20.07
569.566	20.21
569.763	20.26
569.96	20.37
570.156	20.39
570.353	20.4
570.55	20.54
570.746	20.56
570.943	20.66
571.14	20.75
571.336	20.91
571.533	20.94
571.729	21.05
571.926	21.13
572.123	21.13
572.319	21.1
572.516	21.08
572.712	21.12
572.909	21.13
573.105	21.27
573.302	21.34
573.498	21.49
573.695	21.52
573.891	21.59
574.087	21.59
574.284	21.64
574.48	21.55
574.677	21.58
574.873	21.6
575.069	21.68
575.266	21.74
575.462	21.78
575.658	21.9
575.854	22.05
576.051	22.01
576.247	21.99
576.443	22.05
576.639	21.92
576.835	21.77
577.032	21.73
577.228	21.82
577.424	21.91
577.62	21.95
577.816	22.07
578.012	22.18
578.208	22.15
578.404	22.11
578.6	22.2
578.796	22.14
578.993	22.09
579.189	22.02
579.384	21.88
579.58	21.68
579.776	21.64
579.972	21.6
580.168	21.59
580.364	21.68
580.56	21.77
580.756	21.8
580.952	21.79
581.148	21.83
581.343	21.84
581.539	22
581.735	22.06
581.931	22.15
582.127	22.2
582.322	22.2
582.518	21.99
582.714	21.96
582.909	21.92
583.105	21.83
583.301	21.77
583.496	21.89
583.692	21.84
583.888	21.73
584.083	21.8
584.279	21.89
584.474	21.83
584.67	21.87
584.866	21.95
585.061	21.87
585.257	21.93
585.452	21.96
585.648	21.95
585.843	21.99
586.039	22
586.234	21.96
586.429	21.83
586.625	21.91
586.82	21.78
587.015	21.83
587.211	21.75
587.406	21.92
587.601	21.88
587.797	21.97
587.992	21.92
588.187	22.04
588.383	21.96
588.578	22.03
588.773	22.15
588.968	22.22
589.163	22.19
589.359	22.27
589.554	22.18
589.749	22.12
589.944	22.27
590.139	22.37
590.334	22.43
590.529	22.45
590.724	22.52
590.919	22.49
591.114	22.45
591.309	22.49
591.504	22.69
591.699	22.67
591.894	22.81
592.089	22.85
592.284	22.86
592.479	22.88
592.674	22.89
592.869	22.85
593.064	22.91
593.259	23.1
593.454	23.14
593.648	23.26
593.843	23.29
594.038	23.29
594.233	23.26
594.428	23.31
594.622	23.36
594.817	23.51
595.012	23.63
595.206	23.68
595.401	23.74
595.596	23.83
595.79	23.84
595.985	24.02
596.18	24.1
596.374	24.19
596.569	24.23
596.763	24.24
596.958	24.24
597.153	24.27
597.347	24.22
597.542	24.32
597.736	24.34
597.931	24.36
598.125	24.42
598.319	24.66
598.514	24.77
598.708	24.89
598.903	24.94
599.097	25.05
599.291	25
599.486	25.03
599.68	25.11
599.874	25.31
600.069	25.3
600.263	25.36
600.457	25.4
600.651	25.46
600.846	25.41
601.04	25.51
601.234	25.5
601.428	25.53
601.622	25.55
601.817	25.58
602.011	25.72
602.205	25.85
602.399	25.92
602.593	25.96
602.787	26.03
602.981	25.9
603.175	25.92
603.369	25.83
603.563	25.91
603.757	26.01
603.951	26.04
604.145	26.03
604.339	26.12
604.533	26
604.727	25.84
604.921	25.82
605.115	25.8
605.309	25.86
605.502	25.84
605.696	25.77
605.89	25.75
606.084	25.81
606.278	25.76
606.471	25.74
606.665	25.75
606.859	25.67
607.053	25.63
607.246	25.48
607.44	25.43
607.634	25.37
607.827	25.4
608.021	25.24
608.214	25.27
608.408	25.28
608.602	25.24
608.795	25.22
608.989	25.17
609.182	25.09
609.376	25.09
609.569	25.03
609.763	24.85
609.956	24.76
610.15	24.67
610.343	24.54
610.537	24.47
610.73	24.47
610.923	24.45
611.117	24.4
611.31	24.3
611.504	24.32
611.697	24.15
611.89	24.11
612.083	24.09
612.277	24.12
612.47	23.97
612.663	24.04
612.856	23.81
613.05	23.63
613.243	23.46
613.436	23.4
613.629	23.26
613.822	23.26
614.015	23.29
614.209	23.24
614.402	23.28
614.595	23.25
614.788	23.2
614.981	22.98
615.174	22.77
615.367	22.57
615.56	22.44
615.753	22.41
615.946	22.4
616.139	22.51
616.332	22.59
616.525	22.63
616.718	22.58
616.911	22.5
617.103	22.45
617.296	22.44
617.489	22.35
617.682	22.33
617.875	22.36
618.067	22.28
618.26	22.07
618.453	22.12
618.646	22.14
618.838	22.12
619.031	22.21
619.224	22.21
619.417	22.09
619.609	22.01
619.802	22.02
619.994	21.98
620.187	21.97
620.38	21.83
620.572	21.68
620.765	21.71
620.957	21.46
621.15	21.27
621.342	21.37
621.535	21.5
621.727	21.33
621.92	21.33
622.112	21.41
622.305	21.39
622.497	21.24
622.69	21.23
622.882	21.34
623.074	21.35
623.267	21.26
623.459	21.22
623.651	21.18
623.844	21.09
624.036	21.08
624.228	21
624.42	21
624.613	21.07
624.805	21.1
624.997	21.1
625.189	21.07
625.381	21.11
625.574	20.92
625.766	20.8
625.958	20.73
626.15	20.73
626.342	20.65
626.534	20.75
626.726	20.69
626.918	20.65
627.11	20.59
627.302	20.55
627.494	20.42
627.686	20.5
627.878	20.38
628.07	20.42
628.262	20.33
628.454	20.4
628.646	20.31
628.838	20.41
629.029	20.32
629.221	20.43
629.413	20.28
629.605	20.22
629.797	20.13
629.989	20.12
630.18	19.96
630.372	20
630.564	20.01
630.755	20.03
630.947	20.06
631.139	20
631.33	19.87
631.522	19.92
631.714	19.85
631.905	19.84
632.097	19.81
632.289	19.92
632.48	19.81
632.672	19.72
632.863	19.58
633.055	19.6
633.246	19.53
633.438	19.49
633.629	19.48
633.821	19.58
634.012	19.57
634.203	19.44
634.395	19.46
634.586	19.51
634.777	19.46
634.969	19.49
635.16	19.61
635.351	19.51
635.543	19.61
635.734	19.57
635.925	19.57
636.117	19.54
636.308	19.58
636.499	19.43
636.69	19.33
636.881	19.3
637.073	19.35
637.264	19.28
637.455	19.19
637.646	19.33
637.837	19.31
638.028	19.2
638.219	19.32
638.41	19.45
638.601	19.36
638.792	19.38
638.983	19.36
639.174	19.26
639.365	19.19
639.556	19.2
639.747	19.14
639.938	19.16
640.129	19.19
640.32	19.22
640.511	19.27
640.701	19.35
640.892	19.34
641.083	19.42
641.274	19.45
641.465	19.44
641.655	19.3
641.846	19.32
642.037	19.26
642.228	19.12
642.418	19.05
642.609	19.14
642.8	19.17
642.99	19.1
643.181	19.25
643.372	19.28
643.562	19.21
643.753	19.1
643.943	19.06
644.134	18.88
644.324	18.92
644.515	18.94
644.705	19.02
644.896	19.14
645.086	19.26
645.277	19.13
645.467	19.05
645.658	19.02
645.848	18.93
646.038	18.84
646.229	18.81
646.419	18.83
646.61	18.86
646.8	18.75
646.99	18.73
647.18	18.73
647.371	18.66
647.561	18.42
647.751	18.5
647.941	18.44
648.132	18.45
648.322	18.4
648.512	18.62
648.702	18.59
648.892	18.57
649.082	18.58
649.272	18.57
649.462	18.34
649.653	18.23
649.843	18.23
650.033	18.23
650.223	18.22
650.413	18.2
650.603	18.28
650.793	18.25
650.983	18.09
651.172	18
651.362	18.05
651.552	17.94
651.742	17.8
651.932	17.84
652.122	17.87
652.312	17.86
652.502	17.79
652.691	17.86
652.881	17.77
653.071	17.65
653.261	17.43
653.45	17.23
653.64	17.08
653.83	16.92
654.019	16.76
654.209	16.7
654.399	16.73
654.588	16.59
654.778	16.53
654.968	16.47
655.157	16.33
655.347	16.25
655.536	16.18
655.726	16.02
655.915	15.85
656.105	15.73
656.294	15.52
656.484	15.35
656.673	15.27
656.863	15.27
657.052	15.16
657.241	14.97
657.431	14.75
657.62	14.58
657.809	14.2
657.999	14.13
658.188	14.06
658.377	13.92
658.567	13.75
658.756	13.67
658.945	13.42
659.134	13.21
659.324	13.12
659.513	12.95
659.702	12.76
659.891	12.63
660.08	12.48
660.269	12.42
660.458	12.2
660.648	12.1
660.837	11.97
661.026	11.88
661.215	11.59
661.404	11.41
661.593	11.26
661.782	10.91
661.971	10.81
662.16	10.63
662.349	10.68
662.538	10.5
662.726	10.57
662.915	10.37
663.104	10.3
663.293	10.15
663.482	10.16
663.671	10.01
663.86	9.9
664.048	9.71
664.237	9.56
664.426	9.36
664.615	9.25
664.803	9.2
664.992	9.16
665.181	9.04
665.369	8.88
665.558	8.76
665.747	8.57
665.935	8.58
666.124	8.59
666.312	8.61
666.501	8.51
666.69	8.42
666.878	8.33
667.067	8.14
667.255	8.22
667.444	8.55
667.632	8.61
667.82	8.57
668.009	8.59
668.197	8.4
668.386	8.13
668.574	8.17
668.762	8.17
668.951	8.05
669.139	8.07
669.327	7.91
669.516	7.94
669.704	7.86
669.892	8.03
670.08	8.06
670.269	8.07
670.457	7.89
670.645	7.82
670.833	7.86
671.021	7.75
671.21	7.81
671.398	8
671.586	8
671.774	7.88
671.962	7.96
672.15	7.99
672.338	7.87
672.526	8.03
672.714	7.96
672.902	7.99
673.09	8.15
673.278	8.44
673.466	8.51
673.654	8.79
673.842	8.7
674.03	8.7
674.218	8.51
674.405	8.56
674.593	8.51
674.781	8.73
674.969	8.74
675.157	8.94
675.344	8.99
675.532	9.06
675.72	9.11
675.908	9.2
676.095	9.13
676.283	9.21
676.471	9.39
676.658	9.39
676.846	9.44
677.033	9.51
677.221	9.57
677.409	9.45
677.596	9.58
677.784	9.7
677.971	9.83
678.159	9.94
678.346	10.06
678.534	10.24
678.721	10.42
678.909	10.43
679.096	10.48
679.283	10.75
679.471	10.77
679.658	10.89
679.846	11.22
680.033	11.46
680.22	11.49
680.408	11.57
680.595	11.64
680.782	11.59
680.969	11.61
681.157	11.7
681.344	11.89
681.531	11.97
681.718	12.09
681.905	12.41
682.093	12.66
682.28	12.95
682.467	13.23
682.654	13.44
682.841	13.41
683.028	13.64
683.215	13.85
683.402	13.87
683.589	14.19
683.776	14.65
683.963	14.66
684.15	14.83
684.337	15.14
684.524	15.34
684.711	15.59
684.898	15.94
685.085	16.22
685.271	16.6
685.458	16.89
685.645	17.09
685.832	17.49
686.019	17.77
686.205	18.03
686.392	18.24
686.579	18.51
686.766	19.07
686.952	19.53
687.139	20.23
687.326	20.72
687.512	21.26
687.699	21.41
687.886	21.65
688.072	21.79
688.259	22.21
688.445	22.7
688.632	23.14
688.818	24.05
689.005	24.65
689.191	25.17
689.378	25.79
689.564	26.47
689.751	26.62
689.937	26.91
690.124	27.66
690.31	27.99
690.496	28.35
690.683	29.25
690.869	29.93
691.055	30.26
691.242	31.05
691.428	31.8
691.614	32.36
691.8	33.17
691.987	33.94
692.173	34.55
692.359	35.22
692.545	35.79
692.731	36.26
692.918	37.02
693.104	37.38
693.29	38.05
693.476	38.73
693.662	39.22
693.848	39.6
694.034	40.27
694.22	40.75
694.406	41.34
694.592	42.2
694.778	42.9
694.964	43.44
695.15	44.06
695.336	44.26
695.522	45.04
695.708	45.57
695.894	46.06
696.08	46.69
696.265	47.52
696.451	47.96
696.637	48.46
696.823	49.2
697.009	49.55
697.194	50.01
697.38	50.19
697.566	50.8
697.751	51.38
697.937	52.18
698.123	52.91
698.308	53.67
698.494	54.34
698.68	54.64
698.865	54.77
699.051	55.09
699.236	55.28
699.422	55.5
699.607	55.79
699.793	56.4
699.978	56.58
700.164	56.93
700.349	57.61
700.535	58.17
700.72	58.34
700.906	59.07
701.091	59.67
701.276	59.59
701.462	60.33
701.647	60.84
701.832	60.74
702.018	60.96
702.203	61.39
702.388	61.24
702.573	61.5
702.759	62.34
702.944	62.5
703.129	62.64
703.314	63.21
703.499	63.6
703.684	63.5
703.87	64.38
704.055	64.91
704.24	64.85
704.425	65.26
704.61	65.72
704.795	65.13
704.98	65.09
705.165	65.24
705.35	65.21
705.535	65.38
705.72	65.87
705.905	66.57
706.09	67.11
706.275	67.39
706.459	67.35
706.644	67.53
706.829	67.53
707.014	67.39
707.199	67.77
707.384	68.18
707.568	68.48
707.753	68.9
707.938	69.38
708.123	69.27
708.307	68.95
708.492	69.03
708.677	68.8
708.861	68.73
709.046	68.47
709.231	69.48
709.415	69.69
709.6	69.57
709.784	69.62
709.969	70.26
710.153	69.91
710.338	69.78
710.522	70.01
710.707	70.44
710.891	70.27
711.076	70.18
711.26	70.22
711.445	70.33
711.629	70.4
711.813	70.73
711.998	71.11
712.182	71.32
712.366	72
712.551	72.32
712.735	72.28
712.919	72.26
713.103	72.23
713.288	71.54
713.472	71.04
713.656	71.32
713.84	71.63
714.024	71.91
714.208	72.45
714.393	73.08
714.577	73.28
714.761	73.12
714.945	73.04
715.129	73.06
715.313	72.98
715.497	72.77
715.681	73.59
715.865	73.61
716.049	73.19
716.233	72.95
716.417	73.19
716.601	72.69
716.785	72.99
716.968	73.46
717.152	73.68
717.336	73.89
717.52	73.67
717.704	73.82
717.888	74.23
718.071	74.56
718.255	74.66
718.439	74.63
718.622	74.53
718.806	74.49
718.99	74.16
719.174	73.76
719.357	74.18
719.541	74.55
719.724	74.34
719.908	75.12
720.092	75.75
720.275	75.76
720.459	75.77
720.642	75.5
720.826	74.9
721.009	74.25
721.193	74
721.376	74.1
721.559	74.92
721.743	75.44
721.926	76.05
722.11	76.19
722.293	75.62
722.476	74.97
722.66	74.71
722.843	74.49
723.026	74.43
723.21	75.35
723.393	76.1
723.576	75.92
723.759	75.84
723.942	75.78
724.126	75.25
724.309	75.07
724.492	75.26
724.675	75.25
724.858	76.29
725.041	77.12
725.224	77.45
725.407	77.54
725.59	77.85
725.774	77.08
725.957	75.91
726.14	75.64
726.322	75.79
726.505	76.05
726.688	76.75
726.871	76.97
727.054	77.08
727.237	77.1
727.42	77.48
727.603	77.18
727.786	77.76
727.968	77.63
728.151	77.92
728.334	77.46
728.517	77.34
728.699	77.83
728.882	77.78
729.065	77.95
729.248	78.14
729.43	78.34
729.613	78.81
729.796	79.52
729.978	78.59
730.161	78.3
730.343	78.44
730.526	78.22
730.708	77.27
730.891	78.02
731.073	77.96
731.256	77.38
731.438	76.89
731.621	78.19
731.803	78.35
731.986	78.2
732.168	78.19
732.35	78.08
732.533	77.5
732.715	77.48
732.898	78.18
733.08	78.55
733.262	79.65
733.444	79.53
733.627	79.46
733.809	80.04
733.991	80.93
734.173	80.24
734.355	80.41
734.538	80.69
734.72	80.13
734.902	79.78
735.084	79.88
735.266	80.31
735.448	80.49
735.63	80.33
735.812	79.36
735.994	80.44
736.176	80.48
736.358	79.98
736.54	81.37
736.722	81.96
736.904	81.4
737.086	81.51
737.268	82.52
737.45	82.33
737.632	82.69
737.814	81.32
737.995	81.4
738.177	80.88
738.359	79.36
738.541	79.44
738.723	80.59
738.904	80.53
739.086	80.45
739.268	80.65
739.449	81
739.631	80.86
739.813	80.64
739.994	80.62
740.176	81.05
740.358	81.13
740.539	81.64
740.721	81.72
740.902	82.72
741.084	82.6
741.265	82.07
741.447	81.62
741.628	82.23
741.81	80.42
741.991	80.93
742.172	81.88
742.354	82.34
742.535	81.8
742.717	83.16
742.898	83.13
743.079	83.47
743.261	83.48
743.442	82.54
743.623	83.05
743.804	82.73
743.986	81.95
744.167	80.39
744.348	80.8
744.529	79.94
744.71	79.27
744.891	78.93
745.073	79.91
745.254	80.06
745.435	80.56
745.616	80.58
745.797	81.17
745.978	81.07
746.159	81.39
746.34	79.25
746.521	80.66
746.702	79.07
746.883	79.12
747.064	78.56
747.245	79.82
747.426	79.46
747.606	80.11
747.787	79.73
747.968	80.42
748.149	80.44
748.33	80.36
748.51	80.59
748.691	80.21
748.872	80.19
749.053	80.15
749.233	79.7
749.414	79.39
749.595	79.3
749.775	78.08
749.956	77.55
750.137	77.05
750.317	78.59
750.498	81.04
750.678	80.87
750.859	81.88
751.04	82.15
751.22	80
751.4	77.33
751.581	77.24
751.761	77.79
751.942	78.66
752.122	79.47
752.303	79.72
752.483	81.21
752.663	79.32
752.844	77.39
753.024	78.38
753.204	79.45
753.385	77.3
753.565	78.23
753.745	79.44
753.925	77.89
754.106	75.47
754.286	76.45
754.466	76.34
754.646	76.97
754.826	76.6
755.006	76.87
755.187	77.22
755.367	77.6
755.547	76.57
755.727	78.15
755.907	79.05
756.087	80.45
756.267	79.48
756.447	81.11
756.627	78.28
756.807	78.46
756.987	77.43
757.167	78.02
757.346	76.5
757.526	77.57
757.706	78
757.886	78.29
758.066	78.05
758.246	80.32
758.425	79.48
758.605	78.74
758.785	78.7
758.965	79.77
759.144	76.26
759.324	76.99
759.504	76.67
759.683	75.44
759.863	73.54
760.043	74.35
760.222	74.65
760.402	75.66
760.581	76.1
760.761	77.85
760.94	76.45
761.12	77.94
761.299	78.38
761.479	77.88
761.658	74.96
761.838	76.04
762.017	75.04
762.197	72.85
762.376	73.67
762.555	76.63
762.735	77.46
762.914	75.86
763.093	76.14
763.273	76.03
763.452	74.46
763.631	74.54
763.81	74.98
763.99	76.14
764.169	76.68
764.348	76.04
764.527	76.38
764.706	77.37
764.885	78.07
765.064	75.34
765.243	76.82
765.423	75.88
765.602	75.69
765.781	73
765.96	72.97
766.139	71.38
766.318	72.62
766.497	72.19
766.676	73.93
766.854	75.88
767.033	77.66
767.212	74.78
767.391	75.49
767.57	76.51
767.749	76.39
767.928	77.12
768.106	78.25
768.285	76.73
768.464	75.73
768.643	74.23
768.821	73.17
769	74.28
769.179	74.83
769.357	73.39
769.536	72.63
769.715	72.82
769.893	73.6
770.072	71.73
770.25	72.63
770.429	75.28
770.607	73.15
770.786	71.95
770.964	75.03
771.143	73.41
771.321	73.88
771.5	74.96
771.678	72.31
771.857	69.64
772.035	70.34
772.213	68.44
772.392	66.14
772.57	69.35
772.748	70.72
772.927	68.8
773.105	68.79
773.283	70.84
773.461	70.85
773.64	71.45
773.818	72.85
773.996	74.58
774.174	73.76
774.352	71.01
774.531	65.95
774.709	69.78
774.887	68.68
775.065	68.97
775.243	69.97
775.421	74.41
775.599	73.81
775.777	71.05
775.955	68.13
776.133	66.83
776.311	65.34
776.489	62.48
776.667	64.04
776.844	67.02
777.022	66.22
777.2	67.78
777.378	67.51
777.556	68.09
777.734	70.02
777.911	76.25
778.089	73.67
778.267	74.53
778.445	71.6
778.622	67.53
778.8	63.48
778.978	64.51
779.155	61.72
779.333	63.85
779.511	65.33
779.688	66.86
779.866	63.67
780.043	63.09
780.221	62.53
780.398	60.46
780.576	61.48
780.753	63.08
780.931	63.85
781.108	61.98
781.286	63.08
781.463	59.43
781.64	58.97
781.818	59.93
781.995	60.61
782.172	61.38
782.35	61.53
782.527	65.23
782.704	64.91
782.882	67.59
783.059	67.09
783.236	69.44
783.413	68.65
783.59	70.18
783.768	67.17
783.945	69.28
784.122	68.06
784.299	68.91
784.476	65.95
784.653	65.83
784.83	61.32
785.007	57.28
785.184	57.35
785.361	55.88
785.538	61.6
785.715	67.13
785.892	71.04
786.069	71.71
786.246	75.54
786.423	70.48
786.6	66.53
786.776	66.57
786.953	62.86
787.13	64.62
787.307	64.85
787.484	66.18
787.66	64.15
787.837	64.14
788.014	60.89
788.191	58.25
788.367	58.64
788.544	61.85
788.721	62.78
788.897	65.89
789.074	71.18
789.25	67.79
789.427	64.26
789.603	64.81
789.78	62.97
789.956	60.51
790.133	59.58
790.309	61.41
790.486	65.98
790.662	63.74
790.839	63.83
791.015	70.53
791.192	67.74
791.368	63.85
791.544	62.43
791.721	62.07
791.897	56.5
792.073	55.31
792.249	50.58
792.426	54.67
792.602	54.73
792.778	52.62
792.954	52.67
793.13	55.51
793.307	49.74
793.483	43.22
793.659	49.47
793.835	55.42
794.011	50.38
794.187	54.14
794.363	56
794.539	54.15
794.715	49.25
794.891	54
795.067	52.49
795.243	61.3
795.419	59.96
795.595	55.6
795.771	55.87
795.947	55.43
796.122	49.47
796.298	51.52
796.474	57.46
796.65	56.87
796.826	57.19
797.001	58.29
797.177	53.38
797.353	56.59
797.529	59.65
797.704	58.52
797.88	54.32
798.056	52.12
798.231	44.39
798.407	44.45
798.582	47.55
798.758	58.33
798.934	65.59
799.109	64.93
799.285	58.53
799.46	62.23
799.636	57.03
799.811	53.94
799.986	56.77
800.162	60.1
800.337	57.88
800.513	51.08
800.688	52.54
800.863	60.96
801.039	58.43
801.214	52.32
801.389	59.23
801.565	59.07
801.74	47.88
801.915	55.16
802.09	56.81
802.265	60.02
802.441	56.14
802.616	57.06
802.791	54.58
802.966	56.34
803.141	51.69
803.316	48.6
803.491	55.09
803.666	57.7
803.841	52.62
804.016	53.67
804.191	57.93
804.366	48.06
804.541	44.63
804.716	45.83
804.891	41.29
805.066	44.91
805.241	48.4
805.416	45.6
805.591	46.84
805.765	51.85
805.94	50.42
806.115	49.32
806.29	42.37
806.464	41.87
806.639	41.61
806.814	33.79
806.989	31.59
807.163	48.48
807.338	49.19
807.512	45.8
807.687	40.55
807.862	49.32
808.036	48.63
808.211	49.87
808.385	53.67
808.56	69.05
808.734	81.8
808.909	75.05
809.083	70.57
809.258	75.35
809.432	68.77
809.606	46.66
809.781	46.29
809.955	51.61
810.13	52.74
810.304	47.13
810.478	46.75
810.652	52.5
810.827	50.29
811.001	47.72
811.175	55.01
811.349	56.69
811.524	53.55
811.698	43.79
811.872	40.47
812.046	44.89
812.22	53.43
812.394	47.38
812.568	51.65
812.742	50.69
812.916	43.96
813.09	29.61
813.264	34.17
813.438	43.78
813.612	41.7
813.786	42.43
813.96	52.47
814.134	47.02
814.308	51.19
814.482	54.16
814.656	48.26
814.83	54.06
815.003	59.91
815.177	52.15
815.351	47.05
815.525	55.28
815.698	46.06
815.872	32.5
816.046	17.29
816.219	25.51
816.393	26.63
816.567	35
816.74	38.54
816.914	56.04
817.088	52.71
817.261	38.78
817.435	20.14
817.608	33.34
817.782	21.36
817.955	23.89
818.129	28.23
818.302	34.43
818.475	35
818.649	37.75
818.822	26.38
818.996	40.52
819.169	52.13
819.342	47.11
819.516	55.91
819.689	62.71
819.862	52.73
820.035	28.77
820.209	29.25
820.382	22.57
820.555	27.81
820.728	17.43
820.901	25.76
821.075	24.26
821.248	39.97
821.421	29.2
821.594	31.66
821.767	59.16
821.94	78.82
822.113	46.65
822.286	43.69
822.459	52.28
822.632	32.5
822.805	5.31
822.978	11.31
823.151	11.21
823.324	-5.23
823.496	-17.78
823.669	-15.25
823.842	-7.88
824.015	-9.03
824.188	-2.9
824.361	0.1
824.533	-4.17
824.706	10.99
824.879	12.29
825.051	19.12
825.224	20.69
825.397	30.52
825.569	11.79
825.742	29.79
825.915	46.27
826.087	58.2
826.26	37.05
826.432	40.3
826.605	42.01
826.777	27.74
826.95	20.55
827.122	7.17
827.295	10.3
827.467	4.99
827.64	-19.55
827.812	-7.91
827.984	9.8
828.157	-0.29
828.329	-25.91
828.501	-18.34
828.674	8.53
828.846	14.65
829.018	41.5
829.19	31.36
829.363	62.76
829.535	49.87
829.707	42.31
829.879	9.34
830.051	9.26
830.223	-20.43
830.395	-50.45
830.568	-56.32
830.74	-45.11
830.912	-6.37
831.084	-18.53
831.256	-6.11
831.428	-10.27
831.6	-31.25
831.772	-92.27
831.943	-96.19
832.115	-62.43
832.287	-33.49
832.459	-9.69
832.631	23.28
832.803	40.3
832.975	39.41
833.146	16.63
833.318	4.79
833.49	-0.76
833.662	-10.69
833.833	-27.17
834.005	-1.01
834.177	17.08
834.348	23.38
834.52	17.74
834.692	26.96
834.863	-13.76
835.035	-26.23
835.206	-89.01
835.378	-52.39
835.549	-53.37
835.721	-35.72
835.892	-19.48
836.064	7.05
836.235	-9.83
836.407	17.07
836.578	-6.74
836.749	-23.89
836.921	-55.34
837.092	-87.84
837.264	-86.93
837.435	-85.21
837.606	-37.82
837.777	-15.58
837.949	19.3
838.12	20.89
838.291	38.77
838.462	24.62
838.633	-9.11
838.805	-21.36
838.976	-13.74
839.147	-109.55
839.318	-102.22
839.489	-124.94
839.66	-102.01
839.831	-57.47
840.002	-23.25
840.173	-45.82
840.344	24.38
840.515	63.67
840.686	-62.88
840.857	-58.16
841.028	-59.08
841.199	-56.02
841.369	-113.03
841.54	-89.89
841.711	-61.87
841.882	-31.75
842.053	-26.69
842.223	-18.04
842.394	11.58
842.565	22.46
842.736	23.2
842.906	-4.05
843.077	19.6
843.248	22.63
843.418	0.72
843.589	-60.54
843.759	62.18
843.93	-4.94
844.101	-7.92
844.271	14.33
844.442	29.63
844.612	24.7
844.783	10.91
844.953	-37.96
845.123	-58.7
845.294	-91.03
845.464	-365.75
845.635	-211.73
845.805	-61.98
845.975	-24.32
846.146	-48.38
846.316	-40.26
846.486	-16.28
846.656	18.84
846.827	21.24
846.997	26.49
847.167	73.48
847.337	40.16
847.507	-7.27
847.677	-19.35
847.848	15.55
848.018	16.01
848.188	31.69
848.358	16.58
848.528	-3.31
848.698	-18.34
848.868	-97.83
849.038	-258.67
849.208	-111.43
849.378	-47.53
849.548	-58.32
849.718	-34.15
849.887	-9.66
850.057	-32.16
850.227	-73.31
850.397	-103.03
850.567	-217.73
850.737	-483.15
850.906	-1126.56
851.076	-804.88
851.246	-324.21
851.415	-36.87
851.585	-21.38
851.755	-76.48
851.924	-36.44
852.094	-72.7
852.264	-152.27
852.433	-1206.97
852.603	-197.83
852.772	-146.84
852.942	-85.9
853.111	-100.28
853.281	-40.19
853.45	-39.84
853.62	-110.99
853.789	-96.28
853.959	-79.82
854.128	-78.05
854.297	-96.82
854.467	-113.93
854.636	-112.52
854.805	-23.63
854.975	-55.33
855.144	-60.34
855.313	145.98
855.482	-338.14
855.652	-319.45
855.821	-243.68
855.99	-73.48
856.159	-33.22
856.328	4.12
856.497	1.19
856.667	0.13
856.836	6.97
857.005	-44.22
857.174	-90.97
857.343	-144.69
857.512	-81.38
857.681	-126.53
857.85	-127.96
858.019	-71.99
858.188	-62.68
858.356	-92.08
858.525	-149.09
858.694	-120.01
858.863	-226.98
859.032	-166.31
859.201	-212.88
859.369	-70.73
859.538	-121.54
859.707	-67.58
859.876	-70.14
860.044	-78.71
860.213	-18.68
860.382	-16
860.55	-3.69
860.719	33.88
860.888	40.71
861.056	12.64
861.225	6.76
861.393	42.26
861.562	39.08
861.73	-42.43
861.899	-154.58
862.067	-1069.83
862.236	-134.66
862.404	-343.59
862.572	-236.65
862.741	-104.59
862.909	-80.41
863.078	-204.15
863.246	-133.8
863.414	-89.06
863.582	-63.49
863.751	-119.3
863.919	-75.56
864.087	-7.26
864.255	-30.97
864.424	-330.38
864.592	-75.75
864.76	-177.78
864.928	-682.6
865.096	-349.12
865.264	-321.36
865.432	-2743.75
865.6	-185.13
865.768	-172.97
865.936	-112.03
866.104	-61.75
866.272	-122.27
866.44	-373.72
866.608	595.79
866.776	376.36
866.944	3895.93
867.112	-688.24
867.28	-291.35
867.448	-134.64
867.615	-73.08
867.783	-47.74
867.951	-52.45
868.119	-2.68
868.286	-11.32
868.454	-72.34
868.622	-32.52
868.789	57.05
868.957	-2516.07
869.125	-1953.29
869.292	-130.77
869.46	-205.7
869.627	-33.56
869.795	-12.13
869.963	12.6
870.13	29.18
870.298	49.26
870.465	-17.21
870.632	-26.35
870.8	-18.49
870.967	-74.85
871.135	-186.41
871.302	-140.66
871.469	-172.84
871.637	-302.58
871.804	-139.82
871.971	-123.57
872.139	-413.6
872.306	-18.46
872.473	-26.08
872.64	-192.38
872.807	-30.6
872.975	31.36
873.142	-239.36
873.309	2395.27
873.476	-19.26
873.643	48.37
873.81	-20.6
873.977	37.15
874.144	70.17
874.311	-13.71
874.478	-116.14
874.645	-135.68
874.812	-108.77
874.979	-61.47
875.146	-75.36
875.313	-119.11
875.48	-7.56
875.647	-38.7
875.813	-101.76
875.98	-68.58
876.147	-78.95
876.314	-186.18
876.481	1094.42
876.647	-1127.25
876.814	309.97
876.981	97.6
877.147	18.37
877.314	21.91
877.481	58.37
877.647	33.34
877.814	-7.97
877.98	-29.02
878.147	11.56
878.314	44.74
878.48	-1.68
878.647	0.24
878.813	60.31
878.979	31.79
879.146	-18.11
879.312	-34.6
879.479	-107.85
879.645	-283.67
879.811	-461.28
879.978	-1015.46
880.144	-307.09
880.31	-114.39
880.477	-281.23
880.643	-314.17
880.809	-193.71
880.975	-149.66
881.142	-1116.59
881.308	-170.75
881.474	-117.3
881.64	-125.49
881.806	-152.73
881.972	-60.41
882.138	-55.06
882.304	-57.42
882.47	-171.42
882.636	-770.7
882.802	-287.02
882.968	-113.39
883.134	-80.81
883.3	-86.1
883.466	-22.13
883.632	22.84
883.798	5.94
883.964	12.7
884.129	29.96
884.295	37.37
884.461	-27.26
884.627	-60.27
884.793	-117.61
884.958	-66.54
885.124	-176.93
885.29	-357.43
885.455	-680.7
885.621	-197.25
885.787	-332.71
885.952	-141.76
886.118	-91.44
886.283	-91.66
886.449	-201.06
886.614	-188.26
886.78	-353.56
886.945	1664.34
887.111	-749.86
887.276	-691.05
887.442	-1236.59
887.607	-638.8
887.773	-408.36
887.938	-343.41
888.103	-361.69
888.269	-175.68
888.434	-279.59
888.599	-60.01
888.764	9.72
888.93	21.71
889.095	-15.72
889.26	-42.06
889.425	-13.23
889.59	14.01
889.756	-37.72
889.921	-28.49
890.086	-10.15
890.251	-36.71
890.416	-225.46
890.581	-1676.21
890.746	206.16
890.911	363.85
891.076	153.62
891.241	-359.14
891.406	8.12
891.571	-78.5
891.736	-351.49
891.901	-728.54
892.065	842.03
892.23	220.94
892.395	284.39
892.56	340.25
892.725	-315.04
892.889	-1078.66
893.054	-131.94
893.219	-81.85
893.384	-64.08
893.548	-156.83
893.713	-153.13
893.878	-119.28
