Data from Ofra_PS_T2_2A_1GT37_Reflection_2.txt Node
Date: Wed Jul 21 16:54:32 EDT 2021
User: Adam
Spectrometer: FLMT01687
Trigger mode: 0
Integration Time (sec): 1.100000E0
Scans to average: 2
Electric dark correction enabled: true
Nonlinearity correction enabled: false
Boxcar width: 2
XAxis mode: Wavelengths
Number of Pixels in Spectrum: 3648
>>>>>Begin Spectral Data<<<<<
179.494	373.6
179.716	440.24
179.937	431.45
180.158	447.25
180.38	739.37
180.601	366.85
180.823	175.19
181.044	85.78
181.265	201.47
181.486	86.33
181.708	81.99
181.929	-297.96
182.15	302.82
182.372	173.99
182.593	104.18
182.814	48.88
183.035	31.13
183.257	13.79
183.478	2.34
183.699	37.2
183.92	17.71
184.141	37.9
184.363	37.35
184.584	64.71
184.805	65.5
185.026	85.47
185.247	66.96
185.468	31.95
185.689	12.65
185.91	-1.57
186.132	-8.36
186.353	8.53
186.574	68.67
186.795	61.47
187.016	34.67
187.237	16.17
187.458	8.41
187.679	-18.93
187.9	-10.34
188.121	13.81
188.342	36.76
188.563	56.47
188.784	82.1
189.005	58.68
189.226	79.63
189.447	71.73
189.667	-156.31
189.888	-355.17
190.109	-706.49
190.33	-428.39
190.551	-845.13
190.772	-160.05
190.993	-104.77
191.214	-114.85
191.434	-56.86
191.655	5.03
191.876	-6.57
192.097	-57.87
192.318	-85.66
192.538	-114.66
192.759	-90.69
192.98	-23.14
193.201	24.29
193.421	35.49
193.642	35.97
193.863	28.24
194.083	24.12
194.304	13.34
194.525	8.68
194.745	-46.91
194.966	-28.66
195.187	-45.06
195.407	-74.12
195.628	-109.6
195.848	-55.79
196.069	-48.3
196.29	-29.89
196.51	-35.48
196.731	-36.47
196.951	-34.47
197.172	-52.57
197.392	-52.74
197.613	-49.24
197.833	-85.21
198.054	-88.02
198.274	-49.88
198.495	-63.55
198.715	-25.5
198.936	-8.92
199.156	-0.09
199.377	-56.26
199.597	-53.05
199.817	-81.59
200.038	-43.73
200.258	-57.35
200.479	5.5
200.699	-17.67
200.919	45.1
201.14	-2.54
201.36	-36.36
201.58	-6.45
201.801	42.12
202.021	1.65
202.241	11.36
202.461	19.22
202.682	-43.79
202.902	-127.79
203.122	-48.43
203.342	-30.76
203.563	17.71
203.783	42.26
204.003	29.54
204.223	31.56
204.443	41.62
204.663	-13.8
204.884	2.96
205.104	31.48
205.324	28.32
205.544	65.79
205.764	68.05
205.984	58.83
206.204	49.18
206.424	38.15
206.644	2.32
206.864	13.64
207.084	-13.06
207.304	13.86
207.525	7.19
207.745	-1.88
207.964	29.54
208.184	-6.03
208.404	-43.58
208.624	-48.45
208.844	-53.03
209.064	-271.2
209.284	-238.08
209.504	-53.1
209.724	8.34
209.944	27.76
210.164	43.13
210.384	35.08
210.604	12.65
210.823	-16.03
211.043	-40.12
211.263	-24.77
211.483	-13.99
211.703	-30.88
211.922	-25.39
212.142	26.22
212.362	2.31
212.582	1.44
212.801	-12.11
213.021	-11.83
213.241	-52.94
213.461	-45.89
213.68	-62.55
213.9	-69.28
214.12	-58.75
214.339	-79.94
214.559	-61.09
214.779	-23.2
214.998	4.86
215.218	-18.81
215.438	4.18
215.657	-3.7
215.877	-8.76
216.096	7.2
216.316	15.27
216.535	-4.77
216.755	-2.81
216.974	-77.21
217.194	-151.36
217.413	-141.62
217.633	-124.29
217.852	-244.91
218.072	-98.41
218.291	-34.65
218.511	-1.73
218.73	-21.1
218.95	-1.33
219.169	-8.51
219.389	-47.15
219.608	-22.68
219.827	-15.65
220.047	13.26
220.266	30.44
220.485	53.03
220.705	55.99
220.924	40.97
221.143	45.66
221.363	28.84
221.582	43.68
221.801	48.82
222.021	65.53
222.24	50.98
222.459	95.87
222.678	50.81
222.897	3.64
223.117	-11.93
223.336	-21.52
223.555	-4.07
223.774	4.87
223.993	-1.32
224.213	39.15
224.432	38.12
224.651	55.37
224.87	29.8
225.089	35.53
225.308	17.99
225.527	42.32
225.746	24.49
225.965	23.96
226.184	29.6
226.404	35.67
226.623	11.8
226.842	32.23
227.061	50.5
227.28	42.46
227.499	42.08
227.718	48.35
227.936	31.51
228.155	39.8
228.374	24.62
228.593	29.91
228.812	24.78
229.031	34.82
229.25	4.44
229.469	36.06
229.688	21.54
229.907	21.17
230.125	34.97
230.344	39.1
230.563	26.7
230.782	43.92
231.001	-8.45
231.22	-26.67
231.438	-10.08
231.657	7.08
231.876	-8.76
232.095	34.08
232.313	21.5
232.532	-11.03
232.751	-44.42
232.969	-42.7
233.188	-127.88
233.407	-4.3
233.625	16.68
233.844	26.32
234.063	33.04
234.281	63.78
234.5	49.36
234.719	42.12
234.937	41.76
235.156	35.35
235.374	26.89
235.593	13.06
235.811	17.04
236.03	20.99
236.249	30.57
236.467	6.87
236.686	33.24
236.904	29.52
237.123	17.3
237.341	12.4
237.559	20.12
237.778	7.28
237.996	1.9
238.215	28.39
238.433	32.92
238.652	25.63
238.87	-3.38
239.088	-8.4
239.307	-15.9
239.525	-46.3
239.743	-48.7
239.962	-24.91
240.18	-28.33
240.398	-81.33
240.617	-59.93
240.835	-43.58
241.053	-43.28
241.271	-32.96
241.49	22.55
241.708	2.38
241.926	-30.17
242.144	-28.74
242.363	-47.71
242.581	-98.5
242.799	-38.77
243.017	-9.69
243.235	-9.14
243.453	10.78
243.672	19.99
243.89	5.29
244.108	-7.7
244.326	6.89
244.544	15.44
244.762	14.68
244.98	25.16
245.198	33.15
245.416	21.51
245.634	17.23
245.852	24.64
246.07	23.44
246.288	36.33
246.506	12.72
246.724	12.33
246.942	1.39
247.16	23.34
247.378	19.27
247.596	34.95
247.814	46.66
248.032	29.7
248.25	31.48
248.468	26.42
248.685	26.46
248.903	29.77
249.121	39.55
249.339	6.36
249.557	6.11
249.775	16.96
249.992	-46.76
250.21	-44.52
250.428	-22.35
250.646	-50
250.863	-68.83
251.081	-28.42
251.299	-26.22
251.517	-22.02
251.734	10
251.952	12.52
252.17	14.29
252.387	19.88
252.605	15.56
252.823	25
253.04	37.99
253.258	57.59
253.475	55.97
253.693	70.22
253.911	58.77
254.128	74.25
254.346	67.72
254.563	45.47
254.781	31.41
254.998	5.79
255.216	-16.86
255.433	-1.26
255.651	8.85
255.868	-8.41
256.086	24.6
256.303	19.02
256.521	16.31
256.738	8.2
256.956	2.96
257.173	-17.24
257.39	-33.07
257.608	-47.67
257.825	1.06
258.043	34.96
258.26	43.26
258.477	60.69
258.695	55.53
258.912	4.07
259.129	5.86
259.346	-11.38
259.564	-45.73
259.781	-45.1
259.998	18.04
260.216	16.45
260.433	25.1
260.65	26.15
260.867	30.13
261.084	1.42
261.302	-2.54
261.519	-12.8
261.736	-26.29
261.953	-47.21
262.17	-2.24
262.387	-23.58
262.604	-34.74
262.822	-26.17
263.039	-16.08
263.256	-66.21
263.473	-17.71
263.69	1.17
263.907	23.11
264.124	31.58
264.341	27.18
264.558	11.98
264.775	10.92
264.992	9.49
265.209	0.62
265.426	14.05
265.643	19.77
265.86	26.53
266.077	17.87
266.294	26.74
266.51	-6.34
266.727	-23.29
266.944	-22.95
267.161	-21.78
267.378	-12.82
267.595	43.05
267.812	36.17
268.028	26.74
268.245	45.95
268.462	7.33
268.679	-24.88
268.896	20.85
269.112	28.14
269.329	27.94
269.546	33.87
269.763	27.06
269.979	10.3
270.196	12.56
270.413	-17.99
270.629	-27.73
270.846	-19.96
271.063	-24.68
271.279	-36.81
271.496	-19.74
271.712	5.24
271.929	3.6
272.146	3.9
272.362	-3.64
272.579	-3.83
272.795	-12.05
273.012	-8.09
273.228	-10.49
273.445	-17.5
273.661	-26.58
273.878	-38.53
274.094	-14.84
274.311	-40.42
274.527	7.46
274.744	1.84
274.96	-0.66
275.177	1.1
275.393	23.24
275.609	16.15
275.826	42.67
276.042	52.03
276.259	38.98
276.475	42.14
276.691	37.55
276.908	20.74
277.124	24.77
277.34	25.33
277.557	2.99
277.773	3.11
277.989	-5.29
278.205	-4.83
278.422	9.21
278.638	8.82
278.854	17.25
279.07	30.95
279.286	20.84
279.503	-10.71
279.719	-4.4
279.935	-13.83
280.151	-33.85
280.367	-15.98
280.583	-22.95
280.799	-14.54
281.016	-33.07
281.232	3.27
281.448	6.56
281.664	31.92
281.88	4.55
282.096	12.62
282.312	13.25
282.528	12.49
282.744	4.82
282.96	23.02
283.176	12.35
283.392	10.35
283.608	6.35
283.824	2.31
284.04	12.22
284.256	10
284.471	0.61
284.687	-0.42
284.903	22.87
285.119	38.87
285.335	41.79
285.551	42.16
285.767	21.39
285.982	7.02
286.198	-30.76
286.414	6.4
286.63	18.59
286.846	36.83
287.061	24.78
287.277	46.75
287.493	18.58
287.709	18.17
287.924	4.12
288.14	22.71
288.356	7.18
288.571	29.1
288.787	22.4
289.003	25.28
289.218	24.07
289.434	6.93
289.65	5.91
289.865	6.25
290.081	13.66
290.296	-5.01
290.512	5.82
290.727	-12.35
290.943	-12.85
291.159	-7.88
291.374	4.47
291.59	-5.19
291.805	10.86
292.021	24.57
292.236	21.78
292.451	23.76
292.667	29.85
292.882	47.42
293.098	44.06
293.313	41.72
293.529	17.19
293.744	15.66
293.959	-4.59
294.175	-1.33
294.39	19.53
294.605	28.2
294.821	41.26
295.036	31.92
295.251	26.94
295.467	12.83
295.682	-0.62
295.897	-35.38
296.112	-36.66
296.328	-38.77
296.543	-47.02
296.758	-28.91
296.973	-14.72
297.188	20.83
297.404	5.78
297.619	-3.4
297.834	-24.62
298.049	-40.39
298.264	-49.58
298.479	1.45
298.694	10.19
298.909	38.78
299.125	52.1
299.34	59.57
299.555	36.92
299.77	34.58
299.985	-11.47
300.2	-59.39
300.415	-70.5
300.63	-55.86
300.845	-54.35
301.06	-55.16
301.275	-26.65
301.49	-19.06
301.704	-20.97
301.919	-26.32
302.134	-22.29
302.349	-11.41
302.564	-43.14
302.779	-42.67
302.994	25.71
303.209	44.21
303.423	43.73
303.638	60.36
303.853	46.21
304.068	23.29
304.283	21.94
304.497	20.19
304.712	23.35
304.927	26.89
305.142	20.6
305.356	37.58
305.571	27.63
305.786	1.61
306	-12.67
306.215	-15.61
306.43	-53.05
306.644	-46
306.859	9.42
307.074	23.89
307.288	20.87
307.503	33.62
307.717	37.34
307.932	16.62
308.147	10.63
308.361	18.18
308.576	-6.99
308.79	-58.23
309.005	-39.68
309.219	-35.45
309.434	-40.49
309.648	-25.44
309.863	-0.84
310.077	2.94
310.292	9.68
310.506	17.22
310.72	33.4
310.935	49.89
311.149	37.52
311.364	35.88
311.578	38.66
311.792	26.74
312.007	14.94
312.221	14.45
312.435	16.86
312.649	12.87
312.864	37.21
313.078	45.11
313.292	82.4
313.507	73.93
313.721	64.99
313.935	38.58
314.149	13.55
314.363	7.32
314.578	0.58
314.792	15.38
315.006	-5.52
315.22	20.37
315.434	13.45
315.648	24.58
315.862	17.64
316.077	30.6
316.291	28.11
316.505	35.54
316.719	23.94
316.933	16.54
317.147	4.53
317.361	-46.46
317.575	-73.23
317.789	-95.42
318.003	-157.96
318.217	-123.76
318.431	-45.46
318.645	2.84
318.859	13.71
319.073	22.58
319.287	17.46
319.5	-7.48
319.714	-20.29
319.928	-34.5
320.142	-31.48
320.356	4.98
320.57	45.93
320.784	36.27
320.997	32.92
321.211	20.28
321.425	-27.14
321.639	-46.85
321.853	-13.86
322.066	9.21
322.28	14.71
322.494	24.37
322.707	17.27
322.921	8.15
323.135	4.67
323.349	9.49
323.562	0.56
323.776	2.04
323.989	7.54
324.203	-14.93
324.417	-19.15
324.63	-25.56
324.844	-17.68
325.057	-17.24
325.271	0.32
325.485	7.26
325.698	26.51
325.912	34.16
326.125	25.92
326.339	13.72
326.552	-1.06
326.766	-1.04
326.979	14.65
327.193	21.08
327.406	19.16
327.619	18.16
327.833	32.04
328.046	4.58
328.26	-20.6
328.473	17.34
328.686	11.57
328.9	6.67
329.113	30.55
329.326	29.72
329.54	18.93
329.753	25.24
329.966	-2.42
330.179	-10.15
330.393	2.28
330.606	6.17
330.819	20.42
331.032	37.14
331.246	33.19
331.459	55.26
331.672	43.03
331.885	36.76
332.098	3.9
332.311	7.36
332.525	-26.64
332.738	-20.42
332.951	-7.49
333.164	31.54
333.377	38.38
333.59	44.67
333.803	49.9
334.016	47.37
334.229	23.59
334.442	26.94
334.655	51.67
334.868	52.53
335.081	42.17
335.294	63.14
335.507	47.82
335.72	20.53
335.933	5.58
336.146	1.08
336.359	-28.89
336.572	-48.68
336.785	-61.62
336.997	-60.58
337.21	-37.19
337.423	-16.97
337.636	-13.95
337.849	-3.73
338.062	-0.25
338.274	-19.33
338.487	-32.73
338.7	-26.24
338.913	-57.84
339.125	-72.32
339.338	-94.1
339.551	-75.87
339.763	-55.21
339.976	-10.31
340.189	9.72
340.402	11.14
340.614	-1.61
340.827	-6.29
341.039	-32.66
341.252	-25.92
341.465	0.89
341.677	-0.4
341.89	-18.32
342.102	1.85
342.315	-19.7
342.527	-61.45
342.74	-47.45
342.952	-20.87
343.165	-3.77
343.377	16.86
343.59	17.81
343.802	28.09
344.015	24.89
344.227	16.82
344.44	22.25
344.652	38.22
344.864	28.29
345.077	40.48
345.289	36.39
345.502	33.7
345.714	18.89
345.926	25.88
346.139	16.37
346.351	17.25
346.563	21.27
346.775	28.82
346.988	14.48
347.2	6.11
347.412	-27.88
347.624	-53.68
347.837	-83.47
348.049	-53.09
348.261	-20.37
348.473	4.22
348.685	16.32
348.897	19.15
349.11	-1.26
349.322	-24.98
349.534	-26.01
349.746	-14.53
349.958	12.6
350.17	32.6
350.382	50.14
350.594	56.82
350.806	65.89
351.018	48.35
351.23	45.93
351.442	13.52
351.654	12.29
351.866	-5.14
352.078	6.12
352.29	4.18
352.502	10.03
352.714	8.41
352.926	3.36
353.138	-1.41
353.35	-0.04
353.561	9.87
353.773	2.08
353.985	7.87
354.197	7.17
354.409	-6.9
354.621	-11.73
354.832	3.16
355.044	-8.5
355.256	-5.15
355.468	13.95
355.679	12.73
355.891	13.27
356.103	0.42
356.314	7.06
356.526	-1.51
356.738	-5.48
356.949	-17.45
357.161	18.6
357.373	9.94
357.584	10.28
357.796	26.76
358.008	21.21
358.219	21.86
358.431	25.17
358.642	25
358.854	19.12
359.065	5.8
359.277	-6.53
359.488	-10.95
359.7	-18.2
359.911	-38.13
360.123	-16.23
360.334	-18.86
360.546	-27.82
360.757	-27.34
360.969	-14.98
361.18	-7.29
361.391	-4.11
361.603	0.66
361.814	25.09
362.025	30.84
362.237	25.34
362.448	34.66
362.659	41.35
362.871	23.01
363.082	9.5
363.293	6.03
363.504	-14.26
363.716	-42.32
363.927	-54.17
364.138	-55.08
364.349	-46.41
364.56	-27.37
364.772	-4.63
364.983	15.17
365.194	17.11
365.405	19.61
365.616	35.08
365.827	22.39
366.038	4.02
366.25	1.9
366.461	-19.06
366.672	-13.55
366.883	6.39
367.094	14.21
367.305	0.69
367.516	9.8
367.727	-11.54
367.938	-18.85
368.149	-26.87
368.36	-1.28
368.571	2.82
368.781	-0.17
368.992	-10.84
369.203	-20.27
369.414	-44.22
369.625	-45.61
369.836	-42.99
370.047	-59.16
370.258	-39.65
370.468	-45.91
370.679	-63.25
370.89	-50.14
371.101	-30.35
371.312	-30.75
371.522	-6.12
371.733	-2.65
371.944	-2.05
372.155	-5.11
372.365	-12.73
372.576	-17.53
372.787	-13.68
372.997	-42.89
373.208	-34.7
373.419	-16.25
373.629	-36.89
373.84	-40.94
374.05	-35.16
374.261	-35.21
374.472	-33.35
374.682	4.8
374.893	11.7
375.103	39.75
375.314	40.14
375.524	34.09
375.735	25.38
375.945	29.42
376.156	10.92
376.366	9.93
376.577	14.35
376.787	13.79
376.997	18.2
377.208	18.21
377.418	13.67
377.629	11.67
377.839	13
378.049	5.11
378.26	18.55
378.47	23.22
378.68	14.76
378.89	13.12
379.101	26.7
379.311	3.23
379.521	-13.95
379.732	-1.47
379.942	-9.47
380.152	-34.1
380.362	-9.65
380.572	-5.48
380.783	-3.75
380.993	10.7
381.203	15.55
381.413	17.61
381.623	19.45
381.833	23.26
382.043	15.63
382.253	4.35
382.463	6.62
382.674	2.28
382.884	-8.97
383.094	-1.22
383.304	17.95
383.514	17.32
383.724	23.03
383.934	23.01
384.144	11.2
384.353	-11.32
384.563	-15.16
384.773	-9.73
384.983	-17.81
385.193	-1.5
385.403	8.35
385.613	9.69
385.823	3.35
386.033	11.94
386.242	2.44
386.452	-4.72
386.662	-7.81
386.872	-0.71
387.082	-9.32
387.291	-16.15
387.501	-16.7
387.711	-8.21
387.921	-9.4
388.13	-3.54
388.34	2
388.55	1.26
388.759	-0.99
388.969	3.27
389.179	-0.86
389.388	0.99
389.598	10.12
389.807	4.8
390.017	-0.97
390.227	4.83
390.436	2.22
390.646	-1.28
390.855	3.14
391.065	3.52
391.274	0.83
391.484	3.86
391.693	5.32
391.903	3.65
392.112	9.55
392.322	12.3
392.531	12.19
392.74	13
392.95	11.1
393.159	7.84
393.369	6.15
393.578	5.01
393.787	2.75
393.997	3.42
394.206	1.43
394.415	2.88
394.625	3.23
394.834	2.41
395.043	4.6
395.252	6.64
395.462	7.05
395.671	7.21
395.88	8.07
396.089	7.38
396.298	5.78
396.508	5.44
396.717	4.92
396.926	5.3
397.135	4.88
397.344	5.37
397.553	6.07
397.762	6.94
397.971	6.58
398.181	6.44
398.39	6.1
398.599	5.55
398.808	5.9
399.017	6.78
399.226	7.48
399.435	8.34
399.644	8.67
399.853	7.89
400.062	7.38
400.27	6.98
400.479	6.75
400.688	5.79
400.897	5.73
401.106	6.06
401.315	6.45
401.524	6.3
401.733	7.01
401.941	7.77
402.15	7.61
402.359	7.39
402.568	7.8
402.777	7.92
402.985	7.51
403.194	7.52
403.403	7.61
403.612	7.03
403.82	6.68
404.029	6.87
404.238	6.68
404.446	6.89
404.655	6.87
404.864	6.81
405.072	6.53
405.281	6.73
405.489	6.57
405.698	6.57
405.906	6.65
406.115	6.79
406.324	6.74
406.532	6.82
406.741	7.07
406.949	7.03
407.158	6.95
407.366	6.96
407.574	6.75
407.783	6.67
407.991	6.45
408.2	6.45
408.408	6.39
408.617	6.4
408.825	6.27
409.033	6.55
409.242	6.54
409.45	6.63
409.658	6.57
409.867	6.63
410.075	6.38
410.283	6.28
410.491	6.16
410.7	6.08
410.908	6.14
411.116	6.34
411.324	6.39
411.533	6.31
411.741	6.39
411.949	6.34
412.157	6.19
412.365	6.1
412.573	6.13
412.781	6.14
412.99	6.02
413.198	6.2
413.406	6.31
413.614	6.2
413.822	6.18
414.03	6.1
414.238	5.84
414.446	5.82
414.654	5.76
414.862	5.68
415.07	5.76
415.278	6.1
415.486	5.89
415.694	6.01
415.902	5.88
416.109	5.77
416.317	5.58
416.525	5.58
416.733	5.49
416.941	5.7
417.149	5.72
417.357	5.67
417.564	5.64
417.772	5.95
417.98	5.73
418.188	5.69
418.395	5.61
418.603	5.82
418.811	5.32
419.019	5.38
419.226	5.6
419.434	5.69
419.642	5.45
419.849	5.67
420.057	5.72
420.265	5.5
420.472	5.33
420.68	5.45
420.887	5.23
421.095	5.25
421.302	5.39
421.51	5.49
421.717	5.47
421.925	5.7
422.132	5.62
422.34	5.28
422.547	5.43
422.755	5.34
422.962	5.15
423.17	5.08
423.377	5.29
423.585	5.13
423.792	5.02
423.999	5.05
424.207	4.96
424.414	4.97
424.621	4.8
424.829	4.97
425.036	5.14
425.243	5.38
425.451	5.31
425.658	5.28
425.865	5.39
426.072	5.25
426.28	5.27
426.487	5.37
426.694	5.61
426.901	5.38
427.108	5.49
427.315	5.37
427.523	5.61
427.73	5.47
427.937	5.66
428.144	5.45
428.351	5.57
428.558	5.42
428.765	5.46
428.972	5.31
429.179	5.37
429.386	5.49
429.593	5.36
429.8	5.38
430.007	5.57
430.214	5.72
430.421	5.51
430.628	5.44
430.835	5.39
431.042	5.43
431.249	5.59
431.456	5.76
431.662	5.93
431.869	6.18
432.076	6.18
432.283	6.18
432.49	6.15
432.697	6.13
432.903	5.89
433.11	5.89
433.317	5.85
433.524	6.01
433.73	6.07
433.937	6.35
434.144	6.33
434.35	6.33
434.557	6.27
434.764	6.29
434.97	6.18
435.177	6.27
435.384	6.33
435.59	6.43
435.797	6.55
436.003	6.54
436.21	6.54
436.416	6.63
436.623	6.64
436.829	6.81
437.036	7.07
437.242	7.17
437.449	7.12
437.655	7.13
437.862	7.02
438.068	6.93
438.275	7.02
438.481	7.19
438.687	7.19
438.894	7.22
439.1	7.31
439.307	7.44
439.513	7.38
439.719	7.42
439.926	7.5
440.132	7.41
440.338	7.3
440.544	7.32
440.751	7.33
440.957	7.41
441.163	7.43
441.369	7.52
441.575	7.5
441.782	7.51
441.988	7.44
442.194	7.53
442.4	7.46
442.606	7.73
442.812	7.79
443.018	7.85
443.224	7.81
443.431	7.96
443.637	7.83
443.843	7.86
444.049	7.83
444.255	7.79
444.461	7.73
444.667	7.69
444.873	7.82
445.079	7.93
445.284	8.12
445.49	7.97
445.696	7.85
445.902	7.77
446.108	7.81
446.314	7.75
446.52	7.89
446.726	8.16
446.931	8.17
447.137	8.13
447.343	8.09
447.549	8.03
447.755	7.93
447.96	7.98
448.166	7.96
448.372	8.04
448.578	8.19
448.783	8.19
448.989	8.27
449.195	8.42
449.4	8.42
449.606	8.4
449.812	8.38
450.017	8.39
450.223	8.24
450.428	8.17
450.634	8.13
450.84	8.27
451.045	8.22
451.251	8.17
451.456	8.4
451.662	8.48
451.867	8.59
452.073	8.61
452.278	8.76
452.483	8.78
452.689	8.85
452.894	8.8
453.1	8.86
453.305	8.81
453.51	8.76
453.716	8.72
453.921	8.69
454.127	8.63
454.332	8.53
454.537	8.43
454.742	8.37
454.948	8.39
455.153	8.46
455.358	8.62
455.563	8.74
455.769	8.86
455.974	8.83
456.179	8.77
456.384	8.88
456.589	8.84
456.795	8.73
457	8.77
457.205	8.89
457.41	8.74
457.615	8.79
457.82	8.87
458.025	8.86
458.23	8.79
458.435	8.82
458.64	8.8
458.845	8.92
459.05	8.93
459.255	8.92
459.46	8.95
459.665	8.93
459.87	8.97
460.075	8.95
460.28	9.02
460.485	9.19
460.69	9.24
460.895	9.1
461.099	9.11
461.304	9.12
461.509	9.03
461.714	8.98
461.919	9.13
462.123	9.08
462.328	9.18
462.533	9.19
462.738	9.31
462.942	9.24
463.147	9.44
463.352	9.44
463.556	9.46
463.761	9.47
463.966	9.58
464.17	9.57
464.375	9.52
464.58	9.44
464.784	9.51
464.989	9.42
465.193	9.34
465.398	9.35
465.602	9.54
465.807	9.49
466.011	9.6
466.216	9.73
466.42	9.92
466.625	10.05
466.829	10.17
467.034	10.13
467.238	10.22
467.443	10.11
467.647	9.9
467.851	9.93
468.056	10.03
468.26	10.01
468.464	10.04
468.669	10.21
468.873	10.36
469.077	10.33
469.282	10.5
469.486	10.52
469.69	10.52
469.894	10.34
470.099	10.52
470.303	10.51
470.507	10.51
470.711	10.44
470.915	10.54
471.119	10.4
471.324	10.32
471.528	10.44
471.732	10.56
471.936	10.48
472.14	10.6
472.344	10.76
472.548	10.73
472.752	10.8
472.956	11.06
473.16	11.07
473.364	10.98
473.568	11
473.772	11.08
473.976	10.93
474.18	10.95
474.384	11.01
474.588	11.13
474.792	11.05
474.995	11.18
475.199	11.29
475.403	11.26
475.607	11.22
475.811	11.23
476.015	11.22
476.218	11.24
476.422	11.27
476.626	11.34
476.83	11.46
477.033	11.47
477.237	11.4
477.441	11.55
477.644	11.61
477.848	11.62
478.052	11.64
478.255	11.73
478.459	11.76
478.663	11.87
478.866	11.87
479.07	12
479.273	12.16
479.477	12.18
479.681	12.15
479.884	12.2
480.088	12.11
480.291	12.05
480.495	12.09
480.698	12.12
480.901	12.11
481.105	12.36
481.308	12.33
481.512	12.3
481.715	12.4
481.919	12.4
482.122	12.3
482.325	12.37
482.529	12.45
482.732	12.42
482.935	12.47
483.138	12.46
483.342	12.53
483.545	12.58
483.748	12.64
483.952	12.75
484.155	12.85
484.358	12.92
484.561	12.92
484.764	12.9
484.967	12.91
485.171	12.96
485.374	12.88
485.577	12.94
485.78	12.96
485.983	12.96
486.186	12.85
486.389	12.9
486.592	12.86
486.795	12.94
486.998	12.91
487.201	13.08
487.404	13.11
487.607	13.14
487.81	13.08
488.013	13.15
488.216	13.06
488.419	13.05
488.622	12.99
488.825	12.97
489.028	12.96
489.231	13
489.433	12.93
489.636	12.95
489.839	12.96
490.042	12.94
490.245	12.85
490.447	12.9
490.65	12.98
490.853	12.95
491.056	12.98
491.258	13.09
491.461	13.17
491.664	13.19
491.866	13.17
492.069	13.22
492.272	13.19
492.474	13.16
492.677	13.16
492.879	13.29
493.082	13.39
493.285	13.47
493.487	13.51
493.69	13.43
493.892	13.39
494.095	13.25
494.297	13.18
494.5	13.16
494.702	13.17
494.905	13.2
495.107	13.18
495.309	13.2
495.512	13.2
495.714	13.22
495.917	13.28
496.119	13.27
496.321	13.36
496.524	13.47
496.726	13.55
496.928	13.49
497.13	13.62
497.333	13.59
497.535	13.59
497.737	13.65
497.939	13.7
498.142	13.75
498.344	13.75
498.546	13.66
498.748	13.57
498.95	13.7
499.152	13.63
499.355	13.67
499.557	13.74
499.759	13.95
499.961	13.9
500.163	13.92
500.365	13.9
500.567	13.99
500.769	13.86
500.971	13.85
501.173	13.82
501.375	13.88
501.577	13.73
501.779	13.64
501.981	13.64
502.183	13.69
502.385	13.64
502.587	13.7
502.788	13.89
502.99	14
503.192	14.06
503.394	14.14
503.596	14.15
503.798	14.12
503.999	14.15
504.201	14.13
504.403	14.16
504.605	14.24
504.806	14.16
505.008	14.11
505.21	14.2
505.411	14.19
505.613	14.22
505.815	14.36
506.016	14.44
506.218	14.56
506.42	14.57
506.621	14.6
506.823	14.64
507.024	14.55
507.226	14.5
507.427	14.48
507.629	14.52
507.83	14.56
508.032	14.58
508.233	14.63
508.435	14.76
508.636	14.89
508.838	14.86
509.039	14.89
509.24	14.9
509.442	14.88
509.643	14.74
509.845	14.76
510.046	14.89
510.247	14.85
510.448	14.88
510.65	14.97
510.851	15.11
511.052	15.04
511.254	15.07
511.455	15.17
511.656	15.23
511.857	15.22
512.058	15.35
512.26	15.43
512.461	15.34
512.662	15.41
512.863	15.32
513.064	15.24
513.265	15.27
513.466	15.31
513.667	15.22
513.868	15.25
514.069	15.34
514.27	15.35
514.471	15.32
514.672	15.41
514.873	15.37
515.074	15.42
515.275	15.38
515.476	15.48
515.677	15.51
515.878	15.69
516.079	15.65
516.28	15.72
516.481	15.73
516.682	15.68
516.882	15.59
517.083	15.58
517.284	15.54
517.485	15.53
517.686	15.56
517.886	15.63
518.087	15.66
518.288	15.7
518.488	15.74
518.689	15.76
518.89	15.76
519.091	15.81
519.291	15.79
519.492	15.83
519.692	15.9
519.893	15.96
520.094	15.95
520.294	16.05
520.495	16
520.695	15.95
520.896	15.96
521.096	16.04
521.297	16.08
521.497	16.08
521.698	16.05
521.898	16.02
522.099	15.94
522.299	15.92
522.499	15.98
522.7	16.06
522.9	16.12
523.101	16.21
523.301	16.27
523.501	16.24
523.702	16.25
523.902	16.29
524.102	16.32
524.302	16.3
524.503	16.38
524.703	16.39
524.903	16.29
525.103	16.28
525.304	16.33
525.504	16.42
525.704	16.44
525.904	16.51
526.104	16.49
526.304	16.45
526.504	16.41
526.705	16.46
526.905	16.47
527.105	16.52
527.305	16.54
527.505	16.51
527.705	16.41
527.905	16.46
528.105	16.46
528.305	16.44
528.505	16.49
528.705	16.64
528.905	16.59
529.105	16.61
529.304	16.63
529.504	16.72
529.704	16.67
529.904	16.67
530.104	16.65
530.304	16.71
530.503	16.65
530.703	16.65
530.903	16.68
531.103	16.74
531.303	16.77
531.502	16.84
531.702	16.97
531.902	16.97
532.101	16.95
532.301	16.91
532.501	16.89
532.7	16.84
532.9	16.89
533.1	16.91
533.299	16.99
533.499	17.02
533.698	17.03
533.898	17.06
534.097	17.16
534.297	17.18
534.496	17.16
534.696	17.19
534.895	17.26
535.095	17.33
535.294	17.36
535.494	17.39
535.693	17.31
535.892	17.26
536.092	17.19
536.291	17.26
536.491	17.29
536.69	17.43
536.889	17.48
537.088	17.51
537.288	17.6
537.487	17.68
537.686	17.7
537.886	17.72
538.085	17.78
538.284	17.72
538.483	17.69
538.682	17.72
538.882	17.77
539.081	17.83
539.28	17.8
539.479	17.81
539.678	17.77
539.877	17.85
540.076	17.84
540.275	17.94
540.474	18
540.673	18.07
540.872	18.02
541.071	18.05
541.27	18.09
541.469	18.12
541.668	18.2
541.867	18.26
542.066	18.32
542.265	18.4
542.464	18.46
542.663	18.39
542.862	18.54
543.06	18.61
543.259	18.69
543.458	18.75
543.657	18.9
543.856	18.89
544.054	18.87
544.253	18.81
544.452	18.81
544.651	18.85
544.849	18.82
545.048	18.84
545.247	18.88
545.445	18.99
545.644	19.01
545.843	19.03
546.041	19.09
546.24	19.19
546.438	19.24
546.637	19.31
546.836	19.51
547.034	19.55
547.233	19.61
547.431	19.6
547.63	19.69
547.828	19.7
548.027	19.87
548.225	19.99
548.423	20.03
548.622	20.12
548.82	20.15
549.019	20.2
549.217	20.21
549.415	20.32
549.614	20.35
549.812	20.42
550.01	20.41
550.209	20.47
550.407	20.51
550.605	20.55
550.803	20.73
551.002	20.85
551.2	20.94
551.398	21.03
551.596	21.2
551.794	21.24
551.993	21.36
552.191	21.39
552.389	21.58
552.587	21.64
552.785	21.69
552.983	21.75
553.181	21.93
553.379	22
553.577	22.04
553.775	22.15
553.973	22.25
554.171	22.33
554.369	22.32
554.567	22.41
554.765	22.45
554.963	22.47
555.161	22.39
555.359	22.56
555.557	22.69
555.755	22.78
555.952	22.94
556.15	23.14
556.348	23.24
556.546	23.33
556.744	23.35
556.941	23.37
557.139	23.48
557.337	23.45
557.535	23.52
557.732	23.66
557.93	23.78
558.128	23.84
558.325	24.06
558.523	24.14
558.721	24.28
558.918	24.29
559.116	24.46
559.313	24.48
559.511	24.6
559.708	24.63
559.906	24.83
560.104	24.94
560.301	25.08
560.498	25.2
560.696	25.35
560.893	25.49
561.091	25.59
561.288	25.79
561.486	25.88
561.683	26.04
561.88	26.12
562.078	26.27
562.275	26.27
562.473	26.37
562.67	26.47
562.867	26.67
563.064	26.83
563.262	26.91
563.459	27.1
563.656	27.3
563.853	27.35
564.051	27.41
564.248	27.7
564.445	27.91
564.642	27.98
564.839	28.24
565.036	28.49
565.234	28.6
565.431	28.64
565.628	28.79
565.825	28.95
566.022	29.07
566.219	29.08
566.416	29.22
566.613	29.34
566.81	29.4
567.007	29.34
567.204	29.51
567.401	29.61
567.598	29.67
567.795	29.69
567.991	29.82
568.188	29.93
568.385	30.11
568.582	30.17
568.779	30.31
568.976	30.57
569.172	30.75
569.369	30.74
569.566	30.86
569.763	30.95
569.96	30.85
570.156	30.81
570.353	30.87
570.55	30.92
570.746	30.93
570.943	31.08
571.14	31.22
571.336	31.3
571.533	31.48
571.729	31.52
571.926	31.61
572.123	31.7
572.319	31.78
572.516	31.84
572.712	31.87
572.909	31.82
573.105	31.92
573.302	31.94
573.498	31.92
573.695	31.95
573.891	32.08
574.087	31.99
574.284	32.01
574.48	32.03
574.677	32.12
574.873	32.12
575.069	32.23
575.266	32.39
575.462	32.4
575.658	32.55
575.854	32.6
576.051	32.63
576.247	32.5
576.443	32.57
576.639	32.56
576.835	32.5
577.032	32.54
577.228	32.65
577.424	32.62
577.62	32.52
577.816	32.62
578.012	32.63
578.208	32.62
578.404	32.76
578.6	32.79
578.796	32.76
578.993	32.8
579.189	32.74
579.384	32.62
579.58	32.65
579.776	32.67
579.972	32.6
580.168	32.53
580.364	32.6
580.56	32.51
580.756	32.47
580.952	32.44
581.148	32.49
581.343	32.53
581.539	32.71
581.735	32.74
581.931	32.76
582.127	32.85
582.322	32.82
582.518	32.85
582.714	32.81
582.909	32.93
583.105	32.88
583.301	32.8
583.496	32.74
583.692	32.73
583.888	32.53
584.083	32.58
584.279	32.66
584.474	32.58
584.67	32.63
584.866	32.72
585.061	32.58
585.257	32.61
585.452	32.61
585.648	32.63
585.843	32.73
586.039	32.78
586.234	32.81
586.429	32.81
586.625	32.72
586.82	32.65
587.015	32.69
587.211	32.62
587.406	32.7
587.601	32.83
587.797	32.83
587.992	32.85
588.187	32.88
588.383	32.91
588.578	32.88
588.773	32.93
588.968	32.98
589.163	33.05
589.359	33.01
589.554	33.09
589.749	33.09
589.944	33.08
590.139	33.07
590.334	33.1
590.529	33.11
590.724	33.29
590.919	33.41
591.114	33.5
591.309	33.67
591.504	33.7
591.699	33.6
591.894	33.58
592.089	33.52
592.284	33.58
592.479	33.69
592.674	33.74
592.869	33.93
593.064	34.01
593.259	34.07
593.454	34.1
593.648	34.18
593.843	34.17
594.038	34.33
594.233	34.23
594.428	34.34
594.622	34.4
594.817	34.54
595.012	34.58
595.206	34.75
595.401	34.77
595.596	34.87
595.79	34.92
595.985	35.02
596.18	35.18
596.374	35.3
596.569	35.46
596.763	35.52
596.958	35.64
597.153	35.61
597.347	35.65
597.542	35.71
597.736	35.71
597.931	35.77
598.125	35.88
598.319	36.01
598.514	36.13
598.708	36.25
598.903	36.26
599.097	36.3
599.291	36.33
599.486	36.3
599.68	36.41
599.874	36.56
600.069	36.63
600.263	36.7
600.457	36.85
600.651	36.86
600.846	36.89
601.04	37
601.234	37.12
601.428	37.11
601.622	37.11
601.817	37.16
602.011	37.26
602.205	37.19
602.399	37.25
602.593	37.35
602.787	37.44
602.981	37.33
603.175	37.45
603.369	37.41
603.563	37.44
603.757	37.35
603.951	37.33
604.145	37.21
604.339	37.24
604.533	37.13
604.727	37.14
604.921	37.21
605.115	37.3
605.309	37.31
605.502	37.45
605.696	37.36
605.89	37.38
606.084	37.38
606.278	37.39
606.471	37.22
606.665	37.22
606.859	37.16
607.053	37.11
607.246	37.03
607.44	37.13
607.634	37.23
607.827	37.21
608.021	37.16
608.214	37.02
608.408	36.87
608.602	36.72
608.795	36.62
608.989	36.52
609.182	36.54
609.376	36.5
609.569	36.38
609.763	36.27
609.956	36.11
610.15	36.02
610.343	35.89
610.537	35.85
610.73	35.8
610.923	35.83
611.117	35.8
611.31	35.83
611.504	35.8
611.697	35.69
611.89	35.63
612.083	35.55
612.277	35.45
612.47	35.37
612.663	35.41
612.856	35.34
613.05	35.17
613.243	35.05
613.436	34.91
613.629	34.78
613.822	34.63
614.015	34.55
614.209	34.53
614.402	34.59
614.595	34.6
614.788	34.6
614.981	34.56
615.174	34.46
615.367	34.28
615.56	34.15
615.753	34.06
615.946	34.07
616.139	34.05
616.332	34.17
616.525	34.16
616.718	34.17
616.911	34.17
617.103	34.18
617.296	33.99
617.489	33.94
617.682	33.97
617.875	33.95
618.067	33.68
618.26	33.63
618.453	33.59
618.646	33.41
618.838	33.42
619.031	33.6
619.224	33.54
619.417	33.52
619.609	33.58
619.802	33.34
619.994	33.24
620.187	33.29
620.38	33.2
620.572	33.11
620.765	33.25
620.957	33.08
621.15	32.9
621.342	32.97
621.535	32.92
621.727	32.84
621.92	32.92
622.112	32.94
622.305	32.91
622.497	32.82
622.69	32.75
622.882	32.75
623.074	32.8
623.267	32.73
623.459	32.75
623.651	32.66
623.844	32.66
624.036	32.65
624.228	32.6
624.42	32.47
624.613	32.64
624.805	32.56
624.997	32.46
625.189	32.38
625.381	32.44
625.574	32.2
625.766	32.22
625.958	32.21
626.15	32.28
626.342	32.29
626.534	32.37
626.726	32.32
626.918	32.39
627.11	32.31
627.302	32.24
627.494	32.13
627.686	32.2
627.878	32
628.07	31.99
628.262	31.94
628.454	31.91
628.646	31.8
628.838	31.85
629.029	31.68
629.221	31.66
629.413	31.63
629.605	31.54
629.797	31.51
629.989	31.6
630.18	31.49
630.372	31.47
630.564	31.46
630.755	31.39
630.947	31.43
631.139	31.28
631.33	31.21
631.522	31.21
631.714	31.2
631.905	31.03
632.097	31.14
632.289	31.07
632.48	30.95
632.672	30.86
632.863	30.74
633.055	30.66
633.246	30.66
633.438	30.57
633.629	30.57
633.821	30.56
634.012	30.55
634.203	30.48
634.395	30.5
634.586	30.46
634.777	30.48
634.969	30.56
635.16	30.56
635.351	30.51
635.543	30.54
635.734	30.65
635.925	30.62
636.117	30.76
636.308	30.91
636.499	30.86
636.69	30.68
636.881	30.61
637.073	30.53
637.264	30.41
637.455	30.45
637.646	30.58
637.837	30.62
638.028	30.53
638.219	30.49
638.41	30.38
638.601	30.29
638.792	30.18
638.983	30.26
639.174	30.25
639.365	30.31
639.556	30.27
639.747	30.22
639.938	30.19
640.129	30.21
640.32	30.08
640.511	30.18
640.701	30.3
640.892	30.23
641.083	30.13
641.274	30.27
641.465	30.18
641.655	30.1
641.846	30.14
642.037	30.22
642.228	30.06
642.418	30.08
642.609	30.13
642.8	30.01
642.99	29.94
643.181	30.09
643.372	30.03
643.562	29.92
643.753	29.95
643.943	29.89
644.134	29.71
644.324	29.56
644.515	29.52
644.705	29.55
644.896	29.59
645.086	29.57
645.277	29.65
645.467	29.58
645.658	29.47
645.848	29.41
646.038	29.36
646.229	29.36
646.419	29.37
646.61	29.37
646.8	29.32
646.99	29.31
647.18	29.24
647.371	29.18
647.561	29.14
647.751	29.17
647.941	29.14
648.132	29.15
648.322	29.2
648.512	29.21
648.702	29.15
648.892	29.16
649.082	29.1
649.272	28.94
649.462	28.84
649.653	28.88
649.843	28.78
650.033	28.81
650.223	28.85
650.413	28.76
650.603	28.65
650.793	28.7
650.983	28.51
651.172	28.59
651.362	28.62
651.552	28.49
651.742	28.34
651.932	28.44
652.122	28.34
652.312	28.32
652.502	28.33
652.691	28.41
652.881	28.3
653.071	28.1
653.261	27.93
653.45	27.79
653.64	27.69
653.83	27.46
654.019	27.36
654.209	27.31
654.399	27.26
654.588	27.02
654.778	26.91
654.968	26.81
655.157	26.69
655.347	26.55
655.536	26.52
655.726	26.47
655.915	26.29
656.105	26.13
656.294	26.04
656.484	25.84
656.673	25.7
656.863	25.62
657.052	25.37
657.241	25.07
657.431	24.74
657.62	24.5
657.809	24.16
657.999	24.07
658.188	23.73
658.377	23.54
658.567	23.34
658.756	23.13
658.945	22.92
659.134	22.85
659.324	22.68
659.513	22.44
659.702	22.27
659.891	22.09
660.08	21.88
660.269	21.81
660.458	21.57
660.648	21.41
660.837	21.14
661.026	20.95
661.215	20.72
661.404	20.51
661.593	20.36
661.782	20.15
661.971	19.99
662.16	19.74
662.349	19.65
662.538	19.41
662.726	19.33
662.915	19.13
663.104	18.95
663.293	18.82
663.482	18.76
663.671	18.61
663.86	18.43
664.048	18.3
664.237	18.11
664.426	17.82
664.615	17.6
664.803	17.46
664.992	17.25
665.181	17.02
665.369	16.9
665.558	16.77
665.747	16.61
665.935	16.58
666.124	16.6
666.312	16.55
666.501	16.59
666.69	16.6
666.878	16.5
667.067	16.33
667.255	16.28
667.444	16.17
667.632	16.12
667.82	16.08
668.009	16.09
668.197	16.01
668.386	15.86
668.574	15.87
668.762	15.7
668.951	15.64
669.139	15.56
669.327	15.45
669.516	15.36
669.704	15.31
669.892	15.3
670.08	15.37
670.269	15.32
670.457	15.2
670.645	15.1
670.833	15.2
671.021	15.08
671.21	15.19
671.398	15.43
671.586	15.57
671.774	15.37
671.962	15.45
672.15	15.5
672.338	15.37
672.526	15.43
672.714	15.41
672.902	15.38
673.09	15.39
673.278	15.58
673.466	15.62
673.654	15.85
673.842	15.87
674.03	15.93
674.218	15.77
674.405	15.85
674.593	15.82
674.781	15.83
674.969	15.88
675.157	16.11
675.344	16.23
675.532	16.26
675.72	16.42
675.908	16.5
676.095	16.47
676.283	16.53
676.471	16.69
676.658	16.81
676.846	16.86
677.033	17
677.221	16.93
677.409	16.9
677.596	17
677.784	17.15
677.971	17.29
678.159	17.44
678.346	17.63
678.534	17.8
678.721	18.01
678.909	18.05
679.096	18.23
679.283	18.32
679.471	18.39
679.658	18.5
679.846	18.72
680.033	18.97
680.22	19.13
680.408	19.3
680.595	19.25
680.782	19.22
680.969	19.46
681.157	19.64
681.344	19.85
681.531	20.09
681.718	20.3
681.905	20.41
682.093	20.74
682.28	20.86
682.467	21.21
682.654	21.42
682.841	21.49
683.028	21.66
683.215	22.05
683.402	22.27
683.589	22.52
683.776	22.94
683.963	23.19
684.15	23.42
684.337	23.81
684.524	24.16
684.711	24.44
684.898	24.68
685.085	25.07
685.271	25.38
685.458	25.72
685.645	26.03
685.832	26.54
686.019	27
686.205	27.21
686.392	27.71
686.579	28.19
686.766	28.68
686.952	28.97
687.139	29.73
687.326	30.08
687.512	30.48
687.699	30.88
687.886	31.27
688.072	31.54
688.259	32.15
688.445	32.78
688.632	33.18
688.818	33.9
689.005	34.51
689.191	35
689.378	35.77
689.564	36.46
689.751	36.93
689.937	37.46
690.124	38.06
690.31	38.17
690.496	38.64
690.683	39.37
690.869	40.05
691.055	40.52
691.242	41.35
691.428	42.2
691.614	43.04
691.8	43.75
691.987	44.56
692.173	45.2
692.359	45.72
692.545	46.17
692.731	46.77
692.918	47.38
693.104	48.22
693.29	48.87
693.476	49.52
693.662	50.06
693.848	50.62
694.034	50.99
694.22	51.35
694.406	52.02
694.592	52.52
694.778	53.36
694.964	53.82
695.15	54.55
695.336	54.74
695.522	55.82
695.708	56.16
695.894	56.87
696.08	57.44
696.265	58.09
696.451	58.27
696.637	58.91
696.823	59.46
697.009	59.99
697.194	60.61
697.38	60.92
697.566	61.47
697.751	62.01
697.937	62.86
698.123	63.23
698.308	63.99
698.494	64.64
698.68	64.8
698.865	65.06
699.051	65.73
699.236	66.08
699.422	66.44
699.607	67.14
699.793	67.46
699.978	67.66
700.164	68
700.349	68.31
700.535	68.53
700.72	68.94
700.906	69.7
701.091	69.86
701.276	70.01
701.462	70.82
701.647	71.11
701.832	71.22
702.018	71.76
702.203	71.85
702.388	71.44
702.573	71.9
702.759	72.53
702.944	72.93
703.129	73.4
703.314	74.05
703.499	74.04
703.684	73.73
703.87	74.2
704.055	74.73
704.24	75.02
704.425	75.5
704.61	76.06
704.795	76.13
704.98	76.33
705.165	76.55
705.35	76.61
705.535	76.76
705.72	76.94
705.905	77.01
706.09	77.46
706.275	77.7
706.459	77.64
706.644	77.63
706.829	77.88
707.014	77.49
707.199	77.92
707.384	78.21
707.568	78.11
707.753	78.74
707.938	78.96
708.123	78.89
708.307	78.74
708.492	79.17
708.677	78.89
708.861	78.85
709.046	78.69
709.231	79.34
709.415	79.67
709.6	79.62
709.784	79.88
709.969	80.09
710.153	80.03
710.338	79.89
710.522	80.1
710.707	80.37
710.891	80.55
711.076	80.57
711.26	80.57
711.445	80.97
711.629	81.21
711.813	81.5
711.998	81.8
712.182	81.82
712.366	81.86
712.551	82.48
712.735	82.72
712.919	82.38
713.103	82.51
713.288	82.15
713.472	81.49
713.656	81.55
713.84	81.55
714.024	82.2
714.208	82.05
714.393	82.73
714.577	82.55
714.761	82.92
714.945	82.41
715.129	83.04
715.313	82.63
715.497	82.74
715.681	82.89
715.865	83.26
716.049	83.31
716.233	82.81
716.417	82.84
716.601	82.79
716.785	82.7
716.968	82.6
717.152	83.32
717.336	83.56
717.52	83.6
717.704	83.75
717.888	84.11
718.071	84.25
718.255	84.54
718.439	84.64
718.622	84.95
718.806	85.11
718.99	85.08
719.174	84.12
719.357	84.33
719.541	84.14
719.724	83.91
719.908	84.51
720.092	85.4
720.275	85.47
720.459	85.49
720.642	85.16
720.826	84.43
721.009	84.38
721.193	84.18
721.376	84.27
721.559	84.38
721.743	84.93
721.926	85.38
722.11	85.61
722.293	85.5
722.476	85.94
722.66	85.92
722.843	85.69
723.026	85.13
723.21	85.53
723.393	85.91
723.576	85.55
723.759	85.06
723.942	85.72
724.126	85.47
724.309	85.19
724.492	85.33
724.675	85.27
724.858	85.52
725.041	85.65
725.224	85.51
725.407	86.09
725.59	86.74
725.774	86.45
725.957	86.12
726.14	86.17
726.322	85.73
726.505	85.5
726.688	86.09
726.871	86.72
727.054	87.25
727.237	87.4
727.42	87.72
727.603	87.36
727.786	87.07
727.968	87.09
728.151	87.63
728.334	87.55
728.517	87.8
728.699	88.39
728.882	88.1
729.065	88.31
729.248	88.71
729.43	89.26
729.613	89.66
729.796	90.26
729.978	89.34
730.161	89.35
730.343	88.55
730.526	88.75
730.708	88.39
730.891	88.76
731.073	88.39
731.256	88.62
731.438	88.26
731.621	88.85
731.803	89.29
731.986	89.5
732.168	88.88
732.35	89.44
732.533	89.22
732.715	89.32
732.898	89.84
733.08	90.41
733.262	89.96
733.444	89.66
733.627	89.72
733.809	89.89
733.991	90.51
734.173	90.03
734.355	90.06
734.538	90.52
734.72	90.73
734.902	91.18
735.084	92.01
735.266	92.07
735.448	92.39
735.63	92.02
735.812	91.89
735.994	92.5
736.176	92.55
736.358	92.18
736.54	92.96
736.722	92.13
736.904	91.08
737.086	91.25
737.268	92.12
737.45	91.58
737.632	91.91
737.814	91.58
737.995	91.45
738.177	90.93
738.359	90.03
738.541	90.48
738.723	91.66
738.904	92.1
739.086	92.08
739.268	92.87
739.449	92.93
739.631	91.58
739.813	92.09
739.994	91.58
740.176	91.95
740.358	91.87
740.539	93.21
740.721	92.87
740.902	92.79
741.084	92.67
741.265	92.57
741.447	92.48
741.628	92.97
741.81	93.16
741.991	93.71
742.172	93.86
742.354	94.57
742.535	94.17
742.717	94.51
742.898	94.48
743.079	94.84
743.261	93.45
743.442	92.4
743.623	92.47
743.804	92.55
743.986	93.34
744.167	93.4
744.348	94.68
744.529	94.27
744.71	93.14
744.891	92.3
745.073	92.56
745.254	91.63
745.435	91.93
745.616	92.11
745.797	92.04
745.978	91.56
746.159	91.94
746.34	91.53
746.521	92.75
746.702	91.23
746.883	90.87
747.064	91.22
747.245	92.17
747.426	91.04
747.606	92.4
747.787	93.8
747.968	93.77
748.149	92.8
748.33	93.98
748.51	94.33
748.691	93.3
748.872	93.86
749.053	93.61
749.233	92.21
749.414	91.48
749.595	91.12
749.775	90.49
749.956	90.37
750.137	90.35
750.317	91.29
750.498	93.45
750.678	93.19
750.859	94.04
751.04	94.75
751.22	93.13
751.4	91.24
751.581	89.96
751.761	90.35
751.942	89.97
752.122	90.48
752.303	91.15
752.483	92.05
752.663	90.54
752.844	90.25
753.024	91.2
753.204	91.43
753.385	91.21
753.565	91.72
753.745	91.46
753.925	90.85
754.106	89.86
754.286	90.98
754.466	90.79
754.646	91.06
754.826	90.61
755.006	89.93
755.187	89.51
755.367	90.07
755.547	90.05
755.727	91.37
755.907	91.68
756.087	91.68
756.267	90.7
756.447	91.17
756.627	89.09
756.807	89.99
756.987	89.3
757.167	89.54
757.346	89.49
757.526	89.2
757.706	88.49
757.886	89.21
758.066	90.77
758.246	92.62
758.425	93.35
758.605	94.09
758.785	93.86
758.965	93.74
759.144	90.87
759.324	91.57
759.504	92.28
759.683	92.66
759.863	90.73
760.043	89.41
760.222	87.79
760.402	86.26
760.581	85.31
760.761	85.72
760.94	86.42
761.12	88.48
761.299	89.11
761.479	89.96
761.658	90.12
761.838	91.37
762.017	91.29
762.197	91.37
762.376	91.06
762.555	91.44
762.735	92.68
762.914	89.97
763.093	90.12
763.273	89.63
763.452	89.39
763.631	88.07
763.81	89.37
763.99	88.8
764.169	89.03
764.348	86.75
764.527	85.77
764.706	86.28
764.885	87.68
765.064	85.21
765.243	87.8
765.423	88.78
765.602	89.33
765.781	86.86
765.96	87.43
766.139	85.65
766.318	85.09
766.497	83.14
766.676	83.93
766.854	85.41
767.033	86.85
767.212	86.61
767.391	89.11
767.57	90.59
767.749	91.44
767.928	91.56
768.106	91.09
768.285	88.04
768.464	87.29
768.643	85.61
768.821	84.69
769	86.16
769.179	88.26
769.357	86.77
769.536	87.08
769.715	87.44
769.893	88.67
770.072	88.16
770.25	90.31
770.429	90.81
770.607	90.62
770.786	90
770.964	89.76
771.143	87.83
771.321	89.3
771.5	91.11
771.678	89.87
771.857	90.5
772.035	90.01
772.213	88.2
772.392	85.48
772.57	86.82
772.748	86.21
772.927	85.57
773.105	85.22
773.283	86.13
773.461	85.9
773.64	87.47
773.818	90.74
773.996	91.04
774.174	91.73
774.352	88.59
774.531	84.83
774.709	84.18
774.887	83.08
775.065	81.82
775.243	83.87
775.421	84.71
775.599	84.64
775.777	83.9
775.955	82.35
776.133	80.75
776.311	82.74
776.489	81.05
776.667	83.31
776.844	85.14
777.022	86.51
777.2	85.41
777.378	85.31
777.556	83.45
777.734	85.64
777.911	88.11
778.089	86.22
778.267	87.63
778.445	86.43
778.622	85.09
778.8	83.47
778.978	85.24
779.155	83.97
779.333	84.51
779.511	84.86
779.688	86.36
779.866	82.89
780.043	82.04
780.221	83.02
780.398	79.31
780.576	77.36
780.753	80.97
780.931	79.25
781.108	80.36
781.286	84.46
781.463	83.67
781.64	80.18
781.818	83.96
781.995	83.64
782.172	79.36
782.35	79.36
782.527	83.61
782.704	82.51
782.882	83.67
783.059	85.35
783.236	87.82
783.413	88.73
783.59	88.85
783.768	86.17
783.945	89
784.122	85.02
784.299	85.18
784.476	83.59
784.653	81.87
784.83	80.01
785.007	80.34
785.184	77.76
785.361	77.02
785.538	81.02
785.715	81.63
785.892	79.87
786.069	81.62
786.246	83.5
786.423	82.56
786.6	80.47
786.776	85.15
786.953	83.2
787.13	85.44
787.307	84.44
787.484	83.5
787.66	79.97
787.837	81.27
788.014	75.98
788.191	73.88
788.367	72.19
788.544	77.34
788.721	73.61
788.897	79.54
789.074	81.87
789.25	81.46
789.427	78.78
789.603	80.71
789.78	78.41
789.956	76.69
790.133	81.26
790.309	81.08
790.486	83.37
790.662	82.89
790.839	82.74
791.015	79.03
791.192	76.65
791.368	78.11
791.544	76.17
791.721	80.08
791.897	81.77
792.073	83.35
792.249	76.86
792.426	76.11
792.602	76.21
792.778	79.8
792.954	77.51
793.13	78.49
793.307	74.19
793.483	68.56
793.659	68.13
793.835	74.86
794.011	75.24
794.187	81.9
794.363	76.92
794.539	75.44
794.715	65.41
794.891	65.2
795.067	66.29
795.243	74.09
795.419	69.02
795.595	72.49
795.771	73.48
795.947	76.92
796.122	75.17
796.298	80.16
796.474	80.88
796.65	78.59
796.826	74.71
797.001	74.11
797.177	75.67
797.353	77.19
797.529	77.54
797.704	75.44
797.88	72.46
798.056	64.63
798.231	60.17
798.407	62.43
798.582	62.3
798.758	70.8
798.934	81.38
799.109	81.37
799.285	80.23
799.46	81.85
799.636	77.98
799.811	69.75
799.986	70.97
800.162	78.44
800.337	81.33
800.513	79.14
800.688	82.39
800.863	91.23
801.039	81.44
801.214	75.78
801.389	80.62
801.565	80.45
801.74	66.01
801.915	72.88
802.09	77.87
802.265	77.58
802.441	75.94
802.616	82.31
802.791	82.42
802.966	80.76
803.141	81.82
803.316	79.15
803.491	82.96
803.666	84.35
803.841	83.25
804.016	80.33
804.191	77.58
804.366	70.52
804.541	65.04
804.716	61.45
804.891	57.66
805.066	65.52
805.241	63.97
805.416	58.4
805.591	58.61
805.765	61.27
805.94	64.48
806.115	65.67
806.29	69.03
806.464	70.14
806.639	72.38
806.814	65.68
806.989	66.78
807.163	74.72
807.338	81.41
807.512	76.31
807.687	66.9
807.862	69.43
808.036	67.48
808.211	70.02
808.385	78.52
808.56	88.12
808.734	92.97
808.909	94.83
809.083	88.7
809.258	86.35
809.432	85.28
809.606	76.16
809.781	75.6
809.955	74.81
810.13	70.7
810.304	67.9
810.478	61.72
810.652	70.77
810.827	68.87
811.001	67.3
811.175	67.76
811.349	68.94
811.524	54.74
811.698	48.85
811.872	48.24
812.046	51.77
812.22	63
812.394	63.27
812.568	70.77
812.742	74.15
812.916	70.19
813.09	63.7
813.264	64.76
813.438	70.43
813.612	68.47
813.786	63.52
813.96	70.62
814.134	74.23
814.308	74.99
814.482	74.54
814.656	73.19
814.83	76.31
815.003	73.11
815.177	59.7
815.351	58.29
815.525	60.94
815.698	50.41
815.872	45.42
816.046	43.97
816.219	44.32
816.393	54.73
816.567	58.62
816.74	66.62
816.914	80.74
817.088	88.54
817.261	79.8
817.435	73.08
817.608	73.98
817.782	58.09
817.955	52.88
818.129	53.92
818.302	55.42
818.475	51.54
818.649	55.37
818.822	52.14
818.996	63.58
819.169	65.56
819.342	54.39
819.516	63.1
819.689	76.07
819.862	62.33
820.035	60.44
820.209	66.43
820.382	57.99
820.555	54.7
820.728	43.85
820.901	48.09
821.075	54.12
821.248	59
821.421	50.26
821.594	64.18
821.767	69.74
821.94	81.49
822.113	59.23
822.286	53.43
822.459	57.26
822.632	44.25
822.805	24.4
822.978	41.35
823.151	51.16
823.324	43.87
823.496	39.34
823.669	41.64
823.842	46.14
824.015	33.81
824.188	42.19
824.361	47.28
824.533	41.16
824.706	32.12
824.879	33.85
825.051	33.35
825.224	29.1
825.397	22.08
825.569	25.57
825.742	50.76
825.915	64.89
826.087	72.27
826.26	56.18
826.432	61.2
826.605	43.57
826.777	23.14
826.95	25.99
827.122	22.46
827.295	15.99
827.467	27.74
827.64	21.02
827.812	23.3
827.984	34.74
828.157	30.94
828.329	2.35
828.501	18.83
828.674	47.51
828.846	51
829.018	81.1
829.19	86.55
829.363	90.69
829.535	84.14
829.707	77.94
829.879	37.57
830.051	19.91
830.223	19.53
830.395	-8.72
830.568	-5.24
830.74	1.57
830.912	29.16
831.084	15.54
831.256	26.64
831.428	22.97
831.6	26.18
831.772	12.09
831.943	-4.05
832.115	-6.51
832.287	22.53
832.459	31.47
832.631	42.89
832.803	70.4
832.975	104.3
833.146	86.38
833.318	86.91
833.49	102.22
833.662	72.28
833.833	36.79
834.005	27.95
834.177	30.64
834.348	13.9
834.52	15.75
834.692	28
834.863	20.66
835.035	28.1
835.206	-11.34
835.378	4.36
835.549	8.15
835.721	26.64
835.892	1.5
836.064	17.77
836.235	15.68
836.407	36.78
836.578	18.15
836.749	42.15
836.921	51.2
837.092	16.1
837.264	1.5
837.435	3.89
837.606	33.41
837.777	39.22
837.949	45.33
838.12	34.81
838.291	32.42
838.462	13.44
838.633	2.9
838.805	23.36
838.976	34.01
839.147	30.66
839.318	8.2
839.489	-35.09
839.66	-29.87
839.831	11.72
840.002	0.43
840.173	-24.08
840.344	39.94
840.515	-31.86
840.686	-190.2
840.857	-89.96
841.028	-12.05
841.199	-35.64
841.369	-7.46
841.54	-0.65
841.711	18.84
841.882	47.91
842.053	57.45
842.223	41.7
842.394	52.45
842.565	52.48
842.736	45.47
842.906	41.84
843.077	49.97
843.248	85.63
843.418	86.65
843.589	50.7
843.759	121.35
843.93	103.15
844.101	38.74
844.271	33.77
844.442	43.64
844.612	39.15
844.783	26.03
844.953	-3.98
845.123	-27.09
845.294	-69.57
845.464	-200.9
845.635	-61.33
845.805	-2.25
845.975	28.33
846.146	6.79
846.316	-16.27
846.486	7.29
846.656	35.02
846.827	30.62
846.997	53.46
847.167	72.33
847.337	36.32
847.507	29.69
847.677	34.2
847.848	50.06
848.018	70.97
848.188	70.93
848.358	54.88
848.528	50.06
848.698	46.01
848.868	-13.79
849.038	-55.67
849.208	24.01
849.378	48.01
849.548	35.47
849.718	40.97
849.887	64.32
850.057	33.36
850.227	23.07
850.397	8.2
850.567	-53.83
850.737	-257.39
850.906	-680
851.076	-375.78
851.246	-129.32
851.415	19.12
851.585	27.95
851.755	15.5
851.924	20.5
852.094	-30.36
852.264	-44.69
852.433	-629.81
852.603	-105.69
852.772	-77.13
852.942	48.57
853.111	9.66
853.281	36.07
853.45	63.59
853.62	20.89
853.789	-23.34
853.959	4.96
854.128	-23.89
854.297	-63.29
854.467	-92.86
854.636	-65.69
854.805	-26.18
854.975	-38.53
855.144	17.81
855.313	324.48
855.482	29.93
855.652	-16.2
855.821	100
855.99	56.82
856.159	35.47
856.328	35.87
856.497	27.47
856.667	23.6
856.836	15.22
857.005	1.06
857.174	-17.66
857.343	-16.4
857.512	-5.82
857.681	-5.67
857.85	-35.69
858.019	-6.24
858.188	16.11
858.356	-6.42
858.525	-33.02
858.694	-14.37
858.863	-47.18
859.032	-31.31
859.201	-49.25
859.369	-30.1
859.538	13.83
859.707	16
859.876	-22.75
860.044	-11.87
860.213	27.91
860.382	18.98
860.55	32.91
860.719	66.49
860.888	83.89
861.056	67.99
861.225	70.58
861.393	103.91
861.562	117.21
861.73	60.16
861.899	189.53
862.067	286.21
862.236	16.11
862.404	-199.14
862.572	-116.6
862.741	-36.49
862.909	-22.49
863.078	-85.45
863.246	18
863.414	26.02
863.582	-1.72
863.751	-11.18
863.919	-15.05
864.087	2.63
864.255	25.11
864.424	-66.14
864.592	44.11
864.76	30.57
864.928	11.2
865.096	-111.15
865.264	-69
865.432	-915.91
865.6	-21.5
865.768	-38.09
865.936	-12.8
866.104	13.81
866.272	-17.19
866.44	-97.24
866.608	404.89
866.776	175.2
866.944	2269.77
867.112	-432.63
867.28	-180.7
867.448	-68.47
867.615	-37.45
867.783	-6.08
867.951	-10.88
868.119	6.02
868.286	18.39
868.454	-92.33
868.622	-76.13
868.789	-82.71
868.957	-3221.43
869.125	-1857.89
869.292	-50.37
869.46	-80
869.627	10.26
869.795	17.26
869.963	15.39
870.13	18.25
870.298	49.55
870.465	5.68
870.632	-19.14
870.8	10.57
870.967	-18.7
871.135	-131.29
871.302	-119.97
871.469	-158.85
871.637	-268.33
871.804	-112.2
871.971	-131.23
872.139	-427.44
872.306	-18.42
872.473	-15.45
872.64	-167.81
872.807	-24.68
872.975	68.9
873.142	-36.36
873.309	513.51
873.476	105.6
873.643	171.15
873.81	107.71
873.977	117.57
874.144	72.21
874.311	-54.59
874.478	-73.9
874.645	-51.04
874.812	-23.01
874.979	17.99
875.146	37.47
875.313	-20.16
875.48	15.07
875.647	-1.37
875.813	-13.9
875.98	2.58
876.147	7.44
876.314	-56.48
876.481	580.99
876.647	-708.99
876.814	316.06
876.981	38.85
877.147	64.89
877.314	77.65
877.481	96.28
877.647	87.79
877.814	77.87
877.98	94.8
878.147	78.21
878.314	95.86
878.48	87.23
878.647	90.19
878.813	83.95
878.979	66.84
879.146	31.37
879.312	29.84
879.479	-25.08
879.645	-83.83
879.811	-108.2
879.978	-406.11
880.144	-96.35
880.31	6.4
880.477	-57.75
880.643	-144.01
880.809	6.13
880.975	2.7
881.142	-390.91
881.308	-37.11
881.474	10.97
881.64	30.1
881.806	2.55
881.972	38.53
882.138	32.22
882.304	-12.39
882.47	-118.83
882.636	-433.61
882.802	-195.22
882.968	-34.63
883.134	3.54
883.3	-10.9
883.466	14.09
883.632	39.73
883.798	12.73
883.964	-14.87
884.129	-0.88
884.295	6.11
884.461	-26.47
884.627	-33.09
884.793	-15.66
884.958	2.25
885.124	-30.1
885.29	-59.84
885.455	41.75
885.621	53.04
885.787	28.28
885.952	6.76
886.118	2.09
886.283	-5.73
886.449	-50
886.614	-71.43
886.78	-115.77
886.945	483.61
887.111	-394.22
887.276	-387.5
887.442	-767.27
887.607	-333.02
887.773	-217.2
887.938	-160.84
888.103	-115.48
888.269	-47.29
888.434	-203.24
888.599	-59.24
888.764	18.55
888.93	-0.13
889.095	-6.08
889.26	-6.35
889.425	-11.21
889.59	-11.68
889.756	-17.32
889.921	13.43
890.086	38.09
890.251	55.08
890.416	4.58
890.581	-350
890.746	101.07
890.911	197.45
891.076	123.68
891.241	-238.06
891.406	26.53
891.571	13.98
891.736	-95.41
891.901	-141.59
892.065	100
892.23	79.93
892.395	81.21
892.56	122.54
892.725	25
892.889	-470.73
893.054	-68.45
893.219	-46.29
893.384	-14.38
893.548	-62.31
893.713	-60.31
893.878	-34.58
