Data from Ofra_PS_T2_2A_6CX18_Reflection_1.txt Node
Date: Wed Jul 21 17:15:21 EDT 2021
User: Adam
Spectrometer: FLMT01687
Trigger mode: 0
Integration Time (sec): 1.100000E0
Scans to average: 2
Electric dark correction enabled: true
Nonlinearity correction enabled: false
Boxcar width: 2
XAxis mode: Wavelengths
Number of Pixels in Spectrum: 3648
>>>>>Begin Spectral Data<<<<<
179.494	522.2
179.716	621.41
179.937	613.26
180.158	634.44
180.38	1106.09
180.601	598.2
180.823	227.05
181.044	127.84
181.265	330.7
181.486	84.38
181.708	79.62
181.929	-98.47
182.15	173.59
182.372	235.22
182.593	121.34
182.814	101.25
183.035	124.74
183.257	98.44
183.478	100.27
183.699	137.59
183.92	68.83
184.141	78.43
184.363	71.38
184.584	69.85
184.805	69.64
185.026	85.85
185.247	72.61
185.468	44.05
185.689	39.49
185.91	27.09
186.132	46.35
186.353	43.95
186.574	100.14
186.795	95.45
187.016	53.66
187.237	-3.9
187.458	-30.5
187.679	-58.91
187.9	-57.54
188.121	-49.75
188.342	-4.02
188.563	30.24
188.784	80.05
189.005	88.62
189.226	170.62
189.447	128
189.667	135.56
189.888	-186.08
190.109	-887.99
190.33	-611.45
190.551	-1122.79
190.772	-224.39
190.993	-196.12
191.214	-137.5
191.434	-74.96
191.655	12.55
191.876	-35.12
192.097	-38.24
192.318	-124.74
192.538	-209.31
192.759	-166.09
192.98	-86.57
193.201	-46.2
193.421	-14.68
193.642	14.53
193.863	31.24
194.083	23.03
194.304	28.19
194.525	36.22
194.745	24.4
194.966	0.63
195.187	19.77
195.407	-5.05
195.628	-42.5
195.848	-46.67
196.069	-72.41
196.29	-66.72
196.51	-67.05
196.731	-59.79
196.951	-78.17
197.172	-71.12
197.392	-109.96
197.613	-104.63
197.833	-134.57
198.054	-112.85
198.274	-59.84
198.495	-64.18
198.715	-30.9
198.936	-42.16
199.156	-23.2
199.377	-112.23
199.597	-109.25
199.817	-132.54
200.038	-55.58
200.258	-115.99
200.479	-31.74
200.699	-27.52
200.919	5.83
201.14	-41.2
201.36	-54.86
201.58	8.79
201.801	29.03
202.021	7.61
202.241	8.24
202.461	5.03
202.682	-111.45
202.902	-148.37
203.122	-82.19
203.342	-49.57
203.563	-0.93
203.783	39.47
204.003	13.03
204.223	19.22
204.443	61.18
204.663	47.64
204.884	41.06
205.104	77
205.324	105.5
205.544	89.99
205.764	107.41
205.984	102.41
206.204	107.99
206.424	85.68
206.644	76.29
206.864	71.85
207.084	29.41
207.304	14.07
207.525	-96.48
207.745	-39.35
207.964	-24.07
208.184	-33.03
208.404	-84.9
208.624	-77.3
208.844	-77.44
209.064	-362.85
209.284	-397.09
209.504	-203.71
209.724	-50.35
209.944	-7.66
210.164	27.57
210.384	39.77
210.604	41.43
210.823	-17.75
211.043	-62.56
211.263	-38.75
211.483	-53.61
211.703	-117.77
211.922	-61.85
212.142	13.05
212.362	13.89
212.582	-13.91
212.801	17.34
213.021	-23.5
213.241	-50.16
213.461	-85.87
213.68	-53.02
213.9	-34.16
214.12	-12.59
214.339	-68.25
214.559	-45.73
214.779	-4.87
214.998	-9.41
215.218	-47.2
215.438	-20.8
215.657	-11.62
215.877	-14.24
216.096	-3.51
216.316	3.04
216.535	-5.37
216.755	1.61
216.974	-118.4
217.194	-130.94
217.413	-82.31
217.633	-80.16
217.852	-204.37
218.072	-58.96
218.291	-15.45
218.511	12.66
218.73	0.44
218.95	6.85
219.169	-2.06
219.389	-44.62
219.608	-42.34
219.827	-29.53
220.047	-28.61
220.266	-18.25
220.485	-26.63
220.705	-11.15
220.924	-32.11
221.143	11.58
221.363	2.85
221.582	19.41
221.801	26.55
222.021	34.28
222.24	-27.2
222.459	23.8
222.678	-6.17
222.897	-107.24
223.117	-125.68
223.336	-90.63
223.555	-71.38
223.774	-22.77
223.993	34.6
224.213	53.68
224.432	27.33
224.651	41.66
224.87	17.73
225.089	34.23
225.308	48.2
225.527	65.28
225.746	63.34
225.965	64.14
226.184	46.87
226.404	33.37
226.623	-2.47
226.842	6.77
227.061	33.41
227.28	32.57
227.499	33.83
227.718	58.15
227.936	40.55
228.155	37.47
228.374	19.25
228.593	13.05
228.812	15.93
229.031	20.49
229.25	-32.29
229.469	-24.53
229.688	-18.61
229.907	5.96
230.125	19.16
230.344	39.59
230.563	41.71
230.782	61.04
231.001	-18.01
231.22	-17.01
231.438	6.91
231.657	15.44
231.876	-0.89
232.095	48.69
232.313	60.92
232.532	57.5
232.751	34.74
232.969	11.94
233.188	-78.59
233.407	-21.95
233.625	-22.17
233.844	-34.57
234.063	-22.62
234.281	-0.17
234.5	-3.01
234.719	16.66
234.937	38.21
235.156	39.69
235.374	46.17
235.593	21.14
235.811	7.5
236.03	-7.25
236.249	-21.61
236.467	-9.26
236.686	25.57
236.904	21.03
237.123	-12.27
237.341	-21.96
237.559	-21.49
237.778	-62.1
237.996	-84.17
238.215	-18.7
238.433	5.37
238.652	6.08
238.87	-14.22
239.088	-8.32
239.307	-13.21
239.525	-24.02
239.743	-46.65
239.962	-19.63
240.18	-25.55
240.398	-42.63
240.617	-41.25
240.835	-25.07
241.053	-8.27
241.271	25.95
241.49	17.42
241.708	-19.87
241.926	-9.21
242.144	-9.92
242.363	-57.91
242.581	-75.58
242.799	-17.83
243.017	-1.99
243.235	-18.73
243.453	2.49
243.672	8.1
243.89	-4.26
244.108	-18.43
244.326	10.99
244.544	-1.07
244.762	1.47
244.98	15.84
245.198	32.61
245.416	9.69
245.634	18.36
245.852	-4.06
246.07	-25.89
246.288	-43.75
246.506	-88.19
246.724	-84.46
246.942	-52.41
247.16	-7.27
247.378	-1.76
247.596	15.86
247.814	32.42
248.032	2.48
248.25	-11.25
248.468	0.19
248.685	12.55
248.903	31.14
249.121	48.99
249.339	28.97
249.557	25.13
249.775	35.95
249.992	-33.27
250.21	-41.89
250.428	-28.06
250.646	-76.22
250.863	-104.71
251.081	-69.43
251.299	-65.83
251.517	-58.74
251.734	-9.14
251.952	-17.48
252.17	-8.32
252.387	-6.63
252.605	-18.74
252.823	-19.5
253.04	3.76
253.258	8.13
253.475	6.69
253.693	27.97
253.911	26.85
254.128	25.77
254.346	34.61
254.563	17.82
254.781	8.77
254.998	-8.05
255.216	-10.72
255.433	-8.99
255.651	40.84
255.868	59.11
256.086	102.86
256.303	84.45
256.521	75.52
256.738	42.63
256.956	1.15
257.173	-35.2
257.39	-41.39
257.608	-87.65
257.825	-8.85
258.043	30.98
258.26	34.89
258.477	76.76
258.695	91.5
258.912	26.08
259.129	19.2
259.346	-11.7
259.564	-65.15
259.781	-98.05
259.998	-24.5
260.216	20.45
260.433	66.33
260.65	57.8
260.867	67.25
261.084	29.76
261.302	7.63
261.519	-19.57
261.736	-25.51
261.953	-15.77
262.17	23.84
262.387	-11.19
262.604	-20.15
262.822	-51
263.039	-52.86
263.256	-112.04
263.473	-52.26
263.69	-32.38
263.907	24.41
264.124	32.54
264.341	41.85
264.558	31.69
264.775	28.34
264.992	1.85
265.209	-1.51
265.426	22.58
265.643	20.63
265.86	43.35
266.077	58.82
266.294	68.02
266.51	31.04
266.727	20.57
266.944	-8.8
267.161	-29.14
267.378	-44.23
267.595	-4.6
267.812	-20.21
268.028	-9.66
268.245	21.23
268.462	3.1
268.679	-6.61
268.896	33.37
269.112	34.33
269.329	19.03
269.546	29.28
269.763	23.55
269.979	-2.62
270.196	-11.58
270.413	-41.15
270.629	-71.55
270.846	-82.01
271.063	-63.14
271.279	-78.64
271.496	-42.53
271.712	14.72
271.929	31.17
272.146	17.86
272.362	31.93
272.579	46.94
272.795	39.55
273.012	38.57
273.228	37.15
273.445	10.62
273.661	-20.93
273.878	-72.14
274.094	-60.21
274.311	-65.78
274.527	9.46
274.744	19.8
274.96	21.9
275.177	29.57
275.393	35.87
275.609	29.27
275.826	30.82
276.042	24.51
276.259	-8.62
276.475	2.73
276.691	-2.06
276.908	-16.4
277.124	3.06
277.34	11.08
277.557	-8.18
277.773	-19.59
277.989	-18.38
278.205	-19.9
278.422	-4.32
278.638	12.52
278.854	36.51
279.07	28.88
279.286	15.69
279.503	-22.12
279.719	-40.01
279.935	-72.98
280.151	-73.14
280.367	-36.83
280.583	-31.91
280.799	-22.63
281.016	-38.98
281.232	-6.32
281.448	-6.79
281.664	18.24
281.88	-6.8
282.096	11.89
282.312	21.93
282.528	46.12
282.744	59.87
282.96	58.48
283.176	55.32
283.392	50.12
283.608	30.4
283.824	13.3
284.04	18.34
284.256	22.21
284.471	6.49
284.687	1.63
284.903	30.72
285.119	57.27
285.335	30.96
285.551	49.6
285.767	28.7
285.982	7.92
286.198	-39.91
286.414	24.48
286.63	33.48
286.846	47.93
287.061	28.22
287.277	63.25
287.493	31.05
287.709	32.59
287.924	16.05
288.14	39.81
288.356	29.13
288.571	45.98
288.787	28.62
289.003	28.19
289.218	21.03
289.434	-19.53
289.65	-22.24
289.865	-20.16
290.081	6.89
290.296	7.96
290.512	23.77
290.727	10.55
290.943	6.06
291.159	-2.74
291.374	-6.07
291.59	-27.29
291.805	-22.8
292.021	-13.56
292.236	-20.27
292.451	-4.34
292.667	12.06
292.882	24.39
293.098	5.46
293.313	-3.7
293.529	-35.67
293.744	-52.13
293.959	-60.02
294.175	-42.25
294.39	-13.55
294.605	7.37
294.821	32.46
295.036	39.36
295.251	35.95
295.467	23.25
295.682	19.88
295.897	-36.19
296.112	-52.44
296.328	-43.88
296.543	-68.13
296.758	-51.54
296.973	6.66
297.188	48.85
297.404	39.37
297.619	27.09
297.834	-3.96
298.049	-30.07
298.264	-79.32
298.479	-15.63
298.694	-4.55
298.909	8.61
299.125	23.59
299.34	39.5
299.555	8.08
299.77	26.34
299.985	-1.41
300.2	-58.32
300.415	-86.51
300.63	-60.32
300.845	-65.27
301.06	-59.75
301.275	-33.4
301.49	-10.92
301.704	-19.45
301.919	-35
302.134	-48.51
302.349	-51.97
302.564	-123.96
302.779	-173.44
302.994	-170.18
303.209	-122.26
303.423	-47.61
303.638	21.02
303.853	5.41
304.068	3.91
304.283	4.48
304.497	-14.55
304.712	-23.05
304.927	-13.39
305.142	-15.4
305.356	9.62
305.571	13.94
305.786	-0.15
306	-4.25
306.215	0.02
306.43	-34.2
306.644	-17.45
306.859	22.44
307.074	20.28
307.288	-0.2
307.503	-3.3
307.717	-23.15
307.932	-28.02
308.147	-25.57
308.361	-14.61
308.576	-15.84
308.79	-54.19
309.005	-50.57
309.219	-46.12
309.434	-40.41
309.648	-47.81
309.863	-13.36
310.077	-1.22
310.292	10.65
310.506	5.54
310.72	30.67
310.935	41.93
311.149	21.86
311.364	29.81
311.578	44.58
311.792	25.94
312.007	19.94
312.221	13.72
312.435	18.16
312.649	0.83
312.864	-18.3
313.078	-22.57
313.292	33.3
313.507	0.35
313.721	36.67
313.935	60.87
314.149	56.95
314.363	30.59
314.578	22.75
314.792	25.02
315.006	6.06
315.22	21.05
315.434	30.28
315.648	42.68
315.862	21.62
316.077	15.94
316.291	4.51
316.505	0.5
316.719	3.28
316.933	6.68
317.147	30.76
317.361	-33.52
317.575	-49.4
317.789	-93.62
318.003	-141.37
318.217	-92.13
318.431	-4.77
318.645	35.7
318.859	28
319.073	51.42
319.287	27.38
319.5	-7.41
319.714	-54.66
319.928	-80.22
320.142	-96.63
320.356	-37.88
320.57	-5.18
320.784	-26.71
320.997	-6.1
321.211	-16.4
321.425	-94.93
321.639	-94.81
321.853	-24.22
322.066	-30.95
322.28	-35.58
322.494	-9.39
322.707	17.52
322.921	2.28
323.135	17.63
323.349	38.03
323.562	22.31
323.776	-15.13
323.989	-9.07
324.203	-48.73
324.417	-71.23
324.63	-90.44
324.844	-71.43
325.057	-72.21
325.271	-28.49
325.485	-2.14
325.698	15.56
325.912	22.1
326.125	-10.5
326.339	-10.58
326.552	-26.79
326.766	-20.11
326.979	12.6
327.193	55.51
327.406	36.54
327.619	21.13
327.833	20.49
328.046	-19.29
328.26	-70.9
328.473	-40.68
328.686	-64.04
328.9	-42.67
329.113	-10.79
329.326	-15.13
329.54	17.42
329.753	6.59
329.966	-26.38
330.179	-39.42
330.393	-13.05
330.606	-29.59
330.819	3.76
331.032	21.81
331.246	33.47
331.459	61.96
331.672	61.22
331.885	53.31
332.098	28.14
332.311	11.62
332.525	-55.63
332.738	-42.77
332.951	-23.96
333.164	12.48
333.377	25.26
333.59	45
333.803	45.48
334.016	47.88
334.229	41.69
334.442	38.88
334.655	50.69
334.868	41.93
335.081	24.56
335.294	27.8
335.507	18.78
335.72	10.75
335.933	-8.35
336.146	-11.97
336.359	-18.2
336.572	-33.95
336.785	-59.44
336.997	-29.65
337.21	2.8
337.423	3.33
337.636	8.1
337.849	24.23
338.062	14.18
338.274	-5.07
338.487	-24.77
338.7	-23.14
338.913	-74.53
339.125	-105.45
339.338	-157.52
339.551	-128.63
339.763	-87.99
339.976	-37.32
340.189	-4.18
340.402	15.59
340.614	6.41
340.827	0.01
341.039	-21.47
341.252	-19.66
341.465	-14.1
341.677	-18.62
341.89	-58.51
342.102	-21.53
342.315	-38.33
342.527	-76.69
342.74	-53.69
342.952	-16.08
343.165	-14.18
343.377	10.41
343.59	17.44
343.802	31.3
344.015	31.93
344.227	45.06
344.44	41.48
344.652	42.05
344.864	21
345.077	33.85
345.289	24.26
345.502	28.26
345.714	13.64
345.926	25.27
346.139	16.16
346.351	28.38
346.563	33.1
346.775	56.57
346.988	45.95
347.2	37.79
347.412	-13.43
347.624	-43.37
347.837	-73.91
348.049	-52.52
348.261	-12.7
348.473	17.72
348.685	9.08
348.897	5.08
349.11	-2.9
349.322	-30.19
349.534	-16.28
349.746	8.78
349.958	27.37
350.17	14.64
350.382	28.23
350.594	4.35
350.806	3.18
351.018	-7
351.23	-14.31
351.442	-69.7
351.654	-47.33
351.866	-50.78
352.078	-31.43
352.29	-16.05
352.502	10.22
352.714	20.76
352.926	0.96
353.138	-6.95
353.35	-13.74
353.561	-26.69
353.773	-53.39
353.985	-30.11
354.197	-30.34
354.409	-33.01
354.621	-25.5
354.832	-11.32
355.044	-21.4
355.256	-27.45
355.468	-6.5
355.679	-2.39
355.891	11.74
356.103	7.26
356.314	13.03
356.526	15.79
356.738	18.8
356.949	-0.82
357.161	10.68
357.373	1.14
357.584	-23.32
357.796	-17.81
358.008	-17.79
358.219	-0.26
358.431	0.01
358.642	16.3
358.854	16.08
359.065	-4.74
359.277	-28.11
359.488	-38.53
359.7	-63.57
359.911	-93.26
360.123	-57.25
360.334	-60.48
360.546	-60.96
360.757	-51.52
360.969	-25.1
361.18	-14.22
361.391	-8.66
361.603	-17.05
361.814	-11.37
362.025	-14.06
362.237	-14.64
362.448	4.46
362.659	27.61
362.871	23.34
363.082	23.95
363.293	20.64
363.504	1.61
363.716	-31.52
363.927	-36.35
364.138	-60.82
364.349	-71.72
364.56	-57.95
364.772	-39.31
364.983	-19
365.194	-9.98
365.405	3.04
365.616	14.08
365.827	8.68
366.038	-12.83
366.25	-20.49
366.461	-60.84
366.672	-26.28
366.883	3.31
367.094	12.32
367.305	7.39
367.516	23.75
367.727	-12.44
367.938	-26.18
368.149	-25.92
368.36	-15.93
368.571	-15.32
368.781	-30.2
368.992	-42.11
369.203	-61.57
369.414	-86.03
369.625	-99.15
369.836	-79.37
370.047	-94.44
370.258	-68.57
370.468	-55.22
370.679	-55.93
370.89	-53.57
371.101	-38.75
371.312	-48.53
371.522	-47.13
371.733	-40.01
371.944	-17.94
372.155	-11.99
372.365	-3.48
372.576	0.14
372.787	1.63
372.997	-24.42
373.208	-31.89
373.419	-7.03
373.629	-38.34
373.84	-39.11
374.05	-47.64
374.261	-35.82
374.472	-68.83
374.682	-7.12
374.893	-1.73
375.103	39.54
375.314	33.4
375.524	36.24
375.735	26.18
375.945	28.76
376.156	1.92
376.366	11.81
376.577	13.26
376.787	14.88
376.997	20.9
377.208	16.18
377.418	2.4
377.629	12.54
377.839	2.34
378.049	-0.09
378.26	19.35
378.47	26.16
378.68	12.51
378.89	12.49
379.101	4.48
379.311	-25.79
379.521	-56.32
379.732	-54.75
379.942	-45.02
380.152	-57.29
380.362	-18.7
380.572	-7.44
380.783	10.5
380.993	19.49
381.203	41.15
381.413	41.7
381.623	43.62
381.833	40.67
382.043	27.16
382.253	11.59
382.463	11.74
382.674	-1.9
382.884	-25.3
383.094	-18.95
383.304	-15.5
383.514	-19.24
383.724	-3.94
383.934	-7.37
384.144	-18.77
384.353	-20.2
384.563	-19.26
384.773	-11.61
384.983	-13.28
385.193	8.84
385.403	12.07
385.613	13.29
385.823	0.24
386.033	13.2
386.242	-3.73
386.452	-7.6
386.662	-13.96
386.872	-4.91
387.082	-15.65
387.291	-17.53
387.501	-16.66
387.711	-6.72
387.921	-8.17
388.13	-5.47
388.34	9.53
388.55	6.69
388.759	3.08
388.969	6.63
389.179	2.43
389.388	-1.56
389.598	0.91
389.807	-7.37
390.017	-11.89
390.227	-6.88
390.436	-9.01
390.646	-5.21
390.855	1.97
391.065	3.31
391.274	0.18
391.484	-0.2
391.693	-1.54
391.903	-0.97
392.112	5.49
392.322	11.28
392.531	13.78
392.74	15.06
392.95	11.53
393.159	7.42
393.369	5.51
393.578	5.04
393.787	3.3
393.997	5.01
394.206	6.2
394.415	6.57
394.625	6.74
394.834	6.1
395.043	7.25
395.252	9.06
395.462	9.7
395.671	10.11
395.88	11.06
396.089	11.05
396.298	8.82
396.508	8.35
396.717	7.95
396.926	8.22
397.135	8.3
397.344	8.25
397.553	8.88
397.762	10.31
397.971	10.3
398.181	10.11
398.39	8.95
398.599	9.07
398.808	8.8
399.017	9.76
399.226	11.12
399.435	13.42
399.644	13.33
399.853	12.35
400.062	11.66
400.27	11
400.479	10.07
400.688	9.29
400.897	9.58
401.106	9.47
401.315	9.2
401.524	9.53
401.733	10.47
401.941	11.3
402.15	11.48
402.359	11.3
402.568	11.24
402.777	11.31
402.985	10.76
403.194	10.86
403.403	11.12
403.612	10.85
403.82	10.36
404.029	10.38
404.238	10.06
404.446	10.06
404.655	9.9
404.864	9.93
405.072	9.81
405.281	10.09
405.489	9.8
405.698	9.74
405.906	9.67
406.115	9.63
406.324	9.3
406.532	9.51
406.741	9.85
406.949	9.91
407.158	9.87
407.366	9.97
407.574	9.91
407.783	9.71
407.991	9.56
408.2	9.79
408.408	9.56
408.617	9.39
408.825	9.33
409.033	9.32
409.242	9.24
409.45	9.64
409.658	9.64
409.867	9.67
410.075	9.54
410.283	9.32
410.491	9.03
410.7	8.99
410.908	9
411.116	9.31
411.324	9.14
411.533	9.21
411.741	9.4
411.949	9.43
412.157	9.14
412.365	9.27
412.573	9.22
412.781	9.14
412.99	8.87
413.198	9.02
413.406	9.11
413.614	9.01
413.822	8.9
414.03	8.95
414.238	8.74
414.446	8.66
414.654	8.41
414.862	8.45
415.07	8.59
415.278	8.93
415.486	8.67
415.694	8.91
415.902	8.72
416.109	8.43
416.317	8.12
416.525	8.1
416.733	8.06
416.941	8.25
417.149	8.23
417.357	8.34
417.564	8.36
417.772	8.48
417.98	8.23
418.188	8.36
418.395	8.35
418.603	8.55
418.811	8.13
419.019	8.11
419.226	8.23
419.434	8.33
419.642	8.1
419.849	8.31
420.057	8.33
420.265	8.19
420.472	7.81
420.68	7.95
420.887	7.9
421.095	8.01
421.302	7.88
421.51	8.11
421.717	8.19
421.925	8.31
422.132	8.1
422.34	7.8
422.547	7.79
422.755	7.73
422.962	7.51
423.17	7.39
423.377	7.68
423.585	7.65
423.792	7.45
423.999	7.65
424.207	7.7
424.414	7.79
424.621	7.79
424.829	7.79
425.036	7.83
425.243	8.05
425.451	7.81
425.658	7.55
425.865	7.84
426.072	7.81
426.28	8.01
426.487	8.18
426.694	8.43
426.901	8.07
427.108	7.98
427.315	7.74
427.523	7.81
427.73	7.8
427.937	7.86
428.144	7.7
428.351	7.74
428.558	7.89
428.765	7.77
428.972	7.67
429.179	7.96
429.386	8.26
429.593	8.09
429.8	8.04
430.007	8.2
430.214	8.14
430.421	7.96
430.628	7.86
430.835	7.87
431.042	8.02
431.249	8.04
431.456	7.91
431.662	8
431.869	8.23
432.076	8.27
432.283	8.3
432.49	8.34
432.697	8.46
432.903	8.22
433.11	8.11
433.317	8.31
433.524	8.53
433.73	8.52
433.937	8.75
434.144	8.7
434.35	8.55
434.557	8.33
434.764	8.36
434.97	8.33
435.177	8.55
435.384	8.53
435.59	8.63
435.797	8.82
436.003	8.88
436.21	8.86
436.416	9.06
436.623	9.11
436.829	9.04
437.036	9.11
437.242	9.02
437.449	8.9
437.655	8.94
437.862	8.94
438.068	8.88
438.275	9.07
438.481	9.24
438.687	9.26
438.894	9.26
439.1	9.41
439.307	9.54
439.513	9.47
439.719	9.53
439.926	9.6
440.132	9.45
440.338	9.24
440.544	9.39
440.751	9.31
440.957	9.43
441.163	9.43
441.369	9.63
441.575	9.34
441.782	9.34
441.988	9.22
442.194	9.35
442.4	9.28
442.606	9.6
442.812	9.67
443.018	9.68
443.224	9.64
443.431	9.72
443.637	9.52
443.843	9.45
444.049	9.4
444.255	9.36
444.461	9.5
444.667	9.53
444.873	9.73
445.079	9.84
445.284	10.02
445.49	9.72
445.696	9.6
445.902	9.44
446.108	9.37
446.314	9.29
446.52	9.41
446.726	9.78
446.931	9.82
447.137	9.88
447.343	10.01
447.549	9.99
447.755	9.76
447.96	9.88
448.166	9.82
448.372	9.75
448.578	9.81
448.783	9.84
448.989	9.94
449.195	10.25
449.4	10.23
449.606	10.25
449.812	10.27
450.017	10.27
450.223	10.13
450.428	10.15
450.634	10.33
450.84	10.49
451.045	10.43
451.251	10.36
451.456	10.55
451.662	10.62
451.867	10.69
452.073	10.69
452.278	10.91
452.483	11.04
452.689	10.91
452.894	10.94
453.1	10.98
453.305	10.82
453.51	10.73
453.716	10.7
453.921	10.78
454.127	10.79
454.332	10.8
454.537	10.81
454.742	10.9
454.948	10.84
455.153	10.94
455.358	11.15
455.563	11.22
455.769	11.16
455.974	11.18
456.179	11.11
456.384	11.02
456.589	10.95
456.795	10.94
457	10.93
457.205	11.23
457.41	11.3
457.615	11.44
457.82	11.56
458.025	11.67
458.23	11.54
458.435	11.68
458.64	11.58
458.845	11.76
459.05	11.62
459.255	11.6
459.46	11.53
459.665	11.69
459.87	11.78
460.075	11.9
460.28	11.99
460.485	12.05
460.69	12.13
460.895	11.97
461.099	12.05
461.304	12.23
461.509	12.29
461.714	12.2
461.919	12.43
462.123	12.36
462.328	12.4
462.533	12.46
462.738	12.71
462.942	12.59
463.147	12.89
463.352	13
463.556	13.07
463.761	13.13
463.966	13.23
464.17	13.21
464.375	13.12
464.58	13.15
464.784	13.05
464.989	13.02
465.193	13.09
465.398	13.23
465.602	13.4
465.807	13.47
466.011	13.67
466.216	13.73
466.42	13.76
466.625	13.89
466.829	13.99
467.034	14.06
467.238	14.21
467.443	14.3
467.647	14.18
467.851	14.28
468.056	14.29
468.26	14.26
468.464	14.31
468.669	14.5
468.873	14.58
469.077	14.68
469.282	14.78
469.486	14.73
469.69	14.78
469.894	14.79
470.099	14.92
470.303	15.13
470.507	15.19
470.711	15.12
470.915	15.15
471.119	15.08
471.324	14.87
471.528	14.96
471.732	15.03
471.936	14.96
472.14	15.07
472.344	15.27
472.548	15.4
472.752	15.69
472.956	16.09
473.16	16.12
473.364	16.02
473.568	16.01
473.772	15.93
473.976	15.78
474.18	15.82
474.384	15.95
474.588	15.97
474.792	15.93
474.995	15.99
475.199	16.08
475.403	16.11
475.607	16.1
475.811	16.06
476.015	16.08
476.218	16.13
476.422	16.03
476.626	16.09
476.83	16.22
477.033	16.22
477.237	16.13
477.441	16.38
477.644	16.41
477.848	16.35
478.052	16.36
478.255	16.43
478.459	16.34
478.663	16.52
478.866	16.73
479.07	16.74
479.273	16.85
479.477	16.84
479.681	16.77
479.884	16.57
480.088	16.61
480.291	16.61
480.495	16.67
480.698	16.71
480.901	16.82
481.105	16.95
481.308	16.92
481.512	16.93
481.715	16.95
481.919	16.95
482.122	16.91
482.325	16.93
482.529	16.97
482.732	16.88
482.935	16.77
483.138	16.72
483.342	16.72
483.545	16.77
483.748	16.85
483.952	17
484.155	17.08
484.358	17.07
484.561	16.91
484.764	16.91
484.967	16.98
485.171	16.97
485.374	16.93
485.577	17.08
485.78	17.03
485.983	16.93
486.186	16.83
486.389	16.84
486.592	16.79
486.795	16.83
486.998	16.82
487.201	16.89
487.404	16.99
487.607	17.09
487.81	17.11
488.013	17.17
488.216	17.1
488.419	17.01
488.622	16.82
488.825	16.72
489.028	16.67
489.231	16.56
489.433	16.46
489.636	16.4
489.839	16.4
490.042	16.26
490.245	16.38
490.447	16.4
490.65	16.41
490.853	16.32
491.056	16.41
491.258	16.3
491.461	16.4
491.664	16.44
491.866	16.48
492.069	16.57
492.272	16.56
492.474	16.54
492.677	16.56
492.879	16.62
493.082	16.54
493.285	16.64
493.487	16.61
493.69	16.54
493.892	16.42
494.095	16.41
494.297	16.39
494.5	16.33
494.702	16.36
494.905	16.36
495.107	16.28
495.309	16.23
495.512	16.34
495.714	16.31
495.917	16.39
496.119	16.41
496.321	16.46
496.524	16.37
496.726	16.33
496.928	16.28
497.13	16.23
497.333	16.13
497.535	16.11
497.737	16.13
497.939	16.11
498.142	16.13
498.344	16.03
498.546	15.9
498.748	15.96
498.95	16.02
499.152	16.04
499.355	16.21
499.557	16.36
499.759	16.39
499.961	16.31
500.163	16.3
500.365	16.21
500.567	16.16
500.769	15.97
500.971	15.98
501.173	15.96
501.375	15.93
501.577	15.84
501.779	15.87
501.981	15.83
502.183	15.7
502.385	15.67
502.587	15.55
502.788	15.52
502.99	15.56
503.192	15.7
503.394	15.71
503.596	15.81
503.798	15.88
503.999	15.86
504.201	15.78
504.403	15.83
504.605	15.87
504.806	15.79
505.008	15.78
505.21	15.84
505.411	15.84
505.613	15.77
505.815	15.78
506.016	15.78
506.218	15.83
506.42	15.72
506.621	15.84
506.823	15.82
507.024	15.7
507.226	15.5
507.427	15.48
507.629	15.44
507.83	15.48
508.032	15.52
508.233	15.69
508.435	15.75
508.636	15.74
508.838	15.7
509.039	15.74
509.24	15.69
509.442	15.63
509.643	15.51
509.845	15.46
510.046	15.46
510.247	15.34
510.448	15.4
510.65	15.5
510.851	15.62
511.052	15.56
511.254	15.64
511.455	15.7
511.656	15.67
511.857	15.64
512.058	15.61
512.26	15.57
512.461	15.48
512.662	15.53
512.863	15.38
513.064	15.38
513.265	15.34
513.466	15.35
513.667	15.22
513.868	15.29
514.069	15.41
514.27	15.44
514.471	15.36
514.672	15.39
514.873	15.33
515.074	15.31
515.275	15.26
515.476	15.26
515.677	15.25
515.878	15.37
516.079	15.24
516.28	15.28
516.481	15.39
516.682	15.44
516.882	15.3
517.083	15.34
517.284	15.24
517.485	15.13
517.686	15.06
517.886	15.03
518.087	15.04
518.288	15.07
518.488	15.02
518.689	15.04
518.89	15
519.091	15.05
519.291	15.02
519.492	15.09
519.692	15.07
519.893	15.2
520.094	15.11
520.294	15.06
520.495	15
520.695	14.97
520.896	14.88
521.096	14.87
521.297	14.94
521.497	14.92
521.698	14.84
521.898	14.85
522.099	14.84
522.299	14.85
522.499	14.88
522.7	14.87
522.9	14.86
523.101	14.96
523.301	14.96
523.501	14.93
523.702	14.99
523.902	15.03
524.102	15.05
524.302	14.93
524.503	14.96
524.703	14.94
524.903	14.84
525.103	14.7
525.304	14.84
525.504	14.86
525.704	14.91
525.904	14.97
526.104	14.98
526.304	14.9
526.504	14.87
526.705	14.8
526.905	14.84
527.105	14.82
527.305	14.79
527.505	14.69
527.705	14.72
527.905	14.69
528.105	14.69
528.305	14.64
528.505	14.74
528.705	14.75
528.905	14.62
529.105	14.64
529.304	14.73
529.504	14.78
529.704	14.68
529.904	14.8
530.104	14.83
530.304	14.88
530.503	14.78
530.703	14.73
530.903	14.65
531.103	14.61
531.303	14.49
531.502	14.55
531.702	14.71
531.902	14.75
532.101	14.78
532.301	14.78
532.501	14.78
532.7	14.69
532.9	14.63
533.1	14.61
533.299	14.64
533.499	14.63
533.698	14.61
533.898	14.62
534.097	14.61
534.297	14.64
534.496	14.61
534.696	14.64
534.895	14.71
535.095	14.75
535.294	14.68
535.494	14.64
535.693	14.64
535.892	14.64
536.092	14.51
536.291	14.51
536.491	14.56
536.69	14.61
536.889	14.55
537.088	14.56
537.288	14.64
537.487	14.65
537.686	14.65
537.886	14.67
538.085	14.77
538.284	14.81
538.483	14.79
538.682	14.77
538.882	14.84
539.081	14.84
539.28	14.74
539.479	14.65
539.678	14.67
539.877	14.77
540.076	14.78
540.275	14.79
540.474	14.95
540.673	14.98
540.872	14.78
541.071	14.77
541.27	14.81
541.469	14.79
541.668	14.77
541.867	14.81
542.066	14.87
542.265	14.9
542.464	14.82
542.663	14.87
542.862	15
543.06	15
543.259	15.03
543.458	15.15
543.657	15.16
543.856	15.14
544.054	15.1
544.253	15
544.452	14.94
544.651	14.96
544.849	14.94
545.048	14.96
545.247	15.06
545.445	15.1
545.644	15.1
545.843	15.03
546.041	15.06
546.24	15.08
546.438	15.12
546.637	15.1
546.836	15.26
547.034	15.36
547.233	15.37
547.431	15.41
547.63	15.49
547.828	15.47
548.027	15.4
548.225	15.42
548.423	15.38
548.622	15.45
548.82	15.46
549.019	15.53
549.217	15.58
549.415	15.66
549.614	15.69
549.812	15.69
550.01	15.67
550.209	15.65
550.407	15.63
550.605	15.58
550.803	15.7
551.002	15.71
551.2	15.81
551.398	15.95
551.596	16.09
551.794	16.09
551.993	16.24
552.191	16.29
552.389	16.34
552.587	16.36
552.785	16.38
552.983	16.38
553.181	16.45
553.379	16.47
553.577	16.49
553.775	16.67
553.973	16.73
554.171	16.75
554.369	16.74
554.567	16.81
554.765	16.69
554.963	16.75
555.161	16.74
555.359	16.8
555.557	16.93
555.755	17.06
555.952	17.16
556.15	17.23
556.348	17.21
556.546	17.23
556.744	17.22
556.941	17.17
557.139	17.26
557.337	17.32
557.535	17.31
557.732	17.41
557.93	17.6
558.128	17.68
558.325	17.87
558.523	17.87
558.721	18
558.918	17.92
559.116	18.01
559.313	17.9
559.511	18.03
559.708	17.95
559.906	18
560.104	18.04
560.301	18.25
560.498	18.31
560.696	18.37
560.893	18.5
561.091	18.55
561.288	18.62
561.486	18.63
561.683	18.8
561.88	18.93
562.078	19.06
562.275	19.05
562.473	19.16
562.67	19.28
562.867	19.31
563.064	19.35
563.262	19.41
563.459	19.56
563.656	19.65
563.853	19.71
564.051	19.73
564.248	19.92
564.445	19.98
564.642	19.96
564.839	20.08
565.036	20.28
565.234	20.41
565.431	20.49
565.628	20.57
565.825	20.64
566.022	20.66
566.219	20.67
566.416	20.74
566.613	20.87
566.81	21.01
567.007	21.04
567.204	21.05
567.401	21.08
567.598	21.04
567.795	20.95
567.991	21.06
568.188	21.19
568.385	21.33
568.582	21.52
568.779	21.7
568.976	21.69
569.172	21.81
569.369	21.79
569.566	21.87
569.763	21.87
569.96	21.9
570.156	21.84
570.353	21.83
570.55	21.87
570.746	21.89
570.943	21.93
571.14	21.92
571.336	22.03
571.533	22.05
571.729	22.05
571.926	22.13
572.123	22.26
572.319	22.37
572.516	22.31
572.712	22.4
572.909	22.52
573.105	22.63
573.302	22.62
573.498	22.76
573.695	22.77
573.891	22.76
574.087	22.73
574.284	22.73
574.48	22.61
574.677	22.67
574.873	22.64
575.069	22.66
575.266	22.66
575.462	22.74
575.658	22.79
575.854	22.94
576.051	22.91
576.247	22.92
576.443	22.94
576.639	22.91
576.835	22.85
577.032	22.85
577.228	22.96
577.424	23.04
577.62	22.94
577.816	22.9
578.012	22.95
578.208	22.88
578.404	22.82
578.6	22.9
578.796	22.92
578.993	22.96
579.189	22.86
579.384	22.82
579.58	22.73
579.776	22.74
579.972	22.67
580.168	22.65
580.364	22.75
580.56	22.78
580.756	22.66
580.952	22.63
581.148	22.67
581.343	22.6
581.539	22.69
581.735	22.81
581.931	22.85
582.127	22.91
582.322	22.95
582.518	22.94
582.714	22.94
582.909	22.88
583.105	22.87
583.301	22.75
583.496	22.77
583.692	22.72
583.888	22.77
584.083	22.8
584.279	22.91
584.474	22.84
584.67	22.82
584.866	22.8
585.061	22.63
585.257	22.61
585.452	22.6
585.648	22.57
585.843	22.61
586.039	22.68
586.234	22.63
586.429	22.6
586.625	22.69
586.82	22.62
587.015	22.65
587.211	22.62
587.406	22.7
587.601	22.59
587.797	22.57
587.992	22.53
588.187	22.63
588.383	22.63
588.578	22.65
588.773	22.7
588.968	22.7
589.163	22.7
589.359	22.63
589.554	22.7
589.749	22.64
589.944	22.84
590.139	22.88
590.334	23.03
590.529	23.02
590.724	23.16
590.919	23.11
591.114	23.09
591.309	23.11
591.504	23.22
591.699	23.26
591.894	23.37
592.089	23.38
592.284	23.38
592.479	23.44
592.674	23.44
592.869	23.43
593.064	23.57
593.259	23.63
593.454	23.64
593.648	23.69
593.843	23.66
594.038	23.62
594.233	23.6
594.428	23.57
594.622	23.6
594.817	23.77
595.012	23.82
595.206	23.88
595.401	23.98
595.596	24.03
595.79	24.13
595.985	24.24
596.18	24.34
596.374	24.4
596.569	24.53
596.763	24.44
596.958	24.45
597.153	24.56
597.347	24.63
597.542	24.71
597.736	24.8
597.931	24.9
598.125	24.85
598.319	24.88
598.514	24.82
598.708	24.95
598.903	24.94
599.097	25.04
599.291	25.11
599.486	25.17
599.68	25.16
599.874	25.27
600.069	25.27
600.263	25.34
600.457	25.36
600.651	25.3
600.846	25.28
601.04	25.37
601.234	25.35
601.428	25.37
601.622	25.43
601.817	25.45
602.011	25.45
602.205	25.55
602.399	25.6
602.593	25.61
602.787	25.67
602.981	25.7
603.175	25.64
603.369	25.65
603.563	25.76
603.757	25.79
603.951	25.74
604.145	25.68
604.339	25.75
604.533	25.61
604.727	25.53
604.921	25.5
605.115	25.56
605.309	25.55
605.502	25.6
605.696	25.6
605.89	25.63
606.084	25.57
606.278	25.49
606.471	25.39
606.665	25.32
606.859	25.18
607.053	25.18
607.246	25.12
607.44	25.19
607.634	25.21
607.827	25.26
608.021	25.15
608.214	25.16
608.408	25.07
608.602	25.01
608.795	24.89
608.989	24.92
609.182	24.75
609.376	24.68
609.569	24.65
609.763	24.55
609.956	24.34
610.15	24.33
610.343	24.24
610.537	24.06
610.73	24.12
610.923	24.09
611.117	24.06
611.31	24.07
611.504	24.12
611.697	23.92
611.89	23.91
612.083	23.85
612.277	23.83
612.47	23.68
612.663	23.72
612.856	23.63
613.05	23.55
613.243	23.34
613.436	23.22
613.629	23.11
613.822	23
614.015	22.87
614.209	22.76
614.402	22.88
614.595	22.86
614.788	22.83
614.981	22.72
615.174	22.67
615.367	22.51
615.56	22.4
615.753	22.32
615.946	22.27
616.139	22.31
616.332	22.39
616.525	22.37
616.718	22.43
616.911	22.39
617.103	22.4
617.296	22.26
617.489	22.17
617.682	22.09
617.875	22.18
618.067	22.08
618.26	22.01
618.453	22.07
618.646	22
618.838	21.95
619.031	21.95
619.224	22.01
619.417	22.01
619.609	22.06
619.802	21.98
619.994	22.02
620.187	21.85
620.38	21.77
620.572	21.61
620.765	21.63
620.957	21.42
621.15	21.44
621.342	21.4
621.535	21.45
621.727	21.38
621.92	21.4
622.112	21.4
622.305	21.47
622.497	21.41
622.69	21.43
622.882	21.39
623.074	21.44
623.267	21.36
623.459	21.33
623.651	21.17
623.844	21.2
624.036	21.24
624.228	21.11
624.42	21.07
624.613	21.25
624.805	21.22
624.997	21.17
625.189	21.25
625.381	21.31
625.574	21.12
625.766	21.06
625.958	21
626.15	20.98
626.342	20.88
626.534	21
626.726	20.92
626.918	20.87
627.11	20.8
627.302	20.78
627.494	20.71
627.686	20.84
627.878	20.83
628.07	20.8
628.262	20.77
628.454	20.78
628.646	20.79
628.838	20.8
629.029	20.8
629.221	20.88
629.413	20.74
629.605	20.51
629.797	20.43
629.989	20.36
630.18	20.25
630.372	20.23
630.564	20.35
630.755	20.3
630.947	20.4
631.139	20.33
631.33	20.25
631.522	20.3
631.714	20.34
631.905	20.25
632.097	20.19
632.289	20.25
632.48	20.08
632.672	19.97
632.863	19.8
633.055	19.86
633.246	19.81
633.438	19.78
633.629	19.81
633.821	19.87
634.012	19.87
634.203	19.81
634.395	19.84
634.586	19.86
634.777	19.77
634.969	19.69
635.16	19.78
635.351	19.69
635.543	19.59
635.734	19.67
635.925	19.7
636.117	19.74
636.308	19.77
636.499	19.7
636.69	19.63
636.881	19.61
637.073	19.63
637.264	19.6
637.455	19.73
637.646	19.91
637.837	19.91
638.028	19.85
638.219	19.89
638.41	19.78
638.601	19.58
638.792	19.6
638.983	19.54
639.174	19.45
639.365	19.51
639.556	19.45
639.747	19.42
639.938	19.47
640.129	19.51
640.32	19.43
640.511	19.53
640.701	19.63
640.892	19.55
641.083	19.55
641.274	19.57
641.465	19.57
641.655	19.41
641.846	19.4
642.037	19.41
642.228	19.4
642.418	19.44
642.609	19.52
642.8	19.6
642.99	19.53
643.181	19.59
643.372	19.6
643.562	19.55
643.753	19.31
643.943	19.21
644.134	19.03
644.324	18.92
644.515	18.87
644.705	19.09
644.896	19.17
645.086	19.27
645.277	19.21
645.467	19.27
645.658	19.23
645.848	19.16
646.038	19.14
646.229	19.09
646.419	19.03
646.61	18.93
646.8	18.99
646.99	18.95
647.18	18.97
647.371	18.96
647.561	18.88
647.751	18.94
647.941	18.94
648.132	18.88
648.322	18.83
648.512	18.92
648.702	18.93
648.892	18.95
649.082	19.02
649.272	18.96
649.462	18.8
649.653	18.68
649.843	18.53
650.033	18.57
650.223	18.63
650.413	18.64
650.603	18.63
650.793	18.65
650.983	18.48
651.172	18.43
651.362	18.46
651.552	18.4
651.742	18.37
651.932	18.38
652.122	18.33
652.312	18.31
652.502	18.26
652.691	18.17
652.881	18.11
653.071	18.08
653.261	17.95
653.45	17.72
653.64	17.81
653.83	17.68
654.019	17.62
654.209	17.6
654.399	17.67
654.588	17.43
654.778	17.33
654.968	17.18
655.157	17.07
655.347	16.97
655.536	16.87
655.726	16.79
655.915	16.73
656.105	16.55
656.294	16.39
656.484	16.28
656.673	16.2
656.863	16.13
657.052	15.99
657.241	15.89
657.431	15.65
657.62	15.54
657.809	15.22
657.999	15.24
658.188	15.04
658.377	14.98
658.567	14.83
658.756	14.75
658.945	14.54
659.134	14.51
659.324	14.44
659.513	14.36
659.702	14.28
659.891	14.25
660.08	14.11
660.269	13.98
660.458	13.84
660.648	13.7
660.837	13.58
661.026	13.61
661.215	13.59
661.404	13.52
661.593	13.52
661.782	13.33
661.971	13.24
662.16	13.11
662.349	13.04
662.538	12.86
662.726	12.91
662.915	12.6
663.104	12.48
663.293	12.49
663.482	12.52
663.671	12.37
663.86	12.36
664.048	12.33
664.237	12.28
664.426	12.09
664.615	12.11
664.803	12.19
664.992	12.17
665.181	11.95
665.369	11.96
665.558	11.86
665.747	11.78
665.935	11.72
666.124	11.91
666.312	11.97
666.501	11.94
666.69	11.84
666.878	11.76
667.067	11.54
667.255	11.58
667.444	11.78
667.632	11.87
667.82	11.97
668.009	12.06
668.197	11.92
668.386	11.75
668.574	11.85
668.762	11.78
668.951	11.66
669.139	11.75
669.327	11.72
669.516	11.7
669.704	11.74
669.892	11.95
670.08	11.94
670.269	11.86
670.457	11.7
670.645	11.52
670.833	11.53
671.021	11.49
671.21	11.61
671.398	11.84
671.586	11.98
671.774	11.77
671.962	11.7
672.15	11.71
672.338	11.51
672.526	11.54
672.714	11.48
672.902	11.59
673.09	11.65
673.278	11.83
673.466	11.91
673.654	12.23
673.842	12.23
674.03	12.29
674.218	12.14
674.405	12.09
674.593	11.93
674.781	12.04
674.969	12.06
675.157	12.3
675.344	12.49
675.532	12.62
675.72	12.66
675.908	12.71
676.095	12.57
676.283	12.56
676.471	12.65
676.658	12.71
676.846	12.76
677.033	12.89
677.221	12.91
677.409	12.82
677.596	12.78
677.784	12.75
677.971	12.93
678.159	12.93
678.346	13.09
678.534	13.19
678.721	13.4
678.909	13.28
679.096	13.42
679.283	13.66
679.471	13.7
679.658	13.61
679.846	13.74
680.033	13.82
680.22	13.73
680.408	13.78
680.595	13.87
680.782	13.88
680.969	13.94
681.157	13.95
681.344	13.97
681.531	14.03
681.718	14.03
681.905	14.19
682.093	14.37
682.28	14.63
682.467	14.78
682.654	15.01
682.841	14.98
683.028	15.15
683.215	15.18
683.402	15.13
683.589	15.21
683.776	15.39
683.963	15.26
684.15	15.54
684.337	15.69
684.524	15.78
684.711	15.95
684.898	16.05
685.085	16.04
685.271	16.37
685.458	16.55
685.645	16.65
685.832	17.01
686.019	17.28
686.205	17.48
686.392	17.71
686.579	17.95
686.766	18.23
686.952	18.46
687.139	18.83
687.326	19.01
687.512	19.31
687.699	19.6
687.886	19.79
688.072	19.74
688.259	20.04
688.445	20.31
688.632	20.34
688.818	20.81
689.005	21.34
689.191	21.68
689.378	22.18
689.564	22.81
689.751	23.16
689.937	23.6
690.124	24.23
690.31	24.33
690.496	24.72
690.683	25.19
690.869	25.79
691.055	26.05
691.242	26.92
691.428	27.46
691.614	27.98
691.8	28.51
691.987	29.25
692.173	29.56
692.359	30.34
692.545	30.99
692.731	31.45
692.918	31.99
693.104	32.67
693.29	33.1
693.476	33.73
693.662	34.23
693.848	34.65
694.034	35.26
694.22	35.69
694.406	36.35
694.592	37.09
694.778	37.98
694.964	38.55
695.15	39.24
695.336	39.74
695.522	40.56
695.708	41.07
695.894	41.79
696.08	42.54
696.265	43.21
696.451	43.73
696.637	44.43
696.823	45.01
697.009	45.6
697.194	46.04
697.38	46.29
697.566	46.86
697.751	47.48
697.937	48.11
698.123	48.7
698.308	49.74
698.494	50.38
698.68	50.92
698.865	51.6
699.051	52.32
699.236	52.56
699.422	53.03
699.607	53.32
699.793	53.58
699.978	53.79
700.164	54.37
700.349	54.87
700.535	55.77
700.72	56.24
700.906	57.14
701.091	57.66
701.276	57.95
701.462	58.64
701.647	59.56
701.832	59.95
702.018	60.18
702.203	60.99
702.388	60.89
702.573	60.95
702.759	61.5
702.944	61.88
703.129	61.77
703.314	62.31
703.499	62.82
703.684	63.22
703.87	64.37
704.055	65.63
704.24	66.33
704.425	66.95
704.61	67.18
704.795	67.19
704.98	66.85
705.165	66.65
705.35	66.67
705.535	67.17
705.72	67.6
705.905	68.32
706.09	69.18
706.275	69.49
706.459	69.29
706.644	69.35
706.829	69.51
707.014	69.3
707.199	69.93
707.384	70.63
707.568	70.86
707.753	71.64
707.938	72.22
708.123	72.24
708.307	72.62
708.492	72.98
708.677	72.72
708.861	72.78
709.046	72.81
709.231	73.25
709.415	73.65
709.6	73.8
709.784	73.81
709.969	73.97
710.153	73.66
710.338	73.68
710.522	73.79
710.707	74.22
710.891	74.56
711.076	74.57
711.26	74.48
711.445	75
711.629	75.01
711.813	75.39
711.998	75.94
712.182	75.98
712.366	76.22
712.551	76.86
712.735	76.96
712.919	76.73
713.103	77
713.288	76.41
713.472	76.45
713.656	76.88
713.84	77.38
714.024	78.01
714.208	78.46
714.393	78.62
714.577	78.46
714.761	78.62
714.945	78.53
715.129	78.76
715.313	79.09
715.497	79.27
715.681	80.15
715.865	79.73
716.049	79.7
716.233	79.43
716.417	79.33
716.601	78.55
716.785	79.19
716.968	79.27
717.152	79.51
717.336	79.64
717.52	79.39
717.704	78.99
717.888	79.56
718.071	79.51
718.255	79.81
718.439	80.11
718.622	80.78
718.806	80.79
718.99	80.81
719.174	80.81
719.357	81.04
719.541	80.86
719.724	80.53
719.908	81.15
720.092	81.67
720.275	81.99
720.459	81.94
720.642	81.88
720.826	81.44
721.009	80.92
721.193	80.92
721.376	81.14
721.559	81.61
721.743	81.86
721.926	82.35
722.11	82.53
722.293	82.49
722.476	82.27
722.66	81.75
722.843	81.41
723.026	80.95
723.21	81.21
723.393	82.24
723.576	82.39
723.759	81.97
723.942	82.29
724.126	82.36
724.309	81.76
724.492	82.03
724.675	82.56
724.858	82.95
725.041	83.46
725.224	83.98
725.407	84.57
725.59	84.76
725.774	84.31
725.957	83.16
726.14	82.71
726.322	82.57
726.505	82.43
726.688	83.08
726.871	84.2
727.054	84.74
727.237	84.82
727.42	85.27
727.603	85.06
727.786	84.58
727.968	83.97
728.151	83.65
728.334	83.22
728.517	83.24
728.699	83.6
728.882	83.71
729.065	84.43
729.248	85.78
729.43	85.91
729.613	86.74
729.796	87.92
729.978	86.93
730.161	85.86
730.343	85.84
730.526	85.66
730.708	84.21
730.891	84.8
731.073	85.24
731.256	84.6
731.438	84.13
731.621	85.32
731.803	85.33
731.986	85.42
732.168	85.67
732.35	86
732.533	85.59
732.715	85.56
732.898	85.96
733.08	86.31
733.262	86.46
733.444	86.16
733.627	86.32
733.809	85.87
733.991	86.93
734.173	86.63
734.355	87.06
734.538	88.19
734.72	87.38
734.902	87.22
735.084	87.59
735.266	87.78
735.448	87.27
735.63	88.17
735.812	87.34
735.994	88.35
736.176	88.97
736.358	88.09
736.54	89.74
736.722	89.83
736.904	89.04
737.086	88.06
737.268	89.63
737.45	88.11
737.632	88.34
737.814	88.12
737.995	89.16
738.177	88.13
738.359	88.28
738.541	88.34
738.723	88.78
738.904	89.03
739.086	89.78
739.268	89.45
739.449	89.92
739.631	89.32
739.813	89.06
739.994	88.73
740.176	89.1
740.358	89.02
740.539	90.23
740.721	90.36
740.902	91.18
741.084	91.01
741.265	90.37
741.447	89.96
741.628	90.68
741.81	89.69
741.991	90.09
742.172	91.7
742.354	91.63
742.535	91.45
742.717	92.35
742.898	93.19
743.079	92.62
743.261	92.92
743.442	91.65
743.623	92.13
743.804	91.71
743.986	91.97
744.167	90.51
744.348	90.52
744.529	89.48
744.71	87.95
744.891	86.84
745.073	86.95
745.254	87.36
745.435	86.98
745.616	87.07
745.797	87.15
745.978	87.13
746.159	86.94
746.34	86.59
746.521	89.56
746.702	88.83
746.883	89.72
747.064	89.21
747.245	89.76
747.426	87.56
747.606	88.26
747.787	87.98
747.968	89.04
748.149	88.53
748.33	89.05
748.51	89.22
748.691	88.73
748.872	87.71
749.053	88.51
749.233	87.55
749.414	87.43
749.595	87.19
749.775	86.61
749.956	85.83
750.137	87.22
750.317	88.18
750.498	90.14
750.678	90.98
750.859	92.09
751.04	91.1
751.22	89.87
751.4	88.77
751.581	88.07
751.761	88.46
751.942	90.42
752.122	91.12
752.303	89.42
752.483	89.83
752.663	89.46
752.844	86.17
753.024	87.43
753.204	88.78
753.385	88.16
753.565	87.57
753.745	88.4
753.925	86.2
754.106	85.81
754.286	86.02
754.466	85.66
754.646	86.86
754.826	87.59
755.006	87.41
755.187	87.76
755.367	88.84
755.547	88.34
755.727	88.54
755.907	88.7
756.087	90.81
756.267	90.04
756.447	90.18
756.627	89.1
756.807	90.5
756.987	87.93
757.167	88.11
757.346	87.33
757.526	86.41
757.706	85.72
757.886	86.85
758.066	87.01
758.246	89.1
758.425	91.05
758.605	89.97
758.785	89.92
758.965	89.61
759.144	86.54
759.324	85.77
759.504	87.15
759.683	87.05
759.863	85.38
760.043	85.41
760.222	85.58
760.402	83.92
760.581	83.3
760.761	86.15
760.94	86.36
761.12	88.07
761.299	90.31
761.479	90.64
761.658	88.54
761.838	88.35
762.017	87.33
762.197	86.17
762.376	86.36
762.555	88.21
762.735	88.85
762.914	87.69
763.093	87.19
763.273	86.21
763.452	85.32
763.631	86.05
763.81	87.18
763.99	87.32
764.169	88.54
764.348	85.87
764.527	84.65
764.706	83.94
764.885	85.63
765.064	83.74
765.243	85.22
765.423	87.6
765.602	88.55
765.781	85.64
765.96	85.33
766.139	85.62
766.318	86.01
766.497	84.55
766.676	85.91
766.854	88.27
767.033	88.81
767.212	86.44
767.391	86.1
767.57	85.98
767.749	85.98
767.928	86.68
768.106	85.31
768.285	83.64
768.464	84.19
768.643	82.47
768.821	82
769	84.45
769.179	86.01
769.357	84.52
769.536	85.63
769.715	85.68
769.893	86.01
770.072	86.58
770.25	87.51
770.429	88.28
770.607	87.23
770.786	87.07
770.964	87.36
771.143	87.9
771.321	87.21
771.5	87.77
771.678	84.07
771.857	82.47
772.035	81.05
772.213	78.41
772.392	77.1
772.57	82.5
772.748	82.62
772.927	81.51
773.105	82.69
773.283	83.59
773.461	80.9
773.64	82.64
773.818	82.1
773.996	83.55
774.174	81.96
774.352	80.76
774.531	77.01
774.709	81.79
774.887	80.17
775.065	80.46
775.243	80.47
775.421	82.56
775.599	81.59
775.777	80.24
775.955	78.55
776.133	77.51
776.311	78.78
776.489	74.35
776.667	75.3
776.844	78.86
777.022	79.76
777.2	78.06
777.378	78.15
777.556	79.39
777.734	79.5
777.911	81.21
778.089	82.91
778.267	85.66
778.445	82.7
778.622	80.6
778.8	79.2
778.978	81.04
779.155	79.85
779.333	79.37
779.511	79.1
779.688	82.8
779.866	77.55
780.043	75.87
780.221	78.95
780.398	77.43
780.576	75.66
780.753	77.88
780.931	76.67
781.108	75.66
781.286	77.67
781.463	71.79
781.64	69.09
781.818	74.37
781.995	75.31
782.172	74.81
782.35	77.09
782.527	81.88
782.704	77.97
782.882	80.77
783.059	80.35
783.236	81.81
783.413	80.6
783.59	82.42
783.768	76.79
783.945	79.05
784.122	81.18
784.299	79.64
784.476	77.76
784.653	78.97
784.83	75.38
785.007	69.48
785.184	72.59
785.361	72.99
785.538	79.04
785.715	83.99
785.892	88.2
786.069	88.16
786.246	89.2
786.423	85.63
786.6	82.66
786.776	82.09
786.953	79.55
787.13	82.34
787.307	80.76
787.484	79.92
787.66	78.39
787.837	78.06
788.014	71.49
788.191	72.58
788.367	70.07
788.544	73.25
788.721	70.11
788.897	73.19
789.074	74.01
789.25	74.9
789.427	72.97
789.603	74.65
789.78	76.57
789.956	72.19
790.133	70.29
790.309	72.5
790.486	79.13
790.662	73.64
790.839	75.53
791.015	78.15
791.192	74.11
791.368	71.05
791.544	73.89
791.721	72.16
791.897	73.14
792.073	71.3
792.249	65.31
792.426	70.23
792.602	75.11
792.778	75.13
792.954	76.29
793.13	78.75
793.307	68.91
793.483	57.61
793.659	57.12
793.835	60.29
794.011	58.3
794.187	59.91
794.363	62.25
794.539	63.33
794.715	60.68
794.891	61.5
795.067	66.58
795.243	73.2
795.419	71.73
795.595	68.5
795.771	70.88
795.947	70.6
796.122	68.09
796.298	66.67
796.474	72.39
796.65	69.92
796.826	67.64
797.001	69.67
797.177	68.86
797.353	69.67
797.529	73.26
797.704	74.92
797.88	70.41
798.056	70.6
798.231	64.93
798.407	66.21
798.582	66.12
798.758	71.84
798.934	76.4
799.109	75.45
799.285	74.1
799.46	74.33
799.636	71.73
799.811	67.5
799.986	72.93
800.162	71.76
800.337	68.44
800.513	63.74
800.688	65.18
800.863	72.2
801.039	67.4
801.214	61.74
801.389	70.46
801.565	73.83
801.74	60.75
801.915	70.2
802.09	74.19
802.265	74.96
802.441	69.52
802.616	69.68
802.791	62.41
802.966	67.76
803.141	64
803.316	60.55
803.491	67.68
803.666	74.7
803.841	74.61
804.016	70.42
804.191	79
804.366	73.74
804.541	67.97
804.716	59.47
804.891	61
805.066	67.04
805.241	67.82
805.416	64.77
805.591	63.49
805.765	61.18
805.94	57.98
806.115	53.53
806.29	46.26
806.464	53.08
806.639	53.63
806.814	42.62
806.989	40.67
807.163	54.37
807.338	57.19
807.512	53.38
807.687	48.31
807.862	58.71
808.036	62.71
808.211	61.44
808.385	73.92
808.56	84.01
808.734	100.74
808.909	94.78
809.083	86.68
809.258	83.12
809.432	87.84
809.606	63.41
809.781	63.43
809.955	69.3
810.13	72.88
810.304	63.81
810.478	61.36
810.652	68.78
810.827	74.29
811.001	63.95
811.175	57.5
811.349	57.38
811.524	46.74
811.698	30.23
811.872	32.05
812.046	46.34
812.22	52.31
812.394	57.96
812.568	70.72
812.742	76.67
812.916	71.42
813.09	69.68
813.264	65.08
813.438	70.38
813.612	61.32
813.786	58.99
813.96	66.29
814.134	68.95
814.308	74.42
814.482	88.4
814.656	75.84
814.83	74.59
815.003	79.57
815.177	60.22
815.351	50.56
815.525	51.76
815.698	44.74
815.872	31.34
816.046	27.54
816.219	33.92
816.393	53.63
816.567	61.98
816.74	68.33
816.914	74.17
817.088	76.2
817.261	59.77
817.435	44.75
817.608	38.46
817.782	29.21
817.955	28.85
818.129	31.08
818.302	42.76
818.475	57.1
818.649	60.59
818.822	45.96
818.996	68.93
819.169	73.2
819.342	65.04
819.516	74.55
819.689	91
819.862	72.79
820.035	53.18
820.209	53.64
820.382	47.89
820.555	44.25
820.728	36.61
820.901	40.26
821.075	38.63
821.248	42.22
821.421	25.79
821.594	24.16
821.767	56.88
821.94	76.82
822.113	54.3
822.286	56.42
822.459	78.56
822.632	56.04
822.805	19.09
822.978	23.73
823.151	23.53
823.324	0.54
823.496	-22.96
823.669	-11.9
823.842	2.08
824.015	-7.41
824.188	-5.29
824.361	29.15
824.533	24.49
824.706	31.9
824.879	38.71
825.051	45.47
825.224	39.4
825.397	36.18
825.569	9.63
825.742	21.84
825.915	40.21
826.087	59.04
826.26	42.83
826.432	44.92
826.605	49.54
826.777	25.63
826.95	22.83
827.122	15.3
827.295	28.82
827.467	30.32
827.64	-0.52
827.812	-25.55
827.984	-6.39
828.157	-18.31
828.329	-56.47
828.501	-16.3
828.674	19.91
828.846	-6.42
829.018	7.21
829.19	-15.18
829.363	16.92
829.535	14.86
829.707	25.38
829.879	2.58
830.051	23.16
830.223	0.4
830.395	-26.35
830.568	-35.75
830.74	-14.72
830.912	15
831.084	2.3
831.256	-1.66
831.428	6.43
831.6	-16.39
831.772	-58.02
831.943	-73.55
832.115	-35.75
832.287	-10.07
832.459	11.46
832.631	35.18
832.803	72.36
832.975	97.22
833.146	69.14
833.318	76.13
833.49	66.59
833.662	42.62
833.833	14.57
834.005	28.17
834.177	21.69
834.348	16.31
834.52	-11.79
834.692	-23.98
834.863	-68.08
835.035	-56.1
835.206	-103.72
835.378	-45.85
835.549	-28.54
835.721	7.52
835.892	10.39
836.064	6.56
836.235	9.98
836.407	24.98
836.578	-31.45
836.749	-31.49
836.921	-31.36
837.092	-74.02
837.264	-76.27
837.435	-84.66
837.606	-38.62
837.777	3.25
837.949	21.39
838.12	24.62
838.291	51.29
838.462	33.42
838.633	-9.19
838.805	-13.29
838.976	-4.61
839.147	-63.01
839.318	-72.33
839.489	-111.4
839.66	-115.49
839.831	-55.93
840.002	-39.49
840.173	-49.54
840.344	13.77
840.515	25.09
840.686	-216.27
840.857	-164.43
841.028	-125.95
841.199	-92.52
841.369	-88.57
841.54	-44.31
841.711	-15.94
841.882	-5.98
842.053	-21.74
842.223	-28.3
842.394	2.18
842.565	-13.18
842.736	-3.21
842.906	2.9
843.077	13.07
843.248	29.55
843.418	40.34
843.589	38.63
843.759	96.4
843.93	134.31
844.101	36.83
844.271	41.38
844.442	50.05
844.612	45.78
844.783	5.9
844.953	-30.57
845.123	-70.83
845.294	-71.7
845.464	-276.64
845.635	-111.16
845.805	29.11
845.975	22.71
846.146	-6.87
846.316	-22.61
846.486	-10.16
846.656	15.69
846.827	14.16
846.997	-7.93
847.167	52.43
847.337	37.09
847.507	-32.75
847.677	-31.76
847.848	32.04
848.018	22.7
848.188	18.64
848.358	10.91
848.528	0.19
848.698	-43.86
848.868	-148.93
849.038	-182.09
849.208	-78.48
849.378	-18.84
849.548	11.35
849.718	24.77
849.887	30.91
850.057	34.82
850.227	3.75
850.397	-36.35
850.567	-110.76
850.737	-255.54
850.906	-1012.19
851.076	-719.34
851.246	-285.73
851.415	-20.18
851.585	-8.24
851.755	-34.05
851.924	-4.84
852.094	-21.12
852.264	-81.58
852.433	-729.57
852.603	-103.16
852.772	13.4
852.942	-32.89
853.111	-41.37
853.281	-23.51
853.45	25.52
853.62	-57.29
853.789	-57.65
853.959	-17.13
854.128	-23.69
854.297	-59.27
854.467	-90.75
854.636	-56.1
854.805	-10.92
854.975	-37.46
855.144	-126.51
855.313	147.03
855.482	-146.53
855.652	-104.49
855.821	-104.58
855.99	37.25
856.159	34.84
856.328	31.75
856.497	10.68
856.667	37.68
856.836	29.51
857.005	2.64
857.174	-33.69
857.343	-61.9
857.512	-29.24
857.681	-55.55
857.85	-122.39
858.019	-43.56
858.188	-35.24
858.356	-76.25
858.525	-154.57
858.694	-104.11
858.863	-207.25
859.032	-130.23
859.201	-201.19
859.369	-88.71
859.538	-73.35
859.707	-99.65
859.876	-130.41
860.044	-91.23
860.213	9.43
860.382	11.41
860.55	41.82
860.719	64.98
860.888	64.87
861.056	17.38
861.225	-28.85
861.393	15.03
861.562	-4.82
861.73	-80.81
861.899	-116.1
862.067	-630.17
862.236	14.28
862.404	-108.86
862.572	-53.35
862.741	1.11
862.909	-6.05
863.078	-147.9
863.246	-88.67
863.414	-59.51
863.582	-19.76
863.751	-26.43
863.919	-12.14
864.087	26.45
864.255	9.69
864.424	-379.98
864.592	-76.86
864.76	-121.12
864.928	-371.8
865.096	-170.94
865.264	-51.68
865.432	-776.7
865.6	196.63
865.768	-0.5
865.936	-17.95
866.104	-46.05
866.272	-102.11
866.44	-406.2
866.608	811.82
866.776	416.83
866.944	3452.91
867.112	-653.28
867.28	-244.65
867.448	-63.52
867.615	0.61
867.783	13.71
867.951	12.43
868.119	45.57
868.286	-2.74
868.454	-128.4
868.622	-153.16
868.789	-193.89
868.957	-4412.5
869.125	-2446.71
869.292	-146.62
869.46	-187.42
869.627	0.9
869.795	-11.66
869.963	19.65
870.13	51.97
870.298	54.76
870.465	-21.57
870.632	-71.02
870.8	-66.38
870.967	-153.9
871.135	-169.89
871.302	-155.38
871.469	-110.12
871.637	-129.09
871.804	-104.08
871.971	-192.64
872.139	-574.77
872.306	-109.99
872.473	-98.53
872.64	-409.33
872.807	-131.41
872.975	54
873.142	-127.55
873.309	1937.16
873.476	61.05
873.643	130.48
873.81	17.11
873.977	78.22
874.144	85.74
874.311	-74.06
874.478	-157.58
874.645	-176.95
874.812	-160.81
874.979	-97.09
875.146	-81.1
875.313	-113.59
875.48	-8.05
875.647	-14.22
875.813	-58.88
875.98	-24.5
876.147	-41.68
876.314	-127.38
876.481	1073.35
876.647	-1354.78
876.814	568.78
876.981	-12.6
877.147	0.04
877.314	28.19
877.481	56.51
877.647	48.34
877.814	6.5
877.98	-32.56
878.147	-17.98
878.314	28.34
878.48	-13.22
878.647	-27.76
878.813	27.41
878.979	19.24
879.146	-31.44
879.312	-57.43
879.479	-127.03
879.645	-226.54
879.811	-446.61
879.978	-943.32
880.144	-169.31
880.31	-83.27
880.477	-308.13
880.643	-339
880.809	-123.63
880.975	-155.74
881.142	-935.23
881.308	-122.41
881.474	-28.99
881.64	-54.13
881.806	-97.39
881.972	-1.59
882.138	-1.72
882.304	6.99
882.47	-82.69
882.636	-491.6
882.802	-173.81
882.968	23.33
883.134	9.13
883.3	-22.56
883.466	32.18
883.632	73.78
883.798	13.8
883.964	0.99
884.129	31.27
884.295	55.03
884.461	-35.35
884.627	-21.33
884.793	-64.22
884.958	-28.62
885.124	-136.06
885.29	-240.32
885.455	-448.42
885.621	-79.15
885.787	-148.78
885.952	-47.01
886.118	-46.72
886.283	-27.73
886.449	-132.67
886.614	-146.21
886.78	-337.98
886.945	1455.33
887.111	-676.16
887.276	-550.43
887.442	-913.41
887.607	-346.58
887.773	-181.45
887.938	-223.17
888.103	-226.55
888.269	-128.24
888.434	-121.49
888.599	-38.33
888.764	59.23
888.93	10.39
889.095	-17.87
889.26	-68.56
889.425	-33.61
889.59	21.94
889.756	38.08
889.921	51.89
890.086	84.38
890.251	53.71
890.416	-124.89
890.581	-1160.89
890.746	169.2
890.911	372.45
891.076	149.95
891.241	-161.01
891.406	77.97
891.571	32.05
891.736	-126.49
891.901	-368.81
892.065	866.76
892.23	230.23
892.395	365.12
892.56	479.41
892.725	-780.27
892.889	-1682.32
893.054	-241.25
893.219	-68.33
893.384	-35.79
893.548	-97.68
893.713	-121.98
893.878	-76.52
