Data from Ofra_PS_T2_1A_2CX10_Reflection_1.txt Node
Date: Wed Jul 21 17:50:18 EDT 2021
User: Adam
Spectrometer: FLMT01687
Trigger mode: 0
Integration Time (sec): 1.100000E0
Scans to average: 2
Electric dark correction enabled: true
Nonlinearity correction enabled: false
Boxcar width: 2
XAxis mode: Wavelengths
Number of Pixels in Spectrum: 3648
>>>>>Begin Spectral Data<<<<<
179.494	668.6
179.716	759.76
179.937	707.01
180.158	674.94
180.38	1076.09
180.601	424.17
180.823	134.21
181.044	-17.18
181.265	154.23
181.486	24.87
181.708	63.68
181.929	666.84
182.15	-532.04
182.372	116.64
182.593	-7.23
182.814	23.8
183.035	89.26
183.257	53.59
183.478	-77.18
183.699	-26.43
183.92	-26.09
184.141	-1.52
184.363	-30.14
184.584	34.56
184.805	32.98
185.026	44.17
185.247	41.02
185.468	23.19
185.689	24.47
185.91	32.06
186.132	15.74
186.353	6.42
186.574	48.04
186.795	36.75
187.016	-31.18
187.237	-20.72
187.458	-59.8
187.679	-50.74
187.9	-67.46
188.121	-40.29
188.342	-68.07
188.563	13.61
188.784	36.57
189.005	68.52
189.226	116.3
189.447	118.41
189.667	72.94
189.888	-295.44
190.109	-1507.47
190.33	-894.03
190.551	-1481.19
190.772	-367.49
190.993	-280.61
191.214	-221.34
191.434	-128.47
191.655	-30.89
191.876	-76.69
192.097	-139.47
192.318	-173.31
192.538	-277.93
192.759	-220.51
192.98	-128.23
193.201	-52.15
193.421	-27.73
193.642	-12.62
193.863	-7.11
194.083	-29.63
194.304	-31.07
194.525	-30.69
194.745	-38
194.966	-77.83
195.187	-63.32
195.407	-113.51
195.628	-197.6
195.848	-202.83
196.069	-183.63
196.29	-119.81
196.51	-128.45
196.731	-107.29
196.951	-124.21
197.172	-132.37
197.392	-174.27
197.613	-152.99
197.833	-176.74
198.054	-136.91
198.274	-73.72
198.495	-67.84
198.715	-54.94
198.936	-62.29
199.156	-58.43
199.377	-161.16
199.597	-154.72
199.817	-116.66
200.038	-53.87
200.258	-97.32
200.479	-28.12
200.699	-85.29
200.919	-40.56
201.14	-57.13
201.36	-83.17
201.58	-16.53
201.801	37.59
202.021	-1.31
202.241	-11.01
202.461	3.1
202.682	-91.57
202.902	-203.82
203.122	-139.93
203.342	-96.47
203.563	-56.42
203.783	-7.17
204.003	-41.1
204.223	-31.32
204.443	18.32
204.663	-16.28
204.884	-15.23
205.104	20.89
205.324	59.71
205.544	51.66
205.764	66.36
205.984	67.15
206.204	63.5
206.424	48.14
206.644	7.25
206.864	13.49
207.084	-77.86
207.304	-60.06
207.525	-256.8
207.745	-127.72
207.964	-90.82
208.184	-108.5
208.404	-162.82
208.624	-156.87
208.844	-164.48
209.064	-502.48
209.284	-491.9
209.504	-238.04
209.724	-80.58
209.944	-59.02
210.164	-1.75
210.384	3.28
210.604	15.55
210.823	-16.7
211.043	-32.16
211.263	-56.08
211.483	-52.04
211.703	-129.58
211.922	-117.39
212.142	-38.62
212.362	-33.14
212.582	-32.66
212.801	-20.67
213.021	-40.82
213.241	-78.98
213.461	-100.56
213.68	-135.43
213.9	-105.54
214.12	-67.9
214.339	-137.1
214.559	-98.13
214.779	-19.11
214.998	-13
215.218	-50.47
215.438	3.28
215.657	1.96
215.877	-22.62
216.096	-9.68
216.316	10.61
216.535	-7.25
216.755	-16.13
216.974	-112.74
217.194	-162.72
217.413	-160.41
217.633	-167.27
217.852	-270.59
218.072	-107.82
218.291	-55.71
218.511	-13.04
218.73	-17.62
218.95	-16.05
219.169	-27.43
219.389	-53.99
219.608	-50.26
219.827	-48.02
220.047	-45.21
220.266	-19.41
220.485	-36.3
220.705	-36.77
220.924	-53.4
221.143	-6.82
221.363	-36.23
221.582	-9.52
221.801	2.32
222.021	14.64
222.24	-45.64
222.459	23.28
222.678	-15.47
222.897	-114.83
223.117	-131.3
223.336	-98.69
223.555	-58.1
223.774	-25.27
223.993	7.98
224.213	63.82
224.432	36.12
224.651	45.11
224.87	17.3
225.089	27.18
225.308	14.73
225.527	37.77
225.746	15.71
225.965	5.69
226.184	-19.11
226.404	-1.17
226.623	-34.61
226.842	-22.97
227.061	1.21
227.28	8.83
227.499	-3.45
227.718	19.79
227.936	18.47
228.155	33.44
228.374	28.64
228.593	20.16
228.812	-0.2
229.031	-16.7
229.25	-73.85
229.469	-76.87
229.688	-51.98
229.907	13.27
230.125	40.37
230.344	55.38
230.563	53.93
230.782	51.15
231.001	-41.01
231.22	-36.61
231.438	3.58
231.657	-4.69
231.876	-20.09
232.095	30.94
232.313	16.85
232.532	-32.22
232.751	-34.38
232.969	-59.86
233.188	-143.2
233.407	-12.88
233.625	-5.42
233.844	-25.86
234.063	3.59
234.281	22.98
234.5	-1.6
234.719	4.93
234.937	21.96
235.156	22.93
235.374	10.06
235.593	1.45
235.811	-4.8
236.03	2.03
236.249	-67.79
236.467	-59.45
236.686	-20.17
236.904	-11.76
237.123	-44.04
237.341	-17.57
237.559	-13.75
237.778	-51
237.996	-68.52
238.215	-25
238.433	-12.33
238.652	-15.65
238.87	-30.22
239.088	-23.91
239.307	-35.2
239.525	-60.07
239.743	-83.99
239.962	-61.27
240.18	-86.67
240.398	-154.04
240.617	-145.72
240.835	-117.87
241.053	-104.65
241.271	-36.16
241.49	25.91
241.708	8.42
241.926	-9.6
242.144	-1.48
242.363	-80.28
242.581	-96.98
242.799	-52.19
243.017	-20.24
243.235	-50.51
243.453	-17.49
243.672	-26.89
243.89	-24.54
244.108	-44.36
244.326	-14.19
244.544	-23.06
244.762	-16.9
244.98	-1.05
245.198	-1.85
245.416	-30.79
245.634	-30.63
245.852	-51.82
246.07	-60.75
246.288	-56.91
246.506	-75.05
246.724	-35.04
246.942	-28.28
247.16	-21.63
247.378	-13.1
247.596	21.07
247.814	7.51
248.032	-12.07
248.25	-23.87
248.468	0.87
248.685	2.94
248.903	29.35
249.121	44.95
249.339	34.7
249.557	24.93
249.775	31.3
249.992	-34.56
250.21	-56.58
250.428	-52.57
250.646	-87.52
250.863	-131.58
251.081	-103.54
251.299	-107.91
251.517	-100.91
251.734	-65.48
251.952	-54.39
252.17	-39.34
252.387	-11.72
252.605	-15.18
252.823	-19.79
253.04	0.91
253.258	8.3
253.475	-10.43
253.693	18.05
253.911	15.3
254.128	14.18
254.346	19.85
254.563	11.58
254.781	-15.2
254.998	-26.16
255.216	-33.52
255.433	-36.74
255.651	0.02
255.868	37.31
256.086	68.27
256.303	48.33
256.521	44.95
256.738	16.69
256.956	-21.13
257.173	-43.22
257.39	-71.8
257.608	-98
257.825	-42.74
258.043	15.38
258.26	4.14
258.477	54.18
258.695	44.68
258.912	-32.96
259.129	-42.66
259.346	-64.31
259.564	-109.58
259.781	-142.48
259.998	-41.51
260.216	-19.95
260.433	12.8
260.65	8.24
260.867	33.37
261.084	-8.69
261.302	-25.5
261.519	-41.28
261.736	-56.74
261.953	-78
262.17	-29.22
262.387	-51.76
262.604	-75.75
262.822	-72.87
263.039	-58.79
263.256	-114.24
263.473	-76.58
263.69	-49.09
263.907	3.87
264.124	27.74
264.341	25.83
264.558	12.65
264.775	21.47
264.992	5.1
265.209	-1.51
265.426	27.62
265.643	26.55
265.86	46.14
266.077	49.05
266.294	24.68
266.51	-21.61
266.727	-17.63
266.944	-23.33
267.161	-41.33
267.378	-32.88
267.595	1.22
267.812	-19.58
268.028	-21.09
268.245	9.07
268.462	-16.63
268.679	-31.41
268.896	16.09
269.112	15.16
269.329	1.1
269.546	6.21
269.763	0.48
269.979	-26.18
270.196	-34.42
270.413	-54.35
270.629	-68.81
270.846	-80.57
271.063	-71.34
271.279	-90.14
271.496	-71.4
271.712	-44.09
271.929	-32.85
272.146	-56.41
272.362	-56.98
272.579	-25.44
272.795	-2.24
273.012	2.18
273.228	13.38
273.445	-8.22
273.661	-46.82
273.878	-80.71
274.094	-69.59
274.311	-92.75
274.527	-14.25
274.744	0.21
274.96	-10.13
275.177	-0.65
275.393	11.35
275.609	-9.67
275.826	5.57
276.042	-0.16
276.259	-17.64
276.475	5.93
276.691	11.96
276.908	-20.15
277.124	-4.25
277.34	-6.66
277.557	-13.52
277.773	-16.74
277.989	-6.06
278.205	-12.49
278.422	3.89
278.638	-4.93
278.854	10.81
279.07	8.99
279.286	2.15
279.503	-22.77
279.719	-26.82
279.935	-66.77
280.151	-77.3
280.367	-39.76
280.583	-57.17
280.799	-54.94
281.016	-74.34
281.232	-41.62
281.448	-54.98
281.664	-4.11
281.88	-25.79
282.096	12.5
282.312	40.91
282.528	66.82
282.744	53.68
282.96	55.36
283.176	26.66
283.392	7.1
283.608	-5.22
283.824	-8.98
284.04	-1.47
284.256	3.31
284.471	1.84
284.687	4.86
284.903	13.66
285.119	36.48
285.335	14.79
285.551	31.01
285.767	0.02
285.982	-20.64
286.198	-89.1
286.414	-22.22
286.63	-19.63
286.846	10.32
287.061	-14.09
287.277	25.4
287.493	-8.65
287.709	-3.69
287.924	-19.2
288.14	33.09
288.356	34.78
288.571	58.74
288.787	41.38
289.003	42.71
289.218	1.94
289.434	-37.84
289.65	-35.09
289.865	-50.32
290.081	-16.93
290.296	13.76
290.512	16.26
290.727	-29.44
290.943	-18.99
291.159	-36.96
291.374	-39.79
291.59	-39.2
291.805	-20.68
292.021	-16.24
292.236	-19.93
292.451	-4.5
292.667	0.3
292.882	6.86
293.098	4.9
293.313	-22.97
293.529	-51.54
293.744	-83.14
293.959	-77.2
294.175	-63.54
294.39	-21.1
294.605	-7.47
294.821	19.67
295.036	20.83
295.251	18.5
295.467	-5.61
295.682	-13.91
295.897	-80.94
296.112	-94.1
296.328	-81.74
296.543	-103.16
296.758	-96.78
296.973	-20.9
297.188	22.97
297.404	-8.32
297.619	-6.26
297.834	-27.44
298.049	-60.99
298.264	-92.44
298.479	-31.43
298.694	-15.9
298.909	6.91
299.125	9.49
299.34	20.46
299.555	-2.26
299.77	-7.53
299.985	-51
300.2	-100.44
300.415	-129.28
300.63	-72.43
300.845	-67.89
301.06	-53.13
301.275	-11.84
301.49	-1.84
301.704	-27.72
301.919	-45.12
302.134	-57.16
302.349	-59.59
302.564	-114.02
302.779	-140.43
302.994	-116.58
303.209	-59.82
303.423	-16.54
303.638	32.8
303.853	-17.34
304.068	-26.48
304.283	-19.34
304.497	-30.28
304.712	-47.47
304.927	-11.64
305.142	-28.75
305.356	-26.63
305.571	-32.53
305.786	-48.02
306	-72.9
306.215	-48.8
306.43	-82.71
306.644	-82.31
306.859	-16.56
307.074	5.95
307.288	-19.38
307.503	-20.91
307.717	-29.79
307.932	-44.52
308.147	-63.07
308.361	-32.13
308.576	-37.14
308.79	-78.79
309.005	-64.89
309.219	-47.24
309.434	-69.63
309.648	-63.26
309.863	-29.88
310.077	-37.16
310.292	-23.42
310.506	-22.62
310.72	-4.83
310.935	-5.45
311.149	-12.08
311.364	-2.52
311.578	8.52
311.792	-4.81
312.007	14.86
312.221	-4.04
312.435	-12.74
312.649	-22.83
312.864	6.34
313.078	6.8
313.292	72.89
313.507	49.28
313.721	83.07
313.935	22.23
314.149	-4.78
314.363	-5.32
314.578	-3.75
314.792	5.85
315.006	-5.03
315.22	11.03
315.434	18.63
315.648	25.41
315.862	14.08
316.077	12.18
316.291	16.76
316.505	0.99
316.719	0.35
316.933	-27.43
317.147	-28.54
317.361	-95.87
317.575	-106.49
317.789	-151.1
318.003	-223.92
318.217	-188.59
318.431	-80.4
318.645	-15.69
318.859	2.64
319.073	39.88
319.287	36.21
319.5	0.98
319.714	-55.76
319.928	-85.47
320.142	-138.33
320.356	-102.74
320.57	-49.37
320.784	-38.83
320.997	-27.21
321.211	-23.71
321.425	-84.11
321.639	-132.38
321.853	-60.99
322.066	-55.61
322.28	-47.72
322.494	-37.08
322.707	-6.53
322.921	-30.19
323.135	-26.57
323.349	-12.49
323.562	-25.5
323.776	-39.46
323.989	-41.59
324.203	-64.18
324.417	-81.17
324.63	-91.07
324.844	-86.24
325.057	-97.96
325.271	-59.71
325.485	-20.91
325.698	6.05
325.912	11.56
326.125	-11.94
326.339	-17.39
326.552	-40.29
326.766	-50.8
326.979	-27.08
327.193	31.34
327.406	16.29
327.619	3.07
327.833	26.59
328.046	-5.85
328.26	-49.31
328.473	-21.85
328.686	-42.9
328.9	-50.22
329.113	-33.21
329.326	-58.34
329.54	-41.2
329.753	-44.05
329.966	-65.84
330.179	-46.76
330.393	-13.83
330.606	-13.83
330.819	7.22
331.032	21.33
331.246	18.65
331.459	50.26
331.672	34.22
331.885	17.19
332.098	-11.7
332.311	-27
332.525	-118.61
332.738	-95.62
332.951	-44.68
333.164	-14.91
333.377	7.32
333.59	39.42
333.803	35.31
334.016	16.86
334.229	5.84
334.442	0.79
334.655	13.49
334.868	30.22
335.081	44.34
335.294	36.7
335.507	20.54
335.72	-3.92
335.933	-36.87
336.146	-77.41
336.359	-62.22
336.572	-91.51
336.785	-114.29
336.997	-97.08
337.21	-52.15
337.423	-66.05
337.636	-48.52
337.849	-33.06
338.062	-34.35
338.274	-24.87
338.487	-30.77
338.7	-25.76
338.913	-58.64
339.125	-79.13
339.338	-154.04
339.551	-122.41
339.763	-77.11
339.976	-35.4
340.189	-6.57
340.402	18.62
340.614	-9.84
340.827	-21.56
341.039	-46.34
341.252	-38.02
341.465	-28.53
341.677	-26.73
341.89	-65.44
342.102	-20.48
342.315	-40.38
342.527	-73.15
342.74	-47.36
342.952	-18.35
343.165	-26.18
343.377	0.79
343.59	-5.8
343.802	14.01
344.015	23.76
344.227	28.02
344.44	13.21
344.652	22.01
344.864	-5.35
345.077	20.72
345.289	22.73
345.502	21.41
345.714	17.02
345.926	23.72
346.139	5
346.351	14.13
346.563	23.29
346.775	28.1
346.988	14.4
347.2	-7.1
347.412	-64.76
347.624	-92.07
347.837	-109.52
348.049	-68.92
348.261	-1.83
348.473	23.12
348.685	9.27
348.897	-17.8
349.11	-48.13
349.322	-97.98
349.534	-112.45
349.746	-87.57
349.958	-50.46
350.17	-39.05
350.382	-17.47
350.594	-11.43
350.806	-9.83
351.018	-15.38
351.23	-39.93
351.442	-108.32
351.654	-123.48
351.866	-118.26
352.078	-109.35
352.29	-48.17
352.502	-20.96
352.714	-8.7
352.926	-15.23
353.138	-12.04
353.35	-31.27
353.561	-22.46
353.773	-36.83
353.985	-20.54
354.197	-27.35
354.409	-24.62
354.621	-31.85
354.832	-24.14
355.044	-34.88
355.256	-35.87
355.468	-20.61
355.679	-33.13
355.891	-19.82
356.103	-34.81
356.314	-7.25
356.526	-9.23
356.738	7.6
356.949	-8.57
357.161	7.66
357.373	-13.2
357.584	-23.47
357.796	-12.15
358.008	-16.46
358.219	-5.53
358.431	-10.51
358.642	-10.66
358.854	-15.49
359.065	-32.76
359.277	-65.78
359.488	-69.04
359.7	-93.36
359.911	-112.3
360.123	-77.94
360.334	-88.76
360.546	-111.39
360.757	-93.65
360.969	-62.97
361.18	-56.29
361.391	-20.81
361.603	-27.65
361.814	-4.94
362.025	-20.07
362.237	-17.37
362.448	-10.59
362.659	8.78
362.871	-7.95
363.082	-8.4
363.293	-11.15
363.504	-26.09
363.716	-52.16
363.927	-63.32
364.138	-78.62
364.349	-91.4
364.56	-81.46
364.772	-72.8
364.983	-43.59
365.194	-43.53
365.405	-24.69
365.616	-5.31
365.827	-3.57
366.038	-33.96
366.25	-34.48
366.461	-97.4
366.672	-79.89
366.883	-44.77
367.094	-25.65
367.305	-28.9
367.516	-10.3
367.727	-44.06
367.938	-56.67
368.149	-53.18
368.36	-40.39
368.571	-23.25
368.781	-35.56
368.992	-56.59
369.203	-75.86
369.414	-92.51
369.625	-101.3
369.836	-73.76
370.047	-88.08
370.258	-73.7
370.468	-74.73
370.679	-92.64
370.89	-90.13
371.101	-57.31
371.312	-63.1
371.522	-45.73
371.733	-39.18
371.944	-20.61
372.155	-16.66
372.365	-23.16
372.576	-33.25
372.787	-24.43
372.997	-48.39
373.208	-59.58
373.419	-22.82
373.629	-53.5
373.84	-65.89
374.05	-77.49
374.261	-55.08
374.472	-78.19
374.682	-5.91
374.893	-7.38
375.103	29.5
375.314	16.46
375.524	6.44
375.735	-9.93
375.945	1.54
376.156	-25.12
376.366	-15
376.577	1.27
376.787	-8.36
376.997	5.04
377.208	3.94
377.418	-15.72
377.629	-3.42
377.839	-1.74
378.049	-6.16
378.26	10.53
378.47	16.47
378.68	1.06
378.89	-3.83
379.101	-16.23
379.311	-55.94
379.521	-84.56
379.732	-93.73
379.942	-83.71
380.152	-90.29
380.362	-45.15
380.572	-33.56
380.783	-15.95
380.993	-6.52
381.203	-1.71
381.413	-0.74
381.623	6.94
381.833	3.75
382.043	-7.3
382.253	-9.38
382.463	-8.49
382.674	-21.28
382.884	-39.29
383.094	-38.6
383.304	-36.39
383.514	-29.68
383.724	-15.16
383.934	-12.37
384.144	-21.67
384.353	-24.75
384.563	-31.69
384.773	-29.99
384.983	-35.1
385.193	-19.62
385.403	-16.51
385.613	-16.39
385.823	-29.54
386.033	-20.36
386.242	-28.17
386.452	-25.3
386.662	-36.29
386.872	-20.55
387.082	-29.24
387.291	-35.14
387.501	-35.27
387.711	-19.44
387.921	-32.14
388.13	-24.65
388.34	-7.33
388.55	-15.47
388.759	-19.07
388.969	-5.16
389.179	-9.5
389.388	-14.01
389.598	-4.59
389.807	-9.39
390.017	-16.11
390.227	-10.02
390.436	-11.79
390.646	-11.97
390.855	-4.71
391.065	-4.62
391.274	-9.49
391.484	-8.56
391.693	-7.37
391.903	-8.67
392.112	-2.25
392.322	0.98
392.531	2.2
392.74	2.84
392.95	-2.01
393.159	-6.3
393.369	-5.25
393.578	-5.28
393.787	-7.36
393.997	-4.56
394.206	-4.56
394.415	-4.9
394.625	-5.11
394.834	-6.37
395.043	-4.63
395.252	-2.68
395.462	-0.85
395.671	0.86
395.88	2.47
396.089	3.64
396.298	1.35
396.508	0.63
396.717	0.05
396.926	1.23
397.135	0.02
397.344	0
397.553	0.66
397.762	1.92
397.971	1.1
398.181	1.19
398.39	1.25
398.599	0.67
398.808	0.29
399.017	2.12
399.226	3.29
399.435	4.75
399.644	4.74
399.853	3.71
400.062	2.24
400.27	1.75
400.479	1.2
400.688	0.64
400.897	1.13
401.106	1.39
401.315	1.11
401.524	1.29
401.733	2.41
401.941	2.86
402.15	2.99
402.359	2.84
402.568	3.07
402.777	2.64
402.985	2.36
403.194	2.34
403.403	2.62
403.612	2.18
403.82	2.37
404.029	2.61
404.238	2.43
404.446	2.46
404.655	2.32
404.864	2.22
405.072	1.84
405.281	1.97
405.489	1.72
405.698	1.79
405.906	1.73
406.115	1.79
406.324	1.81
406.532	1.92
406.741	2.32
406.949	2.36
407.158	2.43
407.366	2.43
407.574	2.48
407.783	2.29
407.991	2.06
408.2	2.29
408.408	2.28
408.617	2.26
408.825	2.08
409.033	2.26
409.242	2.13
409.45	2.18
409.658	2.02
409.867	2.3
410.075	2.12
410.283	2.04
410.491	1.9
410.7	1.95
410.908	1.84
411.116	2.31
411.324	2.32
411.533	2.28
411.741	2.52
411.949	2.6
412.157	2.18
412.365	2.2
412.573	2.34
412.781	2.31
412.99	2.11
413.198	2.33
413.406	2.25
413.614	2.21
413.822	2.05
414.03	2.08
414.238	1.8
414.446	1.91
414.654	1.71
414.862	1.74
415.07	1.83
415.278	2.1
415.486	1.86
415.694	2.07
415.902	2.05
416.109	1.93
416.317	1.84
416.525	1.85
416.733	1.74
416.941	1.8
417.149	1.7
417.357	1.67
417.564	1.88
417.772	2.12
417.98	2.08
418.188	2.06
418.395	2.1
418.603	2.24
418.811	1.79
419.019	1.7
419.226	2.06
419.434	2.17
419.642	1.76
419.849	2.08
420.057	2.1
420.265	1.95
420.472	1.6
420.68	1.75
420.887	1.51
421.095	1.58
421.302	1.6
421.51	1.91
421.717	2.02
421.925	2.16
422.132	2.03
422.34	1.76
422.547	1.69
422.755	1.53
422.962	1.4
423.17	1.29
423.377	1.49
423.585	1.49
423.792	1.39
423.999	1.47
424.207	1.57
424.414	1.8
424.621	1.88
424.829	2.02
425.036	2.05
425.243	2.19
425.451	1.74
425.658	1.38
425.865	1.55
426.072	1.53
426.28	1.66
426.487	1.78
426.694	2.1
426.901	1.84
427.108	1.88
427.315	1.71
427.523	1.94
427.73	1.82
427.937	1.9
428.144	1.76
428.351	1.69
428.558	1.86
428.765	1.81
428.972	1.73
429.179	1.94
429.386	2.22
429.593	1.84
429.8	1.72
430.007	1.87
430.214	1.85
430.421	1.6
430.628	1.46
430.835	1.47
431.042	1.51
431.249	1.6
431.456	1.65
431.662	1.9
431.869	2.25
432.076	2.26
432.283	2.25
432.49	2.2
432.697	2.27
432.903	1.86
433.11	1.76
433.317	1.93
433.524	2.2
433.73	2.06
433.937	2.43
434.144	2.38
434.35	2.24
434.557	1.99
434.764	2.06
434.97	1.87
435.177	2.09
435.384	1.93
435.59	2.02
435.797	2.2
436.003	2.32
436.21	2.18
436.416	2.31
436.623	2.27
436.829	2.28
437.036	2.25
437.242	2.27
437.449	2.24
437.655	2.26
437.862	2.2
438.068	2.19
438.275	2.28
438.481	2.54
438.687	2.54
438.894	2.48
439.1	2.52
439.307	2.78
439.513	2.56
439.719	2.59
439.926	2.72
440.132	2.73
440.338	2.42
440.544	2.63
440.751	2.55
440.957	2.57
441.163	2.42
441.369	2.54
441.575	2.28
441.782	2.29
441.988	2.12
442.194	2.24
442.4	2.19
442.606	2.47
442.812	2.64
443.018	2.83
443.224	2.86
443.431	2.98
443.637	2.73
443.843	2.6
444.049	2.54
444.255	2.52
444.461	2.51
444.667	2.51
444.873	2.67
445.079	2.65
445.284	2.71
445.49	2.49
445.696	2.45
445.902	2.27
446.108	2.18
446.314	2.15
446.52	2.26
446.726	2.5
446.931	2.58
447.137	2.7
447.343	2.76
447.549	2.78
447.755	2.52
447.96	2.6
448.166	2.42
448.372	2.32
448.578	2.33
448.783	2.46
448.989	2.53
449.195	2.79
449.4	2.79
449.606	2.72
449.812	2.63
450.017	2.61
450.223	2.45
450.428	2.44
450.634	2.66
450.84	2.79
451.045	2.66
451.251	2.61
451.456	2.93
451.662	2.91
451.867	2.96
452.073	3.05
452.278	3.27
452.483	3.27
452.689	3.17
452.894	3.19
453.1	3.16
453.305	3.05
453.51	2.93
453.716	2.88
453.921	2.85
454.127	2.8
454.332	2.74
454.537	2.62
454.742	2.62
454.948	2.59
455.153	2.65
455.358	2.73
455.563	2.97
455.769	3.07
455.974	3.07
456.179	2.96
456.384	2.91
456.589	2.73
456.795	2.54
457	2.46
457.205	2.68
457.41	2.65
457.615	2.71
457.82	2.85
458.025	3.02
458.23	2.89
458.435	2.93
458.64	2.73
458.845	2.88
459.05	2.84
459.255	2.91
459.46	2.95
459.665	3.07
459.87	3
460.075	2.93
460.28	2.97
460.485	3.01
460.69	3.05
460.895	2.91
461.099	2.84
461.304	2.96
461.509	2.97
461.714	2.9
461.919	3.01
462.123	2.99
462.328	2.92
462.533	2.78
462.738	2.98
462.942	2.89
463.147	3.02
463.352	3.08
463.556	3.16
463.761	3.1
463.966	3.16
464.17	3.15
464.375	2.9
464.58	2.87
464.784	2.74
464.989	2.74
465.193	2.79
465.398	2.9
465.602	3.08
465.807	3.09
466.011	3.16
466.216	3.21
466.42	3.23
466.625	3.29
466.829	3.42
467.034	3.45
467.238	3.6
467.443	3.6
467.647	3.38
467.851	3.49
468.056	3.53
468.26	3.32
468.464	3.37
468.669	3.59
468.873	3.63
469.077	3.56
469.282	3.7
469.486	3.8
469.69	3.8
469.894	3.64
470.099	3.74
470.303	3.8
470.507	3.66
470.711	3.55
470.915	3.56
471.119	3.51
471.324	3.43
471.528	3.53
471.732	3.52
471.936	3.54
472.14	3.59
472.344	3.64
472.548	3.59
472.752	3.85
472.956	4.1
473.16	4.03
473.364	3.92
473.568	3.93
473.772	3.85
473.976	3.66
474.18	3.72
474.384	3.82
474.588	3.86
474.792	3.72
474.995	3.81
475.199	3.88
475.403	3.88
475.607	3.9
475.811	3.9
476.015	3.92
476.218	3.92
476.422	3.93
476.626	4.05
476.83	4.25
477.033	4.18
477.237	4.12
477.441	4.17
477.644	4.04
477.848	4
478.052	4
478.255	4.02
478.459	4
478.663	4.18
478.866	4.19
479.07	4.24
479.273	4.42
479.477	4.48
479.681	4.44
479.884	4.39
480.088	4.36
480.291	4.26
480.495	4.24
480.698	4.22
480.901	4.3
481.105	4.42
481.308	4.46
481.512	4.42
481.715	4.49
481.919	4.55
482.122	4.52
482.325	4.5
482.529	4.56
482.732	4.51
482.935	4.38
483.138	4.31
483.342	4.39
483.545	4.42
483.748	4.5
483.952	4.58
484.155	4.74
484.358	4.68
484.561	4.69
484.764	4.65
484.967	4.73
485.171	4.76
485.374	4.71
485.577	4.8
485.78	4.82
485.983	4.79
486.186	4.61
486.389	4.65
486.592	4.62
486.795	4.63
486.998	4.59
487.201	4.8
487.404	4.94
487.607	4.92
487.81	4.98
488.013	5.08
488.216	4.96
488.419	4.87
488.622	4.82
488.825	4.69
489.028	4.6
489.231	4.59
489.433	4.51
489.636	4.51
489.839	4.55
490.042	4.51
490.245	4.47
490.447	4.56
490.65	4.56
490.853	4.56
491.056	4.59
491.258	4.64
491.461	4.68
491.664	4.76
491.866	4.69
492.069	4.82
492.272	4.79
492.474	4.83
492.677	4.9
492.879	5
493.082	5
493.285	5.19
493.487	5.13
493.69	4.93
493.892	4.83
494.095	4.81
494.297	4.71
494.5	4.76
494.702	4.94
494.905	5.03
495.107	5.06
495.309	5.1
495.512	5.12
495.714	5.09
495.917	5.13
496.119	5.06
496.321	5.14
496.524	5.21
496.726	5.21
496.928	5.26
497.13	5.25
497.333	5.16
497.535	5.12
497.737	5.1
497.939	5.08
498.142	5.18
498.344	5.21
498.546	5.15
498.748	5.21
498.95	5.38
499.152	5.27
499.355	5.3
499.557	5.42
499.759	5.52
499.961	5.39
500.163	5.52
500.365	5.55
500.567	5.6
500.769	5.54
500.971	5.59
501.173	5.49
501.375	5.53
501.577	5.48
501.779	5.45
501.981	5.44
502.183	5.46
502.385	5.41
502.587	5.29
502.788	5.42
502.99	5.46
503.192	5.51
503.394	5.56
503.596	5.67
503.798	5.68
503.999	5.73
504.201	5.78
504.403	5.76
504.605	5.81
504.806	5.74
505.008	5.7
505.21	5.76
505.411	5.83
505.613	5.83
505.815	5.85
506.016	5.98
506.218	6.06
506.42	6.01
506.621	6.03
506.823	6.07
507.024	5.96
507.226	5.87
507.427	5.89
507.629	5.97
507.83	6.09
508.032	6.09
508.233	6.23
508.435	6.31
508.636	6.4
508.838	6.3
509.039	6.35
509.24	6.34
509.442	6.35
509.643	6.21
509.845	6.22
510.046	6.35
510.247	6.39
510.448	6.44
510.65	6.56
510.851	6.7
511.052	6.63
511.254	6.57
511.455	6.68
511.656	6.73
511.857	6.78
512.058	6.81
512.26	6.81
512.461	6.78
512.662	6.8
512.863	6.66
513.064	6.7
513.265	6.75
513.466	6.74
513.667	6.72
513.868	6.74
514.069	6.8
514.27	6.9
514.471	6.89
514.672	6.92
514.873	6.96
515.074	6.98
515.275	6.85
515.476	6.89
515.677	6.91
515.878	7.12
516.079	7.06
516.28	7.15
516.481	7.24
516.682	7.27
516.882	7.08
517.083	7.15
517.284	7.13
517.485	7.06
517.686	7.05
517.886	7.07
518.087	7.08
518.288	7.12
518.488	7.11
518.689	7.11
518.89	7.09
519.091	7.09
519.291	7.09
519.492	7.14
519.692	7.2
519.893	7.31
520.094	7.34
520.294	7.3
520.495	7.29
520.695	7.33
520.896	7.31
521.096	7.37
521.297	7.46
521.497	7.45
521.698	7.4
521.898	7.38
522.099	7.36
522.299	7.43
522.499	7.47
522.7	7.47
522.9	7.49
523.101	7.58
523.301	7.54
523.501	7.54
523.702	7.58
523.902	7.68
524.102	7.69
524.302	7.6
524.503	7.66
524.703	7.67
524.903	7.65
525.103	7.57
525.304	7.73
525.504	7.75
525.704	7.82
525.904	7.78
526.104	7.84
526.304	7.81
526.504	7.84
526.705	7.85
526.905	7.98
527.105	7.98
527.305	7.95
527.505	7.9
527.705	7.85
527.905	7.82
528.105	7.8
528.305	7.81
528.505	7.92
528.705	8.03
528.905	7.99
529.105	8.02
529.304	8.11
529.504	8.15
529.704	8.07
529.904	8.13
530.104	8.15
530.304	8.23
530.503	8.14
530.703	8.09
530.903	8.11
531.103	8.15
531.303	8.08
531.502	8.13
531.702	8.28
531.902	8.34
532.101	8.34
532.301	8.33
532.501	8.36
532.7	8.33
532.9	8.31
533.1	8.33
533.299	8.37
533.499	8.41
533.698	8.36
533.898	8.38
534.097	8.41
534.297	8.5
534.496	8.5
534.696	8.58
534.895	8.68
535.095	8.77
535.294	8.71
535.494	8.69
535.693	8.71
535.892	8.72
536.092	8.62
536.291	8.63
536.491	8.71
536.69	8.74
536.889	8.65
537.088	8.69
537.288	8.74
537.487	8.77
537.686	8.75
537.886	8.85
538.085	8.94
538.284	9.04
538.483	9.01
538.682	9.11
538.882	9.11
539.081	9.15
539.28	9.07
539.479	9.14
539.678	9.1
539.877	9.18
540.076	9.16
540.275	9.22
540.474	9.31
540.673	9.41
540.872	9.4
541.071	9.48
541.27	9.49
541.469	9.53
541.668	9.54
541.867	9.61
542.066	9.61
542.265	9.71
542.464	9.67
542.663	9.72
542.862	9.82
543.06	9.92
543.259	9.95
543.458	10.03
543.657	10.13
543.856	10.1
544.054	10.11
544.253	10.09
544.452	10.09
544.651	10.15
544.849	10.19
545.048	10.19
545.247	10.25
545.445	10.37
545.644	10.38
545.843	10.38
546.041	10.4
546.24	10.54
546.438	10.64
546.637	10.65
546.836	10.82
547.034	10.93
547.233	10.95
547.431	10.9
547.63	10.93
547.828	10.89
548.027	10.98
548.225	10.98
548.423	11.02
548.622	11.19
548.82	11.16
549.019	11.17
549.217	11.25
549.415	11.32
549.614	11.29
549.812	11.39
550.01	11.41
550.209	11.5
550.407	11.62
550.605	11.67
550.803	11.82
551.002	11.96
551.2	12.01
551.398	12.06
551.596	12.21
551.794	12.25
551.993	12.34
552.191	12.37
552.389	12.46
552.587	12.51
552.785	12.59
552.983	12.6
553.181	12.78
553.379	12.85
553.577	12.89
553.775	13.02
553.973	13.17
554.171	13.2
554.369	13.2
554.567	13.3
554.765	13.33
554.963	13.46
555.161	13.44
555.359	13.57
555.557	13.7
555.755	13.78
555.952	13.76
556.15	13.95
556.348	14.05
556.546	14.14
556.744	14.18
556.941	14.25
557.139	14.28
557.337	14.34
557.535	14.32
557.732	14.47
557.93	14.63
558.128	14.73
558.325	14.84
558.523	14.93
558.721	15
558.918	15.05
559.116	15.17
559.313	15.22
559.511	15.43
559.708	15.47
559.906	15.55
560.104	15.61
560.301	15.68
560.498	15.68
560.696	15.71
560.893	15.79
561.091	15.92
561.288	16.04
561.486	16.15
561.683	16.27
561.88	16.39
562.078	16.49
562.275	16.55
562.473	16.66
562.67	16.87
562.867	17
563.064	17.08
563.262	17.14
563.459	17.23
563.656	17.33
563.853	17.31
564.051	17.39
564.248	17.64
564.445	17.76
564.642	17.73
564.839	17.88
565.036	18.07
565.234	18.19
565.431	18.21
565.628	18.44
565.825	18.58
566.022	18.65
566.219	18.65
566.416	18.79
566.613	18.76
566.81	18.84
567.007	18.75
567.204	18.72
567.401	18.75
567.598	18.89
567.795	18.87
567.991	19
568.188	19.22
568.385	19.39
568.582	19.4
568.779	19.55
568.976	19.65
569.172	19.71
569.369	19.62
569.566	19.65
569.763	19.74
569.96	19.75
570.156	19.75
570.353	19.88
570.55	20
570.746	19.97
570.943	20.04
571.14	20.07
571.336	20.07
571.533	20.1
571.729	20.14
571.926	20.2
572.123	20.28
572.319	20.36
572.516	20.39
572.712	20.43
572.909	20.47
573.105	20.54
573.302	20.59
573.498	20.61
573.695	20.65
573.891	20.66
574.087	20.59
574.284	20.55
574.48	20.58
574.677	20.63
574.873	20.63
575.069	20.65
575.266	20.74
575.462	20.7
575.658	20.75
575.854	20.87
576.051	20.98
576.247	20.89
576.443	20.94
576.639	20.89
576.835	20.81
577.032	20.8
577.228	21.02
577.424	21.07
577.62	21.03
577.816	21.12
578.012	21.08
578.208	20.94
578.404	21
578.6	21.04
578.796	21.05
578.993	21.08
579.189	21.01
579.384	20.91
579.58	20.83
579.776	20.73
579.972	20.6
580.168	20.58
580.364	20.62
580.56	20.67
580.756	20.67
580.952	20.69
581.148	20.74
581.343	20.72
581.539	20.77
581.735	20.83
581.931	20.85
582.127	20.9
582.322	20.87
582.518	20.88
582.714	20.82
582.909	20.88
583.105	20.74
583.301	20.68
583.496	20.61
583.692	20.54
583.888	20.49
584.083	20.63
584.279	20.69
584.474	20.7
584.67	20.8
584.866	20.77
585.061	20.6
585.257	20.61
585.452	20.53
585.648	20.42
585.843	20.55
586.039	20.7
586.234	20.63
586.429	20.59
586.625	20.71
586.82	20.59
587.015	20.5
587.211	20.43
587.406	20.56
587.601	20.46
587.797	20.46
587.992	20.45
588.187	20.55
588.383	20.45
588.578	20.49
588.773	20.49
588.968	20.52
589.163	20.59
589.359	20.65
589.554	20.63
589.749	20.6
589.944	20.68
590.139	20.71
590.334	20.74
590.529	20.75
590.724	20.9
590.919	20.93
591.114	20.89
591.309	20.97
591.504	21.03
591.699	21.03
591.894	21.15
592.089	21.16
592.284	21.22
592.479	21.38
592.674	21.36
592.869	21.39
593.064	21.52
593.259	21.59
593.454	21.62
593.648	21.74
593.843	21.75
594.038	21.81
594.233	21.8
594.428	21.71
594.622	21.76
594.817	21.83
595.012	21.85
595.206	21.84
595.401	21.93
595.596	21.99
595.79	22.07
595.985	22.2
596.18	22.39
596.374	22.57
596.569	22.63
596.763	22.59
596.958	22.6
597.153	22.65
597.347	22.62
597.542	22.71
597.736	22.78
597.931	22.87
598.125	22.95
598.319	23.1
598.514	23.09
598.708	23.21
598.903	23.21
599.097	23.15
599.291	23.1
599.486	23.2
599.68	23.24
599.874	23.4
600.069	23.5
600.263	23.51
600.457	23.61
600.651	23.59
600.846	23.54
601.04	23.54
601.234	23.7
601.428	23.76
601.622	23.78
601.817	23.87
602.011	23.9
602.205	23.94
602.399	23.84
602.593	24.01
602.787	24.06
602.981	24.07
603.175	24.09
603.369	24.07
603.563	24.04
603.757	24.04
603.951	24.18
604.145	24.14
604.339	24.28
604.533	24.19
604.727	24.08
604.921	23.96
605.115	24.01
605.309	24.07
605.502	24.08
605.696	24.03
605.89	24.01
606.084	23.9
606.278	23.67
606.471	23.58
606.665	23.56
606.859	23.47
607.053	23.44
607.246	23.48
607.44	23.54
607.634	23.57
607.827	23.63
608.021	23.61
608.214	23.56
608.408	23.43
608.602	23.31
608.795	23.27
608.989	23.1
609.182	23.05
609.376	23.01
609.569	22.99
609.763	22.8
609.956	22.79
610.15	22.71
610.343	22.58
610.537	22.44
610.73	22.47
610.923	22.47
611.117	22.49
611.31	22.46
611.504	22.51
611.697	22.35
611.89	22.28
612.083	22.09
612.277	22.12
612.47	21.94
612.663	21.94
612.856	21.79
613.05	21.75
613.243	21.61
613.436	21.58
613.629	21.52
613.822	21.52
614.015	21.45
614.209	21.42
614.402	21.39
614.595	21.42
614.788	21.28
614.981	21.13
615.174	21.01
615.367	20.87
615.56	20.67
615.753	20.66
615.946	20.66
616.139	20.7
616.332	20.89
616.525	20.83
616.718	20.8
616.911	20.83
617.103	20.73
617.296	20.57
617.489	20.59
617.682	20.43
617.875	20.41
618.067	20.35
618.26	20.24
618.453	20.21
618.646	20.28
618.838	20.14
619.031	20.26
619.224	20.2
619.417	20.2
619.609	20.28
619.802	20.28
619.994	20.2
620.187	20.25
620.38	20.13
620.572	19.99
620.765	20.02
620.957	19.86
621.15	19.76
621.342	19.79
621.535	19.79
621.727	19.64
621.92	19.61
622.112	19.59
622.305	19.61
622.497	19.49
622.69	19.61
622.882	19.62
623.074	19.73
623.267	19.65
623.459	19.67
623.651	19.53
623.844	19.5
624.036	19.42
624.228	19.31
624.42	19.25
624.613	19.45
624.805	19.44
624.997	19.36
625.189	19.46
625.381	19.5
625.574	19.31
625.766	19.25
625.958	19.21
626.15	19.27
626.342	19.26
626.534	19.26
626.726	19.24
626.918	19.19
627.11	19.03
627.302	19.02
627.494	18.94
627.686	18.98
627.878	18.96
628.07	18.96
628.262	18.81
628.454	18.82
628.646	18.78
628.838	18.81
629.029	18.69
629.221	18.8
629.413	18.71
629.605	18.64
629.797	18.59
629.989	18.63
630.18	18.58
630.372	18.56
630.564	18.53
630.755	18.51
630.947	18.59
631.139	18.42
631.33	18.4
631.522	18.53
631.714	18.49
631.905	18.36
632.097	18.4
632.289	18.39
632.48	18.19
632.672	18.13
632.863	18.08
633.055	18.12
633.246	18.06
633.438	18.13
633.629	18.12
633.821	18.1
634.012	18.05
634.203	18.05
634.395	17.99
634.586	18.04
634.777	18.03
634.969	17.98
635.16	18.03
635.351	17.96
635.543	17.89
635.734	17.89
635.925	17.85
636.117	17.86
636.308	17.86
636.499	17.84
636.69	17.75
636.881	17.77
637.073	17.78
637.264	17.77
637.455	17.79
637.646	17.86
637.837	17.92
638.028	17.8
638.219	17.9
638.41	17.83
638.601	17.77
638.792	17.81
638.983	17.77
639.174	17.68
639.365	17.75
639.556	17.73
639.747	17.6
639.938	17.63
640.129	17.6
640.32	17.48
640.511	17.47
640.701	17.58
640.892	17.53
641.083	17.59
641.274	17.61
641.465	17.63
641.655	17.5
641.846	17.55
642.037	17.5
642.228	17.41
642.418	17.52
642.609	17.59
642.8	17.53
642.99	17.47
643.181	17.55
643.372	17.47
643.562	17.38
643.753	17.32
643.943	17.24
644.134	17.19
644.324	17.16
644.515	17.17
644.705	17.22
644.896	17.32
645.086	17.33
645.277	17.25
645.467	17.18
645.658	17.14
645.848	17.1
646.038	17.1
646.229	17.05
646.419	16.99
646.61	16.96
646.8	16.91
646.99	16.8
647.18	16.8
647.371	16.79
647.561	16.69
647.751	16.67
647.941	16.62
648.132	16.62
648.322	16.58
648.512	16.62
648.702	16.69
648.892	16.69
649.082	16.66
649.272	16.52
649.462	16.4
649.653	16.18
649.843	16.1
650.033	16.09
650.223	16.21
650.413	16.21
650.603	16.33
650.793	16.36
650.983	16.29
651.172	16.25
651.362	16.22
651.552	16.11
651.742	15.98
651.932	15.96
652.122	15.95
652.312	16.06
652.502	15.95
652.691	15.96
652.881	15.89
653.071	15.78
653.261	15.53
653.45	15.42
653.64	15.45
653.83	15.33
654.019	15.29
654.209	15.17
654.399	15.23
654.588	15.07
654.778	14.89
654.968	14.72
655.157	14.7
655.347	14.46
655.536	14.27
655.726	14.19
655.915	14.02
656.105	13.92
656.294	13.9
656.484	13.7
656.673	13.65
656.863	13.68
657.052	13.5
657.241	13.32
657.431	13.17
657.62	12.97
657.809	12.56
657.999	12.41
658.188	12.26
658.377	12.14
658.567	12.03
658.756	11.96
658.945	11.77
659.134	11.61
659.324	11.42
659.513	11.23
659.702	11.1
659.891	11
660.08	10.82
660.269	10.79
660.458	10.66
660.648	10.56
660.837	10.42
661.026	10.38
661.215	10.24
661.404	10.05
661.593	9.84
661.782	9.56
661.971	9.43
662.16	9.32
662.349	9.23
662.538	9.1
662.726	9.1
662.915	8.79
663.104	8.68
663.293	8.58
663.482	8.65
663.671	8.59
663.86	8.59
664.048	8.44
664.237	8.45
664.426	8.16
664.615	8.09
664.803	7.99
664.992	7.86
665.181	7.61
665.369	7.53
665.558	7.33
665.747	7.21
665.935	7.25
666.124	7.27
666.312	7.3
666.501	7.24
666.69	7.17
666.878	7.05
667.067	6.92
667.255	6.94
667.444	7.29
667.632	7.33
667.82	7.35
668.009	7.34
668.197	7.25
668.386	6.92
668.574	7
668.762	6.89
668.951	6.77
669.139	6.73
669.327	6.59
669.516	6.62
669.704	6.6
669.892	6.75
670.08	6.7
670.269	6.63
670.457	6.4
670.645	6.27
670.833	6.29
671.021	6.31
671.21	6.46
671.398	6.62
671.586	6.69
671.774	6.56
671.962	6.55
672.15	6.55
672.338	6.32
672.526	6.4
672.714	6.34
672.902	6.36
673.09	6.57
673.278	6.84
673.466	6.83
673.654	7.09
673.842	7.05
674.03	7.03
674.218	6.84
674.405	6.94
674.593	6.76
674.781	6.88
674.969	6.82
675.157	7.06
675.344	7.12
675.532	7.23
675.72	7.4
675.908	7.52
676.095	7.44
676.283	7.44
676.471	7.6
676.658	7.57
676.846	7.53
677.033	7.74
677.221	7.85
677.409	7.74
677.596	7.85
677.784	7.81
677.971	7.72
678.159	7.73
678.346	7.88
678.534	7.92
678.721	8.27
678.909	8.4
679.096	8.5
679.283	8.8
679.471	8.88
679.658	8.83
679.846	9.11
680.033	9.37
680.22	9.26
680.408	9.29
680.595	9.47
680.782	9.36
680.969	9.45
681.157	9.57
681.344	9.7
681.531	9.76
681.718	9.89
681.905	10.03
682.093	10.26
682.28	10.64
682.467	10.8
682.654	10.89
682.841	10.98
683.028	11.14
683.215	11.22
683.402	11.21
683.589	11.45
683.776	11.61
683.963	11.61
684.15	11.76
684.337	12.05
684.524	12.3
684.711	12.69
684.898	12.8
685.085	13.14
685.271	13.49
685.458	13.8
685.645	13.85
685.832	14.39
686.019	14.58
686.205	14.73
686.392	14.9
686.579	15.2
686.766	15.56
686.952	15.75
687.139	16.34
687.326	16.51
687.512	16.94
687.699	17.11
687.886	17.51
688.072	17.66
688.259	18.21
688.445	18.62
688.632	19.06
688.818	19.74
689.005	20.23
689.191	20.85
689.378	21.47
689.564	21.97
689.751	22.26
689.937	22.55
690.124	23.02
690.31	23.17
690.496	23.64
690.683	24
690.869	24.69
691.055	25.07
691.242	25.88
691.428	26.65
691.614	27.37
691.8	28.22
691.987	28.85
692.173	29.36
692.359	29.94
692.545	30.44
692.731	30.7
692.918	31.24
693.104	31.62
693.29	32.27
693.476	32.84
693.662	33.56
693.848	34.14
694.034	34.75
694.22	34.91
694.406	35.6
694.592	36.24
694.778	36.74
694.964	37.26
695.15	38.08
695.336	38.54
695.522	39.23
695.708	39.86
695.894	40.67
696.08	41.31
696.265	41.86
696.451	42.26
696.637	42.87
696.823	43.23
697.009	43.52
697.194	44.11
697.38	44.34
697.566	44.8
697.751	45.42
697.937	46.21
698.123	46.62
698.308	47.56
698.494	48.26
698.68	48.7
698.865	49.15
699.051	49.9
699.236	50
699.422	50.19
699.607	50.6
699.793	50.86
699.978	50.92
700.164	51.26
700.349	51.95
700.535	52.44
700.72	52.67
700.906	53.47
701.091	53.82
701.276	53.99
701.462	54.8
701.647	55.72
701.832	56.05
702.018	56.62
702.203	57.11
702.388	56.78
702.573	56.99
702.759	57.29
702.944	57.48
703.129	57.6
703.314	58.12
703.499	58.29
703.684	58.34
703.87	59.36
704.055	60.33
704.24	60.93
704.425	61.37
704.61	62.03
704.795	61.8
704.98	61.64
705.165	61.69
705.35	61.78
705.535	61.82
705.72	62.47
705.905	62.73
706.09	63.22
706.275	63.35
706.459	63.38
706.644	62.91
706.829	63.04
707.014	62.95
707.199	63.64
707.384	64.31
707.568	64.89
707.753	65.47
707.938	65.73
708.123	65.77
708.307	65.61
708.492	65.9
708.677	65.81
708.861	65.93
709.046	65.64
709.231	66.31
709.415	66.4
709.6	66.33
709.784	66.56
709.969	67.05
710.153	66.89
710.338	67.02
710.522	67.11
710.707	67.44
710.891	67.58
711.076	67.83
711.26	67.68
711.445	68.1
711.629	67.9
711.813	68.33
711.998	68.6
712.182	68.86
712.366	69.43
712.551	70.13
712.735	69.93
712.919	69.56
713.103	69.86
713.288	69.47
713.472	69.24
713.656	70.07
713.84	70.46
714.024	70.62
714.208	70.34
714.393	70.61
714.577	70.21
714.761	70.34
714.945	70.2
715.129	71
715.313	71.02
715.497	70.9
715.681	71.4
715.865	71.66
716.049	71.7
716.233	71.76
716.417	72.08
716.601	71.49
716.785	71.26
716.968	71.29
717.152	71.23
717.336	71.28
717.52	71.17
717.704	71.33
717.888	71.5
718.071	71.47
718.255	71.59
718.439	71.95
718.622	72.46
718.806	72.51
718.99	72.36
719.174	72.1
719.357	72
719.541	71.6
719.724	71.12
719.908	72.24
720.092	72.84
720.275	73.24
720.459	73.53
720.642	73.55
720.826	72.6
721.009	72.07
721.193	71.58
721.376	72.03
721.559	72.74
721.743	72.82
721.926	73.34
722.11	73.89
722.293	73.34
722.476	72.69
722.66	72.8
722.843	72.62
723.026	72.04
723.21	72.33
723.393	73.42
723.576	73.83
723.759	73.17
723.942	73.39
724.126	73.05
724.309	72.43
724.492	72.21
724.675	72.71
724.858	73.41
725.041	73.97
725.224	74.22
725.407	74.28
725.59	74.73
725.774	74.4
725.957	73.59
726.14	73.19
726.322	73.49
726.505	73.2
726.688	73.85
726.871	74.19
727.054	74.28
727.237	73.78
727.42	73.98
727.603	73.75
727.786	74.02
727.968	74.68
728.151	74.97
728.334	74.63
728.517	74.56
728.699	75.09
728.882	74.53
729.065	74.86
729.248	75.18
729.43	75.62
729.613	75.89
729.796	76.96
729.978	76.64
730.161	76.75
730.343	76.32
730.526	76.24
730.708	75.04
730.891	75.57
731.073	75.07
731.256	74.31
731.438	73.71
731.621	74.72
731.803	74.63
731.986	75.3
732.168	75.61
732.35	75.54
732.533	74.63
732.715	74.56
732.898	74.89
733.08	75.4
733.262	76.32
733.444	76.31
733.627	76.24
733.809	76.34
733.991	76.81
734.173	76.19
734.355	76.41
734.538	76.45
734.72	75.64
734.902	75.65
735.084	75.69
735.266	75.74
735.448	75.71
735.63	76.22
735.812	76.05
735.994	77.32
736.176	78.19
736.358	78.09
736.54	78.89
736.722	78.22
736.904	77.23
737.086	76.63
737.268	77.83
737.45	77
737.632	77.14
737.814	76.67
737.995	76.67
738.177	75.72
738.359	75.51
738.541	76.42
738.723	76.3
738.904	76.92
739.086	77.61
739.268	77.21
739.449	76.59
739.631	76.89
739.813	76.96
739.994	76.87
740.176	77.73
740.358	77.67
740.539	78.92
740.721	78.5
740.902	78.8
741.084	78.72
741.265	78.57
741.447	78.81
741.628	79.53
741.81	77.91
741.991	78.89
742.172	80.33
742.354	79.99
742.535	79.17
742.717	80.45
742.898	79.34
743.079	78.61
743.261	77.76
743.442	77.72
743.623	78.27
743.804	78.94
743.986	79.81
744.167	78.7
744.348	78.14
744.529	77.97
744.71	76.58
744.891	74.3
745.073	74.51
745.254	74.19
745.435	72.94
745.616	73.47
745.797	74.21
745.978	74.38
746.159	74.84
746.34	74.07
746.521	75.1
746.702	74.82
746.883	75.59
747.064	75.98
747.245	76.7
747.426	75.4
747.606	77.29
747.787	77.88
747.968	77.56
748.149	78.46
748.33	79.23
748.51	77.24
748.691	75.51
748.872	76.36
749.053	76.5
749.233	76.36
749.414	76.47
749.595	76.05
749.775	74.45
749.956	72.89
750.137	72.18
750.317	73.76
750.498	76.09
750.678	76.85
750.859	77.34
751.04	78.67
751.22	75.75
751.4	75.18
751.581	74.21
751.761	75.41
751.942	75
752.122	76.47
752.303	75.16
752.483	75.58
752.663	74.82
752.844	73.87
753.024	75.82
753.204	77.2
753.385	76.55
753.565	75.24
753.745	75.72
753.925	73.72
754.106	71.79
754.286	72.44
754.466	73.93
754.646	74.44
754.826	73.67
755.006	74.52
755.187	76.05
755.367	75.17
755.547	75.17
755.727	76.68
755.907	76.7
756.087	77.17
756.267	77.09
756.447	75.52
756.627	73.18
756.807	74.37
756.987	72.28
757.167	72.5
757.346	73.27
757.526	72.22
757.706	71.46
757.886	73.37
758.066	73.82
758.246	76.03
758.425	78.93
758.605	78.5
758.785	76.32
758.965	77.34
759.144	73.99
759.324	74.18
759.504	73.71
759.683	75.01
759.863	72.62
760.043	72.88
760.222	71.68
760.402	71.71
760.581	71.12
760.761	73.05
760.94	72.15
761.12	74.19
761.299	74.9
761.479	74.35
761.658	72.7
761.838	73.51
762.017	73.33
762.197	72.58
762.376	73.07
762.555	75.21
762.735	76.38
762.914	75.02
763.093	75.45
763.273	75.18
763.452	73.65
763.631	72.76
763.81	71.73
763.99	71.64
764.169	71.49
764.348	68.68
764.527	67.16
764.706	69.15
764.885	69.97
765.064	68.02
765.243	70.16
765.423	72.33
765.602	71.6
765.781	69.04
765.96	68.61
766.139	67.48
766.318	67.02
766.497	66.51
766.676	67.01
766.854	70.31
767.033	71.78
767.212	71.31
767.391	71.65
767.57	72.18
767.749	71.59
767.928	71.18
768.106	69.38
768.285	67.43
768.464	68.21
768.643	66.73
768.821	67.27
769	69.11
769.179	68.68
769.357	66.66
769.536	66.44
769.715	66.54
769.893	68.64
770.072	68.43
770.25	70
770.429	71.12
770.607	70.2
770.786	67.69
770.964	69.4
771.143	66.84
771.321	67.05
771.5	68.71
771.678	67.08
771.857	65.65
772.035	67.73
772.213	67.39
772.392	63.75
772.57	68.36
772.748	70.08
772.927	70.22
773.105	69.7
773.283	72.13
773.461	72.11
773.64	72.32
773.818	71.86
773.996	72.46
774.174	72.41
774.352	67.97
774.531	66.54
774.709	67.62
774.887	66.82
775.065	63.6
775.243	65.17
775.421	65.89
775.599	66.15
775.777	63.95
775.955	64.56
776.133	63.59
776.311	62.51
776.489	60.52
776.667	62.43
776.844	65.53
777.022	65.21
777.2	66.46
777.378	67.62
777.556	68.34
777.734	69.08
777.911	71.17
778.089	67.64
778.267	66.35
778.445	64.47
778.622	61.18
778.8	58.97
778.978	63.39
779.155	63.27
779.333	64.12
779.511	65.59
779.688	69.09
779.866	63.08
780.043	61.53
780.221	60.68
780.398	60.19
780.576	60.13
780.753	64.22
780.931	65.66
781.108	65.39
781.286	66.42
781.463	61.6
781.64	58.02
781.818	59.7
781.995	61.99
782.172	58.14
782.35	60.77
782.527	65.64
782.704	62.77
782.882	64.18
783.059	68.72
783.236	68.33
783.413	67.23
783.59	68.74
783.768	63.38
783.945	60.98
784.122	59.8
784.299	59.88
784.476	58.51
784.653	59.3
784.83	56
785.007	53.23
785.184	56.79
785.361	54.98
785.538	62.77
785.715	67.06
785.892	70.35
786.069	67.76
786.246	68.62
786.423	63.66
786.6	61.82
786.776	64.7
786.953	62.32
787.13	65.01
787.307	63.39
787.484	64.07
787.66	59.99
787.837	60.68
788.014	57.45
788.191	56.15
788.367	51.27
788.544	56.04
788.721	54.71
788.897	59.16
789.074	61.17
789.25	63.29
789.427	61.41
789.603	60.59
789.78	57.31
789.956	53.23
790.133	51.59
790.309	51.39
790.486	58.5
790.662	58.4
790.839	57.61
791.015	62.16
791.192	62.23
791.368	59.56
791.544	57.06
791.721	58.25
791.897	56.48
792.073	50.37
792.249	42.44
792.426	48.76
792.602	54.34
792.778	55.05
792.954	56.2
793.13	59.32
793.307	50.38
793.483	40.58
793.659	37.24
793.835	41.78
794.011	41.63
794.187	45.86
794.363	51
794.539	57.31
794.715	50.98
794.891	51.76
795.067	51.44
795.243	55.75
795.419	52.22
795.595	54.42
795.771	55.84
795.947	60.5
796.122	54.41
796.298	57.2
796.474	57.86
796.65	56.1
796.826	48.32
797.001	50.86
797.177	46.19
797.353	50.85
797.529	52.71
797.704	54.62
797.88	52.87
798.056	49.22
798.231	47.18
798.407	51.58
798.582	53.7
798.758	63.06
798.934	66.8
799.109	63.66
799.285	55.15
799.46	58.33
799.636	54.83
799.811	57.1
799.986	61.36
800.162	66.42
800.337	67.16
800.513	57.37
800.688	54.94
800.863	58.38
801.039	52.23
801.214	45.35
801.389	54.48
801.565	53.5
801.74	35.44
801.915	41.32
802.09	43.32
802.265	44.44
802.441	46.02
802.616	50.96
802.791	54.32
802.966	57.55
803.141	52.8
803.316	51.34
803.491	61.57
803.666	60.93
803.841	54.72
804.016	55.49
804.191	57.14
804.366	50.44
804.541	48.76
804.716	45.86
804.891	38.59
805.066	46.69
805.241	45.21
805.416	43.26
805.591	47.87
805.765	57.74
805.94	55.41
806.115	55.81
806.29	49.51
806.464	52.28
806.639	44.37
806.814	38.11
806.989	29.88
807.163	42.24
807.338	37.89
807.512	35.02
807.687	21.23
807.862	41.25
808.036	42.28
808.211	40.14
808.385	54.83
808.56	71.67
808.734	63.29
808.909	55.06
809.083	48.3
809.258	46.63
809.432	46.2
809.606	33.92
809.781	34.37
809.955	47.36
810.13	45.88
810.304	37.1
810.478	37.26
810.652	42.71
810.827	46.86
811.001	38.18
811.175	35.86
811.349	41.05
811.524	31.07
811.698	17.38
811.872	23.68
812.046	37.4
812.22	40.08
812.394	43.3
812.568	45.33
812.742	45.94
812.916	36.99
813.09	32.14
813.264	25.92
813.438	37.54
813.612	32.97
813.786	29.76
813.96	43.17
814.134	50.95
814.308	50.97
814.482	55.57
814.656	53.9
814.83	53.3
815.003	47.86
815.177	38.06
815.351	29.99
815.525	36.88
815.698	23.1
815.872	15.07
816.046	1.64
816.219	20.43
816.393	29.62
816.567	37.09
816.74	42.71
816.914	56.99
817.088	46.67
817.261	33.88
817.435	27.07
817.608	30.52
817.782	15.32
817.955	14.95
818.129	8.71
818.302	16.66
818.475	25.07
818.649	26.93
818.822	22.6
818.996	44.61
819.169	41.1
819.342	26.81
819.516	45.08
819.689	57.03
819.862	38.39
820.035	25.95
820.209	34.24
820.382	27.77
820.555	28.14
820.728	18
820.901	28.2
821.075	25.02
821.248	33.43
821.421	4.75
821.594	11.55
821.767	30.79
821.94	51.06
822.113	23.95
822.286	36.53
822.459	55.11
822.632	41.09
822.805	-1.4
822.978	1.84
823.151	1.4
823.324	-23.74
823.496	-40.69
823.669	-26.19
823.842	-8.55
824.015	-32.15
824.188	-47.89
824.361	-31.72
824.533	-39.83
824.706	-45.9
824.879	-24.97
825.051	-3.74
825.224	-7.6
825.397	-5.73
825.569	-3.56
825.742	14.51
825.915	37.58
826.087	47.05
826.26	33.69
826.432	36.25
826.605	31.39
826.777	8.59
826.95	9.76
827.122	-7.77
827.295	-1.97
827.467	2.96
827.64	-23.21
827.812	-33.57
827.984	-7.6
828.157	-28.57
828.329	-87.4
828.501	-66.98
828.674	-42.22
828.846	-60.4
829.018	-34.36
829.19	-32.29
829.363	11.49
829.535	11.83
829.707	20.69
829.879	2.24
830.051	-1.1
830.223	-30.04
830.395	-76.71
830.568	-77.31
830.74	-80
830.912	-39.57
831.084	-41.07
831.256	-26.01
831.428	-39.07
831.6	-41.81
831.772	-69.11
831.943	-77.52
832.115	-35.75
832.287	-3.9
832.459	17.1
832.631	28.18
832.803	44.66
832.975	61.82
833.146	51.6
833.318	30.64
833.49	32.64
833.662	-12.6
833.833	-39.6
834.005	-37.74
834.177	-37.73
834.348	-48.66
834.52	-42.33
834.692	-51.55
834.863	-71.14
835.035	-56.62
835.206	-133.45
835.378	-78.66
835.549	-66.87
835.721	-53.18
835.892	-62.19
836.064	-42.39
836.235	-61.83
836.407	-57.37
836.578	-73.01
836.749	-52.63
836.921	-55.13
837.092	-62.58
837.264	-65.5
837.435	-72.34
837.606	-24.55
837.777	20.38
837.949	39.35
838.12	47.91
838.291	51.56
838.462	36.22
838.633	-4.68
838.805	-20.92
838.976	-23.6
839.147	-84.15
839.318	-87.49
839.489	-137.8
839.66	-138.59
839.831	-95.85
840.002	-82.39
840.173	-123.08
840.344	-40.31
840.515	-81.73
840.686	-266.77
840.857	-160.96
841.028	-114.07
841.199	-110.07
841.369	-113.19
841.54	-88.92
841.711	-66.09
841.882	-44.16
842.053	-38.17
842.223	-23.82
842.394	-4.52
842.565	-1.9
842.736	3.41
842.906	-1.61
843.077	5.27
843.248	31.38
843.418	13.37
843.589	-55.76
843.759	1.14
843.93	-7.82
844.101	-31.49
844.271	-5.83
844.442	27.43
844.612	39.38
844.783	10.22
844.953	-20.46
845.123	-18.07
845.294	-14.4
845.464	-285.6
845.635	-92.62
845.805	-3.07
845.975	-8.44
846.146	-64.11
846.316	-47.24
846.486	-27.87
846.656	10.2
846.827	-2.37
846.997	-4.83
847.167	19.46
847.337	-11.35
847.507	-56.28
847.677	-30.65
847.848	25.56
848.018	23.83
848.188	39.66
848.358	14.95
848.528	-4.48
848.698	-56.92
848.868	-161.34
849.038	-274.74
849.208	-117.74
849.378	-64.28
849.548	-42.65
849.718	-27.06
849.887	-23.48
850.057	-31.37
850.227	-78.5
850.397	-117.75
850.567	-248.67
850.737	-440.76
850.906	-1394.69
851.076	-963.09
851.246	-368.98
851.415	-38.05
851.585	-52.83
851.755	-83.4
851.924	-32.58
852.094	-87.59
852.264	-201.05
852.433	-1398.8
852.603	-321.47
852.772	-253.84
852.942	-122.22
853.111	-105.36
853.281	-27.72
853.45	1.49
853.62	-96.27
853.789	-103.36
853.959	-124.76
854.128	-156.13
854.297	-173.65
854.467	-202.56
854.636	-150.23
854.805	-39.89
854.975	-46.73
855.144	-50.89
855.313	254.02
855.482	-326.09
855.652	-283.01
855.821	-203.13
855.99	-31.61
856.159	2.94
856.328	-6.86
856.497	-11.42
856.667	-17.84
856.836	-6.21
857.005	-54.52
857.174	-36.44
857.343	-93.52
857.512	-58.01
857.681	-147.43
857.85	-190.77
858.019	-107.24
858.188	-72.49
858.356	-88.41
858.525	-148.56
858.694	-107.76
858.863	-270.51
859.032	-233.52
859.201	-312
859.369	-184.38
859.538	-171.65
859.707	-115.81
859.876	-117.2
860.044	-99.58
860.213	-6.92
860.382	-26.46
860.55	-19.78
860.719	14.02
860.888	18.49
861.056	-40.12
861.225	-45.62
861.393	-0.63
861.562	-17.61
861.73	-106.01
861.899	-303.01
862.067	-2606.03
862.236	-213.21
862.404	-384.65
862.572	-272.35
862.741	-132.14
862.909	-129.82
863.078	-304.07
863.246	-201.02
863.414	-177.71
863.582	-139.68
863.751	-153.05
863.919	-97.35
864.087	-78.02
864.255	-89.09
864.424	-470.82
864.592	-82.68
864.76	-178.77
864.928	-455.8
865.096	-272.21
865.264	-113.95
865.432	-1840.34
865.6	12.12
865.768	-100.14
865.936	-82.62
866.104	-39.37
866.272	-118.98
866.44	-455.81
866.608	723.78
866.776	388.22
866.944	4506.4
867.112	-685.06
867.28	-239.96
867.448	-96.77
867.615	-31.79
867.783	-15.38
867.951	-23.18
868.119	-11.17
868.286	-49.11
868.454	-231.62
868.622	-228.34
868.789	-330.36
868.957	-6833.93
869.125	-3417.76
869.292	-196.01
869.46	-276.48
869.627	-72.36
869.795	-61.87
869.963	-37.86
870.13	2.82
870.298	15.59
870.465	-68.52
870.632	-89.32
870.8	-60.71
870.967	-178.94
871.135	-251.18
871.302	-194.62
871.469	-189.1
871.637	-259.34
871.804	-123.22
871.971	-148.76
872.139	-389.19
872.306	-31.04
872.473	-62.79
872.64	-288.3
872.807	-98.3
872.975	-15.51
873.142	-293.36
873.309	1937.16
873.476	18.52
873.643	133.45
873.81	120.6
873.977	113.8
874.144	80.05
874.311	27.59
874.478	-122.5
874.645	-203.42
874.812	-145.22
874.979	-82.84
875.146	-139.28
875.313	-147.51
875.48	-28.07
875.647	-36
875.813	-72.7
875.98	-32.01
876.147	-63.48
876.314	-150.19
876.481	1281.61
876.647	-1850.28
876.814	817.49
876.981	-167.21
877.147	-113.55
877.314	-46.81
877.481	-28.04
877.647	-0.77
877.814	-82.72
877.98	-155.39
878.147	-67.42
878.314	4.17
878.48	-49.55
878.647	4.12
878.813	75.89
878.979	60.46
879.146	7.22
879.312	10.31
879.479	-57.27
879.645	-207.39
879.811	-448.5
879.978	-1108.21
880.144	-341.22
880.31	-151.6
880.477	-422.11
880.643	-482.66
880.809	-197.83
880.975	-194.55
881.142	-1224.32
881.308	-144.09
881.474	-88.51
881.64	-83.25
881.806	-102.26
881.972	-56.14
882.138	-42.98
882.304	-37.97
882.47	-275.27
882.636	-1148.16
882.802	-352.47
882.968	-127.6
883.134	-95.53
883.3	-67.39
883.466	10.59
883.632	46.35
883.798	-1.67
883.964	-13.77
884.129	1.54
884.295	-6.67
884.461	-83.16
884.627	-72.07
884.793	-71.31
884.958	-31.99
885.124	-143.76
885.29	-220.65
885.455	-384.34
885.621	-124.71
885.787	-269.09
885.952	-110.47
886.118	-118.13
886.283	-114.62
886.449	-222.67
886.614	-191.21
886.78	-409.52
886.945	1583.2
887.111	-877.31
887.276	-787.36
887.442	-1603.41
887.607	-691.86
887.773	-455.65
887.938	-348.5
888.103	-344.5
888.269	-174.32
888.434	-468.51
888.599	-172.69
888.764	-31.01
888.93	-24.14
889.095	-53.01
889.26	-86.23
889.425	-66.06
889.59	-90.28
889.756	-155.31
889.921	-119.25
890.086	-46.09
890.251	-58.22
890.416	-305.43
890.581	-2152.82
890.746	293.48
890.911	454.62
891.076	197.89
891.241	-366.98
891.406	25.65
891.571	-52.55
891.736	-458.14
891.901	-788.27
892.065	866.76
892.23	182.07
892.395	264.73
892.56	349.35
892.725	-473.24
892.889	-1221.34
893.054	-282.89
893.219	-74.16
893.384	5.73
893.548	-25.81
893.713	-43.21
893.878	23.01
