Data from Ofra_1a_PS_2HS27_Reflection_4.txt Node
Date: Tue Jul 20 10:53:55 EDT 2021
User: Adam
Spectrometer: FLMT01687
Trigger mode: 0
Integration Time (sec): 1.004000E0
Scans to average: 2
Electric dark correction enabled: true
Nonlinearity correction enabled: false
Boxcar width: 2
XAxis mode: Wavelengths
Number of Pixels in Spectrum: 3648
>>>>>Begin Spectral Data<<<<<
179.494	-122.84
179.716	-269.47
179.937	585.28
180.158	-1007.64
180.38	184.39
180.601	144.58
180.823	50.4
181.044	-27.12
181.265	10.98
181.486	149.43
181.708	120.27
181.929	2927.27
182.15	-108.04
182.372	-302.46
182.593	86.35
182.814	-132.09
183.035	4.56
183.257	6.42
183.478	-46.65
183.699	-57.29
183.92	-95.46
184.141	-116.16
184.363	-83.81
184.584	-58.13
184.805	-13.16
185.026	29.55
185.247	28.11
185.468	-3.2
185.689	5.69
185.91	-33.79
186.132	-28.68
186.353	-8.33
186.574	5.85
186.795	1.8
187.016	27.88
187.237	24.34
187.458	21.61
187.679	16.19
187.9	32.12
188.121	45.28
188.342	38.5
188.563	37.2
188.784	59.43
189.005	47.1
189.226	42.07
189.447	40.65
189.667	41.47
189.888	14.11
190.109	-11.38
190.33	2.16
190.551	3.95
190.772	-8.76
190.993	-4.9
191.214	-18.08
191.434	-88.65
191.655	-110.03
191.876	-48.2
192.097	-5.76
192.318	32.48
192.538	5.76
192.759	-3.91
192.98	7.71
193.201	10.04
193.421	2.91
193.642	17
193.863	32.37
194.083	41.62
194.304	26.26
194.525	14.98
194.745	23
194.966	13.28
195.187	-2.12
195.407	-17.54
195.628	-10.34
195.848	-16.56
196.069	-16.58
196.29	-0.45
196.51	-4.57
196.731	4.77
196.951	-6.01
197.172	-10.06
197.392	-31.65
197.613	3.12
197.833	-16.7
198.054	-15.78
198.274	-16.3
198.495	1.56
198.715	-22.62
198.936	22.18
199.156	33.5
199.377	24.06
199.597	24.28
199.817	29.06
200.038	-31.94
200.258	-26
200.479	-12.95
200.699	-11.62
200.919	-4.49
201.14	11.65
201.36	8.92
201.58	-5.63
201.801	-14.99
202.021	-11.48
202.241	-11.76
202.461	-6.02
202.682	14.81
202.902	14.5
203.122	19.26
203.342	22.52
203.563	17.44
203.783	-0.86
204.003	-9.52
204.223	10.42
204.443	31.37
204.663	27.85
204.884	70.8
205.104	76.83
205.324	63.06
205.544	21.51
205.764	28.11
205.984	-6.38
206.204	-15.13
206.424	-38.6
206.644	-47.13
206.864	-75.27
207.084	-24.26
207.304	-49.01
207.525	-34.83
207.745	-23.64
207.964	-15.68
208.184	-19.15
208.404	-0.91
208.624	1.49
208.844	3.35
209.064	4.89
209.284	-10
209.504	-15.69
209.724	-8.42
209.944	-18.54
210.164	-24.35
210.384	-22.56
210.604	-35.86
210.823	-37.91
211.043	-13.76
211.263	-24.53
211.483	14.75
211.703	17.43
211.922	-9.61
212.142	11.87
212.362	36.06
212.582	7.02
212.801	-4.13
213.021	15.41
213.241	-3.35
213.461	-15.15
213.68	11.08
213.9	1.72
214.12	-12.6
214.339	-22.25
214.559	-30.68
214.779	-53.17
214.998	-26.95
215.218	-10.41
215.438	5.59
215.657	6.72
215.877	-6.75
216.096	14.98
216.316	29.4
216.535	14.18
216.755	26.24
216.974	30.77
217.194	15.48
217.413	-0.83
217.633	-4.53
217.852	-16.73
218.072	3.09
218.291	-7.33
218.511	-13.24
218.73	-3.17
218.95	-24.52
219.169	-37.85
219.389	-19.7
219.608	-4.14
219.827	3.59
220.047	20.41
220.266	13.61
220.485	-4.55
220.705	-28.17
220.924	-14.79
221.143	11.44
221.363	17.32
221.582	20.35
221.801	31.94
222.021	18.33
222.24	10.7
222.459	30.24
222.678	15.14
222.897	19.52
223.117	25.08
223.336	35.08
223.555	12.01
223.774	16.87
223.993	20.56
224.213	23.91
224.432	1.93
224.651	2.92
224.87	23.09
225.089	28.41
225.308	35.4
225.527	39.45
225.746	19.39
225.965	14.55
226.184	-7.35
226.404	-7.33
226.623	7.85
226.842	36.3
227.061	35.41
227.28	45.12
227.499	35.56
227.718	29.62
227.936	21.82
228.155	21.13
228.374	16.61
228.593	24.7
228.812	24.49
229.031	25.02
229.25	26.44
229.469	36.42
229.688	22.15
229.907	21.16
230.125	26.4
230.344	29.42
230.563	16.98
230.782	25.79
231.001	23.24
231.22	25.3
231.438	24.27
231.657	24.48
231.876	21.95
232.095	25.23
232.313	12.55
232.532	8.66
232.751	5.22
232.969	10.17
233.188	9.91
233.407	14.1
233.625	11.41
233.844	15.49
234.063	16.83
234.281	23.72
234.5	30.48
234.719	26.07
234.937	29.43
235.156	16.09
235.374	11.8
235.593	4.08
235.811	20.59
236.03	15.72
236.249	21.87
236.467	18.51
236.686	10.11
236.904	2.24
237.123	7.56
237.341	-7.87
237.559	-12.55
237.778	22.7
237.996	4.71
238.215	-48.41
238.433	-78.66
238.652	-15.57
238.87	-53.65
239.088	-19.76
239.307	-10.07
239.525	14.22
239.743	-0.5
239.962	-7.45
240.18	-1.3
240.398	11.19
240.617	1.91
240.835	-1.39
241.053	7.44
241.271	19.37
241.49	37.87
241.708	23.51
241.926	20.36
242.144	25.82
242.363	-6.8
242.581	-87.27
242.799	-57.42
243.017	-21.02
243.235	-13.86
243.453	-33.53
243.672	-6.42
243.89	3.39
244.108	19.03
244.326	34.1
244.544	57.52
244.762	43.31
244.98	49.88
245.198	24.4
245.416	12.88
245.634	-9.88
245.852	-16.66
246.07	-4.02
246.288	15.65
246.506	16.33
246.724	32.8
246.942	31.87
247.16	26.86
247.378	29.42
247.596	48.05
247.814	43.46
248.032	40.59
248.25	19.73
248.468	17.68
248.685	13.77
248.903	6.49
249.121	15.78
249.339	14.49
249.557	15.19
249.775	29.8
249.992	31.01
250.21	26.21
250.428	30.53
250.646	36.19
250.863	7.99
251.081	21.72
251.299	20.81
251.517	27.37
251.734	4.22
251.952	13.6
252.17	-0.85
252.387	-22.23
252.605	-34.5
252.823	-41.09
253.04	-16.29
253.258	-9.55
253.475	27.39
253.693	26
253.911	29.28
254.128	13.96
254.346	22.62
254.563	13.85
254.781	18.7
254.998	15.96
255.216	15.93
255.433	-6.74
255.651	-3.47
255.868	-2.34
256.086	5.72
256.303	10.82
256.521	24.56
256.738	14.94
256.956	7.96
257.173	-5.83
257.39	3.53
257.608	2.37
257.825	13.47
258.043	25.92
258.26	30.47
258.477	20.77
258.695	20.33
258.912	2.71
259.129	-15.41
259.346	-26.55
259.564	-27.01
259.781	-35.58
259.998	10.14
260.216	27.51
260.433	25.13
260.65	24.4
260.867	24.64
261.084	13.69
261.302	-12.26
261.519	3.62
261.736	1.47
261.953	-1.09
262.17	13.05
262.387	10.16
262.604	5.87
262.822	17.13
263.039	21.04
263.256	12.67
263.473	15.87
263.69	17.41
263.907	9.01
264.124	22.99
264.341	27.05
264.558	23.83
264.775	24.76
264.992	33.77
265.209	13.22
265.426	-4.91
265.643	16.66
265.86	16.96
266.077	-1.62
266.294	20.09
266.51	24.3
266.727	16.18
266.944	20.23
267.161	24.11
267.378	20.69
267.595	16.11
267.812	-1.02
268.028	-11.01
268.245	-14.44
268.462	-21.38
268.679	-5.11
268.896	30.18
269.112	37.09
269.329	34.24
269.546	58.79
269.763	49.02
269.979	21.45
270.196	18.64
270.413	14.51
270.629	-3.4
270.846	-6.45
271.063	4.69
271.279	6.75
271.496	1.67
271.712	-5.85
271.929	-6.16
272.146	-10.9
272.362	-12.49
272.579	-10.97
272.795	4.09
273.012	-1.28
273.228	7.94
273.445	10.9
273.661	9.23
273.878	-20.18
274.094	-7.12
274.311	-14.53
274.527	-13.92
274.744	27.68
274.96	38.06
275.177	31.3
275.393	37.05
275.609	27.99
275.826	18.5
276.042	17.87
276.259	27.47
276.475	15.58
276.691	9.27
276.908	9.35
277.124	7.61
277.34	-3.75
277.557	-19.07
277.773	-24.22
277.989	-21.72
278.205	-20.42
278.422	-8.62
278.638	5.76
278.854	6.99
279.07	11.91
279.286	10.78
279.503	12.9
279.719	17.89
279.935	26.56
280.151	15.29
280.367	23.78
280.583	20.94
280.799	15.02
281.016	4.85
281.232	32.61
281.448	17
281.664	9.31
281.88	14.43
282.096	13.16
282.312	8.83
282.528	16.14
282.744	18.22
282.96	0.8
283.176	-15.64
283.392	-47.71
283.608	-43.42
283.824	-63.23
284.04	-83.5
284.256	-22
284.471	-11.96
284.687	-1.27
284.903	13.16
285.119	29.04
285.335	20.57
285.551	25.35
285.767	8.97
285.982	9.13
286.198	-13.47
286.414	-5.19
286.63	2.01
286.846	-3.67
287.061	-16.37
287.277	-14.53
287.493	-22.92
287.709	-31.86
287.924	1.07
288.14	0.91
288.356	33.25
288.571	32.55
288.787	20.69
289.003	12.63
289.218	5.51
289.434	-26.13
289.65	7.71
289.865	23.24
290.081	23.34
290.296	33.06
290.512	32.79
290.727	7.87
290.943	-4.85
291.159	-11.31
291.374	-35.26
291.59	-26.55
291.805	-30.07
292.021	-15.58
292.236	-17
292.451	0.69
292.667	-1.2
292.882	14.51
293.098	5.5
293.313	4.15
293.529	-0.65
293.744	-5.23
293.959	-16.66
294.175	-4.12
294.39	-4.02
294.605	13.14
294.821	10.13
295.036	5.61
295.251	1.22
295.467	0.43
295.682	0.44
295.897	14.47
296.112	19.6
296.328	23.05
296.543	23.79
296.758	24.52
296.973	5.18
297.188	-14.25
297.404	-46.1
297.619	-59.74
297.834	-123.67
298.049	-111.85
298.264	-62.91
298.479	-53.96
298.694	-8.94
298.909	6.05
299.125	17.01
299.34	18.41
299.555	20.33
299.77	27.62
299.985	26.8
300.2	24.25
300.415	22.55
300.63	37
300.845	32.8
301.06	44.67
301.275	43.02
301.49	47.23
301.704	28.99
301.919	10.48
302.134	-0.85
302.349	-0.44
302.564	-10.9
302.779	-34.45
302.994	-7.7
303.209	-12.17
303.423	-18.14
303.638	-25.92
303.853	-16.63
304.068	-25.64
304.283	-18.43
304.497	-20.65
304.712	4.66
304.927	14.6
305.142	12.57
305.356	24.74
305.571	23.26
305.786	13.66
306	17.09
306.215	16.05
306.43	1.85
306.644	-3.65
306.859	18.89
307.074	22.02
307.288	20.58
307.503	22.66
307.717	23.35
307.932	12.25
308.147	0.02
308.361	-3.62
308.576	-34.39
308.79	-23.63
309.005	-45.94
309.219	-38.4
309.434	-27.34
309.648	-10.67
309.863	-3.99
310.077	2.77
310.292	23.62
310.506	20.31
310.72	15.81
310.935	22.76
311.149	24.66
311.364	12.07
311.578	12.51
311.792	29.44
312.007	41.09
312.221	28.5
312.435	32.97
312.649	35.75
312.864	-4.83
313.078	-14.22
313.292	-12.55
313.507	-11.38
313.721	-14.68
313.935	19.69
314.149	18.15
314.363	34.05
314.578	10.16
314.792	-9.64
315.006	-26.2
315.22	5.27
315.434	-1.89
315.648	-0.15
315.862	16.3
316.077	23.67
316.291	12.53
316.505	-4.34
316.719	21.13
316.933	12.69
317.147	9.33
317.361	-0.86
317.575	14.49
317.789	13.04
318.003	9.23
318.217	10.16
318.431	11.86
318.645	7.93
318.859	12.98
319.073	26.33
319.287	22.87
319.5	20.45
319.714	15.8
319.928	6.24
320.142	-8.98
320.356	-8.1
320.57	-39.13
320.784	-28.47
320.997	-46.37
321.211	-13.58
321.425	-8.46
321.639	36.9
321.853	35.61
322.066	42.39
322.28	33.41
322.494	27.73
322.707	25.5
322.921	16.51
323.135	13.05
323.349	14.37
323.562	7.99
323.776	-4.38
323.989	14.25
324.203	0.91
324.417	7.52
324.63	-0.79
324.844	-4.29
325.057	-18.14
325.271	-9.58
325.485	-10.68
325.698	21.83
325.912	26.43
326.125	17.78
326.339	28.53
326.552	9.75
326.766	-11.87
326.979	-18.38
327.193	-11.26
327.406	-31.91
327.619	-17.1
327.833	-17.66
328.046	-10.58
328.26	-11.93
328.473	3.83
328.686	4.33
328.9	16.75
329.113	15.11
329.326	14.44
329.54	15.73
329.753	18.2
329.966	14.86
330.179	10.18
330.393	2.8
330.606	4.06
330.819	3.01
331.032	3.85
331.246	11.32
331.459	31.95
331.672	33.53
331.885	24.6
332.098	17.97
332.311	15.8
332.525	13.08
332.738	12.18
332.951	5.75
333.164	16.39
333.377	20.26
333.59	9.26
333.803	9.86
334.016	9.96
334.229	2.05
334.442	13.03
334.655	22.91
334.868	9.51
335.081	8.58
335.294	10.37
335.507	17.68
335.72	18.69
335.933	23.41
336.146	27.48
336.359	23.6
336.572	19.63
336.785	-4.75
336.997	-10.89
337.21	5.71
337.423	-25.34
337.636	-26.4
337.849	-8.78
338.062	-5.92
338.274	15.55
338.487	14.68
338.7	-3.54
338.913	9.37
339.125	6.15
339.338	-19.39
339.551	-10.63
339.763	-7.86
339.976	-10.44
340.189	-4.71
340.402	10.24
340.614	16.98
340.827	26.13
341.039	22.27
341.252	26.43
341.465	3.73
341.677	3.82
341.89	-6.7
342.102	5.03
342.315	-2.87
342.527	12.68
342.74	12.2
342.952	23.28
343.165	12.98
343.377	15.75
343.59	26.07
343.802	16.92
344.015	32.5
344.227	31.58
344.44	29.76
344.652	9.17
344.864	14.04
345.077	3.53
345.289	8.84
345.502	20.54
345.714	24.98
345.926	32.76
346.139	6.51
346.351	-2.23
346.563	1.71
346.775	1.67
346.988	-2.76
347.2	14.48
347.412	19.9
347.624	12.93
347.837	18.41
348.049	18.18
348.261	1.65
348.473	-5.07
348.685	1.01
348.897	-6.49
349.11	-3.64
349.322	21.52
349.534	26.12
349.746	20.64
349.958	1.4
350.17	-8.01
350.382	-2.57
350.594	18.02
350.806	24.95
351.018	46.76
351.23	51.04
351.442	46.65
351.654	34.23
351.866	37.37
352.078	37.81
352.29	35.52
352.502	31.13
352.714	35.7
352.926	17.29
353.138	11.03
353.35	-6.11
353.561	-13.41
353.773	-18.9
353.985	-14.04
354.197	-11.34
354.409	-7.18
354.621	-16.91
354.832	-14.24
355.044	-24.48
355.256	-30.61
355.468	-34.32
355.679	-6.17
355.891	-5.53
356.103	-3.3
356.314	-1.15
356.526	-6.68
356.738	-14.24
356.949	-1.53
357.161	12.68
357.373	14.65
357.584	30.22
357.796	37.16
358.008	34.03
358.219	17.89
358.431	24.11
358.642	18.3
358.854	13.82
359.065	-0.65
359.277	7.48
359.488	-11.75
359.7	-15.42
359.911	-23.65
360.123	-7.28
360.334	-8.66
360.546	-0.64
360.757	13.31
360.969	24.48
361.18	30.84
361.391	36.62
361.603	25.78
361.814	16.89
362.025	11.66
362.237	6.9
362.448	-3.53
362.659	1.62
362.871	-17.31
363.082	-12.74
363.293	-10.8
363.504	-17.49
363.716	-8.12
363.927	9.07
364.138	-21.73
364.349	-34.51
364.56	-38.53
364.772	-30.98
364.983	-20.33
365.194	-8.88
365.405	-7.87
365.616	2.75
365.827	-3.46
366.038	4.22
366.25	14.13
366.461	29.99
366.672	32.95
366.883	27.83
367.094	14.71
367.305	5.93
367.516	0.33
367.727	-6.32
367.938	-10.3
368.149	-10.53
368.36	-9.71
368.571	-32
368.781	-43.58
368.992	-34.84
369.203	-31.58
369.414	-34.14
369.625	-26.96
369.836	8.19
370.047	18.89
370.258	22.18
370.468	16.6
370.679	13.53
370.89	-6.25
371.101	-9.35
371.312	-25.3
371.522	-25.01
371.733	-24.63
371.944	-29.21
372.155	-29.08
372.365	-17.59
372.576	-7.02
372.787	-1.12
372.997	7.4
373.208	6.47
373.419	13.48
373.629	5.52
373.84	17.43
374.05	0.44
374.261	-16.42
374.472	-10.93
374.682	2.15
374.893	-15.43
375.103	-0.58
375.314	10.61
375.524	14.08
375.735	19.02
375.945	22.67
376.156	17.37
376.366	24.13
376.577	23.8
376.787	15.89
376.997	18.43
377.208	19.63
377.418	16.46
377.629	11.04
377.839	18.45
378.049	22.92
378.26	16.98
378.47	18.04
378.68	12.7
378.89	12.83
379.101	2.28
379.311	11
379.521	-2.4
379.732	-3.54
379.942	-12.66
380.152	-10.46
380.362	-10.96
380.572	8.03
380.783	10.62
380.993	16.99
381.203	14.02
381.413	13.16
381.623	8.49
381.833	11.5
382.043	6.87
382.253	17.16
382.463	17.28
382.674	17.3
382.884	15.73
383.094	14.88
383.304	11.32
383.514	6.4
383.724	7.88
383.934	1.25
384.144	1.21
384.353	-1.73
384.563	3.14
384.773	2.54
384.983	1.71
385.193	-1.74
385.403	-0.65
385.613	-2.68
385.823	-5.59
386.033	2.36
386.242	8.03
386.452	4.36
386.662	5.07
386.872	6.29
387.082	0.94
387.291	-7.39
387.501	-0.71
387.711	-1.67
387.921	-4.49
388.13	-1.88
388.34	4.23
388.55	-0.6
388.759	-4.3
388.969	-2.2
389.179	-2.79
389.388	-3.33
389.598	-3.54
389.807	-4.57
390.017	-6.98
390.227	-5.14
390.436	-4.18
390.646	-6.57
390.855	-4.64
391.065	-2.25
391.274	-0.65
391.484	-1.78
391.693	1.91
391.903	3.77
392.112	2.43
392.322	-0.87
392.531	-1.1
392.74	-0.95
392.95	-3.03
393.159	-2.01
393.369	-1.35
393.578	-1.82
393.787	-2.58
393.997	-0.18
394.206	-0.17
394.415	1.21
394.625	1.54
394.834	1.48
395.043	1.73
395.252	3.37
395.462	4.14
395.671	3.96
395.88	4.55
396.089	3.63
396.298	3.04
396.508	2.37
396.717	2.84
396.926	2.04
397.135	1.84
397.344	0.82
397.553	0.26
397.762	1.49
397.971	2
398.181	2.24
398.39	2.1
398.599	2.4
398.808	1.71
399.017	2.24
399.226	2.6
399.435	2.85
399.644	2.95
399.853	2.69
400.062	2.24
400.27	1.56
400.479	1.83
400.688	1.7
400.897	1.45
401.106	1.55
401.315	1.86
401.524	1.67
401.733	1.46
401.941	2.06
402.15	2.05
402.359	2.18
402.568	2.37
402.777	2.56
402.985	2.09
403.194	1.84
403.403	1.96
403.612	1.79
403.82	1.45
404.029	1.6
404.238	1.7
404.446	1.74
404.655	1.89
404.864	2.11
405.072	2.14
405.281	2.09
405.489	2.02
405.698	1.96
405.906	2.13
406.115	2.01
406.324	2.19
406.532	2.05
406.741	1.97
406.949	1.91
407.158	1.99
407.366	1.87
407.574	1.96
407.783	2.03
407.991	1.94
408.2	2.05
408.408	2.12
408.617	2.03
408.825	1.94
409.033	2
409.242	1.96
409.45	1.95
409.658	1.97
409.867	2.21
410.075	2.26
410.283	2.19
410.491	2.09
410.7	1.98
410.908	1.9
411.116	1.79
411.324	1.8
411.533	1.83
411.741	1.93
411.949	1.95
412.157	1.95
412.365	1.93
412.573	1.9
412.781	1.8
412.99	1.76
413.198	1.82
413.406	1.96
413.614	1.96
413.822	2.16
414.03	2.07
414.238	2.02
414.446	1.92
414.654	1.86
414.862	1.64
415.07	1.51
415.278	1.66
415.486	1.48
415.694	1.61
415.902	1.73
416.109	1.89
416.317	1.8
416.525	1.84
416.733	1.73
416.941	1.68
417.149	1.58
417.357	1.59
417.564	1.69
417.772	1.8
417.98	1.8
418.188	1.78
418.395	1.5
418.603	1.31
418.811	1.17
419.019	1.15
419.226	1.32
419.434	1.51
419.642	1.5
419.849	1.55
420.057	1.6
420.265	1.6
420.472	1.57
420.68	1.86
420.887	1.9
421.095	2.01
421.302	1.97
421.51	1.97
421.717	1.97
421.925	1.96
422.132	1.88
422.34	1.69
422.547	1.65
422.755	1.54
422.962	1.59
423.17	1.4
423.377	1.43
423.585	1.61
423.792	1.46
423.999	1.46
424.207	1.55
424.414	1.74
424.621	1.65
424.829	1.82
425.036	1.81
425.243	1.92
425.451	1.85
425.658	1.76
425.865	1.74
426.072	1.72
426.28	1.54
426.487	1.6
426.694	1.56
426.901	1.5
427.108	1.42
427.315	1.39
427.523	1.24
427.73	1.32
427.937	1.19
428.144	1.23
428.351	1.32
428.558	1.42
428.765	1.4
428.972	1.55
429.179	1.46
429.386	1.53
429.593	1.43
429.8	1.49
430.007	1.41
430.214	1.55
430.421	1.6
430.628	1.64
430.835	1.58
431.042	1.49
431.249	1.43
431.456	1.4
431.662	1.53
431.869	1.66
432.076	1.83
432.283	1.99
432.49	1.96
432.697	1.88
432.903	1.87
433.11	1.95
433.317	1.86
433.524	1.83
433.73	1.85
433.937	1.88
434.144	1.72
434.35	1.64
434.557	1.62
434.764	1.65
434.97	1.55
435.177	1.8
435.384	1.95
435.59	2.07
435.797	2.03
436.003	2.06
436.21	1.84
436.416	1.76
436.623	1.71
436.829	1.67
437.036	1.65
437.242	1.77
437.449	1.82
437.655	1.84
437.862	1.86
438.068	1.95
438.275	2.04
438.481	2.09
438.687	2.07
438.894	2.19
439.1	2.1
439.307	2.07
439.513	2.07
439.719	2.22
439.926	2.18
440.132	2.18
440.338	2.14
440.544	2.05
440.751	1.94
440.957	2.03
441.163	2.05
441.369	2.13
441.575	2.04
441.782	2.07
441.988	2.09
442.194	2.12
442.4	1.99
442.606	2.28
442.812	2.27
443.018	2.17
443.224	2.28
443.431	2.32
443.637	2.14
443.843	2.2
444.049	2.3
444.255	2.39
444.461	2.32
444.667	2.33
444.873	2.37
445.079	2.31
445.284	2.14
445.49	2.21
445.696	2.23
445.902	2.15
446.108	2.16
446.314	2.19
446.52	2.3
446.726	2.33
446.931	2.31
447.137	2.38
447.343	2.4
447.549	2.36
447.755	2.35
447.96	2.37
448.166	2.33
448.372	2.31
448.578	2.21
448.783	2.27
448.989	2.38
449.195	2.36
449.4	2.47
449.606	2.5
449.812	2.42
450.017	2.37
450.223	2.34
450.428	2.26
450.634	2.32
450.84	2.41
451.045	2.44
451.251	2.51
451.456	2.62
451.662	2.58
451.867	2.56
452.073	2.57
452.278	2.51
452.483	2.43
452.689	2.47
452.894	2.57
453.1	2.52
453.305	2.57
453.51	2.68
453.716	2.66
453.921	2.6
454.127	2.57
454.332	2.56
454.537	2.47
454.742	2.43
454.948	2.39
455.153	2.47
455.358	2.48
455.563	2.61
455.769	2.69
455.974	2.74
456.179	2.7
456.384	2.71
456.589	2.63
456.795	2.63
457	2.62
457.205	2.57
457.41	2.5
457.615	2.41
457.82	2.41
458.025	2.42
458.23	2.52
458.435	2.63
458.64	2.73
458.845	2.78
459.05	2.75
459.255	2.7
459.46	2.69
459.665	2.65
459.87	2.55
460.075	2.53
460.28	2.66
460.485	2.73
460.69	2.69
460.895	2.81
461.099	2.66
461.304	2.5
461.509	2.41
461.714	2.52
461.919	2.45
462.123	2.61
462.328	2.61
462.533	2.54
462.738	2.39
462.942	2.37
463.147	2.4
463.352	2.56
463.556	2.68
463.761	2.82
463.966	2.82
464.17	2.9
464.375	2.87
464.58	2.76
464.784	2.77
464.989	2.84
465.193	2.8
465.398	2.7
465.602	2.93
465.807	2.87
466.011	2.84
466.216	2.74
466.42	2.8
466.625	2.8
466.829	2.86
467.034	2.98
467.238	3.08
467.443	3.1
467.647	2.96
467.851	2.99
468.056	3.03
468.26	3.01
468.464	3.07
468.669	3.12
468.873	3.1
469.077	3.03
469.282	3.1
469.486	3.07
469.69	3.17
469.894	3.21
470.099	3.18
470.303	3.18
470.507	3.21
470.711	3.1
470.915	3.1
471.119	3.15
471.324	3.23
471.528	3.27
471.732	3.38
471.936	3.41
472.14	3.43
472.344	3.46
472.548	3.45
472.752	3.4
472.956	3.4
473.16	3.39
473.364	3.38
473.568	3.36
473.772	3.34
473.976	3.43
474.18	3.41
474.384	3.36
474.588	3.36
474.792	3.39
474.995	3.42
475.199	3.51
475.403	3.54
475.607	3.57
475.811	3.58
476.015	3.43
476.218	3.41
476.422	3.43
476.626	3.4
476.83	3.51
477.033	3.59
477.237	3.62
477.441	3.65
477.644	3.67
477.848	3.67
478.052	3.74
478.255	3.72
478.459	3.71
478.663	3.81
478.866	3.77
479.07	3.72
479.273	3.82
479.477	3.81
479.681	3.76
479.884	3.77
480.088	3.81
480.291	3.71
480.495	3.72
480.698	3.77
480.901	3.81
481.105	3.83
481.308	3.87
481.512	3.89
481.715	3.94
481.919	4.03
482.122	4.05
482.325	4.14
482.529	4.19
482.732	4.14
482.935	4
483.138	3.93
483.342	3.89
483.545	3.95
483.748	4.05
483.952	4.16
484.155	4.31
484.358	4.28
484.561	4.25
484.764	4.19
484.967	4.14
485.171	4.13
485.374	4.1
485.577	4.09
485.78	4.09
485.983	4.06
486.186	4.04
486.389	4.1
486.592	4.1
486.795	4.12
486.998	4.07
487.201	4.11
487.404	4.21
487.607	4.23
487.81	4.2
488.013	4.38
488.216	4.35
488.419	4.19
488.622	4.18
488.825	4.22
489.028	4.12
489.231	4.08
489.433	4.2
489.636	4.2
489.839	4.25
490.042	4.31
490.245	4.33
490.447	4.25
490.65	4.26
490.853	4.25
491.056	4.18
491.258	4.22
491.461	4.25
491.664	4.27
491.866	4.21
492.069	4.31
492.272	4.24
492.474	4.26
492.677	4.29
492.879	4.29
493.082	4.26
493.285	4.34
493.487	4.39
493.69	4.33
493.892	4.31
494.095	4.31
494.297	4.32
494.5	4.29
494.702	4.36
494.905	4.4
495.107	4.42
495.309	4.44
495.512	4.38
495.714	4.36
495.917	4.46
496.119	4.47
496.321	4.4
496.524	4.41
496.726	4.39
496.928	4.33
497.13	4.29
497.333	4.27
497.535	4.38
497.737	4.38
497.939	4.34
498.142	4.38
498.344	4.41
498.546	4.36
498.748	4.48
498.95	4.55
499.152	4.57
499.355	4.56
499.557	4.59
499.759	4.65
499.961	4.66
500.163	4.74
500.365	4.89
500.567	4.87
500.769	4.79
500.971	4.83
501.173	4.76
501.375	4.75
501.577	4.73
501.779	4.68
501.981	4.67
502.183	4.68
502.385	4.64
502.587	4.7
502.788	4.69
502.99	4.72
503.192	4.83
503.394	4.81
503.596	4.81
503.798	4.83
503.999	4.84
504.201	4.8
504.403	4.83
504.605	4.87
504.806	4.98
505.008	5.04
505.21	4.98
505.411	5.01
505.613	5.03
505.815	5.03
506.016	5.04
506.218	5.14
506.42	5.14
506.621	5.22
506.823	5.21
507.024	5.19
507.226	5.18
507.427	5.27
507.629	5.18
507.83	5.21
508.032	5.2
508.233	5.22
508.435	5.2
508.636	5.28
508.838	5.32
509.039	5.34
509.24	5.4
509.442	5.42
509.643	5.4
509.845	5.4
510.046	5.42
510.247	5.4
510.448	5.41
510.65	5.44
510.851	5.5
511.052	5.56
511.254	5.63
511.455	5.66
511.656	5.66
511.857	5.62
512.058	5.64
512.26	5.55
512.461	5.54
512.662	5.61
512.863	5.54
513.064	5.51
513.265	5.51
513.466	5.54
513.667	5.53
513.868	5.62
514.069	5.64
514.27	5.69
514.471	5.67
514.672	5.65
514.873	5.7
515.074	5.72
515.275	5.71
515.476	5.76
515.677	5.79
515.878	5.74
516.079	5.81
516.28	5.88
516.481	5.93
516.682	5.94
516.882	5.99
517.083	5.94
517.284	5.94
517.485	5.9
517.686	5.88
517.886	5.85
518.087	5.88
518.288	5.84
518.488	5.84
518.689	5.82
518.89	5.86
519.091	5.91
519.291	5.93
519.492	5.96
519.692	5.98
519.893	6
520.094	5.93
520.294	5.92
520.495	5.98
520.695	6.02
520.896	6.03
521.096	6.09
521.297	6.13
521.497	6.11
521.698	6.14
521.898	6.14
522.099	6.13
522.299	6.12
522.499	6.07
522.7	6.06
522.9	6.05
523.101	6.06
523.301	6.11
523.501	6.17
523.702	6.18
523.902	6.21
524.102	6.28
524.302	6.29
524.503	6.25
524.703	6.27
524.903	6.3
525.103	6.26
525.304	6.22
525.504	6.28
525.704	6.34
525.904	6.33
526.104	6.33
526.304	6.38
526.504	6.38
526.705	6.28
526.905	6.3
527.105	6.3
527.305	6.27
527.505	6.22
527.705	6.25
527.905	6.31
528.105	6.34
528.305	6.36
528.505	6.38
528.705	6.44
528.905	6.41
529.105	6.43
529.304	6.43
529.504	6.49
529.704	6.45
529.904	6.45
530.104	6.43
530.304	6.47
530.503	6.49
530.703	6.52
530.903	6.54
531.103	6.58
531.303	6.58
531.502	6.62
531.702	6.65
531.902	6.75
532.101	6.76
532.301	6.79
532.501	6.88
532.7	6.93
532.9	6.87
533.1	6.91
533.299	6.92
533.499	6.82
533.698	6.78
533.898	6.78
534.097	6.76
534.297	6.79
534.496	6.83
534.696	6.86
534.895	6.91
535.095	6.94
535.294	6.94
535.494	6.97
535.693	6.99
535.892	7
536.092	7
536.291	7.06
536.491	7.04
536.69	7
536.889	6.97
537.088	7.01
537.288	6.95
537.487	6.98
537.686	7.02
537.886	7.07
538.085	7.07
538.284	7.12
538.483	7.15
538.682	7.19
538.882	7.22
539.081	7.25
539.28	7.29
539.479	7.33
539.678	7.36
539.877	7.37
540.076	7.43
540.275	7.45
540.474	7.4
540.673	7.43
540.872	7.43
541.071	7.45
541.27	7.52
541.469	7.59
541.668	7.61
541.867	7.71
542.066	7.74
542.265	7.72
542.464	7.71
542.663	7.75
542.862	7.79
543.06	7.87
543.259	7.95
543.458	8.07
543.657	8.09
543.856	8.1
544.054	8.08
544.253	8.09
544.452	8.08
544.651	8.13
544.849	8.18
545.048	8.24
545.247	8.31
545.445	8.3
545.644	8.34
545.843	8.32
546.041	8.33
546.24	8.34
546.438	8.41
546.637	8.45
546.836	8.56
547.034	8.62
547.233	8.7
547.431	8.79
547.63	8.8
547.828	8.84
548.027	8.85
548.225	8.83
548.423	8.83
548.622	8.93
548.82	8.94
549.019	9
549.217	9.1
549.415	9.13
549.614	9.26
549.812	9.28
550.01	9.32
550.209	9.41
550.407	9.5
550.605	9.4
550.803	9.48
551.002	9.62
551.2	9.62
551.398	9.74
551.596	9.86
551.794	9.97
551.993	10.01
552.191	10.07
552.389	10.09
552.587	10.16
552.785	10.13
552.983	10.19
553.181	10.25
553.379	10.32
553.577	10.39
553.775	10.55
553.973	10.65
554.171	10.74
554.369	10.88
554.567	10.92
554.765	10.96
554.963	10.95
555.161	11.02
555.359	11.03
555.557	11.11
555.755	11.25
555.952	11.44
556.15	11.55
556.348	11.65
556.546	11.81
556.744	11.84
556.941	11.85
557.139	11.91
557.337	11.98
557.535	11.99
557.732	12.06
557.93	12.21
558.128	12.3
558.325	12.4
558.523	12.56
558.721	12.71
558.918	12.78
559.116	12.87
559.313	12.93
559.511	12.99
559.708	13.1
559.906	13.17
560.104	13.29
560.301	13.43
560.498	13.49
560.696	13.61
560.893	13.75
561.091	13.84
561.288	13.92
561.486	14.03
561.683	14.09
561.88	14.17
562.078	14.25
562.275	14.34
562.473	14.47
562.67	14.58
562.867	14.7
563.064	14.82
563.262	14.88
563.459	14.98
563.656	15.05
563.853	15.12
564.051	15.24
564.248	15.47
564.445	15.56
564.642	15.72
564.839	15.85
565.036	15.99
565.234	15.98
565.431	16.14
565.628	16.18
565.825	16.29
566.022	16.37
566.219	16.51
566.416	16.61
566.613	16.76
566.81	16.81
567.007	16.87
567.204	16.98
567.401	17.06
567.598	17.17
567.795	17.31
567.991	17.38
568.188	17.42
568.385	17.45
568.582	17.55
568.779	17.56
568.976	17.65
569.172	17.77
569.369	17.88
569.566	17.88
569.763	17.95
569.96	18
570.156	18.1
570.353	18.16
570.55	18.26
570.746	18.35
570.943	18.48
571.14	18.51
571.336	18.56
571.533	18.67
571.729	18.76
571.926	18.84
572.123	18.95
572.319	19.03
572.516	19.07
572.712	19.08
572.909	19.01
573.105	19.07
573.302	19.05
573.498	19.02
573.695	19.05
573.891	19.14
574.087	19.04
574.284	19.1
574.48	19.17
574.677	19.27
574.873	19.41
575.069	19.53
575.266	19.59
575.462	19.66
575.658	19.72
575.854	19.61
576.051	19.62
576.247	19.6
576.443	19.56
576.639	19.51
576.835	19.48
577.032	19.47
577.228	19.55
577.424	19.56
577.62	19.51
577.816	19.56
578.012	19.64
578.208	19.68
578.404	19.66
578.6	19.76
578.796	19.86
578.993	19.84
579.189	19.8
579.384	19.91
579.58	19.91
579.776	19.84
579.972	19.83
580.168	19.84
580.364	19.84
580.56	19.78
580.756	19.8
580.952	19.78
581.148	19.83
581.343	19.8
581.539	19.84
581.735	19.82
581.931	19.76
582.127	19.75
582.322	19.7
582.518	19.66
582.714	19.68
582.909	19.73
583.105	19.72
583.301	19.76
583.496	19.76
583.692	19.69
583.888	19.68
584.083	19.68
584.279	19.63
584.474	19.61
584.67	19.63
584.866	19.69
585.061	19.69
585.257	19.72
585.452	19.81
585.648	19.77
585.843	19.74
586.039	19.76
586.234	19.8
586.429	19.72
586.625	19.84
586.82	19.91
587.015	19.89
587.211	19.93
587.406	19.99
587.601	19.97
587.797	19.94
587.992	19.97
588.187	19.93
588.383	20.06
588.578	20.07
588.773	20.08
588.968	20.1
589.163	20.14
589.359	20.05
589.554	20.04
589.749	20.03
589.944	20.07
590.139	20.12
590.334	20.19
590.529	20.27
590.724	20.42
590.919	20.48
591.114	20.56
591.309	20.57
591.504	20.57
591.699	20.55
591.894	20.58
592.089	20.52
592.284	20.62
592.479	20.68
592.674	20.77
592.869	20.81
593.064	20.93
593.259	20.95
593.454	21.09
593.648	21.12
593.843	21.12
594.038	21.17
594.233	21.33
594.428	21.43
594.622	21.52
594.817	21.72
595.012	21.71
595.206	21.7
595.401	21.67
595.596	21.79
595.79	21.81
595.985	21.98
596.18	22.11
596.374	22.24
596.569	22.3
596.763	22.39
596.958	22.5
597.153	22.56
597.347	22.53
597.542	22.53
597.736	22.56
597.931	22.52
598.125	22.59
598.319	22.8
598.514	22.81
598.708	22.94
598.903	23.12
599.097	23.15
599.291	23.18
599.486	23.35
599.68	23.38
599.874	23.38
600.069	23.45
600.263	23.54
600.457	23.64
600.651	23.75
600.846	23.93
601.04	23.97
601.234	24
601.428	24.03
601.622	24.02
601.817	23.98
602.011	24.03
602.205	24.09
602.399	24.01
602.593	24.07
602.787	24.01
602.981	24.07
603.175	24.12
603.369	24.26
603.563	24.24
603.757	24.3
603.951	24.24
604.145	24.14
604.339	24.14
604.533	24.09
604.727	24.03
604.921	24.1
605.115	24.15
605.309	24.11
605.502	24.16
605.696	24.28
605.89	24.29
606.084	24.18
606.278	24.11
606.471	23.99
606.665	23.84
606.859	23.68
607.053	23.68
607.246	23.7
607.44	23.65
607.634	23.64
607.827	23.64
608.021	23.52
608.214	23.37
608.408	23.38
608.602	23.3
608.795	23.31
608.989	23.35
609.182	23.29
609.376	23.24
609.569	23.22
609.763	23.16
609.956	23.07
610.15	23.04
610.343	22.98
610.537	22.9
610.73	22.71
610.923	22.65
611.117	22.65
611.31	22.53
611.504	22.56
611.697	22.55
611.89	22.53
612.083	22.4
612.277	22.38
612.47	22.23
612.663	22.12
612.856	21.98
613.05	21.95
613.243	21.89
613.436	21.84
613.629	21.81
613.822	21.77
614.015	21.61
614.209	21.47
614.402	21.37
614.595	21.38
614.788	21.32
614.981	21.21
615.174	21.17
615.367	21.08
615.56	20.94
615.753	21.03
615.946	21.03
616.139	20.96
616.332	20.96
616.525	20.93
616.718	20.76
616.911	20.75
617.103	20.86
617.296	20.76
617.489	20.61
617.682	20.59
617.875	20.59
618.067	20.44
618.26	20.53
618.453	20.58
618.646	20.49
618.838	20.34
619.031	20.25
619.224	20.06
619.417	20.14
619.609	20.2
619.802	20.17
619.994	20.15
620.187	20.12
620.38	19.97
620.572	19.87
620.765	19.86
620.957	19.86
621.15	19.8
621.342	19.71
621.535	19.78
621.727	19.72
621.92	19.73
622.112	19.78
622.305	19.82
622.497	19.64
622.69	19.62
622.882	19.57
623.074	19.59
623.267	19.59
623.459	19.58
623.651	19.58
623.844	19.62
624.036	19.6
624.228	19.57
624.42	19.6
624.613	19.52
624.805	19.46
624.997	19.39
625.189	19.38
625.381	19.38
625.574	19.4
625.766	19.31
625.958	19.35
626.15	19.29
626.342	19.21
626.534	19.14
626.726	19.17
626.918	19.07
627.11	19
627.302	19.06
627.494	19.12
627.686	19.06
627.878	19.03
628.07	19.08
628.262	19.01
628.454	18.97
628.646	18.85
628.838	18.9
629.029	18.72
629.221	18.63
629.413	18.54
629.605	18.57
629.797	18.42
629.989	18.48
630.18	18.5
630.372	18.43
630.564	18.43
630.755	18.45
630.947	18.39
631.139	18.29
631.33	18.33
631.522	18.31
631.714	18.21
631.905	18.22
632.097	18.24
632.289	18.2
632.48	18.06
632.672	18.07
632.863	17.96
633.055	17.94
633.246	17.91
633.438	17.92
633.629	17.92
633.821	17.97
634.012	17.91
634.203	17.93
634.395	17.99
634.586	17.91
634.777	17.89
634.969	17.87
635.16	17.79
635.351	17.72
635.543	17.76
635.734	17.73
635.925	17.74
636.117	17.76
636.308	17.8
636.499	17.76
636.69	17.77
636.881	17.71
637.073	17.83
637.264	17.78
637.455	17.72
637.646	17.72
637.837	17.8
638.028	17.66
638.219	17.72
638.41	17.77
638.601	17.77
638.792	17.8
638.983	17.74
639.174	17.63
639.365	17.57
639.556	17.37
639.747	17.27
639.938	17.35
640.129	17.41
640.32	17.44
640.511	17.55
640.701	17.59
640.892	17.47
641.083	17.39
641.274	17.38
641.465	17.35
641.655	17.36
641.846	17.36
642.037	17.35
642.228	17.28
642.418	17.3
642.609	17.24
642.8	17.29
642.99	17.29
643.181	17.36
643.372	17.33
643.562	17.34
643.753	17.23
643.943	17.11
644.134	17.03
644.324	16.97
644.515	16.9
644.705	16.88
644.896	17.03
645.086	16.95
645.277	16.91
645.467	16.87
645.658	16.91
645.848	16.84
646.038	16.85
646.229	16.94
646.419	16.9
646.61	16.88
646.8	16.83
646.99	16.88
647.18	16.8
647.371	16.79
647.561	16.74
647.751	16.77
647.941	16.76
648.132	16.69
648.322	16.61
648.512	16.62
648.702	16.55
648.892	16.45
649.082	16.51
649.272	16.55
649.462	16.59
649.653	16.46
649.843	16.38
650.033	16.39
650.223	16.39
650.413	16.31
650.603	16.39
650.793	16.53
650.983	16.42
651.172	16.4
651.362	16.31
651.552	16.33
651.742	16.16
651.932	16.14
652.122	16.14
652.312	16.03
652.502	15.86
652.691	15.85
652.881	15.76
653.071	15.66
653.261	15.56
653.45	15.5
653.64	15.35
653.83	15.25
654.019	14.98
654.209	15
654.399	14.86
654.588	14.81
654.778	14.63
654.968	14.66
655.157	14.5
655.347	14.38
655.536	14.21
655.726	14.05
655.915	13.9
656.105	13.73
656.294	13.57
656.484	13.39
656.673	13.38
656.863	13.24
657.052	13.13
657.241	13.07
657.431	13
657.62	12.83
657.809	12.58
657.999	12.47
658.188	12.25
658.377	12.04
658.567	11.89
658.756	11.76
658.945	11.58
659.134	11.48
659.324	11.29
659.513	11.15
659.702	11.02
659.891	10.9
660.08	10.76
660.269	10.59
660.458	10.4
660.648	10.18
660.837	9.98
661.026	9.8
661.215	9.74
661.404	9.57
661.593	9.5
661.782	9.3
661.971	9.14
662.16	8.97
662.349	8.81
662.538	8.61
662.726	8.52
662.915	8.42
663.104	8.32
663.293	8.35
663.482	8.23
663.671	8.14
663.86	8.09
664.048	8.08
664.237	7.97
664.426	8.08
664.615	7.99
664.803	7.89
664.992	7.7
665.181	7.58
665.369	7.29
665.558	7.2
665.747	7.14
665.935	7.13
666.124	7.08
666.312	7.12
666.501	7.1
666.69	7.02
666.878	6.86
667.067	6.72
667.255	6.67
667.444	6.75
667.632	6.81
667.82	6.83
668.009	6.8
668.197	6.74
668.386	6.6
668.574	6.46
668.762	6.35
668.951	6.44
669.139	6.44
669.327	6.37
669.516	6.36
669.704	6.44
669.892	6.34
670.08	6.3
670.269	6.43
670.457	6.46
670.645	6.48
670.833	6.57
671.021	6.67
671.21	6.62
671.398	6.7
671.586	6.74
671.774	6.78
671.962	6.73
672.15	6.83
672.338	6.8
672.526	6.86
672.714	6.92
672.902	6.99
673.09	7.03
673.278	7.14
673.466	7.15
673.654	7.28
673.842	7.48
674.03	7.6
674.218	7.62
674.405	7.65
674.593	7.69
674.781	7.6
674.969	7.68
675.157	7.8
675.344	7.94
675.532	7.92
675.72	8.02
675.908	7.92
676.095	7.86
676.283	7.89
676.471	8.04
676.658	8.16
676.846	8.24
677.033	8.33
677.221	8.45
677.409	8.44
677.596	8.46
677.784	8.62
677.971	8.69
678.159	8.7
678.346	8.83
678.534	8.82
678.721	8.93
678.909	9.11
679.096	9.17
679.283	9.32
679.471	9.59
679.658	9.58
679.846	9.59
680.033	9.82
680.22	9.97
680.408	9.93
680.595	10.21
680.782	10.37
680.969	10.56
681.157	10.58
681.344	10.79
681.531	10.78
681.718	10.92
681.905	11.01
682.093	11.15
682.28	11.33
682.467	11.62
682.654	11.91
682.841	12
683.028	12.13
683.215	12.33
683.402	12.41
683.589	12.41
683.776	12.62
683.963	12.86
684.15	13.09
684.337	13.39
684.524	13.76
684.711	14.12
684.898	14.34
685.085	14.6
685.271	14.84
685.458	15.02
685.645	15.11
685.832	15.47
686.019	15.7
686.205	16.08
686.392	16.39
686.579	16.94
686.766	17.18
686.952	17.64
687.139	18.04
687.326	18.68
687.512	18.97
687.699	19.55
687.886	19.89
688.072	20.2
688.259	20.47
688.445	21.1
688.632	21.45
688.818	22.01
689.005	22.47
689.191	23.06
689.378	23.47
689.564	24.15
689.751	24.88
689.937	25.63
690.124	26.15
690.31	26.56
690.496	27.14
690.683	27.55
690.869	28.08
691.055	28.44
691.242	29.44
691.428	30.14
691.614	30.99
691.8	31.68
691.987	32.75
692.173	33.29
692.359	34.12
692.545	34.7
692.731	35.49
692.918	35.99
693.104	36.7
693.29	37.05
693.476	37.56
693.662	38.1
693.848	38.96
694.034	39.73
694.22	40.44
694.406	40.99
694.592	41.67
694.778	42.17
694.964	42.85
695.15	43.48
695.336	44.3
695.522	45.07
695.708	45.79
695.894	46.29
696.08	46.86
696.265	47.68
696.451	48.14
696.637	49.12
696.823	49.54
697.009	50.34
697.194	50.79
697.38	51.58
697.566	51.98
697.751	52.73
697.937	53.35
698.123	54.16
698.308	54.64
698.494	55.26
698.68	56.08
698.865	56.49
699.051	56.9
699.236	57.56
699.422	57.63
699.607	57.91
699.793	58.83
699.978	59.19
700.164	59.7
700.349	60.7
700.535	60.93
700.72	60.9
700.906	61.27
701.091	61.6
701.276	61.7
701.462	62.55
701.647	63.36
701.832	63.98
702.018	64.38
702.203	64.94
702.388	65.44
702.573	65.82
702.759	66.32
702.944	66.77
703.129	66.95
703.314	66.96
703.499	67.22
703.684	67.49
703.87	67.78
704.055	68.06
704.24	68.46
704.425	68.53
704.61	68.95
704.795	69.47
704.98	69.85
705.165	70.36
705.35	70.93
705.535	71.12
705.72	71.24
705.905	71.89
706.09	72.28
706.275	72.59
706.459	72.98
706.644	73.22
706.829	73.14
707.014	73.31
707.199	73.7
707.384	73.76
707.568	73.86
707.753	74.51
707.938	74.63
708.123	74.7
708.307	74.98
708.492	75.47
708.677	75.46
708.861	75.58
709.046	75.25
709.231	75.5
709.415	75.81
709.6	75.9
709.784	76.05
709.969	76.71
710.153	76.28
710.338	76.29
710.522	76.14
710.707	76.31
710.891	76.17
711.076	76.79
711.26	76.95
711.445	77.52
711.629	77.42
711.813	78.12
711.998	78.31
712.182	78.25
712.366	78.67
712.551	78.9
712.735	78.73
712.919	79.18
713.103	79.75
713.288	79.6
713.472	79.89
713.656	79.85
713.84	79.96
714.024	79.63
714.208	79.47
714.393	79.72
714.577	79.99
714.761	79.66
714.945	79.82
715.129	79.88
715.313	79.72
715.497	79.82
715.681	79.73
715.865	79.97
716.049	80.42
716.233	80.47
716.417	80.67
716.601	81.27
716.785	81.14
716.968	80.98
717.152	80.95
717.336	81.09
717.52	81.47
717.704	81.7
717.888	81.84
718.071	82.26
718.255	82.33
718.439	81.53
718.622	81.29
718.806	81.27
718.99	81.03
719.174	80.82
719.357	81.48
719.541	82.34
719.724	82.88
719.908	83.04
720.092	83.09
720.275	83.07
720.459	82.69
720.642	82.58
720.826	82.08
721.009	82.49
721.193	82.26
721.376	82.53
721.559	82.28
721.743	82.97
721.926	82.81
722.11	83.2
722.293	83.23
722.476	83.24
722.66	83.89
722.843	83.97
723.026	83.83
723.21	83.5
723.393	84.38
723.576	84.11
723.759	84.12
723.942	84.03
724.126	83.91
724.309	83.35
724.492	83.31
724.675	83.76
724.858	83.98
725.041	84.28
725.224	84.6
725.407	85.06
725.59	84.63
725.774	85.25
725.957	85.5
726.14	85.09
726.322	84.95
726.505	85.43
726.688	84.82
726.871	84.66
727.054	85.29
727.237	85.05
727.42	84.62
727.603	84.76
727.786	85.2
727.968	84.55
728.151	84.72
728.334	85.29
728.517	85.6
728.699	85.02
728.882	85.46
729.065	85.5
729.248	85.43
729.43	85.41
729.613	86.06
729.796	86.22
729.978	86.22
730.161	86.21
730.343	86.44
730.526	86.19
730.708	86.29
730.891	86.6
731.073	86.45
731.256	86.42
731.438	87.48
731.621	87.57
731.803	87.55
731.986	87.99
732.168	88.65
732.35	88.22
732.533	87.88
732.715	87.95
732.898	88.23
733.08	87.26
733.262	86.86
733.444	87.29
733.627	87.46
733.809	87.57
733.991	88.08
734.173	88.4
734.355	88.25
734.538	88.7
734.72	88.5
734.902	89.13
735.084	88.93
735.266	90.08
735.448	90.31
735.63	90.16
735.812	89.55
735.994	89.96
736.176	89.3
736.358	89.18
736.54	89.92
736.722	90.25
736.904	90.48
737.086	90.2
737.268	91.16
737.45	91.17
737.632	90.86
737.814	91.63
737.995	91.81
738.177	90.81
738.359	90.66
738.541	90.8
738.723	90.68
738.904	91.05
739.086	90.96
739.268	90.6
739.449	91.01
739.631	90.02
739.813	89.4
739.994	88.95
740.176	88.86
740.358	89.37
740.539	89.48
740.721	90.54
740.902	91.13
741.084	91.36
741.265	90.5
741.447	90.91
741.628	89.78
741.81	89.81
741.991	90.22
742.172	90.35
742.354	90.54
742.535	90.74
742.717	90.15
742.898	90.02
743.079	90.31
743.261	89.98
743.442	88.93
743.623	89.49
743.804	89.15
743.986	89.12
744.167	89.21
744.348	90.43
744.529	90.02
744.71	89.7
744.891	88.74
745.073	89.08
745.254	89.17
745.435	89.99
745.616	90.13
745.797	90.03
745.978	89.16
746.159	87.77
746.34	87.53
746.521	88.34
746.702	89.56
746.883	90.52
747.064	92.05
747.245	91.67
747.426	92.16
747.606	91.7
747.787	91.84
747.968	91.24
748.149	90.44
748.33	88.68
748.51	87.82
748.691	87.59
748.872	89.18
749.053	89.53
749.233	90.64
749.414	91.6
749.595	91.01
749.775	89.29
749.956	89.54
750.137	89.3
750.317	88.73
750.498	89.12
750.678	89
750.859	89.83
751.04	89.16
751.22	88.89
751.4	89.34
751.581	90.02
751.761	89.93
751.942	89.93
752.122	90.09
752.303	89.73
752.483	89.48
752.663	89.84
752.844	90.31
753.024	90.94
753.204	91.07
753.385	91.3
753.565	88.9
753.745	88.73
753.925	88.49
754.106	87.7
754.286	86.36
754.466	88.61
754.646	88.34
754.826	88.44
755.006	88.03
755.187	88.89
755.367	86.8
755.547	87.91
755.727	88.24
755.907	88.64
756.087	88.32
756.267	88.48
756.447	88.6
756.627	88.21
756.807	88.75
756.987	89.03
757.167	89.53
757.346	88.16
757.526	88.87
757.706	88.02
757.886	87.77
758.066	88.1
758.246	88.38
758.425	86.69
758.605	85.93
758.785	85.57
758.965	86.7
759.144	86.37
759.324	88.14
759.504	89.74
759.683	89.05
759.863	87.99
760.043	87.22
760.222	87.07
760.402	84.94
760.581	87.43
760.761	87.05
760.94	88.04
761.12	86.37
761.299	88.5
761.479	88.57
761.658	88.57
761.838	89.13
762.017	89.81
762.197	88.83
762.376	87.51
762.555	87.01
762.735	86.11
762.914	86.3
763.093	85.22
763.273	84.79
763.452	84.05
763.631	83.32
763.81	82.94
763.99	84.56
764.169	84.77
764.348	85.53
764.527	86.7
764.706	86.51
764.885	86.36
765.064	86.75
765.243	87.76
765.423	86.78
765.602	87.61
765.781	85.59
765.96	86.11
766.139	85.52
766.318	86.32
766.497	85.26
766.676	86.1
766.854	85.43
767.033	85.17
767.212	86.12
767.391	86.72
767.57	88.24
767.749	87.88
767.928	90.18
768.106	89.61
768.285	88.26
768.464	87.02
768.643	86.86
768.821	85.23
769	85.15
769.179	86.2
769.357	87.39
769.536	87.4
769.715	84.68
769.893	84.22
770.072	82.73
770.25	81.14
770.429	81.67
770.607	83.38
770.786	82.72
770.964	84.01
771.143	85.12
771.321	84.26
771.5	84.13
771.678	82.93
771.857	81.44
772.035	81.05
772.213	80.33
772.392	79.85
772.57	80.33
772.748	81.9
772.927	81.99
773.105	83.54
773.283	83.8
773.461	86.4
773.64	86.85
773.818	87.65
773.996	87.05
774.174	88.47
774.352	85.29
774.531	82.83
774.709	82.01
774.887	80.22
775.065	79.31
775.243	80.3
775.421	80.23
775.599	79.87
775.777	80.72
775.955	80.05
776.133	80.28
776.311	81.54
776.489	84
776.667	84.37
776.844	86.76
777.022	87.18
777.2	87.32
777.378	82.94
777.556	85.71
777.734	85.71
777.911	87.9
778.089	90.62
778.267	94.06
778.445	93.84
778.622	90.89
778.8	85.97
778.978	84.62
779.155	82.94
779.333	81.74
779.511	81.22
779.688	83.56
779.866	82.98
780.043	84.99
780.221	85.67
780.398	86.61
780.576	86.41
780.753	83.64
780.931	81.01
781.108	81.61
781.286	81.1
781.463	79.33
781.64	80.05
781.818	80.86
781.995	79.19
782.172	77.09
782.35	79.63
782.527	80.56
782.704	80.18
782.882	77.66
783.059	77.64
783.236	78.44
783.413	77.89
783.59	77.86
783.768	80.27
783.945	83.61
784.122	82.88
784.299	83.42
784.476	80.67
784.653	79.54
784.83	76.62
785.007	74.64
785.184	74.31
785.361	78.24
785.538	79.89
785.715	81.69
785.892	80.89
786.069	83.34
786.246	83.35
786.423	82.24
786.6	83.07
786.776	86.14
786.953	82.33
787.13	83.34
787.307	81.41
787.484	78
787.66	77.21
787.837	79.19
788.014	78.3
788.191	78.09
788.367	80.77
788.544	80.92
788.721	78.66
788.897	78.84
789.074	82.29
789.25	82.99
789.427	80.89
789.603	80.93
789.78	78.64
789.956	75.21
790.133	73.64
790.309	75.04
790.486	78.04
790.662	78.89
790.839	80.12
791.015	81.08
791.192	79.9
791.368	78.7
791.544	77.02
791.721	77.45
791.897	75.14
792.073	74.36
792.249	73.17
792.426	74.81
792.602	76.11
792.778	76.52
792.954	77.36
793.13	80.44
793.307	82.31
793.483	79.73
793.659	82.32
793.835	85.47
794.011	87.98
794.187	84.82
794.363	84.18
794.539	84.3
794.715	82.42
794.891	78.19
795.067	79.2
795.243	79.89
795.419	79.35
795.595	79.83
795.771	77.37
795.947	75.44
796.122	71.15
796.298	67.31
796.474	68.7
796.65	72.64
796.826	72.75
797.001	76.51
797.177	75.49
797.353	73.15
797.529	72.53
797.704	74.27
797.88	73.36
798.056	80.61
798.231	81.82
798.407	83.87
798.582	84.16
798.758	85.18
798.934	83.03
799.109	74.46
799.285	69.08
799.46	70.03
799.636	68.41
799.811	68.15
799.986	71.96
800.162	69.78
800.337	72.91
800.513	74.73
800.688	68.58
800.863	76.37
801.039	80.96
801.214	76.72
801.389	75.85
801.565	82.43
801.74	78.75
801.915	72.56
802.09	71.59
802.265	70.01
802.441	67.64
802.616	63.48
802.791	70.95
802.966	74.8
803.141	76.46
803.316	79.63
803.491	86.39
803.666	85.93
803.841	78.57
804.016	76.27
804.191	76.48
804.366	70.05
804.541	65.68
804.716	62.93
804.891	66.57
805.066	67.42
805.241	61.41
805.416	63.53
805.591	71.65
805.765	75.41
805.94	64.33
806.115	71.29
806.29	74.21
806.464	70.31
806.639	67.5
806.814	71.41
806.989	72.43
807.163	68.35
807.338	66.46
807.512	66.99
807.687	74.05
807.862	81.25
808.036	86.98
808.211	88.69
808.385	94.38
808.56	84.75
808.734	72.18
808.909	71.34
809.083	76.15
809.258	76.12
809.432	82.11
809.606	88.23
809.781	85.28
809.955	92.29
810.13	79.5
810.304	74.99
810.478	75.06
810.652	69.83
810.827	64.91
811.001	70.92
811.175	70.55
811.349	70.79
811.524	74.86
811.698	67.77
811.872	66.24
812.046	63.32
812.22	62.06
812.394	57.75
812.568	64.79
812.742	61.75
812.916	70.35
813.09	67.33
813.264	69.33
813.438	70.88
813.612	69.91
813.786	64.53
813.96	68.93
814.134	69.22
814.308	62.82
814.482	64.27
814.656	60.44
814.83	63.33
815.003	69.23
815.177	72.85
815.351	75.43
815.525	83.26
815.698	71.45
815.872	63.06
816.046	60.46
816.219	64.48
816.393	54.08
816.567	64.18
816.74	63.8
816.914	63.61
817.088	65.41
817.261	75.27
817.435	71.23
817.608	75.46
817.782	72.55
817.955	61.72
818.129	57.49
818.302	62.2
818.475	65.35
818.649	64.83
818.822	59.07
818.996	69.64
819.169	72.5
819.342	71.66
819.516	88.51
819.689	95.13
819.862	92.55
820.035	87.71
820.209	83.51
820.382	67.24
820.555	65.99
820.728	58.72
820.901	59.89
821.075	70.87
821.248	78.4
821.421	70.06
821.594	59.94
821.767	61.98
821.94	53.2
822.113	53.45
822.286	65.04
822.459	76.3
822.632	72.17
822.805	74.2
822.978	71.78
823.151	58.01
823.324	52.53
823.496	44.99
823.669	50.15
823.842	50.8
824.015	57.84
824.188	63.01
824.361	75.01
824.533	56.73
824.706	59.99
824.879	61.43
825.051	65.03
825.224	60.63
825.397	67.02
825.569	58.87
825.742	64.85
825.915	71
826.087	51.86
826.26	58.9
826.432	65.45
826.605	66.81
826.777	57.72
826.95	77.19
827.122	68.8
827.295	84.02
827.467	80.36
827.64	77.86
827.812	75.37
827.984	88.36
828.157	53.95
828.329	45.01
828.501	30.5
828.674	47.08
828.846	59.05
829.018	57.47
829.19	57.65
829.363	75.08
829.535	70.97
829.707	63.89
829.879	74.42
830.051	95.45
830.223	84.74
830.395	69.35
830.568	45.35
830.74	46.83
830.912	42.89
831.084	42.18
831.256	38.73
831.428	55.18
831.6	38.6
831.772	28.35
831.943	12.77
832.115	36.63
832.287	29.92
832.459	40.79
832.631	44.92
832.803	59.26
832.975	58.14
833.146	50.75
833.318	60.76
833.49	65.34
833.662	74.62
833.833	63.66
834.005	61.82
834.177	51.89
834.348	39.08
834.52	30.45
834.692	26.02
834.863	36.44
835.035	35.87
835.206	42.53
835.378	53.32
835.549	63.62
835.721	62.4
835.892	62.01
836.064	57.51
836.235	58.16
836.407	65.28
836.578	62.09
836.749	59.34
836.921	67.49
837.092	48.27
837.264	39.92
837.435	32.66
837.606	34.82
837.777	29.46
837.949	46.64
838.12	43.32
838.291	52.12
838.462	67.01
838.633	73.98
838.805	60.28
838.976	59.14
839.147	59.51
839.318	58.8
839.489	56.46
839.66	76.15
839.831	76.2
840.002	77.02
840.173	73.75
840.344	77.13
840.515	49.63
840.686	55
840.857	48.16
841.028	55.06
841.199	54.54
841.369	68.02
841.54	63.67
841.711	95.27
841.882	72.08
842.053	49.47
842.223	38.3
842.394	47.75
842.565	26.28
842.736	17.23
842.906	9.3
843.077	9.54
843.248	27
843.418	41.95
843.589	41.43
843.759	58.29
843.93	79.43
844.101	47.75
844.271	52.07
844.442	49.66
844.612	67.09
844.783	82.33
844.953	81.66
845.123	65.13
845.294	81.94
845.464	72.56
845.635	30.9
845.805	32.72
845.975	55.3
846.146	39.59
846.316	31.75
846.486	47.69
846.656	67.61
846.827	59.98
846.997	67.87
847.167	77.68
847.337	63.76
847.507	59.68
847.677	57.57
847.848	63.19
848.018	54.23
848.188	55.12
848.358	40.19
848.528	47.68
848.698	24.47
848.868	38.63
849.038	24.98
849.208	35.89
849.378	34.35
849.548	22.2
849.718	5.86
849.887	53.9
850.057	35.28
850.227	51.76
850.397	55.87
850.567	28.87
850.737	44.74
850.906	38.54
851.076	28.79
851.246	48.4
851.415	58.25
851.585	50.69
851.755	59.98
851.924	67.9
852.094	65.92
852.264	65.99
852.433	33.1
852.603	5.55
852.772	9.11
852.942	47.23
853.111	41.82
853.281	72.51
853.45	59.05
853.62	76.34
853.789	49.42
853.959	55.83
854.128	45.48
854.297	64.52
854.467	45.72
854.636	38.97
854.805	23.81
854.975	27.52
855.144	17.16
855.313	21.13
855.482	21.63
855.652	43.22
855.821	2.43
855.99	9.5
856.159	4.82
856.328	13.39
856.497	5.36
856.667	16.05
856.836	29.35
857.005	25.29
857.174	26.65
857.343	45.08
857.512	49.15
857.681	53.81
857.85	30.87
858.019	10.81
858.188	-24.92
858.356	2.73
858.525	-2.41
858.694	11.81
858.863	29.48
859.032	30.98
859.201	7.49
859.369	25.42
859.538	44.1
859.707	32.88
859.876	40.7
860.044	54.5
860.213	52.62
860.382	49.71
860.55	35.12
860.719	32.32
860.888	14.29
861.056	2.43
861.225	-7.4
861.393	19.33
861.562	31.19
861.73	28.69
861.899	30.88
862.067	23.77
862.236	39.26
862.404	55.62
862.572	48.76
862.741	31.7
862.909	34.36
863.078	14.8
863.246	-10.72
863.414	35.61
863.582	31.34
863.751	26.71
863.919	32.93
864.087	52.56
864.255	29.74
864.424	59.81
864.592	56.58
864.76	44.32
864.928	39.85
865.096	25.27
865.264	23.59
865.432	18.11
865.6	18.39
865.768	3.8
865.936	9.53
866.104	-6.57
866.272	-85.85
866.44	-33.24
866.608	-14.02
866.776	-4.8
866.944	51.25
867.112	70.69
867.28	68.43
867.448	69.12
867.615	67.49
867.783	24.98
867.951	15.42
868.119	12.09
868.286	34.89
868.454	27.6
868.622	53.26
868.789	83.03
868.957	77.88
869.125	67.94
869.292	51.95
869.46	56.08
869.627	53.58
869.795	70.12
869.963	85.07
870.13	101.58
870.298	104.97
870.465	80.68
870.632	19.02
870.8	-1.91
870.967	4.94
871.135	-1.1
871.302	0.35
871.469	34.98
871.637	77.87
871.804	74.16
871.971	50.62
872.139	45.71
872.306	15.87
872.473	-18.41
872.64	-58.43
872.807	-104.96
872.975	-135.4
873.142	-10.52
873.309	19.91
873.476	58.72
873.643	85.65
873.81	65.94
873.977	70.18
874.144	67.31
874.311	17.74
874.478	26.85
874.645	-10.82
874.812	35.87
874.979	60.56
875.146	65.1
875.313	89.68
875.48	115.83
875.647	130.35
875.813	89.65
875.98	114.55
876.147	105.85
876.314	61.6
876.481	88.3
876.647	67.98
876.814	47.32
876.981	46.21
877.147	58.6
877.314	41.58
877.481	58.68
877.647	57.72
877.814	74.52
877.98	86.22
878.147	105.58
878.314	112.12
878.48	132.37
878.647	104.42
878.813	91.14
878.979	68.03
879.146	65.57
879.312	60.81
879.479	71.52
879.645	62.64
879.811	38.67
879.978	29.58
880.144	21.58
880.31	-1.98
880.477	2.42
880.643	16.2
880.809	-47.11
880.975	-50.18
881.142	-32.34
881.308	290.44
881.474	367.02
881.64	42.96
881.806	42.32
881.972	11.2
882.138	26.23
882.304	54.32
882.47	55.41
882.636	34.5
882.802	30.17
882.968	78.25
883.134	40.26
883.3	7.93
883.466	83.1
883.632	100.69
883.798	106.38
883.964	66.43
884.129	477.73
884.295	74
884.461	50.52
884.627	33.11
884.793	29.83
884.958	28.4
885.124	-1.33
885.29	-33.39
885.455	-65.58
885.621	-45.76
885.787	-9.26
885.952	-11.63
886.118	26.49
886.283	24.24
886.449	17.06
886.614	24.88
886.78	18.89
886.945	29.78
887.111	-16.53
887.276	-40.61
887.442	-142.22
887.607	-70.1
887.773	-57.06
887.938	-36.14
888.103	5.66
888.269	39.65
888.434	31.51
888.599	16.13
888.764	38.55
888.93	52.02
889.095	23.4
889.26	1.05
889.425	30.44
889.59	21.75
889.756	-20.93
889.921	0.51
890.086	58
890.251	80.83
890.416	12.51
890.581	0.69
890.746	47.5
890.911	36.1
891.076	11.87
891.241	-18.47
891.406	-19.4
891.571	-83.6
891.736	-180.09
891.901	-51.07
892.065	25.91
892.23	60.3
892.395	63.85
892.56	49.46
892.725	161.32
892.889	363.57
893.054	181.61
893.219	97.82
893.384	65.2
893.548	-33.21
893.713	-143.12
893.878	-286.25
