Data from Ofra_2a_PS_9CX6_Reflection_2.txt Node
Date: Tue Jul 20 09:59:18 EDT 2021
User: Adam
Spectrometer: FLMT01687
Trigger mode: 0
Integration Time (sec): 9.450000E-1
Scans to average: 3
Electric dark correction enabled: true
Nonlinearity correction enabled: false
Boxcar width: 3
XAxis mode: Wavelengths
Number of Pixels in Spectrum: 3648
>>>>>Begin Spectral Data<<<<<
179.494	884.02
179.716	525.53
179.937	538.46
180.158	2060.16
180.38	-1002.91
180.601	-194.61
180.823	-94.11
181.044	99.8
181.265	83.97
181.486	45.21
181.708	-163.04
181.929	-56.51
182.15	-760.23
182.372	23.29
182.593	101.2
182.814	35.03
183.035	105.99
183.257	47.73
183.478	55.39
183.699	83.1
183.92	66.67
184.141	67.73
184.363	59.67
184.584	52.89
184.805	54.3
185.026	65.2
185.247	29.1
185.468	27.78
185.689	38.36
185.91	40.8
186.132	43.1
186.353	40.52
186.574	38.07
186.795	28.29
187.016	18.85
187.237	22.9
187.458	17.33
187.679	-2.06
187.9	12.16
188.121	10.87
188.342	60.07
188.563	70.23
188.784	44.14
189.005	43.8
189.226	42.94
189.447	29.82
189.667	29.19
189.888	14.64
190.109	8.43
190.33	12.25
190.551	4.66
190.772	19.72
190.993	36.35
191.214	32.04
191.434	43.54
191.655	42.58
191.876	50.2
192.097	48.11
192.318	39.38
192.538	38.04
192.759	46.09
192.98	35.6
193.201	42.12
193.421	42.13
193.642	45.31
193.863	62.15
194.083	58.83
194.304	44.05
194.525	58.74
194.745	44.56
194.966	27.01
195.187	34.94
195.407	23.1
195.628	20.81
195.848	27.54
196.069	7.54
196.29	8.66
196.51	9.48
196.731	15.39
196.951	23.04
197.172	13.75
197.392	17.3
197.613	11.92
197.833	15.46
198.054	20.6
198.274	-0.69
198.495	-6.76
198.715	-2.95
198.936	-13.72
199.156	19.13
199.377	25.81
199.597	24.93
199.817	33.62
200.038	45
200.258	53.39
200.479	66.34
200.699	57.25
200.919	39.27
201.14	43.64
201.36	59.76
201.58	44.98
201.801	35.62
202.021	20.1
202.241	20.62
202.461	31.12
202.682	27.41
202.902	24.48
203.122	26.58
203.342	29.67
203.563	36.54
203.783	32.84
204.003	37.18
204.223	43.83
204.443	42
204.663	44.29
204.884	46.72
205.104	51.06
205.324	64.8
205.544	59.54
205.764	53.46
205.984	58
206.204	54.42
206.424	42.7
206.644	35.29
206.864	23.37
207.084	31.92
207.304	22.52
207.525	4.62
207.745	4.68
207.964	-2.3
208.184	-2.06
208.404	6.86
208.624	-15.11
208.844	-20.53
209.064	-10.48
209.284	-1.14
209.504	2.79
209.724	-9.29
209.944	-4.06
210.164	17.55
210.384	33.99
210.604	23.07
210.823	0.91
211.043	-6.95
211.263	8.49
211.483	7.34
211.703	3.92
211.922	9.67
212.142	25.62
212.362	27.87
212.582	33.36
212.801	18.88
213.021	23.24
213.241	16.87
213.461	2.74
213.68	4.69
213.9	5.16
214.12	3.61
214.339	14.38
214.559	14.35
214.779	23.21
214.998	24.51
215.218	32.9
215.438	42.5
215.657	39.97
215.877	44.43
216.096	49.1
216.316	43.4
216.535	54.02
216.755	30.11
216.974	25.01
217.194	26.11
217.413	42.55
217.633	21.96
217.852	14.3
218.072	0.84
218.291	33.36
218.511	30.2
218.73	19.6
218.95	10.92
219.169	15.89
219.389	17.34
219.608	31.73
219.827	12.75
220.047	20.03
220.266	38.89
220.485	43.49
220.705	42.71
220.924	47.66
221.143	32.72
221.363	39.01
221.582	27.98
221.801	36.21
222.021	32.17
222.24	24.9
222.459	24.06
222.678	35.78
222.897	13.85
223.117	18.09
223.336	10.33
223.555	-11.25
223.774	12.87
223.993	11.4
224.213	18.96
224.432	40.33
224.651	45.75
224.87	40.26
225.089	60.01
225.308	44.21
225.527	47.5
225.746	32.38
225.965	21.55
226.184	19.2
226.404	7.49
226.623	10.02
226.842	15.92
227.061	21.81
227.28	34.03
227.499	42.81
227.718	34.86
227.936	39.6
228.155	32.33
228.374	28.31
228.593	25.25
228.812	20.9
229.031	10.42
229.25	29.12
229.469	34.44
229.688	37.2
229.907	29.83
230.125	27.81
230.344	36.45
230.563	37.05
230.782	24.45
231.001	27.71
231.22	24.27
231.438	40.63
231.657	41.6
231.876	34.71
232.095	42.72
232.313	50.06
232.532	44.1
232.751	43.52
232.969	41.37
233.188	44.61
233.407	39.62
233.625	30.56
233.844	32.5
234.063	25.79
234.281	29.56
234.5	28.76
234.719	25.61
234.937	38.9
235.156	31.28
235.374	24
235.593	26.16
235.811	22.72
236.03	7.36
236.249	15.13
236.467	6.54
236.686	28.1
236.904	26.77
237.123	43.86
237.341	43.77
237.559	52.42
237.778	63.43
237.996	57.9
238.215	52.84
238.433	51.18
238.652	39.69
238.87	39.63
239.088	28.77
239.307	15.24
239.525	10.97
239.743	6.79
239.962	8.64
240.18	10.79
240.398	8.34
240.617	25.61
240.835	32.41
241.053	46.08
241.271	50.01
241.49	45.2
241.708	47.52
241.926	43.75
242.144	42.4
242.363	31.96
242.581	20.7
242.799	6.82
243.017	10.69
243.235	-4.27
243.453	2.56
243.672	-13.68
243.89	-1
244.108	9.96
244.326	5.41
244.544	1.24
244.762	11.74
244.98	8.16
245.198	11.96
245.416	2.14
245.634	15.09
245.852	21.99
246.07	23.23
246.288	15.74
246.506	10.59
246.724	16.73
246.942	42.99
247.16	26.59
247.378	26.44
247.596	27.43
247.814	24.92
248.032	30.57
248.25	27.94
248.468	8.05
248.685	10.76
248.903	4.06
249.121	1.61
249.339	8
249.557	14.01
249.775	1.34
249.992	5.16
250.21	4.74
250.428	12.6
250.646	16.64
250.863	23.33
251.081	25.72
251.299	52.18
251.517	72.98
251.734	72.34
251.952	70.49
252.17	65.2
252.387	46.74
252.605	50.4
252.823	30.75
253.04	16.76
253.258	13.92
253.475	18.35
253.693	40.17
253.911	45.51
254.128	33.7
254.346	29.75
254.563	31.23
254.781	26.9
254.998	16
255.216	8.44
255.433	11.33
255.651	15.33
255.868	18.53
256.086	13.42
256.303	19.01
256.521	14.87
256.738	7.23
256.956	5.58
257.173	11.63
257.39	25.63
257.608	25.62
257.825	20.57
258.043	28.84
258.26	32.64
258.477	35.48
258.695	33.98
258.912	32.71
259.129	29.11
259.346	30.24
259.564	20.54
259.781	26.37
259.998	14.12
260.216	23.02
260.433	9.87
260.65	15.44
260.867	1.4
261.084	19.63
261.302	8.51
261.519	10.27
261.736	-6.79
261.953	3.62
262.17	10.49
262.387	29.71
262.604	25.09
262.822	32.43
263.039	38.5
263.256	41.34
263.473	40.6
263.69	39.15
263.907	35.79
264.124	25.25
264.341	17
264.558	16.7
264.775	19.87
264.992	21.96
265.209	25.29
265.426	25.01
265.643	31.2
265.86	34.08
266.077	32.07
266.294	32.26
266.51	31.27
266.727	22.74
266.944	13.61
267.161	11.01
267.378	8.76
267.595	-2.11
267.812	-8.36
268.028	-13.48
268.245	-11.03
268.462	-5.78
268.679	-7.71
268.896	-12.37
269.112	8.63
269.329	19.75
269.546	19.74
269.763	30.55
269.979	27.91
270.196	31.7
270.413	35.65
270.629	18.95
270.846	10.18
271.063	10.76
271.279	4.09
271.496	-2.5
271.712	-3.99
271.929	12.12
272.146	20.44
272.362	18.41
272.579	26.26
272.795	24.35
273.012	26.73
273.228	26.88
273.445	19.42
273.661	12.14
273.878	14.94
274.094	13.42
274.311	18.9
274.527	14.79
274.744	9.39
274.96	3.92
275.177	16.87
275.393	24.42
275.609	27.6
275.826	21.5
276.042	31.86
276.259	35.88
276.475	32.23
276.691	32.15
276.908	24.16
277.124	18.17
277.34	18.65
277.557	14.56
277.773	6.55
277.989	7.58
278.205	-0.54
278.422	12.82
278.638	22.34
278.854	26.81
279.07	19.11
279.286	24.94
279.503	28.82
279.719	33.86
279.935	20.34
280.151	20.54
280.367	23.21
280.583	31.66
280.799	36.06
281.016	35.85
281.232	22.17
281.448	16.38
281.664	12.22
281.88	6.41
282.096	5.53
282.312	-0.74
282.528	-11.21
282.744	3.73
282.96	16.16
283.176	16.1
283.392	31.83
283.608	36.34
283.824	31.69
284.04	35.52
284.256	40.76
284.471	48.09
284.687	43.02
284.903	31.51
285.119	21.26
285.335	24
285.551	23.22
285.767	15.05
285.982	6.23
286.198	1.82
286.414	17.45
286.63	25.93
286.846	27.5
287.061	31.29
287.277	33.28
287.493	26.57
287.709	29.23
287.924	25.4
288.14	30.12
288.356	35.67
288.571	34.23
288.787	33.42
289.003	41.56
289.218	37.12
289.434	36.04
289.65	30.74
289.865	32.93
290.081	27.19
290.296	29.88
290.512	33.62
290.727	41.28
290.943	33.65
291.159	31.79
291.374	19.93
291.59	16.61
291.805	21.62
292.021	7.16
292.236	5.49
292.451	6.51
292.667	3.41
292.882	3.6
293.098	3.14
293.313	-11.65
293.529	-7.7
293.744	-4.03
293.959	4.41
294.175	6.61
294.39	11.51
294.605	17.16
294.821	29.77
295.036	35.69
295.251	42.02
295.467	29.55
295.682	30.33
295.897	27.16
296.112	33.19
296.328	26.52
296.543	21.54
296.758	20.66
296.973	24.11
297.188	23.01
297.404	19.33
297.619	16.74
297.834	27.91
298.049	24.29
298.264	14.73
298.479	11.96
298.694	16.37
298.909	14.26
299.125	13.73
299.34	4.21
299.555	15.03
299.77	13.03
299.985	10.83
300.2	6.34
300.415	10.69
300.63	7.28
300.845	11.93
301.06	3.06
301.275	13.99
301.49	21
301.704	22.47
301.919	18.98
302.134	20.18
302.349	8.67
302.564	0.82
302.779	-6.83
302.994	-7.34
303.209	-10.04
303.423	-4.73
303.638	-4.11
303.853	2.43
304.068	22.2
304.283	17.86
304.497	9.39
304.712	12.58
304.927	9.64
305.142	9.88
305.356	16.6
305.571	14.86
305.786	11.99
306	26.14
306.215	30.92
306.43	41.63
306.644	37.77
306.859	36.83
307.074	36.62
307.288	43.18
307.503	29.13
307.717	19.96
307.932	18.06
308.147	18.26
308.361	12.66
308.576	17.01
308.79	16.85
309.005	21.54
309.219	30.73
309.434	23.98
309.648	20.4
309.863	23.51
310.077	17.98
310.292	14.83
310.506	31.23
310.72	26.55
310.935	32.81
311.149	32.8
311.364	37.04
311.578	35.06
311.792	36.3
312.007	19.72
312.221	19.51
312.435	22.32
312.649	-7.94
312.864	-24.38
313.078	-24.27
313.292	-27.62
313.507	-11.5
313.721	-7.79
313.935	5.32
314.149	33.59
314.363	36.48
314.578	60.82
314.792	55.2
315.006	53.22
315.22	53.9
315.434	35.71
315.648	36.32
315.862	38.59
316.077	26.17
316.291	32.87
316.505	30.85
316.719	9.39
316.933	17.21
317.147	15.03
317.361	25.28
317.575	20.88
317.789	22.38
318.003	20.28
318.217	35.48
318.431	41.98
318.645	45.17
318.859	31.62
319.073	26.01
319.287	29.33
319.5	33.64
319.714	26.28
319.928	27.68
320.142	34.91
320.356	45.48
320.57	43.73
320.784	42.17
320.997	36.11
321.211	37.35
321.425	22.34
321.639	17.76
321.853	5.87
322.066	14.43
322.28	9.82
322.494	5.98
322.707	12.74
322.921	15.62
323.135	19.84
323.349	23.25
323.562	15.37
323.776	16.6
323.989	16.44
324.203	18.9
324.417	13.11
324.63	4.65
324.844	5.86
325.057	15.59
325.271	11.71
325.485	21.76
325.698	14.25
325.912	22.02
326.125	30.03
326.339	23.64
326.552	23.39
326.766	32.44
326.979	32.74
327.193	25.43
327.406	26.28
327.619	9.91
327.833	15.99
328.046	7.79
328.26	-6.48
328.473	-11.98
328.686	-3.76
328.9	-8.47
329.113	7.81
329.326	17.48
329.54	21.05
329.753	22.31
329.966	21.82
330.179	33.01
330.393	37.14
330.606	36.18
330.819	31.28
331.032	34.03
331.246	38.05
331.459	37.56
331.672	28.35
331.885	25.74
332.098	23.26
332.311	15.43
332.525	14.36
332.738	19.89
332.951	23.32
333.164	18.38
333.377	14.69
333.59	16.41
333.803	24.72
334.016	17.97
334.229	16.99
334.442	24.01
334.655	31.71
334.868	38.4
335.081	41.71
335.294	32.82
335.507	41.49
335.72	29.09
335.933	32.05
336.146	38.52
336.359	28.93
336.572	18.14
336.785	28.63
336.997	22.97
337.21	25.48
337.423	18.05
337.636	14.88
337.849	21.4
338.062	26.93
338.274	20.08
338.487	28.64
338.7	29.83
338.913	26.38
339.125	26.56
339.338	28.81
339.551	34.48
339.763	35.35
339.976	30.98
340.189	29.97
340.402	32.38
340.614	36.09
340.827	25.45
341.039	17.95
341.252	13.91
341.465	9.69
341.677	5.11
341.89	6.85
342.102	4.85
342.315	16.91
342.527	16.72
342.74	21.16
342.952	23.7
343.165	37.13
343.377	32.05
343.59	25.01
343.802	27.79
344.015	32.26
344.227	27.33
344.44	20.14
344.652	11.77
344.864	17.39
345.077	14.52
345.289	9.87
345.502	-0.79
345.714	6.36
345.926	12.19
346.139	21.1
346.351	0.32
346.563	12.87
346.775	7.48
346.988	16.54
347.2	13.38
347.412	17.72
347.624	12.71
347.837	25.12
348.049	21.52
348.261	19.7
348.473	16.44
348.685	18.87
348.897	14.55
349.11	20.26
349.322	12.91
349.534	7.71
349.746	23.29
349.958	19.86
350.17	23.43
350.382	22.86
350.594	27.82
350.806	34.5
351.018	38.59
351.23	35.36
351.442	45.71
351.654	45.56
351.866	49.02
352.078	39.39
352.29	48.46
352.502	45.62
352.714	41.94
352.926	29.95
353.138	20.23
353.35	12.06
353.561	8.04
353.773	3.82
353.985	7.55
354.197	4.11
354.409	7.84
354.621	14.26
354.832	12.63
355.044	22.43
355.256	13.78
355.468	12.68
355.679	13.94
355.891	12.71
356.103	14.11
356.314	20.29
356.526	16.13
356.738	12.1
356.949	16.29
357.161	24.33
357.373	24
357.584	28.83
357.796	22.05
358.008	24.77
358.219	37.07
358.431	34.97
358.642	20
358.854	20.24
359.065	10.72
359.277	12.55
359.488	9.32
359.7	4.15
359.911	-0.72
360.123	16.1
360.334	16.14
360.546	8.51
360.757	12.63
360.969	18.58
361.18	19.08
361.391	18.53
361.603	18.08
361.814	21.81
362.025	23.47
362.237	24.56
362.448	22.33
362.659	13.88
362.871	22.96
363.082	18.39
363.293	18.53
363.504	22.69
363.716	21.6
363.927	14.52
364.138	19.83
364.349	13.65
364.56	6.64
364.772	4.32
364.983	-2.67
365.194	-1.61
365.405	10.23
365.616	3.56
365.827	5.31
366.038	25.64
366.25	24.39
366.461	35.41
366.672	28.65
366.883	25.61
367.094	31.78
367.305	34.9
367.516	30.59
367.727	30.76
367.938	30.38
368.149	33.43
368.36	37.55
368.571	37.68
368.781	32.31
368.992	26.82
369.203	27.01
369.414	22.44
369.625	17.88
369.836	13.05
370.047	8.5
370.258	10.24
370.468	3.28
370.679	-0.28
370.89	9.27
371.101	5.76
371.312	6.17
371.522	9.36
371.733	2.42
371.944	14.26
372.155	5.76
372.365	-3.24
372.576	6.15
372.787	2.42
372.997	1.39
373.208	4.65
373.419	2.29
373.629	21.41
373.84	17.13
374.05	16
374.261	14.77
374.472	13.51
374.682	10.14
374.893	8.31
375.103	0.28
375.314	6.57
375.524	5.82
375.735	5.54
375.945	8.6
376.156	21.49
376.366	23.54
376.577	27.34
376.787	32.1
376.997	34.17
377.208	29.05
377.418	26.85
377.629	20.31
377.839	24.01
378.049	22.16
378.26	25.64
378.47	24.65
378.68	29.42
378.89	25.41
379.101	13.33
379.311	2.39
379.521	7.14
379.732	-8.82
379.942	-7.24
380.152	-0.42
380.362	8.64
380.572	25.36
380.783	29.93
380.993	26.91
381.203	33.61
381.413	37.84
381.623	37.66
381.833	37.11
382.043	26.25
382.253	29.09
382.463	30.69
382.674	31.2
382.884	20.9
383.094	15.22
383.304	11.12
383.514	16
383.724	9.2
383.934	5.7
384.144	8.4
384.353	9.36
384.563	8.7
384.773	8.33
384.983	8.99
385.193	13.26
385.403	16.31
385.613	11.55
385.823	11.54
386.033	12.39
386.242	12.42
386.452	10.98
386.662	12.97
386.872	12.3
387.082	9.56
387.291	10.93
387.501	13.68
387.711	13.29
387.921	12.27
388.13	10.27
388.34	4.88
388.55	9.89
388.759	8.99
388.969	4.87
389.179	6.14
389.388	5.03
389.598	2.17
389.807	5.48
390.017	3.39
390.227	2.12
390.436	4.94
390.646	4.27
390.855	5.33
391.065	5.57
391.274	4.3
391.484	4.2
391.693	5.47
391.903	4.24
392.112	4.22
392.322	5.03
392.531	5.92
392.74	3.72
392.95	3.89
393.159	4.06
393.369	4.24
393.578	4.3
393.787	4.1
393.997	4.42
394.206	5.63
394.415	5.85
394.625	4.49
394.834	3.72
395.043	4
395.252	3.86
395.462	3.29
395.671	4.28
395.88	4.05
396.089	4.74
396.298	4.9
396.508	4.34
396.717	3.6
396.926	3.34
397.135	2.57
397.344	2.31
397.553	2.39
397.762	2.39
397.971	2.28
398.181	1.71
398.39	1.96
398.599	2.24
398.808	2.2
399.017	2.45
399.226	2.71
399.435	2.74
399.644	3.39
399.853	3.37
400.062	3.06
400.27	3.29
400.479	2.97
400.688	2.81
400.897	3.03
401.106	2.94
401.315	2.79
401.524	3.03
401.733	3.06
401.941	2.98
402.15	2.76
402.359	2.61
402.568	2.59
402.777	2.61
402.985	2.54
403.194	2.34
403.403	2.27
403.612	2.37
403.82	2.39
404.029	2.45
404.238	2.54
404.446	2.4
404.655	2.32
404.864	2.33
405.072	2.34
405.281	2.13
405.489	2.06
405.698	1.88
405.906	1.95
406.115	2.02
406.324	2.02
406.532	2.03
406.741	2.12
406.949	1.97
407.158	2.14
407.366	2.21
407.574	2.22
407.783	2.11
407.991	2.01
408.2	1.94
408.408	2.06
408.617	1.95
408.825	1.86
409.033	1.86
409.242	1.84
409.45	1.84
409.658	1.97
409.867	1.96
410.075	1.86
410.283	1.76
410.491	1.68
410.7	1.78
410.908	1.76
411.116	1.64
411.324	1.64
411.533	1.59
411.741	1.61
411.949	1.65
412.157	1.72
412.365	1.75
412.573	1.79
412.781	1.77
412.99	1.98
413.198	2
413.406	1.97
413.614	1.89
413.822	1.82
414.03	1.73
414.238	1.82
414.446	1.66
414.654	1.66
414.862	1.62
415.07	1.67
415.278	1.67
415.486	1.82
415.694	1.65
415.902	1.69
416.109	1.77
416.317	1.74
416.525	1.77
416.733	1.88
416.941	1.73
417.149	1.84
417.357	1.79
417.564	1.73
417.772	1.79
417.98	1.76
418.188	1.6
418.395	1.72
418.603	1.58
418.811	1.63
419.019	1.63
419.226	1.64
419.434	1.54
419.642	1.54
419.849	1.43
420.057	1.57
420.265	1.55
420.472	1.55
420.68	1.49
420.887	1.59
421.095	1.7
421.302	1.74
421.51	1.68
421.717	1.76
421.925	1.67
422.132	1.64
422.34	1.58
422.547	1.43
422.755	1.4
422.962	1.33
423.17	1.26
423.377	1.37
423.585	1.46
423.792	1.48
423.999	1.58
424.207	1.49
424.414	1.57
424.621	1.54
424.829	1.49
425.036	1.42
425.243	1.42
425.451	1.46
425.658	1.63
425.865	1.61
426.072	1.65
426.28	1.63
426.487	1.68
426.694	1.61
426.901	1.57
427.108	1.46
427.315	1.5
427.523	1.53
427.73	1.53
427.937	1.51
428.144	1.52
428.351	1.58
428.558	1.6
428.765	1.46
428.972	1.41
429.179	1.35
429.386	1.4
429.593	1.4
429.8	1.39
430.007	1.49
430.214	1.58
430.421	1.6
430.628	1.49
430.835	1.54
431.042	1.53
431.249	1.56
431.456	1.5
431.662	1.52
431.869	1.55
432.076	1.68
432.283	1.5
432.49	1.49
432.697	1.44
432.903	1.44
433.11	1.45
433.317	1.45
433.524	1.36
433.73	1.47
433.937	1.44
434.144	1.51
434.35	1.51
434.557	1.38
434.764	1.33
434.97	1.45
435.177	1.45
435.384	1.49
435.59	1.42
435.797	1.4
436.003	1.47
436.21	1.46
436.416	1.39
436.623	1.39
436.829	1.37
437.036	1.38
437.242	1.42
437.449	1.49
437.655	1.48
437.862	1.47
438.068	1.55
438.275	1.59
438.481	1.67
438.687	1.69
438.894	1.67
439.1	1.76
439.307	1.78
439.513	1.72
439.719	1.8
439.926	1.74
440.132	1.7
440.338	1.69
440.544	1.64
440.751	1.64
440.957	1.61
441.163	1.55
441.369	1.52
441.575	1.49
441.782	1.49
441.988	1.51
442.194	1.54
442.4	1.61
442.606	1.61
442.812	1.69
443.018	1.75
443.224	1.74
443.431	1.77
443.637	1.76
443.843	1.75
444.049	1.73
444.255	1.65
444.461	1.6
444.667	1.64
444.873	1.63
445.079	1.62
445.284	1.58
445.49	1.58
445.696	1.61
445.902	1.69
446.108	1.68
446.314	1.7
446.52	1.74
446.726	1.76
446.931	1.75
447.137	1.8
447.343	1.73
447.549	1.69
447.755	1.65
447.96	1.64
448.166	1.69
448.372	1.74
448.578	1.75
448.783	1.74
448.989	1.8
449.195	1.8
449.4	1.79
449.606	1.72
449.812	1.75
450.017	1.75
450.223	1.76
450.428	1.74
450.634	1.84
450.84	1.84
451.045	1.8
451.251	1.81
451.456	1.75
451.662	1.74
451.867	1.72
452.073	1.62
452.278	1.65
452.483	1.72
452.689	1.72
452.894	1.76
453.1	1.74
453.305	1.77
453.51	1.78
453.716	1.74
453.921	1.73
454.127	1.65
454.332	1.64
454.537	1.79
454.742	1.76
454.948	1.74
455.153	1.74
455.358	1.77
455.563	1.81
455.769	1.81
455.974	1.7
456.179	1.66
456.384	1.7
456.589	1.76
456.795	1.68
457	1.7
457.205	1.66
457.41	1.7
457.615	1.77
457.82	1.82
458.025	1.78
458.23	1.85
458.435	1.8
458.64	1.9
458.845	1.86
459.05	1.82
459.255	1.78
459.46	1.75
459.665	1.75
459.87	1.74
460.075	1.67
460.28	1.7
460.485	1.78
460.69	1.72
460.895	1.8
461.099	1.77
461.304	1.81
461.509	1.73
461.714	1.75
461.919	1.67
462.123	1.73
462.328	1.67
462.533	1.69
462.738	1.68
462.942	1.78
463.147	1.79
463.352	1.85
463.556	1.87
463.761	1.91
463.966	1.94
464.17	2
464.375	1.97
464.58	1.9
464.784	1.9
464.989	1.86
465.193	1.86
465.398	1.86
465.602	1.85
465.807	1.87
466.011	1.96
466.216	1.96
466.42	2.03
466.625	2.04
466.829	2.03
467.034	2.05
467.238	2.11
467.443	2.08
467.647	2.08
467.851	2.04
468.056	2.02
468.26	1.99
468.464	1.97
468.669	1.98
468.873	1.98
469.077	1.97
469.282	2
469.486	2.01
469.69	2.06
469.894	2.09
470.099	2.04
470.303	2.03
470.507	2.02
470.711	2.03
470.915	2.07
471.119	2.03
471.324	2
471.528	2.07
471.732	2.08
471.936	2.16
472.14	2.16
472.344	2.14
472.548	2.19
472.752	2.25
472.956	2.27
473.16	2.28
473.364	2.24
473.568	2.26
473.772	2.31
473.976	2.34
474.18	2.3
474.384	2.23
474.588	2.25
474.792	2.24
474.995	2.27
475.199	2.25
475.403	2.24
475.607	2.28
475.811	2.33
476.015	2.37
476.218	2.37
476.422	2.38
476.626	2.38
476.83	2.38
477.033	2.37
477.237	2.41
477.441	2.38
477.644	2.41
477.848	2.38
478.052	2.39
478.255	2.4
478.459	2.48
478.663	2.45
478.866	2.45
479.07	2.48
479.273	2.5
479.477	2.53
479.681	2.52
479.884	2.47
480.088	2.47
480.291	2.52
480.495	2.52
480.698	2.54
480.901	2.56
481.105	2.56
481.308	2.57
481.512	2.6
481.715	2.61
481.919	2.61
482.122	2.63
482.325	2.64
482.529	2.69
482.732	2.68
482.935	2.69
483.138	2.67
483.342	2.7
483.545	2.69
483.748	2.69
483.952	2.72
484.155	2.79
484.358	2.76
484.561	2.79
484.764	2.8
484.967	2.82
485.171	2.83
485.374	2.83
485.577	2.84
485.78	2.91
485.983	2.91
486.186	2.87
486.389	2.85
486.592	2.85
486.795	2.84
486.998	2.83
487.201	2.81
487.404	2.86
487.607	2.89
487.81	2.92
488.013	2.91
488.216	2.9
488.419	2.88
488.622	2.86
488.825	2.82
489.028	2.79
489.231	2.8
489.433	2.81
489.636	2.76
489.839	2.75
490.042	2.79
490.245	2.8
490.447	2.82
490.65	2.85
490.853	2.86
491.056	2.89
491.258	2.93
491.461	2.88
491.664	2.82
491.866	2.86
492.069	2.81
492.272	2.78
492.474	2.77
492.677	2.75
492.879	2.81
493.082	2.85
493.285	2.85
493.487	2.85
493.69	2.87
493.892	2.93
494.095	2.91
494.297	2.92
494.5	2.95
494.702	2.94
494.905	2.99
495.107	3.03
495.309	2.98
495.512	3.04
495.714	3.05
495.917	3.07
496.119	3.13
496.321	3.15
496.524	3.15
496.726	3.14
496.928	3.19
497.13	3.24
497.333	3.25
497.535	3.21
497.737	3.17
497.939	3.2
498.142	3.21
498.344	3.17
498.546	3.19
498.748	3.16
498.95	3.18
499.152	3.23
499.355	3.23
499.557	3.3
499.759	3.35
499.961	3.34
500.163	3.4
500.365	3.39
500.567	3.4
500.769	3.44
500.971	3.42
501.173	3.43
501.375	3.47
501.577	3.49
501.779	3.52
501.981	3.52
502.183	3.5
502.385	3.53
502.587	3.52
502.788	3.49
502.99	3.5
503.192	3.53
503.394	3.56
503.596	3.59
503.798	3.63
503.999	3.69
504.201	3.75
504.403	3.79
504.605	3.8
504.806	3.83
505.008	3.85
505.21	3.86
505.411	3.87
505.613	3.88
505.815	3.88
506.016	3.94
506.218	3.96
506.42	4.02
506.621	4.03
506.823	4.03
507.024	4.04
507.226	4.06
507.427	4.06
507.629	4.11
507.83	4.11
508.032	4.17
508.233	4.22
508.435	4.22
508.636	4.25
508.838	4.27
509.039	4.26
509.24	4.27
509.442	4.22
509.643	4.21
509.845	4.26
510.046	4.27
510.247	4.33
510.448	4.37
510.65	4.4
510.851	4.46
511.052	4.49
511.254	4.49
511.455	4.52
511.656	4.5
511.857	4.49
512.058	4.52
512.26	4.52
512.461	4.55
512.662	4.56
512.863	4.57
513.064	4.6
513.265	4.64
513.466	4.67
513.667	4.66
513.868	4.68
514.069	4.73
514.27	4.74
514.471	4.77
514.672	4.8
514.873	4.82
515.074	4.88
515.275	4.87
515.476	4.89
515.677	4.96
515.878	4.98
516.079	4.97
516.28	4.96
516.481	4.98
516.682	5.02
516.882	5.03
517.083	4.99
517.284	5
517.485	5.05
517.686	5.06
517.886	5.08
518.087	5.09
518.288	5.07
518.488	5.09
518.689	5.08
518.89	5.1
519.091	5.13
519.291	5.14
519.492	5.18
519.692	5.22
519.893	5.25
520.094	5.29
520.294	5.27
520.495	5.29
520.695	5.31
520.896	5.29
521.096	5.34
521.297	5.36
521.497	5.37
521.698	5.39
521.898	5.41
522.099	5.46
522.299	5.46
522.499	5.45
522.7	5.48
522.9	5.5
523.101	5.53
523.301	5.52
523.501	5.52
523.702	5.56
523.902	5.57
524.102	5.58
524.302	5.6
524.503	5.61
524.703	5.64
524.903	5.68
525.103	5.71
525.304	5.72
525.504	5.7
525.704	5.7
525.904	5.72
526.104	5.76
526.304	5.73
526.504	5.7
526.705	5.74
526.905	5.79
527.105	5.8
527.305	5.8
527.505	5.79
527.705	5.79
527.905	5.81
528.105	5.77
528.305	5.8
528.505	5.84
528.705	5.87
528.905	5.87
529.105	5.93
529.304	5.98
529.504	6.03
529.704	6.04
529.904	6.09
530.104	6.12
530.304	6.17
530.503	6.18
530.703	6.2
530.903	6.24
531.103	6.27
531.303	6.27
531.502	6.27
531.702	6.31
531.902	6.33
532.101	6.33
532.301	6.31
532.501	6.32
532.7	6.33
532.9	6.34
533.1	6.31
533.299	6.37
533.499	6.39
533.698	6.47
533.898	6.48
534.097	6.51
534.297	6.56
534.496	6.61
534.696	6.62
534.895	6.68
535.095	6.69
535.294	6.68
535.494	6.72
535.693	6.75
535.892	6.76
536.092	6.76
536.291	6.78
536.491	6.83
536.69	6.9
536.889	6.9
537.088	6.89
537.288	6.94
537.487	6.98
537.686	7.03
537.886	7.02
538.085	7.04
538.284	7.08
538.483	7.14
538.682	7.17
538.882	7.21
539.081	7.23
539.28	7.27
539.479	7.3
539.678	7.38
539.877	7.42
540.076	7.47
540.275	7.52
540.474	7.5
540.673	7.56
540.872	7.6
541.071	7.63
541.27	7.66
541.469	7.68
541.668	7.74
541.867	7.86
542.066	7.89
542.265	7.9
542.464	7.91
542.663	7.97
542.862	8
543.06	8.01
543.259	7.99
543.458	8.02
543.657	8.08
543.856	8.12
544.054	8.18
544.253	8.22
544.452	8.22
544.651	8.27
544.849	8.35
545.048	8.38
545.247	8.45
545.445	8.44
545.644	8.5
545.843	8.6
546.041	8.67
546.24	8.74
546.438	8.83
546.637	8.91
546.836	8.97
547.034	9.04
547.233	9.11
547.431	9.17
547.63	9.2
547.828	9.27
548.027	9.31
548.225	9.38
548.423	9.45
548.622	9.51
548.82	9.59
549.019	9.64
549.217	9.73
549.415	9.82
549.614	9.87
549.812	9.94
550.01	10.02
550.209	10.11
550.407	10.2
550.605	10.25
550.803	10.32
551.002	10.43
551.2	10.54
551.398	10.59
551.596	10.65
551.794	10.76
551.993	10.78
552.191	10.88
552.389	10.95
552.587	10.99
552.785	11.13
552.983	11.24
553.181	11.29
553.379	11.41
553.577	11.51
553.775	11.6
553.973	11.7
554.171	11.75
554.369	11.79
554.567	11.88
554.765	11.93
554.963	11.97
555.161	12.07
555.359	12.16
555.557	12.27
555.755	12.39
555.952	12.53
556.15	12.67
556.348	12.81
556.546	12.91
556.744	13
556.941	13.11
557.139	13.23
557.337	13.28
557.535	13.42
557.732	13.55
557.93	13.67
558.128	13.78
558.325	13.88
558.523	13.97
558.721	14.09
558.918	14.18
559.116	14.22
559.313	14.35
559.511	14.46
559.708	14.61
559.906	14.68
560.104	14.83
560.301	14.91
560.498	15.06
560.696	15.15
560.893	15.26
561.091	15.35
561.288	15.5
561.486	15.59
561.683	15.72
561.88	15.84
562.078	15.97
562.275	16.12
562.473	16.25
562.67	16.37
562.867	16.49
563.064	16.65
563.262	16.83
563.459	16.93
563.656	17.01
563.853	17.11
564.051	17.22
564.248	17.39
564.445	17.46
564.642	17.5
564.839	17.63
565.036	17.78
565.234	17.92
565.431	18.04
565.628	18.08
565.825	18.22
566.022	18.31
566.219	18.38
566.416	18.47
566.613	18.57
566.81	18.64
567.007	18.75
567.204	18.82
567.401	18.92
567.598	18.93
567.795	19.01
567.991	19.07
568.188	19.17
568.385	19.24
568.582	19.33
568.779	19.41
568.976	19.64
569.172	19.73
569.369	19.77
569.566	19.81
569.763	19.92
569.96	19.98
570.156	20.06
570.353	20.08
570.55	20.12
570.746	20.2
570.943	20.31
571.14	20.32
571.336	20.32
571.533	20.35
571.729	20.4
571.926	20.49
572.123	20.55
572.319	20.55
572.516	20.6
572.712	20.7
572.909	20.73
573.105	20.74
573.302	20.74
573.498	20.77
573.695	20.8
573.891	20.84
574.087	20.84
574.284	20.84
574.48	20.85
574.677	20.86
574.873	20.9
575.069	21
575.266	21.02
575.462	21.06
575.658	21.13
575.854	21.23
576.051	21.23
576.247	21.22
576.443	21.21
576.639	21.22
576.835	21.22
577.032	21.24
577.228	21.23
577.424	21.29
577.62	21.31
577.816	21.34
578.012	21.35
578.208	21.38
578.404	21.42
578.6	21.39
578.796	21.41
578.993	21.43
579.189	21.38
579.384	21.38
579.58	21.34
579.776	21.28
579.972	21.26
580.168	21.16
580.364	21.14
580.56	21.15
580.756	21.11
580.952	21.17
581.148	21.19
581.343	21.18
581.539	21.21
581.735	21.18
581.931	21.19
582.127	21.15
582.322	21.12
582.518	21.07
582.714	21.07
582.909	21.06
583.105	21.03
583.301	20.98
583.496	21.01
583.692	20.97
583.888	20.95
584.083	20.95
584.279	20.95
584.474	20.96
584.67	20.99
584.866	21.02
585.061	21.04
585.257	21.07
585.452	21.08
585.648	21.08
585.843	21.09
586.039	21.09
586.234	21.03
586.429	21.01
586.625	20.96
586.82	20.87
587.015	20.85
587.211	20.83
587.406	20.84
587.601	20.89
587.797	20.83
587.992	20.87
588.187	20.97
588.383	20.99
588.578	20.98
588.773	20.95
588.968	20.96
589.163	21.01
589.359	21
589.554	20.98
589.749	20.97
589.944	21
590.139	21.01
590.334	21.02
590.529	21.1
590.724	21.16
590.919	21.24
591.114	21.29
591.309	21.35
591.504	21.41
591.699	21.47
591.894	21.49
592.089	21.53
592.284	21.52
592.479	21.56
592.674	21.63
592.869	21.69
593.064	21.75
593.259	21.84
593.454	21.88
593.648	21.95
593.843	22.04
594.038	22.07
594.233	22.19
594.428	22.23
594.622	22.24
594.817	22.35
595.012	22.43
595.206	22.52
595.401	22.65
595.596	22.67
595.79	22.77
595.985	22.91
596.18	22.95
596.374	23.01
596.569	23.08
596.763	23.13
596.958	23.22
597.153	23.25
597.347	23.31
597.542	23.39
597.736	23.51
597.931	23.59
598.125	23.66
598.319	23.76
598.514	23.84
598.708	23.94
598.903	24.05
599.097	24.11
599.291	24.16
599.486	24.23
599.68	24.27
599.874	24.37
600.069	24.43
600.263	24.42
600.457	24.47
600.651	24.57
600.846	24.62
601.04	24.66
601.234	24.73
601.428	24.73
601.622	24.8
601.817	24.91
602.011	24.95
602.205	24.93
602.399	25
602.593	24.99
602.787	25.07
602.981	25.13
603.175	25.11
603.369	25.08
603.563	25.12
603.757	25.08
603.951	25.08
604.145	25.02
604.339	24.97
604.533	24.9
604.727	24.88
604.921	24.86
605.115	24.87
605.309	24.85
605.502	24.8
605.696	24.74
605.89	24.76
606.084	24.69
606.278	24.63
606.471	24.48
606.665	24.4
606.859	24.36
607.053	24.34
607.246	24.24
607.44	24.23
607.634	24.19
607.827	24.18
608.021	24.1
608.214	24.06
608.408	23.94
608.602	23.89
608.795	23.76
608.989	23.68
609.182	23.67
609.376	23.57
609.569	23.46
609.763	23.45
609.956	23.31
610.15	23.23
610.343	23.13
610.537	23.03
610.73	22.97
610.923	22.89
611.117	22.8
611.31	22.75
611.504	22.73
611.697	22.7
611.89	22.57
612.083	22.49
612.277	22.41
612.47	22.24
612.663	22.21
612.856	22.11
613.05	21.97
613.243	21.87
613.436	21.81
613.629	21.75
613.822	21.71
614.015	21.6
614.209	21.55
614.402	21.51
614.595	21.44
614.788	21.31
614.981	21.18
615.174	21.1
615.367	20.99
615.56	20.83
615.753	20.74
615.946	20.74
616.139	20.74
616.332	20.68
616.525	20.66
616.718	20.61
616.911	20.63
617.103	20.55
617.296	20.4
617.489	20.34
617.682	20.33
617.875	20.18
618.067	20.12
618.26	20.05
618.453	19.95
618.646	19.93
618.838	19.82
619.031	19.8
619.224	19.82
619.417	19.78
619.609	19.69
619.802	19.71
619.994	19.67
620.187	19.63
620.38	19.55
620.572	19.54
620.765	19.47
620.957	19.45
621.15	19.37
621.342	19.35
621.535	19.35
621.727	19.33
621.92	19.28
622.112	19.29
622.305	19.21
622.497	19.23
622.69	19.2
622.882	19.18
623.074	19.1
623.267	19.07
623.459	19.04
623.651	19.1
623.844	19.09
624.036	19.06
624.228	18.96
624.42	18.99
624.613	18.98
624.805	18.94
624.997	18.87
625.189	18.81
625.381	18.81
625.574	18.81
625.766	18.76
625.958	18.75
626.15	18.74
626.342	18.74
626.534	18.71
626.726	18.68
626.918	18.66
627.11	18.62
627.302	18.58
627.494	18.53
627.686	18.49
627.878	18.42
628.07	18.38
628.262	18.3
628.454	18.26
628.646	18.22
628.838	18.13
629.029	18.08
629.221	18.06
629.413	17.99
629.605	17.97
629.797	17.96
629.989	17.95
630.18	17.91
630.372	17.88
630.564	17.92
630.755	17.9
630.947	17.89
631.139	17.82
631.33	17.8
631.522	17.81
631.714	17.79
631.905	17.73
632.097	17.69
632.289	17.68
632.48	17.65
632.672	17.55
632.863	17.53
633.055	17.52
633.246	17.5
633.438	17.5
633.629	17.48
633.821	17.52
634.012	17.5
634.203	17.55
634.395	17.55
634.586	17.48
634.777	17.43
634.969	17.42
635.16	17.37
635.351	17.38
635.543	17.29
635.734	17.25
635.925	17.3
636.117	17.33
636.308	17.3
636.499	17.26
636.69	17.3
636.881	17.32
637.073	17.31
637.264	17.26
637.455	17.27
637.646	17.27
637.837	17.28
638.028	17.29
638.219	17.3
638.41	17.26
638.601	17.25
638.792	17.19
638.983	17.16
639.174	17.16
639.365	17.04
639.556	16.97
639.747	17
639.938	17
640.129	16.98
640.32	16.97
640.511	16.94
640.701	16.9
640.892	16.93
641.083	16.89
641.274	16.83
641.465	16.81
641.655	16.83
641.846	16.78
642.037	16.81
642.228	16.72
642.418	16.67
642.609	16.63
642.8	16.59
642.99	16.56
643.181	16.57
643.372	16.54
643.562	16.52
643.753	16.5
643.943	16.49
644.134	16.5
644.324	16.47
644.515	16.43
644.705	16.47
644.896	16.46
645.086	16.42
645.277	16.48
645.467	16.44
645.658	16.4
645.848	16.37
646.038	16.3
646.229	16.27
646.419	16.25
646.61	16.16
646.8	16.14
646.99	16.12
647.18	16.07
647.371	16.07
647.561	16.02
647.751	15.98
647.941	15.96
648.132	15.92
648.322	15.92
648.512	15.96
648.702	15.87
648.892	15.88
649.082	15.88
649.272	15.8
649.462	15.75
649.653	15.73
649.843	15.61
650.033	15.58
650.223	15.51
650.413	15.51
650.603	15.54
650.793	15.49
650.983	15.38
651.172	15.41
651.362	15.39
651.552	15.33
651.742	15.21
651.932	15.09
652.122	15.08
652.312	14.93
652.502	14.78
652.691	14.76
652.881	14.67
653.071	14.56
653.261	14.48
653.45	14.37
653.64	14.41
653.83	14.3
654.019	14.1
654.209	13.96
654.399	13.87
654.588	13.77
654.778	13.64
654.968	13.48
655.157	13.33
655.347	13.2
655.536	13.07
655.726	12.96
655.915	12.79
656.105	12.67
656.294	12.48
656.484	12.42
656.673	12.29
656.863	12.14
657.052	11.93
657.241	11.77
657.431	11.55
657.62	11.32
657.809	11.12
657.999	10.96
658.188	10.79
658.377	10.72
658.567	10.56
658.756	10.37
658.945	10.25
659.134	10.03
659.324	9.85
659.513	9.64
659.702	9.39
659.891	9.19
660.08	9.05
660.269	8.95
660.458	8.85
660.648	8.69
660.837	8.61
661.026	8.48
661.215	8.39
661.404	8.26
661.593	8.07
661.782	7.94
661.971	7.82
662.16	7.66
662.349	7.5
662.538	7.36
662.726	7.2
662.915	7.05
663.104	6.85
663.293	6.7
663.482	6.61
663.671	6.5
663.86	6.36
664.048	6.29
664.237	6.19
664.426	6.16
664.615	6.04
664.803	5.89
664.992	5.87
665.181	5.81
665.369	5.7
665.558	5.66
665.747	5.61
665.935	5.62
666.124	5.63
666.312	5.51
666.501	5.41
666.69	5.38
666.878	5.32
667.067	5.27
667.255	5.18
667.444	5.14
667.632	5.1
667.82	5.11
668.009	5.13
668.197	5.15
668.386	5.1
668.574	5.15
668.762	5.14
668.951	5.11
669.139	5.15
669.327	5.08
669.516	5.04
669.704	5.05
669.892	4.96
670.08	4.91
670.269	4.94
670.457	4.87
670.645	4.9
670.833	4.91
671.021	4.85
671.21	4.92
671.398	4.94
671.586	5
671.774	5.06
671.962	5.06
672.15	5.08
672.338	5.18
672.526	5.2
672.714	5.28
672.902	5.28
673.09	5.32
673.278	5.32
673.466	5.45
673.654	5.43
673.842	5.49
674.03	5.51
674.218	5.55
674.405	5.61
674.593	5.74
674.781	5.7
674.969	5.77
675.157	5.86
675.344	5.93
675.532	5.99
675.72	5.98
675.908	6
676.095	6.14
676.283	6.23
676.471	6.21
676.658	6.22
676.846	6.32
677.033	6.42
677.221	6.52
677.409	6.53
677.596	6.61
677.784	6.73
677.971	6.84
678.159	6.92
678.346	7.01
678.534	7.05
678.721	7.1
678.909	7.17
679.096	7.23
679.283	7.28
679.471	7.38
679.658	7.47
679.846	7.65
680.033	7.8
680.22	7.88
680.408	7.94
680.595	8.03
680.782	8.18
680.969	8.25
681.157	8.3
681.344	8.51
681.531	8.64
681.718	8.81
681.905	9
682.093	9.05
682.28	9.29
682.467	9.43
682.654	9.39
682.841	9.56
683.028	9.82
683.215	9.99
683.402	10.15
683.589	10.22
683.776	10.39
683.963	10.69
684.15	10.87
684.337	11.06
684.524	11.26
684.711	11.47
684.898	11.77
685.085	12.05
685.271	12.25
685.458	12.6
685.645	12.86
685.832	13.22
686.019	13.62
686.205	13.91
686.392	14.24
686.579	14.63
686.766	14.94
686.952	15.35
687.139	15.65
687.326	16.04
687.512	16.46
687.699	16.86
687.886	17.19
688.072	17.59
688.259	18.01
688.445	18.44
688.632	18.94
688.818	19.45
689.005	20.07
689.191	20.6
689.378	21.07
689.564	21.59
689.751	22.27
689.937	22.77
690.124	23.41
690.31	23.95
690.496	24.62
690.683	25.41
690.869	26.01
691.055	26.76
691.242	27.39
691.428	28.1
691.614	28.77
691.8	29.54
691.987	30.2
692.173	31.09
692.359	31.72
692.545	32.57
692.731	33.21
692.918	33.94
693.104	34.62
693.29	35.56
693.476	36.24
693.662	37.05
693.848	37.75
694.034	38.47
694.22	39.25
694.406	40.09
694.592	40.67
694.778	41.4
694.964	42.07
695.15	42.91
695.336	43.79
695.522	44.57
695.708	45.29
695.894	46.16
696.08	46.95
696.265	47.69
696.451	48.46
696.637	49.14
696.823	49.83
697.009	50.63
697.194	51.45
697.38	52.09
697.566	52.81
697.751	53.54
697.937	54.2
698.123	54.91
698.308	55.51
698.494	56.02
698.68	56.9
698.865	57.6
699.051	58.1
699.236	58.83
699.422	59.48
699.607	60.18
699.793	60.68
699.978	60.92
700.164	61.66
700.349	62.19
700.535	62.65
700.72	63.32
700.906	63.9
701.091	64.47
701.276	65.13
701.462	65.6
701.647	66.21
701.832	66.8
702.018	67.18
702.203	67.56
702.388	68.03
702.573	68.62
702.759	68.96
702.944	69.52
703.129	69.94
703.314	70.33
703.499	70.87
703.684	71.44
703.87	71.81
704.055	72.42
704.24	72.79
704.425	73.32
704.61	73.61
704.795	74.09
704.98	74.43
705.165	74.8
705.35	74.94
705.535	75.44
705.72	75.47
705.905	75.93
706.09	75.99
706.275	76.21
706.459	76.61
706.644	76.93
706.829	77.02
707.014	77.41
707.199	77.63
707.384	77.88
707.568	78.12
707.753	78.38
707.938	78.59
708.123	78.67
708.307	79.21
708.492	79.38
708.677	79.76
708.861	80.2
709.046	80.17
709.231	80.5
709.415	80.94
709.6	80.75
709.784	81.27
709.969	81.57
710.153	81.82
710.338	82.2
710.522	82.23
710.707	82.26
710.891	82.83
711.076	82.84
711.26	82.89
711.445	83.01
711.629	83.3
711.813	83.47
711.998	83.57
712.182	83.63
712.366	83.89
712.551	84.13
712.735	84.11
712.919	84.29
713.103	84.33
713.288	84.76
713.472	84.8
713.656	84.75
713.84	84.75
714.024	84.95
714.208	84.85
714.393	85.37
714.577	85.57
714.761	85.77
714.945	85.79
715.129	86.17
715.313	86.28
715.497	86.62
715.681	86.72
715.865	86.66
716.049	86.88
716.233	87.33
716.417	87.24
716.601	87.28
716.785	87.48
716.968	87.19
717.152	87.3
717.336	87.26
717.52	87.2
717.704	87.43
717.888	87.86
718.071	87.65
718.255	87.98
718.439	87.84
718.622	88.16
718.806	87.94
718.99	88.06
719.174	87.87
719.357	88.35
719.541	88.64
719.724	89.12
719.908	89.13
720.092	89.58
720.275	89.78
720.459	89.8
720.642	89.5
720.826	89.39
721.009	89.4
721.193	89.32
721.376	89.49
721.559	89.29
721.743	89.41
721.926	89.43
722.11	89.56
722.293	89.17
722.476	88.92
722.66	88.71
722.843	88.74
723.026	88.88
723.21	89.05
723.393	88.96
723.576	89.06
723.759	89.6
723.942	89.8
724.126	89.71
724.309	89.69
724.492	89.62
724.675	89.94
724.858	90.5
725.041	90.36
725.224	90.3
725.407	90.36
725.59	90.48
725.774	90.83
725.957	90.71
726.14	90.75
726.322	90.8
726.505	91.32
726.688	91.51
726.871	91.61
727.054	91.79
727.237	91.74
727.42	91.74
727.603	91.71
727.786	91.81
727.968	92
728.151	91.97
728.334	91.79
728.517	92.31
728.699	92.49
728.882	92.86
729.065	92.74
729.248	92.66
729.43	92.58
729.613	92.88
729.796	92.38
729.978	92.49
730.161	92.69
730.343	92.82
730.526	92.9
730.708	93.49
730.891	93.4
731.073	93.81
731.256	94.07
731.438	94.14
731.621	94.38
731.803	94.74
731.986	94.66
732.168	94.73
732.35	94.79
732.533	94.46
732.715	94.51
732.898	94.46
733.08	94.76
733.262	94.42
733.444	94.41
733.627	94.49
733.809	94.65
733.991	94.54
734.173	94.36
734.355	94.38
734.538	94.58
734.72	94.79
734.902	94.74
735.084	94.81
735.266	95.09
735.448	95.56
735.63	95.46
735.812	95.69
735.994	95.72
736.176	95.61
736.358	95.85
736.54	95.48
736.722	94.86
736.904	94.61
737.086	94.52
737.268	94.54
737.45	95.07
737.632	94.36
737.814	94.44
737.995	94.66
738.177	95.13
738.359	95.22
738.541	94.59
738.723	94.57
738.904	94.77
739.086	95.05
739.268	95.32
739.449	95.35
739.631	95.33
739.813	95.7
739.994	96
740.176	96.07
740.358	96.05
740.539	96.22
740.721	95.96
740.902	95.74
741.084	96.05
741.265	95.49
741.447	95.44
741.628	95.15
741.81	95.22
741.991	95.68
742.172	95.76
742.354	96.11
742.535	96.04
742.717	96.07
742.898	96.82
743.079	96.58
743.261	96.46
743.442	97.12
743.623	96.76
743.804	97.02
743.986	97.38
744.167	96.47
744.348	96.62
744.529	96.21
744.71	95.04
744.891	94.87
745.073	94.77
745.254	94.73
745.435	95.02
745.616	94.93
745.797	94.69
745.978	95.87
746.159	96.01
746.34	95.84
746.521	95.7
746.702	95.2
746.883	94.87
747.064	95.17
747.245	95.74
747.426	96.33
747.606	96.55
747.787	96.95
747.968	98.1
748.149	97.91
748.33	98.05
748.51	97.23
748.691	97.02
748.872	97.05
749.053	96.58
749.233	95.34
749.414	95.68
749.595	94.4
749.775	93.94
749.956	92.87
750.137	92.25
750.317	92.55
750.498	93.29
750.678	92.94
750.859	93.9
751.04	94.01
751.22	93.95
751.4	94.99
751.581	94.81
751.761	94.86
751.942	95.25
752.122	95.23
752.303	95.89
752.483	96.74
752.663	96.83
752.844	96.49
753.024	96.92
753.204	96.86
753.385	96.74
753.565	96.01
753.745	95.3
753.925	94.42
754.106	94.57
754.286	93.78
754.466	93.66
754.646	93.41
754.826	93.69
755.006	93.71
755.187	94.09
755.367	94.48
755.547	94.93
755.727	94.28
755.907	95.35
756.087	95.21
756.267	95.64
756.447	95.58
756.627	95.23
756.807	95.13
756.987	96.1
757.167	95.42
757.346	95.03
757.526	94.87
757.706	94.2
757.886	94.15
758.066	94
758.246	93.69
758.425	93.91
758.605	94.35
758.785	94.06
758.965	93.52
759.144	93.9
759.324	94.38
759.504	94.37
759.683	93.47
759.863	93.2
760.043	92.58
760.222	92.58
760.402	92.89
760.581	92.4
760.761	91.52
760.94	91.03
761.12	90.28
761.299	91.11
761.479	92.51
761.658	91.41
761.838	91.05
762.017	91.58
762.197	92.41
762.376	93.77
762.555	94.06
762.735	92.52
762.914	93.56
763.093	93.34
763.273	93.82
763.452	93.42
763.631	92.47
763.81	92.9
763.99	93.39
764.169	92.35
764.348	93.13
764.527	92.56
764.706	93.28
764.885	93.35
765.064	92.29
765.243	92.22
765.423	93.37
765.602	92.03
765.781	91.11
765.96	90.42
766.139	89.77
766.318	89.97
766.497	90.71
766.676	90.92
766.854	91.29
767.033	91.44
767.212	91.01
767.391	91.38
767.57	91.66
767.749	90.38
767.928	88.17
768.106	88.4
768.285	89.47
768.464	90.23
768.643	91.29
768.821	90.75
769	92.32
769.179	91.99
769.357	91.96
769.536	91.46
769.715	91.42
769.893	90.1
770.072	89.87
770.25	88.75
770.429	90.36
770.607	89.34
770.786	89.21
770.964	88.62
771.143	88.71
771.321	88.24
771.5	88.18
771.678	88.17
771.857	88.54
772.035	87.51
772.213	88.02
772.392	88.11
772.57	88.45
772.748	88.94
772.927	88.05
773.105	88.38
773.283	88.47
773.461	88.33
773.64	87.91
773.818	87.02
773.996	85.76
774.174	85.6
774.352	85.32
774.531	85.28
774.709	85.62
774.887	85.19
775.065	86.09
775.243	87.78
775.421	88.4
775.599	87.95
775.777	88.01
775.955	87.22
776.133	86.83
776.311	86.35
776.489	85.38
776.667	84.86
776.844	84.59
777.022	85.4
777.2	85.46
777.378	86.65
777.556	88.02
777.734	88.35
777.911	89.61
778.089	89.57
778.267	90.02
778.445	88.58
778.622	86.99
778.8	86.78
778.978	87.03
779.155	84.82
779.333	83.25
779.511	82.12
779.688	82.06
779.866	82.74
780.043	82.59
780.221	81.42
780.398	82.89
780.576	84.76
780.753	84.65
780.931	86.81
781.108	88.16
781.286	86.08
781.463	87.01
781.64	85.3
781.818	84.98
781.995	85.65
782.172	83.77
782.35	80.94
782.527	83
782.704	81.81
782.882	83.17
783.059	82.9
783.236	84.58
783.413	84.97
783.59	85.63
783.768	84.86
783.945	85.11
784.122	86.54
784.299	87.46
784.476	85.71
784.653	84.81
784.83	84.68
785.007	84.66
785.184	86.21
785.361	85.24
785.538	84.31
785.715	84.13
785.892	83.98
786.069	85.08
786.246	84.12
786.423	84.52
786.6	85.12
786.776	86.18
786.953	84.97
787.13	88.01
787.307	87.39
787.484	87.78
787.66	85.49
787.837	83.84
788.014	82.84
788.191	82.78
788.367	82.2
788.544	85.04
788.721	86.3
788.897	88.59
789.074	87.2
789.25	88.36
789.427	90.13
789.603	90.75
789.78	89.66
789.956	88.83
790.133	87.47
790.309	88.47
790.486	91.33
790.662	90.46
790.839	89.97
791.015	89.62
791.192	89.05
791.368	92.95
791.544	94.48
791.721	91.41
791.897	91.71
792.073	90.79
792.249	91.3
792.426	92.01
792.602	88.07
792.778	85.54
792.954	84.48
793.13	84.39
793.307	83.82
793.483	81.34
793.659	80.74
793.835	77.95
794.011	78.14
794.187	75.4
794.363	73.82
794.539	73.69
794.715	72.36
794.891	71.03
795.067	73.75
795.243	73.7
795.419	79.44
795.595	80.18
795.771	80.82
795.947	82.56
796.122	83.92
796.298	82.91
796.474	86.27
796.65	85.51
796.826	89.46
797.001	87.68
797.177	89.2
797.353	90.67
797.529	92.56
797.704	88.63
797.88	84.69
798.056	83.3
798.231	82.78
798.407	80.78
798.582	77.61
798.758	77.65
798.934	75.78
799.109	77.35
799.285	76.87
799.46	79.24
799.636	80
799.811	83.55
799.986	84.24
800.162	88.15
800.337	86.59
800.513	85.51
800.688	87.84
800.863	87.7
801.039	82.72
801.214	79.61
801.389	77.98
801.565	81.69
801.74	79.13
801.915	77.8
802.09	77.55
802.265	82.45
802.441	84.19
802.616	85.54
802.791	83.42
802.966	83.95
803.141	79.04
803.316	79.07
803.491	74.96
803.666	77.06
803.841	75.35
804.016	78.54
804.191	78.53
804.366	81.45
804.541	79.41
804.716	78.51
804.891	78.61
805.066	79.18
805.241	72.1
805.416	69.16
805.591	71.45
805.765	73.8
805.94	76.37
806.115	68.64
806.29	71.44
806.464	74.02
806.639	78.28
806.814	72.42
806.989	73.39
807.163	72.83
807.338	80.08
807.512	71.94
807.687	70.09
807.862	70.8
808.036	74.4
808.211	73.97
808.385	72.21
808.56	72.16
808.734	78.85
808.909	78.74
809.083	77.3
809.258	82.38
809.432	76.43
809.606	74.62
809.781	73.13
809.955	73.43
810.13	77.77
810.304	75.87
810.478	73.13
810.652	85.39
810.827	86.26
811.001	84.9
811.175	81.76
811.349	77.93
811.524	78.13
811.698	80.5
811.872	74.86
812.046	72.16
812.22	69.73
812.394	70.04
812.568	71.59
812.742	76.22
812.916	68.66
813.09	66.36
813.264	73.41
813.438	80.05
813.612	80.23
813.786	82.64
813.96	81.37
814.134	85.61
814.308	84.77
814.482	79.47
814.656	77.85
814.83	79.86
815.003	78.45
815.177	78.83
815.351	80.1
815.525	80.44
815.698	82.73
815.872	80.15
816.046	77.97
816.219	76.99
816.393	68.53
816.567	63.14
816.74	63.01
816.914	65.03
817.088	66.51
817.261	69.97
817.435	68.33
817.608	71.3
817.782	77.03
817.955	75.72
818.129	76.38
818.302	81.25
818.475	77.47
818.649	75.87
818.822	79.88
818.996	72.26
819.169	72.92
819.342	70.17
819.516	66.83
819.689	65.48
819.862	68.69
820.035	64.44
820.209	68.02
820.382	70.06
820.555	70.04
820.728	66.3
820.901	70.57
821.075	67.95
821.248	69.12
821.421	65.52
821.594	66.47
821.767	70.62
821.94	67.98
822.113	65.51
822.286	72.11
822.459	82.9
822.632	83.59
822.805	83.09
822.978	76.57
823.151	80.05
823.324	74.87
823.496	64.1
823.669	61.66
823.842	66.03
824.015	58.61
824.188	55.45
824.361	61.73
824.533	71.67
824.706	92.18
824.879	85.74
825.051	89.02
825.224	89.42
825.397	88.55
825.569	92.49
825.742	88.55
825.915	79.82
826.087	72.59
826.26	68.02
826.432	74.82
826.605	70.19
826.777	67.76
826.95	65.51
827.122	66.49
827.295	71.32
827.467	67.24
827.64	61.1
827.812	68.21
827.984	64.46
828.157	60.63
828.329	57.07
828.501	59.26
828.674	63.84
828.846	65.12
829.018	58.78
829.19	55.51
829.363	66.29
829.535	61.07
829.707	51.82
829.879	57.78
830.051	63.52
830.223	57.23
830.395	54.87
830.568	45.7
830.74	54.37
830.912	59.78
831.084	54.72
831.256	39.81
831.428	48.19
831.6	46.54
831.772	46.56
831.943	50.98
832.115	52.5
832.287	46.72
832.459	64.13
832.631	62.49
832.803	70.27
832.975	75.58
833.146	61.64
833.318	63.93
833.49	68.43
833.662	63.27
833.833	63.5
834.005	63.25
834.177	71.87
834.348	74.03
834.52	81.59
834.692	81.68
834.863	89.85
835.035	86
835.206	81.77
835.378	71.6
835.549	74.36
835.721	68.26
835.892	67.55
836.064	70.28
836.235	75.43
836.407	81.19
836.578	86.63
836.749	81.85
836.921	78.58
837.092	86.67
837.264	74.81
837.435	65.44
837.606	51.1
837.777	35.25
837.949	32.81
838.12	26.16
838.291	32.91
838.462	36.6
838.633	37.88
838.805	45.88
838.976	52.63
839.147	58.01
839.318	65.72
839.489	54.65
839.66	65.15
839.831	56.93
840.002	59.69
840.173	64.57
840.344	74.06
840.515	65.65
840.686	63.37
840.857	49.92
841.028	56.84
841.199	56.9
841.369	51.49
841.54	46.24
841.711	64.41
841.882	60.73
842.053	67.91
842.223	81.76
842.394	67.61
842.565	78.32
842.736	75.87
842.906	74.23
843.077	77.41
843.248	77.47
843.418	66.73
843.589	87.17
843.759	91.89
843.93	99.21
844.101	91
844.271	105.47
844.442	115.01
844.612	110.55
844.783	83.44
844.953	61.56
845.123	68.32
845.294	69.21
845.464	56.89
845.635	41.38
845.805	55.15
845.975	55.36
846.146	54.56
846.316	46.28
846.486	62.18
846.656	63.22
846.827	64.23
846.997	72.38
847.167	75.81
847.337	90.58
847.507	91.1
847.677	87.34
847.848	103.65
848.018	103.4
848.188	89.84
848.358	101.94
848.528	93.35
848.698	66.49
848.868	46.51
849.038	37.98
849.208	46.44
849.378	37.02
849.548	34.56
849.718	30
849.887	41.8
850.057	58.55
850.227	53.68
850.397	46.71
850.567	65.28
850.737	65.59
850.906	60.95
851.076	61.88
851.246	53.78
851.415	58.43
851.585	56.25
851.755	53.51
851.924	59.07
852.094	53.03
852.264	53.26
852.433	62.94
852.603	65.79
852.772	59.65
852.942	49.86
853.111	50.65
853.281	58.15
853.45	58.39
853.62	46.67
853.789	40.06
853.959	43.55
854.128	42.34
854.297	33.2
854.467	30.89
854.636	31.75
854.805	36.44
854.975	39.35
855.144	41.96
855.313	52.29
855.482	49.57
855.652	46.24
855.821	47.96
855.99	62.56
856.159	57.26
856.328	55.13
856.497	49.42
856.667	52.29
856.836	54.9
857.005	50.76
857.174	53.79
857.343	53.89
857.512	44.07
857.681	40.35
857.85	40.03
858.019	47.22
858.188	46.21
858.356	20.76
858.525	32.07
858.694	57.62
858.863	52.14
859.032	36.94
859.201	30.89
859.369	38.51
859.538	29.17
859.707	25.87
859.876	19.93
860.044	19.4
860.213	32.25
860.382	27.91
860.55	35.92
860.719	64.13
860.888	58.16
861.056	53.3
861.225	55.44
861.393	66.78
861.562	70.9
861.73	53.82
861.899	22.21
862.067	36.18
862.236	36.93
862.404	35.04
862.572	30.48
862.741	24.95
862.909	21.99
863.078	22.68
863.246	15.74
863.414	9.75
863.582	24.53
863.751	18.77
863.919	25.88
864.087	39.38
864.255	49.96
864.424	52.87
864.592	64.82
864.76	67.99
864.928	67.32
865.096	57.37
865.264	65.73
865.432	63.03
865.6	50.34
865.768	36.09
865.936	26.24
866.104	32.61
866.272	69.36
866.44	13.65
866.608	-6.86
866.776	30.04
866.944	39.87
867.112	24.14
867.28	20.82
867.448	36.76
867.615	80.39
867.783	80.15
867.951	77.27
868.119	78.26
868.286	80.16
868.454	80.38
868.622	72.54
868.789	74.47
868.957	88.62
869.125	79.24
869.292	73.72
869.46	71.7
869.627	52.98
869.795	50.25
869.963	30.81
870.13	30.79
870.298	31.29
870.465	8.59
870.632	14.71
870.8	6.37
870.967	5.98
871.135	5.12
871.302	11.55
871.469	8
871.637	26
871.804	31.6
871.971	37.45
872.139	35.94
872.306	38.51
872.473	23.12
872.64	43.28
872.807	44.19
872.975	51.91
873.142	40.06
873.309	52.82
873.476	117.2
873.643	185.86
873.81	133.13
873.977	58.47
874.144	40.87
874.311	17
874.478	-6.58
874.645	-3.03
874.812	22.12
874.979	0.13
875.146	-1.93
875.313	-22.08
875.48	126.11
875.647	133.64
875.813	55.31
875.98	26.32
876.147	61.47
876.314	56.71
876.481	46.85
876.647	31.75
876.814	48.06
876.981	41.77
877.147	10.95
877.314	12.73
877.481	44.37
877.647	47.68
877.814	35.04
877.98	47.87
878.147	61.1
878.314	94.47
878.48	52.88
878.647	43.25
878.813	45.46
878.979	23.41
879.146	4.73
879.312	17.92
879.479	24.19
879.645	11.36
879.811	5.79
879.978	8.84
880.144	48.31
880.31	50.48
880.477	16.29
880.643	-9.42
880.809	136.72
880.975	61.54
881.142	61.45
881.308	33.53
881.474	55.41
881.64	34.54
881.806	37.58
881.972	42.39
882.138	42.96
882.304	1.9
882.47	4.02
882.636	-43.81
882.802	-44.48
882.968	-90.06
883.134	-373.16
883.3	-178.69
883.466	-83.21
883.632	-92.26
883.798	-53.02
883.964	-32.76
884.129	-9.49
884.295	11.13
884.461	2.57
884.627	45.56
884.793	101.26
884.958	69.22
885.124	42.7
885.29	35.25
885.455	29.76
885.621	31.28
885.787	7.21
885.952	-12.41
886.118	12.27
886.283	33.42
886.449	7.3
886.614	56.67
886.78	85.89
886.945	67.33
887.111	74.38
887.276	49.52
887.442	49.05
887.607	75.74
887.773	28.35
887.938	-3.22
888.103	43.05
888.269	51.75
888.434	51.31
888.599	66.56
888.764	64.58
888.93	83.3
889.095	67.36
889.26	78.22
889.425	89.81
889.59	77.82
889.756	36.11
889.921	35.88
890.086	40.2
890.251	41.77
890.416	34.62
890.581	11.4
890.746	11.46
890.911	10.96
891.076	-31.73
891.241	-100.97
891.406	4.45
891.571	-9.98
891.736	-8.34
891.901	11.05
892.065	31.2
892.23	27.48
892.395	28.31
892.56	19.8
892.725	30.96
892.889	-4.43
893.054	-48.13
893.219	-76.34
893.384	-114.9
893.548	-251.67
893.713	565.84
893.878	409.24
