Data from Ofra_2a_PS_2CX13O_Reflection_2.txt Node
Date: Tue Jul 20 10:02:22 EDT 2021
User: Adam
Spectrometer: FLMT01687
Trigger mode: 0
Integration Time (sec): 9.450000E-1
Scans to average: 3
Electric dark correction enabled: true
Nonlinearity correction enabled: false
Boxcar width: 3
XAxis mode: Wavelengths
Number of Pixels in Spectrum: 3648
>>>>>Begin Spectral Data<<<<<
179.494	1369.82
179.716	795.25
179.937	827.47
180.158	3047.66
180.38	-1406.4
180.601	-206.51
180.823	-50.27
181.044	36.85
181.265	-112.2
181.486	-48.48
181.708	-2167.39
181.929	-136.98
182.15	-853.41
182.372	46.75
182.593	-16.27
182.814	400.3
183.035	317.15
183.257	150.39
183.478	96.22
183.699	109.13
183.92	74.22
184.141	83.25
184.363	87.54
184.584	74.44
184.805	79.99
185.026	92.96
185.247	60.74
185.468	71.08
185.689	59.39
185.91	58.5
186.132	76.82
186.353	56.88
186.574	55.84
186.795	53.69
187.016	55.99
187.237	65.97
187.458	39.18
187.679	24.54
187.9	37.1
188.121	37.88
188.342	74.33
188.563	66.52
188.784	55.67
189.005	77.96
189.226	77.05
189.447	75.83
189.667	76.05
189.888	57.18
190.109	60.25
190.33	48.7
190.551	40
190.772	21.15
190.993	23.56
191.214	26.43
191.434	18.95
191.655	35.32
191.876	52
192.097	47.71
192.318	58.12
192.538	65.87
192.759	63.47
192.98	57.95
193.201	54.71
193.421	46.74
193.642	44.06
193.863	38.87
194.083	25.53
194.304	9.88
194.525	34.65
194.745	5.24
194.966	-7.53
195.187	8.02
195.407	14.36
195.628	22.33
195.848	22.92
196.069	18.86
196.29	21.59
196.51	29.9
196.731	20.99
196.951	27.26
197.172	10.77
197.392	27.9
197.613	20.99
197.833	25.11
198.054	17.53
198.274	-0.27
198.495	-3.81
198.715	-11.51
198.936	-26.65
199.156	-23.05
199.377	-12.14
199.597	-10.85
199.817	2.33
200.038	6.47
200.258	12.59
200.479	7.23
200.699	7.28
200.919	-12.82
201.14	-2.47
201.36	8.08
201.58	-0.29
201.801	3.88
202.021	2.55
202.241	4.43
202.461	22.47
202.682	30.52
202.902	24.24
203.122	28.15
203.342	36.53
203.563	43.07
203.783	52.06
204.003	48.13
204.223	41.85
204.443	37.82
204.663	36.48
204.884	24.85
205.104	34.27
205.324	25.72
205.544	21.96
205.764	27.52
205.984	45.47
206.204	49.28
206.424	50.68
206.644	43.94
206.864	36.44
207.084	55.84
207.304	51.24
207.525	44.32
207.745	57.52
207.964	66.38
208.184	48.41
208.404	50.57
208.624	24
208.844	6.26
209.064	26.49
209.284	21.36
209.504	40.87
209.724	40.86
209.944	43.47
210.164	46.94
210.384	84.78
210.604	68.58
210.823	47.62
211.043	20.21
211.263	35.16
211.483	37.95
211.703	40.18
211.922	28.04
212.142	41.8
212.362	44.83
212.582	44.13
212.801	41.91
213.021	44.18
213.241	29.43
213.461	24.35
213.68	21.89
213.9	23.35
214.12	17.55
214.339	17.12
214.559	15.86
214.779	31.68
214.998	28.59
215.218	34.02
215.438	43.61
215.657	53.49
215.877	55.95
216.096	53.28
216.316	42.21
216.535	48.89
216.755	28.17
216.974	19.96
217.194	20.09
217.413	28.7
217.633	30.89
217.852	31.92
218.072	33.27
218.291	55.88
218.511	42.07
218.73	30.5
218.95	23.06
219.169	34.63
219.389	34.42
219.608	42.73
219.827	29.7
220.047	48.58
220.266	51.72
220.485	61.15
220.705	50.92
220.924	58.1
221.143	42.47
221.363	44.01
221.582	40.94
221.801	39.1
222.021	25.09
222.24	21.34
222.459	12.69
222.678	21.66
222.897	9.01
223.117	9.41
223.336	25.33
223.555	32.29
223.774	46.73
223.993	60.22
224.213	48.2
224.432	66.98
224.651	65.5
224.87	48.4
225.089	53.16
225.308	53.84
225.527	57.95
225.746	57.68
225.965	36.87
226.184	44.43
226.404	40.97
226.623	35.99
226.842	21.98
227.061	21.5
227.28	39.95
227.499	62.74
227.718	58.44
227.936	60.75
228.155	61.42
228.374	70.54
228.593	67.27
228.812	53.17
229.031	38.3
229.25	38.1
229.469	33.73
229.688	31.38
229.907	24.85
230.125	21.6
230.344	25.63
230.563	41.29
230.782	32.25
231.001	52.34
231.22	52.62
231.438	46.88
231.657	53.99
231.876	52.48
232.095	51.38
232.313	68.9
232.532	51.69
232.751	49.07
232.969	55.51
233.188	55.83
233.407	53.74
233.625	39.56
233.844	35.37
234.063	38.88
234.281	38.97
234.5	34.04
234.719	27.89
234.937	37.99
235.156	33.52
235.374	30.91
235.593	24.25
235.811	21.68
236.03	21.27
236.249	35.43
236.467	27.59
236.686	43.7
236.904	30.39
237.123	41.18
237.341	39.81
237.559	54.29
237.778	51.77
237.996	56.13
238.215	53.12
238.433	56.01
238.652	46.15
238.87	47.38
239.088	29.31
239.307	22.93
239.525	17.33
239.743	8.65
239.962	13.68
240.18	31.02
240.398	37.92
240.617	55.14
240.835	70.67
241.053	74.77
241.271	81.08
241.49	68.18
241.708	58.95
241.926	44.88
242.144	35.01
242.363	25.62
242.581	19.97
242.799	12.18
243.017	13.36
243.235	8.34
243.453	25.36
243.672	20.47
243.89	17.75
244.108	18.85
244.326	17.87
244.544	25.42
244.762	28.28
244.98	21.04
245.198	16.45
245.416	21.14
245.634	32.36
245.852	34.47
246.07	35.4
246.288	31.8
246.506	40.84
246.724	49.33
246.942	44.45
247.16	33.86
247.378	31.52
247.596	38.12
247.814	26.24
248.032	23.02
248.25	13.88
248.468	18.29
248.685	29.55
248.903	15.71
249.121	9.21
249.339	19.58
249.557	15.75
249.775	8.17
249.992	2.18
250.21	-12.1
250.428	-9.15
250.646	-5.28
250.863	-0.11
251.081	3.54
251.299	25.12
251.517	39.92
251.734	54.04
251.952	76.47
252.17	68.49
252.387	51.72
252.605	53.59
252.823	42.27
253.04	32.09
253.258	22.53
253.475	5.13
253.693	20.52
253.911	28.14
254.128	22.16
254.346	22.84
254.563	20.76
254.781	23.92
254.998	28.45
255.216	24.27
255.433	22.95
255.651	19.12
255.868	29.24
256.086	33.51
256.303	36.56
256.521	32.27
256.738	35.38
256.956	33.16
257.173	44.65
257.39	42.71
257.608	42.93
257.825	34.88
258.043	50.77
258.26	44.75
258.477	40.96
258.695	36.3
258.912	31.71
259.129	17.77
259.346	24.85
259.564	-3.16
259.781	16.96
259.998	32.41
260.216	41.59
260.433	39.47
260.65	52.53
260.867	35.44
261.084	51.41
261.302	37.56
261.519	23.3
261.736	19.72
261.953	34.89
262.17	31.04
262.387	42.87
262.604	26.5
262.822	36.51
263.039	33.67
263.256	27.04
263.473	12.48
263.69	17.25
263.907	19.49
264.124	20.24
264.341	19.99
264.558	21.9
264.775	28.19
264.992	29.86
265.209	36.54
265.426	32.27
265.643	29.21
265.86	25.94
266.077	26.91
266.294	23.63
266.51	24.35
266.727	9.74
266.944	4.7
267.161	9.53
267.378	21.85
267.595	8.54
267.812	2.22
268.028	4.35
268.245	14.04
268.462	25.74
268.679	20.09
268.896	8.86
269.112	28.28
269.329	40.34
269.546	47.3
269.763	49.61
269.979	43.39
270.196	45.49
270.413	51.46
270.629	42.62
270.846	42.19
271.063	35.53
271.279	27.76
271.496	22.04
271.712	29.66
271.929	32.05
272.146	32.23
272.362	3.86
272.579	11.23
272.795	10.37
273.012	20.39
273.228	2.85
273.445	-2.55
273.661	0.31
273.878	11.81
274.094	12.16
274.311	15.53
274.527	11.64
274.744	20.55
274.96	26.66
275.177	31.44
275.393	44.43
275.609	49.83
275.826	52.09
276.042	58.09
276.259	52.89
276.475	42.56
276.691	40.78
276.908	28.21
277.124	17.9
277.34	20.22
277.557	17.49
277.773	19.3
277.989	28.23
278.205	12.03
278.422	24.69
278.638	40.74
278.854	32
279.07	26.07
279.286	23.79
279.503	23.86
279.719	46.75
279.935	30.27
280.151	26.9
280.367	30.43
280.583	28.83
280.799	34.54
281.016	30.86
281.232	25.2
281.448	34.09
281.664	24.05
281.88	31.41
282.096	37.65
282.312	36.64
282.528	29.61
282.744	17.2
282.96	24.01
283.176	31.06
283.392	35.21
283.608	40.19
283.824	26.06
284.04	38.68
284.256	36.52
284.471	31.94
284.687	23.74
284.903	12.21
285.119	-2.23
285.335	12.52
285.551	6.58
285.767	14.8
285.982	16.3
286.198	15.43
286.414	35.13
286.63	43.47
286.846	35.37
287.061	38.87
287.277	38.34
287.493	35.47
287.709	40.09
287.924	22.86
288.14	25.47
288.356	36.77
288.571	25.98
288.787	27.4
289.003	32.87
289.218	34.9
289.434	28.73
289.65	32.56
289.865	36.91
290.081	43.84
290.296	42.52
290.512	40.33
290.727	45.31
290.943	48.26
291.159	43.07
291.374	45.74
291.59	40.73
291.805	39.21
292.021	29.05
292.236	21.94
292.451	26.59
292.667	24.41
292.882	17.79
293.098	10.77
293.313	6.05
293.529	16.25
293.744	16.2
293.959	19.07
294.175	21.38
294.39	30.41
294.605	41.54
294.821	48.75
295.036	53.12
295.251	44.31
295.467	29.1
295.682	31.77
295.897	20.17
296.112	20.07
296.328	20.58
296.543	10.9
296.758	20.19
296.973	22.94
297.188	20.23
297.404	18.05
297.619	9.1
297.834	12.21
298.049	17.25
298.264	13.69
298.479	9.68
298.694	14.42
298.909	9.09
299.125	24.15
299.34	22.16
299.555	29.21
299.77	30.92
299.985	32.44
300.2	28.61
300.415	33.95
300.63	21.16
300.845	26.62
301.06	15.43
301.275	19.77
301.49	27.63
301.704	29.72
301.919	28.44
302.134	27.26
302.349	18.81
302.564	22.26
302.779	23.88
302.994	28.21
303.209	28.87
303.423	31.17
303.638	43.15
303.853	57.46
304.068	57.72
304.283	51.84
304.497	42.97
304.712	45.25
304.927	42.49
305.142	38.31
305.356	44.3
305.571	50.1
305.786	47.67
306	50.42
306.215	43.87
306.43	45.62
306.644	43.04
306.859	32.93
307.074	22.3
307.288	25.33
307.503	21.07
307.717	21.33
307.932	21.73
308.147	24.34
308.361	16.55
308.576	16.31
308.79	17.65
309.005	19.23
309.219	30.21
309.434	26.79
309.648	19.5
309.863	26.9
310.077	29.46
310.292	27.13
310.506	38.37
310.72	16.21
310.935	22
311.149	29.32
311.364	33.35
311.578	35.15
311.792	27.22
312.007	16.51
312.221	23.48
312.435	22.34
312.649	-2.65
312.864	-6.64
313.078	0.82
313.292	12.22
313.507	23.4
313.721	17.03
313.935	34.98
314.149	46.38
314.363	44.68
314.578	61.37
314.792	63.4
315.006	63.41
315.22	69.82
315.434	52.82
315.648	54.99
315.862	39.98
316.077	31.73
316.291	30.38
316.505	23.7
316.719	6.58
316.933	15.41
317.147	21.39
317.361	30.86
317.575	25.98
317.789	28.41
318.003	34.82
318.217	45.75
318.431	46.93
318.645	46.34
318.859	38.95
319.073	30.62
319.287	30.53
319.5	28.64
319.714	31.73
319.928	34.3
320.142	31.82
320.356	43.84
320.57	41.98
320.784	47.9
320.997	48.42
321.211	43.1
321.425	28.63
321.639	31.64
321.853	24.77
322.066	27.63
322.28	21.01
322.494	17.4
322.707	20.13
322.921	28.91
323.135	25.85
323.349	30.63
323.562	31.47
323.776	27.14
323.989	28.47
324.203	27.61
324.417	23.95
324.63	16.57
324.844	10.55
325.057	15.78
325.271	13.21
325.485	4.87
325.698	6.17
325.912	20.99
326.125	30.13
326.339	37.19
326.552	37.4
326.766	47.36
326.979	58.37
327.193	53.4
327.406	45.61
327.619	31.67
327.833	24.71
328.046	19.44
328.26	5.09
328.473	-4.12
328.686	-4.23
328.9	-7.74
329.113	-0.09
329.326	9.56
329.54	12.52
329.753	15.25
329.966	16.06
330.179	29.62
330.393	41.77
330.606	49.76
330.819	47.48
331.032	45.4
331.246	52.51
331.459	57.12
331.672	51.28
331.885	42.72
332.098	48.14
332.311	48.28
332.525	51.69
332.738	51.08
332.951	51.38
333.164	49.89
333.377	45.94
333.59	45.87
333.803	46.36
334.016	44.47
334.229	34.87
334.442	48.1
334.655	58.99
334.868	61.58
335.081	56.27
335.294	52.68
335.507	53.73
335.72	54.18
335.933	49.45
336.146	40
336.359	31.77
336.572	27.43
336.785	24.66
336.997	18.77
337.21	19.6
337.423	15.34
337.636	19.56
337.849	20.11
338.062	24.37
338.274	22.29
338.487	22.1
338.7	27.44
338.913	18.02
339.125	10.93
339.338	18.93
339.551	20.85
339.763	24.64
339.976	20.76
340.189	12.51
340.402	17.71
340.614	23.42
340.827	15.16
341.039	12.24
341.252	13.99
341.465	9.64
341.677	6.12
341.89	5.61
342.102	9.28
342.315	17.96
342.527	9.82
342.74	8.92
342.952	20.78
343.165	35.69
343.377	48.01
343.59	47.21
343.802	48.54
344.015	53.65
344.227	46.31
344.44	41.96
344.652	35.68
344.864	27.27
345.077	18.11
345.289	20.47
345.502	30.94
345.714	28.84
345.926	28.12
346.139	32.53
346.351	21.13
346.563	22.12
346.775	15.39
346.988	5.16
347.2	14.15
347.412	17.44
347.624	13.58
347.837	18.81
348.049	17.77
348.261	15.43
348.473	7.23
348.685	6.84
348.897	1.62
349.11	-1.31
349.322	-0.33
349.534	0.5
349.746	6.44
349.958	17.65
350.17	19.59
350.382	12.6
350.594	12.83
350.806	22.86
351.018	27.43
351.23	26.41
351.442	31.21
351.654	27.2
351.866	40.68
352.078	38.99
352.29	37.1
352.502	38
352.714	44.25
352.926	44.89
353.138	47.26
353.35	33.66
353.561	33.4
353.773	30.72
353.985	31.24
354.197	28.84
354.409	19.64
354.621	15.28
354.832	13.63
355.044	24.22
355.256	13.52
355.468	12.93
355.679	12.23
355.891	15.86
356.103	24.64
356.314	32.05
356.526	29.97
356.738	31.11
356.949	30.28
357.161	21.91
357.373	29.22
357.584	33.01
357.796	31.43
358.008	31.36
358.219	44.49
358.431	42.94
358.642	39.85
358.854	34.39
359.065	26.38
359.277	24.55
359.488	16.98
359.7	18.27
359.911	27.29
360.123	45.35
360.334	49.31
360.546	42.82
360.757	48.18
360.969	53.4
361.18	46.94
361.391	37.22
361.603	30.2
361.814	30.96
362.025	37.02
362.237	34.81
362.448	34.73
362.659	33.25
362.871	33.96
363.082	32.08
363.293	34.74
363.504	40.67
363.716	30.95
363.927	28.35
364.138	33.3
364.349	34.22
364.56	31.94
364.772	26.33
364.983	16.26
365.194	21.57
365.405	21.01
365.616	8.9
365.827	5.74
366.038	18.74
366.25	14.79
366.461	16.1
366.672	11.17
366.883	19.67
367.094	24.47
367.305	31.36
367.516	25.71
367.727	26.49
367.938	27.03
368.149	27.68
368.36	22.33
368.571	21.34
368.781	8.71
368.992	8.89
369.203	10.92
369.414	8.72
369.625	15.06
369.836	11.23
370.047	13.03
370.258	18.33
370.468	12.34
370.679	5.95
370.89	17.92
371.101	12.27
371.312	10.23
371.522	9.93
371.733	7.27
371.944	18.79
372.155	15.45
372.365	6.48
372.576	5.27
372.787	12.47
372.997	18.87
373.208	28.43
373.419	16.8
373.629	28.98
373.84	34
374.05	40.96
374.261	35.7
374.472	30.44
374.682	20.46
374.893	22.02
375.103	21.39
375.314	15.39
375.524	6.17
375.735	10.17
375.945	11.34
376.156	16.74
376.366	21.72
376.577	19.32
376.787	26.19
376.997	35.88
377.208	24.81
377.418	26.34
377.629	22.01
377.839	23.8
378.049	20.59
378.26	18.87
378.47	17.39
378.68	24.59
378.89	23.38
379.101	14.8
379.311	4.01
379.521	9.21
379.732	-4.21
379.942	-6.52
380.152	-1.92
380.362	0.4
380.572	10.04
380.783	18.59
380.993	17.23
381.203	21.21
381.413	22.8
381.623	17.5
381.833	15.13
382.043	8.99
382.253	9.68
382.463	10.05
382.674	13.97
382.884	14.04
383.094	14.95
383.304	16.78
383.514	21.07
383.724	15.2
383.934	13.55
384.144	17.11
384.353	21.77
384.563	19.03
384.773	18.45
384.983	19.29
385.193	21.9
385.403	25.61
385.613	17.79
385.823	11.52
386.033	14.6
386.242	12.53
386.452	11.53
386.662	11.27
386.872	10.7
387.082	12.19
387.291	15.87
387.501	14.77
387.711	11.45
387.921	10.64
388.13	9.11
388.34	7.89
388.55	12.75
388.759	11.22
388.969	9.53
389.179	14.07
389.388	13.12
389.598	12.15
389.807	11.28
390.017	7.63
390.227	6.07
390.436	5.52
390.646	4.34
390.855	4.55
391.065	4.15
391.274	3.49
391.484	5.55
391.693	6.42
391.903	7
392.112	6.29
392.322	8.42
392.531	9.75
392.74	7.98
392.95	8
393.159	8.55
393.369	8.82
393.578	8.7
393.787	7.17
393.997	7.32
394.206	8.53
394.415	7.65
394.625	5.89
394.834	5.13
395.043	5.62
395.252	6.21
395.462	5.28
395.671	5.65
395.88	5.74
396.089	5.77
396.298	5.52
396.508	5.05
396.717	4.58
396.926	4.69
397.135	4.08
397.344	3.57
397.553	4.09
397.762	4.39
397.971	4.68
398.181	4.27
398.39	4.51
398.599	4.91
398.808	5.34
399.017	5.32
399.226	5.6
399.435	5.33
399.644	5.53
399.853	5.3
400.062	5.04
400.27	4.98
400.479	4.96
400.688	4.94
400.897	5.06
401.106	5.15
401.315	5.04
401.524	5.24
401.733	5.39
401.941	5.13
402.15	4.76
402.359	4.77
402.568	4.82
402.777	4.88
402.985	4.84
403.194	4.55
403.403	4.49
403.612	4.65
403.82	4.6
404.029	4.5
404.238	4.51
404.446	4.37
404.655	4.33
404.864	4.42
405.072	4.37
405.281	4.15
405.489	4.19
405.698	4.15
405.906	4.16
406.115	4.16
406.324	4.08
406.532	4.09
406.741	4.2
406.949	4.02
407.158	4.06
407.366	4.07
407.574	4.04
407.783	4.01
407.991	3.93
408.2	3.9
408.408	4
408.617	3.91
408.825	3.84
409.033	3.84
409.242	3.9
409.45	3.84
409.658	3.84
409.867	3.78
410.075	3.78
410.283	3.73
410.491	3.69
410.7	3.7
410.908	3.8
411.116	3.74
411.324	3.77
411.533	3.65
411.741	3.68
411.949	3.71
412.157	3.75
412.365	3.73
412.573	3.78
412.781	3.69
412.99	3.89
413.198	3.95
413.406	3.92
413.614	3.89
413.822	3.84
414.03	3.74
414.238	3.9
414.446	3.77
414.654	3.7
414.862	3.66
415.07	3.67
415.278	3.66
415.486	3.78
415.694	3.56
415.902	3.59
416.109	3.61
416.317	3.62
416.525	3.62
416.733	3.71
416.941	3.64
417.149	3.81
417.357	3.8
417.564	3.76
417.772	3.84
417.98	3.77
418.188	3.66
418.395	3.71
418.603	3.58
418.811	3.54
419.019	3.52
419.226	3.55
419.434	3.45
419.642	3.47
419.849	3.39
420.057	3.5
420.265	3.48
420.472	3.48
420.68	3.4
420.887	3.48
421.095	3.47
421.302	3.6
421.51	3.62
421.717	3.73
421.925	3.67
422.132	3.53
422.34	3.52
422.547	3.53
422.755	3.41
422.962	3.28
423.17	3.17
423.377	3.31
423.585	3.41
423.792	3.4
423.999	3.33
424.207	3.22
424.414	3.31
424.621	3.32
424.829	3.23
425.036	3.17
425.243	3.09
425.451	3.18
425.658	3.31
425.865	3.26
426.072	3.26
426.28	3.25
426.487	3.32
426.694	3.38
426.901	3.21
427.108	3.19
427.315	3.11
427.523	3.14
427.73	3.12
427.937	3.12
428.144	3.11
428.351	3.32
428.558	3.22
428.765	3.22
428.972	3.26
429.179	3.23
429.386	3.21
429.593	3.2
429.8	3.15
430.007	3.24
430.214	3.28
430.421	3.24
430.628	3.19
430.835	3.15
431.042	3.2
431.249	3.22
431.456	3.3
431.662	3.34
431.869	3.39
432.076	3.48
432.283	3.52
432.49	3.45
432.697	3.43
432.903	3.39
433.11	3.43
433.317	3.39
433.524	3.3
433.73	3.34
433.937	3.32
434.144	3.41
434.35	3.3
434.557	3.25
434.764	3.24
434.97	3.36
435.177	3.27
435.384	3.4
435.59	3.32
435.797	3.42
436.003	3.4
436.21	3.34
436.416	3.25
436.623	3.28
436.829	3.27
437.036	3.21
437.242	3.21
437.449	3.25
437.655	3.28
437.862	3.37
438.068	3.46
438.275	3.44
438.481	3.58
438.687	3.6
438.894	3.6
439.1	3.68
439.307	3.66
439.513	3.6
439.719	3.61
439.926	3.55
440.132	3.55
440.338	3.54
440.544	3.48
440.751	3.44
440.957	3.41
441.163	3.4
441.369	3.41
441.575	3.38
441.782	3.39
441.988	3.4
442.194	3.53
442.4	3.6
442.606	3.65
442.812	3.65
443.018	3.69
443.224	3.74
443.431	3.8
443.637	3.74
443.843	3.75
444.049	3.71
444.255	3.68
444.461	3.66
444.667	3.64
444.873	3.62
445.079	3.62
445.284	3.54
445.49	3.56
445.696	3.63
445.902	3.7
446.108	3.68
446.314	3.7
446.52	3.77
446.726	3.83
446.931	3.85
447.137	3.87
447.343	3.84
447.549	3.83
447.755	3.77
447.96	3.69
448.166	3.72
448.372	3.71
448.578	3.65
448.783	3.62
448.989	3.63
449.195	3.71
449.4	3.73
449.606	3.69
449.812	3.68
450.017	3.76
450.223	3.75
450.428	3.78
450.634	3.81
450.84	3.8
451.045	3.81
451.251	3.86
451.456	3.81
451.662	3.84
451.867	3.81
452.073	3.76
452.278	3.81
452.483	3.88
452.689	3.87
452.894	3.85
453.1	3.78
453.305	3.77
453.51	3.8
453.716	3.81
453.921	3.73
454.127	3.7
454.332	3.73
454.537	3.85
454.742	3.85
454.948	3.82
455.153	3.8
455.358	3.85
455.563	3.89
455.769	3.86
455.974	3.75
456.179	3.7
456.384	3.71
456.589	3.73
456.795	3.65
457	3.61
457.205	3.55
457.41	3.61
457.615	3.74
457.82	3.78
458.025	3.76
458.23	3.79
458.435	3.76
458.64	3.85
458.845	3.79
459.05	3.68
459.255	3.64
459.46	3.62
459.665	3.69
459.87	3.73
460.075	3.72
460.28	3.8
460.485	3.88
460.69	3.82
460.895	3.85
461.099	3.82
461.304	3.85
461.509	3.76
461.714	3.77
461.919	3.72
462.123	3.84
462.328	3.84
462.533	3.87
462.738	3.83
462.942	3.95
463.147	3.94
463.352	3.98
463.556	3.94
463.761	3.94
463.966	3.94
464.17	4
464.375	3.92
464.58	3.87
464.784	3.86
464.989	3.84
465.193	3.89
465.398	3.89
465.602	3.84
465.807	3.93
466.011	4.01
466.216	4.03
466.42	4.07
466.625	4.09
466.829	4.12
467.034	4.18
467.238	4.2
467.443	4.17
467.647	4.17
467.851	4.19
468.056	4.15
468.26	4.17
468.464	4.14
468.669	4.15
468.873	4.18
469.077	4.23
469.282	4.25
469.486	4.26
469.69	4.26
469.894	4.34
470.099	4.36
470.303	4.37
470.507	4.36
470.711	4.36
470.915	4.45
471.119	4.48
471.324	4.44
471.528	4.46
471.732	4.51
471.936	4.59
472.14	4.6
472.344	4.59
472.548	4.67
472.752	4.77
472.956	4.81
473.16	4.79
473.364	4.78
473.568	4.8
473.772	4.87
473.976	4.8
474.18	4.78
474.384	4.76
474.588	4.77
474.792	4.8
474.995	4.81
475.199	4.78
475.403	4.84
475.607	4.87
475.811	4.91
476.015	5
476.218	4.96
476.422	5.02
476.626	5
476.83	5.02
477.033	5.02
477.237	5.02
477.441	4.98
477.644	5.06
477.848	5.03
478.052	5.08
478.255	5.06
478.459	5.11
478.663	5.12
478.866	5.16
479.07	5.17
479.273	5.23
479.477	5.28
479.681	5.34
479.884	5.32
480.088	5.38
480.291	5.41
480.495	5.43
480.698	5.42
480.901	5.4
481.105	5.46
481.308	5.46
481.512	5.47
481.715	5.5
481.919	5.56
482.122	5.54
482.325	5.59
482.529	5.63
482.732	5.68
482.935	5.69
483.138	5.65
483.342	5.63
483.545	5.69
483.748	5.72
483.952	5.71
484.155	5.74
484.358	5.74
484.561	5.76
484.764	5.75
484.967	5.77
485.171	5.75
485.374	5.75
485.577	5.78
485.78	5.82
485.983	5.88
486.186	5.89
486.389	5.89
486.592	5.95
486.795	5.99
486.998	5.94
487.201	5.94
487.404	5.97
487.607	6.04
487.81	6.09
488.013	6.11
488.216	6.12
488.419	6.14
488.622	6.15
488.825	6.14
489.028	6.1
489.231	6.11
489.433	6.11
489.636	6.09
489.839	6.12
490.042	6.16
490.245	6.21
490.447	6.27
490.65	6.33
490.853	6.35
491.056	6.39
491.258	6.49
491.461	6.53
491.664	6.51
491.866	6.58
492.069	6.58
492.272	6.59
492.474	6.65
492.677	6.63
492.879	6.68
493.082	6.78
493.285	6.78
493.487	6.78
493.69	6.86
493.892	6.91
494.095	6.98
494.297	7.07
494.5	7.11
494.702	7.2
494.905	7.3
495.107	7.37
495.309	7.37
495.512	7.45
495.714	7.5
495.917	7.53
496.119	7.6
496.321	7.72
496.524	7.75
496.726	7.87
496.928	7.93
497.13	8.01
497.333	8.13
497.535	8.19
497.737	8.19
497.939	8.25
498.142	8.29
498.344	8.34
498.546	8.43
498.748	8.46
498.95	8.51
499.152	8.57
499.355	8.64
499.557	8.74
499.759	8.84
499.961	8.8
500.163	8.86
500.365	8.92
500.567	8.95
500.769	9.01
500.971	9.01
501.173	9.02
501.375	9.05
501.577	9.07
501.779	9.13
501.981	9.21
502.183	9.21
502.385	9.2
502.587	9.26
502.788	9.31
502.99	9.33
503.192	9.33
503.394	9.34
503.596	9.37
503.798	9.46
503.999	9.45
504.201	9.45
504.403	9.51
504.605	9.54
504.806	9.55
505.008	9.57
505.21	9.56
505.411	9.6
505.613	9.6
505.815	9.6
506.016	9.62
506.218	9.61
506.42	9.62
506.621	9.65
506.823	9.64
507.024	9.69
507.226	9.67
507.427	9.64
507.629	9.69
507.83	9.68
508.032	9.7
508.233	9.68
508.435	9.69
508.636	9.66
508.838	9.73
509.039	9.76
509.24	9.8
509.442	9.77
509.643	9.77
509.845	9.76
510.046	9.82
510.247	9.85
510.448	9.84
510.65	9.86
510.851	9.91
511.052	9.94
511.254	9.93
511.455	9.93
511.656	9.87
511.857	9.84
512.058	9.84
512.26	9.83
512.461	9.88
512.662	9.88
512.863	9.87
513.064	9.91
513.265	9.97
513.466	10
513.667	10.01
513.868	10.01
514.069	10.07
514.27	10.07
514.471	10.08
514.672	10.09
514.873	10.08
515.074	10.15
515.275	10.12
515.476	10.1
515.677	10.16
515.878	10.22
516.079	10.23
516.28	10.23
516.481	10.17
516.682	10.21
516.882	10.22
517.083	10.21
517.284	10.18
517.485	10.16
517.686	10.21
517.886	10.26
518.087	10.24
518.288	10.25
518.488	10.26
518.689	10.25
518.89	10.32
519.091	10.36
519.291	10.37
519.492	10.41
519.692	10.49
519.893	10.5
520.094	10.51
520.294	10.49
520.495	10.45
520.695	10.45
520.896	10.45
521.096	10.44
521.297	10.45
521.497	10.47
521.698	10.47
521.898	10.5
522.099	10.5
522.299	10.5
522.499	10.53
522.7	10.55
522.9	10.58
523.101	10.6
523.301	10.58
523.501	10.63
523.702	10.66
523.902	10.65
524.102	10.66
524.302	10.69
524.503	10.69
524.703	10.72
524.903	10.73
525.103	10.75
525.304	10.79
525.504	10.83
525.704	10.81
525.904	10.86
526.104	10.9
526.304	10.88
526.504	10.85
526.705	10.85
526.905	10.87
527.105	10.91
527.305	10.86
527.505	10.86
527.705	10.89
527.905	10.94
528.105	10.93
528.305	10.94
528.505	10.95
528.705	10.97
528.905	10.99
529.105	11.01
529.304	11.05
529.504	11.07
529.704	11.08
529.904	11.15
530.104	11.2
530.304	11.21
530.503	11.22
530.703	11.21
530.903	11.26
531.103	11.27
531.303	11.28
531.502	11.26
531.702	11.3
531.902	11.33
532.101	11.38
532.301	11.35
532.501	11.39
532.7	11.37
532.9	11.45
533.1	11.47
533.299	11.5
533.499	11.5
533.698	11.6
533.898	11.63
534.097	11.69
534.297	11.68
534.496	11.67
534.696	11.7
534.895	11.77
535.095	11.78
535.294	11.75
535.494	11.78
535.693	11.85
535.892	11.87
536.092	11.91
536.291	11.92
536.491	11.94
536.69	11.97
536.889	11.95
537.088	11.94
537.288	12.03
537.487	12.06
537.686	12.13
537.886	12.14
538.085	12.22
538.284	12.26
538.483	12.35
538.682	12.39
538.882	12.41
539.081	12.41
539.28	12.46
539.479	12.48
539.678	12.55
539.877	12.54
540.076	12.61
540.275	12.63
540.474	12.62
540.673	12.66
540.872	12.73
541.071	12.77
541.27	12.81
541.469	12.81
541.668	12.89
541.867	12.98
542.066	13.02
542.265	13.04
542.464	13.11
542.663	13.19
542.862	13.26
543.06	13.3
543.259	13.33
543.458	13.39
543.657	13.43
543.856	13.45
544.054	13.49
544.253	13.51
544.452	13.52
544.651	13.58
544.849	13.64
545.048	13.73
545.247	13.76
545.445	13.76
545.644	13.82
545.843	13.91
546.041	13.96
546.24	14.04
546.438	14.09
546.637	14.2
546.836	14.28
547.034	14.35
547.233	14.43
547.431	14.51
547.63	14.57
547.828	14.64
548.027	14.66
548.225	14.77
548.423	14.84
548.622	14.86
548.82	14.93
549.019	14.98
549.217	15.07
549.415	15.19
549.614	15.22
549.812	15.28
550.01	15.37
550.209	15.46
550.407	15.57
550.605	15.63
550.803	15.66
551.002	15.74
551.2	15.88
551.398	15.97
551.596	16.02
551.794	16.1
551.993	16.15
552.191	16.28
552.389	16.4
552.587	16.44
552.785	16.52
552.983	16.65
553.181	16.71
553.379	16.84
553.577	16.96
553.775	17.03
553.973	17.17
554.171	17.27
554.369	17.35
554.567	17.48
554.765	17.55
554.963	17.62
555.161	17.74
555.359	17.82
555.557	17.97
555.755	18.06
555.952	18.17
556.15	18.31
556.348	18.48
556.546	18.6
556.744	18.68
556.941	18.81
557.139	18.95
557.337	19.03
557.535	19.18
557.732	19.25
557.93	19.36
558.128	19.48
558.325	19.59
558.523	19.68
558.721	19.8
558.918	19.9
559.116	20
559.313	20.16
559.511	20.27
559.708	20.39
559.906	20.54
560.104	20.68
560.301	20.8
560.498	20.96
560.696	21.06
560.893	21.21
561.091	21.33
561.288	21.45
561.486	21.58
561.683	21.71
561.88	21.8
562.078	21.92
562.275	22.08
562.473	22.22
562.67	22.32
562.867	22.47
563.064	22.63
563.262	22.86
563.459	22.97
563.656	23.09
563.853	23.24
564.051	23.41
564.248	23.55
564.445	23.66
564.642	23.82
564.839	23.96
565.036	24.13
565.234	24.25
565.431	24.41
565.628	24.55
565.825	24.68
566.022	24.72
566.219	24.87
566.416	25
566.613	25.16
566.81	25.27
567.007	25.33
567.204	25.47
567.401	25.59
567.598	25.66
567.795	25.73
567.991	25.83
568.188	25.95
568.385	26.11
568.582	26.19
568.779	26.33
568.976	26.48
569.172	26.62
569.369	26.7
569.566	26.73
569.763	26.83
569.96	26.9
570.156	26.99
570.353	27.02
570.55	27.15
570.746	27.22
570.943	27.41
571.14	27.49
571.336	27.61
571.533	27.71
571.729	27.81
571.926	27.83
572.123	27.93
572.319	27.97
572.516	28.05
572.712	28.11
572.909	28.21
573.105	28.31
573.302	28.4
573.498	28.42
573.695	28.47
573.891	28.53
574.087	28.58
574.284	28.59
574.48	28.65
574.677	28.7
574.873	28.8
575.069	28.89
575.266	28.94
575.462	28.98
575.658	29.05
575.854	29.08
576.051	29.07
576.247	29.09
576.443	29.1
576.639	29.13
576.835	29.18
577.032	29.21
577.228	29.23
577.424	29.28
577.62	29.31
577.816	29.35
578.012	29.34
578.208	29.36
578.404	29.45
578.6	29.5
578.796	29.54
578.993	29.56
579.189	29.55
579.384	29.52
579.58	29.49
579.776	29.38
579.972	29.34
580.168	29.34
580.364	29.37
580.56	29.38
580.756	29.4
580.952	29.41
581.148	29.42
581.343	29.48
581.539	29.48
581.735	29.44
581.931	29.42
582.127	29.45
582.322	29.48
582.518	29.47
582.714	29.42
582.909	29.44
583.105	29.39
583.301	29.38
583.496	29.35
583.692	29.34
583.888	29.31
584.083	29.35
584.279	29.29
584.474	29.32
584.67	29.3
584.866	29.34
585.061	29.35
585.257	29.38
585.452	29.33
585.648	29.33
585.843	29.33
586.039	29.35
586.234	29.3
586.429	29.29
586.625	29.31
586.82	29.34
587.015	29.29
587.211	29.27
587.406	29.29
587.601	29.35
587.797	29.31
587.992	29.3
588.187	29.32
588.383	29.39
588.578	29.4
588.773	29.41
588.968	29.42
589.163	29.47
589.359	29.47
589.554	29.49
589.749	29.49
589.944	29.54
590.139	29.55
590.334	29.54
590.529	29.6
590.724	29.65
590.919	29.71
591.114	29.73
591.309	29.81
591.504	29.85
591.699	29.89
591.894	29.93
592.089	29.94
592.284	29.95
592.479	29.99
592.674	30.03
592.869	30.1
593.064	30.2
593.259	30.25
593.454	30.38
593.648	30.49
593.843	30.62
594.038	30.67
594.233	30.74
594.428	30.84
594.622	30.93
594.817	31.02
595.012	31.06
595.206	31.12
595.401	31.23
595.596	31.35
595.79	31.39
595.985	31.44
596.18	31.53
596.374	31.63
596.569	31.73
596.763	31.84
596.958	31.9
597.153	32.02
597.347	32.17
597.542	32.19
597.736	32.34
597.931	32.44
598.125	32.52
598.319	32.59
598.514	32.63
598.708	32.68
598.903	32.83
599.097	32.89
599.291	32.92
599.486	32.95
599.68	33.06
599.874	33.19
600.069	33.24
600.263	33.25
600.457	33.29
600.651	33.39
600.846	33.5
601.04	33.5
601.234	33.57
601.428	33.6
601.622	33.67
601.817	33.7
602.011	33.72
602.205	33.71
602.399	33.76
602.593	33.75
602.787	33.81
602.981	33.83
603.175	33.81
603.369	33.88
603.563	33.88
603.757	33.87
603.951	33.87
604.145	33.86
604.339	33.84
604.533	33.87
604.727	33.82
604.921	33.83
605.115	33.74
605.309	33.74
605.502	33.72
605.696	33.7
605.89	33.65
606.084	33.6
606.278	33.54
606.471	33.55
606.665	33.4
606.859	33.31
607.053	33.24
607.246	33.23
607.44	33.13
607.634	33.07
607.827	33
608.021	32.94
608.214	32.93
608.408	32.86
608.602	32.77
608.795	32.68
608.989	32.54
609.182	32.54
609.376	32.47
609.569	32.36
609.763	32.33
609.956	32.23
610.15	32.23
610.343	32.2
610.537	32.07
610.73	32.04
610.923	32
611.117	31.88
611.31	31.83
611.504	31.77
611.697	31.73
611.89	31.63
612.083	31.54
612.277	31.42
612.47	31.35
612.663	31.21
612.856	31.05
613.05	30.93
613.243	30.84
613.436	30.77
613.629	30.68
613.822	30.54
614.015	30.42
614.209	30.42
614.402	30.32
614.595	30.27
614.788	30.17
614.981	30.07
615.174	30.04
615.367	29.98
615.56	29.89
615.753	29.85
615.946	29.78
616.139	29.75
616.332	29.62
616.525	29.61
616.718	29.58
616.911	29.49
617.103	29.39
617.296	29.34
617.489	29.23
617.682	29.26
617.875	29.12
618.067	29.02
618.26	28.92
618.453	28.85
618.646	28.76
618.838	28.73
619.031	28.66
619.224	28.62
619.417	28.6
619.609	28.64
619.802	28.65
619.994	28.56
620.187	28.52
620.38	28.46
620.572	28.42
620.765	28.33
620.957	28.21
621.15	28.17
621.342	28.23
621.535	28.15
621.727	28.08
621.92	28.11
622.112	28.17
622.305	28.13
622.497	28.07
622.69	28.01
622.882	28.07
623.074	28.09
623.267	27.99
623.459	27.93
623.651	27.91
623.844	27.9
624.036	27.94
624.228	27.85
624.42	27.83
624.613	27.87
624.805	27.89
624.997	27.87
625.189	27.84
625.381	27.8
625.574	27.82
625.766	27.8
625.958	27.75
626.15	27.67
626.342	27.66
626.534	27.62
626.726	27.58
626.918	27.48
627.11	27.41
627.302	27.37
627.494	27.34
627.686	27.3
627.878	27.26
628.07	27.16
628.262	27.11
628.454	27.13
628.646	27.07
628.838	26.99
629.029	26.88
629.221	26.81
629.413	26.73
629.605	26.68
629.797	26.57
629.989	26.55
630.18	26.52
630.372	26.5
630.564	26.49
630.755	26.51
630.947	26.44
631.139	26.37
631.33	26.27
631.522	26.21
631.714	26.18
631.905	26.12
632.097	26.05
632.289	26.02
632.48	25.98
632.672	25.94
632.863	25.9
633.055	25.87
633.246	25.87
633.438	25.87
633.629	25.91
633.821	25.91
634.012	25.96
634.203	25.99
634.395	26.02
634.586	25.91
634.777	25.88
634.969	25.82
635.16	25.81
635.351	25.73
635.543	25.71
635.734	25.67
635.925	25.76
636.117	25.76
636.308	25.76
636.499	25.72
636.69	25.77
636.881	25.75
637.073	25.74
637.264	25.71
637.455	25.69
637.646	25.72
637.837	25.73
638.028	25.74
638.219	25.73
638.41	25.7
638.601	25.71
638.792	25.66
638.983	25.58
639.174	25.57
639.365	25.46
639.556	25.43
639.747	25.47
639.938	25.48
640.129	25.46
640.32	25.43
640.511	25.37
640.701	25.41
640.892	25.4
641.083	25.29
641.274	25.22
641.465	25.2
641.655	25.26
641.846	25.26
642.037	25.22
642.228	25.18
642.418	25.18
642.609	25.07
642.8	25.03
642.99	24.97
643.181	24.97
643.372	25
643.562	24.98
643.753	24.92
643.943	24.95
644.134	24.99
644.324	25.01
644.515	24.95
644.705	24.88
644.896	24.85
645.086	24.83
645.277	24.87
645.467	24.84
645.658	24.78
645.848	24.77
646.038	24.78
646.229	24.75
646.419	24.79
646.61	24.73
646.8	24.67
646.99	24.67
647.18	24.64
647.371	24.59
647.561	24.6
647.751	24.54
647.941	24.46
648.132	24.48
648.322	24.49
648.512	24.46
648.702	24.37
648.892	24.36
649.082	24.33
649.272	24.28
649.462	24.23
649.653	24.17
649.843	24.11
650.033	24.09
650.223	24.06
650.413	24.03
650.603	24.04
650.793	23.92
650.983	23.86
651.172	23.84
651.362	23.78
651.552	23.68
651.742	23.6
651.932	23.53
652.122	23.55
652.312	23.47
652.502	23.42
652.691	23.42
652.881	23.32
653.071	23.21
653.261	23.17
653.45	23.01
653.64	22.93
653.83	22.79
654.019	22.54
654.209	22.42
654.399	22.29
654.588	22.05
654.778	21.89
654.968	21.69
655.157	21.51
655.347	21.37
655.536	21.19
655.726	21.07
655.915	20.9
656.105	20.75
656.294	20.56
656.484	20.42
656.673	20.25
656.863	20.04
657.052	19.78
657.241	19.57
657.431	19.32
657.62	19.01
657.809	18.74
657.999	18.52
658.188	18.3
658.377	18.1
658.567	17.96
658.756	17.75
658.945	17.58
659.134	17.36
659.324	17.09
659.513	16.81
659.702	16.52
659.891	16.23
660.08	16.07
660.269	15.88
660.458	15.67
660.648	15.52
660.837	15.34
661.026	15.19
661.215	15.02
661.404	14.82
661.593	14.62
661.782	14.43
661.971	14.2
662.16	14
662.349	13.76
662.538	13.58
662.726	13.36
662.915	13.17
663.104	12.96
663.293	12.77
663.482	12.63
663.671	12.49
663.86	12.3
664.048	12.12
664.237	11.96
664.426	11.86
664.615	11.73
664.803	11.57
664.992	11.48
665.181	11.33
665.369	11.21
665.558	11.09
665.747	11.02
665.935	10.94
666.124	10.89
666.312	10.73
666.501	10.65
666.69	10.58
666.878	10.49
667.067	10.41
667.255	10.36
667.444	10.28
667.632	10.23
667.82	10.16
668.009	10.12
668.197	10.02
668.386	9.91
668.574	9.87
668.762	9.75
668.951	9.68
669.139	9.7
669.327	9.68
669.516	9.68
669.704	9.7
669.892	9.64
670.08	9.68
670.269	9.73
670.457	9.66
670.645	9.65
670.833	9.69
671.021	9.68
671.21	9.7
671.398	9.7
671.586	9.71
671.774	9.7
671.962	9.68
672.15	9.7
672.338	9.73
672.526	9.75
672.714	9.79
672.902	9.79
673.09	9.91
673.278	9.98
673.466	10.13
673.654	10.17
673.842	10.19
674.03	10.3
674.218	10.39
674.405	10.51
674.593	10.55
674.781	10.53
674.969	10.61
675.157	10.75
675.344	10.83
675.532	10.94
675.72	10.97
675.908	11.08
676.095	11.24
676.283	11.34
676.471	11.43
676.658	11.55
676.846	11.66
677.033	11.79
677.221	11.95
677.409	12.01
677.596	12.24
677.784	12.31
677.971	12.39
678.159	12.45
678.346	12.59
678.534	12.71
678.721	12.86
678.909	12.83
679.096	13
679.283	13.12
679.471	13.43
679.658	13.63
679.846	13.81
680.033	13.93
680.22	14.19
680.408	14.34
680.595	14.52
680.782	14.6
680.969	14.59
681.157	14.74
681.344	14.95
681.531	15.09
681.718	15.29
681.905	15.52
682.093	15.74
682.28	16.12
682.467	16.27
682.654	16.48
682.841	16.77
683.028	17.09
683.215	17.32
683.402	17.52
683.589	17.79
683.776	18.16
683.963	18.43
684.15	18.72
684.337	19.02
684.524	19.32
684.711	19.63
684.898	19.96
685.085	20.38
685.271	20.86
685.458	21.22
685.645	21.56
685.832	22.04
686.019	22.45
686.205	22.92
686.392	23.27
686.579	23.64
686.766	24.12
686.952	24.65
687.139	25.06
687.326	25.71
687.512	26.14
687.699	26.69
687.886	27.15
688.072	27.68
688.259	28.23
688.445	28.81
688.632	29.39
688.818	30.03
689.005	30.78
689.191	31.55
689.378	32.18
689.564	32.81
689.751	33.63
689.937	34.21
690.124	34.9
690.31	35.43
690.496	36.12
690.683	36.97
690.869	37.62
691.055	38.34
691.242	38.97
691.428	39.74
691.614	40.56
691.8	41.35
691.987	41.93
692.173	42.89
692.359	43.63
692.545	44.46
692.731	45.26
692.918	46.02
693.104	46.56
693.29	47.46
693.476	48.07
693.662	48.81
693.848	49.49
694.034	50.04
694.22	50.75
694.406	51.55
694.592	52.13
694.778	52.76
694.964	53.3
695.15	53.97
695.336	54.83
695.522	55.44
695.708	56.13
695.894	56.74
696.08	57.4
696.265	58.04
696.451	58.86
696.637	59.41
696.823	59.99
697.009	60.7
697.194	61.38
697.38	61.99
697.566	62.58
697.751	63.12
697.937	63.62
698.123	64.21
698.308	64.61
698.494	65.09
698.68	65.73
698.865	66.44
699.051	66.94
699.236	67.38
699.422	67.81
699.607	68.28
699.793	68.7
699.978	69
700.164	69.37
700.349	69.67
700.535	70.21
700.72	70.67
700.906	70.99
701.091	71.31
701.276	71.86
701.462	72.27
701.647	72.71
701.832	73.15
702.018	73.53
702.203	73.93
702.388	74.29
702.573	74.73
702.759	74.98
702.944	75.37
703.129	75.55
703.314	75.87
703.499	76.2
703.684	76.66
703.87	76.85
704.055	77.04
704.24	77.43
704.425	77.97
704.61	78.31
704.795	78.65
704.98	78.87
705.165	79.1
705.35	79.42
705.535	79.8
705.72	79.69
705.905	79.7
706.09	79.81
706.275	79.87
706.459	80.2
706.644	80.57
706.829	80.59
707.014	80.77
707.199	81.03
707.384	81.26
707.568	81.76
707.753	81.83
707.938	81.95
708.123	81.81
708.307	82.43
708.492	82.6
708.677	82.86
708.861	82.97
709.046	82.74
709.231	83.02
709.415	83.32
709.6	82.91
709.784	83.19
709.969	83.3
710.153	83.61
710.338	84.02
710.522	83.96
710.707	83.89
710.891	84.24
711.076	84.19
711.26	84.37
711.445	84.26
711.629	84.52
711.813	84.36
711.998	84.6
712.182	85.08
712.366	85.31
712.551	85.24
712.735	85.18
712.919	85.29
713.103	85.69
713.288	85.97
713.472	85.73
713.656	85.75
713.84	85.91
714.024	86.28
714.208	86.17
714.393	86.33
714.577	86.36
714.761	86.35
714.945	86.41
715.129	86.63
715.313	86.71
715.497	87.15
715.681	87.14
715.865	87.15
716.049	87.39
716.233	87.72
716.417	87.84
716.601	87.6
716.785	87.33
716.968	87.31
717.152	87.27
717.336	87.29
717.52	87.2
717.704	87.18
717.888	87.51
718.071	87.79
718.255	87.71
718.439	87.92
718.622	88.12
718.806	87.9
718.99	88.17
719.174	88.13
719.357	88.17
719.541	88.5
719.724	88.54
719.908	88.56
720.092	88.98
720.275	89.03
720.459	89.14
720.642	88.99
720.826	89.04
721.009	88.93
721.193	88.95
721.376	88.82
721.559	88.53
721.743	88.62
721.926	88.86
722.11	88.88
722.293	88.71
722.476	88.66
722.66	88.6
722.843	88.98
723.026	89.13
723.21	89.18
723.393	89.31
723.576	89.66
723.759	90
723.942	90.14
724.126	89.85
724.309	89.75
724.492	89.66
724.675	89.77
724.858	90.27
725.041	90.24
725.224	90.81
725.407	90.83
725.59	90.77
725.774	90.93
725.957	90.94
726.14	90.67
726.322	90.67
726.505	90.64
726.688	90.92
726.871	91.16
727.054	91.18
727.237	91.07
727.42	91.28
727.603	91.39
727.786	91.45
727.968	91.71
728.151	92.01
728.334	92.22
728.517	92.49
728.699	92.9
728.882	92.98
729.065	92.76
729.248	92.98
729.43	92.74
729.613	92.61
729.796	92.42
729.978	92.01
730.161	92.28
730.343	92.58
730.526	92.41
730.708	92.76
730.891	93.22
731.073	93.62
731.256	93.79
731.438	93.75
731.621	94.17
731.803	94.29
731.986	94.2
732.168	94.12
732.35	94.22
732.533	94.3
732.715	94.56
732.898	94.03
733.08	94.53
733.262	94.55
733.444	94.59
733.627	94.66
733.809	95.25
733.991	95.31
734.173	95.55
734.355	95.37
734.538	95.54
734.72	95.87
734.902	95.85
735.084	95.54
735.266	95.24
735.448	95.61
735.63	95.41
735.812	95.59
735.994	95.26
736.176	95.72
736.358	96
736.54	96.21
736.722	95.68
736.904	95.72
737.086	95.81
737.268	96.12
737.45	96.04
737.632	95.72
737.814	95.62
737.995	96.1
738.177	96.5
738.359	96.43
738.541	96.23
738.723	96.09
738.904	96.18
739.086	96.27
739.268	96.95
739.449	96.82
739.631	97.39
739.813	97.45
739.994	97.69
740.176	97.75
740.358	97.6
740.539	96.68
740.721	97.02
740.902	96.4
741.084	96.84
741.265	96.83
741.447	96.23
741.628	96.32
741.81	96.68
741.991	96.47
742.172	96.48
742.354	96.76
742.535	96.95
742.717	97.4
742.898	98.13
743.079	97.85
743.261	98.25
743.442	98.83
743.623	98.4
743.804	98.04
743.986	98.18
744.167	97.6
744.348	97.54
744.529	96.6
744.71	95.8
744.891	95.51
745.073	95.5
745.254	95.45
745.435	95.57
745.616	95.38
745.797	95.59
745.978	96.23
746.159	96.25
746.34	96.71
746.521	96.6
746.702	95.79
746.883	96.95
747.064	97.07
747.245	97.46
747.426	97.97
747.606	97.09
747.787	97.41
747.968	98.48
748.149	97.88
748.33	98.95
748.51	97.65
748.691	97.96
748.872	98.58
749.053	98.47
749.233	98.09
749.414	97.68
749.595	95.99
749.775	96.65
749.956	95.63
750.137	95.25
750.317	95.61
750.498	95.65
750.678	95.91
750.859	97.03
751.04	97.16
751.22	97.08
751.4	97.86
751.581	97.4
751.761	98.04
751.942	97.83
752.122	97.21
752.303	96.87
752.483	98.33
752.663	97.92
752.844	97.28
753.024	96.67
753.204	96.69
753.385	96.5
753.565	96.58
753.745	95.82
753.925	95.22
754.106	96.02
754.286	96.27
754.466	96.8
754.646	97.05
754.826	96.83
755.006	95.96
755.187	96.82
755.367	97.05
755.547	97.28
755.727	96.68
755.907	97.08
756.087	97.59
756.267	97.56
756.447	97.38
756.627	96.99
756.807	97.1
756.987	98.13
757.167	98.37
757.346	98.12
757.526	99.02
757.706	98.3
757.886	98.34
758.066	97.25
758.246	96.41
758.425	95.97
758.605	95.61
758.785	95.09
758.965	94.44
759.144	94.06
759.324	94.95
759.504	95.24
759.683	94.46
759.863	94.88
760.043	94.87
760.222	95.37
760.402	95.69
760.581	95.11
760.761	93.8
760.94	93.68
761.12	93.56
761.299	93.8
761.479	94.66
761.658	93.86
761.838	93.87
762.017	95.3
762.197	95.86
762.376	95.3
762.555	95.15
762.735	93.69
762.914	94.55
763.093	94.39
763.273	93.66
763.452	92.59
763.631	91.99
763.81	92.33
763.99	93.27
764.169	92.95
764.348	93.42
764.527	93.46
764.706	94.77
764.885	95.3
765.064	94.82
765.243	94.8
765.423	95.19
765.602	94.67
765.781	94.94
765.96	94.49
766.139	94.95
766.318	95.48
766.497	95.32
766.676	95.1
766.854	94.78
767.033	94.27
767.212	93.85
767.391	93.43
767.57	92.12
767.749	92.05
767.928	90.81
768.106	91.06
768.285	91.78
768.464	91.92
768.643	92.65
768.821	93.86
769	93.8
769.179	94.11
769.357	92.95
769.536	91.66
769.715	90.95
769.893	90.24
770.072	88.8
770.25	88.42
770.429	89.49
770.607	90.71
770.786	91.38
770.964	91.38
771.143	91.34
771.321	91.49
771.5	91.64
771.678	91.05
771.857	90.38
772.035	90.35
772.213	90.95
772.392	91.15
772.57	91.21
772.748	90.94
772.927	90.89
773.105	91.39
773.283	91.39
773.461	92.02
773.64	90.74
773.818	90.67
773.996	90.82
774.174	90.97
774.352	90.86
774.531	89.78
774.709	89.47
774.887	89.68
775.065	89.28
775.243	90.12
775.421	89.5
775.599	88.15
775.777	89.28
775.955	88.01
776.133	87.19
776.311	88.14
776.489	86.76
776.667	87.57
776.844	88.77
777.022	87.91
777.2	88.09
777.378	90.18
777.556	90.31
777.734	91.34
777.911	92
778.089	91.58
778.267	91.3
778.445	90.74
778.622	89.43
778.8	88.57
778.978	88.74
779.155	87.02
779.333	86.98
779.511	87.74
779.688	87.41
779.866	87.91
780.043	89.71
780.221	88.61
780.398	89.38
780.576	88.98
780.753	88.04
780.931	89.93
781.108	90.81
781.286	88.64
781.463	89.41
781.64	89.89
781.818	88.99
781.995	90.55
782.172	90.11
782.35	89.13
782.527	90.85
782.704	90.26
782.882	90.37
783.059	91.09
783.236	91.29
783.413	91.48
783.59	90.66
783.768	89.55
783.945	90.65
784.122	89.75
784.299	90.48
784.476	88.83
784.653	87.16
784.83	86.64
785.007	87.58
785.184	87.05
785.361	87.11
785.538	85.45
785.715	85.1
785.892	84.83
786.069	85.8
786.246	83.76
786.423	85.13
786.6	84.73
786.776	84.55
786.953	84.9
787.13	87.22
787.307	87.26
787.484	86.99
787.66	84.68
787.837	84.69
788.014	87.15
788.191	84.4
788.367	83.71
788.544	84.12
788.721	85.09
788.897	86.81
789.074	85.16
789.25	86.66
789.427	87.56
789.603	89.59
789.78	90.16
789.956	88.71
790.133	86.54
790.309	85.88
790.486	85.82
790.662	88.23
790.839	87.68
791.015	86.36
791.192	87.58
791.368	91
791.544	93.34
791.721	89.97
791.897	91.96
792.073	90.4
792.249	92.09
792.426	92.15
792.602	89.09
792.778	88.06
792.954	87.54
793.13	86.37
793.307	84.44
793.483	82.15
793.659	83.83
793.835	83.52
794.011	82.93
794.187	81.61
794.363	80.3
794.539	80.33
794.715	79.07
794.891	75.22
795.067	76.71
795.243	77.44
795.419	81.27
795.595	80.37
795.771	83.34
795.947	84.65
796.122	87.47
796.298	85.17
796.474	87
796.65	86.54
796.826	90.29
797.001	87.97
797.177	88.66
797.353	91.43
797.529	93.04
797.704	89.29
797.88	87.43
798.056	88.09
798.231	89.75
798.407	89.77
798.582	87.05
798.758	89.31
798.934	91.49
799.109	88.58
799.285	87.57
799.46	86.61
799.636	87.7
799.811	89.08
799.986	87.43
800.162	88.2
800.337	90.36
800.513	87.28
800.688	88.46
800.863	88.8
801.039	82.63
801.214	80.37
801.389	79.83
801.565	82.57
801.74	82.62
801.915	81.7
802.09	78.39
802.265	82.48
802.441	83.48
802.616	84.11
802.791	79.6
802.966	80.14
803.141	76.07
803.316	78.45
803.491	75.63
803.666	75.91
803.841	75.63
804.016	78.43
804.191	78.97
804.366	84.68
804.541	82.36
804.716	81.07
804.891	85.2
805.066	81.99
805.241	81.75
805.416	78.92
805.591	78.41
805.765	81.3
805.94	82.73
806.115	77.54
806.29	80.62
806.464	78.22
806.639	81.03
806.814	76.91
806.989	74.69
807.163	74.53
807.338	74.91
807.512	69.87
807.687	71.91
807.862	70.48
808.036	71.09
808.211	73.88
808.385	72.32
808.56	77.37
808.734	79
808.909	78.62
809.083	79.74
809.258	85.14
809.432	83.54
809.606	87.42
809.781	86.09
809.955	91.38
810.13	94.52
810.304	94.79
810.478	89.37
810.652	91.04
810.827	90.59
811.001	88.16
811.175	82.39
811.349	78.02
811.524	74.58
811.698	75.59
811.872	76.71
812.046	72.56
812.22	71.49
812.394	75.52
812.568	80.56
812.742	81.35
812.916	80.18
813.09	74.52
813.264	75.62
813.438	83.85
813.612	76.48
813.786	73.63
813.96	80.12
814.134	85.02
814.308	87.85
814.482	88.98
814.656	84.34
814.83	88.78
815.003	91.71
815.177	86.9
815.351	88.15
815.525	82.36
815.698	80.82
815.872	74.95
816.046	74.01
816.219	71.64
816.393	66.66
816.567	61.05
816.74	70.37
816.914	77.6
817.088	79.14
817.261	81.02
817.435	77.1
817.608	82.15
817.782	88.19
817.955	87.27
818.129	84.13
818.302	85.93
818.475	85.27
818.649	83.73
818.822	85.66
818.996	85.84
819.169	80.5
819.342	78.19
819.516	80.12
819.689	79.71
819.862	82.22
820.035	81.54
820.209	74.91
820.382	72.48
820.555	72.48
820.728	63.12
820.901	61.37
821.075	61.73
821.248	61.2
821.421	63.37
821.594	70.3
821.767	69.14
821.94	69.42
822.113	68.38
822.286	74.1
822.459	80.84
822.632	81.08
822.805	72.47
822.978	69.28
823.151	74.69
823.324	70.23
823.496	56.15
823.669	55
823.842	54.21
824.015	57.2
824.188	59.71
824.361	61.34
824.533	70.14
824.706	88.26
824.879	83.2
825.051	85.98
825.224	85.45
825.397	82.97
825.569	89.28
825.742	90.8
825.915	82.48
826.087	78.22
826.26	75.52
826.432	80.03
826.605	74.71
826.777	66.05
826.95	60.13
827.122	71.25
827.295	73.49
827.467	69.28
827.64	57.57
827.812	66.65
827.984	69.3
828.157	68.05
828.329	60.43
828.501	63.47
828.674	66.65
828.846	72.1
829.018	60.91
829.19	57.38
829.363	62.44
829.535	59.84
829.707	54.65
829.879	54.98
830.051	53.83
830.223	53.08
830.395	52.29
830.568	59.11
830.74	58.65
830.912	60.12
831.084	55.83
831.256	54.16
831.428	67.4
831.6	61.76
831.772	55.76
831.943	69.09
832.115	76.57
832.287	82.92
832.459	87.05
832.631	81.38
832.803	92.9
832.975	92.77
833.146	74.17
833.318	62.62
833.49	72.99
833.662	76.77
833.833	76.89
834.005	75.33
834.177	73.9
834.348	73.91
834.52	81.14
834.692	73.91
834.863	78.27
835.035	68.65
835.206	72.11
835.378	73.46
835.549	88.16
835.721	81.93
835.892	76.86
836.064	72.04
836.235	81.51
836.407	70.68
836.578	67.64
836.749	60.69
836.921	56.81
837.092	64.12
837.264	57.65
837.435	46.08
837.606	52.7
837.777	56.19
837.949	46.5
838.12	45.35
838.291	46.35
838.462	50.9
838.633	54.51
838.805	55.12
838.976	51.86
839.147	54.41
839.318	57.06
839.489	59.44
839.66	61.73
839.831	47.92
840.002	46.29
840.173	60.92
840.344	64.49
840.515	63.43
840.686	55.48
840.857	53.15
841.028	69.12
841.199	74.35
841.369	71.03
841.54	73.84
841.711	75.67
841.882	72.75
842.053	79.32
842.223	77.17
842.394	83.52
842.565	74.39
842.736	78.55
842.906	83.74
843.077	72.57
843.248	71.52
843.418	77.02
843.589	74.01
843.759	77.9
843.93	82.02
844.101	85.97
844.271	90.65
844.442	91.75
844.612	79.66
844.783	51.37
844.953	47.72
845.123	56.44
845.294	38.61
845.464	59.71
845.635	66.02
845.805	74.83
845.975	79.99
846.146	72.65
846.316	67.92
846.486	84.58
846.656	71.98
846.827	50.1
846.997	63.49
847.167	74.45
847.337	83.02
847.507	79.41
847.677	73.52
847.848	82.11
848.018	91.25
848.188	76.55
848.358	86.53
848.528	87.62
848.698	53.81
848.868	45.04
849.038	45.01
849.208	64.51
849.378	63.74
849.548	68.71
849.718	62.26
849.887	81.03
850.057	78.73
850.227	67.5
850.397	60.61
850.567	79.45
850.737	65.23
850.906	52.88
851.076	61.21
851.246	74.15
851.415	78.62
851.585	65.69
851.755	65.59
851.924	78.62
852.094	79.55
852.264	70.37
852.433	61.79
852.603	72.65
852.772	78.12
852.942	53.16
853.111	42.09
853.281	42.43
853.45	41.11
853.62	25.02
853.789	21.22
853.959	12.8
854.128	7.92
854.297	-0.66
854.467	3.97
854.636	11.02
854.805	38.2
854.975	45.14
855.144	52
855.313	66.98
855.482	85.5
855.652	84.44
855.821	88.21
855.99	93.53
856.159	76
856.328	65.97
856.497	55.19
856.667	48.63
856.836	45.63
857.005	47.03
857.174	52.35
857.343	51.91
857.512	41.22
857.681	44.42
857.85	40.21
858.019	52.61
858.188	48.85
858.356	21.3
858.525	44.62
858.694	60.52
858.863	49
859.032	46.2
859.201	31.87
859.369	42.77
859.538	32.1
859.707	26.55
859.876	31.96
860.044	49.05
860.213	41.81
860.382	47.07
860.55	62.33
860.719	88.03
860.888	84.39
861.056	91.4
861.225	102.26
861.393	126.07
861.562	109.56
861.73	88.96
861.899	59.25
862.067	53.06
862.236	35.98
862.404	24.04
862.572	12.01
862.741	28.35
862.909	23.03
863.078	25.63
863.246	41.25
863.414	51.64
863.582	48.22
863.751	40.65
863.919	37.22
864.087	44.62
864.255	47.13
864.424	36.89
864.592	51.97
864.76	72.65
864.928	82.97
865.096	69.25
865.264	68.48
865.432	85.68
865.6	71.92
865.768	51.58
865.936	32.61
866.104	16
866.272	38.61
866.44	1.78
866.608	-36.1
866.776	15.35
866.944	17.99
867.112	-7.53
867.28	-30.93
867.448	-10.35
867.615	19.94
867.783	6.31
867.951	-16.59
868.119	35.35
868.286	41.91
868.454	51.39
868.622	59.32
868.789	67.34
868.957	94.56
869.125	89.83
869.292	76.15
869.46	94.37
869.627	76.2
869.795	58.36
869.963	61.58
870.13	59.03
870.298	55.92
870.465	33.85
870.632	34.16
870.8	53.8
870.967	55.68
871.135	58.39
871.302	56.47
871.469	62.1
871.637	63.15
871.804	54.69
871.971	58.15
872.139	58.02
872.306	32.31
872.473	2.8
872.64	6.17
872.807	23.72
872.975	17.3
873.142	10.6
873.309	35.28
873.476	153.18
873.643	236.95
873.81	182.86
873.977	57.1
874.144	32.05
874.311	-21.04
874.478	-68.07
874.645	-79.44
874.812	-37.18
874.979	-77.66
875.146	-87.18
875.313	-74.28
875.48	79.71
875.647	85.49
875.813	60.02
875.98	15.37
876.147	84.19
876.314	90.57
876.481	66.01
876.647	48.33
876.814	61.21
876.981	57.19
877.147	56.1
877.314	47.95
877.481	51.95
877.647	62.16
877.814	52.36
877.98	60.96
878.147	57.31
878.314	53.66
878.48	68.95
878.647	74.59
878.813	84.02
878.979	97.46
879.146	70.38
879.312	104.06
879.479	101.51
879.645	66.68
879.811	59.02
879.978	54.47
880.144	51.11
880.31	35.33
880.477	-1.81
880.643	-32.54
880.809	87.03
880.975	66.03
881.142	47.86
881.308	51.78
881.474	87.28
881.64	13.98
881.806	27.18
881.972	28.59
882.138	30.36
882.304	-1.34
882.47	-28.7
882.636	-45.27
882.802	-29.19
882.968	-111.99
883.134	-331.44
883.3	-133.79
883.466	-17.72
883.632	-14.2
883.798	30.75
883.964	34.76
884.129	65.86
884.295	73.67
884.461	84.87
884.627	110.14
884.793	128.71
884.958	83.36
885.124	93.32
885.29	53.51
885.455	34.7
885.621	27.18
885.787	11.25
885.952	-1.65
886.118	14.4
886.283	24.91
886.449	7.37
886.614	30.79
886.78	32.58
886.945	3.31
887.111	5.85
887.276	-21.86
887.442	-21.18
887.607	-28.79
887.773	-47.84
887.938	-58.32
888.103	-0.21
888.269	0.63
888.434	-0.03
888.599	16.85
888.764	36.44
888.93	49.84
889.095	41.54
889.26	48.36
889.425	54.25
889.59	42.8
889.756	28.46
889.921	7.2
890.086	-10.6
890.251	-13.62
890.416	-61.19
890.581	-48.08
890.746	-35.07
890.911	-67.78
891.076	-81.22
891.241	-97.1
891.406	-16.68
891.571	-10.91
891.736	-27.23
891.901	-10.97
892.065	1.06
892.23	-21.93
892.395	-18.41
892.56	-2.2
892.725	-0.66
892.889	-14
893.054	-66.22
893.219	-107.79
893.384	-157.9
893.548	-355
893.713	1015.35
893.878	508.15
