Data from Ofra_2a_PS_2H527_Reflection_2.txt Node
Date: Tue Jul 20 09:47:29 EDT 2021
User: Adam
Spectrometer: FLMT01687
Trigger mode: 0
Integration Time (sec): 9.450000E-1
Scans to average: 3
Electric dark correction enabled: true
Nonlinearity correction enabled: false
Boxcar width: 3
XAxis mode: Wavelengths
Number of Pixels in Spectrum: 3648
>>>>>Begin Spectral Data<<<<<
179.494	849.11
179.716	522.54
179.937	585.71
180.158	2364.06
180.38	-1120.93
180.601	-278.07
180.823	-132.6
181.044	-21.91
181.265	-118.18
181.486	53.74
181.708	34.78
181.929	48.37
182.15	11.36
182.372	5.78
182.593	-48.97
182.814	482.63
183.035	377.69
183.257	182.76
183.478	97.96
183.699	95.78
183.92	75.78
184.141	71.19
184.363	51.47
184.584	29.74
184.805	30.3
185.026	19.54
185.247	22.15
185.468	11.91
185.689	12.13
185.91	26.85
186.132	33.14
186.353	34.72
186.574	44.35
186.795	38.55
187.016	51.15
187.237	54.2
187.458	48.75
187.679	44.76
187.9	55.82
188.121	48.04
188.342	61.53
188.563	47.42
188.784	49.9
189.005	52.89
189.226	57.38
189.447	40.61
189.667	24.17
189.888	38.13
190.109	39.98
190.33	30.15
190.551	25.68
190.772	19.04
190.993	28.97
191.214	39.37
191.434	20.35
191.655	28.42
191.876	31.79
192.097	32.01
192.318	37.66
192.538	42.25
192.759	42.08
192.98	39.17
193.201	55.48
193.421	58.6
193.642	56.35
193.863	57.14
194.083	45.3
194.304	36.36
194.525	49.47
194.745	11.01
194.966	16.41
195.187	19.47
195.407	12.22
195.628	12.38
195.848	11.95
196.069	1.31
196.29	-2.59
196.51	-8.6
196.731	5.38
196.951	13.07
197.172	11.25
197.392	30.58
197.613	19.78
197.833	27.17
198.054	23.5
198.274	-1.54
198.495	13.18
198.715	2.97
198.936	-20.29
199.156	-9.99
199.377	5.16
199.597	-8.51
199.817	21.28
200.038	10.86
200.258	14.7
200.479	7.46
200.699	20.12
200.919	0.36
201.14	10.53
201.36	9.47
201.58	12.86
201.801	6.04
202.021	18.06
202.241	16.4
202.461	34.77
202.682	38.33
202.902	35.08
203.122	30.35
203.342	50.27
203.563	50.89
203.783	42.08
204.003	33.55
204.223	32.43
204.443	20.37
204.663	18.06
204.884	3.32
205.104	-3.9
205.324	11.43
205.544	19.95
205.764	4.89
205.984	27.69
206.204	46.97
206.424	44.07
206.644	43.92
206.864	38.99
207.084	38.4
207.304	47.5
207.525	41.4
207.745	53.12
207.964	54.94
208.184	41.56
208.404	25.48
208.624	14.99
208.844	3.7
209.064	3.51
209.284	-7.74
209.504	-13.67
209.724	-22.5
209.944	-4.67
210.164	18.46
210.384	28.58
210.604	45.91
210.823	41.15
211.043	47.71
211.263	50.16
211.483	34.39
211.703	33.85
211.922	40.59
212.142	44.84
212.362	32.28
212.582	30.06
212.801	26.75
213.021	33.93
213.241	26.79
213.461	19.09
213.68	20.13
213.9	39.66
214.12	36.08
214.339	40.26
214.559	48.07
214.779	53.18
214.998	51.15
215.218	45.91
215.438	47.2
215.657	47.72
215.877	49.88
216.096	36.27
216.316	25.59
216.535	27.81
216.755	10.16
216.974	-4.18
217.194	-3.78
217.413	3.43
217.633	7.49
217.852	7.65
218.072	-0.66
218.291	37.4
218.511	45.25
218.73	48.24
218.95	56.31
219.169	62.6
219.389	50.51
219.608	58.45
219.827	45.63
220.047	43
220.266	47.55
220.485	34.16
220.705	30.49
220.924	41.69
221.143	23.02
221.363	30.2
221.582	26.01
221.801	24.92
222.021	18.45
222.24	26.04
222.459	17.78
222.678	23.08
222.897	4.35
223.117	14.81
223.336	17.78
223.555	18.97
223.774	12.38
223.993	32.2
224.213	33.28
224.432	47
224.651	39.37
224.87	35.82
225.089	46.82
225.308	38.89
225.527	33.35
225.746	37.35
225.965	31.83
226.184	33.27
226.404	31.86
226.623	41.6
226.842	49.86
227.061	45.91
227.28	52.16
227.499	53.74
227.718	47.74
227.936	40.36
228.155	33.59
228.374	44.58
228.593	48.45
228.812	39.52
229.031	32.46
229.25	43.54
229.469	55.38
229.688	58.8
229.907	46.37
230.125	41.55
230.344	50.85
230.563	62.16
230.782	51.89
231.001	47.3
231.22	40.88
231.438	43.44
231.657	46.56
231.876	36.11
232.095	34.2
232.313	44.81
232.532	37.44
232.751	43.46
232.969	49.07
233.188	44.91
233.407	51.52
233.625	52.49
233.844	44.82
234.063	46.49
234.281	38.29
234.5	29.99
234.719	26.19
234.937	22.96
235.156	8.64
235.374	-1.21
235.593	3.23
235.811	1.41
236.03	-12.48
236.249	-13.38
236.467	-7.53
236.686	9.47
236.904	9.74
237.123	11.02
237.341	13.07
237.559	15.39
237.778	30.95
237.996	26.03
238.215	12.53
238.433	22.78
238.652	23.44
238.87	21.87
239.088	22.64
239.307	20.43
239.525	17.46
239.743	18.12
239.962	15.59
240.18	21.18
240.398	23.4
240.617	27.2
240.835	23.62
241.053	31.89
241.271	40.2
241.49	35.83
241.708	26.54
241.926	20.07
242.144	19.95
242.363	13.23
242.581	12.95
242.799	6.83
243.017	11.23
243.235	18.94
243.453	26.93
243.672	25.1
243.89	39.87
244.108	47.09
244.326	43.52
244.544	47.18
244.762	39.33
244.98	37.26
245.198	22.57
245.416	12.83
245.634	19.89
245.852	20.99
246.07	18.22
246.288	11.73
246.506	13.81
246.724	43.2
246.942	48.39
247.16	31.96
247.378	27.52
247.596	38.49
247.814	40.28
248.032	36.33
248.25	27.75
248.468	27.14
248.685	21.9
248.903	25.71
249.121	7.53
249.339	6.08
249.557	13.4
249.775	-5.63
249.992	-4.49
250.21	-12.38
250.428	-13.01
250.646	-8.33
250.863	-7.58
251.081	-6.95
251.299	19.95
251.517	24.35
251.734	44.6
251.952	56.82
252.17	52.64
252.387	59.86
252.605	52.59
252.823	49.73
253.04	31.95
253.258	27.55
253.475	18.37
253.693	30.82
253.911	21.5
254.128	23.03
254.346	26.82
254.563	22.99
254.781	19.33
254.998	18.37
255.216	14.91
255.433	15.31
255.651	10.08
255.868	1.57
256.086	10.05
256.303	16.24
256.521	11.82
256.738	13.71
256.956	4.98
257.173	19.23
257.39	25.81
257.608	29.6
257.825	25.48
258.043	27.59
258.26	27.76
258.477	31.28
258.695	25.08
258.912	29.64
259.129	14.91
259.346	18.83
259.564	18.13
259.781	20.03
259.998	26.02
260.216	35.51
260.433	29.45
260.65	37.13
260.867	32.31
261.084	37.11
261.302	29.08
261.519	26.94
261.736	11.29
261.953	11.9
262.17	18.88
262.387	24.5
262.604	14.87
262.822	29.33
263.039	26.65
263.256	27.56
263.473	19.59
263.69	16.75
263.907	26.94
264.124	24.45
264.341	20.15
264.558	24.93
264.775	28.1
264.992	32.69
265.209	36.17
265.426	24.75
265.643	29.26
265.86	28.43
266.077	19.72
266.294	17.83
266.51	20.73
266.727	10.9
266.944	8.5
267.161	4.09
267.378	4.91
267.595	7.38
267.812	2.21
268.028	1.84
268.245	10.48
268.462	26.27
268.679	24
268.896	9.42
269.112	23.15
269.329	27.64
269.546	25.08
269.763	25.77
269.979	12.18
270.196	19.05
270.413	32.11
270.629	26.84
270.846	29.4
271.063	35.11
271.279	29.84
271.496	21.71
271.712	10.9
271.929	9.67
272.146	10.17
272.362	-8.45
272.579	-15.93
272.795	-0.82
273.012	6.94
273.228	17.47
273.445	17.72
273.661	15.34
273.878	26.12
274.094	27.19
274.311	24.91
274.527	29.98
274.744	31.84
274.96	35.25
275.177	46.9
275.393	47.93
275.609	51.6
275.826	43.39
276.042	55.44
276.259	52.45
276.475	42.46
276.691	32.39
276.908	29.34
277.124	30.29
277.34	23.7
277.557	22.67
277.773	22.31
277.989	26.15
278.205	20.71
278.422	24.08
278.638	30.05
278.854	36.6
279.07	28.94
279.286	26.22
279.503	28.3
279.719	45.3
279.935	41.61
280.151	37.53
280.367	31.21
280.583	36.09
280.799	34.11
281.016	35.14
281.232	24.51
281.448	28.94
281.664	35.74
281.88	47.06
282.096	42.09
282.312	47.04
282.528	41.64
282.744	39.54
282.96	37.65
283.176	28.19
283.392	20.97
283.608	24.83
283.824	29.76
284.04	37.6
284.256	36.43
284.471	33.34
284.687	32.9
284.903	34.37
285.119	21.87
285.335	12.51
285.551	9.51
285.767	7.01
285.982	12.7
286.198	9.02
286.414	19.24
286.63	26.93
286.846	31.81
287.061	41.8
287.277	56.24
287.493	54.86
287.709	54.15
287.924	54.01
288.14	51.92
288.356	57.16
288.571	42.04
288.787	32.63
289.003	30.81
289.218	26.43
289.434	17.18
289.65	24.19
289.865	31.13
290.081	38.14
290.296	27.83
290.512	28.59
290.727	43.11
290.943	39.96
291.159	26.51
291.374	16.83
291.59	4.84
291.805	7.03
292.021	-5.76
292.236	-17.7
292.451	-1.94
292.667	4.71
292.882	4.61
293.098	4.65
293.313	8.94
293.529	18.87
293.744	26.46
293.959	17.68
294.175	19.11
294.39	32.27
294.605	37.29
294.821	34.24
295.036	36.91
295.251	31.15
295.467	21.59
295.682	19.74
295.897	12.2
296.112	7.07
296.328	6.48
296.543	-1.79
296.758	1.71
296.973	8.71
297.188	17.4
297.404	23.01
297.619	15.39
297.834	32.2
298.049	27.1
298.264	22.77
298.479	18.44
298.694	22.76
298.909	9.56
299.125	15.16
299.34	6.58
299.555	15.1
299.77	14.55
299.985	16.37
300.2	10.01
300.415	21.84
300.63	18.01
300.845	17.57
301.06	21.73
301.275	32.84
301.49	38.41
301.704	39.85
301.919	30.58
302.134	29.57
302.349	24.48
302.564	14.19
302.779	3.68
302.994	-2.21
303.209	-14.69
303.423	-12.69
303.638	0.4
303.853	11.36
304.068	16.33
304.283	12.96
304.497	15.09
304.712	25.07
304.927	23.6
305.142	28.65
305.356	21.44
305.571	24.66
305.786	23.75
306	23
306.215	19.88
306.43	25.58
306.644	20.81
306.859	25.51
307.074	20.61
307.288	21.26
307.503	22.07
307.717	22.53
307.932	24.67
308.147	19.55
308.361	23.78
308.576	24.85
308.79	25.63
309.005	23.83
309.219	19.33
309.434	13.73
309.648	5.66
309.863	5.43
310.077	10.24
310.292	8.79
310.506	15.89
310.72	24.06
310.935	32.66
311.149	38.24
311.364	41.6
311.578	37.98
311.792	38.33
312.007	29.15
312.221	30.75
312.435	25.94
312.649	37.52
312.864	25.31
313.078	22.18
313.292	25.61
313.507	34.73
313.721	35.66
313.935	52.57
314.149	38.12
314.363	41.77
314.578	67.73
314.792	72.89
315.006	75.91
315.22	78.01
315.434	62.62
315.648	59.76
315.862	55.54
316.077	30.84
316.291	29.23
316.505	23.43
316.719	-1.5
316.933	11.76
317.147	11.76
317.361	13.27
317.575	24.4
317.789	20.06
318.003	20.91
318.217	25.04
318.431	20.88
318.645	29.74
318.859	18.33
319.073	9.96
319.287	14.39
319.5	14.04
319.714	13.97
319.928	20.34
320.142	21.01
320.356	32.91
320.57	34.02
320.784	29.43
320.997	31
321.211	40.41
321.425	23.1
321.639	20.34
321.853	14.18
322.066	14.98
322.28	22.73
322.494	20.25
322.707	15.25
322.921	25.09
323.135	32.46
323.349	43.1
323.562	44.71
323.776	39.77
323.989	42.36
324.203	44.27
324.417	38.55
324.63	25.78
324.844	7.12
325.057	9.75
325.271	0.98
325.485	11.05
325.698	11.3
325.912	26.53
326.125	35.07
326.339	43.75
326.552	41.08
326.766	51.63
326.979	45.7
327.193	52.53
327.406	48.27
327.619	34.43
327.833	40.25
328.046	34.33
328.26	26.56
328.473	28.59
328.686	19.55
328.9	11.3
329.113	19.96
329.326	23.67
329.54	23.66
329.753	23.82
329.966	24.37
330.179	23.83
330.393	32.54
330.606	32.58
330.819	34.3
331.032	39.58
331.246	40.22
331.459	40.1
331.672	47.9
331.885	39.55
332.098	45.17
332.311	36.32
332.525	28.63
332.738	24.48
332.951	26.84
333.164	18.62
333.377	13.05
333.59	13.94
333.803	9.5
334.016	4.08
334.229	8.44
334.442	16.16
334.655	29.06
334.868	41.77
335.081	42.64
335.294	45.18
335.507	51.01
335.72	40
335.933	36.7
336.146	35.75
336.359	31.69
336.572	19.97
336.785	23.1
336.997	17.11
337.21	32.05
337.423	27.26
337.636	18.31
337.849	12.34
338.062	16.67
338.274	16.13
338.487	13.82
338.7	11.01
338.913	7.58
339.125	10.34
339.338	17.86
339.551	23.51
339.763	20.67
339.976	20.15
340.189	21.05
340.402	19.12
340.614	20.02
340.827	14.16
341.039	19.42
341.252	15.61
341.465	11.49
341.677	5.72
341.89	13.18
342.102	16.46
342.315	25.06
342.527	16.44
342.74	30.94
342.952	37.91
343.165	46.86
343.377	44.6
343.59	47.48
343.802	47.28
344.015	39.91
344.227	32.86
344.44	26.57
344.652	20.95
344.864	19.41
345.077	4.17
345.289	-9.44
345.502	-8.95
345.714	-16.24
345.926	-12
346.139	-14.94
346.351	-27.03
346.563	-15.84
346.775	-6.86
346.988	4.18
347.2	11.21
347.412	12.82
347.624	21.05
347.837	23.7
348.049	22.29
348.261	21.31
348.473	15.81
348.685	19.68
348.897	15.3
349.11	15.6
349.322	15.55
349.534	8.66
349.746	17.45
349.958	19.49
350.17	23.53
350.382	13.26
350.594	13.48
350.806	20.42
351.018	26.86
351.23	24.83
351.442	27.4
351.654	26.36
351.866	38.94
352.078	39.22
352.29	43.36
352.502	44.84
352.714	46.66
352.926	46.48
353.138	50.09
353.35	39.59
353.561	28.27
353.773	25.52
353.985	27.03
354.197	12.83
354.409	14.13
354.621	12.89
354.832	15.63
355.044	30.65
355.256	22.54
355.468	16.83
355.679	27.28
355.891	26.96
356.103	20.22
356.314	25.11
356.526	21.81
356.738	17.2
356.949	13.44
357.161	15.16
357.373	12.68
357.584	25.5
357.796	23.71
358.008	25.12
358.219	38.48
358.431	49.3
358.642	49.85
358.854	46.72
359.065	41.74
359.277	38.09
359.488	32.53
359.7	26.69
359.911	19.97
360.123	21.87
360.334	22.1
360.546	12.42
360.757	12.7
360.969	23.61
361.18	19.22
361.391	23.26
361.603	19.57
361.814	19.85
362.025	26.28
362.237	31.35
362.448	26.96
362.659	21.98
362.871	18.21
363.082	23.58
363.293	26.96
363.504	24.49
363.716	21.56
363.927	23.18
364.138	24.34
364.349	26.52
364.56	20.87
364.772	15.24
364.983	13.61
365.194	15.31
365.405	7.33
365.616	8.42
365.827	11.72
366.038	20.74
366.25	27.1
366.461	29.82
366.672	31.82
366.883	34.46
367.094	33.04
367.305	30.97
367.516	26.72
367.727	21.41
367.938	23.97
368.149	18.34
368.36	15.84
368.571	18.78
368.781	17.71
368.992	13.79
369.203	9.94
369.414	5.74
369.625	3.19
369.836	6.92
370.047	9.93
370.258	2.64
370.468	9.01
370.679	3.45
370.89	10.33
371.101	11.85
371.312	6.71
371.522	9.31
371.733	10.32
371.944	9.12
372.155	10.51
372.365	4.41
372.576	5.02
372.787	4.81
372.997	0.29
373.208	6.66
373.419	0.94
373.629	11.18
373.84	5.87
374.05	14.66
374.261	10.25
374.472	7.56
374.682	2.55
374.893	5.77
375.103	8.53
375.314	14.67
375.524	12.63
375.735	16.07
375.945	18.85
376.156	23.96
376.366	24.22
376.577	24.18
376.787	25.38
376.997	25.74
377.208	23.01
377.418	21.31
377.629	19.57
377.839	22.45
378.049	25.01
378.26	21.25
378.47	18.41
378.68	20.03
378.89	14.09
379.101	7.33
379.311	-0.37
379.521	-1.52
379.732	-8.14
379.942	-10.6
380.152	-3.79
380.362	8.7
380.572	13.85
380.783	19.7
380.993	20.78
381.203	28.49
381.413	31.16
381.623	26.97
381.833	17.91
382.043	17.99
382.253	18.9
382.463	21.24
382.674	19.17
382.884	14.07
383.094	17.71
383.304	22.03
383.514	22.04
383.724	17.07
383.934	13.55
384.144	14.06
384.353	18.26
384.563	15.3
384.773	18.44
384.983	21.03
385.193	25.46
385.403	27.58
385.613	26.31
385.823	23.38
386.033	23.21
386.242	19.77
386.452	13.39
386.662	11.88
386.872	9.71
387.082	10.47
387.291	12.41
387.501	10.69
387.711	11.66
387.921	12.49
388.13	12.1
388.34	9.98
388.55	11.87
388.759	11.74
388.969	11.44
389.179	12.43
389.388	13.51
389.598	9.97
389.807	9.53
390.017	9.01
390.227	7.47
390.436	7.4
390.646	5.72
390.855	4.15
391.065	4.71
391.274	4.91
391.484	3.54
391.693	4.02
391.903	3.52
392.112	3.6
392.322	4.87
392.531	5.17
392.74	3.53
392.95	5.28
393.159	5.33
393.369	6.17
393.578	5.7
393.787	4.97
393.997	5.7
394.206	6.47
394.415	5.99
394.625	5.17
394.834	4.28
395.043	3.79
395.252	4.06
395.462	4.16
395.671	4.65
395.88	3.66
396.089	3.97
396.298	4.16
396.508	4.39
396.717	3.74
396.926	3.18
397.135	2.69
397.344	2.95
397.553	3.26
397.762	3.25
397.971	3.49
398.181	3.34
398.39	3.57
398.599	3.91
398.808	3.9
399.017	3.97
399.226	3.87
399.435	3.72
399.644	3.98
399.853	3.84
400.062	3.47
400.27	3.53
400.479	3.26
400.688	3.49
400.897	3.59
401.106	3.58
401.315	3.36
401.524	3.63
401.733	3.77
401.941	3.71
402.15	3.5
402.359	3.51
402.568	3.57
402.777	3.7
402.985	3.44
403.194	3.19
403.403	3.05
403.612	3.01
403.82	3.04
404.029	3.01
404.238	3.05
404.446	3.12
404.655	2.99
404.864	3.05
405.072	3.13
405.281	2.92
405.489	2.99
405.698	2.82
405.906	2.8
406.115	2.99
406.324	2.94
406.532	2.87
406.741	2.97
406.949	2.82
407.158	2.89
407.366	2.98
407.574	2.93
407.783	2.94
407.991	2.91
408.2	2.8
408.408	2.86
408.617	2.87
408.825	2.8
409.033	2.66
409.242	2.65
409.45	2.62
409.658	2.65
409.867	2.61
410.075	2.6
410.283	2.56
410.491	2.57
410.7	2.61
410.908	2.65
411.116	2.56
411.324	2.61
411.533	2.51
411.741	2.55
411.949	2.64
412.157	2.59
412.365	2.55
412.573	2.66
412.781	2.56
412.99	2.71
413.198	2.74
413.406	2.67
413.614	2.68
413.822	2.65
414.03	2.5
414.238	2.55
414.446	2.4
414.654	2.37
414.862	2.33
415.07	2.41
415.278	2.37
415.486	2.54
415.694	2.46
415.902	2.44
416.109	2.42
416.317	2.4
416.525	2.4
416.733	2.59
416.941	2.52
417.149	2.65
417.357	2.7
417.564	2.64
417.772	2.74
417.98	2.63
418.188	2.44
418.395	2.39
418.603	2.26
418.811	2.16
419.019	2.14
419.226	2.16
419.434	2.04
419.642	2.13
419.849	2.21
420.057	2.23
420.265	2.3
420.472	2.3
420.68	2.19
420.887	2.28
421.095	2.25
421.302	2.33
421.51	2.43
421.717	2.48
421.925	2.44
422.132	2.45
422.34	2.47
422.547	2.41
422.755	2.23
422.962	2.08
423.17	1.99
423.377	2.11
423.585	2.16
423.792	2.14
423.999	2.16
424.207	2.17
424.414	2.34
424.621	2.45
424.829	2.34
425.036	2.24
425.243	2.31
425.451	2.38
425.658	2.58
425.865	2.41
426.072	2.41
426.28	2.45
426.487	2.49
426.694	2.39
426.901	2.33
427.108	2.2
427.315	2.25
427.523	2.23
427.73	2.32
427.937	2.35
428.144	2.42
428.351	2.46
428.558	2.49
428.765	2.45
428.972	2.44
429.179	2.31
429.386	2.35
429.593	2.31
429.8	2.4
430.007	2.44
430.214	2.45
430.421	2.41
430.628	2.37
430.835	2.4
431.042	2.51
431.249	2.43
431.456	2.44
431.662	2.47
431.869	2.57
432.076	2.64
432.283	2.59
432.49	2.48
432.697	2.51
432.903	2.49
433.11	2.51
433.317	2.51
433.524	2.47
433.73	2.52
433.937	2.6
434.144	2.69
434.35	2.73
434.557	2.7
434.764	2.7
434.97	2.89
435.177	2.83
435.384	2.87
435.59	2.81
435.797	2.79
436.003	2.79
436.21	2.73
436.416	2.62
436.623	2.7
436.829	2.66
437.036	2.64
437.242	2.67
437.449	2.76
437.655	2.8
437.862	2.82
438.068	2.84
438.275	2.83
438.481	2.91
438.687	2.97
438.894	2.93
439.1	2.98
439.307	3.02
439.513	2.96
439.719	3.02
439.926	2.99
440.132	3
440.338	3.05
440.544	3.01
440.751	3.02
440.957	3.03
441.163	3.06
441.369	3.05
441.575	2.99
441.782	2.96
441.988	2.98
442.194	3.04
442.4	3.08
442.606	3.08
442.812	3.12
443.018	3.21
443.224	3.18
443.431	3.22
443.637	3.12
443.843	3.14
444.049	3.1
444.255	3.04
444.461	3.01
444.667	3.03
444.873	3
445.079	3.1
445.284	3.11
445.49	3.14
445.696	3.22
445.902	3.29
446.108	3.36
446.314	3.42
446.52	3.4
446.726	3.44
446.931	3.46
447.137	3.47
447.343	3.46
447.549	3.38
447.755	3.31
447.96	3.31
448.166	3.32
448.372	3.32
448.578	3.35
448.783	3.33
448.989	3.41
449.195	3.48
449.4	3.51
449.606	3.52
449.812	3.52
450.017	3.49
450.223	3.47
450.428	3.49
450.634	3.52
450.84	3.51
451.045	3.48
451.251	3.55
451.456	3.54
451.662	3.59
451.867	3.59
452.073	3.57
452.278	3.56
452.483	3.6
452.689	3.48
452.894	3.48
453.1	3.44
453.305	3.45
453.51	3.43
453.716	3.5
453.921	3.48
454.127	3.56
454.332	3.56
454.537	3.63
454.742	3.62
454.948	3.63
455.153	3.61
455.358	3.7
455.563	3.74
455.769	3.76
455.974	3.69
456.179	3.69
456.384	3.73
456.589	3.76
456.795	3.65
457	3.63
457.205	3.62
457.41	3.63
457.615	3.73
457.82	3.74
458.025	3.7
458.23	3.79
458.435	3.74
458.64	3.84
458.845	3.83
459.05	3.76
459.255	3.71
459.46	3.69
459.665	3.7
459.87	3.72
460.075	3.62
460.28	3.7
460.485	3.75
460.69	3.7
460.895	3.78
461.099	3.77
461.304	3.83
461.509	3.81
461.714	3.8
461.919	3.78
462.123	3.87
462.328	3.83
462.533	3.86
462.738	3.88
462.942	3.98
463.147	4.01
463.352	4.07
463.556	4.11
463.761	4.13
463.966	4.13
464.17	4.11
464.375	4.1
464.58	4.07
464.784	4.02
464.989	3.98
465.193	4
465.398	4.09
465.602	4.13
465.807	4.18
466.011	4.23
466.216	4.3
466.42	4.36
466.625	4.38
466.829	4.38
467.034	4.39
467.238	4.41
467.443	4.43
467.647	4.39
467.851	4.35
468.056	4.36
468.26	4.29
468.464	4.31
468.669	4.29
468.873	4.28
469.077	4.34
469.282	4.42
469.486	4.45
469.69	4.52
469.894	4.53
470.099	4.58
470.303	4.58
470.507	4.55
470.711	4.57
470.915	4.63
471.119	4.68
471.324	4.66
471.528	4.7
471.732	4.7
471.936	4.76
472.14	4.74
472.344	4.72
472.548	4.7
472.752	4.78
472.956	4.82
473.16	4.87
473.364	4.87
473.568	4.92
473.772	4.94
473.976	4.98
474.18	4.97
474.384	4.95
474.588	5.02
474.792	5.01
474.995	5
475.199	5.02
475.403	5.03
475.607	5.05
475.811	5.06
476.015	5.05
476.218	5.1
476.422	5.12
476.626	5.15
476.83	5.17
477.033	5.18
477.237	5.21
477.441	5.25
477.644	5.29
477.848	5.33
478.052	5.33
478.255	5.37
478.459	5.44
478.663	5.46
478.866	5.41
479.07	5.44
479.273	5.44
479.477	5.51
479.681	5.5
479.884	5.41
480.088	5.43
480.291	5.53
480.495	5.56
480.698	5.6
480.901	5.57
481.105	5.58
481.308	5.61
481.512	5.62
481.715	5.59
481.919	5.56
482.122	5.53
482.325	5.58
482.529	5.62
482.732	5.69
482.935	5.71
483.138	5.75
483.342	5.8
483.545	5.86
483.748	5.87
483.952	5.86
484.155	5.87
484.358	5.87
484.561	5.9
484.764	5.9
484.967	5.91
485.171	5.89
485.374	5.91
485.577	5.97
485.78	6.03
485.983	6.02
486.186	6
486.389	5.99
486.592	6.01
486.795	5.99
486.998	5.96
487.201	5.92
487.404	5.98
487.607	6.03
487.81	6.09
488.013	6.07
488.216	6.11
488.419	6.11
488.622	6.11
488.825	6.04
489.028	6.03
489.231	6
489.433	6.05
489.636	6.03
489.839	6.04
490.042	6.05
490.245	6.06
490.447	6.05
490.65	6.05
490.853	6.06
491.056	6.03
491.258	6.07
491.461	6.05
491.664	6.07
491.866	6.14
492.069	6.17
492.272	6.13
492.474	6.15
492.677	6.12
492.879	6.14
493.082	6.18
493.285	6.16
493.487	6.13
493.69	6.12
493.892	6.15
494.095	6.14
494.297	6.2
494.5	6.16
494.702	6.17
494.905	6.22
495.107	6.28
495.309	6.25
495.512	6.29
495.714	6.3
495.917	6.33
496.119	6.34
496.321	6.36
496.524	6.33
496.726	6.35
496.928	6.37
497.13	6.4
497.333	6.43
497.535	6.41
497.737	6.39
497.939	6.43
498.142	6.45
498.344	6.43
498.546	6.44
498.748	6.41
498.95	6.39
499.152	6.41
499.355	6.41
499.557	6.44
499.759	6.52
499.961	6.48
500.163	6.55
500.365	6.61
500.567	6.62
500.769	6.67
500.971	6.66
501.173	6.64
501.375	6.67
501.577	6.69
501.779	6.69
501.981	6.72
502.183	6.7
502.385	6.71
502.587	6.75
502.788	6.74
502.99	6.72
503.192	6.74
503.394	6.79
503.596	6.85
503.798	6.9
503.999	6.88
504.201	6.92
504.403	6.96
504.605	7
504.806	7.01
505.008	6.98
505.21	6.98
505.411	7.04
505.613	7.05
505.815	7.08
506.016	7.12
506.218	7.09
506.42	7.14
506.621	7.18
506.823	7.17
507.024	7.2
507.226	7.2
507.427	7.17
507.629	7.22
507.83	7.21
508.032	7.28
508.233	7.32
508.435	7.35
508.636	7.38
508.838	7.44
509.039	7.47
509.24	7.51
509.442	7.46
509.643	7.45
509.845	7.45
510.046	7.47
510.247	7.47
510.448	7.51
510.65	7.52
510.851	7.55
511.052	7.57
511.254	7.59
511.455	7.57
511.656	7.6
511.857	7.6
512.058	7.64
512.26	7.65
512.461	7.67
512.662	7.68
512.863	7.71
513.064	7.69
513.265	7.73
513.466	7.76
513.667	7.8
513.868	7.79
514.069	7.81
514.27	7.84
514.471	7.9
514.672	7.9
514.873	7.9
515.074	7.91
515.275	7.92
515.476	7.94
515.677	7.96
515.878	7.95
516.079	7.94
516.28	7.92
516.481	7.93
516.682	8
516.882	8.02
517.083	8
517.284	7.99
517.485	8.05
517.686	8.06
517.886	8.06
518.087	8.06
518.288	8.07
518.488	8.12
518.689	8.15
518.89	8.16
519.091	8.16
519.291	8.22
519.492	8.23
519.692	8.27
519.893	8.24
520.094	8.25
520.294	8.22
520.495	8.25
520.695	8.24
520.896	8.24
521.096	8.22
521.297	8.27
521.497	8.33
521.698	8.39
521.898	8.42
522.099	8.43
522.299	8.45
522.499	8.47
522.7	8.5
522.9	8.47
523.101	8.48
523.301	8.46
523.501	8.51
523.702	8.49
523.902	8.49
524.102	8.49
524.302	8.5
524.503	8.51
524.703	8.56
524.903	8.56
525.103	8.61
525.304	8.62
525.504	8.62
525.704	8.61
525.904	8.61
526.104	8.62
526.304	8.61
526.504	8.6
526.705	8.66
526.905	8.7
527.105	8.75
527.305	8.76
527.505	8.74
527.705	8.75
527.905	8.74
528.105	8.71
528.305	8.72
528.505	8.71
528.705	8.72
528.905	8.71
529.105	8.74
529.304	8.79
529.504	8.82
529.704	8.82
529.904	8.85
530.104	8.85
530.304	8.89
530.503	8.9
530.703	8.91
530.903	8.91
531.103	8.92
531.303	8.96
531.502	8.98
531.702	8.99
531.902	9.01
532.101	9.01
532.301	9.02
532.501	9.04
532.7	9.02
532.9	9.06
533.1	9.07
533.299	9.1
533.499	9.12
533.698	9.15
533.898	9.14
534.097	9.17
534.297	9.18
534.496	9.18
534.696	9.18
534.895	9.23
535.095	9.24
535.294	9.25
535.494	9.26
535.693	9.27
535.892	9.29
536.092	9.3
536.291	9.32
536.491	9.35
536.69	9.36
536.889	9.34
537.088	9.35
537.288	9.42
537.487	9.43
537.686	9.44
537.886	9.46
538.085	9.53
538.284	9.56
538.483	9.61
538.682	9.59
538.882	9.61
539.081	9.61
539.28	9.59
539.479	9.61
539.678	9.67
539.877	9.68
540.076	9.71
540.275	9.71
540.474	9.71
540.673	9.79
540.872	9.8
541.071	9.85
541.27	9.85
541.469	9.91
541.668	9.99
541.867	10.07
542.066	10.09
542.265	10.11
542.464	10.15
542.663	10.23
542.862	10.23
543.06	10.26
543.259	10.27
543.458	10.33
543.657	10.39
543.856	10.38
544.054	10.4
544.253	10.44
544.452	10.42
544.651	10.47
544.849	10.46
545.048	10.46
545.247	10.49
545.445	10.49
545.644	10.51
545.843	10.56
546.041	10.6
546.24	10.68
546.438	10.76
546.637	10.83
546.836	10.9
547.034	10.95
547.233	11.03
547.431	11.06
547.63	11.09
547.828	11.1
548.027	11.1
548.225	11.18
548.423	11.22
548.622	11.22
548.82	11.33
549.019	11.36
549.217	11.47
549.415	11.56
549.614	11.53
549.812	11.57
550.01	11.67
550.209	11.71
550.407	11.75
550.605	11.79
550.803	11.84
551.002	11.93
551.2	12.07
551.398	12.08
551.596	12.17
551.794	12.27
551.993	12.29
552.191	12.39
552.389	12.42
552.587	12.43
552.785	12.52
552.983	12.58
553.181	12.62
553.379	12.73
553.577	12.8
553.775	12.88
553.973	12.99
554.171	13.07
554.369	13.09
554.567	13.17
554.765	13.2
554.963	13.25
555.161	13.38
555.359	13.43
555.557	13.52
555.755	13.62
555.952	13.71
556.15	13.81
556.348	13.9
556.546	13.93
556.744	14
556.941	14.07
557.139	14.18
557.337	14.23
557.535	14.31
557.732	14.39
557.93	14.49
558.128	14.58
558.325	14.68
558.523	14.72
558.721	14.82
558.918	14.92
559.116	14.99
559.313	15.09
559.511	15.18
559.708	15.24
559.906	15.34
560.104	15.45
560.301	15.55
560.498	15.65
560.696	15.72
560.893	15.8
561.091	15.94
561.288	16.06
561.486	16.12
561.683	16.15
561.88	16.24
562.078	16.34
562.275	16.45
562.473	16.54
562.67	16.62
562.867	16.74
563.064	16.88
563.262	17.01
563.459	17.07
563.656	17.16
563.853	17.22
564.051	17.31
564.248	17.43
564.445	17.49
564.642	17.59
564.839	17.73
565.036	17.85
565.234	17.97
565.431	18.08
565.628	18.14
565.825	18.25
566.022	18.31
566.219	18.39
566.416	18.46
566.613	18.56
566.81	18.64
567.007	18.72
567.204	18.78
567.401	18.85
567.598	18.93
567.795	19.01
567.991	19.07
568.188	19.16
568.385	19.27
568.582	19.38
568.779	19.48
568.976	19.54
569.172	19.64
569.369	19.72
569.566	19.74
569.763	19.8
569.96	19.86
570.156	19.92
570.353	20
570.55	20.05
570.746	20.1
570.943	20.21
571.14	20.25
571.336	20.32
571.533	20.38
571.729	20.43
571.926	20.46
572.123	20.49
572.319	20.56
572.516	20.61
572.712	20.67
572.909	20.72
573.105	20.76
573.302	20.78
573.498	20.86
573.695	20.88
573.891	20.96
574.087	20.97
574.284	20.97
574.48	20.97
574.677	21.04
574.873	21.11
575.069	21.2
575.266	21.16
575.462	21.22
575.658	21.28
575.854	21.3
576.051	21.35
576.247	21.34
576.443	21.34
576.639	21.37
576.835	21.4
577.032	21.45
577.228	21.51
577.424	21.54
577.62	21.56
577.816	21.55
578.012	21.58
578.208	21.58
578.404	21.57
578.6	21.58
578.796	21.57
578.993	21.52
579.189	21.51
579.384	21.48
579.58	21.51
579.776	21.48
579.972	21.45
580.168	21.45
580.364	21.48
580.56	21.49
580.756	21.53
580.952	21.47
581.148	21.49
581.343	21.5
581.539	21.54
581.735	21.54
581.931	21.53
582.127	21.54
582.322	21.56
582.518	21.51
582.714	21.5
582.909	21.46
583.105	21.43
583.301	21.39
583.496	21.37
583.692	21.38
583.888	21.41
584.083	21.48
584.279	21.5
584.474	21.53
584.67	21.56
584.866	21.57
585.061	21.59
585.257	21.64
585.452	21.58
585.648	21.58
585.843	21.63
586.039	21.64
586.234	21.57
586.429	21.52
586.625	21.43
586.82	21.45
587.015	21.42
587.211	21.44
587.406	21.47
587.601	21.54
587.797	21.57
587.992	21.62
588.187	21.67
588.383	21.7
588.578	21.66
588.773	21.63
588.968	21.68
589.163	21.77
589.359	21.79
589.554	21.81
589.749	21.86
589.944	21.95
590.139	22.05
590.334	22.04
590.529	22.11
590.724	22.16
590.919	22.2
591.114	22.25
591.309	22.25
591.504	22.3
591.699	22.3
591.894	22.25
592.089	22.29
592.284	22.31
592.479	22.29
592.674	22.37
592.869	22.36
593.064	22.48
593.259	22.52
593.454	22.53
593.648	22.61
593.843	22.74
594.038	22.76
594.233	22.83
594.428	22.9
594.622	23.01
594.817	23.08
595.012	23.08
595.206	23.11
595.401	23.12
595.596	23.19
595.79	23.24
595.985	23.31
596.18	23.44
596.374	23.55
596.569	23.6
596.763	23.76
596.958	23.82
597.153	23.92
597.347	23.95
597.542	24.01
597.736	24.06
597.931	24.12
598.125	24.15
598.319	24.21
598.514	24.27
598.708	24.35
598.903	24.41
599.097	24.51
599.291	24.59
599.486	24.67
599.68	24.68
599.874	24.74
600.069	24.81
600.263	24.81
600.457	24.83
600.651	24.89
600.846	24.86
601.04	24.89
601.234	24.92
601.428	24.92
601.622	24.95
601.817	24.98
602.011	25.03
602.205	25.1
602.399	25.18
602.593	25.2
602.787	25.23
602.981	25.29
603.175	25.24
603.369	25.2
603.563	25.26
603.757	25.22
603.951	25.26
604.145	25.21
604.339	25.21
604.533	25.23
604.727	25.26
604.921	25.25
605.115	25.29
605.309	25.27
605.502	25.3
605.696	25.21
605.89	25.24
606.084	25.16
606.278	25.09
606.471	25
606.665	24.98
606.859	24.93
607.053	24.94
607.246	24.91
607.44	24.9
607.634	24.89
607.827	24.87
608.021	24.77
608.214	24.74
608.408	24.67
608.602	24.6
608.795	24.55
608.989	24.55
609.182	24.57
609.376	24.52
609.569	24.45
609.763	24.48
609.956	24.37
610.15	24.34
610.343	24.2
610.537	24.11
610.73	24.14
610.923	24.09
611.117	23.96
611.31	23.94
611.504	23.92
611.697	23.9
611.89	23.79
612.083	23.61
612.277	23.52
612.47	23.43
612.663	23.36
612.856	23.21
613.05	23.12
613.243	23.06
613.436	22.99
613.629	22.95
613.822	22.9
614.015	22.81
614.209	22.83
614.402	22.77
614.595	22.7
614.788	22.61
614.981	22.54
615.174	22.52
615.367	22.45
615.56	22.36
615.753	22.28
615.946	22.21
616.139	22.3
616.332	22.24
616.525	22.22
616.718	22.19
616.911	22.17
617.103	22.18
617.296	22.14
617.489	22.06
617.682	22.08
617.875	21.98
618.067	21.97
618.26	21.89
618.453	21.82
618.646	21.79
618.838	21.74
619.031	21.69
619.224	21.69
619.417	21.64
619.609	21.65
619.802	21.55
619.994	21.54
620.187	21.49
620.38	21.46
620.572	21.4
620.765	21.34
620.957	21.25
621.15	21.23
621.342	21.21
621.535	21.16
621.727	21.1
621.92	21.06
622.112	21.07
622.305	21.03
622.497	21
622.69	20.96
622.882	20.95
623.074	20.95
623.267	20.9
623.459	20.91
623.651	20.89
623.844	20.93
624.036	20.93
624.228	20.9
624.42	20.91
624.613	20.89
624.805	20.86
624.997	20.89
625.189	20.85
625.381	20.81
625.574	20.76
625.766	20.7
625.958	20.72
626.15	20.69
626.342	20.63
626.534	20.6
626.726	20.58
626.918	20.51
627.11	20.45
627.302	20.39
627.494	20.28
627.686	20.26
627.878	20.24
628.07	20.2
628.262	20.22
628.454	20.22
628.646	20.18
628.838	20.2
629.029	20.11
629.221	20.04
629.413	19.98
629.605	19.97
629.797	19.98
629.989	19.92
630.18	19.85
630.372	19.86
630.564	19.88
630.755	19.83
630.947	19.71
631.139	19.53
631.33	19.52
631.522	19.47
631.714	19.44
631.905	19.42
632.097	19.41
632.289	19.45
632.48	19.46
632.672	19.42
632.863	19.44
633.055	19.43
633.246	19.4
633.438	19.35
633.629	19.39
633.821	19.44
634.012	19.45
634.203	19.47
634.395	19.5
634.586	19.44
634.777	19.48
634.969	19.41
635.16	19.34
635.351	19.34
635.543	19.31
635.734	19.21
635.925	19.29
636.117	19.26
636.308	19.25
636.499	19.26
636.69	19.3
636.881	19.33
637.073	19.35
637.264	19.28
637.455	19.3
637.646	19.34
637.837	19.36
638.028	19.32
638.219	19.29
638.41	19.29
638.601	19.25
638.792	19.23
638.983	19.1
639.174	19.09
639.365	19.04
639.556	19.01
639.747	19.04
639.938	19.07
640.129	19.07
640.32	19.15
640.511	19.16
640.701	19.14
640.892	19.15
641.083	19.08
641.274	19.09
641.465	19.08
641.655	19.05
641.846	19.02
642.037	18.98
642.228	18.94
642.418	18.91
642.609	18.86
642.8	18.79
642.99	18.79
643.181	18.76
643.372	18.79
643.562	18.81
643.753	18.83
643.943	18.82
644.134	18.86
644.324	18.81
644.515	18.8
644.705	18.78
644.896	18.73
645.086	18.67
645.277	18.67
645.467	18.66
645.658	18.62
645.848	18.61
646.038	18.59
646.229	18.58
646.419	18.61
646.61	18.59
646.8	18.53
646.99	18.55
647.18	18.5
647.371	18.43
647.561	18.42
647.751	18.32
647.941	18.27
648.132	18.28
648.322	18.3
648.512	18.34
648.702	18.38
648.892	18.34
649.082	18.37
649.272	18.36
649.462	18.35
649.653	18.28
649.843	18.16
650.033	18.08
650.223	18.1
650.413	18.12
650.603	18.12
650.793	18.07
650.983	18.01
651.172	18.03
651.362	18.03
651.552	17.91
651.742	17.79
651.932	17.71
652.122	17.71
652.312	17.61
652.502	17.56
652.691	17.5
652.881	17.5
653.071	17.48
653.261	17.41
653.45	17.3
653.64	17.32
653.83	17.25
654.019	17.12
654.209	17.01
654.399	16.88
654.588	16.76
654.778	16.62
654.968	16.52
655.157	16.37
655.347	16.22
655.536	16.08
655.726	16.01
655.915	15.85
656.105	15.76
656.294	15.58
656.484	15.42
656.673	15.36
656.863	15.25
657.052	15.07
657.241	14.93
657.431	14.79
657.62	14.65
657.809	14.56
657.999	14.41
658.188	14.3
658.377	14.22
658.567	14.12
658.756	13.98
658.945	13.88
659.134	13.71
659.324	13.5
659.513	13.25
659.702	13.04
659.891	12.82
660.08	12.69
660.269	12.5
660.458	12.38
660.648	12.25
660.837	12.15
661.026	12.06
661.215	11.99
661.404	11.86
661.593	11.72
661.782	11.58
661.971	11.45
662.16	11.32
662.349	11.15
662.538	11.03
662.726	10.86
662.915	10.77
663.104	10.5
663.293	10.45
663.482	10.32
663.671	10.28
663.86	10.17
664.048	10.05
664.237	9.96
664.426	10.04
664.615	9.91
664.803	9.82
664.992	9.72
665.181	9.59
665.369	9.56
665.558	9.5
665.747	9.39
665.935	9.33
666.124	9.28
666.312	9.14
666.501	9.11
666.69	9.01
666.878	8.9
667.067	8.88
667.255	8.87
667.444	8.88
667.632	8.86
667.82	8.78
668.009	8.76
668.197	8.74
668.386	8.68
668.574	8.58
668.762	8.49
668.951	8.48
669.139	8.52
669.327	8.48
669.516	8.47
669.704	8.46
669.892	8.44
670.08	8.47
670.269	8.49
670.457	8.44
670.645	8.48
670.833	8.49
671.021	8.45
671.21	8.51
671.398	8.48
671.586	8.45
671.774	8.43
671.962	8.39
672.15	8.35
672.338	8.41
672.526	8.41
672.714	8.45
672.902	8.42
673.09	8.47
673.278	8.47
673.466	8.55
673.654	8.55
673.842	8.59
674.03	8.62
674.218	8.68
674.405	8.79
674.593	8.86
674.781	8.85
674.969	8.88
675.157	8.92
675.344	9.04
675.532	9.12
675.72	9.16
675.908	9.18
676.095	9.36
676.283	9.44
676.471	9.58
676.658	9.58
676.846	9.65
677.033	9.72
677.221	9.86
677.409	9.88
677.596	10.04
677.784	10.08
677.971	10.23
678.159	10.37
678.346	10.43
678.534	10.53
678.721	10.54
678.909	10.55
679.096	10.68
679.283	10.74
679.471	10.82
679.658	10.98
679.846	11.12
680.033	11.33
680.22	11.4
680.408	11.45
680.595	11.55
680.782	11.66
680.969	11.75
681.157	11.84
681.344	12.01
681.531	12.2
681.718	12.37
681.905	12.58
682.093	12.77
682.28	12.94
682.467	13.14
682.654	13.24
682.841	13.42
683.028	13.74
683.215	13.91
683.402	13.99
683.589	14.23
683.776	14.4
683.963	14.71
684.15	15
684.337	15.06
684.524	15.27
684.711	15.58
684.898	15.79
685.085	16.15
685.271	16.43
685.458	16.71
685.645	17.04
685.832	17.38
686.019	17.77
686.205	18.13
686.392	18.37
686.579	18.59
686.766	18.89
686.952	19.35
687.139	19.62
687.326	20
687.512	20.33
687.699	20.77
687.886	21.19
688.072	21.6
688.259	21.98
688.445	22.44
688.632	22.87
688.818	23.44
689.005	23.93
689.191	24.44
689.378	24.84
689.564	25.23
689.751	25.89
689.937	26.33
690.124	26.81
690.31	27.28
690.496	27.85
690.683	28.5
690.869	29.15
691.055	29.71
691.242	30.22
691.428	30.85
691.614	31.61
691.8	32.08
691.987	32.72
692.173	33.44
692.359	34.03
692.545	34.7
692.731	35.22
692.918	35.68
693.104	36.33
693.29	36.95
693.476	37.32
693.662	37.78
693.848	38.32
694.034	38.9
694.22	39.64
694.406	40.2
694.592	40.72
694.778	41.28
694.964	41.81
695.15	42.43
695.336	43.13
695.522	43.56
695.708	44.2
695.894	44.82
696.08	45.48
696.265	45.95
696.451	46.44
696.637	46.88
696.823	47.37
697.009	47.86
697.194	48.31
697.38	48.58
697.566	49.14
697.751	49.75
697.937	50.02
698.123	50.37
698.308	50.68
698.494	51.17
698.68	51.84
698.865	52.19
699.051	52.62
699.236	53.25
699.422	53.9
699.607	54.34
699.793	54.62
699.978	54.96
700.164	55.35
700.349	55.7
700.535	56.05
700.72	56.2
700.906	56.63
701.091	56.94
701.276	57.29
701.462	57.67
701.647	57.87
701.832	58.1
702.018	58.38
702.203	58.54
702.388	58.87
702.573	59.25
702.759	59.59
702.944	60.01
703.129	60.18
703.314	60.64
703.499	61.13
703.684	61.49
703.87	61.68
704.055	61.94
704.24	62.26
704.425	62.81
704.61	62.84
704.795	63.06
704.98	63.08
705.165	63.28
705.35	63.62
705.535	63.92
705.72	63.89
705.905	64.33
706.09	64.44
706.275	64.68
706.459	65.02
706.644	65.09
706.829	65.21
707.014	65.46
707.199	65.51
707.384	65.79
707.568	66.13
707.753	66.24
707.938	66.48
708.123	66.46
708.307	66.73
708.492	66.69
708.677	66.9
708.861	66.87
709.046	66.92
709.231	66.91
709.415	67.04
709.6	67.11
709.784	67.27
709.969	67.4
710.153	67.79
710.338	68.02
710.522	68.29
710.707	68.01
710.891	68.12
711.076	68.13
711.26	68.28
711.445	68.38
711.629	68.54
711.813	68.38
711.998	68.76
712.182	69.02
712.366	69.38
712.551	69.4
712.735	69.28
712.919	69.3
713.103	69.5
713.288	69.72
713.472	69.57
713.656	69.47
713.84	69.47
714.024	69.59
714.208	69.59
714.393	69.72
714.577	69.89
714.761	70.17
714.945	70.36
715.129	70.58
715.313	70.69
715.497	70.84
715.681	70.94
715.865	70.95
716.049	70.94
716.233	71.3
716.417	71.28
716.601	71.3
716.785	71.35
716.968	71.33
717.152	71.56
717.336	71.65
717.52	71.64
717.704	71.99
717.888	72.26
718.071	72.49
718.255	72.69
718.439	72.25
718.622	72.37
718.806	72.04
718.99	71.98
719.174	71.92
719.357	71.77
719.541	71.82
719.724	72.29
719.908	72.21
720.092	72.65
720.275	72.72
720.459	72.8
720.642	72.95
720.826	73
721.009	73.03
721.193	73.25
721.376	73.24
721.559	73.24
721.743	73.35
721.926	73.22
722.11	73.24
722.293	72.97
722.476	72.78
722.66	72.81
722.843	72.89
723.026	72.83
723.21	72.89
723.393	72.93
723.576	73.42
723.759	73.7
723.942	73.98
724.126	73.87
724.309	73.84
724.492	74.16
724.675	74.36
724.858	74.47
725.041	74.43
725.224	74.36
725.407	74.14
725.59	74.39
725.774	74.32
725.957	74.22
726.14	74.24
726.322	74.34
726.505	74.72
726.688	75.02
726.871	75.19
727.054	75.41
727.237	75.48
727.42	76
727.603	76.23
727.786	76.16
727.968	76.32
728.151	76.45
728.334	76.7
728.517	77.01
728.699	76.83
728.882	77.04
729.065	76.85
729.248	77.14
729.43	77.09
729.613	76.99
729.796	76.92
729.978	77.06
730.161	77.28
730.343	77.55
730.526	77.65
730.708	77.95
730.891	78.3
731.073	78.25
731.256	78.13
731.438	78.05
731.621	78.35
731.803	78.4
731.986	78.44
732.168	78.2
732.35	78.71
732.533	78.78
732.715	78.77
732.898	78.38
733.08	78.58
733.262	78.36
733.444	78.44
733.627	78.33
733.809	78.58
733.991	78.66
734.173	78.97
734.355	78.99
734.538	79.24
734.72	80.18
734.902	80.16
735.084	79.98
735.266	79.99
735.448	80.02
735.63	79.85
735.812	79.69
735.994	78.64
736.176	78.84
736.358	79.23
736.54	79.17
736.722	79.31
736.904	79.43
737.086	79.76
737.268	80.23
737.45	80.14
737.632	79.67
737.814	80.13
737.995	80.52
738.177	80.77
738.359	80.89
738.541	80.44
738.723	81.07
738.904	81.37
739.086	81
739.268	81.31
739.449	81.06
739.631	81.23
739.813	81.44
739.994	81.1
740.176	80.88
740.358	81.33
740.539	80.67
740.721	80.88
740.902	80.4
741.084	81.06
741.265	80.81
741.447	81.06
741.628	80.64
741.81	80.74
741.991	81.01
742.172	81.2
742.354	80.96
742.535	81.34
742.717	81.47
742.898	81.94
743.079	81.77
743.261	81.56
743.442	81.62
743.623	81.58
743.804	81.48
743.986	81.05
744.167	80.95
744.348	81.2
744.529	81.28
744.71	81.26
744.891	81.18
745.073	81.03
745.254	81.53
745.435	80.75
745.616	80.46
745.797	79.89
745.978	80.14
746.159	80.04
746.34	80.43
746.521	80.26
746.702	80.84
746.883	80.85
747.064	81.27
747.245	81.9
747.426	81.87
747.606	81.32
747.787	81.52
747.968	81.54
748.149	82.07
748.33	82.71
748.51	81.69
748.691	82.55
748.872	82.89
749.053	82.51
749.233	82.16
749.414	81.97
749.595	80.75
749.775	80.78
749.956	79.73
750.137	79.25
750.317	79.54
750.498	80.45
750.678	80.12
750.859	80.47
751.04	80.94
751.22	80.35
751.4	81.2
751.581	81.38
751.761	81.1
751.942	81.54
752.122	81.74
752.303	81.74
752.483	83.1
752.663	83.22
752.844	82.77
753.024	82.59
753.204	82.12
753.385	81.75
753.565	80.95
753.745	80.4
753.925	79.71
754.106	79.62
754.286	79.75
754.466	79.76
754.646	79.33
754.826	79.42
755.006	79.37
755.187	79.39
755.367	78.94
755.547	78.41
755.727	78.32
755.907	79.13
756.087	79.37
756.267	79.13
756.447	79.04
756.627	79.51
756.807	80.63
756.987	81.55
757.167	81.52
757.346	81.35
757.526	81.27
757.706	81.08
757.886	81.41
758.066	80.46
758.246	79.76
758.425	79.95
758.605	80.07
758.785	80.48
758.965	79.79
759.144	79.41
759.324	78.93
759.504	78.9
759.683	78.21
759.863	77.78
760.043	78.02
760.222	78.34
760.402	78.38
760.581	78.68
760.761	78.03
760.94	78.1
761.12	78.46
761.299	77.33
761.479	77.95
761.658	76.93
761.838	77.67
762.017	78.53
762.197	78.43
762.376	77.95
762.555	79.53
762.735	78.88
762.914	80.59
763.093	79.55
763.273	79.25
763.452	79.12
763.631	78.69
763.81	78.32
763.99	79.06
764.169	78.04
764.348	79.08
764.527	78.47
764.706	79.47
764.885	80.55
765.064	79.73
765.243	78.81
765.423	79.47
765.602	77.96
765.781	77.97
765.96	77.17
766.139	76.79
766.318	77.18
766.497	78.06
766.676	77.83
766.854	78.09
767.033	77.85
767.212	77.51
767.391	77.85
767.57	78.18
767.749	77.61
767.928	77.07
768.106	77.07
768.285	77.57
768.464	77.65
768.643	77.75
768.821	77.52
769	78.15
769.179	77.11
769.357	76.86
769.536	77.67
769.715	77.95
769.893	77.02
770.072	77.04
770.25	76.23
770.429	77.3
770.607	78.64
770.786	78.11
770.964	77.72
771.143	78.42
771.321	77.64
771.5	77.36
771.678	77.17
771.857	75.94
772.035	75.65
772.213	76.15
772.392	76.8
772.57	77.18
772.748	76.71
772.927	76.92
773.105	77.84
773.283	77.39
773.461	76.64
773.64	75.82
773.818	74.7
773.996	74.82
774.174	75.17
774.352	74.85
774.531	74.62
774.709	75.35
774.887	74.34
775.065	75.75
775.243	77.03
775.421	76.82
775.599	75.97
775.777	76.89
775.955	75.6
776.133	75.29
776.311	74.98
776.489	74.28
776.667	74.14
776.844	74
777.022	73.23
777.2	74.19
777.378	75.93
777.556	75.8
777.734	76.36
777.911	76.86
778.089	76.43
778.267	76.54
778.445	76.3
778.622	76
778.8	75.17
778.978	74.9
779.155	73.42
779.333	73.53
779.511	74.09
779.688	72.98
779.866	71.83
780.043	72.22
780.221	71.38
780.398	72.42
780.576	72.57
780.753	71.16
780.931	72.82
781.108	73.55
781.286	72.57
781.463	73.98
781.64	73.21
781.818	74.03
781.995	75.84
782.172	75.12
782.35	73.37
782.527	75.29
782.704	73.8
782.882	74.31
783.059	71.55
783.236	70.18
783.413	70.7
783.59	71.47
783.768	70.87
783.945	72.73
784.122	72.35
784.299	76.08
784.476	75.98
784.653	74.97
784.83	74.14
785.007	74.15
785.184	73.37
785.361	72.64
785.538	71.81
785.715	71.93
785.892	71.92
786.069	72.89
786.246	71.77
786.423	71.61
786.6	73.07
786.776	72.34
786.953	72.76
787.13	73.7
787.307	74.07
787.484	74.55
787.66	72.81
787.837	73.82
788.014	73.52
788.191	73.04
788.367	72.16
788.544	71.65
788.721	73.33
788.897	77.25
789.074	73.65
789.25	74.37
789.427	74.12
789.603	76.22
789.78	78.92
789.956	77.46
790.133	74.54
790.309	77.06
790.486	76.36
790.662	78.96
790.839	78.35
791.015	76.56
791.192	76.11
791.368	77.1
791.544	77.69
791.721	76.66
791.897	75.53
792.073	71.11
792.249	72
792.426	72.92
792.602	70.6
792.778	69.46
792.954	69.23
793.13	68.68
793.307	70.02
793.483	69.69
793.659	70.09
793.835	72.19
794.011	71.97
794.187	70.61
794.363	70.9
794.539	71.48
794.715	70.41
794.891	68.84
795.067	68.19
795.243	68.59
795.419	73.05
795.595	70.74
795.771	75.45
795.947	73.95
796.122	73.17
796.298	71.6
796.474	72.82
796.65	71.48
796.826	74.98
797.001	70.62
797.177	74.39
797.353	78.15
797.529	78.7
797.704	75.3
797.88	72.38
798.056	72
798.231	69.94
798.407	66.56
798.582	65.36
798.758	67.88
798.934	69.6
799.109	70.5
799.285	68.5
799.46	68.82
799.636	71.31
799.811	69.81
799.986	68.61
800.162	69.37
800.337	69.03
800.513	70.37
800.688	75.73
800.863	73.78
801.039	72.3
801.214	69.22
801.389	68.62
801.565	71.68
801.74	68.21
801.915	64.41
802.09	63.93
802.265	63.33
802.441	64.76
802.616	65.61
802.791	61.33
802.966	63.41
803.141	59.24
803.316	60.39
803.491	57.76
803.666	58.52
803.841	57.71
804.016	61.94
804.191	62.08
804.366	63.72
804.541	63.17
804.716	64.84
804.891	70.16
805.066	70
805.241	67.18
805.416	65.76
805.591	70.63
805.765	71.96
805.94	77.08
806.115	68.67
806.29	68.52
806.464	68.87
806.639	70.15
806.814	66.2
806.989	61.79
807.163	56.39
807.338	58.76
807.512	53.69
807.687	54.71
807.862	52.23
808.036	53.47
808.211	61.78
808.385	60.96
808.56	64.92
808.734	65.96
808.909	65.67
809.083	69.39
809.258	72.07
809.432	63.59
809.606	66.12
809.781	65.46
809.955	70.22
810.13	72.59
810.304	69.67
810.478	70.22
810.652	79.83
810.827	79.92
811.001	76.24
811.175	74.13
811.349	75.23
811.524	75.27
811.698	74.68
811.872	70.66
812.046	68.91
812.22	69.97
812.394	69.08
812.568	64.9
812.742	67.69
812.916	67.99
813.09	62.9
813.264	64.12
813.438	70.45
813.612	72.63
813.786	75.14
813.96	79.06
814.134	78.33
814.308	79.55
814.482	83.97
814.656	78.62
814.83	80.23
815.003	80.47
815.177	73.9
815.351	77.82
815.525	76.8
815.698	73.85
815.872	75.73
816.046	72.91
816.219	72.91
816.393	66.25
816.567	61.63
816.74	65.64
816.914	68.03
817.088	64.77
817.261	65.82
817.435	60.73
817.608	67.85
817.782	70.92
817.955	72.86
818.129	72.53
818.302	75
818.475	74.36
818.649	71.84
818.822	72.21
818.996	73.72
819.169	70.24
819.342	63.71
819.516	60.87
819.689	65.54
819.862	68.18
820.035	63.56
820.209	58.06
820.382	54.56
820.555	57.22
820.728	50.65
820.901	43.8
821.075	49.19
821.248	52.87
821.421	50.96
821.594	55.49
821.767	55.35
821.94	55.59
822.113	60.68
822.286	64.26
822.459	72.13
822.632	75
822.805	73.09
822.978	73.6
823.151	79.95
823.324	72.77
823.496	58.1
823.669	49.26
823.842	45.11
824.015	44.41
824.188	46.64
824.361	43.81
824.533	51.77
824.706	64.39
824.879	70.98
825.051	82.49
825.224	81.07
825.397	78.53
825.569	83.29
825.742	78.06
825.915	73.25
826.087	70.35
826.26	61.81
826.432	60.98
826.605	53.95
826.777	49.46
826.95	41.42
827.122	43.21
827.295	48.25
827.467	45.36
827.64	41.02
827.812	39.17
827.984	49.61
828.157	54.71
828.329	56.95
828.501	60.17
828.674	65.05
828.846	69.41
829.018	67.43
829.19	54.5
829.363	59.68
829.535	55.22
829.707	49.49
829.879	48.43
830.051	48.52
830.223	49.1
830.395	49.13
830.568	47.23
830.74	52.94
830.912	52.87
831.084	51.95
831.256	46.18
831.428	47.21
831.6	49.78
831.772	53.41
831.943	49.92
832.115	50.9
832.287	53.93
832.459	59.3
832.631	73.43
832.803	78.96
832.975	74.82
833.146	64.74
833.318	63.76
833.49	65.06
833.662	66.05
833.833	61.35
834.005	59.37
834.177	61.56
834.348	66.11
834.52	70.32
834.692	69.64
834.863	70.95
835.035	52.91
835.206	51.73
835.378	46.98
835.549	57.23
835.721	51.05
835.892	54.34
836.064	60.69
836.235	74.34
836.407	76.39
836.578	83.2
836.749	83.48
836.921	86.06
837.092	84.92
837.264	72.24
837.435	54.9
837.606	53.99
837.777	46.33
837.949	34.63
838.12	36.44
838.291	48.85
838.462	60.22
838.633	71.43
838.805	67.51
838.976	65.39
839.147	66.14
839.318	60.31
839.489	51.52
839.66	46.03
839.831	40.68
840.002	37.68
840.173	48.38
840.344	55.9
840.515	59.54
840.686	48.6
840.857	41.8
841.028	44.95
841.199	46.24
841.369	32.18
841.54	31.08
841.711	48.38
841.882	50.78
842.053	49.28
842.223	58.62
842.394	60.85
842.565	84.35
842.736	87.88
842.906	74.12
843.077	75.3
843.248	75.97
843.418	69.8
843.589	78.65
843.759	69.68
843.93	71.85
844.101	64.43
844.271	66.94
844.442	77.25
844.612	71.83
844.783	51.02
844.953	47.71
845.123	52.24
845.294	66.27
845.464	53.33
845.635	46.43
845.805	57.09
845.975	48.11
846.146	37.25
846.316	30.04
846.486	38.92
846.656	50.8
846.827	47.92
846.997	47.62
847.167	65.23
847.337	77.26
847.507	72.45
847.677	71.53
847.848	72.14
848.018	69.33
848.188	62.86
848.358	69.51
848.528	58.71
848.698	48.39
848.868	32.18
849.038	34.16
849.208	46.86
849.378	46.38
849.548	39.1
849.718	30.59
849.887	30.91
850.057	44.98
850.227	29.62
850.397	19.12
850.567	21.5
850.737	6.86
850.906	20.3
851.076	27.57
851.246	34.01
851.415	48.48
851.585	49.72
851.755	52.72
851.924	76.51
852.094	77.32
852.264	67.35
852.433	68.56
852.603	76.53
852.772	75.11
852.942	59.88
853.111	66.17
853.281	63.38
853.45	71.68
853.62	57.74
853.789	56.12
853.959	56.85
854.128	50.56
854.297	28.98
854.467	21.83
854.636	25.07
854.805	48.89
854.975	53.26
855.144	65.15
855.313	77.18
855.482	76.03
855.652	80.02
855.821	66.47
855.99	58.81
856.159	41.12
856.328	38.36
856.497	44.9
856.667	56.66
856.836	57.42
857.005	59.29
857.174	62.18
857.343	58.84
857.512	51.32
857.681	54.99
857.85	40.99
858.019	45.33
858.188	52.95
858.356	36.66
858.525	51.05
858.694	72.99
858.863	62.38
859.032	59.89
859.201	65.77
859.369	58.42
859.538	55.81
859.707	59.19
859.876	50.32
860.044	56.87
860.213	51.73
860.382	51.71
860.55	75.63
860.719	92.73
860.888	81.5
861.056	91.37
861.225	102.75
861.393	126.52
861.562	115.63
861.73	97.15
861.899	71.2
862.067	72.18
862.236	59.64
862.404	45.42
862.572	41.19
862.741	33.85
862.909	25.92
863.078	29.87
863.246	14.65
863.414	3.52
863.582	6.26
863.751	-3.76
863.919	17.55
864.087	32.26
864.255	45.11
864.424	54.96
864.592	72.44
864.76	57.68
864.928	53.35
865.096	36.98
865.264	45.96
865.432	34.24
865.6	12.59
865.768	-3.57
865.936	-0.21
866.104	3.14
866.272	26.61
866.44	-21.14
866.608	-18.12
866.776	43.2
866.944	51
867.112	35.42
867.28	35.48
867.448	29.77
867.615	53.86
867.783	26.68
867.951	33.81
868.119	62.23
868.286	67.21
868.454	54.7
868.622	59.46
868.789	55.4
868.957	71.68
869.125	54.28
869.292	56.01
869.46	48.6
869.627	42.99
869.795	31.88
869.963	38.39
870.13	41.96
870.298	27.38
870.465	-6.03
870.632	28.83
870.8	27.14
870.967	32.8
871.135	23.43
871.302	23.19
871.469	16.72
871.637	17.01
871.804	14.14
871.971	18.04
872.139	19.35
872.306	16.24
872.473	4.41
872.64	27.9
872.807	35.77
872.975	27.34
873.142	24.67
873.309	49.57
873.476	78.53
873.643	96.17
873.81	77.86
873.977	62.64
874.144	115.59
874.311	60.87
874.478	13.05
874.645	17.11
874.812	64.27
874.979	49.04
875.146	27.63
875.313	21.24
875.48	102.49
875.647	116.61
875.813	84.98
875.98	24.41
876.147	71.25
876.314	84.07
876.481	63.98
876.647	52.48
876.814	58.95
876.981	47.92
877.147	42.96
877.314	22.62
877.481	25.68
877.647	32.5
877.814	22.1
877.98	3.84
878.147	39.58
878.314	38.58
878.48	47.76
878.647	68.53
878.813	59.43
878.979	90.95
879.146	55.9
879.312	68.56
879.479	67.39
879.645	53.63
879.811	23.86
879.978	32.59
880.144	24.38
880.31	26.94
880.477	-17.71
880.643	-105.03
880.809	-0.62
880.975	22.43
881.142	29.85
881.308	38.77
881.474	95.51
881.64	51.23
881.806	58.97
881.972	82.42
882.138	65.16
882.304	57.75
882.47	48.5
882.636	-16.63
882.802	5.05
882.968	-46.31
883.134	-230.37
883.3	-64.83
883.466	-11.57
883.632	-28.15
883.798	-1.57
883.964	-5.6
884.129	20.92
884.295	42.4
884.461	51.79
884.627	69.75
884.793	90.88
884.958	81.41
885.124	84.08
885.29	56.79
885.455	42.93
885.621	37.6
885.787	20.98
885.952	-2
886.118	27.11
886.283	49.09
886.449	48.97
886.614	72.68
886.78	70.35
886.945	64.61
887.111	92.08
887.276	41.52
887.442	28.52
887.607	16.91
887.773	-6.81
887.938	-8.2
888.103	15.14
888.269	5.36
888.434	22.59
888.599	35.99
888.764	36.11
888.93	53.86
889.095	19.5
889.26	65.63
889.425	77.1
889.59	65.66
889.756	64.43
889.921	52.52
890.086	77.2
890.251	64
890.416	2.9
890.581	6.08
890.746	-21.42
890.911	-83.53
891.076	-108.92
891.241	-201.05
891.406	-49.14
891.571	-13.98
891.736	-24.3
891.901	8.48
892.065	32.34
892.23	28.83
892.395	22.59
892.56	31.25
892.725	20.36
892.889	17.08
893.054	-12.37
893.219	-16.17
893.384	-18.8
893.548	-16.67
893.713	322.77
893.878	191.3
