Data from Ofra_PS_T2_1A_8HS21_Reflection_3.txt Node
Date: Wed Jul 21 18:15:12 EDT 2021
User: Adam
Spectrometer: FLMT01687
Trigger mode: 0
Integration Time (sec): 1.100000E0
Scans to average: 2
Electric dark correction enabled: true
Nonlinearity correction enabled: false
Boxcar width: 2
XAxis mode: Wavelengths
Number of Pixels in Spectrum: 3648
>>>>>Begin Spectral Data<<<<<
179.494	531.2
179.716	578.35
179.937	598.59
180.158	584
180.38	897.5
180.601	395.58
180.823	154.73
181.044	-129.86
181.265	-13.97
181.486	43.16
181.708	63.51
181.929	408.16
182.15	-505.63
182.372	35.81
182.593	-15.33
182.814	1.72
183.035	83.13
183.257	92.02
183.478	22.55
183.699	28.2
183.92	-0.73
184.141	-14.62
184.363	-61.59
184.584	6.65
184.805	44.46
185.026	63.99
185.247	43.25
185.468	24.93
185.689	24.79
185.91	14.24
186.132	20.5
186.353	28.17
186.574	81.16
186.795	71.47
187.016	26.44
187.237	18.04
187.458	8.68
187.679	-17.63
187.9	-11.73
188.121	1.48
188.342	32.97
188.563	52.77
188.784	95.86
189.005	55.96
189.226	105.37
189.447	18.37
189.667	-102.91
189.888	-343.84
190.109	-1031.17
190.33	-624.52
190.551	-1079.65
190.772	-218.4
190.993	-206.68
191.214	-179.91
191.434	-124.24
191.655	-8.34
191.876	-94.14
192.097	-127.27
192.318	-135.04
192.538	-207.33
192.759	-204.01
192.98	-110.6
193.201	-50.38
193.421	-17
193.642	9.28
193.863	32.93
194.083	13.91
194.304	-0.91
194.525	-28
194.745	-69.45
194.966	-87.68
195.187	-70.38
195.407	-90.93
195.628	-127.03
195.848	-135.49
196.069	-142.61
196.29	-123.73
196.51	-120.36
196.731	-79.56
196.951	-78.08
197.172	-90.1
197.392	-112.42
197.613	-125.31
197.833	-178.85
198.054	-143.37
198.274	-69.11
198.495	-70.22
198.715	-12.98
198.936	2.85
199.156	5.96
199.377	-59.42
199.597	-37.22
199.817	-81.36
200.038	-47.24
200.258	-114.3
200.479	-61.8
200.699	-93.64
200.919	-10.31
201.14	-21.36
201.36	3.91
201.58	15.02
201.801	39.85
202.021	9.18
202.241	8.89
202.461	3.34
202.682	-57.04
202.902	-133.91
203.122	-83.37
203.342	-75.35
203.563	-42.37
203.783	-18.42
204.003	-47.98
204.223	-53.3
204.443	13.28
204.663	-8.04
204.884	2.87
205.104	34.77
205.324	69.89
205.544	53.96
205.764	53.77
205.984	43.35
206.204	37.16
206.424	15.1
206.644	-44.34
206.864	-12.06
207.084	-57.72
207.304	-54.42
207.525	-162.81
207.745	-48.78
207.964	-22.87
208.184	-23.91
208.404	-50.1
208.624	-44.05
208.844	-58.87
209.064	-305.99
209.284	-371.24
209.504	-168.11
209.724	-55.8
209.944	-9.28
210.164	22.34
210.384	30.99
210.604	10.42
210.823	-8.01
211.043	-33.87
211.263	-33.72
211.483	-31.79
211.703	-60.48
211.922	-49.4
212.142	-14.82
212.362	-0.8
212.582	7.69
212.801	9.7
213.021	-2.92
213.241	11.83
213.461	-29.29
213.68	-44.68
213.9	-23.43
214.12	-18.95
214.339	-92.19
214.559	-66.45
214.779	-25.72
214.998	-28.42
215.218	-53.96
215.438	-3.93
215.657	6.47
215.877	-6.06
216.096	3.82
216.316	12.18
216.535	-2.03
216.755	-9.25
216.974	-72.57
217.194	-135.63
217.413	-134.79
217.633	-111.8
217.852	-192.13
218.072	-80.04
218.291	-20.17
218.511	18.72
218.73	-16.71
218.95	-4.88
219.169	-3.94
219.389	-28.26
219.608	-21.44
219.827	-5.2
220.047	6.85
220.266	13.08
220.485	16.05
220.705	16.93
220.924	-1.1
221.143	19.55
221.363	6.74
221.582	11.46
221.801	21.8
222.021	39.35
222.24	4.75
222.459	35.8
222.678	44.9
222.897	-24.05
223.117	-93.36
223.336	-90.51
223.555	-47.61
223.774	-18.76
223.993	7.28
224.213	113.63
224.432	95.05
224.651	80.83
224.87	44.67
225.089	45.62
225.308	14.25
225.527	20.71
225.746	14.09
225.965	9.9
226.184	-19.54
226.404	8.18
226.623	-8.93
226.842	-11.27
227.061	3.48
227.28	10.98
227.499	-21.45
227.718	11.12
227.936	-1.84
228.155	17.99
228.374	9.91
228.593	17.83
228.812	-0.8
229.031	1.53
229.25	-48.04
229.469	-38.76
229.688	-21.24
229.907	-2.44
230.125	22.91
230.344	37.59
230.563	44.67
230.782	57.24
231.001	11.59
231.22	8.24
231.438	33.88
231.657	18.5
231.876	0.08
232.095	50.42
232.313	56.43
232.532	37.94
232.751	-6.1
232.969	-20.16
233.188	-108.51
233.407	-65.12
233.625	-33.89
233.844	-20.77
234.063	-1.59
234.281	27.13
234.5	10.36
234.719	9.33
234.937	19.76
235.156	16.99
235.374	-2.41
235.593	-15.52
235.811	-31.75
236.03	-40.55
236.249	-81.59
236.467	-48.94
236.686	-12.39
236.904	4.11
237.123	-12.23
237.341	-6.4
237.559	-0.36
237.778	-2.63
237.996	-9.6
238.215	32.53
238.433	43.75
238.652	24.51
238.87	2.6
239.088	4.41
239.307	-13.54
239.525	-31.59
239.743	-42.04
239.962	-27.59
240.18	-34.98
240.398	-55.32
240.617	-48.41
240.835	-24.71
241.053	-9.63
241.271	36.28
241.49	29.88
241.708	20.31
241.926	11.3
242.144	27.54
242.363	-46.65
242.581	-55.47
242.799	-35.62
243.017	-7.55
243.235	-34.87
243.453	-16.49
243.672	-14.36
243.89	-22.22
244.108	-39
244.326	-16.89
244.544	-25.36
244.762	-20.5
244.98	-17.89
245.198	7.54
245.416	-23.31
245.634	2.57
245.852	-11.44
246.07	-3.77
246.288	-21.02
246.506	-48.07
246.724	-73.22
246.942	-69.91
247.16	-34.17
247.378	-35.73
247.596	1.32
247.814	14.18
248.032	-2.39
248.25	0.08
248.468	-6.3
248.685	-6.2
248.903	21.4
249.121	26.89
249.339	5.61
249.557	12.23
249.775	23.09
249.992	-36.67
250.21	-19.52
250.428	-13.39
250.646	-33.84
250.863	-62.98
251.081	-27.47
251.299	-31.53
251.517	-27.46
251.734	-8.85
251.952	-8.04
252.17	-4.61
252.387	5.13
252.605	-8.44
252.823	17.09
253.04	36.15
253.258	53.4
253.475	43.22
253.693	87.17
253.911	44.49
254.128	51.38
254.346	57.03
254.563	31.09
254.781	-11.81
254.998	-9.71
255.216	-31.35
255.433	-49.25
255.651	19.94
255.868	27.63
256.086	57.49
256.303	35.74
256.521	30.99
256.738	-11.4
256.956	-30.33
257.173	-71.25
257.39	-76.49
257.608	-100.26
257.825	9.63
258.043	46.4
258.26	52.89
258.477	77.55
258.695	68.14
258.912	-20.22
259.129	-3.89
259.346	-37.66
259.564	-70.95
259.781	-88.17
259.998	-27.76
260.216	-11.86
260.433	18.04
260.65	19.77
260.867	38.68
261.084	10.48
261.302	-15.37
261.519	-19.51
261.736	-32.98
261.953	-37.77
262.17	0.94
262.387	-14.86
262.604	-37.41
262.822	-56.82
263.039	-50.21
263.256	-86.46
263.473	-60.02
263.69	-45.94
263.907	-4.12
264.124	-5.27
264.341	-6.71
264.558	-11.68
264.775	6.11
264.992	-8.88
265.209	9.69
265.426	33.6
265.643	35.38
265.86	36.14
266.077	45.71
266.294	33.36
266.51	-7.47
266.727	-3.55
266.944	-3.02
267.161	-3.65
267.378	-9.88
267.595	14.1
267.812	-11.73
268.028	-28.97
268.245	-30.17
268.462	-44.52
268.679	-50.18
268.896	5.24
269.112	11.98
269.329	11.65
269.546	22.04
269.763	5.51
269.979	-17.84
270.196	-23.13
270.413	-40.51
270.629	-53.98
270.846	-53.25
271.063	-50.58
271.279	-64.84
271.496	-48.04
271.712	-18.52
271.929	-13.16
272.146	4.08
272.362	23
272.579	25.29
272.795	28.31
273.012	37.76
273.228	37.21
273.445	8.32
273.661	-9.8
273.878	-51.89
274.094	-42.34
274.311	-74.79
274.527	-5.33
274.744	-3.93
274.96	0.66
275.177	18.88
275.393	30.39
275.609	24.1
275.826	39.12
276.042	36.21
276.259	10.27
276.475	24.83
276.691	17.42
276.908	-4.48
277.124	5.53
277.34	15.35
277.557	-2.8
277.773	-2.95
277.989	-6.36
278.205	-5.38
278.422	-1.29
278.638	5.14
278.854	22.16
279.07	43.76
279.286	21.16
279.503	-17.95
279.719	-15.62
279.935	-51.63
280.151	-91.92
280.367	-43.68
280.583	-36.85
280.799	-27.78
281.016	-38.93
281.232	0.69
281.448	-4.9
281.664	10.37
281.88	-33.52
282.096	1.3
282.312	21.54
282.528	26.21
282.744	51.42
282.96	53.95
283.176	43.8
283.392	25.58
283.608	8.63
283.824	-6.04
284.04	-5.12
284.256	-13.29
284.471	-9.24
284.687	-1.91
284.903	25.84
285.119	34.76
285.335	17.47
285.551	-2.91
285.767	-3.65
285.982	-34.37
286.198	-57.39
286.414	-15.9
286.63	1.22
286.846	25.61
287.061	12.98
287.277	40.83
287.493	25.17
287.709	42.51
287.924	24.44
288.14	63.59
288.356	50.71
288.571	58.63
288.787	26.16
289.003	30.36
289.218	11.74
289.434	-10.34
289.65	-4.64
289.865	15.56
290.081	34.66
290.296	37.87
290.512	38.23
290.727	10.21
290.943	-3.4
291.159	-15.32
291.374	-25.55
291.59	-38.24
291.805	-26.34
292.021	-3.89
292.236	-6.65
292.451	22.15
292.667	27.54
292.882	42.59
293.098	27.66
293.313	22.6
293.529	-23.48
293.744	-23.18
293.959	-25.24
294.175	-16.92
294.39	12.84
294.605	24.01
294.821	48.31
295.036	45.57
295.251	49.49
295.467	16.03
295.682	13.61
295.897	-45.13
296.112	-39.82
296.328	-46.12
296.543	-57.82
296.758	-66.48
296.973	-23.58
297.188	12.43
297.404	-18.95
297.619	-32.7
297.834	-35.34
298.049	-67.62
298.264	-105.08
298.479	-28.39
298.694	-16.28
298.909	-9.86
299.125	4.53
299.34	2.08
299.555	-21.32
299.77	14
299.985	-2.08
300.2	-50.16
300.415	-68.02
300.63	-51.58
300.845	-75.07
301.06	-82.48
301.275	-39.64
301.49	-14.07
301.704	-14.54
301.919	-23.8
302.134	-31.18
302.349	-35.6
302.564	-84.62
302.779	-97.07
302.994	-88.71
303.209	-31.65
303.423	12.89
303.638	41.64
303.853	1.22
304.068	1.17
304.283	-0.44
304.497	-14.95
304.712	-30.13
304.927	-2.43
305.142	-4.63
305.356	-0.88
305.571	-9.17
305.786	-7.26
306	-33.48
306.215	-44.53
306.43	-70.47
306.644	-64.17
306.859	-14.64
307.074	-1.89
307.288	-18
307.503	-21.62
307.717	-24.05
307.932	-39.15
308.147	-47.08
308.361	-15.11
308.576	-10.35
308.79	-44.54
309.005	-38.25
309.219	-13.65
309.434	-5.34
309.648	-0.49
309.863	17.67
310.077	21.02
310.292	12.5
310.506	-9.45
310.72	2.1
310.935	20.45
311.149	16.07
311.364	41.15
311.578	55.87
311.792	30.66
312.007	18.5
312.221	7.36
312.435	-7.16
312.649	-29.32
312.864	8.14
313.078	28.09
313.292	82.86
313.507	56.76
313.721	110.45
313.935	41.88
314.149	25.75
314.363	5.38
314.578	11.5
314.792	4.63
315.006	-2.69
315.22	10.81
315.434	19.09
315.648	27.25
315.862	20.93
316.077	25.89
316.291	21.31
316.505	18.74
316.719	4.01
316.933	-2.96
317.147	-10.52
317.361	-66.72
317.575	-100.74
317.789	-123.55
318.003	-147.39
318.217	-106.63
318.431	-28.15
318.645	19.84
318.859	18.45
319.073	23.76
319.287	17.12
319.5	-0.91
319.714	-21.81
319.928	-49.16
320.142	-74.49
320.356	-42.88
320.57	-9.01
320.784	-47.46
320.997	-37.34
321.211	-19.98
321.425	-68.35
321.639	-99.21
321.853	-49.03
322.066	-20.23
322.28	-17.66
322.494	-7.36
322.707	23.39
322.921	17.69
323.135	7.6
323.349	6.47
323.562	0.66
323.776	-22.99
323.989	-20.91
324.203	-41.55
324.417	-39.11
324.63	-69.92
324.844	-76.98
325.057	-77.39
325.271	-43.37
325.485	-16.29
325.698	12.12
325.912	33.97
326.125	16.78
326.339	3.83
326.552	-20.98
326.766	-11.66
326.979	4.9
327.193	43.08
327.406	36.24
327.619	27.72
327.833	25.9
328.046	-11.99
328.26	-51.2
328.473	-29.31
328.686	-56.22
328.9	-45.06
329.113	-15.74
329.326	-42.88
329.54	-25.57
329.753	-19.89
329.966	-62.57
330.179	-63.01
330.393	-9.1
330.606	-9.12
330.819	26.29
331.032	43.64
331.246	47.63
331.459	56.48
331.672	55.47
331.885	29.49
332.098	4
332.311	-3.36
332.525	-69.08
332.738	-58.38
332.951	-21.51
333.164	0.94
333.377	7.99
333.59	43.36
333.803	44.02
334.016	20.18
334.229	28.22
334.442	36.98
334.655	43.26
334.868	42.6
335.081	55.23
335.294	30.21
335.507	5.34
335.72	-4.24
335.933	-25.73
336.146	-40.84
336.359	-41.96
336.572	-51.19
336.785	-71.74
336.997	-55.31
337.21	-25
337.423	-29.4
337.636	-28.43
337.849	-12.64
338.062	-31.09
338.274	-38.49
338.487	-33.73
338.7	-26.11
338.913	-65.97
339.125	-77.35
339.338	-110.74
339.551	-92.65
339.763	-70.66
339.976	-39.83
340.189	-9.32
340.402	2.91
340.614	5.59
340.827	-1.39
341.039	-5.03
341.252	4.18
341.465	5.23
341.677	-14.95
341.89	-44.83
342.102	-19.92
342.315	-44.64
342.527	-67.9
342.74	-49.56
342.952	-5.36
343.165	-17.69
343.377	0.67
343.59	-3.92
343.802	5.81
344.015	-16.43
344.227	-11.75
344.44	-5.45
344.652	0.95
344.864	-10.06
345.077	20.29
345.289	25.19
345.502	17.85
345.714	21.78
345.926	32.13
346.139	31.42
346.351	35.33
346.563	49.61
346.775	51.22
346.988	27.86
347.2	2.42
347.412	-32.23
347.624	-50.48
347.837	-77.01
348.049	-26.07
348.261	20.57
348.473	21.3
348.685	26.67
348.897	19.44
349.11	-9.54
349.322	-50.19
349.534	-43.76
349.746	-57.08
349.958	-51.74
350.17	-26.43
350.382	9.58
350.594	17.05
350.806	28.02
351.018	29.99
351.23	11.97
351.442	-37.57
351.654	-44.84
351.866	-34.54
352.078	-22.56
352.29	-7.14
352.502	12.19
352.714	23.36
352.926	20.19
353.138	11.85
353.35	-5.19
353.561	-1.81
353.773	-26.86
353.985	-22.28
354.197	-26.5
354.409	-18.14
354.621	-10.62
354.832	-1.44
355.044	-8.28
355.256	-14.31
355.468	2.25
355.679	-20.83
355.891	-5.74
356.103	-9.87
356.314	11.71
356.526	13.66
356.738	33.84
356.949	14.1
357.161	11.43
357.373	0.7
357.584	-15.61
357.796	-11.01
358.008	-5.8
358.219	14.24
358.431	2.07
358.642	6.75
358.854	-0.8
359.065	-20.21
359.277	-56.19
359.488	-60.28
359.7	-67.54
359.911	-74.37
360.123	-45.85
360.334	-52.75
360.546	-60.09
360.757	-70.28
360.969	-46.44
361.18	-50.92
361.391	-35.99
361.603	-32.81
361.814	-13.89
362.025	-12.99
362.237	-14.6
362.448	3.31
362.659	23.19
362.871	11.57
363.082	-5.37
363.293	3.72
363.504	-19.38
363.716	-42.87
363.927	-54.58
364.138	-59.32
364.349	-74.8
364.56	-54.26
364.772	-48.59
364.983	-13.03
365.194	-10.94
365.405	-4.68
365.616	6.31
365.827	8.85
366.038	-25
366.25	-32.32
366.461	-56.5
366.672	-23.51
366.883	-7.74
367.094	8.6
367.305	0.52
367.516	2.01
367.727	-32.25
367.938	-53.23
368.149	-61.39
368.36	-26.75
368.571	-18.54
368.781	-31.08
368.992	-34.18
369.203	-38.72
369.414	-60.57
369.625	-62.7
369.836	-40.95
370.047	-56.23
370.258	-47.98
370.468	-59.21
370.679	-72.03
370.89	-65.4
371.101	-40.63
371.312	-44.25
371.522	-32.31
371.733	-12.29
371.944	-2.23
372.155	-7.16
372.365	-15.62
372.576	-21.12
372.787	-26.28
372.997	-38.61
373.208	-33.01
373.419	-5.59
373.629	-23.9
373.84	-33.14
374.05	-58.11
374.261	-52.85
374.472	-74.51
374.682	-23.89
374.893	-19.53
375.103	17.2
375.314	15.18
375.524	18.59
375.735	5.7
375.945	16.89
376.156	-5.68
376.366	-3.28
376.577	1.98
376.787	-3.56
376.997	-12.54
377.208	-6.55
377.418	-17.83
377.629	-13.68
377.839	-8.35
378.049	1.06
378.26	16.43
378.47	22.92
378.68	18.34
378.89	17.31
379.101	7.62
379.311	-30.48
379.521	-52.84
379.732	-65.91
379.942	-65.53
380.152	-85.15
380.362	-33.01
380.572	-25.19
380.783	-5.76
380.993	7.67
381.203	26.28
381.413	28.09
381.623	35.44
381.833	25.3
382.043	15.07
382.253	6.4
382.463	-2.74
382.674	-14.13
382.884	-24.08
383.094	-24.56
383.304	-17.16
383.514	-13.43
383.724	-5.71
383.934	-8.91
384.144	-17.34
384.353	-24.09
384.563	-25.09
384.773	-16.68
384.983	-20.44
385.193	-1.77
385.403	8.17
385.613	7.24
385.823	-3.04
386.033	-0.56
386.242	-8.71
386.452	-17.82
386.662	-26.82
386.872	-17.05
387.082	-20.57
387.291	-26.28
387.501	-25.1
387.711	-9.63
387.921	-16.4
388.13	-8.35
388.34	0.65
388.55	-4.32
388.759	-12.65
388.969	-5.2
389.179	-10.13
389.388	-11.57
389.598	-6.68
389.807	-8.17
390.017	-12.56
390.227	-6.78
390.436	-10.1
390.646	-5.32
390.855	-1.92
391.065	-3.45
391.274	-5.31
391.484	-4.41
391.693	-7.42
391.903	-5.66
392.112	0.1
392.322	1.07
392.531	4.4
392.74	6.96
392.95	1.87
393.159	0.37
393.369	1.11
393.578	-0.01
393.787	-2.2
393.997	-0.27
394.206	-2.19
394.415	-4.04
394.625	-4.4
394.834	-5.72
395.043	-4.14
395.252	-1.13
395.462	0.87
395.671	2.27
395.88	3.36
396.089	4.37
396.298	2.01
396.508	1.25
396.717	1.01
396.926	1.13
397.135	-0.18
397.344	0.24
397.553	1.64
397.762	1.95
397.971	1.8
398.181	2.02
398.39	1.28
398.599	0.89
398.808	0.96
399.017	2.49
399.226	3.79
399.435	4.87
399.644	4.68
399.853	3.86
400.062	3.27
400.27	2.67
400.479	2.24
400.688	1.38
400.897	1.55
401.106	1.49
401.315	1.27
401.524	1.65
401.733	2.55
401.941	3.19
402.15	3.21
402.359	3.05
402.568	3.25
402.777	3.23
402.985	2.89
403.194	2.72
403.403	2.75
403.612	2.41
403.82	2.34
404.029	2.57
404.238	2.34
404.446	2.62
404.655	2.38
404.864	2.08
405.072	1.85
405.281	2.16
405.489	1.98
405.698	2.09
405.906	2.24
406.115	2.06
406.324	1.84
406.532	1.9
406.741	2.22
406.949	2.24
407.158	2.35
407.366	2.46
407.574	2.46
407.783	2.38
407.991	2.14
408.2	2.34
408.408	2.37
408.617	2.22
408.825	1.99
409.033	2.16
409.242	2.11
409.45	2.07
409.658	2.03
409.867	2.17
410.075	2.04
410.283	1.93
410.491	1.93
410.7	2
410.908	1.95
411.116	2.3
411.324	2.3
411.533	2.17
411.741	2.34
411.949	2.4
412.157	2.09
412.365	2.09
412.573	2.16
412.781	2.08
412.99	1.99
413.198	2.22
413.406	2.17
413.614	2.2
413.822	2.1
414.03	2.03
414.238	1.77
414.446	1.98
414.654	1.86
414.862	2
415.07	2.15
415.278	2.34
415.486	2.16
415.694	2.22
415.902	2.03
416.109	1.81
416.317	1.74
416.525	1.62
416.733	1.65
416.941	1.83
417.149	1.84
417.357	1.83
417.564	2.11
417.772	2.27
417.98	2.2
418.188	2.26
418.395	2.33
418.603	2.36
418.811	1.92
419.019	1.73
419.226	2.02
419.434	2.09
419.642	1.83
419.849	2.07
420.057	2.2
420.265	2.14
420.472	1.99
420.68	2.06
420.887	2.02
421.095	2.05
421.302	1.77
421.51	1.86
421.717	1.92
421.925	1.95
422.132	1.87
422.34	1.82
422.547	1.83
422.755	1.68
422.962	1.72
423.17	1.6
423.377	1.69
423.585	1.63
423.792	1.58
423.999	1.54
424.207	1.65
424.414	1.79
424.621	1.7
424.829	1.73
425.036	1.9
425.243	2.02
425.451	1.93
425.658	1.78
425.865	2.04
426.072	1.86
426.28	1.95
426.487	1.79
426.694	1.98
426.901	1.74
427.108	1.76
427.315	1.64
427.523	1.98
427.73	2.03
427.937	2.12
428.144	1.98
428.351	1.96
428.558	1.89
428.765	1.81
428.972	1.7
429.179	1.8
429.386	2.16
429.593	1.98
429.8	1.85
430.007	1.98
430.214	2.1
430.421	1.68
430.628	1.6
430.835	1.53
431.042	1.58
431.249	1.6
431.456	1.66
431.662	1.77
431.869	1.95
432.076	1.99
432.283	2.03
432.49	2.04
432.697	2.11
432.903	1.93
433.11	1.9
433.317	1.92
433.524	2.07
433.73	2.01
433.937	2.34
434.144	2.17
434.35	2.13
434.557	2
434.764	2.03
434.97	1.86
435.177	2.06
435.384	1.94
435.59	2.15
435.797	2.33
436.003	2.41
436.21	2.34
436.416	2.5
436.623	2.37
436.829	2.38
437.036	2.45
437.242	2.48
437.449	2.29
437.655	2.3
437.862	2.32
438.068	2.22
438.275	2.27
438.481	2.5
438.687	2.49
438.894	2.4
439.1	2.46
439.307	2.61
439.513	2.5
439.719	2.56
439.926	2.6
440.132	2.57
440.338	2.31
440.544	2.43
440.751	2.37
440.957	2.48
441.163	2.45
441.369	2.63
441.575	2.45
441.782	2.4
441.988	2.16
442.194	2.17
442.4	2.09
442.606	2.36
442.812	2.41
443.018	2.52
443.224	2.55
443.431	2.67
443.637	2.45
443.843	2.43
444.049	2.5
444.255	2.4
444.461	2.4
444.667	2.36
444.873	2.43
445.079	2.39
445.284	2.55
445.49	2.36
445.696	2.27
445.902	2.25
446.108	2.25
446.314	2.11
446.52	2.16
446.726	2.4
446.931	2.41
447.137	2.4
447.343	2.48
447.549	2.53
447.755	2.41
447.96	2.41
448.166	2.35
448.372	2.33
448.578	2.35
448.783	2.38
448.989	2.45
449.195	2.67
449.4	2.69
449.606	2.59
449.812	2.51
450.017	2.5
450.223	2.37
450.428	2.31
450.634	2.45
450.84	2.6
451.045	2.59
451.251	2.5
451.456	2.72
451.662	2.8
451.867	2.82
452.073	2.75
452.278	2.85
452.483	2.88
452.689	2.76
452.894	2.79
453.1	2.77
453.305	2.67
453.51	2.6
453.716	2.51
453.921	2.56
454.127	2.55
454.332	2.58
454.537	2.52
454.742	2.54
454.948	2.43
455.153	2.5
455.358	2.62
455.563	2.74
455.769	2.86
455.974	2.87
456.179	2.7
456.384	2.68
456.589	2.62
456.795	2.46
457	2.44
457.205	2.65
457.41	2.58
457.615	2.49
457.82	2.6
458.025	2.64
458.23	2.54
458.435	2.58
458.64	2.55
458.845	2.68
459.05	2.66
459.255	2.74
459.46	2.71
459.665	2.75
459.87	2.71
460.075	2.63
460.28	2.7
460.485	2.77
460.69	2.85
460.895	2.73
461.099	2.74
461.304	2.72
461.509	2.77
461.714	2.71
461.919	2.82
462.123	2.79
462.328	2.79
462.533	2.71
462.738	2.79
462.942	2.73
463.147	2.82
463.352	2.89
463.556	2.88
463.761	2.86
463.966	2.97
464.17	2.95
464.375	2.88
464.58	2.9
464.784	2.92
464.989	2.76
465.193	2.79
465.398	2.77
465.602	2.87
465.807	2.78
466.011	2.86
466.216	2.85
466.42	2.89
466.625	2.92
466.829	2.95
467.034	3.02
467.238	3.2
467.443	3.12
467.647	2.92
467.851	3.08
468.056	3.09
468.26	2.93
468.464	3.01
468.669	3.17
468.873	3.23
469.077	3.16
469.282	3.28
469.486	3.38
469.69	3.4
469.894	3.22
470.099	3.34
470.303	3.36
470.507	3.13
470.711	2.98
470.915	3.04
471.119	2.97
471.324	2.9
471.528	3.05
471.732	3.16
471.936	3.08
472.14	3.16
472.344	3.2
472.548	3.12
472.752	3.27
472.956	3.53
473.16	3.5
473.364	3.42
473.568	3.53
473.772	3.53
473.976	3.38
474.18	3.33
474.384	3.46
474.588	3.44
474.792	3.3
474.995	3.37
475.199	3.42
475.403	3.41
475.607	3.5
475.811	3.45
476.015	3.49
476.218	3.58
476.422	3.54
476.626	3.54
476.83	3.68
477.033	3.6
477.237	3.51
477.441	3.54
477.644	3.47
477.848	3.46
478.052	3.44
478.255	3.49
478.459	3.47
478.663	3.62
478.866	3.63
479.07	3.61
479.273	3.69
479.477	3.72
479.681	3.62
479.884	3.65
480.088	3.69
480.291	3.63
480.495	3.64
480.698	3.58
480.901	3.62
481.105	3.73
481.308	3.69
481.512	3.73
481.715	3.89
481.919	3.86
482.122	3.79
482.325	3.82
482.529	3.81
482.732	3.74
482.935	3.71
483.138	3.65
483.342	3.79
483.545	3.87
483.748	3.87
483.952	3.97
484.155	4.16
484.358	4.14
484.561	4.07
484.764	4.06
484.967	4.09
485.171	4.16
485.374	4.08
485.577	4.17
485.78	4.2
485.983	4.15
486.186	3.99
486.389	3.92
486.592	3.85
486.795	3.93
486.998	3.91
487.201	3.93
487.404	4.07
487.607	4.18
487.81	4.12
488.013	4.19
488.216	4.18
488.419	4.12
488.622	4.04
488.825	3.99
489.028	3.92
489.231	3.89
489.433	3.83
489.636	3.72
489.839	3.74
490.042	3.7
490.245	3.73
490.447	3.83
490.65	3.93
490.853	3.92
491.056	4.01
491.258	4.03
491.461	3.97
491.664	4
491.866	4
492.069	4.04
492.272	3.99
492.474	4.04
492.677	4.07
492.879	4.17
493.082	4.17
493.285	4.3
493.487	4.28
493.69	4.24
493.892	4.09
494.095	4.03
494.297	3.96
494.5	3.95
494.702	3.96
494.905	4.03
495.107	4.05
495.309	3.99
495.512	4.01
495.714	4.02
495.917	4.11
496.119	4.12
496.321	4.23
496.524	4.28
496.726	4.28
496.928	4.25
497.13	4.23
497.333	4.2
497.535	4.18
497.737	4.23
497.939	4.23
498.142	4.26
498.344	4.27
498.546	4.16
498.748	4.19
498.95	4.27
499.152	4.23
499.355	4.25
499.557	4.39
499.759	4.42
499.961	4.32
500.163	4.38
500.365	4.37
500.567	4.43
500.769	4.4
500.971	4.48
501.173	4.44
501.375	4.45
501.577	4.33
501.779	4.25
501.981	4.24
502.183	4.26
502.385	4.24
502.587	4.21
502.788	4.28
502.99	4.33
503.192	4.37
503.394	4.36
503.596	4.49
503.798	4.52
503.999	4.5
504.201	4.48
504.403	4.54
504.605	4.53
504.806	4.53
505.008	4.53
505.21	4.57
505.411	4.56
505.613	4.55
505.815	4.52
506.016	4.55
506.218	4.65
506.42	4.62
506.621	4.69
506.823	4.74
507.024	4.67
507.226	4.57
507.427	4.59
507.629	4.57
507.83	4.58
508.032	4.64
508.233	4.76
508.435	4.81
508.636	4.78
508.838	4.72
509.039	4.68
509.24	4.62
509.442	4.63
509.643	4.59
509.845	4.67
510.046	4.71
510.247	4.72
510.448	4.73
510.65	4.78
510.851	4.86
511.052	4.92
511.254	4.9
511.455	4.97
511.656	5.05
511.857	5.04
512.058	5.01
512.26	5.04
512.461	5
512.662	5.01
512.863	4.93
513.064	4.94
513.265	4.93
513.466	4.98
513.667	4.94
513.868	4.96
514.069	5.01
514.27	5.05
514.471	4.92
514.672	4.93
514.873	5.01
515.074	4.98
515.275	4.89
515.476	4.97
515.677	5
515.878	5.04
516.079	5
516.28	5.09
516.481	5.18
516.682	5.25
516.882	5.15
517.083	5.19
517.284	5.11
517.485	5.06
517.686	4.94
517.886	5
518.087	5.04
518.288	5.14
518.488	5.09
518.689	5.15
518.89	5.12
519.091	5.12
519.291	5.1
519.492	5.18
519.692	5.24
519.893	5.27
520.094	5.28
520.294	5.28
520.495	5.19
520.695	5.22
520.896	5.25
521.096	5.28
521.297	5.31
521.497	5.41
521.698	5.32
521.898	5.28
522.099	5.27
522.299	5.33
522.499	5.35
522.7	5.42
522.9	5.37
523.101	5.42
523.301	5.4
523.501	5.32
523.702	5.34
523.902	5.45
524.102	5.46
524.302	5.44
524.503	5.51
524.703	5.49
524.903	5.49
525.103	5.43
525.304	5.5
525.504	5.58
525.704	5.64
525.904	5.63
526.104	5.65
526.304	5.64
526.504	5.58
526.705	5.53
526.905	5.6
527.105	5.61
527.305	5.59
527.505	5.61
527.705	5.63
527.905	5.61
528.105	5.61
528.305	5.6
528.505	5.64
528.705	5.65
528.905	5.6
529.105	5.61
529.304	5.64
529.504	5.67
529.704	5.62
529.904	5.65
530.104	5.66
530.304	5.71
530.503	5.7
530.703	5.66
530.903	5.65
531.103	5.71
531.303	5.69
531.502	5.71
531.702	5.85
531.902	5.88
532.101	5.83
532.301	5.85
532.501	5.84
532.7	5.77
532.9	5.78
533.1	5.78
533.299	5.79
533.499	5.83
533.698	5.81
533.898	5.85
534.097	5.91
534.297	5.99
534.496	6.01
534.696	6.05
534.895	6.12
535.095	6.17
535.294	6.09
535.494	6.01
535.693	6.04
535.892	6.04
536.092	5.97
536.291	6
536.491	6.13
536.69	6.18
536.889	6.09
537.088	6.11
537.288	6.15
537.487	6.15
537.686	6.16
537.886	6.22
538.085	6.29
538.284	6.39
538.483	6.36
538.682	6.43
538.882	6.5
539.081	6.52
539.28	6.37
539.479	6.37
539.678	6.32
539.877	6.37
540.076	6.38
540.275	6.46
540.474	6.57
540.673	6.64
540.872	6.56
541.071	6.61
541.27	6.66
541.469	6.67
541.668	6.66
541.867	6.68
542.066	6.71
542.265	6.72
542.464	6.65
542.663	6.67
542.862	6.8
543.06	6.84
543.259	6.89
543.458	7.03
543.657	7.11
543.856	7.13
544.054	7.07
544.253	7.12
544.452	7.13
544.651	7.14
544.849	7.12
545.048	7.26
545.247	7.26
545.445	7.28
545.644	7.32
545.843	7.31
546.041	7.26
546.24	7.33
546.438	7.4
546.637	7.42
546.836	7.54
547.034	7.6
547.233	7.6
547.431	7.59
547.63	7.61
547.828	7.57
548.027	7.63
548.225	7.67
548.423	7.74
548.622	7.85
548.82	7.88
549.019	7.91
549.217	8.02
549.415	8.06
549.614	8.11
549.812	8.17
550.01	8.17
550.209	8.19
550.407	8.22
550.605	8.19
550.803	8.32
551.002	8.43
551.2	8.44
551.398	8.55
551.596	8.7
551.794	8.74
551.993	8.83
552.191	8.87
552.389	8.91
552.587	8.95
552.785	9.01
552.983	9.01
553.181	9.16
553.379	9.19
553.577	9.18
553.775	9.28
553.973	9.37
554.171	9.43
554.369	9.44
554.567	9.53
554.765	9.59
554.963	9.65
555.161	9.63
555.359	9.78
555.557	9.86
555.755	9.9
555.952	10.07
556.15	10.16
556.348	10.23
556.546	10.36
556.744	10.41
556.941	10.43
557.139	10.55
557.337	10.56
557.535	10.54
557.732	10.62
557.93	10.78
558.128	10.89
558.325	11.07
558.523	11.19
558.721	11.37
558.918	11.31
559.116	11.35
559.313	11.39
559.511	11.51
559.708	11.56
559.906	11.68
560.104	11.78
560.301	11.93
560.498	12.04
560.696	12.07
560.893	12.12
561.091	12.19
561.288	12.26
561.486	12.28
561.683	12.36
561.88	12.52
562.078	12.65
562.275	12.64
562.473	12.78
562.67	13
562.867	13.1
563.064	13.2
563.262	13.24
563.459	13.27
563.656	13.4
563.853	13.47
564.051	13.55
564.248	13.77
564.445	13.88
564.642	13.87
564.839	13.99
565.036	14.13
565.234	14.31
565.431	14.41
565.628	14.58
565.825	14.74
566.022	14.86
566.219	14.83
566.416	14.95
566.613	14.99
566.81	14.94
567.007	14.89
567.204	14.95
567.401	15
567.598	15.09
567.795	15.28
567.991	15.42
568.188	15.57
568.385	15.7
568.582	15.79
568.779	15.87
568.976	15.97
569.172	16.1
569.369	16.11
569.566	16.13
569.763	16.16
569.96	16.2
570.156	16.18
570.353	16.22
570.55	16.31
570.746	16.35
570.943	16.4
571.14	16.44
571.336	16.56
571.533	16.64
571.729	16.63
571.926	16.75
572.123	16.86
572.319	16.93
572.516	16.86
572.712	17
572.909	16.98
573.105	17.08
573.302	17.11
573.498	17.3
573.695	17.29
573.891	17.4
574.087	17.32
574.284	17.32
574.48	17.26
574.677	17.32
574.873	17.32
575.069	17.5
575.266	17.64
575.462	17.69
575.658	17.78
575.854	17.88
576.051	17.81
576.247	17.76
576.443	17.73
576.639	17.68
576.835	17.57
577.032	17.54
577.228	17.62
577.424	17.7
577.62	17.64
577.816	17.74
578.012	17.78
578.208	17.68
578.404	17.74
578.6	17.77
578.796	17.75
578.993	17.78
579.189	17.78
579.384	17.64
579.58	17.68
579.776	17.63
579.972	17.52
580.168	17.55
580.364	17.68
580.56	17.62
580.756	17.65
580.952	17.68
581.148	17.7
581.343	17.68
581.539	17.79
581.735	17.77
581.931	17.9
582.127	17.93
582.322	17.88
582.518	17.9
582.714	17.94
582.909	17.84
583.105	17.79
583.301	17.76
583.496	17.74
583.692	17.71
583.888	17.67
584.083	17.76
584.279	17.8
584.474	17.75
584.67	17.79
584.866	17.85
585.061	17.7
585.257	17.78
585.452	17.8
585.648	17.75
585.843	17.74
586.039	17.84
586.234	17.77
586.429	17.7
586.625	17.76
586.82	17.73
587.015	17.68
587.211	17.63
587.406	17.75
587.601	17.69
587.797	17.75
587.992	17.7
588.187	17.85
588.383	17.71
588.578	17.62
588.773	17.64
588.968	17.71
589.163	17.72
589.359	17.78
589.554	17.93
589.749	17.94
589.944	18.04
590.139	18.06
590.334	18.08
590.529	18.06
590.724	18.11
590.919	18.13
591.114	18.13
591.309	18.28
591.504	18.31
591.699	18.28
591.894	18.31
592.089	18.37
592.284	18.36
592.479	18.51
592.674	18.55
592.869	18.62
593.064	18.63
593.259	18.73
593.454	18.79
593.648	18.91
593.843	18.92
594.038	19.02
594.233	18.98
594.428	18.99
594.622	19.06
594.817	19.19
595.012	19.23
595.206	19.32
595.401	19.38
595.596	19.42
595.79	19.49
595.985	19.61
596.18	19.74
596.374	19.82
596.569	19.88
596.763	19.9
596.958	19.96
597.153	19.97
597.347	20.04
597.542	20.2
597.736	20.27
597.931	20.32
598.125	20.42
598.319	20.5
598.514	20.43
598.708	20.52
598.903	20.57
599.097	20.67
599.291	20.73
599.486	20.76
599.68	20.73
599.874	20.78
600.069	20.72
600.263	20.8
600.457	20.95
600.651	21.02
600.846	21.11
601.04	21.18
601.234	21.24
601.428	21.31
601.622	21.38
601.817	21.45
602.011	21.48
602.205	21.5
602.399	21.54
602.593	21.62
602.787	21.57
602.981	21.57
603.175	21.63
603.369	21.51
603.563	21.45
603.757	21.59
603.951	21.62
604.145	21.5
604.339	21.55
604.533	21.44
604.727	21.28
604.921	21.26
605.115	21.34
605.309	21.42
605.502	21.53
605.696	21.53
605.89	21.46
606.084	21.4
606.278	21.28
606.471	21.15
606.665	21.06
606.859	21.04
607.053	20.93
607.246	20.96
607.44	20.93
607.634	20.92
607.827	20.98
608.021	20.92
608.214	20.82
608.408	20.8
608.602	20.72
608.795	20.56
608.989	20.49
609.182	20.41
609.376	20.4
609.569	20.32
609.763	20.25
609.956	20.24
610.15	20.13
610.343	20.03
610.537	20.01
610.73	19.99
610.923	19.98
611.117	20.05
611.31	20.01
611.504	19.9
611.697	19.77
611.89	19.61
612.083	19.43
612.277	19.44
612.47	19.35
612.663	19.37
612.856	19.35
613.05	19.28
613.243	19.04
613.436	18.94
613.629	18.81
613.822	18.73
614.015	18.68
614.209	18.62
614.402	18.62
614.595	18.58
614.788	18.45
614.981	18.33
615.174	18.2
615.367	18.11
615.56	18.02
615.753	17.94
615.946	17.95
616.139	18.01
616.332	18.12
616.525	18.12
616.718	18.2
616.911	18.11
617.103	17.99
617.296	17.87
617.489	17.76
617.682	17.66
617.875	17.69
618.067	17.64
618.26	17.55
618.453	17.57
618.646	17.55
618.838	17.46
619.031	17.53
619.224	17.47
619.417	17.42
619.609	17.44
619.802	17.37
619.994	17.33
620.187	17.29
620.38	17.22
620.572	17.07
620.765	17.16
620.957	17.03
621.15	16.94
621.342	16.97
621.535	17.02
621.727	16.86
621.92	16.93
622.112	17.01
622.305	17.07
622.497	17.01
622.69	17.03
622.882	17
623.074	17.02
623.267	16.83
623.459	16.79
623.651	16.71
623.844	16.7
624.036	16.61
624.228	16.63
624.42	16.65
624.613	16.72
624.805	16.64
624.997	16.59
625.189	16.56
625.381	16.53
625.574	16.44
625.766	16.38
625.958	16.4
626.15	16.44
626.342	16.43
626.534	16.43
626.726	16.45
626.918	16.41
627.11	16.28
627.302	16.27
627.494	16.24
627.686	16.26
627.878	16.2
628.07	16.31
628.262	16.22
628.454	16.27
628.646	16.31
628.838	16.33
629.029	16.23
629.221	16.33
629.413	16.14
629.605	15.96
629.797	15.93
629.989	15.93
630.18	15.88
630.372	15.92
630.564	15.91
630.755	15.93
630.947	15.96
631.139	15.8
631.33	15.68
631.522	15.75
631.714	15.69
631.905	15.61
632.097	15.53
632.289	15.59
632.48	15.51
632.672	15.4
632.863	15.27
633.055	15.29
633.246	15.31
633.438	15.19
633.629	15.22
633.821	15.33
634.012	15.37
634.203	15.25
634.395	15.28
634.586	15.39
634.777	15.25
634.969	15.22
635.16	15.33
635.351	15.3
635.543	15.26
635.734	15.32
635.925	15.34
636.117	15.31
636.308	15.35
636.499	15.23
636.69	15.1
636.881	15.04
637.073	15.08
637.264	14.98
637.455	14.98
637.646	15.11
637.837	15.11
638.028	14.98
638.219	15.13
638.41	15.11
638.601	14.99
638.792	15.01
638.983	15.05
639.174	14.88
639.365	14.96
639.556	15.04
639.747	15.01
639.938	15.02
640.129	15.05
640.32	14.89
640.511	14.87
640.701	14.98
640.892	14.86
641.083	14.87
641.274	14.9
641.465	14.84
641.655	14.66
641.846	14.74
642.037	14.68
642.228	14.64
642.418	14.7
642.609	14.75
642.8	14.73
642.99	14.76
643.181	14.89
643.372	14.84
643.562	14.79
643.753	14.71
643.943	14.61
644.134	14.41
644.324	14.37
644.515	14.35
644.705	14.44
644.896	14.51
645.086	14.53
645.277	14.48
645.467	14.44
645.658	14.35
645.848	14.34
646.038	14.49
646.229	14.43
646.419	14.43
646.61	14.41
646.8	14.36
646.99	14.17
647.18	14.12
647.371	14.1
647.561	14.07
647.751	14.08
647.941	14.08
648.132	14.15
648.322	14.07
648.512	14.13
648.702	14.15
648.892	14.12
649.082	14.16
649.272	14.05
649.462	13.94
649.653	13.78
649.843	13.77
650.033	13.72
650.223	13.71
650.413	13.66
650.603	13.69
650.793	13.71
650.983	13.64
651.172	13.69
651.362	13.6
651.552	13.51
651.742	13.38
651.932	13.39
652.122	13.35
652.312	13.46
652.502	13.4
652.691	13.39
652.881	13.28
653.071	13.18
653.261	13.01
653.45	12.92
653.64	12.96
653.83	12.87
654.019	12.78
654.209	12.71
654.399	12.66
654.588	12.39
654.778	12.28
654.968	12.14
655.157	12.02
655.347	11.88
655.536	11.82
655.726	11.7
655.915	11.66
656.105	11.59
656.294	11.52
656.484	11.42
656.673	11.39
656.863	11.32
657.052	11.2
657.241	11.03
657.431	10.83
657.62	10.66
657.809	10.36
657.999	10.2
658.188	10.01
658.377	9.82
658.567	9.74
658.756	9.57
658.945	9.5
659.134	9.36
659.324	9.32
659.513	9.12
659.702	8.99
659.891	8.82
660.08	8.77
660.269	8.69
660.458	8.52
660.648	8.5
660.837	8.35
661.026	8.26
661.215	8.08
661.404	7.97
661.593	7.97
661.782	7.81
661.971	7.7
662.16	7.63
662.349	7.57
662.538	7.34
662.726	7.25
662.915	7.11
663.104	6.99
663.293	6.91
663.482	6.96
663.671	6.99
663.86	6.88
664.048	6.82
664.237	6.79
664.426	6.57
664.615	6.48
664.803	6.51
664.992	6.32
665.181	6.28
665.369	6.24
665.558	6.2
665.747	6.09
665.935	6.24
666.124	6.2
666.312	6.24
666.501	6.18
666.69	6.1
666.878	6.05
667.067	5.95
667.255	5.97
667.444	6.21
667.632	6.27
667.82	6.35
668.009	6.35
668.197	6.25
668.386	6.11
668.574	6.21
668.762	6.04
668.951	5.98
669.139	6.02
669.327	5.88
669.516	5.89
669.704	5.91
669.892	6.15
670.08	6.15
670.269	6.09
670.457	6.02
670.645	5.97
670.833	5.97
671.021	5.95
671.21	6.13
671.398	6.34
671.586	6.42
671.774	6.28
671.962	6.27
672.15	6.23
672.338	6.09
672.526	6.05
672.714	6.12
672.902	6.27
673.09	6.48
673.278	6.66
673.466	6.81
673.654	6.98
673.842	6.98
674.03	6.93
674.218	6.84
674.405	6.9
674.593	6.8
674.781	6.82
674.969	6.85
675.157	7.04
675.344	7.13
675.532	7.27
675.72	7.44
675.908	7.62
676.095	7.49
676.283	7.57
676.471	7.81
676.658	7.87
676.846	7.81
677.033	8.09
677.221	8.06
677.409	7.85
677.596	7.97
677.784	7.98
677.971	7.91
678.159	8.05
678.346	8.22
678.534	8.16
678.721	8.44
678.909	8.54
679.096	8.6
679.283	8.81
679.471	9.04
679.658	9.04
679.846	9.15
680.033	9.32
680.22	9.31
680.408	9.29
680.595	9.4
680.782	9.42
680.969	9.5
681.157	9.57
681.344	9.6
681.531	9.66
681.718	9.74
681.905	9.9
682.093	10.1
682.28	10.39
682.467	10.69
682.654	10.83
682.841	10.92
683.028	11.08
683.215	11.12
683.402	11.05
683.589	11.34
683.776	11.55
683.963	11.62
684.15	11.85
684.337	12.08
684.524	12.15
684.711	12.3
684.898	12.48
685.085	12.7
685.271	13.06
685.458	13.38
685.645	13.59
685.832	13.8
686.019	14.19
686.205	14.29
686.392	14.53
686.579	14.83
686.766	15.36
686.952	15.41
687.139	15.94
687.326	16.13
687.512	16.49
687.699	16.63
687.886	17.02
688.072	17.21
688.259	17.76
688.445	18.12
688.632	18.46
688.818	19.03
689.005	19.41
689.191	19.71
689.378	20.32
689.564	20.89
689.751	21.44
689.937	21.84
690.124	22.59
690.31	22.86
690.496	23.35
690.683	23.75
690.869	24.33
691.055	24.77
691.242	25.69
691.428	26.48
691.614	27.03
691.8	27.72
691.987	28.37
692.173	28.89
692.359	29.38
692.545	30.25
692.731	31.07
692.918	31.67
693.104	32.33
693.29	33.04
693.476	33.68
693.662	34.24
693.848	34.95
694.034	35.48
694.22	36.16
694.406	36.83
694.592	37.57
694.778	38.29
694.964	39.02
695.15	39.74
695.336	40.27
695.522	41.22
695.708	41.98
695.894	42.81
696.08	43.66
696.265	44.56
696.451	45.26
696.637	45.89
696.823	46.5
697.009	46.75
697.194	47.26
697.38	47.71
697.566	48.22
697.751	48.97
697.937	50.08
698.123	50.83
698.308	51.42
698.494	52.29
698.68	52.75
698.865	53.22
699.051	53.72
699.236	54.42
699.422	55.03
699.607	55.6
699.793	56.2
699.978	56.53
700.164	56.79
700.349	57.29
700.535	57.86
700.72	58.19
700.906	59.25
701.091	59.96
701.276	60.41
701.462	61.1
701.647	62.02
701.832	62.64
702.018	63.21
702.203	63.41
702.388	63.48
702.573	63.63
702.759	64.07
702.944	64.6
703.129	65.43
703.314	65.94
703.499	66.42
703.684	66.6
703.87	67.29
704.055	68.15
704.24	68.91
704.425	69.39
704.61	69.62
704.795	69.73
704.98	69.31
705.165	69.14
705.35	69.38
705.535	69.89
705.72	70.14
705.905	70.9
706.09	71.48
706.275	71.7
706.459	71.71
706.644	71.86
706.829	72.07
707.014	72.33
707.199	72.78
707.384	73.41
707.568	73.72
707.753	74.3
707.938	74.9
708.123	75.04
708.307	75.24
708.492	75.57
708.677	75.66
708.861	75.55
709.046	75.85
709.231	76.71
709.415	77.18
709.6	76.84
709.784	76.9
709.969	76.84
710.153	76.23
710.338	76.06
710.522	76.64
710.707	77.05
710.891	77.76
711.076	77.82
711.26	78.1
711.445	78.37
711.629	78.49
711.813	78.42
711.998	78.76
712.182	78.49
712.366	79.12
712.551	79.77
712.735	80.12
712.919	80.06
713.103	80.35
713.288	80.16
713.472	79.76
713.656	80.42
713.84	80.92
714.024	81.44
714.208	81.19
714.393	81.98
714.577	81.71
714.761	81.84
714.945	82.07
715.129	82.33
715.313	82
715.497	81.78
715.681	82.43
715.865	82.53
716.049	82.74
716.233	82.92
716.417	82.97
716.601	82.46
716.785	82.27
716.968	82.37
717.152	82.46
717.336	82.58
717.52	82.82
717.704	83.04
717.888	83.58
718.071	84.02
718.255	84.37
718.439	84.31
718.622	84.34
718.806	84.33
718.99	83.81
719.174	83.92
719.357	83.98
719.541	84.48
719.724	83.88
719.908	84.64
720.092	84.98
720.275	85.23
720.459	84.99
720.642	85.15
720.826	84.96
721.009	84.82
721.193	84.45
721.376	84.6
721.559	85.02
721.743	84.9
721.926	84.99
722.11	85.71
722.293	85.24
722.476	85.01
722.66	85.21
722.843	85.21
723.026	84.44
723.21	85.13
723.393	86.08
723.576	85.91
723.759	85.21
723.942	85.84
724.126	85.6
724.309	85.54
724.492	85.84
724.675	86.58
724.858	86.9
725.041	87.51
725.224	87.07
725.407	87.33
725.59	87.92
725.774	87.41
725.957	86.54
726.14	86.48
726.322	86.71
726.505	86.01
726.688	86.96
726.871	87.47
727.054	87.95
727.237	88.32
727.42	88.77
727.603	88.44
727.786	89.03
727.968	88.75
728.151	88.26
728.334	88.1
728.517	88.39
728.699	88.04
728.882	88.08
729.065	88.38
729.248	88.74
729.43	89.11
729.613	90.07
729.796	91.06
729.978	90.67
730.161	90.64
730.343	89.68
730.526	89.81
730.708	88.9
730.891	88.99
731.073	88.74
731.256	89.18
731.438	88.88
731.621	89.97
731.803	90.07
731.986	90.03
732.168	89.15
732.35	89.01
732.533	88.38
732.715	88.79
732.898	89.35
733.08	89.97
733.262	90.25
733.444	89.89
733.627	90.11
733.809	90.02
733.991	90.79
734.173	90.33
734.355	90.08
734.538	90.53
734.72	90.44
734.902	90.36
735.084	91.13
735.266	92.09
735.448	92.29
735.63	92.87
735.812	93.41
735.994	93.93
736.176	94.25
736.358	93.72
736.54	94.46
736.722	93.66
736.904	92.76
737.086	92.2
737.268	93.02
737.45	92.12
737.632	92.52
737.814	92.38
737.995	93.17
738.177	91.71
738.359	91.41
738.541	91.5
738.723	91.98
738.904	91.7
739.086	92.62
739.268	93.01
739.449	93.26
739.631	93.29
739.813	93.24
739.994	93.71
740.176	93.87
740.358	93.75
740.539	94.79
740.721	95.68
740.902	95.54
741.084	95.34
741.265	94.8
741.447	94.14
741.628	93.55
741.81	92.55
741.991	93.5
742.172	94.52
742.354	94.91
742.535	95.13
742.717	96.06
742.898	96.57
743.079	97.24
743.261	96.31
743.442	95.05
743.623	95.54
743.804	94.16
743.986	94.44
744.167	93.9
744.348	94.93
744.529	94.55
744.71	93.63
744.891	92.61
745.073	92.81
745.254	91.72
745.435	91.55
745.616	91.89
745.797	91.67
745.978	91.34
746.159	92.61
746.34	92.16
746.521	94.74
746.702	93.85
746.883	94.5
747.064	93.56
747.245	93.29
747.426	91.64
747.606	92.59
747.787	93.08
747.968	93.66
748.149	94.05
748.33	93.87
748.51	93.56
748.691	92.7
748.872	92.93
749.053	92.65
749.233	91.94
749.414	91.57
749.595	90.12
749.775	89.05
749.956	89.24
750.137	90.45
750.317	91.24
750.498	94.5
750.678	94.98
750.859	95.54
751.04	94.51
751.22	93.09
751.4	91.85
751.581	91.37
751.761	91.56
751.942	92.17
752.122	93.04
752.303	91.84
752.483	92.26
752.663	91.99
752.844	91.06
753.024	91.43
753.204	92.88
753.385	92.98
753.565	92.43
753.745	93.21
753.925	92.75
754.106	92.03
754.286	91.84
754.466	92.13
754.646	92.28
754.826	91.4
755.006	90.15
755.187	89.69
755.367	89.53
755.547	89.86
755.727	91.57
755.907	92.28
756.087	93.5
756.267	93.89
756.447	93.69
756.627	90.96
756.807	91.91
756.987	91.12
757.167	90.86
757.346	89.7
757.526	90.11
757.706	90.45
757.886	91.51
758.066	91.73
758.246	95.39
758.425	95.56
758.605	95.16
758.785	94
758.965	93.37
759.144	88.83
759.324	90.73
759.504	90.31
759.683	90.68
759.863	89.82
760.043	90.39
760.222	89.32
760.402	88.39
760.581	86.76
760.761	88.65
760.94	87.46
761.12	87.66
761.299	88.79
761.479	89.37
761.658	86.89
761.838	88.43
762.017	88.12
762.197	88.5
762.376	89.07
762.555	91.03
762.735	91.84
762.914	90.52
763.093	89.4
763.273	88.55
763.452	88.14
763.631	86.63
763.81	87.35
763.99	86.87
764.169	87.74
764.348	86.07
764.527	86.39
764.706	87.25
764.885	89.6
765.064	88.2
765.243	88.73
765.423	90.59
765.602	89.28
765.781	86.33
765.96	86.16
766.139	85
766.318	84.8
766.497	84.56
766.676	85.21
766.854	86.93
767.033	87.74
767.212	85.18
767.391	87.29
767.57	87.63
767.749	86.79
767.928	88
768.106	88.64
768.285	85.87
768.464	85.45
768.643	84.79
768.821	84
769	84.19
769.179	84.16
769.357	83.83
769.536	83.91
769.715	83.77
769.893	85.31
770.072	86.41
770.25	88.29
770.429	88.66
770.607	88.62
770.786	87.94
770.964	89.12
771.143	87.47
771.321	89.13
771.5	90.44
771.678	88.32
771.857	86.34
772.035	85.52
772.213	82.78
772.392	79.7
772.57	82.33
772.748	82.1
772.927	82.51
773.105	82.5
773.283	85.32
773.461	84.5
773.64	87.09
773.818	87.86
773.996	88.84
774.174	87.43
774.352	86.45
774.531	79.93
774.709	80.41
774.887	79.54
775.065	78.72
775.243	78.87
775.421	82.65
775.599	82.86
775.777	81.58
775.955	79.97
776.133	77.87
776.311	78.68
776.489	76.22
776.667	77.88
776.844	78.4
777.022	78.67
777.2	78.77
777.378	80.43
777.556	80.94
777.734	85.07
777.911	88.84
778.089	88.31
778.267	87.31
778.445	86.59
778.622	85.45
778.8	81.82
778.978	81.63
779.155	80.92
779.333	80.63
779.511	78.17
779.688	82.85
779.866	79.67
780.043	77.93
780.221	77.86
780.398	76
780.576	74.28
780.753	77.68
780.931	79.59
781.108	80.16
781.286	82.87
781.463	79.55
781.64	76.26
781.818	77.32
781.995	76.19
782.172	76.89
782.35	78.57
782.527	83.81
782.704	82.71
782.882	83.02
783.059	81.47
783.236	82.47
783.413	82.23
783.59	83.44
783.768	80.08
783.945	82.52
784.122	83.66
784.299	81.09
784.476	78.16
784.653	79.68
784.83	74.58
785.007	69.12
785.184	69.78
785.361	71.97
785.538	76.77
785.715	81.15
785.892	84.65
786.069	85.86
786.246	84.7
786.423	82.86
786.6	82.47
786.776	83.45
786.953	82.53
787.13	83.51
787.307	82.34
787.484	80.96
787.66	77.76
787.837	78.29
788.014	77.11
788.191	73.96
788.367	70.73
788.544	76.36
788.721	74.97
788.897	76.82
789.074	81.5
789.25	80.38
789.427	78.5
789.603	79.17
789.78	80.01
789.956	77.9
790.133	81.94
790.309	79.78
790.486	81.61
790.662	78.53
790.839	80.05
791.015	80.05
791.192	77.8
791.368	80.75
791.544	82.51
791.721	80.7
791.897	82.63
792.073	80.59
792.249	71.2
792.426	68.75
792.602	71.27
792.778	68.08
792.954	71.15
793.13	74.12
793.307	70.95
793.483	61.54
793.659	62.4
793.835	64.13
794.011	62.31
794.187	64.33
794.363	63.09
794.539	65.36
794.715	62.4
794.891	61.96
795.067	62.43
795.243	70.83
795.419	68.34
795.595	67.4
795.771	71.62
795.947	68.77
796.122	64.75
796.298	68.25
796.474	70.97
796.65	66.31
796.826	67.14
797.001	71.01
797.177	64.13
797.353	69.35
797.529	73.13
797.704	73.9
797.88	71.26
798.056	67.19
798.231	59.89
798.407	62.52
798.582	64.02
798.758	71.05
798.934	78.32
799.109	79.43
799.285	67.8
799.46	71.47
799.636	66.51
799.811	68.59
799.986	66.82
800.162	73.88
800.337	72.61
800.513	72.2
800.688	70.41
800.863	79.01
801.039	72.94
801.214	69.23
801.389	67.96
801.565	66.62
801.74	54.97
801.915	67.58
802.09	72.07
802.265	71.45
802.441	72.5
802.616	73.02
802.791	66.05
802.966	64.48
803.141	69.74
803.316	65.44
803.491	71.25
803.666	77.98
803.841	71.87
804.016	64.35
804.191	70.08
804.366	70.11
804.541	64.39
804.716	66.21
804.891	69.86
805.066	69.48
805.241	62.06
805.416	61.29
805.591	62.76
805.765	63.21
805.94	62.58
806.115	66.72
806.29	60.75
806.464	60.81
806.639	56.87
806.814	52.29
806.989	50.87
807.163	63.44
807.338	65.4
807.512	67.59
807.687	59.39
807.862	63.88
808.036	62.13
808.211	66.22
808.385	72
808.56	86.92
808.734	90.3
808.909	83.01
809.083	69.24
809.258	67.86
809.432	65.98
809.606	53.85
809.781	52.85
809.955	59.27
810.13	58.78
810.304	46.47
810.478	46.42
810.652	50.53
810.827	58.13
811.001	51.73
811.175	55.6
811.349	59.22
811.524	57.07
811.698	48.22
811.872	53.92
812.046	64.56
812.22	67.96
812.394	66.45
812.568	70.17
812.742	63.55
812.916	54.19
813.09	47.25
813.264	50.28
813.438	54.82
813.612	54.08
813.786	55.05
813.96	64.33
814.134	67.36
814.308	71.5
814.482	75.78
814.656	76.86
814.83	80.53
815.003	78.24
815.177	64.17
815.351	61.15
815.525	55.42
815.698	43.91
815.872	39.28
816.046	36.23
816.219	41.68
816.393	54.13
816.567	69.62
816.74	68.65
816.914	74.37
817.088	77.56
817.261	68.51
817.435	42.01
817.608	47.24
817.782	49.09
817.955	58.37
818.129	52.33
818.302	52.98
818.475	59.41
818.649	47.57
818.822	32.48
818.996	52.18
819.169	62.26
819.342	48.03
819.516	63.56
819.689	75.81
819.862	61.48
820.035	60.51
820.209	62.31
820.382	58.05
820.555	56.2
820.728	38.82
820.901	34.61
821.075	36.74
821.248	44.34
821.421	35.44
821.594	50.86
821.767	72.3
821.94	81.57
822.113	51.84
822.286	49.78
822.459	55.14
822.632	38.89
822.805	26.19
822.978	37.51
823.151	39.15
823.324	31.23
823.496	9.63
823.669	11.36
823.842	16.13
824.015	9.79
824.188	8.72
824.361	40.12
824.533	39.43
824.706	40.86
824.879	38.2
825.051	51.14
825.224	29.72
825.397	14.93
825.569	5.72
825.742	21.19
825.915	24.81
826.087	34.54
826.26	31.73
826.432	34.15
826.605	37.9
826.777	20.41
826.95	25.95
827.122	14.36
827.295	2.18
827.467	-1.64
827.64	-33.71
827.812	-44.77
827.984	-32.49
828.157	-30.74
828.329	-65.42
828.501	-31.28
828.674	-4.44
828.846	-23.81
829.018	4.92
829.19	2.33
829.363	32.94
829.535	35.15
829.707	47.31
829.879	24.52
830.051	38.52
830.223	22.51
830.395	1.37
830.568	3.79
830.74	26.47
830.912	33.54
831.084	30.69
831.256	41.52
831.428	31.21
831.6	3.96
831.772	-24.89
831.943	-37.26
832.115	-36.48
832.287	-11.33
832.459	8.02
832.631	33.51
832.803	42.48
832.975	54.91
833.146	43.81
833.318	36.91
833.49	21.82
833.662	3.23
833.833	-9.71
834.005	-14.26
834.177	-2.83
834.348	0.65
834.52	0.52
834.692	-8.09
834.863	-16.23
835.035	-29.66
835.206	-81.5
835.378	-36.33
835.549	-33.62
835.721	-10
835.892	-7.81
836.064	7
836.235	-16.14
836.407	16.45
836.578	-5.56
836.749	7.91
836.921	-33.8
837.092	-30.08
837.264	-45.92
837.435	-49.41
837.606	-3.86
837.777	35.61
837.949	46.05
838.12	57.91
838.291	70.01
838.462	61.11
838.633	35.84
838.805	50.09
838.976	54.63
839.147	10.51
839.318	-24.21
839.489	-67.43
839.66	-82.85
839.831	-49.67
840.002	-17.07
840.173	-33.91
840.344	27.59
840.515	19.59
840.686	-91.71
840.857	-56.56
841.028	-38.55
841.199	-26.2
841.369	-44.67
841.54	5.11
841.711	20.82
841.882	39.36
842.053	13.86
842.223	26.75
842.394	17.8
842.565	8.96
842.736	21.12
842.906	40.34
843.077	43.47
843.248	70.12
843.418	64.04
843.589	25.73
843.759	-3.1
843.93	-27.62
844.101	-20.08
844.271	4.87
844.442	20.77
844.612	41.88
844.783	21.26
844.953	-22.99
845.123	-46.47
845.294	-25
845.464	-196.72
845.635	-52.63
845.805	39.62
845.975	44.56
846.146	-19.38
846.316	-7.25
846.486	12.12
846.656	45.31
846.827	31.42
846.997	51.84
847.167	89.01
847.337	44.2
847.507	-10.92
847.677	5.11
847.848	48.48
848.018	28.23
848.188	39.84
848.358	27.44
848.528	8.32
848.698	-49.71
848.868	-132.69
849.038	-255.04
849.208	-63.99
849.378	-29.53
849.548	-1.76
849.718	22.92
849.887	44.23
850.057	22.82
850.227	0.62
850.397	-33.83
850.567	-124.75
850.737	-252.61
850.906	-1015
851.076	-714.06
851.246	-186.39
851.415	23.2
851.585	-16.73
851.755	-48.88
851.924	-7.63
852.094	-40
852.264	-170.35
852.433	-1075
852.603	-169.06
852.772	-67.24
852.942	-44.51
853.111	2.01
853.281	61.59
853.45	60.92
853.62	-35.41
853.789	-73.16
853.959	-119.47
854.128	-126.11
854.297	-118.1
854.467	-117.14
854.636	-55.96
854.805	2.04
854.975	-17.5
855.144	-0.55
855.313	262.94
855.482	-191.97
855.652	-163.38
855.821	-77.33
855.99	27.67
856.159	33.93
856.328	43.12
856.497	31.28
856.667	31.71
856.836	32.99
857.005	-12.09
857.174	-31.88
857.343	-38.95
857.512	-47.09
857.681	-90.35
857.85	-110.07
858.019	-52.33
858.188	-37.73
858.356	-54.9
858.525	-103.89
858.694	-64.92
858.863	-136.33
859.032	-143.08
859.201	-136.18
859.369	-69.39
859.538	-60.43
859.707	-70.46
859.876	-24.59
860.044	-41
860.213	9.74
860.382	3.53
860.55	4.22
860.719	2.6
860.888	12.31
861.056	-18.9
861.225	-21.63
861.393	42.17
861.562	90.15
861.73	26.56
861.899	2.09
862.067	-1051.72
862.236	-112.8
862.404	-329.97
862.572	-188.2
862.741	-55.7
862.909	-60.66
863.078	-200.17
863.246	-133.11
863.414	-120.3
863.582	-103.96
863.751	-100.44
863.919	-49.74
864.087	-7.36
864.255	-8.12
864.424	-258.96
864.592	-29.81
864.76	-75.76
864.928	17.6
865.096	-122.93
865.264	-100.81
865.432	-1150
865.6	23
865.768	-82.67
865.936	-66.45
866.104	-35.86
866.272	-133.75
866.44	-258.27
866.608	451.09
866.776	239.24
866.944	2495.35
867.112	-386.02
867.28	-173.04
867.448	-63.79
867.615	2.14
867.783	37.45
867.951	-1.26
868.119	43.86
868.286	12.67
868.454	-123.76
868.622	-143.68
868.789	-75.19
868.957	-3121.43
869.125	-2121.05
869.292	-192.14
869.46	-283.75
869.627	-67.05
869.795	-71.89
869.963	-38.89
870.13	25.81
870.298	48.93
870.465	-26.87
870.632	-42.94
870.8	-35.93
870.967	-128.75
871.135	-243.18
871.302	-191.91
871.469	-210.84
871.637	-235.59
871.804	-106.19
871.971	-122.53
872.139	-366.51
872.306	-5.26
872.473	-62.3
872.64	-293.13
872.807	-74.68
872.975	-1.22
873.142	-213.45
873.309	1108.11
873.476	18.1
873.643	64.82
873.81	66.79
873.977	63.84
874.144	44.64
874.311	-16.71
874.478	-72.54
874.645	-132.7
874.812	-122.82
874.979	-89.21
875.146	-113.46
875.313	-149.46
875.48	-36.06
875.647	-29.26
875.813	-65.33
875.98	-14.73
876.147	-14.17
876.314	-102.68
876.481	819.83
876.647	-993.26
876.814	414.51
876.981	-49.23
877.147	-7.06
877.314	36.22
877.481	70.8
877.647	51.59
877.814	29.74
877.98	-10.24
878.147	-1.96
878.314	13.23
878.48	-62.68
878.647	-41.14
878.813	22.77
878.979	4.44
879.146	-25.67
879.312	-10.18
879.479	-55.65
879.645	-158.09
879.811	-330.91
879.978	-805.34
880.144	-258.43
880.31	-106.08
880.477	-296.96
880.643	-281.69
880.809	-75.9
880.975	-32.24
881.142	-678.18
881.308	-85.94
881.474	-65.65
881.64	-83.69
881.806	-152.9
881.972	-53.6
882.138	-53.44
882.304	-33.43
882.47	-143.77
882.636	-631.15
882.802	-274.84
882.968	-72.05
883.134	-49.34
883.3	-44.72
883.466	7.05
883.632	41.68
883.798	10.23
883.964	-4.39
884.129	-21.33
884.295	-14.61
884.461	-42.79
884.627	-66.17
884.793	-57.02
884.958	-20.11
885.124	-110.7
885.29	-184.22
885.455	-343.2
885.621	-132.24
885.787	-181.75
885.952	-74.96
886.118	-92.64
886.283	-61.01
886.449	-125.93
886.614	-145
886.78	-206.15
886.945	529.51
887.111	-469.36
887.276	-471.59
887.442	-980.91
887.607	-548.58
887.773	-405.73
887.938	-345.95
888.103	-388.85
888.269	-228.31
888.434	-422.7
888.599	-172.51
888.764	-33.2
888.93	-11.38
889.095	-32.71
889.26	-68.13
889.425	-41.42
889.59	-68.25
889.756	-71.61
889.921	-43.75
890.086	0.55
890.251	-8.25
890.416	-130.89
890.581	-1474.19
890.746	187.14
890.911	414.01
891.076	180.83
891.241	-375.37
891.406	21.89
891.571	-14.69
891.736	-137.16
891.901	-251.33
892.065	348.35
892.23	122.74
892.395	232.88
892.56	337.86
892.725	-432.81
892.889	-1307.32
893.054	-160.57
893.219	4.95
893.384	61.6
893.548	47.78
893.713	42.9
893.878	65.42
