Data from Ofra_PS_T2_1A_2CX08_Reflection_2.txt Node
Date: Wed Jul 21 17:53:27 EDT 2021
User: Adam
Spectrometer: FLMT01687
Trigger mode: 0
Integration Time (sec): 1.100000E0
Scans to average: 2
Electric dark correction enabled: true
Nonlinearity correction enabled: false
Boxcar width: 2
XAxis mode: Wavelengths
Number of Pixels in Spectrum: 3648
>>>>>Begin Spectral Data<<<<<
179.494	772.4
179.716	837.41
179.937	744.05
180.158	686.37
180.38	1080.31
180.601	351.66
180.823	93.73
181.044	132.46
181.265	602.57
181.486	160.99
181.708	162.24
181.929	1501.02
182.15	-452.82
182.372	220.78
182.593	198.43
182.814	92.34
183.035	164.26
183.257	109.22
183.478	36.28
183.699	22.23
183.92	2.54
184.141	13.13
184.363	-50.38
184.584	-4.28
184.805	-9.91
185.026	29.84
185.247	38.3
185.468	34.52
185.689	25.68
185.91	62.04
186.132	78.26
186.353	68.07
186.574	154.54
186.795	133.15
187.016	77.3
187.237	29.95
187.458	10.52
187.679	-18.88
187.9	-10.29
188.121	-20.62
188.342	-28.85
188.563	28.51
188.784	54.75
189.005	41.63
189.226	139.96
189.447	120.69
189.667	-1.7
189.888	-204.19
190.109	-916.23
190.33	-687.42
190.551	-1065.04
190.772	-154.12
190.993	-129.71
191.214	-91.16
191.434	-60.9
191.655	33.8
191.876	-22.47
192.097	-74.56
192.318	-131.66
192.538	-179.62
192.759	-169.58
192.98	-63.28
193.201	-24.72
193.421	8.02
193.642	33.27
193.863	42.33
194.083	19.47
194.304	28.53
194.525	27.22
194.745	6.12
194.966	-13.28
195.187	1.33
195.407	-29.81
195.628	-83.38
195.848	-102.05
196.069	-103.62
196.29	-59.58
196.51	-61.46
196.731	-69.79
196.951	-66.57
197.172	-74.51
197.392	-125.4
197.613	-144.02
197.833	-142.36
198.054	-128.37
198.274	-77.85
198.495	-86.7
198.715	-46.76
198.936	-85.8
199.156	-75.04
199.377	-168.08
199.597	-143.95
199.817	-142.29
200.038	-48.53
200.258	-98.61
200.479	-18.97
200.699	-18.64
200.919	39.37
201.14	34.93
201.36	28.94
201.58	45.81
201.801	64.19
202.021	33.01
202.241	28.44
202.461	35.06
202.682	-70.36
202.902	-170.01
203.122	-117.1
203.342	-109.47
203.563	-68.1
203.783	-0.65
204.003	-2.17
204.223	6.34
204.443	62.05
204.663	69.73
204.884	53.19
205.104	75.8
205.324	103.53
205.544	70.27
205.764	63.65
205.984	66.05
206.204	58.35
206.424	42.81
206.644	28.06
206.864	21.87
207.084	14.61
207.304	40.98
207.525	23.28
207.745	6.1
207.964	71.14
208.184	-16.58
208.404	-40.9
208.624	-63.31
208.844	-52.98
209.064	-330.53
209.284	-298.58
209.504	-145.31
209.724	-17.28
209.944	-19.24
210.164	29.72
210.384	28.2
210.604	24.77
210.823	-9.97
211.043	-34.25
211.263	-47.91
211.483	-39.75
211.703	-88.84
211.922	-76.21
212.142	19.98
212.362	32.21
212.582	-0.8
212.801	-10.87
213.021	-31.04
213.241	-72.11
213.461	-108.59
213.68	-109.55
213.9	-90.02
214.12	-42.24
214.339	-101.59
214.559	-72.13
214.779	-18.5
214.998	12.53
215.218	-25.3
215.438	6.48
215.657	26.02
215.877	20.36
216.096	26.19
216.316	41.03
216.535	42.15
216.755	24.3
216.974	-54.93
217.194	-151.28
217.413	-148.9
217.633	-152.31
217.852	-278.21
218.072	-94.79
218.291	-29.15
218.511	11.15
218.73	-29.36
218.95	-5.28
219.169	-21.09
219.389	-62.4
219.608	-53.69
219.827	-35.56
220.047	-32.81
220.266	-10.14
220.485	8.45
220.705	20.33
220.924	-5.45
221.143	29.93
221.363	0.97
221.582	12.05
221.801	3.93
222.021	54.07
222.24	12.08
222.459	78.92
222.678	45.13
222.897	-1.98
223.117	-82.37
223.336	-53.24
223.555	-12.62
223.774	34.86
223.993	61.52
224.213	114.78
224.432	93.38
224.651	88.54
224.87	36.02
225.089	43.12
225.308	26.26
225.527	38.03
225.746	24.15
225.965	19.07
226.184	-2
226.404	18.93
226.623	-2.14
226.842	8.42
227.061	37.1
227.28	40.37
227.499	33.96
227.718	46.31
227.936	39.13
228.155	37.62
228.374	14.82
228.593	15.89
228.812	11.3
229.031	6.02
229.25	-29.63
229.469	-13.8
229.688	-14.18
229.907	25.55
230.125	48.39
230.344	51.23
230.563	60.28
230.782	80.6
231.001	5.97
231.22	-0.97
231.438	14.42
231.657	4.29
231.876	-9.18
232.095	38.68
232.313	51.61
232.532	73.97
232.751	51.08
232.969	32.13
233.188	-1.59
233.407	52.97
233.625	18.98
233.844	43.79
234.063	45.23
234.281	55.6
234.5	24.38
234.719	26.07
234.937	36.61
235.156	34.86
235.374	36.96
235.593	42
235.811	34.2
236.03	4.97
236.249	-41.39
236.467	-58.37
236.686	-28.45
236.904	-14.46
237.123	-31.63
237.341	-20.39
237.559	-15.12
237.778	-25.45
237.996	-35.8
238.215	1.5
238.433	16.7
238.652	7.49
238.87	-18.17
239.088	-0.21
239.307	-5.62
239.525	-15.99
239.743	-23.7
239.962	-12.97
240.18	-36.32
240.398	-79.55
240.617	-86.97
240.835	-54.62
241.053	-18.92
241.271	56.03
241.49	76.98
241.708	80.16
241.926	77.34
242.144	50.3
242.363	-34.18
242.581	-57.36
242.799	-26.56
243.017	1.57
243.235	-14.24
243.453	0.54
243.672	-2.14
243.89	8.06
244.108	4.13
244.326	27.25
244.544	32.6
244.762	27.44
244.98	24.98
245.198	7.44
245.416	-33.77
245.634	-42.77
245.852	-52.12
246.07	-51.89
246.288	-8.62
246.506	-24.77
246.724	21.63
246.942	20.8
247.16	35.75
247.378	23.09
247.596	55
247.814	40.96
248.032	21.68
248.25	12.13
248.468	12.18
248.685	22.95
248.903	51.63
249.121	58.16
249.339	31.71
249.557	23.69
249.775	29.71
249.992	-25.54
250.21	-26.66
250.428	-7.69
250.646	-19.76
250.863	-56.1
251.081	-48.94
251.299	-24.35
251.517	-23.38
251.734	-16.76
251.952	-16.68
252.17	-11.87
252.387	-9.77
252.605	-13.02
252.823	0.85
253.04	13.31
253.258	33.43
253.475	27.54
253.693	42.1
253.911	38.71
254.128	46.69
254.346	42.62
254.563	21.27
254.781	-4.2
254.998	-35.28
255.216	-37.51
255.433	-23.99
255.651	47.48
255.868	93.45
256.086	122.64
256.303	95.44
256.521	80.75
256.738	34.33
256.956	-7.02
257.173	-46.62
257.39	-57.84
257.608	-94.7
257.825	-33.47
258.043	9.56
258.26	32.77
258.477	82.35
258.695	82.87
258.912	45.39
259.129	29.38
259.346	-7.78
259.564	-48.62
259.781	-71.59
259.998	-23.9
260.216	19.7
260.433	51.7
260.65	54.69
260.867	82.83
261.084	70.08
261.302	53.92
261.519	48.94
261.736	-2.09
261.953	-34.4
262.17	1.48
262.387	-44.88
262.604	-75.82
262.822	-60.33
263.039	-48.02
263.256	-95.12
263.473	-43.1
263.69	-13.45
263.907	18.35
264.124	37.11
264.341	37.18
264.558	31.5
264.775	30.76
264.992	13.8
265.209	0.31
265.426	18.53
265.643	17.08
265.86	37.17
266.077	42.62
266.294	38.27
266.51	5.69
266.727	-31.47
266.944	-24.11
267.161	-9.13
267.378	4.13
267.595	44.69
267.812	43.15
268.028	14.86
268.245	36.68
268.462	9.42
268.679	-13.29
268.896	38.34
269.112	52.66
269.329	21.16
269.546	37.15
269.763	24.91
269.979	-1.54
270.196	-20.14
270.413	-29.97
270.629	-58.09
270.846	-60.73
271.063	-49.66
271.279	-72.39
271.496	-61.83
271.712	-15.55
271.929	6.58
272.146	-4.57
272.362	25.32
272.579	56.36
272.795	33.17
273.012	42.85
273.228	37.09
273.445	11.97
273.661	-30.6
273.878	-63.09
274.094	-66.6
274.311	-81.97
274.527	-16.23
274.744	-8.4
274.96	-12.57
275.177	1.13
275.393	9.78
275.609	9.47
275.826	38.57
276.042	41.26
276.259	25.47
276.475	37.53
276.691	34.86
276.908	5.45
277.124	31.95
277.34	33.16
277.557	17.69
277.773	3.13
277.989	-3.91
278.205	-21.91
278.422	-11.08
278.638	-0.75
278.854	29.78
279.07	47.76
279.286	38.1
279.503	21.02
279.719	22.48
279.935	-25.33
280.151	-64.89
280.367	-26.2
280.583	-41.74
280.799	-29.36
281.016	-49.32
281.232	-1.13
281.448	-6.84
281.664	25.07
281.88	-15.63
282.096	8.97
282.312	26.84
282.528	29.79
282.744	47.42
282.96	55.93
283.176	37.35
283.392	24.4
283.608	13.94
283.824	1.36
284.04	6.63
284.256	22.17
284.471	13.08
284.687	20.05
284.903	51.33
285.119	83.65
285.335	63.98
285.551	89.02
285.767	64.34
285.982	20.43
286.198	-35.11
286.414	15.94
286.63	17.95
286.846	43.25
287.061	27.01
287.277	52.88
287.493	23.22
287.709	42.74
287.924	22.52
288.14	70.39
288.356	76.56
288.571	86.1
288.787	54.4
289.003	58.47
289.218	28.98
289.434	-17.09
289.65	-25.72
289.865	-26.73
290.081	-5.31
290.296	9.41
290.512	18.23
290.727	-1.98
290.943	-0.55
291.159	-15.68
291.374	-20.63
291.59	-31.73
291.805	-21.21
292.021	-17.23
292.236	-16.19
292.451	-0.03
292.667	4.79
292.882	26.42
293.098	30.76
293.313	10.64
293.529	-14.04
293.744	-17.42
293.959	-39.11
294.175	-41.65
294.39	-0.28
294.605	10.19
294.821	37.9
295.036	37.18
295.251	42.22
295.467	-2.69
295.682	-13.77
295.897	-81.22
296.112	-73.44
296.328	-68.9
296.543	-68.9
296.758	-55.35
296.973	-1.99
297.188	30.17
297.404	2.31
297.619	-5.33
297.834	-20.44
298.049	-29.49
298.264	-66.68
298.479	-1.98
298.694	15.75
298.909	32.41
299.125	31.54
299.34	43.99
299.555	19.07
299.77	30.94
299.985	-4.85
300.2	-46.9
300.415	-74.98
300.63	-40.13
300.845	-61.37
301.06	-50.65
301.275	-17.81
301.49	21.16
301.704	6.14
301.919	-5.69
302.134	-20.68
302.349	-29.48
302.564	-105.8
302.779	-124.02
302.994	-58.86
303.209	-27.03
303.423	15.13
303.638	66.18
303.853	21.37
304.068	12.38
304.283	20.64
304.497	7.55
304.712	-11.56
304.927	7.69
305.142	-0.44
305.356	0.59
305.571	-7.15
305.786	-25.46
306	-46.19
306.215	-34.43
306.43	-49.96
306.644	-22.26
306.859	49.08
307.074	63.47
307.288	29.72
307.503	19.36
307.717	-1.17
307.932	-15.82
308.147	-24.04
308.361	4.85
308.576	8.06
308.79	-22.55
309.005	-16.21
309.219	-1.88
309.434	-17.24
309.648	-31.12
309.863	-5.06
310.077	-11.48
310.292	-4.72
310.506	2.56
310.72	19.19
310.935	42.05
311.149	37.4
311.364	44.94
311.578	49.58
311.792	41.5
312.007	31.41
312.221	16.3
312.435	15.77
312.649	5.01
312.864	56.21
313.078	78.13
313.292	187.76
313.507	184.71
313.721	256.78
313.935	109.74
314.149	76.84
314.363	38.08
314.578	33.38
314.792	18.6
315.006	1.7
315.22	28.53
315.434	39.34
315.648	52.19
315.862	54.93
316.077	51.95
316.291	30.39
316.505	16.2
316.719	-6.55
316.933	-37.75
317.147	-22.89
317.361	-72.62
317.575	-101.36
317.789	-141.64
318.003	-173.95
318.217	-146.91
318.431	-28.28
318.645	22.85
318.859	26.26
319.073	44.77
319.287	36.76
319.5	-4.22
319.714	-43.41
319.928	-84.84
320.142	-115.33
320.356	-69.97
320.57	-9.4
320.784	-6.89
320.997	-11.98
321.211	13.03
321.425	-45.22
321.639	-65.19
321.853	-6.3
322.066	16.76
322.28	9.32
322.494	29.28
322.707	33.74
322.921	17.08
323.135	13.5
323.349	33.87
323.562	3.64
323.776	-17.43
323.989	-29.25
324.203	-33.92
324.417	-65.8
324.63	-67.51
324.844	-61.47
325.057	-58.86
325.271	-50.26
325.485	-13.07
325.698	6.31
325.912	19.64
326.125	3.16
326.339	8.75
326.552	-17.5
326.766	-15.28
326.979	-2.74
327.193	27.5
327.406	10.36
327.619	9.3
327.833	20.74
328.046	3.99
328.26	-33.21
328.473	0.45
328.686	-3.49
328.9	-4.53
329.113	3.37
329.326	13.12
329.54	-4.39
329.753	-26.83
329.966	-40.96
330.179	-28.6
330.393	-1.59
330.606	15.55
330.819	35.15
331.032	45.88
331.246	42.71
331.459	69.85
331.672	53.34
331.885	38.96
332.098	8.03
332.311	14.62
332.525	-64.39
332.738	-35.35
332.951	4.76
333.164	30.34
333.377	29.35
333.59	45.81
333.803	50.07
334.016	46.5
334.229	41.65
334.442	49.32
334.655	72.02
334.868	61.4
335.081	51.9
335.294	45.73
335.507	36.32
335.72	31.12
335.933	9.87
336.146	0.73
336.359	-0.23
336.572	-38.27
336.785	-65.56
336.997	-42.95
337.21	-20.82
337.423	-18.68
337.636	9.47
337.849	26.87
338.062	14.51
338.274	9.26
338.487	-0.22
338.7	-17.75
338.913	-78.62
339.125	-100.54
339.338	-148.02
339.551	-119.93
339.763	-92.31
339.976	-33.32
340.189	7.16
340.402	17.06
340.614	4.64
340.827	15.16
341.039	-6.06
341.252	-12.96
341.465	7.19
341.677	12.22
341.89	-22.9
342.102	7.44
342.315	-12.75
342.527	-43.94
342.74	-54.56
342.952	-10.17
343.165	-9.32
343.377	20.14
343.59	0.12
343.802	27.42
344.015	21.2
344.227	45.87
344.44	34.37
344.652	46.84
344.864	28.63
345.077	38.12
345.289	22.1
345.502	29.5
345.714	32.09
345.926	38.25
346.139	32.8
346.351	34.85
346.563	40.39
346.775	47.43
346.988	22.95
347.2	14.83
347.412	-20.75
347.624	-40.35
347.837	-59.09
348.049	10.9
348.261	48.36
348.473	62.95
348.685	53.95
348.897	32.45
349.11	-2.77
349.322	-20.1
349.534	0.88
349.746	4.12
349.958	16.86
350.17	19.15
350.382	13.65
350.594	8.99
350.806	18.43
351.018	22.21
351.23	23.57
351.442	-5.63
351.654	-19.69
351.866	-22.28
352.078	-7.66
352.29	-0.77
352.502	20.81
352.714	27.9
352.926	19.03
353.138	16.26
353.35	11.05
353.561	9.63
353.773	-7.05
353.985	10.85
354.197	-6.15
354.409	-14.02
354.621	-29.14
354.832	-14.44
355.044	-38.48
355.256	-31.62
355.468	-4.68
355.679	-2.3
355.891	3.16
356.103	6.12
356.314	15.41
356.526	-0.76
356.738	3.58
356.949	-23.06
357.161	-12.83
357.373	-15.33
357.584	-16.78
357.796	-6.52
358.008	-4.54
358.219	29.99
358.431	32.2
358.642	34.19
358.854	32.81
359.065	28.79
359.277	-27.81
359.488	-40.08
359.7	-54.26
359.911	-75.41
360.123	-42.66
360.334	-53.98
360.546	-64.04
360.757	-61.72
360.969	-34.76
361.18	-33.82
361.391	3.82
361.603	-16.38
361.814	-10.5
362.025	-21.65
362.237	-30.03
362.448	-27.05
362.659	10.33
362.871	9.03
363.082	18.08
363.293	15.66
363.504	4.04
363.716	-17.86
363.927	-19.54
364.138	-51.79
364.349	-53.56
364.56	-42.91
364.772	-41.99
364.983	-18.2
365.194	-14.21
365.405	-1.03
365.616	25.05
365.827	35.21
366.038	17.67
366.25	29.75
366.461	-8.82
366.672	-3.96
366.883	8.96
367.094	17.34
367.305	1.07
367.516	22.79
367.727	-12.89
367.938	-34.66
368.149	-34.65
368.36	-12.12
368.571	-10.68
368.781	-15.71
368.992	-21.08
369.203	-35.15
369.414	-58.21
369.625	-71.58
369.836	-66.97
370.047	-91.68
370.258	-78.55
370.468	-72.68
370.679	-82.17
370.89	-70.35
371.101	-30.32
371.312	-40.92
371.522	-23.37
371.733	-11.26
371.944	-5.78
372.155	-6.96
372.365	-5.85
372.576	-11.85
372.787	-10.69
372.997	-27.09
373.208	-28.3
373.419	11.81
373.629	-20.49
373.84	-25.36
374.05	-23.94
374.261	-2.06
374.472	-28.47
374.682	22.43
374.893	24.34
375.103	45.36
375.314	28.36
375.524	14.45
375.735	10.17
375.945	19.19
376.156	-0.85
376.366	-0.13
376.577	12.2
376.787	3.35
376.997	3
377.208	3.91
377.418	-10.09
377.629	-6.05
377.839	-9.8
378.049	-2.69
378.26	8.23
378.47	18.65
378.68	5.44
378.89	0.75
379.101	-2.84
379.311	-29.94
379.521	-63.81
379.732	-44.21
379.942	-36.89
380.152	-65.43
380.362	-29.58
380.572	-11.13
380.783	-2.1
380.993	12.71
381.203	31.95
381.413	39.92
381.623	44.36
381.833	43.03
382.043	22.54
382.253	13.96
382.463	7.28
382.674	-1.93
382.884	-27.91
383.094	-21.25
383.304	-15.61
383.514	-4.16
383.724	4.44
383.934	-0.51
384.144	-9.49
384.353	-17.67
384.563	-25.77
384.773	-18.79
384.983	-16.36
385.193	3.99
385.403	10.13
385.613	9.47
385.823	0.46
386.033	8.32
386.242	-1.28
386.452	-3.71
386.662	-8.16
386.872	1.7
387.082	-6.59
387.291	-16.36
387.501	-18.21
387.711	-9.88
387.921	-17.42
388.13	-11.84
388.34	5.77
388.55	2.54
388.759	-4.67
388.969	3.99
389.179	3.41
389.388	-0.36
389.598	5.68
389.807	3.27
390.017	-6.86
390.227	-7.14
390.436	-9.18
390.646	-10.13
390.855	-4.24
391.065	-2.81
391.274	-4.56
391.484	-6.31
391.693	-5.5
391.903	-2.24
392.112	3.52
392.322	8.47
392.531	10.37
392.74	10.55
392.95	4.43
393.159	1.5
393.369	0.13
393.578	-0.48
393.787	-1.62
393.997	0.61
394.206	-0.51
394.415	-0.33
394.625	-0.99
394.834	-1.1
395.043	-0.2
395.252	2.08
395.462	3.49
395.671	6
395.88	6.35
396.089	6.26
396.298	4.27
396.508	3.76
396.717	1.9
396.926	2.6
397.135	2.41
397.344	3.05
397.553	3.63
397.762	5.24
397.971	4.61
398.181	4.69
398.39	3.66
398.599	3.17
398.808	2.68
399.017	3.8
399.226	4.75
399.435	5.96
399.644	5.71
399.853	5.03
400.062	4.31
400.27	3.57
400.479	3.08
400.688	2.56
400.897	3.06
401.106	3.1
401.315	2.93
401.524	3.08
401.733	3.63
401.941	4.01
402.15	4.06
402.359	3.91
402.568	4.28
402.777	4.44
402.985	3.98
403.194	3.81
403.403	4.1
403.612	3.56
403.82	3.18
404.029	3.35
404.238	3.19
404.446	3.21
404.655	2.93
404.864	2.99
405.072	2.7
405.281	2.83
405.489	2.48
405.698	2.71
405.906	2.68
406.115	2.71
406.324	2.64
406.532	2.94
406.741	3.14
406.949	3.17
407.158	3.07
407.366	3.08
407.574	3.02
407.783	3.04
407.991	2.82
408.2	3.14
408.408	3.11
408.617	2.89
408.825	2.68
409.033	2.83
409.242	2.77
409.45	2.88
409.658	2.91
409.867	3.07
410.075	2.93
410.283	2.8
410.491	2.65
410.7	2.56
410.908	2.57
411.116	2.89
411.324	2.9
411.533	2.9
411.741	3.22
411.949	3.21
412.157	2.91
412.365	2.94
412.573	2.96
412.781	2.85
412.99	2.65
413.198	2.86
413.406	2.8
413.614	2.85
413.822	2.71
414.03	2.63
414.238	2.33
414.446	2.35
414.654	2.07
414.862	2.14
415.07	2.28
415.278	2.59
415.486	2.4
415.694	2.55
415.902	2.49
416.109	2.41
416.317	2.34
416.525	2.33
416.733	2.39
416.941	2.44
417.149	2.43
417.357	2.37
417.564	2.6
417.772	2.76
417.98	2.73
418.188	2.73
418.395	2.77
418.603	2.74
418.811	2.32
419.019	2.32
419.226	2.57
419.434	2.67
419.642	2.47
419.849	2.69
420.057	2.67
420.265	2.54
420.472	2.16
420.68	2.27
420.887	2.19
421.095	2.31
421.302	2.12
421.51	2.39
421.717	2.55
421.925	2.68
422.132	2.52
422.34	2.43
422.547	2.45
422.755	2.2
422.962	2.14
423.17	1.99
423.377	2.15
423.585	2.13
423.792	2.14
423.999	2.19
424.207	2.2
424.414	2.31
424.621	2.26
424.829	2.26
425.036	2.22
425.243	2.33
425.451	2.11
425.658	1.94
425.865	2.01
426.072	2.04
426.28	2.28
426.487	2.33
426.694	2.54
426.901	2.45
427.108	2.35
427.315	2.12
427.523	2.39
427.73	2.31
427.937	2.27
428.144	2.23
428.351	2.16
428.558	2.18
428.765	2.17
428.972	2.17
429.179	2.3
429.386	2.6
429.593	2.4
429.8	2.23
430.007	2.42
430.214	2.47
430.421	2.28
430.628	2.2
430.835	2.23
431.042	2.34
431.249	2.31
431.456	2.22
431.662	2.38
431.869	2.43
432.076	2.33
432.283	2.47
432.49	2.58
432.697	2.52
432.903	2.44
433.11	2.45
433.317	2.43
433.524	2.68
433.73	2.61
433.937	2.82
434.144	2.7
434.35	2.66
434.557	2.45
434.764	2.52
434.97	2.35
435.177	2.58
435.384	2.43
435.59	2.54
435.797	2.79
436.003	2.96
436.21	2.9
436.416	3.07
436.623	2.9
436.829	2.87
437.036	2.93
437.242	2.99
437.449	2.88
437.655	3.02
437.862	2.96
438.068	2.88
438.275	2.88
438.481	3.11
438.687	3.03
438.894	2.91
439.1	2.96
439.307	3.04
439.513	2.95
439.719	2.98
439.926	3.18
440.132	3.14
440.338	2.94
440.544	3.01
440.751	2.92
440.957	2.93
441.163	2.83
441.369	3
441.575	2.77
441.782	2.84
441.988	2.63
442.194	2.69
442.4	2.61
442.606	2.92
442.812	2.97
443.018	3.12
443.224	3.13
443.431	3.36
443.637	3.16
443.843	3.05
444.049	3.07
444.255	3.05
444.461	3.02
444.667	3.01
444.873	3.16
445.079	3.16
445.284	3.25
445.49	2.99
445.696	2.86
445.902	2.81
446.108	2.74
446.314	2.69
446.52	2.92
446.726	3.15
446.931	3.14
447.137	3.19
447.343	3.13
447.549	2.93
447.755	2.81
447.96	2.85
448.166	2.78
448.372	2.73
448.578	2.83
448.783	2.87
448.989	2.93
449.195	3.21
449.4	3.28
449.606	3.19
449.812	3.19
450.017	3.21
450.223	2.98
450.428	2.98
450.634	3.26
450.84	3.35
451.045	3.33
451.251	3.31
451.456	3.59
451.662	3.53
451.867	3.51
452.073	3.52
452.278	3.69
452.483	3.75
452.689	3.68
452.894	3.72
453.1	3.66
453.305	3.55
453.51	3.32
453.716	3.24
453.921	3.24
454.127	3.25
454.332	3.19
454.537	3.18
454.742	3.15
454.948	3.18
455.153	3.18
455.358	3.29
455.563	3.52
455.769	3.76
455.974	3.72
456.179	3.67
456.384	3.65
456.589	3.52
456.795	3.29
457	3.31
457.205	3.62
457.41	3.61
457.615	3.59
457.82	3.67
458.025	3.72
458.23	3.48
458.435	3.57
458.64	3.55
458.845	3.75
459.05	3.7
459.255	3.82
459.46	3.83
459.665	3.88
459.87	3.84
460.075	3.87
460.28	3.84
460.485	3.97
460.69	3.99
460.895	3.83
461.099	3.83
461.304	4
461.509	4.02
461.714	3.99
461.919	4.29
462.123	4.35
462.328	4.41
462.533	4.34
462.738	4.54
462.942	4.4
463.147	4.5
463.352	4.54
463.556	4.64
463.761	4.68
463.966	4.8
464.17	4.81
464.375	4.68
464.58	4.57
464.784	4.42
464.989	4.33
465.193	4.36
465.398	4.42
465.602	4.64
465.807	4.69
466.011	4.83
466.216	4.84
466.42	4.93
466.625	4.97
466.829	5.07
467.034	5.1
467.238	5.29
467.443	5.23
467.647	5.07
467.851	5.18
468.056	5.32
468.26	5.25
468.464	5.34
468.669	5.56
468.873	5.73
469.077	5.64
469.282	5.78
469.486	5.94
469.69	5.98
469.894	5.8
470.099	5.92
470.303	6
470.507	5.79
470.711	5.64
470.915	5.68
471.119	5.59
471.324	5.45
471.528	5.61
471.732	5.72
471.936	5.73
472.14	5.94
472.344	6.05
472.548	6.05
472.752	6.28
472.956	6.63
473.16	6.62
473.364	6.54
473.568	6.55
473.772	6.51
473.976	6.33
474.18	6.24
474.384	6.36
474.588	6.45
474.792	6.35
474.995	6.44
475.199	6.63
475.403	6.75
475.607	6.72
475.811	6.71
476.015	6.72
476.218	6.69
476.422	6.52
476.626	6.67
476.83	6.89
477.033	6.84
477.237	6.77
477.441	6.92
477.644	6.86
477.848	6.75
478.052	6.7
478.255	6.77
478.459	6.78
478.663	6.94
478.866	7.08
479.07	7.18
479.273	7.36
479.477	7.41
479.681	7.31
479.884	7.25
480.088	7.2
480.291	7.11
480.495	7.03
480.698	7.09
480.901	7.18
481.105	7.27
481.308	7.3
481.512	7.32
481.715	7.35
481.919	7.33
482.122	7.32
482.325	7.2
482.529	7.25
482.732	7.23
482.935	7.12
483.138	7.07
483.342	7.2
483.545	7.32
483.748	7.35
483.952	7.46
484.155	7.66
484.358	7.72
484.561	7.61
484.764	7.54
484.967	7.55
485.171	7.52
485.374	7.48
485.577	7.54
485.78	7.58
485.983	7.57
486.186	7.42
486.389	7.3
486.592	7.23
486.795	7.27
486.998	7.23
487.201	7.3
487.404	7.45
487.607	7.58
487.81	7.57
488.013	7.65
488.216	7.68
488.419	7.65
488.622	7.54
488.825	7.48
489.028	7.37
489.231	7.27
489.433	7.16
489.636	7.13
489.839	7.21
490.042	7.13
490.245	7.16
490.447	7.24
490.65	7.3
490.853	7.2
491.056	7.29
491.258	7.3
491.461	7.27
491.664	7.29
491.866	7.28
492.069	7.41
492.272	7.38
492.474	7.42
492.677	7.34
492.879	7.45
493.082	7.4
493.285	7.54
493.487	7.51
493.69	7.5
493.892	7.42
494.095	7.36
494.297	7.27
494.5	7.24
494.702	7.28
494.905	7.32
495.107	7.34
495.309	7.38
495.512	7.51
495.714	7.54
495.917	7.54
496.119	7.53
496.321	7.58
496.524	7.59
496.726	7.58
496.928	7.6
497.13	7.64
497.333	7.59
497.535	7.53
497.737	7.51
497.939	7.49
498.142	7.48
498.344	7.47
498.546	7.34
498.748	7.4
498.95	7.51
499.152	7.46
499.355	7.49
499.557	7.71
499.759	7.82
499.961	7.73
500.163	7.86
500.365	7.89
500.567	7.9
500.769	7.81
500.971	7.85
501.173	7.75
501.375	7.75
501.577	7.67
501.779	7.69
501.981	7.69
502.183	7.71
502.385	7.63
502.587	7.57
502.788	7.64
502.99	7.69
503.192	7.78
503.394	7.86
503.596	7.93
503.798	7.93
503.999	7.96
504.201	7.96
504.403	8
504.605	8.01
504.806	7.92
505.008	7.9
505.21	7.97
505.411	8
505.613	8.04
505.815	8.13
506.016	8.21
506.218	8.24
506.42	8.23
506.621	8.27
506.823	8.3
507.024	8.24
507.226	8.17
507.427	8.11
507.629	8.13
507.83	8.16
508.032	8.16
508.233	8.3
508.435	8.41
508.636	8.51
508.838	8.48
509.039	8.6
509.24	8.62
509.442	8.67
509.643	8.57
509.845	8.63
510.046	8.64
510.247	8.57
510.448	8.58
510.65	8.61
510.851	8.68
511.052	8.69
511.254	8.73
511.455	8.87
511.656	8.94
511.857	8.95
512.058	8.92
512.26	8.94
512.461	8.78
512.662	8.82
512.863	8.74
513.064	8.72
513.265	8.72
513.466	8.88
513.667	8.85
513.868	8.9
514.069	9.02
514.27	9.11
514.471	8.98
514.672	8.98
514.873	8.94
515.074	8.91
515.275	8.81
515.476	8.83
515.677	8.87
515.878	9.06
516.079	9.06
516.28	9.14
516.481	9.29
516.682	9.33
516.882	9.15
517.083	9.15
517.284	9.07
517.485	9
517.686	8.96
517.886	8.99
518.087	9.02
518.288	9.06
518.488	9.01
518.689	9.04
518.89	9
519.091	9.01
519.291	9
519.492	9.05
519.692	9.08
519.893	9.21
520.094	9.2
520.294	9.18
520.495	9.11
520.695	9.14
520.896	9.11
521.096	9.11
521.297	9.16
521.497	9.23
521.698	9.15
521.898	9.11
522.099	9.1
522.299	9.26
522.499	9.29
522.7	9.34
522.9	9.35
523.101	9.43
523.301	9.33
523.501	9.31
523.702	9.29
523.902	9.39
524.102	9.44
524.302	9.4
524.503	9.47
524.703	9.49
524.903	9.47
525.103	9.36
525.304	9.5
525.504	9.52
525.704	9.61
525.904	9.59
526.104	9.64
526.304	9.59
526.504	9.62
526.705	9.58
526.905	9.68
527.105	9.7
527.305	9.65
527.505	9.55
527.705	9.53
527.905	9.47
528.105	9.46
528.305	9.44
528.505	9.55
528.705	9.6
528.905	9.57
529.105	9.54
529.304	9.65
529.504	9.74
529.704	9.68
529.904	9.76
530.104	9.84
530.304	9.95
530.503	9.85
530.703	9.82
530.903	9.84
531.103	9.84
531.303	9.72
531.502	9.78
531.702	9.94
531.902	9.92
532.101	9.88
532.301	9.92
532.501	9.92
532.7	9.86
532.9	9.92
533.1	10
533.299	9.99
533.499	10.02
533.698	10.05
533.898	10.02
534.097	10.02
534.297	10.11
534.496	10.11
534.696	10.16
534.895	10.27
535.095	10.36
535.294	10.31
535.494	10.25
535.693	10.23
535.892	10.24
536.092	10.17
536.291	10.14
536.491	10.24
536.69	10.38
536.889	10.32
537.088	10.33
537.288	10.43
537.487	10.5
537.686	10.48
537.886	10.56
538.085	10.64
538.284	10.73
538.483	10.7
538.682	10.73
538.882	10.71
539.081	10.79
539.28	10.72
539.479	10.76
539.678	10.75
539.877	10.9
540.076	10.85
540.275	10.95
540.474	11.03
540.673	11.07
540.872	10.99
541.071	11.07
541.27	11.14
541.469	11.15
541.668	11.23
541.867	11.28
542.066	11.33
542.265	11.43
542.464	11.41
542.663	11.46
542.862	11.63
543.06	11.68
543.259	11.67
543.458	11.8
543.657	11.85
543.856	11.88
544.054	11.82
544.253	11.79
544.452	11.75
544.651	11.83
544.849	11.81
545.048	11.97
545.247	12.06
545.445	12.2
545.644	12.26
545.843	12.27
546.041	12.23
546.24	12.35
546.438	12.42
546.637	12.47
546.836	12.65
547.034	12.72
547.233	12.74
547.431	12.71
547.63	12.74
547.828	12.71
548.027	12.8
548.225	12.81
548.423	12.87
548.622	12.96
548.82	13.04
549.019	13.17
549.217	13.34
549.415	13.43
549.614	13.52
549.812	13.57
550.01	13.57
550.209	13.58
550.407	13.66
550.605	13.61
550.803	13.77
551.002	13.94
551.2	14
551.398	14.09
551.596	14.32
551.794	14.4
551.993	14.42
552.191	14.51
552.389	14.69
552.587	14.73
552.785	14.75
552.983	14.85
553.181	15.02
553.379	15.07
553.577	15.1
553.775	15.19
553.973	15.22
554.171	15.27
554.369	15.28
554.567	15.38
554.765	15.47
554.963	15.61
555.161	15.58
555.359	15.84
555.557	15.99
555.755	16.04
555.952	16.19
556.15	16.31
556.348	16.3
556.546	16.37
556.744	16.48
556.941	16.52
557.139	16.68
557.337	16.73
557.535	16.71
557.732	16.8
557.93	16.96
558.128	17.03
558.325	17.16
558.523	17.37
558.721	17.57
558.918	17.62
559.116	17.73
559.313	17.85
559.511	18.02
559.708	18.05
559.906	18.14
560.104	18.18
560.301	18.26
560.498	18.28
560.696	18.32
560.893	18.44
561.091	18.6
561.288	18.79
561.486	18.88
561.683	19.06
561.88	19.19
562.078	19.3
562.275	19.33
562.473	19.47
562.67	19.63
562.867	19.79
563.064	19.9
563.262	20
563.459	20.19
563.656	20.33
563.853	20.39
564.051	20.5
564.248	20.67
564.445	20.77
564.642	20.82
564.839	20.92
565.036	21.11
565.234	21.35
565.431	21.47
565.628	21.64
565.825	21.74
566.022	21.84
566.219	21.79
566.416	21.84
566.613	21.9
566.81	22.06
567.007	22.08
567.204	22.18
567.401	22.31
567.598	22.27
567.795	22.29
567.991	22.37
568.188	22.46
568.385	22.63
568.582	22.75
568.779	22.9
568.976	22.98
569.172	23.09
569.369	22.97
569.566	23.12
569.763	23.21
569.96	23.36
570.156	23.37
570.353	23.48
570.55	23.52
570.746	23.44
570.943	23.35
571.14	23.48
571.336	23.54
571.533	23.58
571.729	23.68
571.926	23.79
572.123	23.79
572.319	23.82
572.516	23.88
572.712	23.93
572.909	23.95
573.105	24.05
573.302	24.04
573.498	24.07
573.695	24.05
573.891	24.16
574.087	24.09
574.284	24.17
574.48	24.14
574.677	24.2
574.873	24.19
575.069	24.25
575.266	24.31
575.462	24.34
575.658	24.33
575.854	24.45
576.051	24.45
576.247	24.32
576.443	24.35
576.639	24.37
576.835	24.28
577.032	24.17
577.228	24.31
577.424	24.39
577.62	24.39
577.816	24.33
578.012	24.42
578.208	24.32
578.404	24.33
578.6	24.35
578.796	24.47
578.993	24.5
579.189	24.49
579.384	24.35
579.58	24.24
579.776	24.14
579.972	24.07
580.168	23.98
580.364	24.02
580.56	24.02
580.756	23.98
580.952	23.99
581.148	23.96
581.343	23.91
581.539	23.91
581.735	23.92
581.931	23.87
582.127	24.02
582.322	23.93
582.518	23.97
582.714	23.94
582.909	23.91
583.105	23.89
583.301	23.89
583.496	23.93
583.692	23.85
583.888	23.81
584.083	23.82
584.279	23.94
584.474	23.8
584.67	23.89
584.866	23.93
585.061	23.69
585.257	23.7
585.452	23.8
585.648	23.65
585.843	23.64
586.039	23.77
586.234	23.71
586.429	23.63
586.625	23.83
586.82	23.79
587.015	23.81
587.211	23.69
587.406	23.69
587.601	23.66
587.797	23.61
587.992	23.56
588.187	23.66
588.383	23.69
588.578	23.56
588.773	23.69
588.968	23.75
589.163	23.84
589.359	23.81
589.554	23.83
589.749	23.76
589.944	23.85
590.139	23.76
590.334	23.8
590.529	23.82
590.724	23.91
590.919	23.96
591.114	24.03
591.309	24.11
591.504	24.24
591.699	24.25
591.894	24.21
592.089	24.15
592.284	24.17
592.479	24.12
592.674	24.11
592.869	24.2
593.064	24.32
593.259	24.44
593.454	24.61
593.648	24.72
593.843	24.78
594.038	24.77
594.233	24.74
594.428	24.71
594.622	24.78
594.817	24.9
595.012	24.93
595.206	24.99
595.401	25
595.596	25.14
595.79	25.18
595.985	25.42
596.18	25.54
596.374	25.8
596.569	25.72
596.763	25.78
596.958	25.79
597.153	25.92
597.347	25.82
597.542	26.03
597.736	26.1
597.931	26.11
598.125	26.16
598.319	26.38
598.514	26.41
598.708	26.47
598.903	26.58
599.097	26.69
599.291	26.66
599.486	26.61
599.68	26.61
599.874	26.69
600.069	26.61
600.263	26.62
600.457	26.74
600.651	26.79
600.846	26.85
601.04	26.98
601.234	27.07
601.428	27.17
601.622	27.21
601.817	27.15
602.011	27.15
602.205	27.24
602.399	27.22
602.593	27.33
602.787	27.45
602.981	27.41
603.175	27.53
603.369	27.45
603.563	27.46
603.757	27.47
603.951	27.49
604.145	27.32
604.339	27.39
604.533	27.3
604.727	27.16
604.921	27.2
605.115	27.22
605.309	27.29
605.502	27.33
605.696	27.26
605.89	27.22
606.084	27.13
606.278	27.07
606.471	26.96
606.665	26.97
606.859	26.93
607.053	26.87
607.246	26.88
607.44	26.83
607.634	26.82
607.827	26.8
608.021	26.79
608.214	26.57
608.408	26.5
608.602	26.41
608.795	26.25
608.989	26.13
609.182	26.08
609.376	26.02
609.569	25.92
609.763	25.83
609.956	25.77
610.15	25.67
610.343	25.58
610.537	25.49
610.73	25.47
610.923	25.36
611.117	25.34
611.31	25.3
611.504	25.25
611.697	25.08
611.89	25.02
612.083	24.97
612.277	25
612.47	24.85
612.663	24.85
612.856	24.79
613.05	24.61
613.243	24.38
613.436	24.3
613.629	24.24
613.822	24.07
614.015	23.99
614.209	23.94
614.402	23.98
614.595	23.88
614.788	23.84
614.981	23.74
615.174	23.54
615.367	23.35
615.56	23.24
615.753	23.17
615.946	23.01
616.139	23.07
616.332	23.16
616.525	23.19
616.718	23.17
616.911	23.22
617.103	23.2
617.296	23.03
617.489	22.89
617.682	22.84
617.875	22.85
618.067	22.71
618.26	22.6
618.453	22.66
618.646	22.6
618.838	22.53
619.031	22.58
619.224	22.61
619.417	22.56
619.609	22.58
619.802	22.56
619.994	22.59
620.187	22.6
620.38	22.44
620.572	22.37
620.765	22.34
620.957	22.14
621.15	21.98
621.342	21.97
621.535	21.94
621.727	21.84
621.92	21.8
622.112	21.78
622.305	21.81
622.497	21.71
622.69	21.75
622.882	21.76
623.074	21.8
623.267	21.69
623.459	21.59
623.651	21.4
623.844	21.47
624.036	21.5
624.228	21.5
624.42	21.57
624.613	21.78
624.805	21.7
624.997	21.58
625.189	21.52
625.381	21.58
625.574	21.37
625.766	21.24
625.958	21.28
626.15	21.32
626.342	21.24
626.534	21.32
626.726	21.31
626.918	21.23
627.11	21.09
627.302	21.04
627.494	20.94
627.686	20.97
627.878	20.84
628.07	20.89
628.262	20.88
628.454	20.97
628.646	20.93
628.838	21.01
629.029	20.9
629.221	20.85
629.413	20.75
629.605	20.65
629.797	20.61
629.989	20.66
630.18	20.52
630.372	20.47
630.564	20.45
630.755	20.48
630.947	20.51
631.139	20.48
631.33	20.3
631.522	20.37
631.714	20.31
631.905	20.22
632.097	20.24
632.289	20.42
632.48	20.27
632.672	20.15
632.863	20.06
633.055	20.02
633.246	19.91
633.438	19.94
633.629	19.89
633.821	19.85
634.012	19.8
634.203	19.71
634.395	19.65
634.586	19.69
634.777	19.59
634.969	19.62
635.16	19.64
635.351	19.61
635.543	19.54
635.734	19.67
635.925	19.64
636.117	19.65
636.308	19.67
636.499	19.6
636.69	19.47
636.881	19.48
637.073	19.42
637.264	19.29
637.455	19.34
637.646	19.43
637.837	19.43
638.028	19.37
638.219	19.47
638.41	19.39
638.601	19.28
638.792	19.27
638.983	19.25
639.174	19.12
639.365	19.25
639.556	19.25
639.747	19.09
639.938	19.16
640.129	19.13
640.32	18.93
640.511	18.83
640.701	19.01
640.892	18.89
641.083	18.91
641.274	18.92
641.465	18.92
641.655	18.77
641.846	18.81
642.037	18.76
642.228	18.73
642.418	18.84
642.609	18.74
642.8	18.68
642.99	18.61
643.181	18.68
643.372	18.55
643.562	18.59
643.753	18.48
643.943	18.44
644.134	18.26
644.324	18.27
644.515	18.24
644.705	18.41
644.896	18.44
645.086	18.52
645.277	18.46
645.467	18.37
645.658	18.22
645.848	18.25
646.038	18.19
646.229	18.14
646.419	18.04
646.61	17.98
646.8	17.86
646.99	17.77
647.18	17.75
647.371	17.84
647.561	17.77
647.751	17.75
647.941	17.76
648.132	17.73
648.322	17.65
648.512	17.72
648.702	17.68
648.892	17.73
649.082	17.64
649.272	17.55
649.462	17.36
649.653	17.36
649.843	17.23
650.033	17.26
650.223	17.31
650.413	17.34
650.603	17.31
650.793	17.32
650.983	17.29
651.172	17.15
651.362	17.18
651.552	17.07
651.742	16.96
651.932	16.89
652.122	16.92
652.312	16.97
652.502	16.95
652.691	16.89
652.881	16.84
653.071	16.82
653.261	16.62
653.45	16.48
653.64	16.47
653.83	16.32
654.019	16.22
654.209	16.12
654.399	16.09
654.588	15.97
654.778	15.83
654.968	15.64
655.157	15.64
655.347	15.49
655.536	15.3
655.726	15.25
655.915	15.14
656.105	14.91
656.294	14.91
656.484	14.74
656.673	14.57
656.863	14.43
657.052	14.16
657.241	13.84
657.431	13.57
657.62	13.41
657.809	13.14
657.999	13.04
658.188	12.8
658.377	12.72
658.567	12.59
658.756	12.55
658.945	12.35
659.134	12.25
659.324	12.1
659.513	11.88
659.702	11.62
659.891	11.53
660.08	11.33
660.269	11.27
660.458	11.13
660.648	11.06
660.837	10.81
661.026	10.73
661.215	10.56
661.404	10.41
661.593	10.4
661.782	10.18
661.971	10.07
662.16	9.91
662.349	9.8
662.538	9.5
662.726	9.57
662.915	9.47
663.104	9.26
663.293	9.18
663.482	9.22
663.671	9.12
663.86	8.96
664.048	8.87
664.237	8.85
664.426	8.55
664.615	8.4
664.803	8.32
664.992	8.24
665.181	8.03
665.369	7.96
665.558	7.84
665.747	7.78
665.935	7.81
666.124	7.91
666.312	7.94
666.501	7.89
666.69	7.84
666.878	7.84
667.067	7.66
667.255	7.71
667.444	8
667.632	8.05
667.82	8.05
668.009	7.98
668.197	7.91
668.386	7.66
668.574	7.68
668.762	7.6
668.951	7.52
669.139	7.43
669.327	7.27
669.516	7.29
669.704	7.18
669.892	7.42
670.08	7.52
670.269	7.51
670.457	7.38
670.645	7.31
670.833	7.29
671.021	7.21
671.21	7.36
671.398	7.66
671.586	7.78
671.774	7.72
671.962	7.76
672.15	7.77
672.338	7.51
672.526	7.53
672.714	7.37
672.902	7.41
673.09	7.62
673.278	7.9
673.466	8.05
673.654	8.39
673.842	8.4
674.03	8.29
674.218	8.15
674.405	8.11
674.593	8.01
674.781	8.26
674.969	8.29
675.157	8.44
675.344	8.61
675.532	8.71
675.72	8.72
675.908	8.84
676.095	8.83
676.283	8.9
676.471	9.04
676.658	9.06
676.846	9.12
677.033	9.26
677.221	9.25
677.409	9.21
677.596	9.25
677.784	9.33
677.971	9.34
678.159	9.4
678.346	9.48
678.534	9.64
678.721	9.84
678.909	9.86
679.096	10.01
679.283	10.25
679.471	10.4
679.658	10.4
679.846	10.67
680.033	10.95
680.22	11.09
680.408	11.08
680.595	11.32
680.782	11.25
680.969	11.22
681.157	11.32
681.344	11.52
681.531	11.53
681.718	11.67
681.905	11.86
682.093	12.01
682.28	12.27
682.467	12.56
682.654	12.82
682.841	13.02
683.028	13.31
683.215	13.48
683.402	13.53
683.589	13.88
683.776	14.11
683.963	14.07
684.15	14.29
684.337	14.64
684.524	14.82
684.711	15.15
684.898	15.36
685.085	15.53
685.271	15.89
685.458	16.11
685.645	16.31
685.832	16.68
686.019	17.06
686.205	17.23
686.392	17.56
686.579	17.85
686.766	18.44
686.952	18.9
687.139	19.43
687.326	19.67
687.512	20.07
687.699	20.39
687.886	20.62
688.072	20.69
688.259	21.31
688.445	22
688.632	22.33
688.818	23.13
689.005	23.8
689.191	24.29
689.378	24.8
689.564	25.38
689.751	25.55
689.937	26.15
690.124	26.64
690.31	27.04
690.496	27.51
690.683	28.4
690.869	28.96
691.055	29.81
691.242	30.53
691.428	31.42
691.614	32.22
691.8	33.12
691.987	33.66
692.173	34.32
692.359	34.89
692.545	35.54
692.731	36.07
692.918	36.89
693.104	37.56
693.29	38.43
693.476	39.1
693.662	39.87
693.848	40.49
694.034	41.23
694.22	41.76
694.406	42.53
694.592	43.39
694.778	44.19
694.964	44.99
695.15	45.68
695.336	46.06
695.522	46.75
695.708	47.42
695.894	47.98
696.08	48.73
696.265	49.55
696.451	50.22
696.637	50.9
696.823	51.52
697.009	52.08
697.194	52.61
697.38	53.06
697.566	53.72
697.751	54.62
697.937	55.56
698.123	56.52
698.308	57.25
698.494	57.98
698.68	58.45
698.865	59.11
699.051	59.57
699.236	60.07
699.422	60.28
699.607	60.6
699.793	61.08
699.978	61.48
700.164	61.86
700.349	62.69
700.535	63.34
700.72	63.57
700.906	64.26
701.091	64.93
701.276	65.34
701.462	66.24
701.647	67.14
701.832	67.55
702.018	67.97
702.203	68.24
702.388	68.13
702.573	68.34
702.759	69.1
702.944	69.54
703.129	69.81
703.314	70.41
703.499	70.83
703.684	70.71
703.87	71.78
704.055	73.12
704.24	73.29
704.425	73.83
704.61	74.24
704.795	73.88
704.98	73.49
705.165	73.64
705.35	73.69
705.535	74.19
705.72	74.62
705.905	75.3
706.09	76.1
706.275	76.21
706.459	76
706.644	75.98
706.829	75.98
707.014	75.77
707.199	76.51
707.384	77.15
707.568	77.63
707.753	78.36
707.938	78.88
708.123	79.04
708.307	79.16
708.492	79.43
708.677	79.22
708.861	79.25
709.046	78.95
709.231	79.74
709.415	79.73
709.6	79.64
709.784	79.74
709.969	80.47
710.153	79.91
710.338	80.28
710.522	80.46
710.707	80.85
710.891	80.69
711.076	80.91
711.26	80.59
711.445	80.9
711.629	81.14
711.813	81.56
711.998	82.11
712.182	82.3
712.366	82.99
712.551	83.66
712.735	83.5
712.919	83.11
713.103	83.74
713.288	83.02
713.472	82.37
713.656	82.97
713.84	83.56
714.024	83.76
714.208	83.79
714.393	84.17
714.577	83.74
714.761	83.7
714.945	83.63
715.129	84.13
715.313	84.2
715.497	84.57
715.681	85.51
715.865	85.23
716.049	85.31
716.233	85.33
716.417	85.53
716.601	84.83
716.785	85.07
716.968	85.29
717.152	85.26
717.336	85.19
717.52	84.99
717.704	85.15
717.888	85.62
718.071	85.91
718.255	86.41
718.439	86.67
718.622	86.88
718.806	86.81
718.99	86.39
719.174	86.03
719.357	86.13
719.541	86.3
719.724	85.96
719.908	87.36
720.092	88.08
720.275	88.4
720.459	88.31
720.642	88.23
720.826	87.21
721.009	86.91
721.193	86.7
721.376	86.77
721.559	87.15
721.743	87.39
721.926	87.87
722.11	88.16
722.293	87.81
722.476	87.68
722.66	87.49
722.843	86.68
723.026	85.91
723.21	86.2
723.393	86.95
723.576	87.1
723.759	86.74
723.942	87.67
724.126	87.92
724.309	87.82
724.492	87.8
724.675	88.56
724.858	88.92
725.041	89.43
725.224	89.69
725.407	90.31
725.59	91.08
725.774	90.33
725.957	89.62
726.14	89.08
726.322	89.15
726.505	88.03
726.688	88.82
726.871	88.56
727.054	89.12
727.237	88.4
727.42	89.13
727.603	88.76
727.786	89.37
727.968	89.49
728.151	89.94
728.334	89.97
728.517	90.32
728.699	90.9
728.882	90.27
729.065	90.6
729.248	90.61
729.43	90.55
729.613	91
729.796	91.94
729.978	91.29
730.161	90.98
730.343	90.95
730.526	90.74
730.708	90.07
730.891	90.85
731.073	90.81
731.256	90.33
731.438	90.38
731.621	91.27
731.803	91.36
731.986	91.79
732.168	91.53
732.35	91.45
732.533	90.87
732.715	90.79
732.898	90.89
733.08	91.24
733.262	91.12
733.444	91.05
733.627	91.6
733.809	92.12
733.991	93.84
734.173	93.58
734.355	93.78
734.538	93.76
734.72	93.33
734.902	92.32
735.084	92.61
735.266	92.48
735.448	92.41
735.63	92.62
735.812	92.8
735.994	94.24
736.176	93.83
736.358	93.89
736.54	94.41
736.722	94.1
736.904	92.69
737.086	93.16
737.268	93.85
737.45	93.9
737.632	93.69
737.814	93.03
737.995	93
738.177	92.39
738.359	91.45
738.541	91.68
738.723	92.87
738.904	93.39
739.086	93.56
739.268	93.74
739.449	94.82
739.631	94.3
739.813	94.22
739.994	94.22
740.176	94.9
740.358	93.54
740.539	94.93
740.721	94.88
740.902	95.38
741.084	94.31
741.265	94.88
741.447	94.64
741.628	95.12
741.81	93.85
741.991	94.43
742.172	95.17
742.354	94.9
742.535	94.89
742.717	95.49
742.898	95.36
743.079	94.92
743.261	94.9
743.442	94.37
743.623	94.99
743.804	95.65
743.986	96.4
744.167	95.37
744.348	94.75
744.529	95.29
744.71	93.72
744.891	92.66
745.073	92.2
745.254	92.27
745.435	91.08
745.616	91.51
745.797	91.4
745.978	91.57
746.159	92.45
746.34	92.61
746.521	93.67
746.702	93.12
746.883	93.59
747.064	92.73
747.245	91.83
747.426	91.29
747.606	91.56
747.787	92.47
747.968	93.42
748.149	94.2
748.33	93.83
748.51	93.28
748.691	92.11
748.872	91.95
749.053	91.81
749.233	91.35
749.414	91.29
749.595	91.15
749.775	90.88
749.956	89.97
750.137	90.56
750.317	92.79
750.498	94.77
750.678	94.29
750.859	95.31
751.04	95.07
751.22	93.15
751.4	91.93
751.581	90.83
751.761	91.45
751.942	92.72
752.122	93.31
752.303	92.28
752.483	93.04
752.663	91.64
752.844	89.5
753.024	90.38
753.204	91.1
753.385	90.71
753.565	91.96
753.745	93.26
753.925	92.76
754.106	91.87
754.286	91.76
754.466	90.64
754.646	91.88
754.826	91.21
755.006	90.72
755.187	91.73
755.367	92.7
755.547	92.14
755.727	92.55
755.907	93.74
756.087	93.41
756.267	92.03
756.447	92.28
756.627	90.58
756.807	90.38
756.987	89.68
757.167	90.56
757.346	89.76
757.526	90.28
757.706	91.77
757.886	93.39
758.066	92.62
758.246	94.55
758.425	95.63
758.605	93.34
758.785	92.73
758.965	94.03
759.144	90.84
759.324	90.24
759.504	91.11
759.683	90.1
759.863	87.28
760.043	86.98
760.222	86.26
760.402	85.48
760.581	85.97
760.761	89.32
760.94	88.37
761.12	90.43
761.299	91.12
761.479	90.87
761.658	88.45
761.838	89.75
762.017	88.43
762.197	87.89
762.376	88.36
762.555	89.87
762.735	90.2
762.914	87.91
763.093	88.33
763.273	87.27
763.452	86.58
763.631	86.46
763.81	87.89
763.99	87.65
764.169	88.69
764.348	87.14
764.527	85.41
764.706	87.69
764.885	88.09
765.064	86.28
765.243	87.36
765.423	90.2
765.602	88.87
765.781	86.66
765.96	85.69
766.139	85.51
766.318	86.16
766.497	85.15
766.676	86.29
766.854	88.91
767.033	88.03
767.212	85.1
767.391	84.85
767.57	85.3
767.749	85.9
767.928	88.88
768.106	89.08
768.285	87.23
768.464	88.13
768.643	86.98
768.821	84.81
769	87.8
769.179	88.85
769.357	86
769.536	83.92
769.715	84.4
769.893	84.41
770.072	84.19
770.25	85.48
770.429	86.89
770.607	85.05
770.786	83.39
770.964	84.56
771.143	82.85
771.321	84.18
771.5	86.94
771.678	85.13
771.857	83.79
772.035	86.01
772.213	85.27
772.392	81.85
772.57	83.84
772.748	85.85
772.927	82.87
773.105	83.01
773.283	84.86
773.461	84.56
773.64	83.69
773.818	85.59
773.996	86.19
774.174	85.1
774.352	82.65
774.531	79.95
774.709	82.56
774.887	80.71
775.065	82.01
775.243	82.22
775.421	83.45
775.599	83.5
775.777	81.1
775.955	77.47
776.133	76.51
776.311	77.85
776.489	73.99
776.667	77.91
776.844	81.36
777.022	82.23
777.2	81.16
777.378	82.37
777.556	81.61
777.734	83.87
777.911	86.54
778.089	86.26
778.267	85.74
778.445	84.27
778.622	81.61
778.8	80.06
778.978	81.88
779.155	81.95
779.333	81.74
779.511	81.61
779.688	83.75
779.866	80.11
780.043	78.33
780.221	78.28
780.398	75.68
780.576	75.21
780.753	77.36
780.931	77.54
781.108	76.03
781.286	77.38
781.463	73.01
781.64	71.13
781.818	72.81
781.995	74.16
782.172	74.31
782.35	76.55
782.527	79.15
782.704	77.43
782.882	78.01
783.059	76.97
783.236	77.06
783.413	78.51
783.59	80.55
783.768	78.76
783.945	81.07
784.122	80.17
784.299	77.34
784.476	75.85
784.653	75.83
784.83	74.06
785.007	70.81
785.184	74.61
785.361	74.8
785.538	79.35
785.715	82.22
785.892	83.28
786.069	82.44
786.246	84.02
786.423	82.81
786.6	78.27
786.776	81.9
786.953	79.64
787.13	82.08
787.307	80.05
787.484	81.86
787.66	79.52
787.837	79.66
788.014	75.76
788.191	72.73
788.367	69.52
788.544	75.72
788.721	73
788.897	73.37
789.074	76.58
789.25	77.78
789.427	74.75
789.603	78.11
789.78	80.34
789.956	77.08
790.133	75.47
790.309	74.9
790.486	75.52
790.662	71.78
790.839	76.26
791.015	79.69
791.192	76.04
791.368	78.86
791.544	75.64
791.721	72.68
791.897	69.96
792.073	70.46
792.249	59.12
792.426	67.31
792.602	70.17
792.778	74.83
792.954	75.25
793.13	81.67
793.307	73.04
793.483	66.39
793.659	62.47
793.835	67.26
794.011	65.23
794.187	65.95
794.363	69
794.539	72.95
794.715	63.39
794.891	63.39
795.067	64.15
795.243	70
795.419	66.33
795.595	64.98
795.771	67.54
795.947	70.29
796.122	65.99
796.298	68.44
796.474	74.82
796.65	74.41
796.826	71.75
797.001	70.21
797.177	63.4
797.353	67.79
797.529	67.58
797.704	67.6
797.88	66.11
798.056	66.12
798.231	57.78
798.407	57.89
798.582	60.9
798.758	71.29
798.934	80.92
799.109	80.65
799.285	77.49
799.46	78.03
799.636	73.22
799.811	67.1
799.986	69.15
800.162	72.01
800.337	70.36
800.513	64.82
800.688	65.81
800.863	76.83
801.039	69.51
801.214	68.03
801.389	75.41
801.565	71.34
801.74	56.45
801.915	65.85
802.09	63.61
802.265	67.08
802.441	66.31
802.616	69.61
802.791	72.88
802.966	76.29
803.141	69.83
803.316	71.4
803.491	73.08
803.666	75.63
803.841	69.33
804.016	72.84
804.191	77.84
804.366	72.55
804.541	61.46
804.716	65.65
804.891	60.03
805.066	61.92
805.241	59.72
805.416	59.72
805.591	53.52
805.765	57.61
805.94	61.36
806.115	66.06
806.29	65.25
806.464	72.41
806.639	68.96
806.814	57.04
806.989	51.22
807.163	59.1
807.338	58.03
807.512	57.38
807.687	48.29
807.862	63.92
808.036	66.97
808.211	70.18
808.385	80.84
808.56	99.39
808.734	95.36
808.909	82.33
809.083	68.73
809.258	64.55
809.432	61.47
809.606	55.28
809.781	57.71
809.955	72.83
810.13	74.16
810.304	65.14
810.478	55.59
810.652	64.61
810.827	59.02
811.001	52.17
811.175	55.57
811.349	61.88
811.524	52.69
811.698	46.22
811.872	52.44
812.046	62.04
812.22	69.08
812.394	68.33
812.568	76.66
812.742	74.52
812.916	66.19
813.09	66.38
813.264	62.73
813.438	59.29
813.612	57.75
813.786	51.94
813.96	57.4
814.134	60.31
814.308	73.1
814.482	73.83
814.656	71.4
814.83	68.24
815.003	72.79
815.177	57.95
815.351	59.21
815.525	64.92
815.698	60.05
815.872	54.13
816.046	48.89
816.219	51.17
816.393	58.83
816.567	59.03
816.74	60.95
816.914	72.34
817.088	72.76
817.261	67.72
817.435	65.31
817.608	71.24
817.782	60.45
817.955	50.84
818.129	51.24
818.302	66.03
818.475	78.6
818.649	79
818.822	75.22
818.996	87.7
819.169	74.34
819.342	48.69
819.516	57.92
819.689	65.17
819.862	50
820.035	38.36
820.209	39.35
820.382	38.61
820.555	35.74
820.728	26.71
820.901	32.76
821.075	34.27
821.248	36.92
821.421	32.16
821.594	44.96
821.767	69.76
821.94	87.92
822.113	61.02
822.286	57.27
822.459	66.17
822.632	60.48
822.805	29.79
822.978	46.14
823.151	42.56
823.324	33.55
823.496	13.24
823.669	37.49
823.842	34.51
824.015	33.38
824.188	21.01
824.361	28.58
824.533	20.05
824.706	35.12
824.879	37.03
825.051	46.92
825.224	50.26
825.397	43.24
825.569	22.96
825.742	41.01
825.915	57.72
826.087	59.18
826.26	47.22
826.432	51.85
826.605	47.54
826.777	35.2
826.95	38.47
827.122	22.07
827.295	34.74
827.467	38.28
827.64	13.55
827.812	-4.46
827.984	20.05
828.157	-1.64
828.329	-47.52
828.501	-17.22
828.674	26.62
828.846	24.67
829.018	50.72
829.19	53.58
829.363	81.72
829.535	71.68
829.707	66.33
829.879	30.59
830.051	16.58
830.223	0.92
830.395	-22.3
830.568	-16.37
830.74	-12.72
830.912	35.48
831.084	-2.12
831.256	7.69
831.428	6.01
831.6	-12.34
831.772	-58.93
831.943	-49.74
832.115	-33.26
832.287	-6.19
832.459	26.69
832.631	44.01
832.803	80.55
832.975	108.83
833.146	93.84
833.318	97.15
833.49	108.25
833.662	57.89
833.833	32.59
834.005	30.18
834.177	33.74
834.348	31.19
834.52	25.82
834.692	28.04
834.863	9.14
835.035	14.7
835.206	-34.09
835.378	-1.16
835.549	-10.59
835.721	6.52
835.892	-10.63
836.064	-7.56
836.235	-1.66
836.407	9.38
836.578	-14.22
836.749	-26.76
836.921	-54.81
837.092	-69.97
837.264	-59.5
837.435	-73.28
837.606	-27.8
837.777	16.3
837.949	30.18
838.12	33.52
838.291	54.7
838.462	52.3
838.633	19.95
838.805	13.81
838.976	28.69
839.147	-27.5
839.318	-47.24
839.489	-76.86
839.66	-30.16
839.831	-0.05
840.002	11.4
840.173	1.89
840.344	76.44
840.515	67.38
840.686	-48.37
840.857	-38.32
841.028	-25.9
841.199	-37.17
841.369	-69.46
841.54	-51.07
841.711	-16.22
841.882	12.5
842.053	6
842.223	25.92
842.394	52.05
842.565	46.04
842.736	42.95
842.906	27.78
843.077	34.23
843.248	45.17
843.418	33.6
843.589	-8.47
843.759	85.86
843.93	64.42
844.101	27.94
844.271	46.55
844.442	78.75
844.612	70.34
844.783	42.15
844.953	13.96
845.123	34.6
845.294	5.51
845.464	-115.67
845.635	12.24
845.805	98.01
845.975	39.26
846.146	-11.44
846.316	-17.79
846.486	-1.92
846.656	15.17
846.827	10.37
846.997	12.57
847.167	44.7
847.337	22.93
847.507	-25.97
847.677	-16.5
847.848	27.8
848.018	19.28
848.188	29.19
848.358	21.6
848.528	12.72
848.698	1.44
848.868	-46.41
849.038	-119.85
849.208	-29.59
849.378	7.25
849.548	-22.7
849.718	4.2
849.887	29.77
850.057	14.06
850.227	-4.04
850.397	0.98
850.567	-89.69
850.737	-242.83
850.906	-731.88
851.076	-654.3
851.246	-243.72
851.415	23.43
851.585	-6.55
851.755	-53.67
851.924	-10.63
852.094	-42.37
852.264	-142.81
852.433	-831.25
852.603	-153.09
852.772	-65.7
852.942	-39.32
853.111	-43.73
853.281	-5.33
853.45	41.08
853.62	-34.08
853.789	-41.05
853.959	-21.85
854.128	-20.49
854.297	-48.97
854.467	-57.73
854.636	-16.06
854.805	32.14
854.975	33.46
855.144	77.12
855.313	540.91
855.482	106.93
855.652	-38.2
855.821	-48.11
855.99	47.95
856.159	53.04
856.328	54.33
856.497	46.23
856.667	49.03
856.836	42.2
857.005	-7.01
857.174	-25.17
857.343	-52.78
857.512	-29.37
857.681	-68.99
857.85	-110.87
858.019	-25.6
858.188	-32.18
858.356	-68.2
858.525	-129.54
858.694	-100.55
858.863	-265.66
859.032	-181.23
859.201	-206.66
859.369	-69.77
859.538	-56.28
859.707	-41.15
859.876	-35.87
860.044	-37.38
860.213	33.15
860.382	42.59
860.55	62.37
860.719	88.33
860.888	88.44
861.056	41.18
861.225	20.3
861.393	68.42
861.562	44.04
861.73	-6.54
861.899	-125.92
862.067	-1894.83
862.236	-105.33
862.404	-225.79
862.572	-128.5
862.741	-20.23
862.909	-10.93
863.078	-142.89
863.246	-104.14
863.414	-79.47
863.582	-45.58
863.751	-60.96
863.919	-38.55
864.087	7.42
864.255	-23.51
864.424	-361.16
864.592	-45.68
864.76	-112.77
864.928	-259.6
865.096	-178.82
865.264	-131.94
865.432	-1460.23
865.6	19.25
865.768	-54.24
865.936	-94.41
866.104	-62.92
866.272	-148.28
866.44	-379.33
866.608	727.45
866.776	244.55
866.944	2701.16
867.112	-400.64
867.28	-148.26
867.448	3.26
867.615	40.52
867.783	53.85
867.951	14.52
868.119	69.7
868.286	18.47
868.454	-129.33
868.622	-122.55
868.789	-119.74
868.957	-4032.14
869.125	-2377.63
869.292	-132.06
869.46	-215.78
869.627	-21.32
869.795	-12.05
869.963	-0.32
870.13	20.84
870.298	60.33
870.465	-6.72
870.632	-52.81
870.8	-28.09
870.967	-77.05
871.135	-173.69
871.302	-135.89
871.469	-111.62
871.637	-222.24
871.804	-113.23
871.971	-128.16
872.139	-383.95
872.306	-17.35
872.473	-1.24
872.64	-117.38
872.807	18.34
872.975	70.35
873.142	-204.18
873.309	1890.54
873.476	32.37
873.643	79.35
873.81	26.33
873.977	75.48
874.144	73.6
874.311	-36.82
874.478	-72.29
874.645	-105.45
874.812	-27.37
874.979	0.79
875.146	-8.38
875.313	-24.59
875.48	51.94
875.647	6.65
875.813	-27.67
875.98	-17.49
876.147	-64.62
876.314	-155.22
876.481	1406.2
876.647	-2002.81
876.814	847.41
876.981	-229.81
877.147	-100.77
877.314	1.79
877.481	27
877.647	27.3
877.814	-16.74
877.98	-49.69
878.147	-35.68
878.314	45.51
878.48	21.52
878.647	15.05
878.813	53.15
878.979	65.03
879.146	1.75
879.312	11.74
879.479	7.39
879.645	-92.66
879.811	-236.75
879.978	-641.6
880.144	-171.21
880.31	-58.58
880.477	-265.5
880.643	-362.5
880.809	-144.71
880.975	-115.93
881.142	-1113.18
881.308	-124.9
881.474	-27.18
881.64	-4.76
881.806	-78.77
881.972	5.63
882.138	18.76
882.304	-11.38
882.47	-164.06
882.636	-661.89
882.802	-239.01
882.968	-64.83
883.134	-32.2
883.3	-45.9
883.466	17.05
883.632	75.07
883.798	47.1
883.964	26.26
884.129	24.78
884.295	31.67
884.461	-69.32
884.627	-101.56
884.793	-109.97
884.958	-35.79
885.124	-132.31
885.29	-201.13
885.455	-188.11
885.621	6.19
885.787	-64.14
885.952	-22.09
886.118	-49.02
886.283	-66.13
886.449	-162.8
886.614	-134.02
886.78	-233.27
886.945	576.23
887.111	-322.83
887.276	-233.81
887.442	-562.27
887.607	-228.07
887.773	-207.48
887.938	-268.8
888.103	-292.72
888.269	-212.5
888.434	-295.41
888.599	-137.32
888.764	12.79
888.93	7.61
889.095	-10.66
889.26	-48.21
889.425	18.54
889.59	19.07
889.756	29.37
889.921	25.47
890.086	73.89
890.251	40.29
890.416	-57.09
890.581	-794.35
890.746	35.54
890.911	225.8
891.076	145.58
891.241	-304.85
891.406	17.16
891.571	-48.46
891.736	-249.31
891.901	-316.37
892.065	521.43
892.23	135.03
892.395	209.1
892.56	250.72
892.725	-272.27
892.889	13.41
893.054	-7.73
893.219	-11.75
893.384	-32.63
893.548	-115.14
893.713	-158.17
893.878	-152.57
