Data from Ofra_PS_T2_1A_1GT37_Reflection_2.txt Node
Date: Wed Jul 21 17:48:02 EDT 2021
User: Adam
Spectrometer: FLMT01687
Trigger mode: 0
Integration Time (sec): 1.100000E0
Scans to average: 2
Electric dark correction enabled: true
Nonlinearity correction enabled: false
Boxcar width: 2
XAxis mode: Wavelengths
Number of Pixels in Spectrum: 3648
>>>>>Begin Spectral Data<<<<<
179.494	607
179.716	691.53
179.937	615.47
180.158	610.19
180.38	837.34
180.601	223.07
180.823	46.48
181.044	-67.42
181.265	93.93
181.486	89.75
181.708	179.85
181.929	977.04
182.15	-674.3
182.372	119
182.593	48.52
182.814	74.05
183.035	118.13
183.257	89.01
183.478	-16.97
183.699	44.33
183.92	8.02
184.141	-7.99
184.363	-35.94
184.584	40.82
184.805	29.39
185.026	50.3
185.247	50.26
185.468	14.41
185.689	-6.26
185.91	-16.54
186.132	-11.74
186.353	-17.68
186.574	57.35
186.795	50.8
187.016	-3.44
187.237	-23.43
187.458	-50.71
187.679	-79.38
187.9	-72.79
188.121	-46.32
188.342	-26.99
188.563	0.67
188.784	39.98
189.005	43.7
189.226	91.41
189.447	38.06
189.667	-18.33
189.888	-364.41
190.109	-1365.91
190.33	-719.19
190.551	-1265.27
190.772	-345.46
190.993	-280.37
191.214	-238.16
191.434	-159.87
191.655	-60.21
191.876	-81.84
192.097	-126.18
192.318	-203.84
192.538	-284.68
192.759	-193.86
192.98	-112.76
193.201	-50.92
193.421	-11.05
193.642	3.32
193.863	0.26
194.083	-16.3
194.304	-27.32
194.525	-25.34
194.745	-69.75
194.966	-78.93
195.187	-75.02
195.407	-112.67
195.628	-203.66
195.848	-176.56
196.069	-148.12
196.29	-118.47
196.51	-101.64
196.731	-78.93
196.951	-110.93
197.172	-134.44
197.392	-144.18
197.613	-137.75
197.833	-168.55
198.054	-130.27
198.274	-81.07
198.495	-99.74
198.715	-70.44
198.936	-100.8
199.156	-81.29
199.377	-183.79
199.597	-163.43
199.817	-165.91
200.038	-84.29
200.258	-178.25
200.479	-114.85
200.699	-116.39
200.919	-34.63
201.14	-71.22
201.36	-63.72
201.58	0.48
201.801	30.83
202.021	-8.84
202.241	15.52
202.461	12.81
202.682	-88.61
202.902	-198.9
203.122	-124.45
203.342	-126.13
203.563	-52.55
203.783	-14.71
204.003	-35.26
204.223	-47.2
204.443	29.52
204.663	-13.23
204.884	7.32
205.104	61.02
205.324	101.82
205.544	84.71
205.764	93.29
205.984	83.06
206.204	59.16
206.424	45.55
206.644	-3.9
206.864	6.71
207.084	-33.64
207.304	3.71
207.525	-153.36
207.745	-49.86
207.964	-42.86
208.184	-91.87
208.404	-134.12
208.624	-143.84
208.844	-151.62
209.064	-496.72
209.284	-476.88
209.504	-250.23
209.724	-43.74
209.944	-20.06
210.164	18.61
210.384	17.75
210.604	9.8
210.823	-41.18
211.043	-78.95
211.263	-64.46
211.483	-49.94
211.703	-107.16
211.922	-93.38
212.142	-6.19
212.362	3.74
212.582	-24.22
212.801	-6.64
213.021	-31.13
213.241	-59.68
213.461	-77.32
213.68	-82.58
213.9	-48.02
214.12	-18.67
214.339	-86.67
214.559	-82.23
214.779	-27.26
214.998	-28.63
215.218	-83.04
215.438	-26.99
215.657	-38.42
215.877	-44.9
216.096	-19.75
216.316	2.25
216.535	-17.01
216.755	-7.87
216.974	-93.43
217.194	-190.97
217.413	-177.29
217.633	-176.49
217.852	-312.43
218.072	-140.79
218.291	-59.04
218.511	-7.17
218.73	-22.65
218.95	-16
219.169	-17.65
219.389	-57.8
219.608	-61.19
219.827	-59.56
220.047	-47.98
220.266	-28.29
220.485	-35.84
220.705	-29.69
220.924	-54.31
221.143	-11.37
221.363	-39.52
221.582	-16.61
221.801	-4.93
222.021	26.2
222.24	-42.14
222.459	33.26
222.678	-17.98
222.897	-91.42
223.117	-125
223.336	-85.72
223.555	-77
223.774	-29.07
223.993	-8.97
224.213	52.48
224.432	51.39
224.651	74.87
224.87	48.52
225.089	50.96
225.308	44.93
225.527	54.03
225.746	40.69
225.965	21.08
226.184	12.37
226.404	19.37
226.623	-16.18
226.842	-2.13
227.061	28.99
227.28	28.26
227.499	4.41
227.718	25.89
227.936	8.7
228.155	15.18
228.374	-11.05
228.593	9.89
228.812	-9.28
229.031	-13.28
229.25	-70.84
229.469	-62.21
229.688	-69.61
229.907	-11.79
230.125	7.48
230.344	21.62
230.563	32.47
230.782	47.72
231.001	-37
231.22	-30.46
231.438	9.66
231.657	2.34
231.876	-9.73
232.095	44.52
232.313	41.5
232.532	-2.69
232.751	-30.24
232.969	-69.29
233.188	-168.57
233.407	-86.72
233.625	-51.3
233.844	-61.16
234.063	-35.88
234.281	-20.27
234.5	-47.33
234.719	-36.81
234.937	-9.61
235.156	-3.01
235.374	2.19
235.593	1.11
235.811	-14.85
236.03	-32.25
236.249	-62.51
236.467	-30.34
236.686	-3.12
236.904	10.01
237.123	-20.24
237.341	-21.91
237.559	-28.53
237.778	-55.24
237.996	-66.45
238.215	-7.18
238.433	-4.32
238.652	0.09
238.87	-22.35
239.088	-13.88
239.307	-16.69
239.525	-12.15
239.743	-61.56
239.962	-20.58
240.18	-62.24
240.398	-118.83
240.617	-120.87
240.835	-89.76
241.053	-78.24
241.271	-14.95
241.49	2.48
241.708	-24.12
241.926	-31.42
242.144	-34.85
242.363	-82.48
242.581	-75.12
242.799	-39.65
243.017	-14.96
243.235	-32.88
243.453	-24.08
243.672	-38.61
243.89	-29.07
244.108	-33.34
244.326	-9.78
244.544	-13.63
244.762	-12.84
244.98	-4.19
245.198	-9.26
245.416	-63.32
245.634	-46.4
245.852	-45.74
246.07	-63.63
246.288	-61.71
246.506	-52.11
246.724	-37.81
246.942	-32.05
247.16	-10.73
247.378	3.43
247.596	18.43
247.814	2.74
248.032	4.12
248.25	2.12
248.468	5.23
248.685	28.29
248.903	57.27
249.121	48.24
249.339	33.71
249.557	11.84
249.775	5.23
249.992	-76.86
250.21	-68.06
250.428	-49.96
250.646	-66.28
250.863	-94.06
251.081	-38.54
251.299	-31.51
251.517	-45.99
251.734	-34.94
251.952	-30
252.17	-29.78
252.387	-14.78
252.605	-13.36
252.823	1.81
253.04	25.52
253.258	37.01
253.475	31.23
253.693	47.69
253.911	36.15
254.128	42.38
254.346	41.83
254.563	19.35
254.781	-11.38
254.998	-25.35
255.216	-41.55
255.433	-18.87
255.651	24.72
255.868	57.19
256.086	81.5
256.303	72.8
256.521	48.47
256.738	17.08
256.956	-9.74
257.173	-34.01
257.39	-60.73
257.608	-101.79
257.825	-45.39
258.043	-4.22
258.26	1.53
258.477	57.63
258.695	65.43
258.912	15.08
259.129	1.33
259.346	-36.25
259.564	-102.91
259.781	-121.03
259.998	-28.41
260.216	-2.2
260.433	48.62
260.65	54.99
260.867	69.24
261.084	19.85
261.302	-3.04
261.519	-35.64
261.736	-64.87
261.953	-83.96
262.17	-35.43
262.387	-68.48
262.604	-86.79
262.822	-71.94
263.039	-46.32
263.256	-90.22
263.473	-29.52
263.69	-10.02
263.907	23.22
264.124	45.04
264.341	41.74
264.558	17.73
264.775	37.24
264.992	32.42
265.209	11.23
265.426	34.65
265.643	38.27
265.86	29.65
266.077	33.17
266.294	16.86
266.51	-26.74
266.727	-19.96
266.944	-13.72
267.161	-33.2
267.378	-42.3
267.595	-5.13
267.812	-32.78
268.028	-67.45
268.245	-44.89
268.462	-36.08
268.679	-48.24
268.896	11.13
269.112	21.33
269.329	2.07
269.546	3.94
269.763	1.31
269.979	-29.88
270.196	-26.01
270.413	-48.57
270.629	-72.96
270.846	-83.17
271.063	-59.38
271.279	-64.59
271.496	-47.38
271.712	-2.98
271.929	28.31
272.146	-6.54
272.362	-6.16
272.579	28.56
272.795	33.08
273.012	28.9
273.228	23.42
273.445	-12.38
273.661	-37.42
273.878	-89.19
274.094	-88.5
274.311	-96.2
274.527	0.66
274.744	3.31
274.96	4.66
275.177	14.93
275.393	35.3
275.609	20.95
275.826	47.39
276.042	39.48
276.259	23.43
276.475	28.2
276.691	33.05
276.908	-4.94
277.124	15.44
277.34	26.42
277.557	17.61
277.773	-14.32
277.989	-22.54
278.205	-30.87
278.422	-19.8
278.638	-23.06
278.854	5.21
279.07	11.39
279.286	-7.08
279.503	-35.51
279.719	-50.85
279.935	-100.2
280.151	-101.2
280.367	-32.57
280.583	-61.62
280.799	-31.3
281.016	-41.91
281.232	-11.49
281.448	-31.19
281.664	20.01
281.88	-14.02
282.096	6.22
282.312	19.75
282.528	56.55
282.744	33.38
282.96	38.99
283.176	25.04
283.392	17.08
283.608	-7.94
283.824	-13.23
284.04	3.17
284.256	12.04
284.471	-4.08
284.687	-1
284.903	36.28
285.119	46.4
285.335	8.87
285.551	29.48
285.767	8.55
285.982	-21.19
286.198	-50.55
286.414	25.76
286.63	24.04
286.846	54.8
287.061	35.03
287.277	61.88
287.493	30.09
287.709	43.76
287.924	18.94
288.14	46.9
288.356	24.25
288.571	52.55
288.787	22.95
289.003	25.82
289.218	9.83
289.434	-33.75
289.65	-27.25
289.865	-22.54
290.081	1.7
290.296	1.81
290.512	22.21
290.727	-22.55
290.943	-23.95
291.159	-36.62
291.374	-35.21
291.59	-55.27
291.805	-37.74
292.021	-41.75
292.236	-41.53
292.451	-18.92
292.667	-9.01
292.882	5.01
293.098	18.66
293.313	-9.66
293.529	-39.79
293.744	-53.7
293.959	-54.11
294.175	-52.6
294.39	-16.96
294.605	0.52
294.821	24.01
295.036	28.26
295.251	32.78
295.467	1.54
295.682	-13.29
295.897	-63.55
296.112	-75.51
296.328	-77.31
296.543	-71.39
296.758	-55.68
296.973	-0.9
297.188	33.87
297.404	11.74
297.619	9.11
297.834	-4.62
298.049	-35.22
298.264	-91.94
298.479	-23.56
298.694	-21.81
298.909	2.27
299.125	8.91
299.34	22.85
299.555	-5.18
299.77	20.21
299.985	-47.01
300.2	-87.92
300.415	-98.61
300.63	-52.7
300.845	-70.13
301.06	-49.95
301.275	-6.39
301.49	1.75
301.704	-20.04
301.919	-35.63
302.134	-52.34
302.349	-68.41
302.564	-126.72
302.779	-165.62
302.994	-108.89
303.209	-47.88
303.423	-0.55
303.638	45.73
303.853	10.3
304.068	-6.41
304.283	4.37
304.497	-6.35
304.712	-11.63
304.927	1.23
305.142	-3.8
305.356	-7.37
305.571	-14.83
305.786	-37.66
306	-59.65
306.215	-56.93
306.43	-78.18
306.644	-58.81
306.859	-9.08
307.074	4.3
307.288	-14.68
307.503	-14.19
307.717	-45.68
307.932	-58.29
308.147	-53.02
308.361	-26.66
308.576	-30.64
308.79	-59.95
309.005	-35.63
309.219	-22.16
309.434	-34.94
309.648	-20.71
309.863	-0.09
310.077	-1.34
310.292	-5.87
310.506	-9.26
310.72	-10.35
310.935	5.85
311.149	-5.76
311.364	21.61
311.578	38.39
311.792	29.25
312.007	31.49
312.221	18.99
312.435	14.88
312.649	-3.61
312.864	1.4
313.078	19.52
313.292	84.81
313.507	57.43
313.721	85.24
313.935	56.64
314.149	27.3
314.363	15.43
314.578	5.08
314.792	7.84
315.006	-0.37
315.22	15.08
315.434	16.26
315.648	36.41
315.862	28.04
316.077	31.91
316.291	12.54
316.505	12.94
316.719	-23.92
316.933	-27.61
317.147	-45.58
317.361	-84.52
317.575	-94.79
317.789	-117.64
318.003	-179.46
318.217	-122.85
318.431	-40.74
318.645	-3.41
318.859	-5.97
319.073	23.46
319.287	2.12
319.5	-21.07
319.714	-72.46
319.928	-98.16
320.142	-147.81
320.356	-65.55
320.57	-39.93
320.784	-60.49
320.997	-59.11
321.211	-46.42
321.425	-118.1
321.639	-132.82
321.853	-54.23
322.066	-30.71
322.28	-27
322.494	-19.65
322.707	9.27
322.921	-12.5
323.135	-21.49
323.349	0.56
323.562	-13.84
323.776	-41.02
323.989	-21.89
324.203	-30.63
324.417	-46.4
324.63	-64.68
324.844	-58.16
325.057	-64.18
325.271	-40.26
325.485	-10.12
325.698	15.61
325.912	35.4
326.125	7.55
326.339	8.09
326.552	-20.57
326.766	-23.76
326.979	-35.92
327.193	8.27
327.406	-6.68
327.619	2.39
327.833	19.37
328.046	-1.48
328.26	-29.77
328.473	-9.67
328.686	-40.67
328.9	-43.82
329.113	-12.93
329.326	-38.64
329.54	-19.83
329.753	-27.9
329.966	-34.99
330.179	-28.45
330.393	-8.31
330.606	-12.22
330.819	3.38
331.032	8.41
331.246	6.65
331.459	36.07
331.672	21.4
331.885	22
332.098	0.67
332.311	-8.48
332.525	-67.69
332.738	-41.52
332.951	-19.31
333.164	9.03
333.377	23.25
333.59	34.43
333.803	28.03
334.016	15.57
334.229	10.03
334.442	-3.61
334.655	19.76
334.868	27.41
335.081	8.26
335.294	-7.37
335.507	-3.63
335.72	-21.94
335.933	-32.2
336.146	-21.61
336.359	-5.52
336.572	-29.81
336.785	-46.18
336.997	-45.4
337.21	-25.91
337.423	-46.47
337.636	-56.37
337.849	-39.35
338.062	-43.53
338.274	-29.37
338.487	-29.77
338.7	-22.27
338.913	-63.49
339.125	-80.36
339.338	-145.82
339.551	-95.74
339.763	-59.76
339.976	-32.34
340.189	-8.9
340.402	5.59
340.614	-20.84
340.827	-27.74
341.039	-48.92
341.252	-52.58
341.465	-42.59
341.677	-47.37
341.89	-82.99
342.102	-43.88
342.315	-67.25
342.527	-90.3
342.74	-78.13
342.952	-39.11
343.165	-45.56
343.377	-14.36
343.59	-20.49
343.802	5.96
344.015	19.51
344.227	38.88
344.44	27.24
344.652	29.9
344.864	4.81
345.077	9.21
345.289	9.17
345.502	17.33
345.714	2.3
345.926	12.95
346.139	10.43
346.351	16.66
346.563	9.99
346.775	25.45
346.988	7.25
347.2	-13.53
347.412	-68.06
347.624	-77.06
347.837	-88.71
348.049	-66.22
348.261	-8.53
348.473	3.43
348.685	2.2
348.897	-7.96
349.11	-17.92
349.322	-62.62
349.534	-35.71
349.746	-40.86
349.958	-31.71
350.17	-40.12
350.382	-9.62
350.594	-11.03
350.806	-2.74
351.018	-15.49
351.23	-7.99
351.442	-66.46
351.654	-69.57
351.866	-58.78
352.078	-46.6
352.29	-28.72
352.502	7.37
352.714	14.53
352.926	1.96
353.138	12.11
353.35	-2.02
353.561	-14.61
353.773	-45.79
353.985	-18.38
354.197	-35.74
354.409	-33.1
354.621	-39.15
354.832	-15.6
355.044	-41.97
355.256	-33.06
355.468	-21.18
355.679	-17.15
355.891	-10.8
356.103	-20.26
356.314	-7.05
356.526	-10.44
356.738	-12.75
356.949	-39.69
357.161	-16.81
357.373	-27.65
357.584	-32.66
357.796	-9.48
358.008	-1.67
358.219	23.85
358.431	21.63
358.642	33.72
358.854	26.69
359.065	14.31
359.277	-27.71
359.488	-36.97
359.7	-70.96
359.911	-96.22
360.123	-70.42
360.334	-81.84
360.546	-95.93
360.757	-85.13
360.969	-57.21
361.18	-53.88
361.391	-29.8
361.603	-36.57
361.814	-24.16
362.025	-41.12
362.237	-42.88
362.448	-21.99
362.659	8.11
362.871	1.16
363.082	8.04
363.293	12.78
363.504	-10.96
363.716	-40.71
363.927	-51.73
364.138	-73.11
364.349	-93.91
364.56	-88.39
364.772	-72.61
364.983	-33.69
365.194	-30.79
365.405	-10.62
365.616	14.48
365.827	7.35
366.038	-27.65
366.25	-20.27
366.461	-47.09
366.672	-18.71
366.883	8.3
367.094	28.3
367.305	11.54
367.516	19.15
367.727	-23.48
367.938	-44.78
368.149	-54.6
368.36	-27.98
368.571	-34.64
368.781	-44.67
368.992	-49.57
369.203	-70.18
369.414	-95.78
369.625	-86
369.836	-59.51
370.047	-91.75
370.258	-67.35
370.468	-68.72
370.679	-92.14
370.89	-84.5
371.101	-42.12
371.312	-48.34
371.522	-33.39
371.733	-21.87
371.944	-14.94
372.155	-16.35
372.365	-21.82
372.576	-33.47
372.787	-35.18
372.997	-57
373.208	-59.82
373.419	-29.25
373.629	-54.51
373.84	-56.05
374.05	-60.3
374.261	-49.28
374.472	-76.4
374.682	-16.75
374.893	-9.22
375.103	23.57
375.314	16.15
375.524	16.87
375.735	10.87
375.945	22.2
376.156	-9
376.366	-9.81
376.577	-7.6
376.787	-15.87
376.997	-13.54
377.208	-13.12
377.418	-21.21
377.629	-6.93
377.839	-9.38
378.049	-13.73
378.26	10.85
378.47	20.29
378.68	9.81
378.89	6.09
379.101	-4.43
379.311	-37.25
379.521	-62.29
379.732	-66.06
379.942	-54.96
380.152	-69.69
380.362	-36.62
380.572	-37.3
380.783	-18.21
380.993	-6.7
381.203	9.9
381.413	15.83
381.623	32.5
381.833	25.83
382.043	13.93
382.253	8.81
382.463	5.4
382.674	-12.81
382.884	-34.63
383.094	-33.53
383.304	-25.52
383.514	-25.34
383.724	-11.54
383.934	-13.9
384.144	-25.5
384.353	-36.37
384.563	-35.08
384.773	-27.1
384.983	-36.24
385.193	-13.38
385.403	-5.27
385.613	-6.19
385.823	-18.75
386.033	-4.75
386.242	-18.36
386.452	-20.8
386.662	-28.49
386.872	-14.17
387.082	-19.63
387.291	-23.6
387.501	-26.95
387.711	-17.74
387.921	-28.66
388.13	-26.71
388.34	-8.75
388.55	-13.1
388.759	-14.33
388.969	-2.1
389.179	-4.68
389.388	-9.54
389.598	-4.33
389.807	-12.27
390.017	-19.82
390.227	-16.85
390.436	-17.54
390.646	-14.29
390.855	-8.45
391.065	-10.07
391.274	-9.48
391.484	-13.69
391.693	-15.15
391.903	-14.14
392.112	-7.62
392.322	-5.17
392.531	-0.2
392.74	2.23
392.95	-2.31
393.159	-5.39
393.369	-5.81
393.578	-6.73
393.787	-9.2
393.997	-6.13
394.206	-7.55
394.415	-7.32
394.625	-7.72
394.834	-8.3
395.043	-8.28
395.252	-4.85
395.462	-2.92
395.671	-1.94
395.88	-0.87
396.089	0.76
396.298	-1.33
396.508	-1.62
396.717	-1.94
396.926	-0.54
397.135	-0.66
397.344	-0.19
397.553	-0.17
397.762	1.69
397.971	1.31
398.181	1
398.39	0.77
398.599	0.76
398.808	0.24
399.017	0.95
399.226	2.12
399.435	3.42
399.644	3.69
399.853	2.72
400.062	2.09
400.27	1.44
400.479	0.66
400.688	-0.56
400.897	-0.22
401.106	-0.17
401.315	-0.48
401.524	-0.14
401.733	1.07
401.941	1.71
402.15	2.03
402.359	1.83
402.568	2.04
402.777	2
402.985	1.56
403.194	1.12
403.403	1.23
403.612	0.75
403.82	0.48
404.029	0.88
404.238	0.83
404.446	1.29
404.655	1.32
404.864	1.15
405.072	0.76
405.281	1.15
405.489	0.81
405.698	0.77
405.906	0.82
406.115	0.85
406.324	0.57
406.532	0.55
406.741	0.94
406.949	1.07
407.158	1
407.366	1.08
407.574	1.1
407.783	0.98
407.991	0.73
408.2	0.97
408.408	0.96
408.617	0.93
408.825	0.76
409.033	0.97
409.242	0.98
409.45	0.99
409.658	0.94
409.867	1.18
410.075	1.02
410.283	0.86
410.491	0.87
410.7	0.85
410.908	0.81
411.116	1.13
411.324	1.08
411.533	1.08
411.741	1.34
411.949	1.36
412.157	1
412.365	1.05
412.573	1.06
412.781	1
412.99	0.76
413.198	1.04
413.406	0.99
413.614	0.98
413.822	0.8
414.03	0.79
414.238	0.68
414.446	0.93
414.654	0.62
414.862	0.78
415.07	0.9
415.278	0.99
415.486	0.61
415.694	0.83
415.902	0.68
416.109	0.61
416.317	0.55
416.525	0.53
416.733	0.58
416.941	0.71
417.149	0.56
417.357	0.58
417.564	0.83
417.772	1.09
417.98	1.06
418.188	1.2
418.395	1.26
418.603	1.42
418.811	0.99
419.019	0.88
419.226	1.28
419.434	1.35
419.642	1.11
419.849	1.22
420.057	1.32
420.265	1.01
420.472	0.66
420.68	0.72
420.887	0.66
421.095	0.81
421.302	0.67
421.51	1.01
421.717	0.98
421.925	1.08
422.132	0.71
422.34	0.64
422.547	0.61
422.755	0.53
422.962	0.42
423.17	0.44
423.377	0.59
423.585	0.58
423.792	0.63
423.999	0.67
424.207	0.62
424.414	0.85
424.621	0.88
424.829	0.86
425.036	0.82
425.243	1.02
425.451	0.65
425.658	0.4
425.865	0.51
426.072	0.62
426.28	0.93
426.487	0.92
426.694	1.01
426.901	0.82
427.108	0.72
427.315	0.42
427.523	0.75
427.73	0.66
427.937	0.71
428.144	0.67
428.351	0.65
428.558	0.72
428.765	0.67
428.972	0.53
429.179	0.68
429.386	0.92
429.593	0.72
429.8	0.63
430.007	0.92
430.214	0.96
430.421	0.62
430.628	0.35
430.835	0.31
431.042	0.43
431.249	0.41
431.456	0.5
431.662	0.81
431.869	1.08
432.076	1.05
432.283	1.17
432.49	1.14
432.697	1
432.903	0.72
433.11	0.65
433.317	0.61
433.524	0.87
433.73	0.86
433.937	1.26
434.144	1.13
434.35	1.14
434.557	0.89
434.764	0.84
434.97	0.56
435.177	0.7
435.384	0.59
435.59	0.71
435.797	0.97
436.003	1.17
436.21	1.12
436.416	1.16
436.623	1.18
436.829	1.24
437.036	1.33
437.242	1.38
437.449	1.33
437.655	1.3
437.862	1.1
438.068	0.94
438.275	0.98
438.481	1.22
438.687	1.18
438.894	1.23
439.1	1.27
439.307	1.49
439.513	1.28
439.719	1.26
439.926	1.37
440.132	1.38
440.338	1.09
440.544	1.29
440.751	1.23
440.957	1.26
441.163	1.09
441.369	1.23
441.575	0.89
441.782	0.96
441.988	0.75
442.194	0.8
442.4	0.79
442.606	1.17
442.812	1.21
443.018	1.39
443.224	1.45
443.431	1.46
443.637	1.18
443.843	1.09
444.049	1.05
444.255	1.04
444.461	1.12
444.667	1.11
444.873	1.31
445.079	1.34
445.284	1.42
445.49	1.07
445.696	0.92
445.902	0.73
446.108	0.65
446.314	0.52
446.52	0.69
446.726	1.06
446.931	1.08
447.137	1.17
447.343	1.18
447.549	1.08
447.755	0.88
447.96	0.93
448.166	0.85
448.372	0.86
448.578	0.93
448.783	0.95
448.989	1
449.195	1.18
449.4	1.17
449.606	1.12
449.812	1.03
450.017	1
450.223	0.81
450.428	0.76
450.634	1.05
450.84	1.26
451.045	1.22
451.251	1.19
451.456	1.47
451.662	1.45
451.867	1.42
452.073	1.52
452.278	1.69
452.483	1.63
452.689	1.4
452.894	1.41
453.1	1.34
453.305	1.19
453.51	1.1
453.716	1.14
453.921	1.14
454.127	1.02
454.332	0.98
454.537	0.96
454.742	0.96
454.948	0.9
455.153	1.09
455.358	1.24
455.563	1.4
455.769	1.54
455.974	1.54
456.179	1.37
456.384	1.4
456.589	1.29
456.795	1.08
457	1.05
457.205	1.32
457.41	1.24
457.615	1.17
457.82	1.28
458.025	1.32
458.23	1.1
458.435	1.17
458.64	1.12
458.845	1.3
459.05	1.3
459.255	1.32
459.46	1.26
459.665	1.3
459.87	1.2
460.075	1.22
460.28	1.26
460.485	1.32
460.69	1.36
460.895	1.15
461.099	1.11
461.304	1.2
461.509	1.26
461.714	1.14
461.919	1.29
462.123	1.21
462.328	1.27
462.533	1.15
462.738	1.36
462.942	1.35
463.147	1.45
463.352	1.42
463.556	1.42
463.761	1.33
463.966	1.32
464.17	1.24
464.375	1.11
464.58	1.06
464.784	1.07
464.989	1.03
465.193	1.08
465.398	1.18
465.602	1.35
465.807	1.29
466.011	1.39
466.216	1.5
466.42	1.48
466.625	1.49
466.829	1.61
467.034	1.59
467.238	1.79
467.443	1.77
467.647	1.63
467.851	1.62
468.056	1.68
468.26	1.46
468.464	1.49
468.669	1.61
468.873	1.8
469.077	1.83
469.282	1.88
469.486	1.91
469.69	1.89
469.894	1.67
470.099	1.67
470.303	1.73
470.507	1.67
470.711	1.6
470.915	1.59
471.119	1.42
471.324	1.31
471.528	1.3
471.732	1.37
471.936	1.35
472.14	1.55
472.344	1.57
472.548	1.66
472.752	1.84
472.956	2.15
473.16	2.03
473.364	2.03
473.568	2.01
473.772	1.98
473.976	1.74
474.18	1.78
474.384	1.8
474.588	1.74
474.792	1.56
474.995	1.68
475.199	1.74
475.403	1.84
475.607	1.86
475.811	1.86
476.015	1.87
476.218	1.87
476.422	1.72
476.626	1.86
476.83	1.99
477.033	1.96
477.237	1.88
477.441	2.01
477.644	1.87
477.848	1.82
478.052	1.78
478.255	1.81
478.459	1.75
478.663	1.89
478.866	1.95
479.07	1.94
479.273	2.09
479.477	2.18
479.681	2.12
479.884	2.09
480.088	2.13
480.291	2.03
480.495	2.02
480.698	2.04
480.901	2.08
481.105	2.14
481.308	2.18
481.512	2.14
481.715	2.17
481.919	2.24
482.122	2.21
482.325	2.18
482.529	2.21
482.732	2.23
482.935	2.15
483.138	2.08
483.342	2.18
483.545	2.25
483.748	2.24
483.952	2.27
484.155	2.47
484.358	2.44
484.561	2.34
484.764	2.33
484.967	2.45
485.171	2.5
485.374	2.45
485.577	2.61
485.78	2.66
485.983	2.64
486.186	2.44
486.389	2.42
486.592	2.38
486.795	2.41
486.998	2.32
487.201	2.43
487.404	2.5
487.607	2.53
487.81	2.5
488.013	2.55
488.216	2.56
488.419	2.55
488.622	2.45
488.825	2.43
489.028	2.39
489.231	2.33
489.433	2.26
489.636	2.23
489.839	2.2
490.042	2.1
490.245	2.04
490.447	2.09
490.65	2.23
490.853	2.28
491.056	2.37
491.258	2.45
491.461	2.44
491.664	2.44
491.866	2.34
492.069	2.43
492.272	2.37
492.474	2.49
492.677	2.53
492.879	2.64
493.082	2.66
493.285	2.83
493.487	2.69
493.69	2.63
493.892	2.54
494.095	2.52
494.297	2.43
494.5	2.52
494.702	2.55
494.905	2.61
495.107	2.56
495.309	2.6
495.512	2.62
495.714	2.65
495.917	2.71
496.119	2.68
496.321	2.72
496.524	2.76
496.726	2.73
496.928	2.71
497.13	2.75
497.333	2.7
497.535	2.67
497.737	2.69
497.939	2.7
498.142	2.77
498.344	2.76
498.546	2.68
498.748	2.68
498.95	2.85
499.152	2.79
499.355	2.83
499.557	2.96
499.759	3.07
499.961	2.93
500.163	3
500.365	3
500.567	3
500.769	2.91
500.971	2.91
501.173	2.81
501.375	2.85
501.577	2.79
501.779	2.8
501.981	2.85
502.183	2.87
502.385	2.83
502.587	2.82
502.788	2.86
502.99	2.84
503.192	2.94
503.394	3
503.596	3.07
503.798	3.12
503.999	3.22
504.201	3.23
504.403	3.25
504.605	3.25
504.806	3.2
505.008	3.14
505.21	3.18
505.411	3.18
505.613	3.19
505.815	3.27
506.016	3.3
506.218	3.36
506.42	3.35
506.621	3.4
506.823	3.41
507.024	3.36
507.226	3.32
507.427	3.37
507.629	3.37
507.83	3.4
508.032	3.45
508.233	3.47
508.435	3.5
508.636	3.55
508.838	3.49
509.039	3.51
509.24	3.52
509.442	3.54
509.643	3.47
509.845	3.52
510.046	3.63
510.247	3.63
510.448	3.59
510.65	3.67
510.851	3.78
511.052	3.73
511.254	3.7
511.455	3.83
511.656	3.91
511.857	3.94
512.058	3.94
512.26	3.98
512.461	3.95
512.662	3.93
512.863	3.84
513.064	3.85
513.265	3.92
513.466	3.92
513.667	3.92
513.868	3.93
514.069	4
514.27	4.02
514.471	4.02
514.672	3.98
514.873	4.03
515.074	4.11
515.275	3.98
515.476	3.97
515.677	4.02
515.878	4.13
516.079	4.04
516.28	4.17
516.481	4.32
516.682	4.39
516.882	4.25
517.083	4.26
517.284	4.17
517.485	4.08
517.686	4
517.886	4.03
518.087	4.11
518.288	4.21
518.488	4.16
518.689	4.22
518.89	4.18
519.091	4.12
519.291	4.11
519.492	4.21
519.692	4.27
519.893	4.39
520.094	4.41
520.294	4.38
520.495	4.33
520.695	4.31
520.896	4.28
521.096	4.31
521.297	4.38
521.497	4.36
521.698	4.32
521.898	4.31
522.099	4.3
522.299	4.35
522.499	4.4
522.7	4.43
522.9	4.41
523.101	4.48
523.301	4.48
523.501	4.5
523.702	4.54
523.902	4.62
524.102	4.63
524.302	4.62
524.503	4.66
524.703	4.65
524.903	4.68
525.103	4.64
525.304	4.73
525.504	4.8
525.704	4.84
525.904	4.83
526.104	4.85
526.304	4.79
526.504	4.78
526.705	4.78
526.905	4.82
527.105	4.84
527.305	4.83
527.505	4.76
527.705	4.74
527.905	4.73
528.105	4.77
528.305	4.75
528.505	4.82
528.705	4.94
528.905	4.91
529.105	4.88
529.304	5
529.504	5.08
529.704	4.95
529.904	4.94
530.104	4.99
530.304	5.05
530.503	5.02
530.703	5.02
530.903	5.03
531.103	5.08
531.303	5.01
531.502	4.97
531.702	5.12
531.902	5.19
532.101	5.14
532.301	5.12
532.501	5.18
532.7	5.1
532.9	5.08
533.1	5.12
533.299	5.14
533.499	5.12
533.698	5.14
533.898	5.16
534.097	5.15
534.297	5.27
534.496	5.31
534.696	5.35
534.895	5.46
535.095	5.54
535.294	5.45
535.494	5.4
535.693	5.42
535.892	5.37
536.092	5.27
536.291	5.26
536.491	5.35
536.69	5.41
536.889	5.38
537.088	5.41
537.288	5.53
537.487	5.58
537.686	5.57
537.886	5.65
538.085	5.73
538.284	5.85
538.483	5.82
538.682	5.84
538.882	5.83
539.081	5.85
539.28	5.67
539.479	5.66
539.678	5.64
539.877	5.69
540.076	5.66
540.275	5.76
540.474	5.86
540.673	5.91
540.872	5.88
541.071	5.95
541.27	5.95
541.469	5.99
541.668	6.02
541.867	6.04
542.066	6.09
542.265	6.22
542.464	6.21
542.663	6.2
542.862	6.36
543.06	6.41
543.259	6.4
543.458	6.45
543.657	6.6
543.856	6.64
544.054	6.58
544.253	6.53
544.452	6.52
544.651	6.56
544.849	6.5
545.048	6.66
545.247	6.76
545.445	6.8
545.644	6.77
545.843	6.75
546.041	6.74
546.24	6.77
546.438	6.88
546.637	6.94
546.836	7.12
547.034	7.16
547.233	7.19
547.431	7.21
547.63	7.23
547.828	7.21
548.027	7.27
548.225	7.31
548.423	7.35
548.622	7.47
548.82	7.46
549.019	7.49
549.217	7.62
549.415	7.67
549.614	7.71
549.812	7.73
550.01	7.72
550.209	7.76
550.407	7.8
550.605	7.82
550.803	8.01
551.002	8.18
551.2	8.21
551.398	8.29
551.596	8.45
551.794	8.47
551.993	8.5
552.191	8.52
552.389	8.68
552.587	8.7
552.785	8.77
552.983	8.84
553.181	9.04
553.379	9.09
553.577	9.08
553.775	9.18
553.973	9.24
554.171	9.24
554.369	9.21
554.567	9.27
554.765	9.31
554.963	9.43
555.161	9.45
555.359	9.56
555.557	9.78
555.755	9.86
555.952	9.96
556.15	10.04
556.348	10.15
556.546	10.2
556.744	10.24
556.941	10.25
557.139	10.38
557.337	10.43
557.535	10.46
557.732	10.64
557.93	10.82
558.128	10.86
558.325	10.98
558.523	11.03
558.721	11.13
558.918	11.13
559.116	11.24
559.313	11.27
559.511	11.4
559.708	11.43
559.906	11.58
560.104	11.67
560.301	11.78
560.498	11.87
560.696	11.93
560.893	11.99
561.091	12.08
561.288	12.19
561.486	12.31
561.683	12.44
561.88	12.51
562.078	12.6
562.275	12.67
562.473	12.74
562.67	12.9
562.867	13.07
563.064	13.2
563.262	13.17
563.459	13.33
563.656	13.46
563.853	13.52
564.051	13.61
564.248	13.84
564.445	13.87
564.642	13.84
564.839	13.95
565.036	14.06
565.234	14.21
565.431	14.33
565.628	14.47
565.825	14.6
566.022	14.7
566.219	14.75
566.416	14.9
566.613	15.02
566.81	15.04
567.007	14.97
567.204	14.95
567.401	14.94
567.598	14.93
567.795	14.99
567.991	15.15
568.188	15.31
568.385	15.39
568.582	15.55
568.779	15.68
568.976	15.8
569.172	15.91
569.369	15.95
569.566	15.96
569.763	15.99
569.96	16.04
570.156	16.02
570.353	15.97
570.55	15.99
570.746	16.05
570.943	16.04
571.14	16.1
571.336	16.32
571.533	16.45
571.729	16.46
571.926	16.58
572.123	16.68
572.319	16.66
572.516	16.63
572.712	16.69
572.909	16.69
573.105	16.77
573.302	16.86
573.498	17.03
573.695	16.98
573.891	16.96
574.087	16.85
574.284	16.76
574.48	16.61
574.677	16.76
574.873	16.8
575.069	16.91
575.266	17.02
575.462	16.99
575.658	17.05
575.854	17.18
576.051	17.19
576.247	17.12
576.443	17.19
576.639	17.12
576.835	17.09
577.032	17.08
577.228	17.22
577.424	17.3
577.62	17.31
577.816	17.35
578.012	17.32
578.208	17.3
578.404	17.27
578.6	17.21
578.796	17.08
578.993	17.21
579.189	17.18
579.384	17.12
579.58	17.13
579.776	17.13
579.972	17
580.168	16.95
580.364	17.03
580.56	17.05
580.756	17.03
580.952	16.98
581.148	16.99
581.343	16.97
581.539	17.02
581.735	17.15
581.931	17.24
582.127	17.27
582.322	17.21
582.518	17.2
582.714	17.1
582.909	17.04
583.105	16.99
583.301	17
583.496	17.02
583.692	16.99
583.888	16.91
584.083	16.97
584.279	17.05
584.474	16.95
584.67	17.06
584.866	17.12
585.061	16.95
585.257	16.95
585.452	16.94
585.648	16.75
585.843	16.78
586.039	16.93
586.234	16.89
586.429	16.87
586.625	17.02
586.82	17
587.015	16.91
587.211	16.82
587.406	16.85
587.601	16.82
587.797	16.81
587.992	16.79
588.187	16.91
588.383	16.86
588.578	16.8
588.773	16.83
588.968	16.89
589.163	16.89
589.359	16.95
589.554	17.03
589.749	16.98
589.944	17.01
590.139	17.02
590.334	17.04
590.529	17.09
590.724	17.18
590.919	17.25
591.114	17.24
591.309	17.35
591.504	17.39
591.699	17.31
591.894	17.37
592.089	17.39
592.284	17.4
592.479	17.48
592.674	17.58
592.869	17.64
593.064	17.76
593.259	17.85
593.454	17.91
593.648	17.98
593.843	17.99
594.038	18
594.233	17.91
594.428	17.86
594.622	17.96
594.817	18.1
595.012	18.17
595.206	18.27
595.401	18.32
595.596	18.33
595.79	18.36
595.985	18.49
596.18	18.67
596.374	18.83
596.569	18.88
596.763	18.9
596.958	18.9
597.153	18.87
597.347	18.81
597.542	18.95
597.736	19.02
597.931	19.1
598.125	19.14
598.319	19.31
598.514	19.27
598.708	19.31
598.903	19.27
599.097	19.34
599.291	19.42
599.486	19.49
599.68	19.5
599.874	19.64
600.069	19.61
600.263	19.56
600.457	19.63
600.651	19.69
600.846	19.68
601.04	19.82
601.234	19.85
601.428	19.92
601.622	19.96
601.817	20.02
602.011	20.06
602.205	20.08
602.399	20.06
602.593	20.05
602.787	20.14
602.981	20.06
603.175	20.17
603.369	20.13
603.563	20.2
603.757	20.21
603.951	20.25
604.145	20.19
604.339	20.29
604.533	20.13
604.727	20.08
604.921	20
605.115	20.04
605.309	20.05
605.502	20.18
605.696	20.13
605.89	20.13
606.084	20.04
606.278	19.92
606.471	19.8
606.665	19.69
606.859	19.62
607.053	19.58
607.246	19.54
607.44	19.49
607.634	19.48
607.827	19.54
608.021	19.52
608.214	19.5
608.408	19.49
608.602	19.48
608.795	19.35
608.989	19.17
609.182	19.14
609.376	19.08
609.569	19.01
609.763	19.01
609.956	19.08
610.15	18.99
610.343	18.91
610.537	18.85
610.73	18.82
610.923	18.75
611.117	18.65
611.31	18.62
611.504	18.51
611.697	18.34
611.89	18.29
612.083	18.18
612.277	18.15
612.47	18.15
612.663	18.13
612.856	17.97
613.05	17.99
613.243	17.92
613.436	17.82
613.629	17.75
613.822	17.7
614.015	17.65
614.209	17.43
614.402	17.4
614.595	17.3
614.788	17.28
614.981	17.16
615.174	17.19
615.367	17
615.56	17.01
615.753	16.97
615.946	16.89
616.139	16.82
616.332	17.02
616.525	16.96
616.718	17.04
616.911	17.04
617.103	17.05
617.296	17
617.489	16.98
617.682	16.78
617.875	16.68
618.067	16.57
618.26	16.4
618.453	16.32
618.646	16.31
618.838	16.37
619.031	16.47
619.224	16.42
619.417	16.37
619.609	16.39
619.802	16.36
619.994	16.25
620.187	16.25
620.38	16.21
620.572	16.16
620.765	16.1
620.957	15.97
621.15	15.9
621.342	15.93
621.535	15.92
621.727	15.84
621.92	15.81
622.112	15.73
622.305	15.71
622.497	15.59
622.69	15.66
622.882	15.71
623.074	15.87
623.267	15.82
623.459	15.8
623.651	15.73
623.844	15.7
624.036	15.63
624.228	15.5
624.42	15.52
624.613	15.64
624.805	15.58
624.997	15.49
625.189	15.53
625.381	15.54
625.574	15.36
625.766	15.29
625.958	15.29
626.15	15.33
626.342	15.18
626.534	15.24
626.726	15.25
626.918	15.26
627.11	15.14
627.302	15.17
627.494	15.08
627.686	15.13
627.878	15.02
628.07	15.08
628.262	15.07
628.454	15.09
628.646	15.09
628.838	15.22
629.029	15.09
629.221	15.18
629.413	15.07
629.605	14.87
629.797	14.73
629.989	14.77
630.18	14.72
630.372	14.67
630.564	14.71
630.755	14.73
630.947	14.81
631.139	14.63
631.33	14.59
631.522	14.6
631.714	14.61
631.905	14.47
632.097	14.41
632.289	14.43
632.48	14.39
632.672	14.21
632.863	14.09
633.055	14.09
633.246	14.11
633.438	14.06
633.629	14.04
633.821	14.05
634.012	14.05
634.203	13.95
634.395	14.02
634.586	14.13
634.777	14.09
634.969	14.08
635.16	14.09
635.351	13.88
635.543	13.83
635.734	13.89
635.925	13.93
636.117	13.96
636.308	14.06
636.499	13.93
636.69	13.84
636.881	13.75
637.073	13.8
637.264	13.73
637.455	13.84
637.646	13.97
637.837	14.01
638.028	13.89
638.219	13.9
638.41	13.74
638.601	13.58
638.792	13.48
638.983	13.43
639.174	13.39
639.365	13.55
639.556	13.53
639.747	13.57
639.938	13.64
640.129	13.59
640.32	13.45
640.511	13.54
640.701	13.69
640.892	13.58
641.083	13.73
641.274	13.72
641.465	13.69
641.655	13.48
641.846	13.47
642.037	13.32
642.228	13.22
642.418	13.17
642.609	13.25
642.8	13.31
642.99	13.2
643.181	13.29
643.372	13.32
643.562	13.2
643.753	13.12
643.943	13.15
644.134	13.02
644.324	12.97
644.515	13.03
644.705	13.16
644.896	13.15
645.086	13.18
645.277	13.1
645.467	13
645.658	12.9
645.848	12.98
646.038	12.96
646.229	12.95
646.419	12.89
646.61	12.84
646.8	12.66
646.99	12.63
647.18	12.56
647.371	12.59
647.561	12.5
647.751	12.6
647.941	12.56
648.132	12.62
648.322	12.56
648.512	12.67
648.702	12.63
648.892	12.66
649.082	12.57
649.272	12.52
649.462	12.34
649.653	12.22
649.843	12.16
650.033	12.2
650.223	12.18
650.413	12.05
650.603	12.17
650.793	12.17
650.983	12.13
651.172	12.13
651.362	12.19
651.552	11.98
651.742	11.93
651.932	11.91
652.122	11.96
652.312	12.03
652.502	12.12
652.691	12.1
652.881	12.01
653.071	11.85
653.261	11.66
653.45	11.45
653.64	11.4
653.83	11.22
654.019	11.17
654.209	11.13
654.399	11.18
654.588	11.17
654.778	11.18
654.968	11.08
655.157	11.01
655.347	10.91
655.536	10.65
655.726	10.55
655.915	10.43
656.105	10.34
656.294	10.21
656.484	10.07
656.673	9.98
656.863	9.87
657.052	9.67
657.241	9.49
657.431	9.31
657.62	9.11
657.809	8.89
657.999	8.7
658.188	8.56
658.377	8.44
658.567	8.37
658.756	8.26
658.945	8.25
659.134	8.19
659.324	8.1
659.513	7.91
659.702	7.71
659.891	7.54
660.08	7.34
660.269	7.24
660.458	7.08
660.648	7.07
660.837	6.95
661.026	6.92
661.215	6.75
661.404	6.65
661.593	6.58
661.782	6.34
661.971	6.22
662.16	6.12
662.349	6.01
662.538	5.85
662.726	5.93
662.915	5.74
663.104	5.66
663.293	5.72
663.482	5.67
663.671	5.52
663.86	5.46
664.048	5.33
664.237	5.19
664.426	4.98
664.615	4.93
664.803	4.91
664.992	4.93
665.181	4.79
665.369	4.77
665.558	4.72
665.747	4.58
665.935	4.57
666.124	4.61
666.312	4.65
666.501	4.58
666.69	4.54
666.878	4.44
667.067	4.23
667.255	4.27
667.444	4.54
667.632	4.61
667.82	4.75
668.009	4.83
668.197	4.77
668.386	4.56
668.574	4.63
668.762	4.51
668.951	4.43
669.139	4.36
669.327	4.2
669.516	4.2
669.704	4.16
669.892	4.36
670.08	4.46
670.269	4.49
670.457	4.36
670.645	4.26
670.833	4.21
671.021	4.12
671.21	4.12
671.398	4.37
671.586	4.35
671.774	4.24
671.962	4.24
672.15	4.38
672.338	4.2
672.526	4.32
672.714	4.31
672.902	4.37
673.09	4.46
673.278	4.72
673.466	4.77
673.654	5.06
673.842	5.09
674.03	5.1
674.218	4.87
674.405	4.85
674.593	4.7
674.781	4.91
674.969	4.84
675.157	5.08
675.344	5.3
675.532	5.41
675.72	5.39
675.908	5.58
676.095	5.4
676.283	5.44
676.471	5.62
676.658	5.54
676.846	5.52
677.033	5.81
677.221	5.84
677.409	5.66
677.596	5.74
677.784	5.68
677.971	5.6
678.159	5.64
678.346	5.78
678.534	5.85
678.721	6.08
678.909	6.11
679.096	6.15
679.283	6.36
679.471	6.51
679.658	6.61
679.846	6.81
680.033	7.06
680.22	7.01
680.408	7.06
680.595	7.13
680.782	7.09
680.969	7.09
681.157	7.23
681.344	7.31
681.531	7.36
681.718	7.45
681.905	7.59
682.093	7.83
682.28	7.98
682.467	8.27
682.654	8.47
682.841	8.55
683.028	8.63
683.215	8.74
683.402	8.57
683.589	8.76
683.776	8.88
683.963	8.96
684.15	9.28
684.337	9.6
684.524	9.7
684.711	9.95
684.898	10.05
685.085	10.19
685.271	10.52
685.458	10.65
685.645	10.75
685.832	11.13
686.019	11.32
686.205	11.53
686.392	11.97
686.579	12.32
686.766	12.61
686.952	12.91
687.139	13.31
687.326	13.46
687.512	13.85
687.699	14.17
687.886	14.49
688.072	14.61
688.259	15.14
688.445	15.57
688.632	15.77
688.818	16.36
689.005	16.93
689.191	17.2
689.378	17.64
689.564	18.23
689.751	18.57
689.937	18.99
690.124	19.55
690.31	19.85
690.496	20.29
690.683	20.73
690.869	21.13
691.055	21.61
691.242	22.3
691.428	22.91
691.614	23.4
691.8	24.13
691.987	24.73
692.173	25.36
692.359	26.01
692.545	26.8
692.731	27.15
692.918	27.72
693.104	28.16
693.29	28.7
693.476	29.34
693.662	30.04
693.848	30.57
694.034	31.23
694.22	31.86
694.406	32.38
694.592	32.98
694.778	33.63
694.964	34.09
695.15	34.76
695.336	35.21
695.522	35.95
695.708	36.65
695.894	37.39
696.08	37.81
696.265	38.49
696.451	38.82
696.637	39.49
696.823	39.99
697.009	40.43
697.194	40.85
697.38	41.59
697.566	41.79
697.751	42.33
697.937	43.26
698.123	44
698.308	44.51
698.494	45.32
698.68	45.83
698.865	46.14
699.051	46.53
699.236	47.17
699.422	47.75
699.607	48.13
699.793	48.47
699.978	48.66
700.164	49.01
700.349	49.72
700.535	50.41
700.72	50.96
700.906	52.02
701.091	52.4
701.276	52.37
701.462	53.02
701.647	53.69
701.832	53.98
702.018	54.62
702.203	55.05
702.388	55
702.573	55.34
702.759	55.85
702.944	56.02
703.129	56.24
703.314	56.65
703.499	56.7
703.684	56.86
703.87	57.94
704.055	58.97
704.24	59.36
704.425	60.2
704.61	60.59
704.795	60.26
704.98	60.12
705.165	60.37
705.35	60.52
705.535	60.72
705.72	61.2
705.905	61.82
706.09	62.59
706.275	62.85
706.459	63.04
706.644	63.31
706.829	63.26
707.014	62.81
707.199	63.39
707.384	64.08
707.568	64.29
707.753	65.23
707.938	66.01
708.123	65.83
708.307	65.93
708.492	66.17
708.677	65.86
708.861	65.89
709.046	66.01
709.231	66.28
709.415	66.4
709.6	66.6
709.784	66.85
709.969	67.42
710.153	67.31
710.338	67.43
710.522	67.54
710.707	67.75
710.891	67.42
711.076	67.8
711.26	67.77
711.445	68
711.629	68.03
711.813	68.42
711.998	68.81
712.182	68.95
712.366	69.74
712.551	70.6
712.735	70.93
712.919	70.72
713.103	71.18
713.288	70.41
713.472	70
713.656	70.64
713.84	71.05
714.024	71.33
714.208	71.71
714.393	71.87
714.577	71.63
714.761	71.71
714.945	71.63
715.129	71.79
715.313	72.07
715.497	72.12
715.681	73.08
715.865	73.17
716.049	73.34
716.233	73.11
716.417	73.2
716.601	72.41
716.785	72.74
716.968	73.06
717.152	73.56
717.336	73.83
717.52	73.67
717.704	73.91
717.888	74.27
718.071	74.41
718.255	74.45
718.439	74.76
718.622	74.48
718.806	74.5
718.99	74.14
719.174	73.76
719.357	73.58
719.541	73.88
719.724	73.84
719.908	74.83
720.092	75.84
720.275	76.51
720.459	76.17
720.642	75.75
720.826	74.89
721.009	74.36
721.193	73.84
721.376	74.53
721.559	74.69
721.743	75.21
721.926	75.43
722.11	75.88
722.293	75.3
722.476	75.44
722.66	75.74
722.843	75.52
723.026	75.17
723.21	75.8
723.393	76.97
723.576	76.79
723.759	77.03
723.942	77.25
724.126	76.43
724.309	75.67
724.492	75.62
724.675	75.36
724.858	75.99
725.041	77.29
725.224	77.52
725.407	77.99
725.59	78.54
725.774	78.44
725.957	77.45
726.14	77.01
726.322	76.93
726.505	76.92
726.688	77.27
726.871	77.77
727.054	77.91
727.237	77.41
727.42	77.78
727.603	77.22
727.786	77.57
727.968	78.42
728.151	78.9
728.334	78.6
728.517	78.71
728.699	78.84
728.882	78.01
729.065	78.57
729.248	78.8
729.43	79.13
729.613	79.52
729.796	80.35
729.978	79.29
730.161	78.81
730.343	78.43
730.526	78.43
730.708	77.53
730.891	78.05
731.073	78.3
731.256	78.25
731.438	78.61
731.621	79.73
731.803	79.44
731.986	79.75
732.168	79.73
732.35	79.29
732.533	78.46
732.715	78.86
732.898	79.57
733.08	79.85
733.262	80.55
733.444	80.51
733.627	81.09
733.809	80.58
733.991	81.27
734.173	79.88
734.355	80.36
734.538	80.37
734.72	80.64
734.902	80.63
735.084	81.06
735.266	81.11
735.448	81.13
735.63	80.9
735.812	80.84
735.994	82.19
736.176	82.67
736.358	82.54
736.54	83.62
736.722	83.19
736.904	82.24
737.086	82.13
737.268	82.68
737.45	82.13
737.632	82.41
737.814	81.9
737.995	82.65
738.177	82.29
738.359	81.23
738.541	81.2
738.723	81.81
738.904	80.98
739.086	81.08
739.268	81.82
739.449	82.36
739.631	82.63
739.813	82.93
739.994	82.83
740.176	83.55
740.358	83.36
740.539	84.47
740.721	84
740.902	84.73
741.084	83.52
741.265	83.65
741.447	83.03
741.628	83.79
741.81	83.01
741.991	84.25
742.172	84.61
742.354	84.23
742.535	83.56
742.717	84.16
742.898	83.96
743.079	84.24
743.261	83.97
743.442	83.95
743.623	84.53
743.804	84.72
743.986	85.09
744.167	83.9
744.348	83.15
744.529	82.6
744.71	82.01
744.891	81.03
745.073	81.37
745.254	82.35
745.435	81.65
745.616	80.75
745.797	80.41
745.978	81.57
746.159	81.39
746.34	80.32
746.521	81.9
746.702	81
746.883	80.75
747.064	81.02
747.245	82.18
747.426	81.16
747.606	82.6
747.787	82.16
747.968	81.92
748.149	82
748.33	82.49
748.51	81.78
748.691	81.68
748.872	81.91
749.053	81.88
749.233	81.55
749.414	81.29
749.595	80.22
749.775	79.02
749.956	78.2
750.137	78.09
750.317	80.05
750.498	82.98
750.678	83.92
750.859	85.07
751.04	86.16
751.22	84.08
751.4	82.23
751.581	81.62
751.761	81.09
751.942	81.23
752.122	81.18
752.303	80.82
752.483	80.49
752.663	80.14
752.844	78.07
753.024	78.99
753.204	79.68
753.385	79.55
753.565	79.65
753.745	79.63
753.925	79.16
754.106	78.58
754.286	78.64
754.466	79.3
754.646	80.29
754.826	80.14
755.006	79.17
755.187	79.74
755.367	79.64
755.547	79.87
755.727	79.93
755.907	80.36
756.087	81.37
756.267	80.84
756.447	80.74
756.627	78.96
756.807	80.65
756.987	79.38
757.167	80.16
757.346	80.48
757.526	79.98
757.706	80.56
757.886	81.09
758.066	81.04
758.246	83.22
758.425	84.88
758.605	82.66
758.785	82.7
758.965	82.57
759.144	78.81
759.324	78.46
759.504	79.05
759.683	79.4
759.863	77.49
760.043	77.48
760.222	78.41
760.402	77.76
760.581	77.15
760.761	79.75
760.94	78.53
761.12	79.1
761.299	78.88
761.479	79.28
761.658	76.14
761.838	77.18
762.017	77.15
762.197	77.64
762.376	77.27
762.555	79.66
762.735	82.06
762.914	80.76
763.093	81.64
763.273	80.38
763.452	79.43
763.631	76.89
763.81	77.09
763.99	76.1
764.169	76.24
764.348	74.4
764.527	73.17
764.706	75.2
764.885	78.21
765.064	77.88
765.243	79.33
765.423	82.23
765.602	80.16
765.781	76.09
765.96	75.09
766.139	74.48
766.318	74.74
766.497	73.35
766.676	74.95
766.854	76.92
767.033	76.88
767.212	75.03
767.391	76.14
767.57	76.21
767.749	76.04
767.928	77.06
768.106	77.24
768.285	75.58
768.464	75.59
768.643	75.21
768.821	75.4
769	77.69
769.179	77.23
769.357	75.45
769.536	74.82
769.715	74.66
769.893	73.47
770.072	73.86
770.25	74.05
770.429	77.02
770.607	76.28
770.786	74.52
770.964	76.52
771.143	75.67
771.321	73.54
771.5	73.78
771.678	72.85
771.857	71.72
772.035	71.5
772.213	70.41
772.392	68.18
772.57	70.54
772.748	70.22
772.927	70.79
773.105	70.76
773.283	73.02
773.461	72.75
773.64	74.02
773.818	75.48
773.996	76.59
774.174	75.99
774.352	72.98
774.531	70.4
774.709	70.45
774.887	70.4
775.065	70.08
775.243	72.12
775.421	73.62
775.599	73.35
775.777	70.71
775.955	69.58
776.133	68.09
776.311	68.64
776.489	66.72
776.667	68.91
776.844	70.76
777.022	72.11
777.2	71.08
777.378	71.42
777.556	71.71
777.734	73.44
777.911	73.56
778.089	74.7
778.267	74.94
778.445	73.61
778.622	70.5
778.8	70.44
778.978	72.56
779.155	72.21
779.333	74.48
779.511	75.19
779.688	77.23
779.866	70.77
780.043	67.41
780.221	64.93
780.398	61.38
780.576	61.48
780.753	64.42
780.931	64.56
781.108	64.15
781.286	67.78
781.463	61.9
781.64	56.73
781.818	58.72
781.995	60.11
782.172	58.72
782.35	62.02
782.527	71.12
782.704	71.12
782.882	71.14
783.059	71.02
783.236	72.18
783.413	69.26
783.59	70.5
783.768	65.75
783.945	69.71
784.122	69.84
784.299	68.99
784.476	68.27
784.653	71.73
784.83	66.21
785.007	60.51
785.184	60.77
785.361	60.23
785.538	62.83
785.715	67.62
785.892	69.34
786.069	72.17
786.246	72.48
786.423	71.63
786.6	66.88
786.776	73.17
786.953	67.9
787.13	71.22
787.307	70.72
787.484	73.72
787.66	69.02
787.837	70.86
788.014	67.07
788.191	64.7
788.367	61.21
788.544	65.55
788.721	64.91
788.897	68.57
789.074	71.54
789.25	70.04
789.427	70.18
789.603	71.54
789.78	70.39
789.956	65.38
790.133	64.83
790.309	61.73
790.486	62.76
790.662	59.97
790.839	62.35
791.015	67.85
791.192	66.81
791.368	69.51
791.544	69.52
791.721	69.43
791.897	67.94
792.073	67.07
792.249	58.23
792.426	60.7
792.602	63.47
792.778	63.39
792.954	61.58
793.13	65.97
793.307	60.41
793.483	52.44
793.659	52.82
793.835	57.95
794.011	55.24
794.187	56.43
794.363	57.01
794.539	62.24
794.715	53.58
794.891	52.13
795.067	52.48
795.243	59.45
795.419	53.91
795.595	57.57
795.771	58.24
795.947	61.07
796.122	55.99
796.298	59.22
796.474	62.26
796.65	60.53
796.826	57.88
797.001	60.4
797.177	51.71
797.353	54.04
797.529	58.45
797.704	57.33
797.88	54.96
798.056	57.37
798.231	51.2
798.407	55.15
798.582	54.64
798.758	64.15
798.934	70.79
799.109	70.77
799.285	62.75
799.46	69.77
799.636	63.4
799.811	59.34
799.986	63.78
800.162	71.24
800.337	67.68
800.513	62.07
800.688	62.28
800.863	68.1
801.039	60.09
801.214	53.54
801.389	57.84
801.565	55.67
801.74	37.98
801.915	48.37
802.09	52.9
802.265	61.48
802.441	58.87
802.616	67.87
802.791	66
802.966	65.84
803.141	59.96
803.316	57.46
803.491	59.89
803.666	62.44
803.841	55.31
804.016	52.44
804.191	59.32
804.366	52.93
804.541	48.59
804.716	53.19
804.891	50.45
805.066	52.43
805.241	51.8
805.416	49.62
805.591	48.88
805.765	53.68
805.94	54.49
806.115	55.33
806.29	48.38
806.464	51.3
806.639	46.57
806.814	38.28
806.989	32.41
807.163	49.35
807.338	48.79
807.512	50.05
807.687	45.09
807.862	64.77
808.036	57.4
808.211	60.39
808.385	71.04
808.56	92.17
808.734	86.88
808.909	82.56
809.083	72.42
809.258	68.72
809.432	54.52
809.606	40.59
809.781	41.46
809.955	56.99
810.13	53.73
810.304	50.28
810.478	52.65
810.652	63.44
810.827	54.75
811.001	48.19
811.175	47.55
811.349	47.93
811.524	34.33
811.698	23.53
811.872	26.75
812.046	34.12
812.22	47.26
812.394	50.73
812.568	60.79
812.742	63.38
812.916	56.33
813.09	41.13
813.264	39.66
813.438	41.02
813.612	36.7
813.786	34.72
813.96	51.51
814.134	52.84
814.308	60.43
814.482	70.97
814.656	67.66
814.83	68.13
815.003	76.05
815.177	58.32
815.351	52.32
815.525	55.59
815.698	39.31
815.872	30.94
816.046	28.73
816.219	30.62
816.393	49.3
816.567	55.28
816.74	51.68
816.914	62.08
817.088	74.68
817.261	60.17
817.435	47.97
817.608	53.92
817.782	45.47
817.955	31.6
818.129	28.94
818.302	43.65
818.475	52.76
818.649	56.38
818.822	38.71
818.996	51.65
819.169	41.02
819.342	24.23
819.516	31.75
819.689	45.38
819.862	36.99
820.035	28.06
820.209	23.53
820.382	20.95
820.555	25.88
820.728	11.07
820.901	15.78
821.075	19.4
821.248	21.15
821.421	-6.07
821.594	-10.82
821.767	20.53
821.94	40.21
822.113	14.27
822.286	18.74
822.459	29.85
822.632	1.18
822.805	-14.92
822.978	-7.8
823.151	-6.62
823.324	-4.06
823.496	-13.21
823.669	-17.21
823.842	-3.63
824.015	3
824.188	-20.43
824.361	-17.96
824.533	-18.79
824.706	-16.66
824.879	-21.9
825.051	5.02
825.224	8.59
825.397	-6.18
825.569	-22.91
825.742	6.53
825.915	11.83
826.087	31.37
826.26	33.31
826.432	33.74
826.605	38.33
826.777	27.59
826.95	2.89
827.122	1.45
827.295	19.93
827.467	12.27
827.64	-11.18
827.812	8.42
827.984	-2.87
828.157	-20.45
828.329	-57.37
828.501	-40.07
828.674	-17.75
828.846	-18.18
829.018	8.71
829.19	-3.07
829.363	25.19
829.535	31.29
829.707	44.37
829.879	29.49
830.051	40.96
830.223	13.21
830.395	-29.3
830.568	-48.91
830.74	-59.06
830.912	-28.22
831.084	-34.16
831.256	-16.21
831.428	-15.03
831.6	-25.75
831.772	-72.24
831.943	-80.76
832.115	-53.08
832.287	-17.28
832.459	-2.92
832.631	13.29
832.803	48.83
832.975	67.62
833.146	42.38
833.318	25.39
833.49	60.45
833.662	26.01
833.833	-16.32
834.005	-7.33
834.177	3.87
834.348	-14.46
834.52	-30.44
834.692	-13.17
834.863	-38.68
835.035	-24.46
835.206	-75.85
835.378	-39.09
835.549	-42.86
835.721	-13.73
835.892	-28.08
836.064	-8.83
836.235	-9.4
836.407	-0.99
836.578	-17.5
836.749	-21.72
836.921	-65.59
837.092	-105.06
837.264	-111.87
837.435	-123.74
837.606	-68.65
837.777	-28.38
837.949	-3.19
838.12	20.72
838.291	34.11
838.462	21.13
838.633	9.11
838.805	12.32
838.976	14.47
839.147	-17.65
839.318	-34.49
839.489	-102.03
839.66	-94.02
839.831	-51.34
840.002	-44.87
840.173	-60.12
840.344	7.89
840.515	-40.16
840.686	-185.11
840.857	-149.18
841.028	-106.67
841.199	-99.97
841.369	-90.7
841.54	-70.14
841.711	-31.59
841.882	-5.89
842.053	-14.4
842.223	-10.29
842.394	2.25
842.565	-7.34
842.736	4.49
842.906	3.51
843.077	12.79
843.248	26.76
843.418	21.25
843.589	-34.62
843.759	27.6
843.93	47.42
844.101	15.74
844.271	29.96
844.442	40.91
844.612	48.13
844.783	9.3
844.953	-25.82
845.123	-37.2
845.294	-40.8
845.464	-270.97
845.635	-93.76
845.805	-2.38
845.975	-5.92
846.146	-45.13
846.316	-59.82
846.486	-39.31
846.656	-9.63
846.827	-18.85
846.997	-24.16
847.167	28.39
847.337	4.42
847.507	-47.84
847.677	-30.27
847.848	23.33
848.018	14.71
848.188	22.64
848.358	13.14
848.528	-14.84
848.698	-73.36
848.868	-199.69
849.038	-290.91
849.208	-124.46
849.378	-53.37
849.548	-0.94
849.718	2.63
849.887	-4.48
850.057	-21.29
850.227	-93.59
850.397	-183.46
850.567	-332.17
850.737	-684.24
850.906	-2342.19
851.076	-1295.12
851.246	-456.41
851.415	-31.78
851.585	-25.86
851.755	-31.09
851.924	27
852.094	-33.06
852.264	-145.74
852.433	-1068.99
852.603	-173.45
852.772	-226.88
852.942	-92.29
853.111	-68.73
853.281	-24.09
853.45	-22.06
853.62	-103.41
853.789	-87.27
853.959	-89.65
854.128	-88.09
854.297	-103.43
854.467	-99.58
854.636	-139.59
854.805	-61.02
854.975	-83.2
855.144	-104.86
855.313	34.44
855.482	-209.31
855.652	-199.21
855.821	-146.15
855.99	-24.04
856.159	-2.82
856.328	0.54
856.497	-28.75
856.667	-19.49
856.836	-19.16
857.005	-59.65
857.174	-60.75
857.343	-68.78
857.512	-72.22
857.681	-90.31
857.85	-125.93
858.019	-84.65
858.188	-66.99
858.356	-80.22
858.525	-169.66
858.694	-133.59
858.863	-209.55
859.032	-164.32
859.201	-239.38
859.369	-155.8
859.538	-82.07
859.707	-123.5
859.876	-115.37
860.044	-62.66
860.213	25.62
860.382	-17.37
860.55	-5.11
860.719	15.7
860.888	8.89
861.056	-55.22
861.225	-41.68
861.393	17.42
861.562	12.54
861.73	-57.76
861.899	-216.1
862.067	-2395.69
862.236	-163.21
862.404	-337.68
862.572	-210.35
862.741	-56.75
862.909	-41.12
863.078	-187.8
863.246	-109.82
863.414	-82.37
863.582	-83.34
863.751	-103.49
863.919	-71.3
864.087	-58.57
864.255	-52.64
864.424	-422.61
864.592	-74.93
864.76	-101.91
864.928	-145.4
865.096	-134.32
865.264	-2.09
865.432	-747.16
865.6	48.63
865.768	-62.05
865.936	-98.99
866.104	-124
866.272	-226.48
866.44	-466.04
866.608	783.56
866.776	347.89
866.944	3513.37
867.112	-598.2
867.28	-294.04
867.448	-105.14
867.615	-34.31
867.783	-0.74
867.951	-13.11
868.119	69.19
868.286	15.96
868.454	-106.62
868.622	-164.38
868.789	-130.36
868.957	-4576.79
869.125	-2586.18
869.292	-175.12
869.46	-255.55
869.627	-50.54
869.795	-47.55
869.963	-29.75
870.13	-4.99
870.298	15.68
870.465	-93.32
870.632	-93.87
870.8	-62.93
870.967	-139.37
871.135	-212.72
871.302	-148.49
871.469	-143.09
871.637	-186.39
871.804	-105.58
871.971	-127.82
872.139	-445.93
872.306	-36.31
872.473	-76.41
872.64	-397.32
872.807	-166.15
872.975	-40.51
873.142	-418.45
873.309	3077.7
873.476	12.55
873.643	87.99
873.81	62.98
873.977	84.52
874.144	68.44
874.311	-119
874.478	-189.96
874.645	-213.11
874.812	-180.66
874.979	-140.54
875.146	-118.57
875.313	-111.82
875.48	-7.29
875.647	-19.97
875.813	-41.59
875.98	-19.57
876.147	-57.47
876.314	-161.66
876.481	1174.17
876.647	-1451.4
876.814	583.81
876.981	-71.06
877.147	-75.17
877.314	-33.24
877.481	-21.17
877.647	-10.77
877.814	-68.98
877.98	-99.96
878.147	-26.22
878.314	13.26
878.48	-63.13
878.647	-25.58
878.813	27.2
878.979	16.24
879.146	-20.85
879.312	-25.28
879.479	-96.97
879.645	-214.84
879.811	-514.43
879.978	-1073.09
880.144	-309.76
880.31	-138.34
880.477	-414.51
880.643	-349.21
880.809	-183.67
880.975	-139.91
881.142	-1100.68
881.308	-150.93
881.474	-108.67
881.64	-122.09
881.806	-224.54
881.972	-82.06
882.138	-62.23
882.304	-26.44
882.47	-185.08
882.636	-594.06
882.802	-240.37
882.968	-73.87
883.134	-58.72
883.3	-39.63
883.466	4.37
883.632	55.19
883.798	8.8
883.964	-20.72
884.129	-41.62
884.295	-19.49
884.461	-131.21
884.627	-155.6
884.793	-182.39
884.958	-89.86
885.124	-191.55
885.29	-288.06
885.455	-439.2
885.621	-117.46
885.787	-244.15
885.952	-152.19
886.118	-115.43
886.283	-133.01
886.449	-238.77
886.614	-242.46
886.78	-496.83
886.945	2196.31
887.111	-961.71
887.276	-854.97
887.442	-1637.95
887.607	-719.69
887.773	-457.25
887.938	-385.84
888.103	-474.23
888.269	-270.71
888.434	-477.7
888.599	-215.11
888.764	-60.11
888.93	-29
889.095	-50.91
889.26	-96.51
889.425	-28.73
889.59	-93.93
889.756	-106.38
889.921	-64.06
890.086	7.65
890.251	-28.78
890.416	-147.31
890.581	-1139.92
890.746	97.05
890.911	201.75
891.076	98.45
891.241	-184.89
891.406	59.23
891.571	-35.96
891.736	-295.3
891.901	-827.21
892.065	793.13
892.23	184.91
892.395	306.21
892.56	474.78
892.725	-692.77
892.889	-2375
893.054	-398.97
893.219	-163.56
893.384	-88.98
893.548	-152.05
893.713	-148.7
893.878	-105.02
