Data from Ofra_PS_T2_2A_2GT07_Reflection_3.txt Node
Date: Wed Jul 21 17:06:31 EDT 2021
User: Adam
Spectrometer: FLMT01687
Trigger mode: 0
Integration Time (sec): 1.100000E0
Scans to average: 2
Electric dark correction enabled: true
Nonlinearity correction enabled: false
Boxcar width: 2
XAxis mode: Wavelengths
Number of Pixels in Spectrum: 3648
>>>>>Begin Spectral Data<<<<<
179.494	520.8
179.716	564
179.937	536.49
180.158	474.75
180.38	748.12
180.601	343.09
180.823	116.62
181.044	-38.39
181.265	123.53
181.486	60.32
181.708	83.83
181.929	361.22
182.15	-388.73
182.372	63.85
182.593	21.95
182.814	74.87
183.035	96.52
183.257	126.71
183.478	64.47
183.699	104.84
183.92	63.57
184.141	84.22
184.363	37.5
184.584	91.3
184.805	85.93
185.026	125.05
185.247	104.9
185.468	80.27
185.689	105.43
185.91	107.78
186.132	101.19
186.353	91.47
186.574	153.23
186.795	101.12
187.016	71.18
187.237	62.24
187.458	52.1
187.679	45.8
187.9	58.85
188.121	60.61
188.342	106.22
188.563	130.04
188.784	169.91
189.005	174.19
189.226	220.65
189.447	168.69
189.667	215.53
189.888	-0
190.109	-416.88
190.33	-181.94
190.551	-546.9
190.772	-106.78
190.993	-70.17
191.214	-72.71
191.434	-58.54
191.655	5.15
191.876	3.2
192.097	-35.66
192.318	-27.66
192.538	-59.82
192.759	-63.56
192.98	-17.54
193.201	23.53
193.421	22.06
193.642	21.34
193.863	37.61
194.083	22.04
194.304	15.74
194.525	20.34
194.745	39.65
194.966	1.5
195.187	-1.65
195.407	-15.96
195.628	-78.88
195.848	-81.44
196.069	-67.76
196.29	-1.21
196.51	-27.36
196.731	-2.1
196.951	-1.46
197.172	17.24
197.392	-29.23
197.613	7.56
197.833	-43.64
198.054	-50.79
198.274	-24.66
198.495	-21.72
198.715	-8.02
198.936	0.55
199.156	19.22
199.377	-44.75
199.597	-35.63
199.817	-35.21
200.038	15.4
200.258	-30.99
200.479	43.83
200.699	57.24
200.919	64.56
201.14	17.67
201.36	49.02
201.58	57.81
201.801	77.22
202.021	51.08
202.241	59.56
202.461	56.3
202.682	-14.91
202.902	-79.39
203.122	-19.14
203.342	-0
203.563	17.55
203.783	65.14
204.003	51.11
204.223	58.53
204.443	85.95
204.663	89.35
204.884	75.97
205.104	113.06
205.324	145.58
205.544	124.82
205.764	106.29
205.984	95
206.204	92.15
206.424	76.24
206.644	73.33
206.864	76.85
207.084	60.98
207.304	111.69
207.525	104.06
207.745	79.92
207.964	81.21
208.184	74.22
208.404	9.63
208.624	23.06
208.844	37.3
209.064	-104.38
209.284	-141.45
209.504	-69.23
209.724	-9.43
209.944	11.52
210.164	46.51
210.384	56.08
210.604	67.72
210.823	38.41
211.043	27.36
211.263	31.19
211.483	23.78
211.703	-17.71
211.922	26.4
212.142	57.02
212.362	71.76
212.582	71.2
212.801	75.54
213.021	48.54
213.241	53.65
213.461	20.17
213.68	-0.29
213.9	40.47
214.12	47.34
214.339	19.09
214.559	23.84
214.779	46.26
214.998	38.59
215.218	-2.08
215.438	-8.53
215.657	-11.09
215.877	8.39
216.096	19.4
216.316	45.17
216.535	48.98
216.755	56.86
216.974	21.34
217.194	-20.71
217.413	-40.59
217.633	-28.09
217.852	-82.34
218.072	-12.51
218.291	18.42
218.511	48.07
218.73	18.06
218.95	16.07
219.169	6.22
219.389	-31.39
219.608	-18.75
219.827	-0.36
220.047	14.2
220.266	24.87
220.485	40.66
220.705	58.91
220.924	39.1
221.143	60.33
221.363	47.27
221.582	55.47
221.801	58.08
222.021	79.81
222.24	53.21
222.459	149.74
222.678	114.33
222.897	73.58
223.117	19.42
223.336	23.26
223.555	9.69
223.774	40.62
223.993	65.56
224.213	128.57
224.432	104.04
224.651	97.32
224.87	73.61
225.089	64.99
225.308	49.77
225.527	66.3
225.746	72.74
225.965	65.64
226.184	78.5
226.404	66.03
226.623	44.2
226.842	47.15
227.061	69.63
227.28	56.92
227.499	46.13
227.718	64.93
227.936	53.13
228.155	62.62
228.374	71.23
228.593	82.62
228.812	98.11
229.031	79.39
229.25	32.3
229.469	31.29
229.688	19.24
229.907	35.42
230.125	70.79
230.344	72.8
230.563	81.84
230.782	103.91
231.001	57.49
231.22	40.12
231.438	72.94
231.657	52.85
231.876	29.02
232.095	52.56
232.313	60.34
232.532	49.63
232.751	42.77
232.969	51.54
233.188	83.14
233.407	83.72
233.625	36.45
233.844	38.03
234.063	31.22
234.281	36.96
234.5	34.3
234.719	49.94
234.937	61.35
235.156	45.67
235.374	45.63
235.593	59.88
235.811	68.73
236.03	48.16
236.249	54.57
236.467	47.29
236.686	24.38
236.904	29.01
237.123	36.03
237.341	52.73
237.559	52.23
237.778	52.27
237.996	46.44
238.215	55.76
238.433	34.76
238.652	49.3
238.87	48.57
239.088	63.63
239.307	46.21
239.525	71.88
239.743	34.08
239.962	28.71
240.18	-0.24
240.398	-31.62
240.617	-44.37
240.835	-16.05
241.053	24.88
241.271	85.03
241.49	101.16
241.708	128.08
241.926	95.12
242.144	59.4
242.363	13.19
242.581	17.26
242.799	40.31
243.017	67.18
243.235	53.68
243.453	63.73
243.672	44.84
243.89	27
244.108	22.94
244.326	38.73
244.544	43.63
244.762	46.03
244.98	77.41
245.198	67.27
245.416	51.5
245.634	39.19
245.852	28.32
246.07	1.19
246.288	15.92
246.506	13.45
246.724	34.75
246.942	75.07
247.16	91.02
247.378	99.41
247.596	105.07
247.814	103.38
248.032	72.09
248.25	53.64
248.468	36.45
248.685	45.33
248.903	58.17
249.121	57.38
249.339	39.02
249.557	40.07
249.775	38.51
249.992	-16.43
250.21	-9.79
250.428	11.57
250.646	5.34
250.863	-15.02
251.081	15.21
251.299	11.24
251.517	-8.72
251.734	0.46
251.952	-1.92
252.17	0.33
252.387	18.37
252.605	12.45
252.823	11.21
253.04	26.06
253.258	37.93
253.475	36.25
253.693	49.63
253.911	46.03
254.128	57.02
254.346	80.71
254.563	43.88
254.781	30.65
254.998	21.78
255.216	7.86
255.433	14.7
255.651	79.68
255.868	102.68
256.086	123.37
256.303	115.95
256.521	69.5
256.738	44.47
256.956	40.21
257.173	6.24
257.39	-16.39
257.608	-18.36
257.825	58.23
258.043	75.36
258.26	92.43
258.477	121.69
258.695	113.91
258.912	31.59
259.129	37.12
259.346	-1.19
259.564	-25.63
259.781	-33.17
259.998	29.82
260.216	62.66
260.433	104.26
260.65	110.59
260.867	115.33
261.084	89.87
261.302	43.88
261.519	25.15
261.736	-27.58
261.953	-31.58
262.17	13.86
262.387	-0.53
262.604	12.41
262.822	44.3
263.039	44.11
263.256	31.16
263.473	78.84
263.69	31.57
263.907	57.75
264.124	74.29
264.341	68.01
264.558	52.39
264.775	75.82
264.992	70.37
265.209	61.35
265.426	72.29
265.643	67.77
265.86	71.61
266.077	78.94
266.294	61.29
266.51	31.28
266.727	23.69
266.944	18.35
267.161	7.65
267.378	30.12
267.595	56.15
267.812	48.67
268.028	48.92
268.245	67.76
268.462	30.82
268.679	28.44
268.896	60.83
269.112	66.86
269.329	59.07
269.546	70.16
269.763	57.04
269.979	49.18
270.196	42.27
270.413	14.58
270.629	-7.18
270.846	-5.13
271.063	7.79
271.279	0.68
271.496	20.1
271.712	58.61
271.929	76.78
272.146	61.22
272.362	60.27
272.579	82.36
272.795	90.14
273.012	106.14
273.228	95.77
273.445	98.43
273.661	105.33
273.878	46.73
274.094	11.95
274.311	4.29
274.527	43.38
274.744	27.58
274.96	24.07
275.177	32.36
275.393	49.49
275.609	59.81
275.826	69.88
276.042	81.72
276.259	69.26
276.475	68.57
276.691	48.11
276.908	38.77
277.124	33.5
277.34	43.11
277.557	31.83
277.773	21.02
277.989	19.4
278.205	27.15
278.422	39.12
278.638	41.01
278.854	65.28
279.07	82.9
279.286	63.48
279.503	42.11
279.719	50.04
279.935	15.75
280.151	3.43
280.367	28.05
280.583	18.11
280.799	2.97
281.016	-11.14
281.232	12.51
281.448	15.63
281.664	40.4
281.88	58.2
282.096	82.06
282.312	106.4
282.528	125.47
282.744	133.62
282.96	98.2
283.176	68.55
283.392	57.83
283.608	33.74
283.824	23.11
284.04	31.03
284.256	38.67
284.471	18.75
284.687	33.89
284.903	61.02
285.119	81.39
285.335	67.7
285.551	84.93
285.767	64.79
285.982	50.84
286.198	23.62
286.414	68.94
286.63	62.93
286.846	80.15
287.061	48.48
287.277	67.95
287.493	38.26
287.709	54.5
287.924	32.07
288.14	65.67
288.356	50.12
288.571	74.53
288.787	56.48
289.003	56.21
289.218	50.62
289.434	25.9
289.65	28.77
289.865	23.03
290.081	75.57
290.296	83.32
290.512	105.55
290.727	69.83
290.943	66.88
291.159	30.88
291.374	25.75
291.59	7.15
291.805	20.04
292.021	20.83
292.236	21.83
292.451	31.9
292.667	20.69
292.882	29.31
293.098	42.62
293.313	28.79
293.529	10.73
293.744	27.02
293.959	2.27
294.175	-5.44
294.39	33.52
294.605	39.52
294.821	57.35
295.036	75.34
295.251	66.45
295.467	38.18
295.682	39.91
295.897	11.92
296.112	-6.39
296.328	9.15
296.543	1.91
296.758	-3.05
296.973	24.63
297.188	39.52
297.404	25.35
297.619	22.17
297.834	15.17
298.049	7.94
298.264	10.58
298.479	38.82
298.694	48.43
298.909	58.1
299.125	66.74
299.34	66.34
299.555	52.75
299.77	63.29
299.985	21.4
300.2	-39.35
300.415	-57.68
300.63	-40.86
300.845	-60.85
301.06	-49.64
301.275	-7.01
301.49	11.1
301.704	9.73
301.919	6.18
302.134	3.35
302.349	-6.56
302.564	-42.11
302.779	-22
302.994	24.92
303.209	41.38
303.423	93.21
303.638	95.14
303.853	57.26
304.068	55.03
304.283	56.06
304.497	35.53
304.712	30.02
304.927	42.23
305.142	33.72
305.356	34.69
305.571	43.07
305.786	25.43
306	-6.4
306.215	5.1
306.43	0.7
306.644	15.7
306.859	75.23
307.074	105.02
307.288	74.06
307.503	63.06
307.717	25.82
307.932	14.55
308.147	-0.7
308.361	26.19
308.576	28.23
308.79	10.22
309.005	10.23
309.219	49.85
309.434	40.43
309.648	31.82
309.863	60.25
310.077	73.81
310.292	45.07
310.506	46.66
310.72	44.74
310.935	51.23
311.149	36.7
311.364	52.68
311.578	58.23
311.792	68.87
312.007	58.18
312.221	51.46
312.435	50.85
312.649	26.37
312.864	-2.4
313.078	8.36
313.292	59.67
313.507	29.94
313.721	78.97
313.935	94.09
314.149	86.84
314.363	55.51
314.578	58.02
314.792	57.39
315.006	47.07
315.22	48.96
315.434	61.11
315.648	68.72
315.862	59.45
316.077	56.63
316.291	39.41
316.505	41.68
316.719	44.53
316.933	38.26
317.147	32.91
317.361	15.46
317.575	-3.21
317.789	-10.65
318.003	-40.13
318.217	-17.9
318.431	39.58
318.645	61.86
318.859	39.28
319.073	69.27
319.287	54.73
319.5	34.21
319.714	2
319.928	6.16
320.142	-14.96
320.356	39.5
320.57	68.89
320.784	88.6
320.997	72.19
321.211	71.81
321.425	37.87
321.639	20.75
321.853	71.66
322.066	78.37
322.28	61.18
322.494	63.15
322.707	66.82
322.921	34.4
323.135	27.84
323.349	56.94
323.562	41.85
323.776	30.13
323.989	28.23
324.203	17.83
324.417	-2.23
324.63	-34.05
324.844	-39.43
325.057	-27.84
325.271	-5.04
325.485	15.77
325.698	53.12
325.912	68.84
326.125	46.36
326.339	40.11
326.552	30.77
326.766	17.59
326.979	36
327.193	65.38
327.406	72.71
327.619	55.92
327.833	68.25
328.046	45.39
328.26	22.29
328.473	36.7
328.686	35.59
328.9	38.39
329.113	51.63
329.326	43.21
329.54	28.63
329.753	26.79
329.966	20.02
330.179	6.26
330.393	15.02
330.606	30.29
330.819	44.26
331.032	48.57
331.246	56.5
331.459	68.95
331.672	43.08
331.885	41.57
332.098	18.85
332.311	11.41
332.525	-14.66
332.738	21.51
332.951	29.87
333.164	47.05
333.377	49.07
333.59	75.03
333.803	78.36
334.016	68.14
334.229	88.42
334.442	95.6
334.655	99.43
334.868	94.11
335.081	86.94
335.294	66.46
335.507	64.1
335.72	41.89
335.933	30.9
336.146	23.21
336.359	29.62
336.572	8.75
336.785	1.05
336.997	9.69
337.21	43.63
337.423	24.75
337.636	32.53
337.849	49.78
338.062	40.21
338.274	31.54
338.487	15.39
338.7	28.59
338.913	-16.12
339.125	-32.35
339.338	-80.08
339.551	-20.08
339.763	1.66
339.976	36.91
340.189	50.33
340.402	63.61
340.614	46.14
340.827	26.85
341.039	9.8
341.252	14.99
341.465	34.03
341.677	46.06
341.89	24.76
342.102	46.03
342.315	43.02
342.527	7.32
342.74	-10.01
342.952	21.17
343.165	17.92
343.377	27.46
343.59	28.06
343.802	48.03
344.015	45.42
344.227	56.52
344.44	61.41
344.652	70.67
344.864	54.09
345.077	71.07
345.289	60.87
345.502	54.39
345.714	40.44
345.926	47.76
346.139	31.64
346.351	35.29
346.563	52.31
346.775	64.39
346.988	45.8
347.2	36.2
347.412	14.56
347.624	7.16
347.837	-2.93
348.049	59.43
348.261	70.75
348.473	71.18
348.685	56.11
348.897	50.12
349.11	9.42
349.322	3.46
349.534	18.36
349.746	37.01
349.958	33.58
350.17	46.84
350.382	52.45
350.594	50.81
350.806	39.92
351.018	40.36
351.23	24.82
351.442	-21.13
351.654	-23.14
351.866	-3.29
352.078	14.77
352.29	43.94
352.502	60.17
352.714	65.58
352.926	48.73
353.138	46.6
353.35	24.22
353.561	10.04
353.773	-12.06
353.985	0.24
354.197	-16.74
354.409	-3.92
354.621	-2.02
354.832	2.34
355.044	1.06
355.256	4.42
355.468	26.51
355.679	28.46
355.891	50.1
356.103	41.28
356.314	59.33
356.526	41.33
356.738	53.28
356.949	35.17
357.161	52.78
357.373	36.73
357.584	41.34
357.796	40.76
358.008	35.21
358.219	44.34
358.431	43.96
358.642	48.04
358.854	49.74
359.065	60.32
359.277	29.32
359.488	16.42
359.7	5.73
359.911	-16.58
360.123	-9.8
360.334	-2.45
360.546	-2.43
360.757	5.64
360.969	23.35
361.18	38.24
361.391	46.47
361.603	42.04
361.814	34.7
362.025	39.65
362.237	31.02
362.448	35.92
362.659	48.16
362.871	48.03
363.082	38.91
363.293	42.39
363.504	29.72
363.716	16.35
363.927	18.98
364.138	-3.81
364.349	-20.05
364.56	-17.15
364.772	-19.59
364.983	-2.26
365.194	16.53
365.405	33.35
365.616	60.78
365.827	80.09
366.038	69.36
366.25	61.98
366.461	45.13
366.672	28.34
366.883	29.96
367.094	33.56
367.305	23.47
367.516	39.6
367.727	22.58
367.938	22.35
368.149	25.79
368.36	39.3
368.571	38.85
368.781	30.6
368.992	11.32
369.203	-8.06
369.414	-21.73
369.625	-39.81
369.836	-39.6
370.047	-52.37
370.258	-40.59
370.468	-34.84
370.679	-39.07
370.89	-26.65
371.101	0.41
371.312	2.41
371.522	12.91
371.733	18.36
371.944	20.36
372.155	23.74
372.365	18.64
372.576	17.75
372.787	12.83
372.997	1.08
373.208	-1.74
373.419	24.38
373.629	3.94
373.84	5.77
374.05	12.55
374.261	14.87
374.472	1.56
374.682	33.35
374.893	42.48
375.103	63.31
375.314	54.61
375.524	51.2
375.735	53.48
375.945	46.78
376.156	15.24
376.366	17.99
376.577	22.95
376.787	8.48
376.997	20.89
377.208	30.15
377.418	14.22
377.629	11.23
377.839	14.79
378.049	13.78
378.26	30.06
378.47	44.91
378.68	36.01
378.89	36.29
379.101	28.29
379.311	4.6
379.521	-11.61
379.732	16.25
379.942	1.13
380.152	-15.75
380.362	10.35
380.572	10.11
380.783	18.8
380.993	43.6
381.203	65.55
381.413	77.75
381.623	87.6
381.833	69.05
382.043	50.33
382.253	47.04
382.463	34.36
382.674	23.6
382.884	9.26
383.094	10.96
383.304	9.78
383.514	12
383.724	26.49
383.934	23.53
384.144	11.49
384.353	1.46
384.563	3.24
384.773	0.8
384.983	0.9
385.193	21.84
385.403	30.35
385.613	35.44
385.823	27.74
386.033	35.15
386.242	28.95
386.452	23.6
386.662	12.29
386.872	28.27
387.082	23.02
387.291	23.11
387.501	36.64
387.711	41.46
387.921	26.64
388.13	23.46
388.34	30.38
388.55	13.68
388.759	14.35
388.969	23.33
389.179	24.79
389.388	22.01
389.598	31.66
389.807	23.85
390.017	18.02
390.227	18.57
390.436	17.48
390.646	19.53
390.855	25.54
391.065	26.9
391.274	26.06
391.484	25.94
391.693	28.82
391.903	29.12
392.112	33.95
392.322	38.17
392.531	39.4
392.74	39.88
392.95	36.58
393.159	33.63
393.369	32.06
393.578	31.18
393.787	26.73
393.997	29.3
394.206	27.7
394.415	27.68
394.625	26.98
394.834	26.86
395.043	26.89
395.252	29.9
395.462	30.6
395.671	31.96
395.88	33.07
396.089	33.45
396.298	30.85
396.508	30.38
396.717	29.75
396.926	30.46
397.135	29.78
397.344	30.52
397.553	31.05
397.762	31.31
397.971	30.36
398.181	30.72
398.39	29.92
398.599	29.14
398.808	28.93
399.017	29.42
399.226	29.88
399.435	31.39
399.644	31.89
399.853	31.7
400.062	31.32
400.27	31.12
400.479	30.27
400.688	29.42
400.897	29.79
401.106	29.74
401.315	29.76
401.524	30.06
401.733	30.41
401.941	30.49
402.15	30.69
402.359	30.2
402.568	29.94
402.777	30.03
402.985	29.74
403.194	29.56
403.403	29.32
403.612	28.83
403.82	28.71
404.029	28.7
404.238	28.64
404.446	28.92
404.655	28.98
404.864	28.74
405.072	28.48
405.281	28.44
405.489	28.36
405.698	28.44
405.906	28.43
406.115	28.28
406.324	28.05
406.532	27.95
406.741	28.02
406.949	27.86
407.158	27.99
407.366	28.07
407.574	27.93
407.783	27.76
407.991	27.61
408.2	27.6
408.408	27.47
408.617	27.44
408.825	27.25
409.033	27.27
409.242	27.13
409.45	27.07
409.658	26.93
409.867	27.02
410.075	26.81
410.283	26.62
410.491	26.42
410.7	26.26
410.908	26.12
411.116	26.38
411.324	26.27
411.533	26.27
411.741	26.28
411.949	26.38
412.157	26.03
412.365	26.09
412.573	26.01
412.781	26.04
412.99	25.85
413.198	25.96
413.406	25.68
413.614	25.69
413.822	25.61
414.03	25.4
414.238	25.19
414.446	25.48
414.654	25.2
414.862	25.18
415.07	25.25
415.278	25.37
415.486	25.07
415.694	25.19
415.902	24.92
416.109	24.71
416.317	24.75
416.525	24.65
416.733	24.63
416.941	24.65
417.149	24.54
417.357	24.28
417.564	24.44
417.772	24.53
417.98	24.51
418.188	24.7
418.395	24.81
418.603	24.66
418.811	24.19
419.019	24.02
419.226	24.24
419.434	24.22
419.642	24.09
419.849	24.38
420.057	24.35
420.265	23.95
420.472	23.61
420.68	23.5
420.887	23.1
421.095	23.26
421.302	23.32
421.51	23.46
421.717	23.4
421.925	23.65
422.132	23.52
422.34	23.23
422.547	23.15
422.755	23.21
422.962	23.09
423.17	22.86
423.377	22.95
423.585	22.86
423.792	22.72
423.999	22.77
424.207	22.86
424.414	22.97
424.621	22.96
424.829	22.91
425.036	23.02
425.243	23.17
425.451	23.06
425.658	23.24
425.865	23.57
426.072	23.32
426.28	23.65
426.487	23.61
426.694	23.66
426.901	23.58
427.108	23.59
427.315	23.3
427.523	23.61
427.73	23.53
427.937	23.38
428.144	23.19
428.351	23.18
428.558	23.13
428.765	23.09
428.972	23.31
429.179	23.8
429.386	24.02
429.593	23.96
429.8	23.97
430.007	24.09
430.214	24.1
430.421	23.94
430.628	23.91
430.835	23.72
431.042	23.96
431.249	24.14
431.456	24.47
431.662	24.82
431.869	25.32
432.076	25.44
432.283	25.57
432.49	25.45
432.697	25.4
432.903	25.33
433.11	25.12
433.317	25.19
433.524	25.51
433.73	25.51
433.937	25.91
434.144	26.06
434.35	26.11
434.557	26.04
434.764	26.24
434.97	26.15
435.177	26.35
435.384	26.24
435.59	26.27
435.797	26.5
436.003	26.48
436.21	26.41
436.416	26.66
436.623	26.71
436.829	26.81
437.036	26.86
437.242	27.01
437.449	27.03
437.655	27.22
437.862	27.08
438.068	27.29
438.275	27.59
438.481	27.8
438.687	27.78
438.894	28.02
439.1	27.95
439.307	28.05
439.513	28.04
439.719	28.23
439.926	28.26
440.132	28.41
440.338	28.22
440.544	28.39
440.751	28.33
440.957	28.49
441.163	28.52
441.369	28.64
441.575	28.57
441.782	28.73
441.988	28.69
442.194	28.71
442.4	28.76
442.606	28.98
442.812	29.06
443.018	29.23
443.224	29.23
443.431	29.31
443.637	29.25
443.843	29.14
444.049	29.27
444.255	29.45
444.461	29.64
444.667	29.51
444.873	29.95
445.079	29.84
445.284	29.91
445.49	29.71
445.696	29.89
445.902	29.73
446.108	29.73
446.314	29.9
446.52	30.11
446.726	30.36
446.931	30.52
447.137	30.68
447.343	30.73
447.549	30.71
447.755	30.54
447.96	30.51
448.166	30.42
448.372	30.37
448.578	30.5
448.783	30.64
448.989	30.67
449.195	31.04
449.4	31.03
449.606	31.09
449.812	31.03
450.017	31.03
450.223	30.89
450.428	30.88
450.634	30.99
450.84	31.21
451.045	31.29
451.251	31.28
451.456	31.63
451.662	31.71
451.867	31.72
452.073	31.82
452.278	32.01
452.483	32.05
452.689	31.99
452.894	32.02
453.1	31.98
453.305	32.05
453.51	31.91
453.716	31.94
453.921	32.05
454.127	32.14
454.332	32.01
454.537	32.12
454.742	32.17
454.948	32.19
455.153	32.12
455.358	32.25
455.563	32.26
455.769	32.42
455.974	32.34
456.179	32.31
456.384	32.4
456.589	32.42
456.795	32.26
457	32.41
457.205	32.64
457.41	32.69
457.615	32.81
457.82	32.91
458.025	32.84
458.23	32.65
458.435	32.63
458.64	32.53
458.845	32.72
459.05	32.69
459.255	32.88
459.46	32.97
459.665	33.08
459.87	33.04
460.075	33.14
460.28	33.23
460.485	33.26
460.69	33.25
460.895	33.12
461.099	33.19
461.304	33.29
461.509	33.37
461.714	33.43
461.919	33.67
462.123	33.56
462.328	33.66
462.533	33.52
462.738	33.66
462.942	33.49
463.147	33.72
463.352	33.61
463.556	33.68
463.761	33.66
463.966	33.81
464.17	33.73
464.375	33.76
464.58	33.73
464.784	33.68
464.989	33.6
465.193	33.74
465.398	33.76
465.602	33.95
465.807	33.98
466.011	34.26
466.216	34.44
466.42	34.63
466.625	34.8
466.829	35.01
467.034	35.04
467.238	35.17
467.443	35.11
467.647	34.96
467.851	35.06
468.056	35.05
468.26	34.97
468.464	35.04
468.669	35.2
468.873	35.3
469.077	35.2
469.282	35.36
469.486	35.41
469.69	35.54
469.894	35.46
470.099	35.73
470.303	35.81
470.507	35.8
470.711	35.8
470.915	35.74
471.119	35.67
471.324	35.46
471.528	35.59
471.732	35.61
471.936	35.84
472.14	35.91
472.344	36.17
472.548	36.28
472.752	36.42
472.956	36.58
473.16	36.65
473.364	36.46
473.568	36.41
473.772	36.44
473.976	36.31
474.18	36.22
474.384	36.37
474.588	36.4
474.792	36.41
474.995	36.54
475.199	36.76
475.403	36.86
475.607	37
475.811	37
476.015	37
476.218	37.1
476.422	37.05
476.626	37.02
476.83	37.07
477.033	37.15
477.237	37.05
477.441	37.22
477.644	37.29
477.848	37.25
478.052	37.23
478.255	37.24
478.459	37.12
478.663	37.25
478.866	37.46
479.07	37.53
479.273	37.68
479.477	37.81
479.681	37.73
479.884	37.56
480.088	37.58
480.291	37.57
480.495	37.52
480.698	37.66
480.901	37.87
481.105	37.99
481.308	37.95
481.512	38.06
481.715	38.12
481.919	38.14
482.122	38.09
482.325	38.28
482.529	38.27
482.732	38.16
482.935	38.09
483.138	38.02
483.342	38.05
483.545	38.09
483.748	38.29
483.952	38.38
484.155	38.66
484.358	38.71
484.561	38.74
484.764	38.7
484.967	38.76
485.171	38.58
485.374	38.48
485.577	38.55
485.78	38.69
485.983	38.74
486.186	38.77
486.389	38.81
486.592	38.82
486.795	38.72
486.998	38.61
487.201	38.68
487.404	38.7
487.607	38.8
487.81	38.87
488.013	39.07
488.216	39.02
488.419	38.99
488.622	38.87
488.825	38.92
489.028	38.9
489.231	38.88
489.433	38.85
489.636	38.92
489.839	38.86
490.042	38.77
490.245	38.87
490.447	39.04
490.65	39.03
490.853	39.09
491.056	39.2
491.258	39.32
491.461	39.36
491.664	39.54
491.866	39.52
492.069	39.66
492.272	39.63
492.474	39.75
492.677	39.75
492.879	39.91
493.082	39.88
493.285	40.02
493.487	40.01
493.69	40.09
493.892	40.13
494.095	40.22
494.297	40.29
494.5	40.37
494.702	40.31
494.905	40.44
495.107	40.59
495.309	40.55
495.512	40.61
495.714	40.72
495.917	40.7
496.119	40.57
496.321	40.66
496.524	40.87
496.726	41.03
496.928	41.1
497.13	41.26
497.333	41.39
497.535	41.28
497.737	41.27
497.939	41.35
498.142	41.42
498.344	41.43
498.546	41.51
498.748	41.69
498.95	41.82
499.152	41.78
499.355	41.82
499.557	42.09
499.759	42.15
499.961	42.16
500.163	42.24
500.365	42.36
500.567	42.33
500.769	42.3
500.971	42.34
501.173	42.46
501.375	42.61
501.577	42.58
501.779	42.65
501.981	42.81
502.183	42.94
502.385	43.02
502.587	43.12
502.788	43.33
502.99	43.39
503.192	43.51
503.394	43.48
503.596	43.49
503.798	43.49
503.999	43.69
504.201	43.64
504.403	43.74
504.605	43.96
504.806	43.97
505.008	43.92
505.21	44.07
505.411	44.08
505.613	44.08
505.815	44.25
506.016	44.36
506.218	44.45
506.42	44.44
506.621	44.42
506.823	44.37
507.024	44.3
507.226	44.33
507.427	44.39
507.629	44.46
507.83	44.59
508.032	44.68
508.233	44.81
508.435	45.17
508.636	45.33
508.838	45.4
509.039	45.41
509.24	45.31
509.442	45.16
509.643	45.06
509.845	44.99
510.046	45.13
510.247	45.27
510.448	45.33
510.65	45.41
510.851	45.56
511.052	45.58
511.254	45.62
511.455	45.71
511.656	45.92
511.857	46.06
512.058	46.02
512.26	46.07
512.461	46.13
512.662	46.08
512.863	45.95
513.064	46.03
513.265	46.05
513.466	46.07
513.667	46.05
513.868	46.1
514.069	46.26
514.27	46.34
514.471	46.25
514.672	46.32
514.873	46.3
515.074	46.3
515.275	46.31
515.476	46.35
515.677	46.42
515.878	46.65
516.079	46.63
516.28	46.68
516.481	46.78
516.682	46.78
516.882	46.67
517.083	46.72
517.284	46.68
517.485	46.75
517.686	46.79
517.886	46.9
518.087	46.89
518.288	46.94
518.488	46.92
518.689	46.91
518.89	46.87
519.091	46.99
519.291	46.99
519.492	47.14
519.692	47.27
519.893	47.32
520.094	47.24
520.294	47.31
520.495	47.26
520.695	47.27
520.896	47.32
521.096	47.43
521.297	47.48
521.497	47.41
521.698	47.39
521.898	47.32
522.099	47.28
522.299	47.37
522.499	47.55
522.7	47.55
522.9	47.66
523.101	47.79
523.301	47.77
523.501	47.66
523.702	47.73
523.902	47.81
524.102	47.83
524.302	47.81
524.503	47.93
524.703	47.91
524.903	47.84
525.103	47.81
525.304	47.93
525.504	47.95
525.704	48.06
525.904	48.06
526.104	48.07
526.304	48.1
526.504	48.05
526.705	47.98
526.905	48.11
527.105	48.17
527.305	48.12
527.505	48.13
527.705	48.11
527.905	48.06
528.105	47.96
528.305	47.87
528.505	48.01
528.705	48.1
528.905	48.01
529.105	48.03
529.304	48.16
529.504	48.18
529.704	48.2
529.904	48.34
530.104	48.36
530.304	48.36
530.503	48.27
530.703	48.19
530.903	48.15
531.103	48.12
531.303	48.1
531.502	48.05
531.702	48.12
531.902	48.04
532.101	48.07
532.301	48.12
532.501	48.29
532.7	48.25
532.9	48.44
533.1	48.41
533.299	48.42
533.499	48.39
533.698	48.46
533.898	48.34
534.097	48.41
534.297	48.46
534.496	48.3
534.696	48.26
534.895	48.38
535.095	48.41
535.294	48.38
535.494	48.46
535.693	48.5
535.892	48.44
536.092	48.38
536.291	48.37
536.491	48.47
536.69	48.55
536.889	48.61
537.088	48.62
537.288	48.66
537.487	48.79
537.686	48.72
537.886	48.68
538.085	48.72
538.284	48.68
538.483	48.4
538.682	48.5
538.882	48.71
539.081	48.84
539.28	48.87
539.479	49.04
539.678	48.96
539.877	48.97
540.076	48.93
540.275	49.02
540.474	49.14
540.673	49.2
540.872	49.15
541.071	49.17
541.27	49.14
541.469	49.1
541.668	49.18
541.867	49.22
542.066	49.13
542.265	49.21
542.464	49.31
542.663	49.44
542.862	49.66
543.06	50
543.259	50.15
543.458	50.17
543.657	50.04
543.856	49.81
544.054	49.6
544.253	49.43
544.452	49.45
544.651	49.45
544.849	49.47
545.048	49.58
545.247	49.69
545.445	49.67
545.644	49.73
545.843	49.79
546.041	49.72
546.24	49.73
546.438	49.75
546.637	49.83
546.836	49.95
547.034	49.92
547.233	50
547.431	49.88
547.63	49.84
547.828	49.92
548.027	50.06
548.225	50
548.423	50.16
548.622	50.28
548.82	50.21
549.019	50.21
549.217	50.3
549.415	50.31
549.614	50.3
549.812	50.31
550.01	50.31
550.209	50.53
550.407	50.62
550.605	50.71
550.803	50.87
551.002	50.91
551.2	50.82
551.398	50.87
551.596	50.96
551.794	50.99
551.993	51.13
552.191	51.24
552.389	51.39
552.587	51.41
552.785	51.33
552.983	51.56
553.181	51.66
553.379	51.65
553.577	51.66
553.775	51.78
553.973	51.69
554.171	51.7
554.369	51.76
554.567	51.81
554.765	51.96
554.963	52.04
555.161	52
555.359	52.11
555.557	52.3
555.755	52.13
555.952	52.21
556.15	52.18
556.348	52.12
556.546	52.12
556.744	52.26
556.941	52.18
557.139	52.38
557.337	52.39
557.535	52.36
557.732	52.44
557.93	52.6
558.128	52.53
558.325	52.71
558.523	52.76
558.721	52.84
558.918	52.95
559.116	53.06
559.313	52.94
559.511	53.14
559.708	53.16
559.906	53.18
560.104	53.09
560.301	53.36
560.498	53.36
560.696	53.4
560.893	53.38
561.091	53.59
561.288	53.58
561.486	53.58
561.683	53.82
561.88	53.88
562.078	54.05
562.275	54.03
562.473	54.06
562.67	54.09
562.867	54.22
563.064	54.23
563.262	54.25
563.459	54.44
563.656	54.39
563.853	54.44
564.051	54.49
564.248	54.67
564.445	54.75
564.642	54.82
564.839	54.88
565.036	54.97
565.234	55.12
565.431	55.17
565.628	55.29
565.825	55.43
566.022	55.54
566.219	55.43
566.416	55.39
566.613	55.46
566.81	55.27
567.007	55.17
567.204	55.25
567.401	55.35
567.598	55.34
567.795	55.65
567.991	55.78
568.188	55.87
568.385	55.9
568.582	56
568.779	56.08
568.976	56.11
569.172	56.23
569.369	56.26
569.566	56.23
569.763	56.23
569.96	56.22
570.156	56.14
570.353	56.12
570.55	56.18
570.746	56.04
570.943	56.09
571.14	56.06
571.336	56.19
571.533	56.19
571.729	56.25
571.926	56.24
572.123	56.35
572.319	56.29
572.516	56.23
572.712	56.3
572.909	56.36
573.105	56.36
573.302	56.39
573.498	56.61
573.695	56.54
573.891	56.45
574.087	56.52
574.284	56.49
574.48	56.47
574.677	56.53
574.873	56.56
575.069	56.46
575.266	56.62
575.462	56.53
575.658	56.59
575.854	56.8
576.051	56.9
576.247	56.76
576.443	56.76
576.639	56.77
576.835	56.67
577.032	56.63
577.228	56.79
577.424	56.76
577.62	56.79
577.816	56.82
578.012	56.86
578.208	56.78
578.404	56.89
578.6	56.84
578.796	56.8
578.993	56.76
579.189	56.69
579.384	56.6
579.58	56.57
579.776	56.52
579.972	56.5
580.168	56.46
580.364	56.58
580.56	56.45
580.756	56.4
580.952	56.35
581.148	56.31
581.343	56.18
581.539	56.27
581.735	56.3
581.931	56.43
582.127	56.62
582.322	56.61
582.518	56.63
582.714	56.61
582.909	56.62
583.105	56.46
583.301	56.44
583.496	56.52
583.692	56.39
583.888	56.2
584.083	56.26
584.279	56.36
584.474	56.3
584.67	56.52
584.866	56.67
585.061	56.48
585.257	56.37
585.452	56.22
585.648	56.14
585.843	56.12
586.039	56.19
586.234	56.35
586.429	56.34
586.625	56.43
586.82	56.27
587.015	56.25
587.211	56
587.406	56.15
587.601	56.06
587.797	56.09
587.992	56.05
588.187	56.16
588.383	56.15
588.578	56.17
588.773	56.17
588.968	56.19
589.163	56.17
589.359	56.01
589.554	55.94
589.749	55.99
589.944	56.13
590.139	56.18
590.334	56.34
590.529	56.28
590.724	56.45
590.919	56.46
591.114	56.46
591.309	56.54
591.504	56.75
591.699	56.55
591.894	56.6
592.089	56.56
592.284	56.44
592.479	56.26
592.674	56.37
592.869	56.44
593.064	56.38
593.259	56.54
593.454	56.71
593.648	56.7
593.843	56.5
594.038	56.65
594.233	56.57
594.428	56.64
594.622	56.66
594.817	56.85
595.012	56.85
595.206	56.9
595.401	56.83
595.596	56.74
595.79	56.76
595.985	56.86
596.18	56.94
596.374	56.95
596.569	57.17
596.763	57.08
596.958	57.12
597.153	57.18
597.347	57.05
597.542	57.08
597.736	57.12
597.931	57.21
598.125	57.04
598.319	57.25
598.514	57.31
598.708	57.42
598.903	57.28
599.097	57.42
599.291	57.51
599.486	57.5
599.68	57.58
599.874	57.78
600.069	57.74
600.263	57.71
600.457	57.59
600.651	57.61
600.846	57.51
601.04	57.62
601.234	57.61
601.428	57.74
601.622	57.7
601.817	57.79
602.011	57.77
602.205	57.82
602.399	57.82
602.593	57.86
602.787	57.87
602.981	57.79
603.175	57.81
603.369	57.76
603.563	57.74
603.757	57.89
603.951	57.95
604.145	57.92
604.339	57.98
604.533	57.79
604.727	57.58
604.921	57.48
605.115	57.6
605.309	57.73
605.502	57.9
605.696	57.88
605.89	57.85
606.084	57.7
606.278	57.55
606.471	57.53
606.665	57.42
606.859	57.43
607.053	57.36
607.246	57.25
607.44	57.07
607.634	57.12
607.827	57.16
608.021	57.1
608.214	57.12
608.408	57.11
608.602	57.13
608.795	56.97
608.989	56.88
609.182	56.81
609.376	56.82
609.569	56.65
609.763	56.63
609.956	56.56
610.15	56.54
610.343	56.62
610.537	56.59
610.73	56.5
610.923	56.71
611.117	56.74
611.31	56.65
611.504	56.6
611.697	56.57
611.89	56.38
612.083	56.22
612.277	56.25
612.47	56.28
612.663	56.31
612.856	56.31
613.05	56.21
613.243	56.05
613.436	56.01
613.629	55.91
613.822	55.67
614.015	55.66
614.209	55.67
614.402	55.73
614.595	55.8
614.788	55.94
614.981	55.94
615.174	55.69
615.367	55.47
615.56	55.35
615.753	55.33
615.946	55.3
616.139	55.48
616.332	55.56
616.525	55.66
616.718	55.46
616.911	55.29
617.103	55.14
617.296	55.17
617.489	55
617.682	55.09
617.875	55.24
618.067	55.27
618.26	55.12
618.453	55.06
618.646	55.08
618.838	55.07
619.031	55.15
619.224	55.11
619.417	55.14
619.609	55.11
619.802	54.92
619.994	54.74
620.187	54.67
620.38	54.59
620.572	54.54
620.765	54.7
620.957	54.53
621.15	54.39
621.342	54.41
621.535	54.38
621.727	54.3
621.92	54.43
622.112	54.42
622.305	54.54
622.497	54.54
622.69	54.56
622.882	54.55
623.074	54.69
623.267	54.46
623.459	54.25
623.651	54.16
623.844	54.15
624.036	54.11
624.228	54.05
624.42	54.2
624.613	54.16
624.805	54.18
624.997	54.15
625.189	54.17
625.381	54.21
625.574	54.1
625.766	53.96
625.958	53.93
626.15	54.01
626.342	53.92
626.534	54.01
626.726	53.99
626.918	53.93
627.11	53.69
627.302	53.56
627.494	53.46
627.686	53.45
627.878	53.3
628.07	53.45
628.262	53.41
628.454	53.43
628.646	53.49
628.838	53.58
629.029	53.39
629.221	53.45
629.413	53.35
629.605	53.18
629.797	53.18
629.989	53.31
630.18	53.22
630.372	53.27
630.564	53.21
630.755	53.19
630.947	53.13
631.139	52.91
631.33	52.7
631.522	52.89
631.714	52.82
631.905	52.73
632.097	52.88
632.289	52.88
632.48	52.61
632.672	52.42
632.863	52.32
633.055	52.22
633.246	52.16
633.438	52.16
633.629	52.19
633.821	52.13
634.012	52.03
634.203	51.88
634.395	51.84
634.586	52.04
634.777	51.99
634.969	52.09
635.16	52.12
635.351	52.05
635.543	51.73
635.734	51.74
635.925	51.68
636.117	51.69
636.308	51.65
636.499	51.5
636.69	51.37
636.881	51.28
637.073	51.14
637.264	51.07
637.455	51.13
637.646	51.17
637.837	51.13
638.028	51.04
638.219	50.92
638.41	50.78
638.601	50.61
638.792	50.53
638.983	50.41
639.174	50.37
639.365	50.4
639.556	50.35
639.747	50.11
639.938	50.17
640.129	50.16
640.32	49.96
640.511	49.95
640.701	50.06
640.892	49.92
641.083	49.82
641.274	49.95
641.465	49.71
641.655	49.49
641.846	49.37
642.037	49.23
642.228	49
642.418	49.14
642.609	49.27
642.8	49.26
642.99	49.19
643.181	49.24
643.372	49.13
643.562	48.93
643.753	48.78
643.943	48.66
644.134	48.46
644.324	48.42
644.515	48.36
644.705	48.5
644.896	48.58
645.086	48.59
645.277	48.49
645.467	48.5
645.658	48.46
645.848	48.39
646.038	48.39
646.229	48.41
646.419	48.28
646.61	48.2
646.8	48.15
646.99	48.04
647.18	48.01
647.371	48
647.561	48
647.751	47.92
647.941	47.95
648.132	47.9
648.322	47.88
648.512	47.68
648.702	47.77
648.892	47.7
649.082	47.67
649.272	47.61
649.462	47.51
649.653	47.49
649.843	47.43
650.033	47.4
650.223	47.4
650.413	47.46
650.603	47.44
650.793	47.42
650.983	47.42
651.172	47.42
651.362	47.45
651.552	47.29
651.742	47.16
651.932	47.22
652.122	47.24
652.312	47.23
652.502	47.24
652.691	47.4
652.881	47.37
653.071	47.31
653.261	47.31
653.45	47.31
653.64	47.19
653.83	47.02
654.019	46.91
654.209	46.99
654.399	46.87
654.588	46.81
654.778	46.81
654.968	46.79
655.157	46.61
655.347	46.69
655.536	46.68
655.726	46.53
655.915	46.37
656.105	46.29
656.294	46.11
656.484	45.96
656.673	46.02
656.863	46.08
657.052	45.99
657.241	45.84
657.431	45.54
657.62	45.32
657.809	44.99
657.999	44.74
658.188	44.68
658.377	44.85
658.567	44.76
658.756	44.74
658.945	44.69
659.134	44.47
659.324	44.24
659.513	44.16
659.702	44.05
659.891	44
660.08	43.81
660.269	43.76
660.458	43.63
660.648	43.46
660.837	43.2
661.026	43.23
661.215	42.99
661.404	42.65
661.593	42.54
661.782	42.28
661.971	42.11
662.16	42.04
662.349	41.98
662.538	41.74
662.726	41.74
662.915	41.46
663.104	41.16
663.293	41.01
663.482	40.92
663.671	40.83
663.86	40.8
664.048	40.59
664.237	40.56
664.426	40.3
664.615	40.04
664.803	39.94
664.992	39.83
665.181	39.56
665.369	39.41
665.558	39.29
665.747	39.18
665.935	39.26
666.124	39.21
666.312	39.2
666.501	39.12
666.69	38.74
666.878	38.51
667.067	38.22
667.255	38.2
667.444	38.34
667.632	38.45
667.82	38.39
668.009	38.48
668.197	38.33
668.386	37.99
668.574	37.98
668.762	37.78
668.951	37.63
669.139	37.51
669.327	37.29
669.516	37.16
669.704	36.93
669.892	36.89
670.08	36.87
670.269	36.9
670.457	36.84
670.645	36.89
670.833	36.81
671.021	36.75
671.21	36.74
671.398	36.72
671.586	36.76
671.774	36.67
671.962	36.67
672.15	36.68
672.338	36.51
672.526	36.48
672.714	36.37
672.902	36.32
673.09	36.36
673.278	36.56
673.466	36.63
673.654	36.86
673.842	37.03
674.03	37.02
674.218	36.83
674.405	36.8
674.593	36.77
674.781	36.73
674.969	36.74
675.157	36.92
675.344	36.99
675.532	37.02
675.72	37.07
675.908	37.08
676.095	37.01
676.283	37.19
676.471	37.44
676.658	37.47
676.846	37.38
677.033	37.38
677.221	37.31
677.409	37.09
677.596	37.05
677.784	37.35
677.971	37.49
678.159	37.68
678.346	37.71
678.534	37.75
678.721	37.82
678.909	37.95
679.096	37.91
679.283	38.21
679.471	38.53
679.658	38.71
679.846	38.82
680.033	39.16
680.22	39.31
680.408	39.31
680.595	39.31
680.782	39.4
680.969	39.55
681.157	39.47
681.344	39.55
681.531	39.69
681.718	39.85
681.905	39.96
682.093	40.26
682.28	40.67
682.467	41.01
682.654	41.23
682.841	41.32
683.028	41.67
683.215	41.88
683.402	41.94
683.589	42.12
683.776	42.63
683.963	42.66
684.15	42.71
684.337	43.04
684.524	43.32
684.711	43.58
684.898	43.84
685.085	44.28
685.271	44.58
685.458	44.96
685.645	44.99
685.832	45.49
686.019	45.9
686.205	46.15
686.392	46.49
686.579	46.8
686.766	47.26
686.952	47.51
687.139	48.09
687.326	48.27
687.512	48.63
687.699	48.79
687.886	49.11
688.072	49.37
688.259	49.91
688.445	50.45
688.632	50.88
688.818	51.47
689.005	51.93
689.191	52.17
689.378	52.82
689.564	53.4
689.751	53.62
689.937	53.9
690.124	54.57
690.31	54.56
690.496	54.74
690.683	55.15
690.869	55.52
691.055	55.7
691.242	56.42
691.428	56.97
691.614	57.48
691.8	58.13
691.987	58.78
692.173	59.03
692.359	59.42
692.545	59.87
692.731	60.06
692.918	60.44
693.104	60.93
693.29	61.39
693.476	61.64
693.662	62.11
693.848	62.44
694.034	62.69
694.22	62.84
694.406	63.37
694.592	63.86
694.778	64.33
694.964	64.63
695.15	65.27
695.336	65.46
695.522	66.19
695.708	66.43
695.894	67.13
696.08	67.46
696.265	68.04
696.451	68.14
696.637	68.56
696.823	68.58
697.009	68.68
697.194	68.77
697.38	69
697.566	69.18
697.751	69.63
697.937	70.49
698.123	70.99
698.308	71.4
698.494	72.01
698.68	72.37
698.865	72.63
699.051	73.13
699.236	73.39
699.422	73.62
699.607	73.99
699.793	74.09
699.978	74.08
700.164	74.22
700.349	74.78
700.535	74.94
700.72	75.1
700.906	75.81
701.091	75.86
701.276	75.9
701.462	76.44
701.647	76.92
701.832	76.86
702.018	77.81
702.203	77.9
702.388	77.82
702.573	78.13
702.759	78.69
702.944	78.63
703.129	78.86
703.314	79.15
703.499	79.14
703.684	79.09
703.87	79.73
704.055	80.51
704.24	80.88
704.425	81.51
704.61	81.76
704.795	81.89
704.98	81.83
705.165	81.83
705.35	81.93
705.535	82.66
705.72	82.59
705.905	82.71
706.09	83.11
706.275	83.16
706.459	82.86
706.644	82.91
706.829	83.02
707.014	83.05
707.199	83.55
707.384	83.62
707.568	83.79
707.753	84.37
707.938	84.87
708.123	84.68
708.307	84.89
708.492	85.19
708.677	85.56
708.861	85.45
709.046	85.23
709.231	85.59
709.415	85.67
709.6	84.97
709.784	85.08
709.969	85.33
710.153	85.25
710.338	85.13
710.522	85.71
710.707	86.01
710.891	86.19
711.076	85.99
711.26	86.06
711.445	86.13
711.629	86.29
711.813	86.76
711.998	87.55
712.182	87.72
712.366	87.95
712.551	88.4
712.735	88.33
712.919	88.1
713.103	88.3
713.288	88.22
713.472	87.92
713.656	88.33
713.84	88.46
714.024	88.95
714.208	88.8
714.393	89.25
714.577	89.39
714.761	89.36
714.945	89.33
715.129	89.49
715.313	89.54
715.497	89.04
715.681	89.67
715.865	89.53
716.049	90.38
716.233	90.04
716.417	90.47
716.601	89.92
716.785	90.02
716.968	89.55
717.152	89.72
717.336	89.94
717.52	90.39
717.704	90.78
717.888	91.36
718.071	91.63
718.255	91.4
718.439	90.88
718.622	90.59
718.806	90.32
718.99	89.86
719.174	89.72
719.357	90.09
719.541	90.5
719.724	90.43
719.908	91.24
720.092	91.87
720.275	92.18
720.459	91.96
720.642	91.65
720.826	91.27
721.009	90.98
721.193	90.65
721.376	90.86
721.559	91.32
721.743	91.56
721.926	91.75
722.11	92.06
722.293	91.67
722.476	91.6
722.66	91.71
722.843	91.38
723.026	90.8
723.21	91.24
723.393	91.54
723.576	91.82
723.759	91.72
723.942	92.39
724.126	92.38
724.309	92.19
724.492	91.66
724.675	92.05
724.858	92.45
725.041	93.05
725.224	93.28
725.407	93.56
725.59	93.85
725.774	93.75
725.957	92.76
726.14	92.53
726.322	92.72
726.505	91.83
726.688	92.38
726.871	92.59
727.054	92.96
727.237	92.46
727.42	93.37
727.603	92.25
727.786	92.17
727.968	92.34
728.151	92.78
728.334	92.51
728.517	93.08
728.699	94.32
728.882	94.08
729.065	94.44
729.248	94.65
729.43	94.76
729.613	94.61
729.796	95.33
729.978	94.7
730.161	94.89
730.343	94.32
730.526	94.34
730.708	93.02
730.891	93.31
731.073	93.18
731.256	93.57
731.438	93.83
731.621	94.53
731.803	94.29
731.986	94.66
732.168	94.17
732.35	93.3
732.533	93.5
732.715	94.13
732.898	94.06
733.08	94.61
733.262	94.97
733.444	94.48
733.627	94.49
733.809	95.05
733.991	95.33
734.173	94.54
734.355	94.83
734.538	95.05
734.72	94.36
734.902	94.48
735.084	95.62
735.266	96.35
735.448	96.16
735.63	96.03
735.812	96.06
735.994	96.23
736.176	95.53
736.358	95.4
736.54	95.97
736.722	95.5
736.904	94.92
737.086	94.68
737.268	95.5
737.45	95.33
737.632	95.24
737.814	95.18
737.995	95.53
738.177	95.18
738.359	94.37
738.541	94.41
738.723	95.29
738.904	95.74
739.086	95.58
739.268	96.43
739.449	96.9
739.631	95.98
739.813	96
739.994	96.39
740.176	96.47
740.358	96.95
740.539	98.08
740.721	97.8
740.902	98.32
741.084	98.12
741.265	97.65
741.447	97.23
741.628	97.6
741.81	96.33
741.991	96.87
742.172	98.08
742.354	98.53
742.535	97.98
742.717	97.73
742.898	97.98
743.079	97.57
743.261	97.72
743.442	98
743.623	99.65
743.804	99.26
743.986	99.3
744.167	97.38
744.348	97.37
744.529	97.21
744.71	96.37
744.891	95.52
745.073	95.75
745.254	95.51
745.435	94.37
745.616	94.79
745.797	94.74
745.978	94.54
746.159	94.67
746.34	94.14
746.521	96.35
746.702	95.41
746.883	96.47
747.064	96.45
747.245	97.49
747.426	96.14
747.606	97.44
747.787	97.96
747.968	97.97
748.149	98.25
748.33	98.2
748.51	97.73
748.691	97.28
748.872	98.02
749.053	97.58
749.233	95.63
749.414	95.33
749.595	93.8
749.775	92.53
749.956	92.77
750.137	93.86
750.317	95.54
750.498	97.54
750.678	97.68
750.859	97.57
751.04	97.38
751.22	94.86
751.4	93.99
751.581	93.51
751.761	93.54
751.942	94.03
752.122	94.19
752.303	94.01
752.483	94.6
752.663	93.85
752.844	92.86
753.024	95.32
753.204	95.78
753.385	95.05
753.565	95.42
753.745	95.64
753.925	94.35
754.106	93.79
754.286	94.37
754.466	93.84
754.646	94.12
754.826	93.1
755.006	91.74
755.187	93.23
755.367	94.25
755.547	95.13
755.727	96.24
755.907	97.66
756.087	97.78
756.267	97.21
756.447	96.87
756.627	95.46
756.807	97.55
756.987	95.74
757.167	96.16
757.346	96.49
757.526	97.23
757.706	96.55
757.886	98.16
758.066	96.83
758.246	99.28
758.425	98.51
758.605	97.73
758.785	95.84
758.965	96.66
759.144	93.35
759.324	95.03
759.504	94.6
759.683	95.38
759.863	94.87
760.043	94.17
760.222	94.17
760.402	92.96
760.581	93.31
760.761	95.4
760.94	95.8
761.12	97.44
761.299	98.63
761.479	97.38
761.658	96.47
761.838	95.97
762.017	93.7
762.197	94.6
762.376	95.55
762.555	95.27
762.735	96.66
762.914	95.93
763.093	94.97
763.273	94.09
763.452	93.57
763.631	93.3
763.81	93.04
763.99	92.68
764.169	94.11
764.348	92.33
764.527	91.36
764.706	93.59
764.885	93.15
765.064	91.47
765.243	92.29
765.423	93.5
765.602	91.98
765.781	90.77
765.96	90.08
766.139	90.14
766.318	89.54
766.497	89.06
766.676	92.06
766.854	93.83
767.033	93.56
767.212	93.89
767.391	94.48
767.57	94.06
767.749	94.19
767.928	96.57
768.106	95.75
768.285	94.47
768.464	94.08
768.643	93.25
768.821	91.33
769	92.65
769.179	92.45
769.357	90.84
769.536	89.9
769.715	92.24
769.893	93.27
770.072	93.85
770.25	94.34
770.429	95.72
770.607	93.44
770.786	90.26
770.964	90.27
771.143	90.4
771.321	91.61
771.5	92.08
771.678	91.86
771.857	91.3
772.035	91.61
772.213	91.03
772.392	89
772.57	92.74
772.748	93.79
772.927	94.08
773.105	92.58
773.283	94.33
773.461	92.53
773.64	93.39
773.818	91.97
773.996	94.12
774.174	93.55
774.352	92.5
774.531	89.16
774.709	90.08
774.887	87.85
775.065	87.47
775.243	86.87
775.421	86.62
775.599	90.49
775.777	88.27
775.955	87.77
776.133	85.85
776.311	89.38
776.489	84.14
776.667	86.51
776.844	86.71
777.022	87.87
777.2	86.34
777.378	86.57
777.556	86.36
777.734	87.96
777.911	90.54
778.089	92.06
778.267	94.31
778.445	92.97
778.622	92.3
778.8	89.21
778.978	87.68
779.155	85.65
779.333	86.46
779.511	85.95
779.688	90.07
779.866	85.37
780.043	82.99
780.221	83.41
780.398	82.04
780.576	82.17
780.753	87.66
780.931	85.53
781.108	83.11
781.286	84.75
781.463	82.3
781.64	77.43
781.818	82.97
781.995	86.01
782.172	84.62
782.35	85.15
782.527	92.26
782.704	91.71
782.882	92.34
783.059	93.02
783.236	94.19
783.413	90.71
783.59	91.07
783.768	87.73
783.945	91.43
784.122	88.37
784.299	88.23
784.476	85.24
784.653	86.1
784.83	81.58
785.007	79.62
785.184	80.26
785.361	82.57
785.538	86.53
785.715	89.94
785.892	91.02
786.069	93.86
786.246	93.27
786.423	92.81
786.6	90.84
786.776	93.56
786.953	91.88
787.13	96.14
787.307	93.43
787.484	88.85
787.66	86.42
787.837	86.11
788.014	80.14
788.191	79.5
788.367	82.4
788.544	85.66
788.721	83.32
788.897	87.88
789.074	90.02
789.25	87.74
789.427	87.52
789.603	86.93
789.78	86.67
789.956	85.71
790.133	87.65
790.309	87.03
790.486	90.3
790.662	88.4
790.839	88.94
791.015	88.39
791.192	84.45
791.368	83.64
791.544	83.65
791.721	82.58
791.897	81.85
792.073	81.63
792.249	77.18
792.426	76.94
792.602	77.34
792.778	76.31
792.954	76.83
793.13	78.63
793.307	74.91
793.483	69.84
793.659	70.19
793.835	71.76
794.011	72.73
794.187	76.56
794.363	79.59
794.539	85.38
794.715	81.22
794.891	81.62
795.067	80.15
795.243	83.41
795.419	80.51
795.595	81
795.771	81.6
795.947	82.85
796.122	79.8
796.298	79.65
796.474	83.59
796.65	82.14
796.826	80.98
797.001	79.87
797.177	75.83
797.353	82.2
797.529	84.99
797.704	85.21
797.88	83.02
798.056	81.41
798.231	72.84
798.407	76.29
798.582	76.26
798.758	87.02
798.934	95.94
799.109	95.43
799.285	89.91
799.46	87.6
799.636	83.95
799.811	82
799.986	83.99
800.162	81.63
800.337	87
800.513	77.52
800.688	76.97
800.863	82.36
801.039	81.05
801.214	71.31
801.389	82.85
801.565	79.69
801.74	70.31
801.915	79.05
802.09	84.3
802.265	83.53
802.441	80.92
802.616	82.1
802.791	79.1
802.966	76.46
803.141	76.16
803.316	81.28
803.491	89.42
803.666	90.12
803.841	93.31
804.016	88.74
804.191	83.93
804.366	77.05
804.541	74.83
804.716	72.14
804.891	70.22
805.066	69.27
805.241	67.75
805.416	65.59
805.591	69.77
805.765	70.71
805.94	79.56
806.115	79.81
806.29	77.1
806.464	76.41
806.639	73.53
806.814	67.21
806.989	62.02
807.163	77.89
807.338	76.87
807.512	80.51
807.687	76.2
807.862	85.15
808.036	80.58
808.211	83.88
808.385	86.6
808.56	99.79
808.734	107.5
808.909	96.77
809.083	92.56
809.258	99.26
809.432	91.41
809.606	74.63
809.781	78.11
809.955	82.66
810.13	77.93
810.304	76.01
810.478	73.8
810.652	89.47
810.827	88.7
811.001	88.67
811.175	85.36
811.349	84.28
811.524	73.09
811.698	57.11
811.872	58.39
812.046	68.17
812.22	76.58
812.394	71.32
812.568	85.08
812.742	85.99
812.916	75
813.09	68.79
813.264	65.72
813.438	68.52
813.612	68.27
813.786	69.3
813.96	83.39
814.134	90.4
814.308	93.28
814.482	89.12
814.656	81.61
814.83	75.86
815.003	83.71
815.177	77.95
815.351	76.65
815.525	80.7
815.698	76.77
815.872	64.82
816.046	59.21
816.219	62.7
816.393	74.41
816.567	77.98
816.74	76.77
816.914	78.78
817.088	80.63
817.261	73.79
817.435	74.97
817.608	75.75
817.782	69.42
817.955	75.32
818.129	67.62
818.302	64.02
818.475	72.79
818.649	79.12
818.822	69.3
818.996	86.12
819.169	97.35
819.342	87.42
819.516	95.58
819.689	92.32
819.862	80.33
820.035	70.63
820.209	71.41
820.382	67.99
820.555	71.23
820.728	56.67
820.901	51.21
821.075	48.61
821.248	54.42
821.421	45.01
821.594	55.86
821.767	71.09
821.94	86.01
822.113	64.01
822.286	72.05
822.459	84.21
822.632	90.41
822.805	69.67
822.978	71.84
823.151	61.22
823.324	39.94
823.496	21.4
823.669	34.39
823.842	43.97
824.015	33.71
824.188	48.97
824.361	60.87
824.533	53.52
824.706	58.38
824.879	67.11
825.051	75.37
825.224	62.1
825.397	66.08
825.569	65.2
825.742	77.88
825.915	74.96
826.087	88.07
826.26	59.37
826.432	52.44
826.605	48.97
826.777	53.42
826.95	51.93
827.122	57.53
827.295	71.1
827.467	70.58
827.64	41.63
827.812	38.69
827.984	43.28
828.157	27.99
828.329	-6.33
828.501	28.99
828.674	45.52
828.846	40.69
829.018	65.69
829.19	66.36
829.363	62.98
829.535	62.26
829.707	72.96
829.879	30.1
830.051	11.57
830.223	11.79
830.395	-9.94
830.568	-15.51
830.74	-11.46
830.912	39.95
831.084	11.03
831.256	9.4
831.428	4.72
831.6	4.51
831.772	-34.78
831.943	-34.46
832.115	0.98
832.287	14.37
832.459	43.97
832.631	60.37
832.803	90.24
832.975	113.78
833.146	103.16
833.318	82.54
833.49	89.64
833.662	75.73
833.833	41.83
834.005	47.51
834.177	62.13
834.348	58.76
834.52	60.18
834.692	67.4
834.863	56.19
835.035	37.24
835.206	10.24
835.378	23.35
835.549	23.93
835.721	32.58
835.892	45.76
836.064	46.37
836.235	44.25
836.407	85.12
836.578	59.5
836.749	57.48
836.921	22.07
837.092	-24.79
837.264	-42.63
837.435	-51.03
837.606	-10.86
837.777	36.53
837.949	54.52
838.12	63.57
838.291	77.39
838.462	75.37
838.633	42.73
838.805	55.35
838.976	62.09
839.147	54.51
839.318	-7.72
839.489	-39.09
839.66	-45.86
839.831	-5.34
840.002	6.24
840.173	41.47
840.344	95.32
840.515	136.97
840.686	77.64
840.857	35.33
841.028	35.63
841.199	7.18
841.369	-18.23
841.54	-6.69
841.711	21.43
841.882	44.45
842.053	29.98
842.223	16.52
842.394	22.91
842.565	29.76
842.736	19.88
842.906	26.91
843.077	47.99
843.248	73.43
843.418	72.85
843.589	68.79
843.759	171.9
843.93	132.69
844.101	54.96
844.271	57.66
844.442	57.7
844.612	51.18
844.783	26.1
844.953	10.63
845.123	11.55
845.294	27.48
845.464	-139.7
845.635	67.28
845.805	106.92
845.975	62.9
846.146	-2.1
846.316	10.21
846.486	21.67
846.656	43.16
846.827	35.97
846.997	55.07
847.167	110.99
847.337	57.54
847.507	36.05
847.677	53.25
847.848	93.77
848.018	67.07
848.188	71.12
848.358	56.33
848.528	41.86
848.698	2.96
848.868	-61.24
849.038	-139.92
849.208	-47.9
849.378	30.04
849.548	13.43
849.718	22.43
849.887	37.2
850.057	42.3
850.227	-16.24
850.397	-29.79
850.567	-73.67
850.737	-217.83
850.906	-862.5
851.076	-426.56
851.246	-139.79
851.415	42.32
851.585	12.11
851.755	-13.14
851.924	23.16
852.094	27.63
852.264	-55.09
852.433	-415.38
852.603	-14.85
852.772	-56.31
852.942	-36.54
853.111	-20.33
853.281	0.35
853.45	13.47
853.62	-14.14
853.789	-1.09
853.959	39.5
854.128	25.16
854.297	8.09
854.467	-21.82
854.636	-2.2
854.805	9.33
854.975	24.71
855.144	6.58
855.313	446.85
855.482	83.21
855.652	51.76
855.821	40.99
855.99	60.3
856.159	37.74
856.328	42.6
856.497	6.24
856.667	18.72
856.836	46.5
857.005	16.25
857.174	-4.13
857.343	3.07
857.512	68.84
857.681	-28.48
857.85	-26.5
858.019	6.13
858.188	-1.99
858.356	-63.6
858.525	-91.27
858.694	-90.62
858.863	-204.18
859.032	-105.88
859.201	-60.3
859.369	-8.42
859.538	47.23
859.707	24.92
859.876	-24.22
860.044	-8.35
860.213	47.56
860.382	24.89
860.55	53.9
860.719	87.68
860.888	80.53
861.056	29.02
861.225	22.55
861.393	48.26
861.562	82.5
861.73	18.75
861.899	14.14
862.067	-486.21
862.236	12.8
862.404	-208.36
862.572	-95.4
862.741	40.34
862.909	47.33
863.078	-25.17
863.246	10.25
863.414	39.7
863.582	-10.69
863.751	-27.79
863.919	-15.71
864.087	17.35
864.255	28.02
864.424	-88.45
864.592	29.06
864.76	33.41
864.928	172.8
865.096	-8.6
865.264	30.73
865.432	-122.73
865.6	298.5
865.768	14.08
865.936	11.67
866.104	73.5
866.272	165
866.44	-96.85
866.608	203.8
866.776	189.65
866.944	2246.51
867.112	-528.81
867.28	-208.7
867.448	-55.79
867.615	16.34
867.783	21.39
867.951	10.79
868.119	71.57
868.286	56.11
868.454	-26.73
868.622	-31.5
868.789	45.11
868.957	-878.57
869.125	-1878.95
869.292	-116.46
869.46	-225
869.627	-74.57
869.795	-75.47
869.963	-32.63
870.13	-4.07
870.298	36.23
870.465	11.63
870.632	20.81
870.8	17.69
870.967	31.53
871.135	-27.8
871.302	-48.54
871.469	-57.74
871.637	-30.96
871.804	-94.56
871.971	-117.39
872.139	-421.4
872.306	-63.16
872.473	-64.79
872.64	-351.5
872.807	-150
872.975	10.06
873.142	-140.73
873.309	1232.43
873.476	105.78
873.643	122.13
873.81	93.58
873.977	78.18
874.144	56.25
874.311	-101.65
874.478	-116.95
874.645	-179.58
874.812	-114.1
874.979	-53.09
875.146	-38.39
875.313	-62.13
875.48	56.19
875.647	19.19
875.813	-26.32
875.98	-15.02
876.147	-9.96
876.314	-91.65
876.481	922.31
876.647	-873.03
876.814	214.51
876.981	103.85
877.147	38.73
877.314	87.86
877.481	124.46
877.647	75.13
877.814	59.93
877.98	60.47
878.147	43.58
878.314	79.4
878.48	90.83
878.647	64.17
878.813	106.72
878.979	97.62
879.146	23.68
879.312	29.64
879.479	16.45
879.645	-54.89
879.811	-185.49
879.978	-499.24
880.144	-111.24
880.31	-23.4
880.477	-234.35
880.643	-249.3
880.809	-52.01
880.975	-42.28
881.142	-589.09
881.308	-21.09
881.474	19.84
881.64	48.93
881.806	6.26
881.972	24.42
882.138	48.92
882.304	52.74
882.47	-89.92
882.636	-383.61
882.802	-126.11
882.968	-44.25
883.134	-18.2
883.3	-16.52
883.466	10.79
883.632	42.05
883.798	21.76
883.964	1.93
884.129	14.68
884.295	59.02
884.461	-9.79
884.627	-41.84
884.793	-32.79
884.958	-2.7
885.124	-78.74
885.29	-131.56
885.455	21.84
885.621	79.21
885.787	22.37
885.952	45.76
886.118	49.69
886.283	8.92
886.449	-58.47
886.614	-19.29
886.78	-136.15
886.945	909.84
887.111	-410.98
887.276	-267.61
887.442	-744.55
887.607	-263.21
887.773	-196.82
887.938	-159.79
888.103	-180.19
888.269	-29.82
888.434	-16.22
888.599	32.7
888.764	39.84
888.93	26.85
889.095	-6.3
889.26	-50.23
889.425	-5.15
889.59	52.01
889.756	17.14
889.921	8.78
890.086	66.9
890.251	39.21
890.416	-69.34
890.581	-338.71
890.746	-112.5
890.911	-147.13
891.076	12.41
891.241	235.07
891.406	130.8
891.571	43.36
891.736	-57.8
891.901	-119.47
892.065	-32.97
892.23	55.18
892.395	116.83
892.56	178.61
892.725	124.22
892.889	-153.66
893.054	-53.94
893.219	37.1
893.384	66.35
893.548	6.46
893.713	8.7
893.878	30.84
