Data from Ofra_2a_PS_9GT47_Reflection_3.txt Node
Date: Tue Jul 20 10:01:28 EDT 2021
User: Adam
Spectrometer: FLMT01687
Trigger mode: 0
Integration Time (sec): 9.450000E-1
Scans to average: 3
Electric dark correction enabled: true
Nonlinearity correction enabled: false
Boxcar width: 3
XAxis mode: Wavelengths
Number of Pixels in Spectrum: 3648
>>>>>Begin Spectral Data<<<<<
179.494	1482.25
179.716	877.82
179.937	887.91
180.158	3351.56
180.38	-1845.35
180.601	-292.19
180.823	-61.64
181.044	-60.96
181.265	-146.41
181.486	-38.55
181.708	-2282.61
181.929	32.09
182.15	-211.36
182.372	45.49
182.593	-41.1
182.814	494.01
183.035	334.71
183.257	123.67
183.478	69.27
183.699	71.01
183.92	50.31
184.141	47.59
184.363	38.88
184.584	30.93
184.805	45.33
185.026	21.63
185.247	9.73
185.468	28.05
185.689	40.78
185.91	31.9
186.132	36.8
186.353	30.23
186.574	45.35
186.795	34.54
187.016	28.3
187.237	27.72
187.458	20.17
187.679	-4.13
187.9	9.1
188.121	-26.56
188.342	10.62
188.563	22.08
188.784	7.03
189.005	31
189.226	41.73
189.447	33.05
189.667	50.88
189.888	57.2
190.109	56.87
190.33	70.11
190.551	42.75
190.772	42.57
190.993	46.86
191.214	39.93
191.434	33.23
191.655	29.95
191.876	32.1
192.097	34.08
192.318	39.66
192.538	40.32
192.759	54.45
192.98	47.1
193.201	57.08
193.421	65.75
193.642	64.41
193.863	69.85
194.083	53.77
194.304	32.77
194.525	46.45
194.745	18.61
194.966	7.03
195.187	20.34
195.407	20.16
195.628	25.34
195.848	22.43
196.069	18.76
196.29	23.12
196.51	9.69
196.731	25.49
196.951	18.94
197.172	2.36
197.392	19.3
197.613	11.43
197.833	24.66
198.054	24.82
198.274	-5.49
198.495	3.78
198.715	3.78
198.936	-12.17
199.156	12.92
199.377	2.86
199.597	10.48
199.817	19.57
200.038	23.63
200.258	35.22
200.479	32.26
200.699	27.6
200.919	10.75
201.14	5.16
201.36	11.65
201.58	10.49
201.801	3.79
202.021	11.21
202.241	5.17
202.461	14.46
202.682	25.18
202.902	22.61
203.122	11.96
203.342	22.31
203.563	23.69
203.783	29.78
204.003	35.27
204.223	35.91
204.443	39.81
204.663	40.33
204.884	40.07
205.104	43.59
205.324	52.6
205.544	50.55
205.764	52.75
205.984	46.28
206.204	46.4
206.424	44.28
206.644	46.42
206.864	30.46
207.084	46.24
207.304	33.57
207.525	35.43
207.745	48.9
207.964	37.35
208.184	31.7
208.404	35.95
208.624	21.5
208.844	17.92
209.064	12.87
209.284	16.38
209.504	22.99
209.724	7.92
209.944	6.05
210.164	8.29
210.384	26.77
210.604	26.96
210.823	-1.68
211.043	-3.3
211.263	7.7
211.483	10.12
211.703	14.04
211.922	15.77
212.142	27.76
212.362	36.52
212.582	34.66
212.801	30.66
213.021	41.58
213.241	24.44
213.461	17.3
213.68	-1.85
213.9	3.18
214.12	-4.64
214.339	6.31
214.559	9.8
214.779	24.81
214.998	17.99
215.218	34.34
215.438	37.38
215.657	50.96
215.877	47.3
216.096	51.95
216.316	49.08
216.535	66.12
216.755	47.82
216.974	47.42
217.194	44.61
217.413	54.42
217.633	35.48
217.852	32.83
218.072	5.37
218.291	26.92
218.511	18.13
218.73	13.36
218.95	8.96
219.169	0.26
219.389	-5.05
219.608	18.73
219.827	8.94
220.047	16.65
220.266	22.73
220.485	29.84
220.705	32.36
220.924	39.07
221.143	31.25
221.363	33.38
221.582	31.24
221.801	44.31
222.021	35.19
222.24	30.91
222.459	25.52
222.678	21.83
222.897	13.54
223.117	10.96
223.336	9.14
223.555	3.73
223.774	28.69
223.993	39.69
224.213	37.41
224.432	54.75
224.651	56.86
224.87	45.11
225.089	48.74
225.308	37.97
225.527	37.04
225.746	37.02
225.965	15.52
226.184	9.93
226.404	11.75
226.623	10.48
226.842	21.63
227.061	31.52
227.28	51.08
227.499	59.35
227.718	57.89
227.936	48
228.155	47.45
228.374	42.85
228.593	33.23
228.812	23.27
229.031	19.21
229.25	38.12
229.469	47.6
229.688	49.48
229.907	45.93
230.125	40.74
230.344	37.32
230.563	41.38
230.782	18.31
231.001	18.47
231.22	16.02
231.438	22.13
231.657	27.52
231.876	29.46
232.095	27.03
232.313	37
232.532	27.98
232.751	29.12
232.969	34.82
233.188	34.13
233.407	34.3
233.625	17.38
233.844	25.74
234.063	26.39
234.281	19.12
234.5	19.81
234.719	15.44
234.937	26.22
235.156	37.87
235.374	30.14
235.593	29.98
235.811	32.54
236.03	11.43
236.249	18.4
236.467	13.97
236.686	7.72
236.904	14.99
237.123	21.23
237.341	24.38
237.559	28.03
237.778	34.61
237.996	26.6
238.215	26.11
238.433	26.37
238.652	21.49
238.87	26.07
239.088	23.32
239.307	22.87
239.525	18.9
239.743	16.3
239.962	16.03
240.18	25.49
240.398	27.4
240.617	23.69
240.835	25.89
241.053	45.35
241.271	50.76
241.49	43.56
241.708	36.48
241.926	22.59
242.144	35.32
242.363	25.63
242.581	16.2
242.799	8.92
243.017	18.21
243.235	20.85
243.453	28.82
243.672	32.6
243.89	35.15
244.108	41.68
244.326	41.73
244.544	39.45
244.762	30.93
244.98	23.59
245.198	11.82
245.416	12.49
245.634	5.88
245.852	17.61
246.07	13.42
246.288	9.3
246.506	26.9
246.724	42.9
246.942	48.98
247.16	41.6
247.378	29.4
247.596	40.97
247.814	39.48
248.032	36.75
248.25	20.38
248.468	16.48
248.685	26.17
248.903	22.58
249.121	22.7
249.339	25.52
249.557	16.57
249.775	6.81
249.992	-3.25
250.21	-18.01
250.428	-13.75
250.646	-10.8
250.863	-8.56
251.081	-5.34
251.299	23.18
251.517	43.05
251.734	50.63
251.952	56.75
252.17	51.38
252.387	39.71
252.605	35.45
252.823	14.47
253.04	6.37
253.258	-2.9
253.475	10.08
253.693	17.1
253.911	19.6
254.128	20.17
254.346	24.11
254.563	14.9
254.781	17.64
254.998	15.06
255.216	11.52
255.433	16.04
255.651	14.96
255.868	12.52
256.086	15.48
256.303	16
256.521	2.75
256.738	-1.03
256.956	-7.47
257.173	-3.12
257.39	3.73
257.608	10.25
257.825	9.87
258.043	16.76
258.26	8.92
258.477	8.43
258.695	9.08
258.912	22.77
259.129	10.45
259.346	13.1
259.564	-2.64
259.781	14.34
259.998	25.01
260.216	27.04
260.433	8.41
260.65	27.68
260.867	8.91
261.084	19.05
261.302	15.34
261.519	-0
261.736	-1.79
261.953	13.83
262.17	14.87
262.387	27.1
262.604	24.01
262.822	30.09
263.039	35.2
263.256	37.38
263.473	19
263.69	8.93
263.907	24.73
264.124	24.32
264.341	16.53
264.558	22.29
264.775	16.81
264.992	32.31
265.209	49.22
265.426	38.85
265.643	40.22
265.86	35.57
266.077	33.23
266.294	36.45
266.51	27.83
266.727	-3.28
266.944	-12.76
267.161	-22.35
267.378	-14.5
267.595	-22.47
267.812	-21.42
268.028	-8.33
268.245	15.54
268.462	18.57
268.679	17.21
268.896	6.74
269.112	21.12
269.329	23.88
269.546	17.68
269.763	19.66
269.979	20.94
270.196	27.33
270.413	33.48
270.629	26.73
270.846	19.75
271.063	18.15
271.279	5.18
271.496	-1.59
271.712	-1.26
271.929	3.74
272.146	10.2
272.362	3.12
272.579	15.62
272.795	16.95
273.012	22.81
273.228	22.38
273.445	13.99
273.661	1.43
273.878	10.35
274.094	1.36
274.311	10.84
274.527	12.92
274.744	7.63
274.96	20.24
275.177	24.35
275.393	21.22
275.609	22.97
275.826	24.38
276.042	21.8
276.259	22.16
276.475	14.32
276.691	16.21
276.908	18.31
277.124	22.12
277.34	17.76
277.557	18.95
277.773	15.52
277.989	15.15
278.205	3.26
278.422	10.22
278.638	24.22
278.854	28.65
279.07	24.02
279.286	36.76
279.503	37.5
279.719	57.81
279.935	50.09
280.151	51.66
280.367	50.33
280.583	48.03
280.799	42.97
281.016	41.68
281.232	27.24
281.448	27.62
281.664	11.71
281.88	14.98
282.096	21.88
282.312	18.28
282.528	10.25
282.744	23.41
282.96	27.85
283.176	32.8
283.392	29.21
283.608	30.87
283.824	36.37
284.04	42.82
284.256	38.59
284.471	40.04
284.687	37.3
284.903	38.89
285.119	23.77
285.335	20.78
285.551	24.16
285.767	22.14
285.982	23.21
286.198	18.89
286.414	33.53
286.63	44.69
286.846	36.96
287.061	35.33
287.277	37.81
287.493	33.66
287.709	28.71
287.924	23.54
288.14	24
288.356	42.31
288.571	38.8
288.787	39.25
289.003	37.5
289.218	34.42
289.434	20.36
289.65	20.81
289.865	15.78
290.081	24.87
290.296	17.77
290.512	24.05
290.727	35.35
290.943	35.24
291.159	30.74
291.374	31.69
291.59	14.44
291.805	21.09
292.021	8.38
292.236	-0.36
292.451	5.65
292.667	7.15
292.882	-2.65
293.098	3.8
293.313	0.35
293.529	8.34
293.744	9.26
293.959	13.99
294.175	18.78
294.39	37.93
294.605	38.73
294.821	43.19
295.036	44.11
295.251	50.02
295.467	48.24
295.682	35.71
295.897	21.41
296.112	28.48
296.328	31.59
296.543	29.9
296.758	34.28
296.973	32.71
297.188	40.48
297.404	43.38
297.619	38.91
297.834	43.77
298.049	39.29
298.264	33.85
298.479	19.77
298.694	26.58
298.909	25.89
299.125	21.58
299.34	12.37
299.555	21.43
299.77	14.78
299.985	18.11
300.2	11.56
300.415	13.6
300.63	14.7
300.845	16.45
301.06	6.12
301.275	19.72
301.49	23.64
301.704	18.24
301.919	13.94
302.134	7.4
302.349	3.54
302.564	3.9
302.779	-4.89
302.994	-5.78
303.209	2.34
303.423	11.26
303.638	26.95
303.853	33.97
304.068	44.59
304.283	33.34
304.497	31.69
304.712	32.78
304.927	30.45
305.142	27
305.356	29.85
305.571	23.51
305.786	34.01
306	39.53
306.215	45.59
306.43	53.62
306.644	48.45
306.859	42.46
307.074	40.68
307.288	34.53
307.503	37.25
307.717	27.83
307.932	19.54
308.147	19.08
308.361	18.93
308.576	19.13
308.79	21.98
309.005	18.91
309.219	23.02
309.434	24.57
309.648	28.04
309.863	35.88
310.077	38.56
310.292	36.66
310.506	42.74
310.72	33.87
310.935	28.33
311.149	26.31
311.364	26.76
311.578	27.07
311.792	24.94
312.007	14.16
312.221	24.44
312.435	25.11
312.649	31.98
312.864	20.33
313.078	36.54
313.292	45.97
313.507	54.75
313.721	52.07
313.935	70.94
314.149	58.94
314.363	59.57
314.578	73.24
314.792	63.25
315.006	62.25
315.22	61.99
315.434	43.7
315.648	38.1
315.862	42.45
316.077	25.99
316.291	41.98
316.505	34.9
316.719	18.78
316.933	31.98
317.147	25.33
317.361	21.83
317.575	20.28
317.789	5.75
318.003	17.22
318.217	28.29
318.431	30.06
318.645	38.15
318.859	34.59
319.073	21.08
319.287	26.59
319.5	27.43
319.714	30.99
319.928	34.69
320.142	33.46
320.356	42.18
320.57	53.27
320.784	48.04
320.997	46.92
321.211	45.73
321.425	29.72
321.639	27.53
321.853	19.52
322.066	15.2
322.28	18.75
322.494	11.61
322.707	7.43
322.921	11.02
323.135	23.08
323.349	23.35
323.562	27.91
323.776	25.89
323.989	26.38
324.203	35.04
324.417	24.04
324.63	6.25
324.844	1.58
325.057	-0.32
325.271	0.92
325.485	7.41
325.698	-1.05
325.912	19.69
326.125	33.7
326.339	36.45
326.552	39.95
326.766	40.49
326.979	37
327.193	37.82
327.406	31.67
327.619	13.88
327.833	14.6
328.046	6.99
328.26	-1.14
328.473	2.05
328.686	12.06
328.9	7.55
329.113	15.78
329.326	28.4
329.54	37.35
329.753	39.66
329.966	37.85
330.179	34.45
330.393	44.34
330.606	44.35
330.819	38.52
331.032	42.61
331.246	39.62
331.459	42.59
331.672	43.54
331.885	33.55
332.098	37.12
332.311	28.83
332.525	24.44
332.738	21.17
332.951	19.98
333.164	14.38
333.377	14.3
333.59	13.97
333.803	18.91
334.016	12.33
334.229	21.88
334.442	32.2
334.655	46.07
334.868	55.63
335.081	56.89
335.294	56.02
335.507	61.27
335.72	52.52
335.933	47.62
336.146	44.45
336.359	40.66
336.572	36.92
336.785	37.87
336.997	28.65
337.21	36.89
337.423	39.45
337.636	35.57
337.849	29.34
338.062	31.91
338.274	38.46
338.487	34.68
338.7	29.94
338.913	19.23
339.125	17.18
339.338	25.31
339.551	26.39
339.763	20.45
339.976	25.23
340.189	30.64
340.402	34.72
340.614	35.37
340.827	24.25
341.039	20.54
341.252	20.72
341.465	18.68
341.677	4.88
341.89	2.74
342.102	8.87
342.315	21.72
342.527	16.76
342.74	18.4
342.952	19.07
343.165	38.17
343.377	39.61
343.59	35.15
343.802	33.76
344.015	41.6
344.227	39.57
344.44	32.52
344.652	29.99
344.864	29.99
345.077	29.28
345.289	28.98
345.502	27.95
345.714	18.13
345.926	20.53
346.139	16.51
346.351	-5.13
346.563	-6.32
346.775	-18.99
346.988	-24.99
347.2	-12.8
347.412	-4.3
347.624	0.72
347.837	18.76
348.049	14.19
348.261	19.5
348.473	19.93
348.685	22.03
348.897	23.03
349.11	17.23
349.322	5.88
349.534	9.8
349.746	13.08
349.958	14.73
350.17	15.29
350.382	-0.25
350.594	7.72
350.806	23.58
351.018	27.85
351.23	29.99
351.442	31.35
351.654	39.75
351.866	46.54
352.078	41.55
352.29	40.67
352.502	35.69
352.714	34.84
352.926	40.2
353.138	26.45
353.35	22.14
353.561	16.08
353.773	13.75
353.985	21.42
354.197	13.04
354.409	14.16
354.621	15.04
354.832	12.21
355.044	26.93
355.256	21.38
355.468	12.64
355.679	14.99
355.891	11.73
356.103	18.1
356.314	22.18
356.526	10.42
356.738	9.97
356.949	14.99
357.161	20.27
357.373	23.45
357.584	24.71
357.796	26.8
358.008	33.85
358.219	41.63
358.431	42.2
358.642	39.65
358.854	39.94
359.065	37.15
359.277	33.36
359.488	23.56
359.7	21.38
359.911	17.44
360.123	23.6
360.334	17.05
360.546	10.72
360.757	16.96
360.969	23.51
361.18	22.55
361.391	21.12
361.603	17.62
361.814	21.6
362.025	20
362.237	18.73
362.448	16.93
362.659	4.74
362.871	9.34
363.082	12.17
363.293	14.73
363.504	16.05
363.716	17.18
363.927	21.08
364.138	29.1
364.349	31.76
364.56	25.02
364.772	28.54
364.983	26.77
365.194	32.51
365.405	30.24
365.616	29.8
365.827	20.98
366.038	34.68
366.25	28.58
366.461	38.18
366.672	35.82
366.883	34.95
367.094	30.7
367.305	33.59
367.516	23.95
367.727	26.24
367.938	26.47
368.149	21.43
368.36	25.73
368.571	27.44
368.781	22.34
368.992	19.97
369.203	15.26
369.414	12.07
369.625	11.19
369.836	7.49
370.047	5.27
370.258	8.71
370.468	15.6
370.679	14.08
370.89	21.59
371.101	16.95
371.312	12.05
371.522	25.34
371.733	20
371.944	11.51
372.155	3.02
372.365	1.41
372.576	3.96
372.787	5.26
372.997	-3.59
373.208	3.04
373.419	12.11
373.629	26.23
373.84	19.54
374.05	28.21
374.261	26.33
374.472	25.85
374.682	23.36
374.893	18.34
375.103	17.79
375.314	14.81
375.524	7.43
375.735	6.94
375.945	2.89
376.156	6.28
376.366	9.19
376.577	6.02
376.787	10.99
376.997	15.56
377.208	12.84
377.418	18.67
377.629	16.01
377.839	23.03
378.049	29.96
378.26	30.71
378.47	30.32
378.68	30.04
378.89	23.95
379.101	17.7
379.311	3.19
379.521	0.72
379.732	-9.35
379.942	-11.8
380.152	-8.1
380.362	-1.73
380.572	6.53
380.783	11.6
380.993	15.17
381.203	19.82
381.413	21.7
381.623	19.84
381.833	20.66
382.043	16.53
382.253	21.53
382.463	18.52
382.674	21.79
382.884	18.52
383.094	26.85
383.304	26.17
383.514	27.82
383.724	22.99
383.934	19.32
384.144	19.85
384.353	23.52
384.563	18.18
384.773	19.21
384.983	17.72
385.193	20.97
385.403	24.32
385.613	19.05
385.823	17.31
386.033	15.33
386.242	12.68
386.452	10.73
386.662	7.42
386.872	2.86
387.082	2.65
387.291	0.64
387.501	5.53
387.711	7.76
387.921	9.58
388.13	6.95
388.34	9.14
388.55	12.16
388.759	14.77
388.969	10.26
389.179	12.14
389.388	13.4
389.598	13.43
389.807	12.21
390.017	10.52
390.227	7.08
390.436	6.31
390.646	4.9
390.855	4.03
391.065	4.42
391.274	1.98
391.484	2.59
391.693	4.8
391.903	5.65
392.112	5.04
392.322	5.25
392.531	5.94
392.74	5.9
392.95	6.83
393.159	6.4
393.369	6.78
393.578	7.13
393.787	6.59
393.997	6.9
394.206	7.8
394.415	7.24
394.625	6.23
394.834	5.52
395.043	5.37
395.252	5.63
395.462	5.52
395.671	5.67
395.88	5.52
396.089	5.66
396.298	6.13
396.508	5.84
396.717	5.13
396.926	4.33
397.135	3.52
397.344	3.05
397.553	3.35
397.762	3.14
397.971	2.8
398.181	2.6
398.39	2.99
398.599	3.69
398.808	3.83
399.017	3.74
399.226	3.7
399.435	3.54
399.644	3.71
399.853	3.85
400.062	3.51
400.27	3.41
400.479	3.36
400.688	3.34
400.897	3.68
401.106	3.77
401.315	3.46
401.524	3.64
401.733	3.69
401.941	3.51
402.15	3.27
402.359	3.11
402.568	3.07
402.777	3.05
402.985	2.8
403.194	2.81
403.403	2.63
403.612	2.74
403.82	2.78
404.029	2.72
404.238	2.83
404.446	2.81
404.655	2.62
404.864	2.74
405.072	2.78
405.281	2.61
405.489	2.61
405.698	2.45
405.906	2.52
406.115	2.64
406.324	2.62
406.532	2.6
406.741	2.68
406.949	2.59
407.158	2.77
407.366	2.85
407.574	2.81
407.783	2.77
407.991	2.69
408.2	2.7
408.408	2.72
408.617	2.59
408.825	2.48
409.033	2.48
409.242	2.49
409.45	2.52
409.658	2.51
409.867	2.49
410.075	2.54
410.283	2.49
410.491	2.4
410.7	2.52
410.908	2.55
411.116	2.5
411.324	2.55
411.533	2.36
411.741	2.36
411.949	2.5
412.157	2.43
412.365	2.39
412.573	2.44
412.781	2.45
412.99	2.65
413.198	2.73
413.406	2.66
413.614	2.61
413.822	2.58
414.03	2.5
414.238	2.56
414.446	2.41
414.654	2.41
414.862	2.38
415.07	2.49
415.278	2.46
415.486	2.56
415.694	2.4
415.902	2.39
416.109	2.32
416.317	2.3
416.525	2.32
416.733	2.36
416.941	2.23
417.149	2.36
417.357	2.42
417.564	2.44
417.772	2.43
417.98	2.36
418.188	2.27
418.395	2.38
418.603	2.23
418.811	2.14
419.019	2.15
419.226	2.24
419.434	2.1
419.642	2.1
419.849	2.02
420.057	2.14
420.265	2.16
420.472	2.13
420.68	2
420.887	2.16
421.095	2.22
421.302	2.28
421.51	2.24
421.717	2.34
421.925	2.28
422.132	2.23
422.34	2.11
422.547	2.06
422.755	1.97
422.962	1.87
423.17	1.83
423.377	1.96
423.585	2.06
423.792	2.02
423.999	2.02
424.207	2
424.414	2.12
424.621	2.08
424.829	1.93
425.036	1.84
425.243	1.84
425.451	1.82
425.658	1.94
425.865	1.79
426.072	1.83
426.28	1.94
426.487	1.92
426.694	1.98
426.901	1.94
427.108	1.9
427.315	1.95
427.523	1.99
427.73	1.96
427.937	2.04
428.144	2.04
428.351	2.25
428.558	2.13
428.765	2.1
428.972	2.06
429.179	2.05
429.386	2.05
429.593	2.01
429.8	1.92
430.007	2.03
430.214	2.07
430.421	2.05
430.628	1.95
430.835	1.96
431.042	1.97
431.249	1.95
431.456	1.96
431.662	2
431.869	2.09
432.076	2.18
432.283	2.12
432.49	2.12
432.697	2.07
432.903	2.04
433.11	2.03
433.317	2.01
433.524	1.93
433.73	2.01
433.937	2
434.144	2.15
434.35	2.11
434.557	2.02
434.764	2
434.97	2.14
435.177	2.1
435.384	2.19
435.59	2.13
435.797	2.15
436.003	2.16
436.21	2.13
436.416	2.06
436.623	2.11
436.829	2.06
437.036	2.03
437.242	2.1
437.449	2.15
437.655	2.16
437.862	2.16
438.068	2.22
438.275	2.19
438.481	2.28
438.687	2.31
438.894	2.35
439.1	2.41
439.307	2.37
439.513	2.29
439.719	2.33
439.926	2.3
440.132	2.25
440.338	2.22
440.544	2.14
440.751	2.21
440.957	2.17
441.163	2.23
441.369	2.21
441.575	2.23
441.782	2.19
441.988	2.21
442.194	2.25
442.4	2.31
442.606	2.28
442.812	2.28
443.018	2.25
443.224	2.3
443.431	2.36
443.637	2.28
443.843	2.3
444.049	2.29
444.255	2.2
444.461	2.25
444.667	2.22
444.873	2.2
445.079	2.25
445.284	2.21
445.49	2.15
445.696	2.28
445.902	2.31
446.108	2.32
446.314	2.37
446.52	2.41
446.726	2.43
446.931	2.51
447.137	2.52
447.343	2.52
447.549	2.45
447.755	2.4
447.96	2.35
448.166	2.42
448.372	2.45
448.578	2.39
448.783	2.33
448.989	2.42
449.195	2.44
449.4	2.46
449.606	2.41
449.812	2.41
450.017	2.41
450.223	2.46
450.428	2.46
450.634	2.51
450.84	2.52
451.045	2.52
451.251	2.52
451.456	2.48
451.662	2.43
451.867	2.42
452.073	2.35
452.278	2.34
452.483	2.32
452.689	2.28
452.894	2.31
453.1	2.3
453.305	2.29
453.51	2.36
453.716	2.38
453.921	2.37
454.127	2.4
454.332	2.43
454.537	2.57
454.742	2.58
454.948	2.55
455.153	2.56
455.358	2.68
455.563	2.69
455.769	2.72
455.974	2.58
456.179	2.56
456.384	2.58
456.589	2.56
456.795	2.43
457	2.44
457.205	2.4
457.41	2.46
457.615	2.52
457.82	2.55
458.025	2.56
458.23	2.61
458.435	2.53
458.64	2.59
458.845	2.58
459.05	2.51
459.255	2.48
459.46	2.47
459.665	2.52
459.87	2.56
460.075	2.51
460.28	2.53
460.485	2.61
460.69	2.56
460.895	2.57
461.099	2.55
461.304	2.55
461.509	2.51
461.714	2.52
461.919	2.44
462.123	2.54
462.328	2.51
462.533	2.5
462.738	2.5
462.942	2.59
463.147	2.61
463.352	2.66
463.556	2.66
463.761	2.7
463.966	2.73
464.17	2.77
464.375	2.7
464.58	2.68
464.784	2.65
464.989	2.59
465.193	2.61
465.398	2.62
465.602	2.62
465.807	2.65
466.011	2.67
466.216	2.71
466.42	2.77
466.625	2.78
466.829	2.79
467.034	2.86
467.238	2.88
467.443	2.9
467.647	2.93
467.851	2.89
468.056	2.87
468.26	2.85
468.464	2.78
468.669	2.8
468.873	2.8
469.077	2.76
469.282	2.83
469.486	2.9
469.69	2.91
469.894	3
470.099	3.02
470.303	3.02
470.507	3.05
470.711	3.02
470.915	3.04
471.119	3.08
471.324	3.01
471.528	3.09
471.732	3.09
471.936	3.14
472.14	3.17
472.344	3.16
472.548	3.15
472.752	3.19
472.956	3.17
473.16	3.16
473.364	3.13
473.568	3.15
473.772	3.15
473.976	3.16
474.18	3.13
474.384	3.1
474.588	3.13
474.792	3.15
474.995	3.09
475.199	3.09
475.403	3.08
475.607	3.13
475.811	3.14
476.015	3.22
476.218	3.19
476.422	3.27
476.626	3.25
476.83	3.28
477.033	3.28
477.237	3.29
477.441	3.25
477.644	3.33
477.848	3.29
478.052	3.34
478.255	3.29
478.459	3.34
478.663	3.35
478.866	3.33
479.07	3.31
479.273	3.33
479.477	3.36
479.681	3.43
479.884	3.33
480.088	3.35
480.291	3.39
480.495	3.42
480.698	3.42
480.901	3.39
481.105	3.37
481.308	3.43
481.512	3.45
481.715	3.48
481.919	3.49
482.122	3.51
482.325	3.54
482.529	3.58
482.732	3.6
482.935	3.62
483.138	3.61
483.342	3.61
483.545	3.62
483.748	3.63
483.952	3.62
484.155	3.67
484.358	3.64
484.561	3.67
484.764	3.69
484.967	3.69
485.171	3.69
485.374	3.67
485.577	3.66
485.78	3.64
485.983	3.64
486.186	3.63
486.389	3.64
486.592	3.66
486.795	3.64
486.998	3.64
487.201	3.66
487.404	3.68
487.607	3.7
487.81	3.72
488.013	3.73
488.216	3.76
488.419	3.74
488.622	3.73
488.825	3.68
489.028	3.62
489.231	3.58
489.433	3.54
489.636	3.48
489.839	3.49
490.042	3.49
490.245	3.49
490.447	3.47
490.65	3.51
490.853	3.52
491.056	3.55
491.258	3.56
491.461	3.56
491.664	3.55
491.866	3.62
492.069	3.61
492.272	3.6
492.474	3.63
492.677	3.61
492.879	3.66
493.082	3.72
493.285	3.7
493.487	3.7
493.69	3.71
493.892	3.74
494.095	3.72
494.297	3.74
494.5	3.75
494.702	3.75
494.905	3.75
495.107	3.77
495.309	3.72
495.512	3.79
495.714	3.76
495.917	3.76
496.119	3.81
496.321	3.84
496.524	3.86
496.726	3.91
496.928	3.91
497.13	3.98
497.333	3.95
497.535	3.91
497.737	3.94
497.939	3.93
498.142	3.91
498.344	3.94
498.546	3.96
498.748	3.99
498.95	3.99
499.152	3.98
499.355	3.97
499.557	4.05
499.759	4.09
499.961	4.09
500.163	4.12
500.365	4.14
500.567	4.13
500.769	4.18
500.971	4.14
501.173	4.1
501.375	4.1
501.577	4.1
501.779	4.13
501.981	4.16
502.183	4.12
502.385	4.14
502.587	4.16
502.788	4.14
502.99	4.15
503.192	4.19
503.394	4.23
503.596	4.31
503.798	4.37
503.999	4.41
504.201	4.49
504.403	4.51
504.605	4.52
504.806	4.5
505.008	4.5
505.21	4.52
505.411	4.53
505.613	4.51
505.815	4.54
506.016	4.55
506.218	4.57
506.42	4.6
506.621	4.62
506.823	4.68
507.024	4.69
507.226	4.69
507.427	4.68
507.629	4.71
507.83	4.69
508.032	4.69
508.233	4.66
508.435	4.7
508.636	4.7
508.838	4.78
509.039	4.8
509.24	4.86
509.442	4.85
509.643	4.85
509.845	4.86
510.046	4.89
510.247	4.93
510.448	4.97
510.65	5.02
510.851	5.08
511.052	5.13
511.254	5.13
511.455	5.15
511.656	5.12
511.857	5.08
512.058	5.1
512.26	5.08
512.461	5.09
512.662	5.11
512.863	5.1
513.064	5.12
513.265	5.17
513.466	5.15
513.667	5.18
513.868	5.18
514.069	5.21
514.27	5.22
514.471	5.25
514.672	5.29
514.873	5.31
515.074	5.31
515.275	5.32
515.476	5.34
515.677	5.38
515.878	5.43
516.079	5.42
516.28	5.43
516.481	5.45
516.682	5.51
516.882	5.51
517.083	5.54
517.284	5.5
517.485	5.51
517.686	5.52
517.886	5.54
518.087	5.53
518.288	5.54
518.488	5.56
518.689	5.56
518.89	5.62
519.091	5.64
519.291	5.66
519.492	5.68
519.692	5.7
519.893	5.69
520.094	5.69
520.294	5.66
520.495	5.69
520.695	5.69
520.896	5.71
521.096	5.73
521.297	5.74
521.497	5.77
521.698	5.78
521.898	5.8
522.099	5.82
522.299	5.83
522.499	5.83
522.7	5.84
522.9	5.85
523.101	5.86
523.301	5.84
523.501	5.88
523.702	5.87
523.902	5.9
524.102	5.92
524.302	5.94
524.503	5.94
524.703	5.99
524.903	6.01
525.103	6.03
525.304	6.01
525.504	6.03
525.704	6.03
525.904	6.05
526.104	6.07
526.304	6.05
526.504	6.04
526.705	6.11
526.905	6.12
527.105	6.17
527.305	6.16
527.505	6.15
527.705	6.16
527.905	6.17
528.105	6.14
528.305	6.15
528.505	6.17
528.705	6.21
528.905	6.25
529.105	6.29
529.304	6.36
529.504	6.37
529.704	6.38
529.904	6.41
530.104	6.39
530.304	6.39
530.503	6.37
530.703	6.38
530.903	6.4
531.103	6.43
531.303	6.46
531.502	6.47
531.702	6.47
531.902	6.49
532.101	6.48
532.301	6.48
532.501	6.48
532.7	6.45
532.9	6.49
533.1	6.51
533.299	6.53
533.499	6.55
533.698	6.61
533.898	6.64
534.097	6.69
534.297	6.7
534.496	6.71
534.696	6.75
534.895	6.81
535.095	6.83
535.294	6.82
535.494	6.84
535.693	6.88
535.892	6.9
536.092	6.9
536.291	6.91
536.491	6.94
536.69	6.98
536.889	6.99
537.088	7
537.288	7.06
537.487	7.08
537.686	7.13
537.886	7.11
538.085	7.16
538.284	7.17
538.483	7.21
538.682	7.22
538.882	7.26
539.081	7.3
539.28	7.34
539.479	7.37
539.678	7.44
539.877	7.46
540.076	7.48
540.275	7.49
540.474	7.48
540.673	7.52
540.872	7.54
541.071	7.56
541.27	7.59
541.469	7.66
541.668	7.72
541.867	7.8
542.066	7.83
542.265	7.87
542.464	7.94
542.663	8.02
542.862	8.06
543.06	8.11
543.259	8.11
543.458	8.18
543.657	8.24
543.856	8.27
544.054	8.31
544.253	8.32
544.452	8.28
544.651	8.32
544.849	8.34
545.048	8.33
545.247	8.34
545.445	8.36
545.644	8.41
545.843	8.54
546.041	8.58
546.24	8.63
546.438	8.72
546.637	8.81
546.836	8.88
547.034	8.92
547.233	8.94
547.431	8.99
547.63	9.06
547.828	9.11
548.027	9.11
548.225	9.19
548.423	9.24
548.622	9.29
548.82	9.37
549.019	9.41
549.217	9.45
549.415	9.55
549.614	9.55
549.812	9.6
550.01	9.69
550.209	9.76
550.407	9.85
550.605	9.95
550.803	10.01
551.002	10.08
551.2	10.2
551.398	10.24
551.596	10.34
551.794	10.4
551.993	10.43
552.191	10.52
552.389	10.59
552.587	10.64
552.785	10.73
552.983	10.79
553.181	10.8
553.379	10.9
553.577	10.95
553.775	11.05
553.973	11.13
554.171	11.23
554.369	11.32
554.567	11.42
554.765	11.45
554.963	11.48
555.161	11.56
555.359	11.6
555.557	11.7
555.755	11.75
555.952	11.87
556.15	12.03
556.348	12.17
556.546	12.26
556.744	12.39
556.941	12.49
557.139	12.61
557.337	12.69
557.535	12.76
557.732	12.86
557.93	12.96
558.128	13.04
558.325	13.07
558.523	13.12
558.721	13.22
558.918	13.29
559.116	13.37
559.313	13.49
559.511	13.59
559.708	13.68
559.906	13.74
560.104	13.86
560.301	13.94
560.498	14.06
560.696	14.11
560.893	14.23
561.091	14.38
561.288	14.5
561.486	14.57
561.683	14.72
561.88	14.83
562.078	14.92
562.275	15.04
562.473	15.1
562.67	15.23
562.867	15.33
563.064	15.39
563.262	15.48
563.459	15.61
563.656	15.7
563.853	15.77
564.051	15.86
564.248	15.96
564.445	16.06
564.642	16.12
564.839	16.24
565.036	16.31
565.234	16.44
565.431	16.54
565.628	16.66
565.825	16.82
566.022	16.92
566.219	16.97
566.416	17.05
566.613	17.16
566.81	17.2
567.007	17.25
567.204	17.22
567.401	17.3
567.598	17.37
567.795	17.41
567.991	17.45
568.188	17.49
568.385	17.53
568.582	17.65
568.779	17.7
568.976	17.75
569.172	17.8
569.369	17.85
569.566	17.89
569.763	17.98
569.96	17.98
570.156	17.98
570.353	18.04
570.55	18.12
570.746	18.13
570.943	18.23
571.14	18.24
571.336	18.31
571.533	18.41
571.729	18.45
571.926	18.47
572.123	18.54
572.319	18.55
572.516	18.6
572.712	18.62
572.909	18.67
573.105	18.73
573.302	18.74
573.498	18.76
573.695	18.8
573.891	18.79
574.087	18.81
574.284	18.76
574.48	18.71
574.677	18.75
574.873	18.83
575.069	18.85
575.266	18.87
575.462	18.87
575.658	18.95
575.854	18.95
576.051	18.94
576.247	18.87
576.443	18.85
576.639	18.88
576.835	18.88
577.032	18.83
577.228	18.86
577.424	18.84
577.62	18.83
577.816	18.86
578.012	18.86
578.208	18.85
578.404	18.88
578.6	18.9
578.796	18.92
578.993	18.94
579.189	18.88
579.384	18.82
579.58	18.83
579.776	18.78
579.972	18.75
580.168	18.72
580.364	18.67
580.56	18.69
580.756	18.67
580.952	18.64
581.148	18.63
581.343	18.61
581.539	18.56
581.735	18.54
581.931	18.52
582.127	18.51
582.322	18.49
582.518	18.43
582.714	18.38
582.909	18.39
583.105	18.37
583.301	18.33
583.496	18.29
583.692	18.22
583.888	18.21
584.083	18.27
584.279	18.25
584.474	18.25
584.67	18.29
584.866	18.31
585.061	18.36
585.257	18.37
585.452	18.29
585.648	18.25
585.843	18.25
586.039	18.18
586.234	18.16
586.429	18.16
586.625	18.16
586.82	18.17
587.015	18.12
587.211	18.13
587.406	18.17
587.601	18.12
587.797	18.02
587.992	17.99
588.187	17.99
588.383	18.05
588.578	18.01
588.773	17.99
588.968	18.05
589.163	18.12
589.359	18.13
589.554	18.15
589.749	18.19
589.944	18.22
590.139	18.24
590.334	18.23
590.529	18.3
590.724	18.3
590.919	18.33
591.114	18.32
591.309	18.34
591.504	18.33
591.699	18.33
591.894	18.33
592.089	18.4
592.284	18.38
592.479	18.36
592.674	18.4
592.869	18.49
593.064	18.65
593.259	18.69
593.454	18.67
593.648	18.76
593.843	18.85
594.038	18.87
594.233	18.94
594.428	18.92
594.622	18.92
594.817	19
595.012	19.06
595.206	19.15
595.401	19.19
595.596	19.26
595.79	19.34
595.985	19.43
596.18	19.53
596.374	19.54
596.569	19.6
596.763	19.77
596.958	19.78
597.153	19.83
597.347	19.94
597.542	20.02
597.736	20.13
597.931	20.22
598.125	20.19
598.319	20.25
598.514	20.31
598.708	20.35
598.903	20.37
599.097	20.41
599.291	20.44
599.486	20.48
599.68	20.55
599.874	20.61
600.069	20.64
600.263	20.64
600.457	20.68
600.651	20.73
600.846	20.77
601.04	20.75
601.234	20.81
601.428	20.83
601.622	20.84
601.817	20.91
602.011	20.93
602.205	20.97
602.399	21.1
602.593	21.05
602.787	21.08
602.981	21.13
603.175	21.02
603.369	20.99
603.563	21.01
603.757	20.91
603.951	20.94
604.145	20.9
604.339	20.86
604.533	20.97
604.727	20.98
604.921	20.93
605.115	20.92
605.309	20.87
605.502	20.89
605.696	20.86
605.89	20.8
606.084	20.69
606.278	20.64
606.471	20.6
606.665	20.54
606.859	20.47
607.053	20.45
607.246	20.39
607.44	20.33
607.634	20.25
607.827	20.18
608.021	20.12
608.214	20.03
608.408	19.91
608.602	19.87
608.795	19.85
608.989	19.82
609.182	19.85
609.376	19.78
609.569	19.74
609.763	19.76
609.956	19.67
610.15	19.61
610.343	19.53
610.537	19.4
610.73	19.34
610.923	19.28
611.117	19.15
611.31	19.06
611.504	19.04
611.697	19
611.89	18.94
612.083	18.86
612.277	18.74
612.47	18.67
612.663	18.64
612.856	18.48
613.05	18.4
613.243	18.28
613.436	18.19
613.629	18.17
613.822	18.09
614.015	17.94
614.209	17.96
614.402	17.9
614.595	17.85
614.788	17.79
614.981	17.65
615.174	17.62
615.367	17.59
615.56	17.41
615.753	17.33
615.946	17.3
616.139	17.32
616.332	17.33
616.525	17.27
616.718	17.24
616.911	17.29
617.103	17.22
617.296	17.12
617.489	17.05
617.682	16.97
617.875	16.91
618.067	16.8
618.26	16.69
618.453	16.64
618.646	16.6
618.838	16.47
619.031	16.44
619.224	16.42
619.417	16.47
619.609	16.44
619.802	16.42
619.994	16.38
620.187	16.38
620.38	16.34
620.572	16.31
620.765	16.21
620.957	16.15
621.15	16.09
621.342	16.08
621.535	16.04
621.727	16.02
621.92	15.96
622.112	15.97
622.305	15.96
622.497	15.95
622.69	15.93
622.882	15.92
623.074	15.89
623.267	15.84
623.459	15.79
623.651	15.8
623.844	15.78
624.036	15.77
624.228	15.77
624.42	15.75
624.613	15.77
624.805	15.8
624.997	15.75
625.189	15.73
625.381	15.68
625.574	15.63
625.766	15.58
625.958	15.54
626.15	15.55
626.342	15.54
626.534	15.5
626.726	15.53
626.918	15.47
627.11	15.43
627.302	15.37
627.494	15.32
627.686	15.3
627.878	15.25
628.07	15.2
628.262	15.15
628.454	15.12
628.646	15.14
628.838	15.05
629.029	14.97
629.221	14.95
629.413	14.88
629.605	14.86
629.797	14.87
629.989	14.82
630.18	14.79
630.372	14.8
630.564	14.81
630.755	14.79
630.947	14.75
631.139	14.68
631.33	14.68
631.522	14.64
631.714	14.58
631.905	14.5
632.097	14.46
632.289	14.46
632.48	14.4
632.672	14.31
632.863	14.33
633.055	14.32
633.246	14.32
633.438	14.28
633.629	14.28
633.821	14.3
634.012	14.3
634.203	14.29
634.395	14.3
634.586	14.22
634.777	14.2
634.969	14.16
635.16	14.13
635.351	14.12
635.543	14.08
635.734	14.04
635.925	14.1
636.117	14.13
636.308	14.1
636.499	14.06
636.69	14.1
636.881	14.09
637.073	14.05
637.264	13.97
637.455	13.94
637.646	13.96
637.837	13.97
638.028	13.93
638.219	13.88
638.41	13.86
638.601	13.85
638.792	13.77
638.983	13.66
639.174	13.67
639.365	13.57
639.556	13.54
639.747	13.59
639.938	13.59
640.129	13.62
640.32	13.63
640.511	13.61
640.701	13.66
640.892	13.63
641.083	13.55
641.274	13.5
641.465	13.46
641.655	13.42
641.846	13.37
642.037	13.31
642.228	13.3
642.418	13.27
642.609	13.26
642.8	13.27
642.99	13.33
643.181	13.3
643.372	13.32
643.562	13.28
643.753	13.24
643.943	13.2
644.134	13.15
644.324	13.12
644.515	13.11
644.705	13.06
644.896	12.98
645.086	12.96
645.277	12.98
645.467	12.99
645.658	12.96
645.848	12.92
646.038	12.93
646.229	12.97
646.419	13.02
646.61	12.96
646.8	12.91
646.99	12.85
647.18	12.81
647.371	12.73
647.561	12.69
647.751	12.63
647.941	12.64
648.132	12.67
648.322	12.68
648.512	12.72
648.702	12.72
648.892	12.76
649.082	12.68
649.272	12.61
649.462	12.58
649.653	12.57
649.843	12.5
650.033	12.46
650.223	12.44
650.413	12.51
650.603	12.54
650.793	12.49
650.983	12.47
651.172	12.45
651.362	12.44
651.552	12.35
651.742	12.26
651.932	12.28
652.122	12.26
652.312	12.14
652.502	12.13
652.691	12.13
652.881	12.11
653.071	12.04
653.261	11.89
653.45	11.75
653.64	11.77
653.83	11.65
654.019	11.47
654.209	11.36
654.399	11.31
654.588	11.23
654.778	11.18
654.968	11.04
655.157	10.94
655.347	10.87
655.536	10.7
655.726	10.61
655.915	10.47
656.105	10.38
656.294	10.24
656.484	10.16
656.673	10.1
656.863	10.05
657.052	9.88
657.241	9.75
657.431	9.6
657.62	9.41
657.809	9.22
657.999	9.05
658.188	8.9
658.377	8.84
658.567	8.74
658.756	8.57
658.945	8.51
659.134	8.42
659.324	8.29
659.513	8.12
659.702	7.92
659.891	7.77
660.08	7.71
660.269	7.62
660.458	7.42
660.648	7.29
660.837	7.25
661.026	7.18
661.215	7.11
661.404	6.97
661.593	6.87
661.782	6.76
661.971	6.65
662.16	6.53
662.349	6.39
662.538	6.27
662.726	6.18
662.915	6.09
663.104	5.98
663.293	5.91
663.482	5.8
663.671	5.73
663.86	5.6
664.048	5.53
664.237	5.42
664.426	5.41
664.615	5.32
664.803	5.24
664.992	5.24
665.181	5.16
665.369	5.09
665.558	5.04
665.747	5.04
665.935	5.04
666.124	5.03
666.312	4.9
666.501	4.89
666.69	4.9
666.878	4.89
667.067	4.84
667.255	4.84
667.444	4.8
667.632	4.82
667.82	4.8
668.009	4.81
668.197	4.8
668.386	4.77
668.574	4.71
668.762	4.69
668.951	4.65
669.139	4.7
669.327	4.66
669.516	4.69
669.704	4.69
669.892	4.66
670.08	4.68
670.269	4.7
670.457	4.63
670.645	4.64
670.833	4.64
671.021	4.6
671.21	4.73
671.398	4.71
671.586	4.77
671.774	4.81
671.962	4.78
672.15	4.75
672.338	4.83
672.526	4.77
672.714	4.8
672.902	4.78
673.09	4.86
673.278	4.94
673.466	5.05
673.654	5.07
673.842	5.11
674.03	5.16
674.218	5.2
674.405	5.26
674.593	5.28
674.781	5.26
674.969	5.3
675.157	5.38
675.344	5.39
675.532	5.5
675.72	5.5
675.908	5.56
676.095	5.68
676.283	5.7
676.471	5.75
676.658	5.85
676.846	5.87
677.033	5.94
677.221	6.03
677.409	6.05
677.596	6.15
677.784	6.2
677.971	6.23
678.159	6.31
678.346	6.32
678.534	6.32
678.721	6.32
678.909	6.34
679.096	6.38
679.283	6.43
679.471	6.54
679.658	6.65
679.846	6.79
680.033	6.98
680.22	7.07
680.408	7.13
680.595	7.23
680.782	7.2
680.969	7.22
681.157	7.22
681.344	7.32
681.531	7.41
681.718	7.53
681.905	7.61
682.093	7.82
682.28	8.04
682.467	8.16
682.654	8.18
682.841	8.3
683.028	8.44
683.215	8.6
683.402	8.66
683.589	8.71
683.776	8.88
683.963	9.05
684.15	9.24
684.337	9.33
684.524	9.48
684.711	9.61
684.898	9.77
685.085	9.97
685.271	10.23
685.458	10.44
685.645	10.72
685.832	11.02
686.019	11.32
686.205	11.59
686.392	11.84
686.579	12.04
686.766	12.37
686.952	12.71
687.139	12.94
687.326	13.25
687.512	13.57
687.699	13.89
687.886	14.13
688.072	14.53
688.259	14.78
688.445	15.08
688.632	15.45
688.818	15.82
689.005	16.27
689.191	16.8
689.378	17.07
689.564	17.53
689.751	18.13
689.937	18.58
690.124	19.03
690.31	19.39
690.496	19.89
690.683	20.48
690.869	20.96
691.055	21.47
691.242	21.91
691.428	22.56
691.614	23.15
691.8	23.67
691.987	24.18
692.173	24.88
692.359	25.45
692.545	26.13
692.731	26.69
692.918	27.36
693.104	27.97
693.29	28.55
693.476	29.02
693.662	29.57
693.848	30.14
694.034	30.59
694.22	31.21
694.406	31.8
694.592	32.45
694.778	33.19
694.964	33.87
695.15	34.53
695.336	35.36
695.522	36.04
695.708	36.63
695.894	37.26
696.08	37.76
696.265	38.28
696.451	38.96
696.637	39.43
696.823	39.95
697.009	40.71
697.194	41.37
697.38	41.95
697.566	42.58
697.751	43.02
697.937	43.75
698.123	44.31
698.308	44.68
698.494	45.26
698.68	45.9
698.865	46.41
699.051	46.92
699.236	47.29
699.422	47.86
699.607	48.47
699.793	48.87
699.978	49.19
700.164	49.65
700.349	50.06
700.535	50.64
700.72	51.04
700.906	51.42
701.091	51.79
701.276	52.46
701.462	52.91
701.647	53.46
701.832	53.97
702.018	54.3
702.203	54.72
702.388	55.13
702.573	55.6
702.759	56.13
702.944	56.52
703.129	56.84
703.314	57.43
703.499	57.85
703.684	58.48
703.87	58.81
704.055	59.12
704.24	59.57
704.425	60.12
704.61	60.46
704.795	60.82
704.98	61.05
705.165	61.34
705.35	61.74
705.535	62.14
705.72	62.32
705.905	62.43
706.09	62.74
706.275	62.82
706.459	63.4
706.644	63.79
706.829	64.09
707.014	64.38
707.199	64.83
707.384	65.03
707.568	65.61
707.753	65.67
707.938	65.84
708.123	65.9
708.307	66.38
708.492	66.37
708.677	66.66
708.861	66.72
709.046	66.68
709.231	67
709.415	67.25
709.6	67.02
709.784	67.75
709.969	68.06
710.153	68.38
710.338	68.78
710.522	68.75
710.707	68.67
710.891	69.13
711.076	68.96
711.26	69.23
711.445	69.32
711.629	69.55
711.813	69.79
711.998	70.08
712.182	70.26
712.366	70.55
712.551	70.51
712.735	70.48
712.919	70.66
713.103	70.83
713.288	71.25
713.472	71.26
713.656	71.09
713.84	71.37
714.024	71.73
714.208	71.8
714.393	71.92
714.577	71.93
714.761	72.21
714.945	72.61
715.129	72.69
715.313	72.9
715.497	72.97
715.681	73.3
715.865	73.33
716.049	73.12
716.233	73.27
716.417	73.5
716.601	73.51
716.785	73.62
716.968	73.57
717.152	73.77
717.336	74.04
717.52	74.28
717.704	74.31
717.888	74.47
718.071	74.88
718.255	74.96
718.439	75.21
718.622	75.58
718.806	75.32
718.99	75.41
719.174	75.33
719.357	75.32
719.541	75.52
719.724	75.48
719.908	75.48
720.092	75.79
720.275	75.84
720.459	76.05
720.642	75.94
720.826	76.03
721.009	76.03
721.193	76.04
721.376	75.97
721.559	76.21
721.743	76.37
721.926	76.36
722.11	76.41
722.293	76.26
722.476	76.09
722.66	76.18
722.843	76.26
723.026	76.3
723.21	76.39
723.393	76.59
723.576	76.89
723.759	77.32
723.942	77.5
724.126	77.28
724.309	77.18
724.492	77.25
724.675	77.33
724.858	77.84
725.041	77.84
725.224	78.15
725.407	78.52
725.59	78.8
725.774	79.04
725.957	79.35
726.14	79.04
726.322	78.82
726.505	78.83
726.688	78.82
726.871	79.1
727.054	79.31
727.237	79.13
727.42	79.37
727.603	79.69
727.786	79.99
727.968	80.1
728.151	80.34
728.334	80.65
728.517	80.83
728.699	80.96
728.882	81.49
729.065	81.1
729.248	81.08
729.43	80.73
729.613	80.6
729.796	80.41
729.978	80.43
730.161	80.25
730.343	80.6
730.526	80.91
730.708	81.32
730.891	81.25
731.073	81.36
731.256	81.4
731.438	81.6
731.621	81.8
731.803	81.87
731.986	81.84
732.168	81.98
732.35	82.22
732.533	82.2
732.715	82.01
732.898	82.1
733.08	82.07
733.262	81.75
733.444	81.59
733.627	81.66
733.809	81.89
733.991	81.94
734.173	81.41
734.355	81.81
734.538	82.14
734.72	82.89
734.902	82.54
735.084	82.7
735.266	82.97
735.448	83.43
735.63	82.95
735.812	83.03
735.994	82.54
736.176	83.11
736.358	83.46
736.54	83.3
736.722	82.99
736.904	83
737.086	82.94
737.268	83.41
737.45	83.11
737.632	82.14
737.814	82.53
737.995	82.99
738.177	83.36
738.359	83.48
738.541	82.97
738.723	83.27
738.904	83.6
739.086	83.39
739.268	83.78
739.449	83.79
739.631	84.04
739.813	84
739.994	84.18
740.176	84.74
740.358	84.85
740.539	84.43
740.721	84.71
740.902	84.13
741.084	84.73
741.265	84.47
741.447	83.63
741.628	83.33
741.81	83.78
741.991	83.88
742.172	84.46
742.354	84.63
742.535	84.63
742.717	85.03
742.898	85.46
743.079	85.21
743.261	85.24
743.442	85.34
743.623	84.77
743.804	85.11
743.986	85.47
744.167	85
744.348	84.97
744.529	84.29
744.71	84.22
744.891	84.35
745.073	84.16
745.254	84.12
745.435	84.05
745.616	84.14
745.797	84.1
745.978	84.38
746.159	83.82
746.34	83.62
746.521	83.63
746.702	83.66
746.883	83.09
747.064	83.1
747.245	83.81
747.426	84.74
747.606	85
747.787	85.12
747.968	85.82
748.149	85.7
748.33	86.82
748.51	84.9
748.691	84.81
748.872	84.55
749.053	83.98
749.233	83.48
749.414	83.83
749.595	82.53
749.775	83.49
749.956	82.63
750.137	82.64
750.317	82.66
750.498	83.03
750.678	82.95
750.859	83.24
751.04	82.6
751.22	82.13
751.4	82.24
751.581	82.66
751.761	82.69
751.942	83.29
752.122	83.48
752.303	83.82
752.483	85.61
752.663	86.14
752.844	85.17
753.024	85.15
753.204	84.78
753.385	84.3
753.565	84.08
753.745	83.36
753.925	82.63
754.106	83.27
754.286	82.48
754.466	82.59
754.646	82.88
754.826	82.99
755.006	82.35
755.187	82.92
755.367	83.77
755.547	84.1
755.727	83.79
755.907	84.49
756.087	84.87
756.267	84.88
756.447	84.52
756.627	83.77
756.807	84.05
756.987	84.94
757.167	84.57
757.346	83.71
757.526	83.84
757.706	83.68
757.886	83.75
758.066	83.81
758.246	83.17
758.425	83.37
758.605	84.11
758.785	84.58
758.965	83.43
759.144	83.6
759.324	83.48
759.504	83.56
759.683	82.56
759.863	82.56
760.043	82.28
760.222	83.37
760.402	83.7
760.581	83.22
760.761	82.17
760.94	82.04
761.12	81.36
761.299	80.61
761.479	80.77
761.658	79.9
761.838	80.41
762.017	81.22
762.197	82.27
762.376	83.06
762.555	83.32
762.735	81.95
762.914	82.07
763.093	82.11
763.273	81.89
763.452	80.77
763.631	79.37
763.81	80.79
763.99	81.69
764.169	81.58
764.348	81.46
764.527	81.34
764.706	82.36
764.885	82.98
765.064	81.88
765.243	81.49
765.423	82.07
765.602	81.02
765.781	80.93
765.96	80.23
766.139	80.37
766.318	80.41
766.497	81.17
766.676	81.31
766.854	81.15
767.033	81.39
767.212	80.9
767.391	81.03
767.57	80.92
767.749	80.87
767.928	79.07
768.106	79.78
768.285	80.29
768.464	80.76
768.643	81.39
768.821	81.22
769	81.36
769.179	81.72
769.357	81.26
769.536	80.05
769.715	79.97
769.893	78.89
770.072	78.24
770.25	77.57
770.429	78.21
770.607	79.12
770.786	79.18
770.964	78.71
771.143	78.95
771.321	79.36
771.5	79.15
771.678	79.24
771.857	78.46
772.035	78.15
772.213	78.24
772.392	78.62
772.57	79.19
772.748	79.82
772.927	79.26
773.105	80.2
773.283	80.15
773.461	80.28
773.64	79.03
773.818	78.36
773.996	78.23
774.174	78.58
774.352	77.52
774.531	77.02
774.709	76.84
774.887	76.57
775.065	76.93
775.243	77.72
775.421	78.06
775.599	76.71
775.777	78
775.955	78.24
776.133	77.99
776.311	76.99
776.489	76.18
776.667	75.79
776.844	76.81
777.022	77.03
777.2	76.21
777.378	77.17
777.556	78.47
777.734	78.5
777.911	79.24
778.089	79.05
778.267	78.11
778.445	77.95
778.622	78.22
778.8	77.11
778.978	76.88
779.155	75.08
779.333	74.44
779.511	73.65
779.688	72.17
779.866	71.78
780.043	73.65
780.221	72.36
780.398	73.27
780.576	73.26
780.753	72.67
780.931	76.15
781.108	77.2
781.286	74.92
781.463	75.94
781.64	76.84
781.818	78.04
781.995	80.74
782.172	80.14
782.35	77.23
782.527	78.38
782.704	77.94
782.882	76.55
783.059	75.29
783.236	74.86
783.413	74.6
783.59	75.6
783.768	76.04
783.945	77.66
784.122	78.34
784.299	79.64
784.476	80.14
784.653	78.47
784.83	78.12
785.007	77.17
785.184	76.4
785.361	76.08
785.538	74.5
785.715	71.46
785.892	71.39
786.069	71.89
786.246	72.02
786.423	71.7
786.6	72.16
786.776	72.77
786.953	73.79
787.13	75.2
787.307	76.63
787.484	75.39
787.66	73.91
787.837	73.99
788.014	75.44
788.191	76.52
788.367	75.41
788.544	75.21
788.721	76.23
788.897	77.65
789.074	76
789.25	75.12
789.427	73.72
789.603	74.67
789.78	74.49
789.956	72.79
790.133	73.79
790.309	73.75
790.486	76.62
790.662	78.13
790.839	78.39
791.015	78.69
791.192	80.11
791.368	80.08
791.544	81.37
791.721	77.95
791.897	76.96
792.073	75.37
792.249	76.94
792.426	75.36
792.602	72.28
792.778	72.38
792.954	72.39
793.13	72.72
793.307	72.91
793.483	71.08
793.659	74.15
793.835	73.79
794.011	72.43
794.187	69.76
794.363	68.56
794.539	66.95
794.715	65.27
794.891	60.63
795.067	62.51
795.243	62.66
795.419	66.91
795.595	66.12
795.771	67.1
795.947	65.78
796.122	70.43
796.298	69.14
796.474	69.53
796.65	69.28
796.826	71.58
797.001	72.07
797.177	74.03
797.353	73.56
797.529	72.95
797.704	72.73
797.88	71.39
798.056	72.4
798.231	73.35
798.407	71.93
798.582	70.4
798.758	73.49
798.934	72.71
799.109	69.96
799.285	68.5
799.46	68.9
799.636	71.65
799.811	74.02
799.986	72.7
800.162	73.78
800.337	77.27
800.513	76.58
800.688	79.38
800.863	79.97
801.039	74.69
801.214	73.66
801.389	73.02
801.565	76.63
801.74	77.63
801.915	74.93
802.09	71.47
802.265	75.3
802.441	77.22
802.616	79.11
802.791	76.36
802.966	75.83
803.141	71.71
803.316	77.04
803.491	75.63
803.666	75.62
803.841	74.28
804.016	73.11
804.191	75.64
804.366	79.39
804.541	74.86
804.716	69.4
804.891	74.8
805.066	77.95
805.241	75.36
805.416	71
805.591	71.29
805.765	71.54
805.94	78.68
806.115	68.71
806.29	65.15
806.464	64.51
806.639	65.07
806.814	60.26
806.989	59.42
807.163	57.34
807.338	61.42
807.512	57.8
807.687	60.9
807.862	62.68
808.036	65.36
808.211	67.55
808.385	64.97
808.56	69.93
808.734	74.47
808.909	72.25
809.083	70.49
809.258	74.35
809.432	72.35
809.606	76.77
809.781	70.5
809.955	71.13
810.13	75.43
810.304	75.54
810.478	73.97
810.652	80.81
810.827	79.64
811.001	81.52
811.175	78.62
811.349	74.56
811.524	72.35
811.698	74.97
811.872	70.32
812.046	67.68
812.22	62.98
812.394	64.93
812.568	67.05
812.742	66.56
812.916	62.49
813.09	63.68
813.264	63.55
813.438	68.47
813.612	64.24
813.786	68.42
813.96	73.04
814.134	77.06
814.308	74.42
814.482	75.76
814.656	78.67
814.83	81.82
815.003	81.36
815.177	82.23
815.351	82.56
815.525	80.68
815.698	76.38
815.872	75.29
816.046	72.16
816.219	70.8
816.393	64.93
816.567	58.44
816.74	61.14
816.914	64.64
817.088	61.64
817.261	60.49
817.435	59.85
817.608	62.47
817.782	66.66
817.955	63.51
818.129	68.58
818.302	69.34
818.475	72.27
818.649	64.12
818.822	63.9
818.996	68.48
819.169	70.68
819.342	70.72
819.516	69.73
819.689	69.19
819.862	74.4
820.035	74.48
820.209	68.13
820.382	66.72
820.555	65.22
820.728	61.3
820.901	60.23
821.075	61.83
821.248	60.41
821.421	56.14
821.594	56.98
821.767	59.57
821.94	56.25
822.113	60.16
822.286	60.7
822.459	71.45
822.632	74.67
822.805	73.22
822.978	68.97
823.151	74.36
823.324	61.29
823.496	52.71
823.669	45.63
823.842	48.21
824.015	47.59
824.188	41.63
824.361	36.72
824.533	51.05
824.706	58.71
824.879	63.77
825.051	68.48
825.224	67.99
825.397	70.18
825.569	75.22
825.742	71.39
825.915	66.78
826.087	57.45
826.26	56.89
826.432	60.47
826.605	57.08
826.777	56.74
826.95	53.55
827.122	62.27
827.295	67.4
827.467	54.16
827.64	45.93
827.812	45.27
827.984	54.57
828.157	57.11
828.329	53.63
828.501	52.85
828.674	62.41
828.846	70.41
829.018	70.87
829.19	60.4
829.363	67.06
829.535	66.51
829.707	67.91
829.879	71.69
830.051	69.28
830.223	61.23
830.395	57.29
830.568	58.91
830.74	61.28
830.912	63.14
831.084	54.63
831.256	53.52
831.428	59.34
831.6	64.32
831.772	53.62
831.943	51.02
832.115	54.22
832.287	50.05
832.459	48.58
832.631	48.9
832.803	52.32
832.975	56.74
833.146	46.76
833.318	45.9
833.49	60.07
833.662	58.06
833.833	68.98
834.005	73.83
834.177	66.91
834.348	68.94
834.52	71.92
834.692	74.54
834.863	75.71
835.035	66.05
835.206	62.1
835.378	65.46
835.549	66.39
835.721	52.4
835.892	51.66
836.064	63.93
836.235	62.72
836.407	57.42
836.578	62.34
836.749	66.3
836.921	70.46
837.092	71.38
837.264	57.06
837.435	48.08
837.606	61.41
837.777	56.03
837.949	49.97
838.12	51.51
838.291	53.9
838.462	61.35
838.633	67.58
838.805	57.2
838.976	60.03
839.147	64.47
839.318	60.17
839.489	53.4
839.66	50.52
839.831	43.06
840.002	38.04
840.173	39.1
840.344	38.79
840.515	45.24
840.686	50.45
840.857	41.93
841.028	56.18
841.199	64.16
841.369	53.93
841.54	60.54
841.711	55.49
841.882	40.52
842.053	40.76
842.223	44.31
842.394	39.4
842.565	55.12
842.736	47.62
842.906	64.7
843.077	78.79
843.248	83.69
843.418	78.97
843.589	90.07
843.759	81.27
843.93	84.94
844.101	81.54
844.271	83.45
844.442	86.83
844.612	79.02
844.783	46.79
844.953	54.73
845.123	61.18
845.294	68.37
845.464	65.65
845.635	54.37
845.805	59.64
845.975	67.45
846.146	54.62
846.316	45.49
846.486	35.15
846.656	44.73
846.827	47.33
846.997	52.17
847.167	52.9
847.337	68.92
847.507	68.27
847.677	81.02
847.848	89.98
848.018	87.74
848.188	82.72
848.358	104.54
848.528	88.91
848.698	58.53
848.868	37.42
849.038	19.24
849.208	27.56
849.378	14.67
849.548	19.64
849.718	14.96
849.887	32.75
850.057	37.84
850.227	20.85
850.397	15.19
850.567	39.32
850.737	27.75
850.906	38.32
851.076	36.34
851.246	47.2
851.415	67.94
851.585	71.94
851.755	67.94
851.924	83.31
852.094	72.64
852.264	72.98
852.433	67.62
852.603	76.45
852.772	69.29
852.942	51.85
853.111	45.46
853.281	57.07
853.45	58.34
853.62	63.45
853.789	40.01
853.959	48.3
854.128	48.68
854.297	44.31
854.467	36.06
854.636	36.68
854.805	32.46
854.975	58.15
855.144	65.6
855.313	74.03
855.482	77.31
855.652	70
855.821	78.43
855.99	88.74
856.159	70.26
856.328	49.43
856.497	53.47
856.667	54.61
856.836	55.5
857.005	46.15
857.174	53.28
857.343	50.22
857.512	35.68
857.681	33.27
857.85	32.32
858.019	47.92
858.188	45.37
858.356	3.21
858.525	24.74
858.694	52.94
858.863	48.32
859.032	29.16
859.201	9.18
859.369	33.99
859.538	32.91
859.707	35.21
859.876	35.06
860.044	25.96
860.213	25.3
860.382	35.14
860.55	31.6
860.719	63.71
860.888	61.35
861.056	53.86
861.225	57.77
861.393	95.76
861.562	58.31
861.73	56.9
861.899	22.89
862.067	28.33
862.236	39.38
862.404	34.04
862.572	19.95
862.741	45.25
862.909	40.73
863.078	45.26
863.246	52.47
863.414	51.36
863.582	53.1
863.751	43.39
863.919	50.73
864.087	55.4
864.255	63.87
864.424	56.58
864.592	52.67
864.76	71.78
864.928	69.11
865.096	50.65
865.264	50.78
865.432	40.96
865.6	20.76
865.768	10.47
865.936	-13.55
866.104	2.57
866.272	7.13
866.44	-22.36
866.608	-21.26
866.776	25.63
866.944	34.67
867.112	16.31
867.28	-14.06
867.448	25.02
867.615	53.73
867.783	39.83
867.951	53.11
868.119	54.27
868.286	66.22
868.454	48.08
868.622	15.18
868.789	33.6
868.957	51.32
869.125	37.23
869.292	38.54
869.46	34.94
869.627	36.47
869.795	49.87
869.963	24.64
870.13	42.69
870.298	47.34
870.465	43.28
870.632	44.51
870.8	44.13
870.967	40.11
871.135	50.36
871.302	46.45
871.469	48.26
871.637	55.24
871.804	61.9
871.971	58.9
872.139	81.69
872.306	76.04
872.473	60.65
872.64	73.69
872.807	92.62
872.975	95.62
873.142	119.25
873.309	84.66
873.476	124.06
873.643	174.64
873.81	144.46
873.977	72.85
874.144	76.54
874.311	33.07
874.478	14.44
874.645	-0.32
874.812	1.18
874.979	-26.39
875.146	-49.53
875.313	-68.29
875.48	15.37
875.647	-7.55
875.813	-9.56
875.98	-7.12
876.147	38.94
876.314	28.62
876.481	7.64
876.647	22.93
876.814	40.04
876.981	34.91
877.147	29.76
877.314	18.07
877.481	47.94
877.647	64.33
877.814	31.05
877.98	21.27
878.147	20.21
878.314	50.85
878.48	53.89
878.647	44.28
878.813	32.25
878.979	55.34
879.146	54.29
879.312	76.1
879.479	49.13
879.645	29.86
879.811	17.09
879.978	33.5
880.144	32.87
880.31	-8.63
880.477	-35.52
880.643	-12.06
880.809	94.57
880.975	-7.12
881.142	-31.08
881.308	-9.07
881.474	47.3
881.64	19.21
881.806	-11.3
881.972	-24.1
882.138	53.74
882.304	40.99
882.47	-8.37
882.636	-48.65
882.802	-37.9
882.968	-75.61
883.134	-205.21
883.3	-109.89
883.466	-18.6
883.632	-14.4
883.798	2.48
883.964	12.72
884.129	33.73
884.295	18.31
884.461	7.34
884.627	-19.45
884.793	17.2
884.958	35.27
885.124	-23.27
885.29	-1.65
885.455	17.83
885.621	13.68
885.787	13.61
885.952	-0
886.118	-7.12
886.283	25.82
886.449	-1.4
886.614	21.64
886.78	53
886.945	44.04
887.111	38.94
887.276	33.36
887.442	47.98
887.607	50.72
887.773	-2.13
887.938	-32.72
888.103	20.51
888.269	23.95
888.434	35.65
888.599	32.53
888.764	39.07
888.93	58.45
889.095	50.54
889.26	58.92
889.425	96.77
889.59	77.17
889.756	62.14
889.921	68.35
890.086	95.52
890.251	82.19
890.416	34.77
890.581	15.03
890.746	7.11
890.911	-10.8
891.076	-24.17
891.241	-75.4
891.406	-0.29
891.571	19.97
891.736	16.68
891.901	34.47
892.065	52.34
892.23	31.53
892.395	21.53
892.56	23.05
892.725	31.27
892.889	6.98
893.054	-21
893.219	-39.61
893.384	-32.4
893.548	-45
893.713	193.07
893.878	185.87
