Data from Ofra_2a_PS_OCX4_Reflection_3.txt Node
Date: Tue Jul 20 09:23:09 EDT 2021
User: Adam
Spectrometer: FLMT01687
Trigger mode: 0
Integration Time (sec): 9.450000E-1
Scans to average: 3
Electric dark correction enabled: true
Nonlinearity correction enabled: false
Boxcar width: 3
XAxis mode: Wavelengths
Number of Pixels in Spectrum: 3648
>>>>>Begin Spectral Data<<<<<
179.494	-150.3
179.716	-36.8
179.937	-7.69
180.158	-727.34
180.38	771.51
180.601	307.99
180.823	221.23
181.044	124.5
181.265	56.22
181.486	69.51
181.708	-741.3
181.929	-58.37
182.15	-1567.05
182.372	280.32
182.593	180.65
182.814	-21.26
183.035	111.78
183.257	79.08
183.478	39.52
183.699	63.28
183.92	51.78
184.141	58.93
184.363	45.86
184.584	35.53
184.805	44.77
185.026	64.12
185.247	49.42
185.468	34.87
185.689	28.34
185.91	41.15
186.132	39.06
186.353	15.92
186.574	12.65
186.795	6.57
187.016	26.2
187.237	29.06
187.458	16.95
187.679	2
187.9	18.04
188.121	23.12
188.342	46.1
188.563	42.54
188.784	35.19
189.005	40.91
189.226	47.24
189.447	49.16
189.667	53.97
189.888	49.92
190.109	44.16
190.33	48.1
190.551	45.26
190.772	50.16
190.993	56.45
191.214	48.62
191.434	41.85
191.655	48.94
191.876	51.47
192.097	50.28
192.318	44.79
192.538	34.25
192.759	50.72
192.98	44.65
193.201	47.97
193.421	44.04
193.642	43.13
193.863	36.17
194.083	31.04
194.304	10.66
194.525	33.67
194.745	13.51
194.966	22.44
195.187	34.08
195.407	35.13
195.628	34.24
195.848	30.09
196.069	18.78
196.29	14.19
196.51	8.86
196.731	10.33
196.951	18.51
197.172	16.73
197.392	23.3
197.613	32.46
197.833	40.43
198.054	34.04
198.274	20.1
198.495	5.4
198.715	18.77
198.936	21.7
199.156	16.92
199.377	27.27
199.597	20.48
199.817	32.25
200.038	32.71
200.258	33.99
200.479	33.66
200.699	34.92
200.919	24.39
201.14	28.77
201.36	28.3
201.58	33.51
201.801	8.05
202.021	7.52
202.241	7.04
202.461	9.53
202.682	13.5
202.902	14.6
203.122	9.57
203.342	30.6
203.563	34.03
203.783	31.99
204.003	36.88
204.223	38.58
204.443	32.89
204.663	30.34
204.884	19.62
205.104	12.25
205.324	17.55
205.544	11.07
205.764	10.81
205.984	24.46
206.204	44.62
206.424	44.11
206.644	49.37
206.864	49.32
207.084	67.27
207.304	66.77
207.525	60.73
207.745	66.08
207.964	86.73
208.184	85.57
208.404	76.24
208.624	46.81
208.844	25.84
209.064	33.29
209.284	23.67
209.504	6.66
209.724	-19.7
209.944	-27.54
210.164	-3.68
210.384	5.19
210.604	4.52
210.823	8.99
211.043	6.63
211.263	17
211.483	26.65
211.703	28.51
211.922	37.33
212.142	37.46
212.362	53.92
212.582	66.55
212.801	60.87
213.021	60
213.241	57.02
213.461	60.22
213.68	56.01
213.9	30.42
214.12	21.04
214.339	26.38
214.559	30.68
214.779	35.4
214.998	30.87
215.218	34.95
215.438	40.32
215.657	40.12
215.877	39.18
216.096	32.75
216.316	19.25
216.535	0.83
216.755	-17.31
216.974	-19.37
217.194	-25.12
217.413	-2.99
217.633	1.16
217.852	10.28
218.072	18.9
218.291	36.01
218.511	37.73
218.73	41.31
218.95	31.5
219.169	46.32
219.389	47.63
219.608	53.62
219.827	49.8
220.047	41.58
220.266	29.38
220.485	26.35
220.705	8.01
220.924	8.66
221.143	12.21
221.363	12.09
221.582	12.57
221.801	14.79
222.021	12.37
222.24	25.87
222.459	18.48
222.678	5.37
222.897	3.66
223.117	21.82
223.336	27.88
223.555	35.19
223.774	41.01
223.993	50.81
224.213	43.33
224.432	57.1
224.651	58.01
224.87	51.87
225.089	52.2
225.308	42.25
225.527	43.46
225.746	54
225.965	44.67
226.184	18.19
226.404	11.08
226.623	15.34
226.842	17.23
227.061	24.1
227.28	28.12
227.499	34.93
227.718	36.28
227.936	37.56
228.155	43.29
228.374	48.38
228.593	43.06
228.812	39.85
229.031	36.97
229.25	57.01
229.469	68.81
229.688	61.99
229.907	53.37
230.125	51.57
230.344	53.6
230.563	63.63
230.782	50.9
231.001	53.48
231.22	42.07
231.438	43.4
231.657	40.69
231.876	29.64
232.095	17.26
232.313	18.38
232.532	9.98
232.751	11.05
232.969	14.63
233.188	13.01
233.407	22.44
233.625	35.06
233.844	43.4
234.063	40.1
234.281	38.42
234.5	34.52
234.719	34.59
234.937	31.41
235.156	21.03
235.374	8.75
235.593	17.76
235.811	20.75
236.03	17.03
236.249	26.33
236.467	46.96
236.686	58.12
236.904	51.39
237.123	49.84
237.341	47.21
237.559	56.07
237.778	56.05
237.996	50.97
238.215	39.26
238.433	44.89
238.652	43.91
238.87	47.76
239.088	34.45
239.307	29.14
239.525	18.23
239.743	19.84
239.962	19.72
240.18	28.32
240.398	32.64
240.617	47.63
240.835	60.26
241.053	77.45
241.271	74.5
241.49	61
241.708	53.32
241.926	42.06
242.144	41.28
242.363	22.06
242.581	13.94
242.799	8.73
243.017	28.7
243.235	25.09
243.453	29.95
243.672	23.84
243.89	29.56
244.108	21.07
244.326	23.66
244.544	22.98
244.762	25.5
244.98	31.21
245.198	29.45
245.416	29.1
245.634	36.98
245.852	40.86
246.07	37.34
246.288	34.75
246.506	26.69
246.724	46.26
246.942	38.34
247.16	33.2
247.378	18.94
247.596	30.72
247.814	28.95
248.032	37.54
248.25	19.67
248.468	29.31
248.685	30.96
248.903	41.17
249.121	41.9
249.339	33.59
249.557	33.06
249.775	28.19
249.992	24.13
250.21	14.45
250.428	11.63
250.646	5.28
250.863	17.13
251.081	15.42
251.299	41.02
251.517	53.4
251.734	72.05
251.952	75.38
252.17	69.18
252.387	66.46
252.605	67
252.823	29.83
253.04	18.5
253.258	19.55
253.475	11.85
253.693	19.18
253.911	2.22
254.128	0.98
254.346	9.61
254.563	9.73
254.781	8.15
254.998	3.69
255.216	7.04
255.433	11.53
255.651	8.37
255.868	8.5
256.086	20.81
256.303	21.85
256.521	30.5
256.738	26.69
256.956	28.28
257.173	38.35
257.39	50.19
257.608	43.55
257.825	43.81
258.043	44.32
258.26	45.57
258.477	46.21
258.695	49.82
258.912	50.22
259.129	42.37
259.346	44.81
259.564	42.12
259.781	46.85
259.998	48.13
260.216	45.15
260.433	39.76
260.65	49.56
260.867	39.51
261.084	43.33
261.302	39.26
261.519	27.66
261.736	29.51
261.953	44.18
262.17	32.2
262.387	42.81
262.604	43.95
262.822	42.04
263.039	48
263.256	35.43
263.473	10.57
263.69	13.11
263.907	5.8
264.124	2.94
264.341	16.21
264.558	21.78
264.775	25.97
264.992	38.66
265.209	41.68
265.426	42.78
265.643	49.34
265.86	35.58
266.077	39.42
266.294	41.03
266.51	42.06
266.727	28.01
266.944	20.61
267.161	-0.52
267.378	0.75
267.595	-11.27
267.812	-20.5
268.028	-11.43
268.245	3.09
268.462	13.85
268.679	27.28
268.896	24.01
269.112	25.87
269.329	38.32
269.546	25.28
269.763	23.37
269.979	20.74
270.196	20.18
270.413	19.92
270.629	18.71
270.846	22.53
271.063	30.67
271.279	31.49
271.496	21.91
271.712	14.05
271.929	14.22
272.146	15.4
272.362	-10.58
272.579	-13.56
272.795	-25.26
273.012	-4.46
273.228	-1.92
273.445	1.65
273.661	15.38
273.878	30.71
274.094	33.73
274.311	40.56
274.527	31.71
274.744	35.93
274.96	31.65
275.177	23.44
275.393	21.05
275.609	20.94
275.826	22.22
276.042	24.71
276.259	27.27
276.475	24.56
276.691	23.44
276.908	19.18
277.124	14.16
277.34	8.93
277.557	9.72
277.773	7.74
277.989	8.5
278.205	3.53
278.422	13.22
278.638	21.11
278.854	25.53
279.07	17.18
279.286	16.25
279.503	21.13
279.719	30.5
279.935	25.3
280.151	33.57
280.367	33.89
280.583	36.05
280.799	35.97
281.016	42.66
281.232	40.61
281.448	34.87
281.664	24.35
281.88	23.08
282.096	34.5
282.312	35.39
282.528	16.58
282.744	21.64
282.96	29.05
283.176	28.58
283.392	34.95
283.608	30.12
283.824	26.83
284.04	32.44
284.256	31.88
284.471	31.18
284.687	25.29
284.903	25.89
285.119	17.82
285.335	24.52
285.551	37.99
285.767	30.67
285.982	26.01
286.198	31.39
286.414	31.53
286.63	44.02
286.846	47.54
287.061	40.78
287.277	43.39
287.493	41.99
287.709	36.81
287.924	33.16
288.14	27.47
288.356	17.21
288.571	14.07
288.787	18.17
289.003	26.92
289.218	34.85
289.434	37.84
289.65	45.3
289.865	53.18
290.081	46.56
290.296	38.7
290.512	44.92
290.727	47.22
290.943	42.44
291.159	32.77
291.374	27.4
291.59	34.1
291.805	40.52
292.021	17.42
292.236	21.61
292.451	24.16
292.667	22.75
292.882	20.22
293.098	16.98
293.313	13.55
293.529	29.47
293.744	28.38
293.959	35.92
294.175	35.7
294.39	47.74
294.605	47.4
294.821	51.01
295.036	41.05
295.251	37.87
295.467	28.75
295.682	38.47
295.897	30.82
296.112	30.83
296.328	39.03
296.543	33.86
296.758	31.07
296.973	25.45
297.188	17.44
297.404	16.69
297.619	14.38
297.834	10.7
298.049	20.15
298.264	12.58
298.479	10.94
298.694	21.73
298.909	29.33
299.125	27.02
299.34	26.15
299.555	21.77
299.77	30.74
299.985	32.12
300.2	25.91
300.415	24.81
300.63	29.02
300.845	30.57
301.06	31.58
301.275	33.62
301.49	38.38
301.704	40.62
301.919	32.69
302.134	21.11
302.349	16.03
302.564	11.89
302.779	-0.35
302.994	-6.43
303.209	-20.9
303.423	-1.48
303.638	13.5
303.853	18.66
304.068	26.86
304.283	34.85
304.497	30
304.712	41.42
304.927	31.14
305.142	23.93
305.356	22.1
305.571	25.45
305.786	21.99
306	32.79
306.215	20.33
306.43	32.29
306.644	38.19
306.859	38.69
307.074	40.55
307.288	46.57
307.503	48.51
307.717	48.98
307.932	49.13
308.147	50.34
308.361	48.98
308.576	39.12
308.79	37.33
309.005	28.22
309.219	30.64
309.434	25.7
309.648	16.22
309.863	13.92
310.077	6.75
310.292	1.48
310.506	17.63
310.72	16.32
310.935	15.37
311.149	17.8
311.364	18.52
311.578	24.31
311.792	21.98
312.007	12.66
312.221	20.23
312.435	16.78
312.649	34.52
312.864	32.57
313.078	29.92
313.292	38.65
313.507	43.53
313.721	34.46
313.935	55.25
314.149	40.81
314.363	50.36
314.578	59.22
314.792	58.94
315.006	56.48
315.22	64.18
315.434	51.36
315.648	50.65
315.862	48.37
316.077	49.22
316.291	49.83
316.505	46.85
316.719	34.73
316.933	35.03
317.147	28.79
317.361	20.99
317.575	20.11
317.789	17.77
318.003	21.72
318.217	24.93
318.431	24.13
318.645	25.74
318.859	23.28
319.073	23.82
319.287	33.25
319.5	33.21
319.714	25.04
319.928	28.49
320.142	31.71
320.356	43.15
320.57	35.41
320.784	26.41
320.997	30.9
321.211	36.74
321.425	32.57
321.639	30.94
321.853	18.56
322.066	25.5
322.28	19.31
322.494	16.78
322.707	14.54
322.921	17.09
323.135	22.81
323.349	27.82
323.562	22.34
323.776	33.75
323.989	32.02
324.203	37.59
324.417	34.13
324.63	30.8
324.844	30.45
325.057	37.6
325.271	26.1
325.485	29.32
325.698	18.66
325.912	24.45
326.125	12.54
326.339	27.95
326.552	21.83
326.766	25.67
326.979	27.73
327.193	36.29
327.406	33.44
327.619	25.57
327.833	4.6
328.046	3.63
328.26	5.22
328.473	0.85
328.686	0.84
328.9	-0.34
329.113	19.27
329.326	19.77
329.54	24.05
329.753	22.05
329.966	18.25
330.179	22.09
330.393	19.8
330.606	18.71
330.819	23.07
331.032	23.24
331.246	32.31
331.459	35.52
331.672	33.67
331.885	33.49
332.098	32.16
332.311	25.4
332.525	35.98
332.738	35.76
332.951	34.87
333.164	29.29
333.377	29.06
333.59	25.89
333.803	37.61
334.016	19.62
334.229	3.24
334.442	6.49
334.655	12.68
334.868	16.21
335.081	25.46
335.294	9.97
335.507	15.86
335.72	13.74
335.933	14.14
336.146	20.43
336.359	26.98
336.572	22.51
336.785	31.96
336.997	34.84
337.21	35.59
337.423	35.68
337.636	27.73
337.849	17.79
338.062	18.19
338.274	18.68
338.487	18.52
338.7	24.5
338.913	25.86
339.125	25.45
339.338	34.93
339.551	34.85
339.763	25.73
339.976	28.73
340.189	23.54
340.402	21.82
340.614	28.55
340.827	17.57
341.039	20.79
341.252	24.18
341.465	16.97
341.677	15.91
341.89	19.33
342.102	20.9
342.315	28.85
342.527	23.83
342.74	20.08
342.952	28.69
343.165	44.82
343.377	38.44
343.59	37.96
343.802	41.97
344.015	40.94
344.227	45.85
344.44	36.55
344.652	28.44
344.864	29.86
345.077	18.14
345.289	13.01
345.502	8.69
345.714	3.26
345.926	14.17
346.139	8.95
346.351	-0.17
346.563	10.2
346.775	10.95
346.988	13.84
347.2	17.44
347.412	12.61
347.624	17.57
347.837	16.5
348.049	20.26
348.261	18.77
348.473	14.24
348.685	23.97
348.897	26.59
349.11	25.52
349.322	31
349.534	26
349.746	33.85
349.958	29.55
350.17	20.58
350.382	21.41
350.594	24.35
350.806	32.44
351.018	33.7
351.23	38.29
351.442	39.58
351.654	41.61
351.866	42.43
352.078	35.97
352.29	34.08
352.502	27.53
352.714	23.42
352.926	28.69
353.138	21.62
353.35	23.64
353.561	24.75
353.773	27.44
353.985	30.55
354.197	23.24
354.409	28.19
354.621	29.4
354.832	23.46
355.044	29.89
355.256	20.9
355.468	17.47
355.679	20.8
355.891	15.82
356.103	17.85
356.314	18.99
356.526	11.36
356.738	10.32
356.949	17.92
357.161	14.54
357.373	19.43
357.584	23.53
357.796	26.52
358.008	32.19
358.219	38.45
358.431	33.51
358.642	35.03
358.854	35.86
359.065	31.88
359.277	27.18
359.488	21.93
359.7	21.39
359.911	17.8
360.123	28.16
360.334	18.81
360.546	18.74
360.757	24.91
360.969	29.49
361.18	28.55
361.391	34.45
361.603	24.32
361.814	34.07
362.025	33.08
362.237	31.5
362.448	30.84
362.659	17.78
362.871	20.66
363.082	26.67
363.293	28.05
363.504	28.17
363.716	23.86
363.927	21.26
364.138	30.81
364.349	30.57
364.56	32.11
364.772	25.77
364.983	18.49
365.194	21.53
365.405	23.6
365.616	16.83
365.827	12.41
366.038	15.79
366.25	26.77
366.461	34.1
366.672	35.17
366.883	37.03
367.094	43.48
367.305	40.91
367.516	34.92
367.727	22.89
367.938	26.92
368.149	24.69
368.36	21.17
368.571	17.94
368.781	21.57
368.992	22.16
369.203	29.04
369.414	22.79
369.625	19.31
369.836	21.13
370.047	22.88
370.258	19.13
370.468	18.08
370.679	12.92
370.89	17.72
371.101	26.17
371.312	22.94
371.522	26.52
371.733	18.97
371.944	17.36
372.155	15.9
372.365	9.2
372.576	3.43
372.787	1.42
372.997	-0.36
373.208	10.95
373.419	14.82
373.629	23.07
373.84	24.62
374.05	28.99
374.261	26.28
374.472	27.35
374.682	23.31
374.893	14.46
375.103	14.7
375.314	19.4
375.524	17.71
375.735	18.26
375.945	18.07
376.156	24.33
376.366	28.71
376.577	26.94
376.787	26.55
376.997	29.27
377.208	31.56
377.418	22.4
377.629	13.36
377.839	20.57
378.049	21.43
378.26	20
378.47	20.5
378.68	20.2
378.89	20.42
379.101	18.99
379.311	10.87
379.521	12.23
379.732	10.76
379.942	13.62
380.152	18.74
380.362	22.99
380.572	26.14
380.783	23.49
380.993	19.52
381.203	22.78
381.413	22.52
381.623	21.01
381.833	17.78
382.043	15.6
382.253	19.8
382.463	18.33
382.674	18.77
382.884	9.62
383.094	8.07
383.304	13.02
383.514	17.89
383.724	19.24
383.934	19.48
384.144	17.79
384.353	21.26
384.563	16.1
384.773	14.3
384.983	8.69
385.193	9.37
385.403	13.2
385.613	11.51
385.823	9.33
386.033	15.03
386.242	15.11
386.452	15.6
386.662	13.99
386.872	7.68
387.082	9.48
387.291	11.6
387.501	10.62
387.711	8.32
387.921	10.79
388.13	9.3
388.34	8.8
388.55	8.44
388.759	7.88
388.969	7.52
389.179	12.26
389.388	11.02
389.598	11.42
389.807	12.28
390.017	11.86
390.227	10.74
390.436	9.44
390.646	8.37
390.855	8.11
391.065	9.23
391.274	8.87
391.484	9.06
391.693	10.64
391.903	8.88
392.112	7.93
392.322	10.37
392.531	9.64
392.74	8.77
392.95	8.76
393.159	8.11
393.369	10.33
393.578	10.38
393.787	9.49
393.997	10.26
394.206	10.24
394.415	9.84
394.625	8.11
394.834	6.46
395.043	6.33
395.252	5.05
395.462	3.84
395.671	3.91
395.88	4.04
396.089	5.09
396.298	5.84
396.508	5.76
396.717	6.41
396.926	6.38
397.135	6.19
397.344	5.72
397.553	5.37
397.762	5.23
397.971	4.91
398.181	4.56
398.39	4.66
398.599	5.16
398.808	5.24
399.017	5.02
399.226	5.02
399.435	5.06
399.644	4.84
399.853	4.78
400.062	4.36
400.27	4.42
400.479	4.75
400.688	4.62
400.897	4.69
401.106	4.87
401.315	4.74
401.524	4.92
401.733	4.99
401.941	4.76
402.15	4.58
402.359	4.58
402.568	4.59
402.777	4.7
402.985	4.62
403.194	4.42
403.403	4.5
403.612	4.6
403.82	4.49
404.029	4.49
404.238	4.43
404.446	4.52
404.655	4.53
404.864	4.49
405.072	4.57
405.281	4.54
405.489	4.59
405.698	4.46
405.906	4.35
406.115	4.47
406.324	4.35
406.532	4.32
406.741	4.31
406.949	4.19
407.158	4.34
407.366	4.33
407.574	4.26
407.783	4.27
407.991	4.13
408.2	4.18
408.408	4.17
408.617	4.11
408.825	4.09
409.033	4.04
409.242	4.06
409.45	4.04
409.658	4.04
409.867	4.06
410.075	4.02
410.283	4.01
410.491	4.04
410.7	4.06
410.908	4.18
411.116	4.04
411.324	4.07
411.533	3.99
411.741	4.04
411.949	4.03
412.157	4.06
412.365	4.06
412.573	4.06
412.781	3.97
412.99	4.11
413.198	4.05
413.406	4.03
413.614	3.97
413.822	3.92
414.03	3.87
414.238	3.89
414.446	3.8
414.654	3.75
414.862	3.66
415.07	3.72
415.278	3.74
415.486	3.92
415.694	3.88
415.902	3.86
416.109	3.87
416.317	3.91
416.525	3.94
416.733	3.91
416.941	3.8
417.149	3.87
417.357	3.93
417.564	3.9
417.772	3.93
417.98	3.85
418.188	3.76
418.395	3.75
418.603	3.63
418.811	3.47
419.019	3.48
419.226	3.5
419.434	3.42
419.642	3.5
419.849	3.49
420.057	3.51
420.265	3.59
420.472	3.52
420.68	3.47
420.887	3.48
421.095	3.44
421.302	3.45
421.51	3.42
421.717	3.46
421.925	3.48
422.132	3.38
422.34	3.38
422.547	3.24
422.755	3.23
422.962	3.15
423.17	3.05
423.377	3.05
423.585	3.15
423.792	3.05
423.999	3.14
424.207	3.07
424.414	3.31
424.621	3.5
424.829	3.52
425.036	3.46
425.243	3.64
425.451	3.63
425.658	3.79
425.865	3.54
426.072	3.4
426.28	3.42
426.487	3.45
426.694	3.3
426.901	3.22
427.108	3.12
427.315	3.22
427.523	3.23
427.73	3.23
427.937	3.25
428.144	3.32
428.351	3.49
428.558	3.44
428.765	3.43
428.972	3.47
429.179	3.33
429.386	3.44
429.593	3.5
429.8	3.49
430.007	3.55
430.214	3.61
430.421	3.59
430.628	3.6
430.835	3.52
431.042	3.47
431.249	3.39
431.456	3.44
431.662	3.39
431.869	3.43
432.076	3.49
432.283	3.43
432.49	3.42
432.697	3.52
432.903	3.49
433.11	3.52
433.317	3.5
433.524	3.51
433.73	3.52
433.937	3.54
434.144	3.52
434.35	3.5
434.557	3.48
434.764	3.44
434.97	3.53
435.177	3.55
435.384	3.63
435.59	3.59
435.797	3.64
436.003	3.69
436.21	3.74
436.416	3.67
436.623	3.72
436.829	3.67
437.036	3.67
437.242	3.6
437.449	3.64
437.655	3.63
437.862	3.67
438.068	3.74
438.275	3.74
438.481	3.81
438.687	3.92
438.894	3.9
439.1	3.94
439.307	3.94
439.513	3.88
439.719	3.94
439.926	3.91
440.132	3.86
440.338	3.95
440.544	3.94
440.751	3.94
440.957	3.95
441.163	3.98
441.369	4.07
441.575	4.09
441.782	4.05
441.988	4.07
442.194	4.14
442.4	4.18
442.606	4.21
442.812	4.21
443.018	4.18
443.224	4.21
443.431	4.2
443.637	4.2
443.843	4.22
444.049	4.16
444.255	4.1
444.461	4.15
444.667	4.16
444.873	4.17
445.079	4.17
445.284	4.13
445.49	4.17
445.696	4.24
445.902	4.3
446.108	4.26
446.314	4.31
446.52	4.33
446.726	4.39
446.931	4.35
447.137	4.34
447.343	4.32
447.549	4.33
447.755	4.26
447.96	4.27
448.166	4.29
448.372	4.33
448.578	4.33
448.783	4.31
448.989	4.39
449.195	4.48
449.4	4.54
449.606	4.5
449.812	4.49
450.017	4.54
450.223	4.58
450.428	4.56
450.634	4.51
450.84	4.46
451.045	4.52
451.251	4.55
451.456	4.46
451.662	4.43
451.867	4.42
452.073	4.39
452.278	4.43
452.483	4.38
452.689	4.37
452.894	4.43
453.1	4.42
453.305	4.44
453.51	4.47
453.716	4.46
453.921	4.47
454.127	4.49
454.332	4.48
454.537	4.59
454.742	4.56
454.948	4.61
455.153	4.6
455.358	4.65
455.563	4.68
455.769	4.7
455.974	4.63
456.179	4.61
456.384	4.6
456.589	4.61
456.795	4.51
457	4.53
457.205	4.53
457.41	4.58
457.615	4.62
457.82	4.66
458.025	4.67
458.23	4.72
458.435	4.69
458.64	4.67
458.845	4.66
459.05	4.63
459.255	4.57
459.46	4.53
459.665	4.59
459.87	4.61
460.075	4.65
460.28	4.67
460.485	4.75
460.69	4.75
460.895	4.8
461.099	4.83
461.304	4.81
461.509	4.78
461.714	4.79
461.919	4.77
462.123	4.81
462.328	4.8
462.533	4.74
462.738	4.75
462.942	4.79
463.147	4.77
463.352	4.82
463.556	4.82
463.761	4.87
463.966	4.93
464.17	4.92
464.375	4.92
464.58	4.97
464.784	4.99
464.989	4.99
465.193	4.99
465.398	4.95
465.602	5
465.807	4.98
466.011	4.96
466.216	4.92
466.42	5.01
466.625	5.04
466.829	5.08
467.034	5.16
467.238	5.25
467.443	5.32
467.647	5.36
467.851	5.28
468.056	5.29
468.26	5.31
468.464	5.3
468.669	5.31
468.873	5.29
469.077	5.35
469.282	5.41
469.486	5.42
469.69	5.42
469.894	5.45
470.099	5.43
470.303	5.43
470.507	5.44
470.711	5.45
470.915	5.51
471.119	5.56
471.324	5.58
471.528	5.63
471.732	5.68
471.936	5.7
472.14	5.75
472.344	5.76
472.548	5.76
472.752	5.8
472.956	5.85
473.16	5.88
473.364	5.88
473.568	5.93
473.772	6.01
473.976	6.03
474.18	6.04
474.384	6.02
474.588	6.05
474.792	6.1
474.995	6.09
475.199	6.08
475.403	6.16
475.607	6.2
475.811	6.22
476.015	6.23
476.218	6.25
476.422	6.29
476.626	6.31
476.83	6.33
477.033	6.39
477.237	6.44
477.441	6.48
477.644	6.5
477.848	6.54
478.052	6.56
478.255	6.54
478.459	6.57
478.663	6.56
478.866	6.54
479.07	6.54
479.273	6.51
479.477	6.53
479.681	6.58
479.884	6.54
480.088	6.59
480.291	6.63
480.495	6.71
480.698	6.73
480.901	6.7
481.105	6.76
481.308	6.74
481.512	6.76
481.715	6.77
481.919	6.79
482.122	6.8
482.325	6.89
482.529	6.9
482.732	6.99
482.935	6.99
483.138	7.01
483.342	7.04
483.545	7.03
483.748	7.07
483.952	7.06
484.155	7.11
484.358	7.13
484.561	7.14
484.764	7.15
484.967	7.2
485.171	7.14
485.374	7.14
485.577	7.13
485.78	7.13
485.983	7.15
486.186	7.15
486.389	7.14
486.592	7.18
486.795	7.16
486.998	7.13
487.201	7.15
487.404	7.17
487.607	7.15
487.81	7.19
488.013	7.16
488.216	7.2
488.419	7.22
488.622	7.24
488.825	7.22
489.028	7.24
489.231	7.27
489.433	7.31
489.636	7.34
489.839	7.35
490.042	7.37
490.245	7.4
490.447	7.41
490.65	7.43
490.853	7.44
491.056	7.44
491.258	7.46
491.461	7.45
491.664	7.46
491.866	7.52
492.069	7.52
492.272	7.54
492.474	7.55
492.677	7.56
492.879	7.6
493.082	7.64
493.285	7.64
493.487	7.67
493.69	7.73
493.892	7.82
494.095	7.84
494.297	7.91
494.5	7.93
494.702	7.95
494.905	8
495.107	7.97
495.309	7.99
495.512	8.07
495.714	8.09
495.917	8.15
496.119	8.23
496.321	8.27
496.524	8.36
496.726	8.38
496.928	8.39
497.13	8.47
497.333	8.54
497.535	8.58
497.737	8.61
497.939	8.66
498.142	8.72
498.344	8.76
498.546	8.8
498.748	8.8
498.95	8.85
499.152	8.84
499.355	8.87
499.557	8.9
499.759	8.99
499.961	9.01
500.163	9.08
500.365	9.11
500.567	9.18
500.769	9.24
500.971	9.26
501.173	9.27
501.375	9.32
501.577	9.36
501.779	9.4
501.981	9.44
502.183	9.45
502.385	9.54
502.587	9.53
502.788	9.52
502.99	9.5
503.192	9.54
503.394	9.56
503.596	9.64
503.798	9.71
503.999	9.79
504.201	9.83
504.403	9.87
504.605	9.91
504.806	9.93
505.008	9.92
505.21	9.91
505.411	9.95
505.613	9.96
505.815	10.04
506.016	10.08
506.218	10.1
506.42	10.21
506.621	10.23
506.823	10.23
507.024	10.25
507.226	10.29
507.427	10.31
507.629	10.38
507.83	10.35
508.032	10.4
508.233	10.44
508.435	10.49
508.636	10.47
508.838	10.51
509.039	10.53
509.24	10.52
509.442	10.51
509.643	10.53
509.845	10.57
510.046	10.6
510.247	10.6
510.448	10.61
510.65	10.67
510.851	10.67
511.052	10.72
511.254	10.74
511.455	10.71
511.656	10.77
511.857	10.81
512.058	10.83
512.26	10.87
512.461	10.86
512.662	10.88
512.863	10.96
513.064	10.93
513.265	10.96
513.466	10.99
513.667	11.05
513.868	11.08
514.069	11.1
514.27	11.14
514.471	11.22
514.672	11.24
514.873	11.25
515.074	11.26
515.275	11.29
515.476	11.31
515.677	11.32
515.878	11.34
516.079	11.35
516.28	11.37
516.481	11.38
516.682	11.4
516.882	11.4
517.083	11.45
517.284	11.44
517.485	11.49
517.686	11.52
517.886	11.55
518.087	11.63
518.288	11.68
518.488	11.66
518.689	11.7
518.89	11.75
519.091	11.77
519.291	11.78
519.492	11.76
519.692	11.79
519.893	11.82
520.094	11.88
520.294	11.86
520.495	11.85
520.695	11.86
520.896	11.89
521.096	11.87
521.297	11.91
521.497	11.92
521.698	11.96
521.898	12.02
522.099	12.04
522.299	12.03
522.499	12.09
522.7	12.13
522.9	12.15
523.101	12.15
523.301	12.16
523.501	12.22
523.702	12.26
523.902	12.28
524.102	12.26
524.302	12.27
524.503	12.27
524.703	12.32
524.903	12.35
525.103	12.38
525.304	12.43
525.504	12.48
525.704	12.48
525.904	12.57
526.104	12.56
526.304	12.61
526.504	12.63
526.705	12.6
526.905	12.63
527.105	12.67
527.305	12.64
527.505	12.68
527.705	12.64
527.905	12.66
528.105	12.72
528.305	12.77
528.505	12.79
528.705	12.81
528.905	12.81
529.105	12.86
529.304	12.86
529.504	12.88
529.704	12.87
529.904	12.91
530.104	12.95
530.304	13.02
530.503	13.01
530.703	13.08
530.903	13.09
531.103	13.13
531.303	13.15
531.502	13.14
531.702	13.16
531.902	13.23
532.101	13.21
532.301	13.25
532.501	13.25
532.7	13.28
532.9	13.34
533.1	13.32
533.299	13.34
533.499	13.43
533.698	13.48
533.898	13.53
534.097	13.57
534.297	13.59
534.496	13.63
534.696	13.66
534.895	13.67
535.095	13.69
535.294	13.72
535.494	13.72
535.693	13.79
535.892	13.85
536.092	13.88
536.291	13.91
536.491	13.94
536.69	13.99
536.889	14.05
537.088	14.03
537.288	14.08
537.487	14.14
537.686	14.18
537.886	14.2
538.085	14.21
538.284	14.24
538.483	14.31
538.682	14.31
538.882	14.3
539.081	14.36
539.28	14.39
539.479	14.44
539.678	14.49
539.877	14.53
540.076	14.63
540.275	14.7
540.474	14.7
540.673	14.74
540.872	14.8
541.071	14.86
541.27	14.92
541.469	14.96
541.668	15.04
541.867	15.12
542.066	15.21
542.265	15.28
542.464	15.31
542.663	15.39
542.862	15.39
543.06	15.43
543.259	15.44
543.458	15.44
543.657	15.51
543.856	15.55
544.054	15.61
544.253	15.7
544.452	15.73
544.651	15.86
544.849	15.93
545.048	15.96
545.247	16.01
545.445	16.02
545.644	16.1
545.843	16.16
546.041	16.19
546.24	16.31
546.438	16.36
546.637	16.48
546.836	16.55
547.034	16.57
547.233	16.64
547.431	16.72
547.63	16.72
547.828	16.8
548.027	16.85
548.225	16.99
548.423	17.11
548.622	17.23
548.82	17.34
549.019	17.44
549.217	17.53
549.415	17.58
549.614	17.61
549.812	17.68
550.01	17.72
550.209	17.82
550.407	17.93
550.605	18.06
550.803	18.18
551.002	18.28
551.2	18.37
551.398	18.42
551.596	18.47
551.794	18.52
551.993	18.6
552.191	18.7
552.389	18.79
552.587	18.87
552.785	19.04
552.983	19.16
553.181	19.24
553.379	19.33
553.577	19.41
553.775	19.53
553.973	19.67
554.171	19.72
554.369	19.77
554.567	19.88
554.765	19.96
554.963	20.1
555.161	20.21
555.359	20.3
555.557	20.43
555.755	20.57
555.952	20.72
556.15	20.85
556.348	20.96
556.546	21.04
556.744	21.18
556.941	21.3
557.139	21.47
557.337	21.57
557.535	21.71
557.732	21.78
557.93	21.9
558.128	21.99
558.325	22.13
558.523	22.22
558.721	22.35
558.918	22.46
559.116	22.56
559.313	22.69
559.511	22.81
559.708	22.91
559.906	23.04
560.104	23.14
560.301	23.27
560.498	23.4
560.696	23.49
560.893	23.56
561.091	23.7
561.288	23.81
561.486	23.94
561.683	24.02
561.88	24.14
562.078	24.3
562.275	24.47
562.473	24.58
562.67	24.66
562.867	24.81
563.064	24.98
563.262	25.17
563.459	25.26
563.656	25.39
563.853	25.51
564.051	25.67
564.248	25.78
564.445	25.86
564.642	25.98
564.839	26.12
565.036	26.26
565.234	26.43
565.431	26.52
565.628	26.68
565.825	26.74
566.022	26.82
566.219	26.9
566.416	27
566.613	27.09
566.81	27.19
567.007	27.22
567.204	27.42
567.401	27.55
567.598	27.65
567.795	27.75
567.991	27.77
568.188	27.91
568.385	28.04
568.582	28.16
568.779	28.22
568.976	28.32
569.172	28.44
569.369	28.58
569.566	28.57
569.763	28.63
569.96	28.66
570.156	28.72
570.353	28.76
570.55	28.86
570.746	28.93
570.943	29.08
571.14	29.11
571.336	29.17
571.533	29.27
571.729	29.36
571.926	29.36
572.123	29.39
572.319	29.44
572.516	29.55
572.712	29.63
572.909	29.73
573.105	29.81
573.302	29.86
573.498	29.91
573.695	29.93
573.891	29.98
574.087	30.05
574.284	30.05
574.48	30.06
574.677	30.1
574.873	30.14
575.069	30.23
575.266	30.21
575.462	30.18
575.658	30.21
575.854	30.25
576.051	30.27
576.247	30.33
576.443	30.36
576.639	30.46
576.835	30.56
577.032	30.61
577.228	30.61
577.424	30.66
577.62	30.69
577.816	30.69
578.012	30.67
578.208	30.68
578.404	30.7
578.6	30.73
578.796	30.78
578.993	30.76
579.189	30.77
579.384	30.78
579.58	30.77
579.776	30.78
579.972	30.77
580.168	30.78
580.364	30.81
580.56	30.86
580.756	30.82
580.952	30.85
581.148	30.82
581.343	30.84
581.539	30.77
581.735	30.72
581.931	30.72
582.127	30.74
582.322	30.79
582.518	30.8
582.714	30.85
582.909	30.86
583.105	30.86
583.301	30.82
583.496	30.82
583.692	30.71
583.888	30.68
584.083	30.65
584.279	30.71
584.474	30.74
584.67	30.78
584.866	30.8
585.061	30.83
585.257	30.88
585.452	30.81
585.648	30.75
585.843	30.75
586.039	30.75
586.234	30.69
586.429	30.74
586.625	30.7
586.82	30.72
587.015	30.76
587.211	30.83
587.406	30.83
587.601	30.86
587.797	30.78
587.992	30.77
588.187	30.8
588.383	30.83
588.578	30.79
588.773	30.8
588.968	30.86
589.163	30.98
589.359	31.01
589.554	31
589.749	31.04
589.944	31.06
590.139	31.09
590.334	31.09
590.529	31.12
590.724	31.14
590.919	31.31
591.114	31.33
591.309	31.36
591.504	31.36
591.699	31.42
591.894	31.47
592.089	31.55
592.284	31.5
592.479	31.57
592.674	31.64
592.869	31.71
593.064	31.79
593.259	31.77
593.454	31.81
593.648	31.87
593.843	31.89
594.038	31.94
594.233	32.06
594.428	32.11
594.622	32.2
594.817	32.32
595.012	32.43
595.206	32.54
595.401	32.63
595.596	32.72
595.79	32.81
595.985	32.93
596.18	33.1
596.374	33.18
596.569	33.23
596.763	33.32
596.958	33.37
597.153	33.48
597.347	33.54
597.542	33.55
597.736	33.63
597.931	33.75
598.125	33.82
598.319	33.92
598.514	34.01
598.708	34.14
598.903	34.24
599.097	34.33
599.291	34.41
599.486	34.54
599.68	34.55
599.874	34.54
600.069	34.61
600.263	34.66
600.457	34.75
600.651	34.84
600.846	34.83
601.04	34.96
601.234	35.07
601.428	35.07
601.622	35.02
601.817	35.05
602.011	35.07
602.205	35.17
602.399	35.19
602.593	35.24
602.787	35.3
602.981	35.33
603.175	35.37
603.369	35.43
603.563	35.4
603.757	35.38
603.951	35.34
604.145	35.34
604.339	35.36
604.533	35.35
604.727	35.31
604.921	35.29
605.115	35.28
605.309	35.32
605.502	35.3
605.696	35.31
605.89	35.29
606.084	35.26
606.278	35.21
606.471	35.13
606.665	35.09
606.859	35.07
607.053	35.09
607.246	35.03
607.44	34.96
607.634	34.92
607.827	34.84
608.021	34.73
608.214	34.63
608.408	34.47
608.602	34.43
608.795	34.31
608.989	34.27
609.182	34.29
609.376	34.22
609.569	34.17
609.763	34.19
609.956	34.08
610.15	34.09
610.343	34.03
610.537	33.9
610.73	33.86
610.923	33.79
611.117	33.6
611.31	33.58
611.504	33.54
611.697	33.44
611.89	33.41
612.083	33.31
612.277	33.23
612.47	33.23
612.663	33.18
612.856	33.04
613.05	32.96
613.243	32.85
613.436	32.77
613.629	32.71
613.822	32.59
614.015	32.48
614.209	32.41
614.402	32.32
614.595	32.26
614.788	32.17
614.981	32.09
615.174	32.03
615.367	31.94
615.56	31.86
615.753	31.82
615.946	31.76
616.139	31.74
616.332	31.66
616.525	31.65
616.718	31.61
616.911	31.56
617.103	31.49
617.296	31.48
617.489	31.45
617.682	31.39
617.875	31.23
618.067	31.15
618.26	31.09
618.453	31.01
618.646	30.84
618.838	30.8
619.031	30.77
619.224	30.8
619.417	30.76
619.609	30.73
619.802	30.75
619.994	30.78
620.187	30.7
620.38	30.71
620.572	30.65
620.765	30.59
620.957	30.56
621.15	30.44
621.342	30.39
621.535	30.34
621.727	30.22
621.92	30.16
622.112	30.17
622.305	30.16
622.497	30.19
622.69	30.17
622.882	30.16
623.074	30.15
623.267	30.14
623.459	30.11
623.651	30.09
623.844	30.07
624.036	30.1
624.228	30.09
624.42	30.1
624.613	30.1
624.805	30.05
624.997	30.02
625.189	29.97
625.381	29.87
625.574	29.81
625.766	29.78
625.958	29.69
626.15	29.68
626.342	29.66
626.534	29.61
626.726	29.63
626.918	29.56
627.11	29.53
627.302	29.52
627.494	29.5
627.686	29.48
627.878	29.44
628.07	29.34
628.262	29.35
628.454	29.35
628.646	29.3
628.838	29.18
629.029	29.04
629.221	29.03
629.413	28.98
629.605	28.93
629.797	28.81
629.989	28.75
630.18	28.71
630.372	28.74
630.564	28.68
630.755	28.68
630.947	28.62
631.139	28.62
631.33	28.6
631.522	28.59
631.714	28.58
631.905	28.54
632.097	28.51
632.289	28.48
632.48	28.4
632.672	28.33
632.863	28.3
633.055	28.24
633.246	28.22
633.438	28.23
633.629	28.28
633.821	28.29
634.012	28.35
634.203	28.4
634.395	28.43
634.586	28.42
634.777	28.36
634.969	28.27
635.16	28.19
635.351	28.12
635.543	28.07
635.734	28.02
635.925	28.03
636.117	28.02
636.308	28.04
636.499	28.1
636.69	28.19
636.881	28.19
637.073	28.16
637.264	28.07
637.455	28.08
637.646	28.11
637.837	28.07
638.028	28.09
638.219	28
638.41	27.99
638.601	28.03
638.792	27.99
638.983	27.91
639.174	27.91
639.365	27.75
639.556	27.74
639.747	27.78
639.938	27.75
640.129	27.78
640.32	27.74
640.511	27.66
640.701	27.65
640.892	27.67
641.083	27.59
641.274	27.57
641.465	27.48
641.655	27.49
641.846	27.44
642.037	27.44
642.228	27.35
642.418	27.26
642.609	27.18
642.8	27.12
642.99	27.12
643.181	27.13
643.372	27.14
643.562	27.13
643.753	27.07
643.943	27.04
644.134	27.08
644.324	27
644.515	26.92
644.705	26.8
644.896	26.73
645.086	26.71
645.277	26.74
645.467	26.62
645.658	26.62
645.848	26.58
646.038	26.57
646.229	26.55
646.419	26.59
646.61	26.57
646.8	26.6
646.99	26.53
647.18	26.54
647.371	26.5
647.561	26.52
647.751	26.44
647.941	26.35
648.132	26.32
648.322	26.29
648.512	26.25
648.702	26.24
648.892	26.19
649.082	26.18
649.272	26.17
649.462	26.12
649.653	26.17
649.843	26.09
650.033	26.03
650.223	26
650.413	25.96
650.603	25.9
650.793	25.76
650.983	25.61
651.172	25.6
651.362	25.5
651.552	25.39
651.742	25.32
651.932	25.28
652.122	25.27
652.312	25.17
652.502	25.03
652.691	24.95
652.881	24.89
653.071	24.77
653.261	24.67
653.45	24.48
653.64	24.48
653.83	24.35
654.019	24.23
654.209	24.06
654.399	23.93
654.588	23.8
654.778	23.71
654.968	23.49
655.157	23.41
655.347	23.23
655.536	23.03
655.726	22.85
655.915	22.62
656.105	22.49
656.294	22.32
656.484	22.12
656.673	22.02
656.863	21.91
657.052	21.73
657.241	21.54
657.431	21.34
657.62	21.13
657.809	20.88
657.999	20.64
658.188	20.38
658.377	20.25
658.567	20.07
658.756	19.79
658.945	19.59
659.134	19.31
659.324	19.07
659.513	18.85
659.702	18.56
659.891	18.33
660.08	18.15
660.269	17.92
660.458	17.72
660.648	17.52
660.837	17.3
661.026	17.1
661.215	16.89
661.404	16.64
661.593	16.45
661.782	16.29
661.971	16.02
662.16	15.8
662.349	15.53
662.538	15.28
662.726	15.06
662.915	14.86
663.104	14.62
663.293	14.39
663.482	14.2
663.671	14.06
663.86	13.87
664.048	13.73
664.237	13.57
664.426	13.44
664.615	13.3
664.803	13.11
664.992	12.98
665.181	12.83
665.369	12.67
665.558	12.48
665.747	12.37
665.935	12.35
666.124	12.28
666.312	12.08
666.501	11.94
666.69	11.84
666.878	11.69
667.067	11.53
667.255	11.41
667.444	11.34
667.632	11.23
667.82	11.08
668.009	10.92
668.197	10.85
668.386	10.78
668.574	10.68
668.762	10.55
668.951	10.52
669.139	10.57
669.327	10.58
669.516	10.54
669.704	10.45
669.892	10.4
670.08	10.38
670.269	10.3
670.457	10.23
670.645	10.2
670.833	10.11
671.021	10.1
671.21	10.02
671.398	9.97
671.586	10.01
671.774	9.91
671.962	9.88
672.15	9.9
672.338	9.96
672.526	9.99
672.714	10
672.902	9.92
673.09	9.99
673.278	9.98
673.466	10.01
673.654	9.95
673.842	10.05
674.03	10.1
674.218	10.17
674.405	10.27
674.593	10.28
674.781	10.31
674.969	10.39
675.157	10.37
675.344	10.44
675.532	10.51
675.72	10.49
675.908	10.6
676.095	10.68
676.283	10.68
676.471	10.73
676.658	10.78
676.846	10.78
677.033	10.9
677.221	10.98
677.409	11.08
677.596	11.22
677.784	11.32
677.971	11.39
678.159	11.54
678.346	11.64
678.534	11.7
678.721	11.75
678.909	11.88
679.096	11.97
679.283	12.08
679.471	12.25
679.658	12.36
679.846	12.54
680.033	12.72
680.22	12.78
680.408	12.98
680.595	13.03
680.782	13.13
680.969	13.28
681.157	13.43
681.344	13.63
681.531	13.82
681.718	14.03
681.905	14.32
682.093	14.54
682.28	14.79
682.467	15.02
682.654	15.23
682.841	15.47
683.028	15.77
683.215	16.01
683.402	16.21
683.589	16.5
683.776	16.77
683.963	17.01
684.15	17.37
684.337	17.63
684.524	17.95
684.711	18.31
684.898	18.58
685.085	18.95
685.271	19.3
685.458	19.72
685.645	20.05
685.832	20.54
686.019	20.96
686.205	21.38
686.392	21.81
686.579	22.22
686.766	22.69
686.952	23.22
687.139	23.58
687.326	24.15
687.512	24.68
687.699	25.18
687.886	25.77
688.072	26.27
688.259	26.81
688.445	27.41
688.632	28.01
688.818	28.6
689.005	29.29
689.191	29.89
689.378	30.43
689.564	31.16
689.751	31.85
689.937	32.46
690.124	33.07
690.31	33.7
690.496	34.37
690.683	35.06
690.869	35.72
691.055	36.45
691.242	37.14
691.428	37.95
691.614	38.71
691.8	39.47
691.987	40.33
692.173	41.07
692.359	41.79
692.545	42.5
692.731	43.2
692.918	43.8
693.104	44.52
693.29	45.33
693.476	45.88
693.662	46.55
693.848	47.19
694.034	47.9
694.22	48.67
694.406	49.44
694.592	50.05
694.778	50.81
694.964	51.46
695.15	52.34
695.336	53.04
695.522	53.78
695.708	54.4
695.894	54.99
696.08	55.71
696.265	56.45
696.451	57.04
696.637	57.73
696.823	58.32
697.009	58.94
697.194	59.63
697.38	60.19
697.566	60.74
697.751	61.37
697.937	61.96
698.123	62.69
698.308	63.23
698.494	63.67
698.68	64.37
698.865	65.07
699.051	65.62
699.236	66.1
699.422	66.57
699.607	67.12
699.793	67.71
699.978	68.02
700.164	68.39
700.349	68.89
700.535	69.51
700.72	69.93
700.906	70.26
701.091	70.61
701.276	71.22
701.462	71.6
701.647	71.77
701.832	71.99
702.018	72.36
702.203	72.82
702.388	73.11
702.573	73.48
702.759	73.8
702.944	74.33
703.129	74.62
703.314	74.98
703.499	75.39
703.684	76.03
703.87	76.22
704.055	76.62
704.24	77.07
704.425	77.7
704.61	77.74
704.795	78.1
704.98	78.37
705.165	78.63
705.35	78.87
705.535	79.09
705.72	79.14
705.905	79.58
706.09	79.61
706.275	79.81
706.459	80.01
706.644	80.23
706.829	80.37
707.014	80.49
707.199	80.71
707.384	81.07
707.568	81.3
707.753	81.56
707.938	81.78
708.123	82.05
708.307	82.5
708.492	82.85
708.677	83.29
708.861	83.55
709.046	83.77
709.231	84.1
709.415	84.28
709.6	84.29
709.784	84.43
709.969	84.58
710.153	84.89
710.338	84.99
710.522	84.89
710.707	84.64
710.891	84.92
711.076	84.9
711.26	84.92
711.445	84.64
711.629	85.13
711.813	85.4
711.998	85.72
712.182	85.74
712.366	86.03
712.551	86.08
712.735	86.27
712.919	86.23
713.103	86.27
713.288	86.65
713.472	86.63
713.656	86.46
713.84	86.64
714.024	86.93
714.208	86.82
714.393	87.07
714.577	87.11
714.761	87.48
714.945	87.78
715.129	88.06
715.313	87.97
715.497	88.42
715.681	88.61
715.865	88.67
716.049	88.7
716.233	89.08
716.417	89.05
716.601	89.27
716.785	89.42
716.968	89.38
717.152	89.4
717.336	89.63
717.52	89.72
717.704	89.65
717.888	89.9
718.071	89.8
718.255	89.89
718.439	89.77
718.622	89.89
718.806	89.53
718.99	89.87
719.174	89.61
719.357	89.7
719.541	89.89
719.724	90.2
719.908	90.09
720.092	90.59
720.275	90.5
720.459	91.03
720.642	91.16
720.826	91.35
721.009	91.58
721.193	91.61
721.376	91.3
721.559	90.9
721.743	90.57
721.926	90.21
722.11	90.23
722.293	89.92
722.476	89.78
722.66	90.09
722.843	90.71
723.026	91.08
723.21	91.2
723.393	90.91
723.576	90.92
723.759	91.22
723.942	91.06
724.126	90.81
724.309	90.71
724.492	90.95
724.675	91.24
724.858	91.73
725.041	91.74
725.224	91.9
725.407	91.87
725.59	91.77
725.774	91.7
725.957	91.84
726.14	91.8
726.322	92.04
726.505	92.14
726.688	92.58
726.871	92.94
727.054	93.16
727.237	92.97
727.42	93.21
727.603	93.07
727.786	93.14
727.968	93.21
728.151	93.36
728.334	93.27
728.517	93.41
728.699	93.58
728.882	93.61
729.065	93.67
729.248	93.17
729.43	93.03
729.613	93.35
729.796	93.39
729.978	93.07
730.161	93.36
730.343	93.65
730.526	94.12
730.708	94.16
730.891	94.1
731.073	93.81
731.256	93.96
731.438	94.01
731.621	93.81
731.803	93.94
731.986	94.01
732.168	93.85
732.35	94.16
732.533	94.22
732.715	94.17
732.898	94.36
733.08	94.72
733.262	94.99
733.444	95.02
733.627	95.27
733.809	95.27
733.991	95.44
734.173	94.84
734.355	94.7
734.538	94.37
734.72	94.99
734.902	94.71
735.084	94.74
735.266	94.46
735.448	95.13
735.63	94.77
735.812	94.95
735.994	94.46
736.176	95.04
736.358	95.19
736.54	95.44
736.722	95.11
736.904	95.41
737.086	95.02
737.268	95.34
737.45	94.96
737.632	94.69
737.814	94.66
737.995	95.18
738.177	95.52
738.359	95.93
738.541	95.78
738.723	95.85
738.904	96.05
739.086	96.04
739.268	96.2
739.449	95.92
739.631	95.94
739.813	95.51
739.994	95.74
740.176	95.58
740.358	95.65
740.539	95.18
740.721	94.71
740.902	94.45
741.084	94.94
741.265	94.88
741.447	94.61
741.628	94.31
741.81	94.61
741.991	94.77
742.172	94.81
742.354	95.12
742.535	95.11
742.717	95.56
742.898	96.04
743.079	95.5
743.261	95.62
743.442	96.25
743.623	96.25
743.804	96.2
743.986	96.15
744.167	95.4
744.348	95.63
744.529	95.6
744.71	94.72
744.891	94.34
745.073	94.62
745.254	94.6
745.435	94.84
745.616	94.45
745.797	94.35
745.978	95.44
746.159	95.29
746.34	95.22
746.521	95.14
746.702	95.18
746.883	96.09
747.064	96.47
747.245	96.24
747.426	96.46
747.606	96.31
747.787	97.08
747.968	97.11
748.149	96.89
748.33	97.42
748.51	96.69
748.691	96.81
748.872	96.76
749.053	96
749.233	96.13
749.414	95.81
749.595	94.81
749.775	95.56
749.956	94.8
750.137	94.56
750.317	93.95
750.498	94.26
750.678	94.43
750.859	94.55
751.04	93.8
751.22	93.81
751.4	94.71
751.581	95.41
751.761	95.9
751.942	95.8
752.122	95.46
752.303	95.95
752.483	96.79
752.663	96.62
752.844	95.58
753.024	95.11
753.204	95.08
753.385	95.39
753.565	94.78
753.745	94.82
753.925	94.02
754.106	94.9
754.286	94.42
754.466	94.47
754.646	94.24
754.826	94.51
755.006	93.82
755.187	94.05
755.367	93.77
755.547	94.04
755.727	93.83
755.907	94.23
756.087	94.03
756.267	93.79
756.447	94.08
756.627	94.27
756.807	95.23
756.987	95.17
757.167	95.19
757.346	95.24
757.526	95.57
757.706	95.5
757.886	95.94
758.066	94.89
758.246	95.47
758.425	95.61
758.605	95.96
758.785	96.59
758.965	96.12
759.144	96.46
759.324	96.61
759.504	96.11
759.683	95.32
759.863	94.67
760.043	94.13
760.222	94.09
760.402	93.66
760.581	93.04
760.761	93.06
760.94	93.08
761.12	93.66
761.299	93.49
761.479	94.38
761.658	93.59
761.838	93.53
762.017	93.4
762.197	93.81
762.376	93.38
762.555	93.93
762.735	92.91
762.914	93.85
763.093	94.33
763.273	94.37
763.452	95.18
763.631	94.64
763.81	94.58
763.99	94.72
764.169	94.71
764.348	95.02
764.527	94.17
764.706	93.99
764.885	95.16
765.064	94.38
765.243	94.54
765.423	94.97
765.602	94.31
765.781	95.85
765.96	95.66
766.139	94.84
766.318	96.21
766.497	95.57
766.676	95.64
766.854	95.61
767.033	94.59
767.212	93.61
767.391	93.78
767.57	93.03
767.749	93.47
767.928	92.17
768.106	92.83
768.285	93.06
768.464	93.22
768.643	93.68
768.821	93.4
769	93.93
769.179	93.68
769.357	93.17
769.536	92.82
769.715	92.73
769.893	92.7
770.072	92.77
770.25	92.01
770.429	92.13
770.607	92.27
770.786	92.92
770.964	92.46
771.143	92.28
771.321	91.96
771.5	90.99
771.678	91.99
771.857	90.89
772.035	90.54
772.213	91.75
772.392	91.08
772.57	91.94
772.748	92.55
772.927	91.68
773.105	92.68
773.283	92.51
773.461	91.3
773.64	91.64
773.818	90.62
773.996	90.85
774.174	91.21
774.352	90.86
774.531	90.04
774.709	92.29
774.887	91.61
775.065	92.15
775.243	93.24
775.421	93.29
775.599	92.44
775.777	93.65
775.955	92.35
776.133	91.58
776.311	91.33
776.489	89.71
776.667	88.8
776.844	88.66
777.022	88.64
777.2	88.85
777.378	90.86
777.556	92.44
777.734	92.66
777.911	94.69
778.089	94.08
778.267	93.88
778.445	93.22
778.622	90.98
778.8	89.54
778.978	90.2
779.155	88.16
779.333	88.9
779.511	88.68
779.688	88.4
779.866	89.69
780.043	90.02
780.221	89.64
780.398	90.53
780.576	90.51
780.753	90.2
780.931	90.64
781.108	91.37
781.286	90.53
781.463	91.25
781.64	91.07
781.818	91.3
781.995	91.71
782.172	91.54
782.35	91.67
782.527	91.86
782.704	88.97
782.882	90
783.059	89.97
783.236	89.57
783.413	87.64
783.59	86.28
783.768	84.79
783.945	86.37
784.122	85.17
784.299	86.22
784.476	87.4
784.653	88.93
784.83	89.06
785.007	90.17
785.184	90.91
785.361	90.01
785.538	91.29
785.715	89.64
785.892	89.77
786.069	89.29
786.246	88.62
786.423	90.26
786.6	91.25
786.776	88.22
786.953	86.81
787.13	88.33
787.307	89.05
787.484	90.44
787.66	87.74
787.837	88.7
788.014	88.9
788.191	89.45
788.367	87.19
788.544	86.87
788.721	87.99
788.897	89.81
789.074	89.06
789.25	90.77
789.427	92.15
789.603	94.01
789.78	94.99
789.956	93.62
790.133	92.62
790.309	91.02
790.486	91.41
790.662	92.5
790.839	92.2
791.015	92.45
791.192	90.75
791.368	90.96
791.544	93.56
791.721	90.64
791.897	90.2
792.073	90.2
792.249	91.82
792.426	91.82
792.602	92.13
792.778	89.7
792.954	91.67
793.13	91
793.307	89.19
793.483	86.75
793.659	88.82
793.835	86.5
794.011	88.25
794.187	87.23
794.363	87.31
794.539	87.33
794.715	86.87
794.891	83.97
795.067	86.93
795.243	85.47
795.419	86.86
795.595	84.46
795.771	85.77
795.947	86.23
796.122	87.32
796.298	86.42
796.474	87.97
796.65	87.44
796.826	90.93
797.001	90.11
797.177	89.69
797.353	91.46
797.529	90.59
797.704	90.37
797.88	91.01
798.056	92.06
798.231	93.59
798.407	94.44
798.582	95.05
798.758	97.43
798.934	96.51
799.109	91.29
799.285	92.23
799.46	89.75
799.636	89.24
799.811	88.67
799.986	86.84
800.162	85.29
800.337	87.92
800.513	87.69
800.688	89.49
800.863	89.88
801.039	88.93
801.214	87.78
801.389	88.26
801.565	89.64
801.74	84.44
801.915	84.84
802.09	83.6
802.265	81.22
802.441	85
802.616	86.46
802.791	86.68
802.966	88.09
803.141	87.2
803.316	88.73
803.491	90.26
803.666	89.64
803.841	90.6
804.016	91.62
804.191	91.11
804.366	90.6
804.541	86.77
804.716	84.49
804.891	85.96
805.066	80.98
805.241	77.03
805.416	77.63
805.591	80.34
805.765	83.24
805.94	84.83
806.115	80.55
806.29	83.03
806.464	82.85
806.639	84.39
806.814	81.83
806.989	76.86
807.163	76.02
807.338	74.96
807.512	73.38
807.687	76.48
807.862	75.16
808.036	77.02
808.211	82.06
808.385	82.07
808.56	84.96
808.734	88.37
808.909	88.3
809.083	87.91
809.258	88.7
809.432	89.62
809.606	88.87
809.781	84.66
809.955	84.83
810.13	86.21
810.304	85.77
810.478	84.82
810.652	83.15
810.827	87.62
811.001	86.07
811.175	80.98
811.349	77.38
811.524	78.86
811.698	81.02
811.872	85.62
812.046	81.46
812.22	84.08
812.394	88.65
812.568	90.29
812.742	92.03
812.916	89.03
813.09	85.63
813.264	89.76
813.438	95.42
813.612	97.1
813.786	96.86
813.96	99.26
814.134	98.9
814.308	93.59
814.482	92.16
814.656	89.08
814.83	88.21
815.003	91.61
815.177	86.69
815.351	87.43
815.525	85.84
815.698	85.05
815.872	83.85
816.046	81.06
816.219	79.7
816.393	78.92
816.567	77.3
816.74	80.99
816.914	84.77
817.088	85.07
817.261	88.98
817.435	86.16
817.608	89.1
817.782	92.67
817.955	92.47
818.129	95.53
818.302	98.85
818.475	101.31
818.649	102.2
818.822	99.57
818.996	93.12
819.169	92.37
819.342	86.7
819.516	82.36
819.689	83.46
819.862	79.61
820.035	82.63
820.209	85.23
820.382	87.57
820.555	91.49
820.728	93.63
820.901	87.11
821.075	85.79
821.248	77.88
821.421	78.48
821.594	79.16
821.767	74.71
821.94	74.49
822.113	77.61
822.286	82.13
822.459	95.81
822.632	96.65
822.805	97.47
822.978	95.75
823.151	96.52
823.324	87.19
823.496	85.22
823.669	82.74
823.842	84.31
824.015	81.34
824.188	83.46
824.361	82.18
824.533	84.28
824.706	101.22
824.879	89.86
825.051	85.66
825.224	83.13
825.397	79.09
825.569	79.33
825.742	80.61
825.915	65.49
826.087	67.74
826.26	68.3
826.432	67.94
826.605	69.25
826.777	72.46
826.95	75.86
827.122	88.94
827.295	86.65
827.467	86.03
827.64	83.44
827.812	89.09
827.984	86.68
828.157	84.31
828.329	75.01
828.501	74.25
828.674	72.32
828.846	71.15
829.018	60.43
829.19	60.15
829.363	61.12
829.535	64.48
829.707	64.51
829.879	67.35
830.051	71.08
830.223	79.25
830.395	79.59
830.568	87.62
830.74	86.6
830.912	85.82
831.084	76.35
831.256	74.64
831.428	72.84
831.6	71.14
831.772	65.41
831.943	71.12
832.115	68.44
832.287	81.34
832.459	84.2
832.631	83.56
832.803	91.51
832.975	94.78
833.146	86.62
833.318	83.85
833.49	78.54
833.662	82.41
833.833	88.28
834.005	81.2
834.177	76.41
834.348	76.89
834.52	89.7
834.692	88.68
834.863	83.54
835.035	76.49
835.206	70.15
835.378	70.99
835.549	73.69
835.721	69.83
835.892	60.24
836.064	66.65
836.235	66.71
836.407	69.66
836.578	68.31
836.749	67.66
836.921	72.09
837.092	91.78
837.264	85.09
837.435	80.29
837.606	84.73
837.777	89.24
837.949	77.96
838.12	63.65
838.291	59.56
838.462	62.07
838.633	68.27
838.805	64.68
838.976	60.6
839.147	64.48
839.318	67.03
839.489	61.08
839.66	66.07
839.831	61.93
840.002	59
840.173	59.88
840.344	59.32
840.515	58.05
840.686	70.1
840.857	68
841.028	69.59
841.199	77.57
841.369	75.94
841.54	77.88
841.711	91.74
841.882	86.69
842.053	90.86
842.223	103.32
842.394	90.98
842.565	93.59
842.736	102.7
842.906	99.1
843.077	82.77
843.248	88.36
843.418	85.54
843.589	84.67
843.759	86.72
843.93	87.38
844.101	79.59
844.271	93.38
844.442	69.36
844.612	72.32
844.783	66.53
844.953	64.48
845.123	66.46
845.294	81.27
845.464	68.57
845.635	80.6
845.805	82.12
845.975	88.33
846.146	80.34
846.316	79.2
846.486	77.58
846.656	91.11
846.827	97.26
846.997	105.41
847.167	103.95
847.337	110.5
847.507	114.26
847.677	124.64
847.848	130.64
848.018	130.73
848.188	118.4
848.358	124.52
848.528	113.6
848.698	90.38
848.868	70.6
849.038	61.59
849.208	63.23
849.378	60.98
849.548	72.2
849.718	80.83
849.887	80.48
850.057	77.36
850.227	83.93
850.397	74.63
850.567	83.84
850.737	80.03
850.906	79.37
851.076	82.48
851.246	82.48
851.415	76.99
851.585	77.45
851.755	77.88
851.924	83.63
852.094	75.77
852.264	74.59
852.433	80.78
852.603	105.24
852.772	99.34
852.942	84.54
853.111	71.56
853.281	67.12
853.45	65.89
853.62	70.46
853.789	44.27
853.959	47.52
854.128	37.3
854.297	46.51
854.467	51.9
854.636	68.65
854.805	52.28
854.975	64.94
855.144	58.56
855.313	83.36
855.482	78.23
855.652	85.49
855.821	73.99
855.99	98.51
856.159	110.19
856.328	104.87
856.497	86.98
856.667	81.78
856.836	82.29
857.005	84
857.174	68.48
857.343	61.81
857.512	65.04
857.681	66.67
857.85	69.76
858.019	58.01
858.188	64.79
858.356	66.57
858.525	61.34
858.694	68.17
858.863	79.72
859.032	81.16
859.201	94.01
859.369	81.14
859.538	80.27
859.707	91.42
859.876	82.58
860.044	73.97
860.213	67.75
860.382	67.91
860.55	72.58
860.719	78.62
860.888	70.1
861.056	60.28
861.225	70.69
861.393	70.06
861.562	63.5
861.73	61.67
861.899	58.39
862.067	72.37
862.236	78.89
862.404	75.71
862.572	77.84
862.741	94.42
862.909	95.36
863.078	99.61
863.246	108.05
863.414	100.52
863.582	80.65
863.751	82.94
863.919	69.88
864.087	65.95
864.255	63.26
864.424	60.24
864.592	61.11
864.76	53.33
864.928	56.16
865.096	49.19
865.264	52.32
865.432	51.92
865.6	43.34
865.768	49.55
865.936	71.29
866.104	76.8
866.272	98.5
866.44	84.01
866.608	64.08
866.776	73.44
866.944	54.12
867.112	47.87
867.28	40.58
867.448	20.45
867.615	23
867.783	31.94
867.951	3.78
868.119	34.33
868.286	27.93
868.454	38.37
868.622	32.81
868.789	59.75
868.957	62.12
869.125	72.66
869.292	69.25
869.46	68.14
869.627	70.35
869.795	75.6
869.963	70.84
870.13	75.96
870.298	71.22
870.465	71.49
870.632	91.32
870.8	70.61
870.967	67.08
871.135	53.66
871.302	55.42
871.469	54.45
871.637	64.27
871.804	67
871.971	70.45
872.139	84.02
872.306	87.2
872.473	83.28
872.64	75.94
872.807	80.77
872.975	101.76
873.142	126.75
873.309	171.23
873.476	305.47
873.643	303.92
873.81	289.02
873.977	208.53
874.144	202.76
874.311	124.46
874.478	41.76
874.645	33.53
874.812	45.47
874.979	64.59
875.146	33.43
875.313	63.81
875.48	149.24
875.647	139.01
875.813	100.68
875.98	93.87
876.147	85.17
876.314	91.28
876.481	60.98
876.647	43.38
876.814	56.09
876.981	52.21
877.147	48.8
877.314	45.21
877.481	50.04
877.647	60.05
877.814	67.26
877.98	72.76
878.147	72.39
878.314	53.32
878.48	66.43
878.647	106.5
878.813	120.7
878.979	139.7
879.146	120.85
879.312	145.53
879.479	120.17
879.645	104.21
879.811	77.5
879.978	86.37
880.144	84.56
880.31	76.56
880.477	45.84
880.643	187.81
880.809	165.92
880.975	129.49
881.142	78.47
881.308	93.36
881.474	129.52
881.64	134.54
881.806	93.41
881.972	119.71
882.138	108.12
882.304	137.39
882.47	126.88
882.636	63.98
882.802	29.99
882.968	-70.59
883.134	-212.42
883.3	-101.05
883.466	-31.25
883.632	-58.07
883.798	-31.75
883.964	11.08
884.129	57
884.295	54.79
884.461	85.69
884.627	50.84
884.793	79.8
884.958	85.82
885.124	61.89
885.29	41.18
885.455	36.08
885.621	44.44
885.787	54.72
885.952	48.19
886.118	66.74
886.283	70.12
886.449	65.68
886.614	82.55
886.78	66.74
886.945	66.68
887.111	57.55
887.276	29.48
887.442	31.76
887.607	43.74
887.773	46.06
887.938	21.78
888.103	27.61
888.269	47.92
888.434	62.48
888.599	65.45
888.764	49.82
888.93	48.11
889.095	38.35
889.26	56.86
889.425	68.25
889.59	43.42
889.756	57.25
889.921	73.07
890.086	78.04
890.251	114.38
890.416	131.62
890.581	80.81
890.746	76.69
890.911	38.33
891.076	32.45
891.241	17.49
891.406	7.5
891.571	15.46
891.736	28.14
891.901	60.18
892.065	52.59
892.23	31.13
892.395	27.69
892.56	10.28
892.725	-10.39
892.889	-23.03
893.054	-58.75
893.219	-46.66
893.384	-29.9
893.548	-105
893.713	-47.03
893.878	-54.89
