Data from Ofra_1a_PS_2CX8_Reflection_1.txt Node
Date: Tue Jul 20 10:47:40 EDT 2021
User: Adam
Spectrometer: FLMT01687
Trigger mode: 0
Integration Time (sec): 1.004000E0
Scans to average: 2
Electric dark correction enabled: true
Nonlinearity correction enabled: false
Boxcar width: 2
XAxis mode: Wavelengths
Number of Pixels in Spectrum: 3648
>>>>>Begin Spectral Data<<<<<
179.494	-449.24
179.716	-682.44
179.937	1074.58
180.158	-1022.29
180.38	78.73
180.601	3.66
180.823	-177.85
181.044	-229.36
181.265	-301.43
181.486	161.87
181.708	112.28
181.929	2154.55
182.15	-160.37
182.372	435.96
182.593	554.04
182.814	-317.32
183.035	-60.17
183.257	-23.19
183.478	-36.74
183.699	-22.27
183.92	-48.19
184.141	-35.59
184.363	6.34
184.584	-25.65
184.805	-5.32
185.026	13.56
185.247	12.36
185.468	-24.25
185.689	4.97
185.91	-16.53
186.132	9.65
186.353	3.78
186.574	23.54
186.795	24.43
187.016	35.14
187.237	22.38
187.458	-10.01
187.679	-33.14
187.9	-11.88
188.121	-15.22
188.342	-1.92
188.563	18.2
188.784	44.06
189.005	41.26
189.226	30.64
189.447	23.94
189.667	10.88
189.888	-14.64
190.109	-65.38
190.33	-58.28
190.551	-70.67
190.772	-64.43
190.993	-76.68
191.214	-88.14
191.434	-134
191.655	-158.36
191.876	-85.33
192.097	-34.81
192.318	14.83
192.538	2.07
192.759	9.13
192.98	5.91
193.201	-6.52
193.421	-25.54
193.642	-9.59
193.863	-4.6
194.083	5.11
194.304	10.88
194.525	42.33
194.745	24.42
194.966	7.3
195.187	-10.7
195.407	-15.64
195.628	-16.59
195.848	-11.95
196.069	-30.5
196.29	-20.62
196.51	-42.41
196.731	-63.96
196.951	-63
197.172	-28.01
197.392	-38.33
197.613	-13.2
197.833	-12.08
198.054	-11.21
198.274	-19.33
198.495	-13.89
198.715	-39.48
198.936	-8.33
199.156	-11.99
199.377	-20.08
199.597	-8.3
199.817	-4.93
200.038	-73.63
200.258	-57.7
200.479	-30.57
200.699	-32.02
200.919	-24.11
201.14	14.46
201.36	28.79
201.58	-28.02
201.801	-38.47
202.021	-60.48
202.241	-78.81
202.461	-63.5
202.682	-26.35
202.902	-10.43
203.122	14.58
203.342	15.9
203.563	-9.66
203.783	-25.95
204.003	-50.51
204.223	-30.34
204.443	-29.36
204.663	-55.83
204.884	-18.52
205.104	5.31
205.324	20.09
205.544	-14.84
205.764	27.87
205.984	19.08
206.204	13.07
206.424	-35.5
206.644	-32.51
206.864	-68.91
207.084	-44.24
207.304	-36.65
207.525	-24.57
207.745	-0.56
207.964	-3.21
208.184	-8.46
208.404	-26.22
208.624	-17.11
208.844	-21.73
209.064	-23.36
209.284	-25.9
209.504	-48.29
209.724	-52.16
209.944	-77.59
210.164	-50.76
210.384	-61.36
210.604	-54.57
210.823	-50.66
211.043	-17.35
211.263	-73.71
211.483	-41.48
211.703	-24.99
211.922	-43.57
212.142	-14.29
212.362	7.66
212.582	-1.23
212.801	-31.86
213.021	-30.92
213.241	-58.67
213.461	-63.01
213.68	-29.47
213.9	-21.11
214.12	-37.49
214.339	-36.96
214.559	-46.95
214.779	-76.65
214.998	-67.42
215.218	-17
215.438	-7.17
215.657	-23.43
215.877	-34.51
216.096	-13.23
216.316	-26.27
216.535	-39.43
216.755	-21.14
216.974	-12.71
217.194	-41.03
217.413	-31.61
217.633	-35.59
217.852	-22.3
218.072	-17.14
218.291	-6.24
218.511	-11.49
218.73	-12.76
218.95	-31.06
219.169	-27.98
219.389	-38.18
219.608	-45.74
219.827	-41.57
220.047	-32.4
220.266	-67.74
220.485	-67.08
220.705	-34.75
220.924	-47.27
221.143	-8.47
221.363	9.9
221.582	7.59
221.801	3.05
222.021	16.27
222.24	4.5
222.459	13.17
222.678	6.19
222.897	-3.46
223.117	1.03
223.336	15.53
223.555	21.18
223.774	24.54
223.993	29.69
224.213	25.35
224.432	8.55
224.651	-2.63
224.87	10.93
225.089	11.4
225.308	18.09
225.527	0.41
225.746	-2.74
225.965	-8.33
226.184	-24.63
226.404	-42.68
226.623	-27.95
226.842	-32.19
227.061	-30.06
227.28	-8.62
227.499	4.58
227.718	10.82
227.936	19.44
228.155	8.17
228.374	6.67
228.593	7.39
228.812	-6.03
229.031	8.15
229.25	1.99
229.469	2.44
229.688	-1.35
229.907	9.66
230.125	2.55
230.344	20.43
230.563	15.36
230.782	11.08
231.001	17.04
231.22	13.6
231.438	12.37
231.657	18.01
231.876	17.45
232.095	25.57
232.313	5.57
232.532	-19.08
232.751	-33.98
232.969	-19.05
233.188	-56.14
233.407	-35.63
233.625	-18.69
233.844	-14.58
234.063	-35.42
234.281	-23.66
234.5	-19.19
234.719	-30.03
234.937	-54.18
235.156	-38.33
235.374	-25.58
235.593	-3.35
235.811	21.01
236.03	30.72
236.249	29.25
236.467	37.71
236.686	17.56
236.904	14.78
237.123	2.6
237.341	-4.89
237.559	-26.51
237.778	0.86
237.996	-24.7
238.215	-62.53
238.433	-101.26
238.652	-15.54
238.87	-39.35
239.088	-19.74
239.307	2.88
239.525	10.68
239.743	-13.14
239.962	-11.59
240.18	-9.76
240.398	-14.43
240.617	-15.16
240.835	-6.25
241.053	-20.93
241.271	-2.21
241.49	9.94
241.708	10.11
241.926	-8.72
242.144	14.27
242.363	-22.39
242.581	-64.34
242.799	-106.29
243.017	-34.19
243.235	-24.22
243.453	-20.33
243.672	-18.65
243.89	3.4
244.108	-3.83
244.326	13.57
244.544	24.29
244.762	27.62
244.98	29.36
245.198	30.64
245.416	16.49
245.634	7.11
245.852	-8.39
246.07	3.75
246.288	0.21
246.506	-2.85
246.724	-7.36
246.942	4.17
247.16	4.14
247.378	-1.22
247.596	23.64
247.814	1.51
248.032	-15.11
248.25	-15.28
248.468	4.3
248.685	10.13
248.903	7.18
249.121	26.89
249.339	20.06
249.557	17.21
249.775	13.15
249.992	26.68
250.21	-0.12
250.428	20.72
250.646	11.24
250.863	-12.98
251.081	-7.82
251.299	6.44
251.517	0.05
251.734	6.5
251.952	12.52
252.17	-9.95
252.387	-17.64
252.605	-26.67
252.823	-52.53
253.04	-33.44
253.258	13.19
253.475	6.29
253.693	17.02
253.911	27.88
254.128	21.11
254.346	15.34
254.563	31.58
254.781	18.16
254.998	21.82
255.216	0.59
255.433	-35.18
255.651	-41.03
255.868	-23.53
256.086	-12.35
256.303	-2.45
256.521	21.72
256.738	14.95
256.956	7.79
257.173	2.46
257.39	5.14
257.608	-1.99
257.825	-3.18
258.043	7.24
258.26	-5.31
258.477	-3.86
258.695	-3.8
258.912	-4.15
259.129	-18.94
259.346	-21.16
259.564	-22.15
259.781	-28.08
259.998	-7.86
260.216	-2.97
260.433	-5.61
260.65	7.69
260.867	1.78
261.084	-3.05
261.302	-13.4
261.519	18.66
261.736	11.14
261.953	7.31
262.17	14.73
262.387	6.79
262.604	-7.27
262.822	-7.57
263.039	2.03
263.256	-7.2
263.473	-1.8
263.69	-1.18
263.907	1.07
264.124	5.47
264.341	13.15
264.558	14.09
264.775	15.28
264.992	11.47
265.209	-1.1
265.426	-7.37
265.643	22.64
265.86	51.13
266.077	25.16
266.294	16.16
266.51	34.28
266.727	16.97
266.944	19.51
267.161	14.54
267.378	24.86
267.595	0.04
267.812	-18.55
268.028	-52.02
268.245	-21.32
268.462	-20.38
268.679	-21.53
268.896	4.1
269.112	22.28
269.329	-9.26
269.546	6.03
269.763	20.08
269.979	16.15
270.196	21.23
270.413	35.86
270.629	10.97
270.846	8.19
271.063	-13.01
271.279	-14.13
271.496	-32.25
271.712	-3.26
271.929	-2.73
272.146	5.22
272.362	4.36
272.579	5.54
272.795	-25.29
273.012	-17.3
273.228	-11.31
273.445	-14.04
273.661	-26.35
273.878	-18.18
274.094	-41.86
274.311	-34.59
274.527	-71
274.744	-25.97
274.96	-9.09
275.177	-0.96
275.393	4.8
275.609	22.84
275.826	13.19
276.042	9.47
276.259	13.97
276.475	6.4
276.691	8.43
276.908	1.4
277.124	7.99
277.34	8.24
277.557	-1.78
277.773	-17.58
277.989	-13.13
278.205	-6.39
278.422	-4.78
278.638	1.61
278.854	-8.82
279.07	10.1
279.286	-8.19
279.503	0.61
279.719	13.19
279.935	22.52
280.151	4.59
280.367	14.32
280.583	-0.28
280.799	-16.78
281.016	-44.92
281.232	-20.85
281.448	-6.49
281.664	4.35
281.88	15.95
282.096	21.16
282.312	15.04
282.528	8.48
282.744	-0.44
282.96	-28.71
283.176	-44.91
283.392	-94.43
283.608	-76.3
283.824	-109.31
284.04	-123.15
284.256	-52.37
284.471	-27.49
284.687	-32.58
284.903	-8.58
285.119	9.66
285.335	7.28
285.551	11.59
285.767	9.17
285.982	-0.41
286.198	-10.91
286.414	-34.66
286.63	-67.97
286.846	-64.3
287.061	-58.42
287.277	-41.13
287.493	-31.29
287.709	-13
287.924	3.79
288.14	18.42
288.356	19.5
288.571	18.63
288.787	3.02
289.003	-8.25
289.218	-29.56
289.434	-25.92
289.65	-1.4
289.865	8.31
290.081	22.53
290.296	28.06
290.512	23.81
290.727	7.35
290.943	9.41
291.159	1.16
291.374	-17.45
291.59	1.39
291.805	-4.07
292.021	-7.33
292.236	-5.32
292.451	15.18
292.667	0.04
292.882	10.27
293.098	12.69
293.313	-8.85
293.529	-9.12
293.744	-16.08
293.959	-15.92
294.175	-3.76
294.39	3.72
294.605	6.06
294.821	6.48
295.036	5.9
295.251	9.91
295.467	17.66
295.682	11.34
295.897	3.94
296.112	1.98
296.328	-4.74
296.543	-18.32
296.758	-5.48
296.973	-3.28
297.188	-3.57
297.404	-32.68
297.619	-27.56
297.834	-73.82
298.049	-63.13
298.264	-80.07
298.479	-57.35
298.694	-17
298.909	-12.31
299.125	-7.28
299.34	10.65
299.555	14.47
299.77	24.46
299.985	34.95
300.2	42.5
300.415	40.71
300.63	43.84
300.845	35.07
301.06	24.05
301.275	17.71
301.49	14.39
301.704	-1.14
301.919	-7.88
302.134	-2.95
302.349	-1.5
302.564	-8.32
302.779	-22.49
302.994	-3.98
303.209	-9.92
303.423	-19.31
303.638	-22.28
303.853	-10.52
304.068	-47.43
304.283	-31.89
304.497	-46.56
304.712	-12.91
304.927	-10.38
305.142	3.37
305.356	-7.33
305.571	4.91
305.786	-6.93
306	-4.67
306.215	-22.41
306.43	-6.15
306.644	-25
306.859	-43.61
307.074	-23.2
307.288	5.92
307.503	6.86
307.717	10.86
307.932	12.86
308.147	9.58
308.361	4.52
308.576	-14.95
308.79	1.5
309.005	10.29
309.219	4.23
309.434	6.7
309.648	7.57
309.863	-3.4
310.077	2.05
310.292	8.7
310.506	-2.53
310.72	-6.46
310.935	14.37
311.149	13.48
311.364	7.71
311.578	21.24
311.792	29.09
312.007	15.52
312.221	-11.98
312.435	2.55
312.649	6.54
312.864	6.45
313.078	8.24
313.292	15.68
313.507	8.36
313.721	-0.4
313.935	-4.59
314.149	-3.72
314.363	1.55
314.578	4.93
314.792	-29.77
315.006	-31.61
315.22	-25.38
315.434	-23.34
315.648	-26.93
315.862	-5.55
316.077	8.74
316.291	14.65
316.505	2.68
316.719	6.38
316.933	0.98
317.147	-13.66
317.361	-20.7
317.575	-17.13
317.789	-20.91
318.003	-25.23
318.217	-3.17
318.431	-13.31
318.645	-17.58
318.859	-1.77
319.073	16.27
319.287	-0.45
319.5	6.58
319.714	4.74
319.928	-3.63
320.142	-8.71
320.356	-0.83
320.57	-25.16
320.784	-7.12
320.997	-5.22
321.211	0.92
321.425	-8.22
321.639	10.33
321.853	6.79
322.066	2.03
322.28	-10.09
322.494	-3.16
322.707	0.87
322.921	4.81
323.135	5.58
323.349	4.15
323.562	5.79
323.776	-1.69
323.989	14.13
324.203	8.37
324.417	10.17
324.63	-5.84
324.844	-5.07
325.057	-44.98
325.271	-40.02
325.485	-38.23
325.698	-21.93
325.912	-3.87
326.125	-8.16
326.339	-0.11
326.552	-11.86
326.766	-19.44
326.979	-34.02
327.193	-18.17
327.406	-29.06
327.619	-7.87
327.833	3.84
328.046	10.35
328.26	12.41
328.473	9.42
328.686	9.25
328.9	10.63
329.113	-6.3
329.326	-21.05
329.54	-16.23
329.753	-10.77
329.966	-7.69
330.179	1.39
330.393	-0.35
330.606	6.68
330.819	5.26
331.032	-3.33
331.246	2.21
331.459	17.02
331.672	11.15
331.885	6.57
332.098	1.35
332.311	-23.61
332.525	-15.66
332.738	-10.15
332.951	-11.43
333.164	0.28
333.377	10.15
333.59	-9.96
333.803	-14.7
334.016	-7.26
334.229	-7.9
334.442	-13.13
334.655	11.33
334.868	4.23
335.081	-10.6
335.294	-24.57
335.507	-8.11
335.72	-21.05
335.933	-12.22
336.146	-8.51
336.359	5.72
336.572	1.59
336.785	4.09
336.997	-0.17
337.21	8.13
337.423	-13.4
337.636	-9.94
337.849	0.62
338.062	-2.8
338.274	4.13
338.487	0.19
338.7	-16.81
338.913	-21.33
339.125	-23.66
339.338	-19.7
339.551	-22.91
339.763	-16.2
339.976	-15.83
340.189	-16.03
340.402	-19.49
340.614	-2.23
340.827	7.84
341.039	3.84
341.252	-2.05
341.465	-13.87
341.677	-16.29
341.89	-22.29
342.102	-9.02
342.315	-2.21
342.527	2.57
342.74	-4.23
342.952	-5.38
343.165	-4.7
343.377	1.97
343.59	7.92
343.802	11.76
344.015	16.63
344.227	7.19
344.44	-14.98
344.652	-27.39
344.864	-27.6
345.077	-26.18
345.289	-13.4
345.502	14.97
345.714	16.88
345.926	14.71
346.139	-1.1
346.351	-5.98
346.563	-13.2
346.775	11.09
346.988	18.07
347.2	22.18
347.412	32.73
347.624	21.74
347.837	17.74
348.049	3.77
348.261	-0.37
348.473	-17.8
348.685	-15.37
348.897	-27.67
349.11	-13.02
349.322	1.21
349.534	10.57
349.746	3.91
349.958	0.5
350.17	-14.46
350.382	-38.02
350.594	-37.13
350.806	-10.32
351.018	-7.85
351.23	3.04
351.442	18.46
351.654	19.13
351.866	7.78
352.078	11.04
352.29	21.72
352.502	5.64
352.714	4.6
352.926	-1.75
353.138	17.08
353.35	0.31
353.561	8.04
353.773	6.02
353.985	5.51
354.197	1.83
354.409	1.66
354.621	-18.92
354.832	-14.38
355.044	-17.11
355.256	-27.47
355.468	-14.56
355.679	15.31
355.891	12.66
356.103	13.42
356.314	6.92
356.526	-18.91
356.738	-32.43
356.949	-27.73
357.161	-12.78
357.373	-7.41
357.584	5.58
357.796	7.46
358.008	7.74
358.219	-13.86
358.431	-13.44
358.642	-2.92
358.854	-4.96
359.065	-17.04
359.277	-1.2
359.488	-14.17
359.7	-11.92
359.911	-16.54
360.123	-6.37
360.334	-18.96
360.546	-17.4
360.757	-21.74
360.969	-26.46
361.18	-37.33
361.391	-18.85
361.603	-9.26
361.814	-9.45
362.025	8.76
362.237	18.52
362.448	17.66
362.659	7.14
362.871	-7.56
363.082	-9.34
363.293	-37.13
363.504	-59.11
363.716	-49.31
363.927	-13.46
364.138	-53.79
364.349	-48.88
364.56	-61.18
364.772	-40.77
364.983	-31.06
365.194	-5.66
365.405	3.2
365.616	17.25
365.827	4.89
366.038	-4.47
366.25	-5.88
366.461	1.67
366.672	2.79
366.883	9.26
367.094	10.27
367.305	-8.98
367.516	-6.77
367.727	-9.01
367.938	-14.71
368.149	-28.01
368.36	-11.81
368.571	-29.76
368.781	-40.82
368.992	-42.34
369.203	-35.06
369.414	-33.5
369.625	-28.89
369.836	-1.12
370.047	8.34
370.258	13.77
370.468	11.77
370.679	16.05
370.89	7.31
371.101	12.2
371.312	9.7
371.522	8.99
371.733	8.95
371.944	-11.97
372.155	-12.62
372.365	0.04
372.576	-4.56
372.787	-0.39
372.997	5.94
373.208	-0.68
373.419	-4.02
373.629	0.17
373.84	-7.7
374.05	-5.78
374.261	-18.83
374.472	-19.14
374.682	-8.6
374.893	-24.25
375.103	-16.35
375.314	-3.99
375.524	-8.69
375.735	-10.65
375.945	2.86
376.156	1.29
376.366	-3.26
376.577	2.57
376.787	-8.52
376.997	-0.83
377.208	4.98
377.418	4.54
377.629	6.69
377.839	13.37
378.049	15.39
378.26	9.64
378.47	6.57
378.68	-2.86
378.89	-3.51
379.101	-11.17
379.311	-16.28
379.521	-12.57
379.732	-3.09
379.942	5.49
380.152	-4.01
380.362	5.78
380.572	24.85
380.783	30.37
380.993	23.78
381.203	30.86
381.413	27.24
381.623	11.41
381.833	10.69
382.043	2.28
382.253	4.69
382.463	11.06
382.674	20.65
382.884	13.44
383.094	20.98
383.304	14.29
383.514	13.65
383.724	7.25
383.934	-2.37
384.144	-0.21
384.353	1.38
384.563	-3.27
384.773	1.8
384.983	1.5
385.193	-0.14
385.403	0.98
385.613	-0.2
385.823	-0.79
386.033	7.55
386.242	3.08
386.452	0.89
386.662	3.01
386.872	5.19
387.082	2.8
387.291	6.16
387.501	12.25
387.711	10.31
387.921	4.8
388.13	6.06
388.34	6.04
388.55	-0.5
388.759	-2.72
388.969	-3.94
389.179	-5.54
389.388	-7.94
389.598	-6.39
389.807	-10.93
390.017	-8.12
390.227	-10.66
390.436	-8.8
390.646	-11.49
390.855	-4.2
391.065	-4.88
391.274	-2.48
391.484	-3.02
391.693	-0.05
391.903	-1.33
392.112	-2.11
392.322	-1.58
392.531	-2.59
392.74	-3.31
392.95	-0.91
393.159	-0.27
393.369	1.13
393.578	1.64
393.787	3.02
393.997	2.94
394.206	2.12
394.415	1.97
394.625	1.72
394.834	-0.62
395.043	-0.74
395.252	2.57
395.462	2.49
395.671	3.48
395.88	5.8
396.089	5.46
396.298	4.18
396.508	4.51
396.717	4.1
396.926	3.39
397.135	3.76
397.344	3.19
397.553	2.01
397.762	3.55
397.971	3.02
398.181	2.8
398.39	2.75
398.599	3.49
398.808	2.24
399.017	3.45
399.226	3.17
399.435	3.33
399.644	3.72
399.853	4.13
400.062	4.09
400.27	4.28
400.479	4.14
400.688	4.05
400.897	3.75
401.106	3.65
401.315	3.61
401.524	3.82
401.733	3.2
401.941	3.56
402.15	3.21
402.359	3.24
402.568	3.47
402.777	3.91
402.985	3.5
403.194	3.46
403.403	3.69
403.612	3.21
403.82	2.68
404.029	2.83
404.238	3.03
404.446	2.96
404.655	3.25
404.864	3.53
405.072	3.62
405.281	3.48
405.489	3.33
405.698	3.41
405.906	3.5
406.115	3.39
406.324	3.37
406.532	3.52
406.741	3.48
406.949	3.49
407.158	3.6
407.366	3.71
407.574	3.66
407.783	3.72
407.991	3.79
408.2	3.8
408.408	3.69
408.617	3.64
408.825	3.34
409.033	3.23
409.242	3.28
409.45	3.28
409.658	3.23
409.867	3.29
410.075	3.38
410.283	3.19
410.491	3.12
410.7	3.06
410.908	3.05
411.116	3.03
411.324	3.1
411.533	3.11
411.741	3.14
411.949	3.3
412.157	3.13
412.365	3.05
412.573	3.03
412.781	3
412.99	2.89
413.198	3
413.406	3.18
413.614	3.39
413.822	3.5
414.03	3.61
414.238	3.6
414.446	3.47
414.654	3.19
414.862	3.13
415.07	2.99
415.278	3.01
415.486	2.87
415.694	3.04
415.902	2.99
416.109	2.97
416.317	3.02
416.525	3.09
416.733	3.09
416.941	3.22
417.149	3.1
417.357	3.09
417.564	3.08
417.772	3.14
417.98	3.03
418.188	3.06
418.395	2.75
418.603	2.76
418.811	2.66
419.019	2.69
419.226	2.77
419.434	2.87
419.642	2.7
419.849	2.52
420.057	2.46
420.265	2.54
420.472	2.64
420.68	2.69
420.887	2.85
421.095	3.07
421.302	3.06
421.51	2.98
421.717	3.2
421.925	3.24
422.132	3.03
422.34	2.93
422.547	2.76
422.755	2.75
422.962	2.79
423.17	2.58
423.377	2.5
423.585	2.83
423.792	2.67
423.999	2.55
424.207	2.72
424.414	2.79
424.621	2.73
424.829	2.89
425.036	2.85
425.243	2.89
425.451	2.83
425.658	2.74
425.865	2.48
426.072	2.43
426.28	2.47
426.487	2.54
426.694	2.54
426.901	2.7
427.108	2.84
427.315	2.78
427.523	2.64
427.73	2.62
427.937	2.45
428.144	2.36
428.351	2.34
428.558	2.52
428.765	2.52
428.972	2.66
429.179	2.6
429.386	2.53
429.593	2.39
429.8	2.33
430.007	2.29
430.214	2.4
430.421	2.6
430.628	2.64
430.835	2.66
431.042	2.65
431.249	2.6
431.456	2.48
431.662	2.48
431.869	2.66
432.076	2.7
432.283	2.82
432.49	2.86
432.697	2.91
432.903	2.74
433.11	2.87
433.317	2.84
433.524	2.85
433.73	2.79
433.937	2.99
434.144	2.74
434.35	2.69
434.557	2.7
434.764	2.78
434.97	2.61
435.177	2.84
435.384	2.9
435.59	2.92
435.797	2.99
436.003	3.07
436.21	2.91
436.416	2.88
436.623	2.95
436.829	2.82
437.036	2.78
437.242	2.93
437.449	2.98
437.655	2.96
437.862	3.02
438.068	3.04
438.275	3.06
438.481	3.06
438.687	3.03
438.894	3.12
439.1	3.11
439.307	3.2
439.513	3.21
439.719	3.27
439.926	3.24
440.132	3.31
440.338	3.16
440.544	3.1
440.751	2.93
440.957	2.93
441.163	2.82
441.369	2.87
441.575	2.86
441.782	3.12
441.988	3.12
442.194	3.18
442.4	3.18
442.606	3.32
442.812	3.14
443.018	3.19
443.224	3.32
443.431	3.22
443.637	3.15
443.843	3.26
444.049	3.24
444.255	3.16
444.461	3.26
444.667	3.34
444.873	3.27
445.079	3.26
445.284	3.3
445.49	3.41
445.696	3.33
445.902	3.33
446.108	3.36
446.314	3.29
446.52	3.25
446.726	3.28
446.931	3.29
447.137	3.3
447.343	3.39
447.549	3.29
447.755	3.24
447.96	3.29
448.166	3.24
448.372	3.25
448.578	3.29
448.783	3.38
448.989	3.45
449.195	3.47
449.4	3.53
449.606	3.53
449.812	3.45
450.017	3.39
450.223	3.34
450.428	3.33
450.634	3.31
450.84	3.32
451.045	3.31
451.251	3.42
451.456	3.39
451.662	3.43
451.867	3.46
452.073	3.49
452.278	3.45
452.483	3.47
452.689	3.42
452.894	3.54
453.1	3.56
453.305	3.64
453.51	3.67
453.716	3.75
453.921	3.71
454.127	3.64
454.332	3.58
454.537	3.52
454.742	3.53
454.948	3.48
455.153	3.57
455.358	3.62
455.563	3.71
455.769	3.66
455.974	3.67
456.179	3.66
456.384	3.63
456.589	3.54
456.795	3.55
457	3.58
457.205	3.52
457.41	3.57
457.615	3.62
457.82	3.71
458.025	3.68
458.23	3.75
458.435	3.72
458.64	3.7
458.845	3.75
459.05	3.85
459.255	3.83
459.46	3.98
459.665	4.08
459.87	4.09
460.075	4.16
460.28	4.27
460.485	4.22
460.69	4.23
460.895	4.25
461.099	4.09
461.304	4.09
461.509	4.13
461.714	4.17
461.919	4.1
462.123	4.16
462.328	4.16
462.533	4.1
462.738	4.05
462.942	4.03
463.147	4.07
463.352	4.15
463.556	4.27
463.761	4.33
463.966	4.47
464.17	4.56
464.375	4.54
464.58	4.49
464.784	4.51
464.989	4.51
465.193	4.46
465.398	4.6
465.602	4.73
465.807	4.75
466.011	4.81
466.216	4.82
466.42	4.83
466.625	4.87
466.829	4.89
467.034	4.92
467.238	5.09
467.443	5.01
467.647	4.93
467.851	5.01
468.056	5.07
468.26	4.98
468.464	5.06
468.669	5.13
468.873	5.07
469.077	5
469.282	5.09
469.486	5.07
469.69	5.19
469.894	5.3
470.099	5.35
470.303	5.37
470.507	5.47
470.711	5.39
470.915	5.46
471.119	5.5
471.324	5.56
471.528	5.64
471.732	5.75
471.936	5.73
472.14	5.73
472.344	5.87
472.548	5.85
472.752	5.75
472.956	5.73
473.16	5.75
473.364	5.61
473.568	5.59
473.772	5.61
473.976	5.76
474.18	5.81
474.384	5.83
474.588	5.9
474.792	5.96
474.995	5.93
475.199	6
475.403	6.04
475.607	6.06
475.811	6.07
476.015	6
476.218	5.9
476.422	5.92
476.626	6
476.83	6.15
477.033	6.24
477.237	6.37
477.441	6.34
477.644	6.26
477.848	6.21
478.052	6.26
478.255	6.28
478.459	6.37
478.663	6.47
478.866	6.5
479.07	6.41
479.273	6.47
479.477	6.54
479.681	6.52
479.884	6.56
480.088	6.66
480.291	6.61
480.495	6.49
480.698	6.44
480.901	6.44
481.105	6.43
481.308	6.44
481.512	6.51
481.715	6.63
481.919	6.64
482.122	6.66
482.325	6.7
482.529	6.67
482.732	6.62
482.935	6.57
483.138	6.53
483.342	6.51
483.545	6.6
483.748	6.63
483.952	6.69
484.155	6.76
484.358	6.79
484.561	6.76
484.764	6.77
484.967	6.7
485.171	6.69
485.374	6.71
485.577	6.67
485.78	6.64
485.983	6.67
486.186	6.68
486.389	6.63
486.592	6.71
486.795	6.74
486.998	6.73
487.201	6.7
487.404	6.81
487.607	6.75
487.81	6.72
488.013	6.77
488.216	6.7
488.419	6.6
488.622	6.6
488.825	6.61
489.028	6.6
489.231	6.59
489.433	6.62
489.636	6.64
489.839	6.69
490.042	6.71
490.245	6.75
490.447	6.74
490.65	6.71
490.853	6.67
491.056	6.57
491.258	6.65
491.461	6.56
491.664	6.51
491.866	6.47
492.069	6.56
492.272	6.48
492.474	6.5
492.677	6.58
492.879	6.57
493.082	6.62
493.285	6.68
493.487	6.71
493.69	6.69
493.892	6.66
494.095	6.56
494.297	6.61
494.5	6.63
494.702	6.68
494.905	6.74
495.107	6.83
495.309	6.77
495.512	6.75
495.714	6.77
495.917	6.8
496.119	6.81
496.321	6.79
496.524	6.77
496.726	6.7
496.928	6.67
497.13	6.6
497.333	6.67
497.535	6.75
497.737	6.78
497.939	6.82
498.142	6.83
498.344	6.8
498.546	6.79
498.748	6.85
498.95	6.94
499.152	6.95
499.355	6.92
499.557	6.9
499.759	6.88
499.961	6.79
500.163	6.82
500.365	6.91
500.567	6.97
500.769	6.98
500.971	7.01
501.173	7.01
501.375	7.07
501.577	7.14
501.779	7.19
501.981	7.21
502.183	7.22
502.385	7.18
502.587	7.15
502.788	7.16
502.99	7.2
503.192	7.25
503.394	7.24
503.596	7.21
503.798	7.15
503.999	7.13
504.201	7.16
504.403	7.2
504.605	7.21
504.806	7.31
505.008	7.32
505.21	7.33
505.411	7.4
505.613	7.4
505.815	7.4
506.016	7.44
506.218	7.48
506.42	7.44
506.621	7.47
506.823	7.48
507.024	7.45
507.226	7.46
507.427	7.46
507.629	7.54
507.83	7.54
508.032	7.55
508.233	7.59
508.435	7.62
508.636	7.7
508.838	7.78
509.039	7.77
509.24	7.79
509.442	7.83
509.643	7.75
509.845	7.67
510.046	7.75
510.247	7.74
510.448	7.73
510.65	7.74
510.851	7.83
511.052	7.86
511.254	7.91
511.455	7.96
511.656	7.93
511.857	7.92
512.058	7.95
512.26	7.88
512.461	7.91
512.662	8
512.863	7.99
513.064	7.96
513.265	7.97
513.466	7.96
513.667	7.97
513.868	7.97
514.069	7.97
514.27	8.04
514.471	7.98
514.672	7.98
514.873	8.05
515.074	8.09
515.275	8.05
515.476	8.13
515.677	8.17
515.878	8.14
516.079	8.13
516.28	8.18
516.481	8.19
516.682	8.23
516.882	8.25
517.083	8.28
517.284	8.29
517.485	8.31
517.686	8.3
517.886	8.32
518.087	8.3
518.288	8.31
518.488	8.3
518.689	8.25
518.89	8.25
519.091	8.31
519.291	8.28
519.492	8.28
519.692	8.33
519.893	8.41
520.094	8.39
520.294	8.47
520.495	8.48
520.695	8.5
520.896	8.46
521.096	8.49
521.297	8.48
521.497	8.51
521.698	8.48
521.898	8.5
522.099	8.46
522.299	8.43
522.499	8.42
522.7	8.44
522.9	8.49
523.101	8.52
523.301	8.56
523.501	8.63
523.702	8.67
523.902	8.62
524.102	8.68
524.302	8.72
524.503	8.71
524.703	8.63
524.903	8.66
525.103	8.61
525.304	8.57
525.504	8.64
525.704	8.7
525.904	8.7
526.104	8.71
526.304	8.8
526.504	8.79
526.705	8.8
526.905	8.86
527.105	8.88
527.305	8.8
527.505	8.77
527.705	8.74
527.905	8.79
528.105	8.83
528.305	8.9
528.505	8.94
528.705	9.07
528.905	8.99
529.105	9.02
529.304	9.04
529.504	9.13
529.704	9.08
529.904	9.14
530.104	9.1
530.304	9.13
530.503	9.1
530.703	9.11
530.903	9.12
531.103	9.21
531.303	9.23
531.502	9.3
531.702	9.35
531.902	9.45
532.101	9.4
532.301	9.43
532.501	9.5
532.7	9.48
532.9	9.49
533.1	9.59
533.299	9.56
533.499	9.51
533.698	9.59
533.898	9.57
534.097	9.6
534.297	9.59
534.496	9.61
534.696	9.61
534.895	9.74
535.095	9.72
535.294	9.83
535.494	9.86
535.693	9.93
535.892	9.87
536.092	9.91
536.291	9.92
536.491	9.93
536.69	9.96
536.889	9.97
537.088	10.01
537.288	10.06
537.487	10.07
537.686	10.05
537.886	10.14
538.085	10.17
538.284	10.23
538.483	10.29
538.682	10.34
538.882	10.35
539.081	10.4
539.28	10.41
539.479	10.43
539.678	10.47
539.877	10.57
540.076	10.58
540.275	10.62
540.474	10.63
540.673	10.73
540.872	10.68
541.071	10.75
541.27	10.84
541.469	10.97
541.668	11.03
541.867	11.13
542.066	11.21
542.265	11.28
542.464	11.32
542.663	11.39
542.862	11.47
543.06	11.53
543.259	11.63
543.458	11.73
543.657	11.7
543.856	11.77
544.054	11.77
544.253	11.75
544.452	11.73
544.651	11.84
544.849	11.86
545.048	11.97
545.247	12.04
545.445	12.13
545.644	12.14
545.843	12.19
546.041	12.24
546.24	12.25
546.438	12.33
546.637	12.42
546.836	12.52
547.034	12.59
547.233	12.71
547.431	12.75
547.63	12.78
547.828	12.81
548.027	12.81
548.225	12.85
548.423	12.96
548.622	13.05
548.82	13.14
549.019	13.29
549.217	13.43
549.415	13.5
549.614	13.69
549.812	13.8
550.01	13.84
550.209	13.88
550.407	13.98
550.605	13.9
550.803	14
551.002	14.12
551.2	14.14
551.398	14.28
551.596	14.47
551.794	14.51
551.993	14.59
552.191	14.8
552.389	14.81
552.587	14.91
552.785	14.99
552.983	15.18
553.181	15.24
553.379	15.36
553.577	15.39
553.775	15.53
553.973	15.55
554.171	15.63
554.369	15.73
554.567	15.92
554.765	16.02
554.963	16.14
555.161	16.32
555.359	16.48
555.557	16.58
555.755	16.72
555.952	16.84
556.15	16.92
556.348	16.99
556.546	17.16
556.744	17.23
556.941	17.35
557.139	17.46
557.337	17.62
557.535	17.65
557.732	17.74
557.93	17.92
558.128	18
558.325	18.15
558.523	18.34
558.721	18.52
558.918	18.65
559.116	18.84
559.313	18.96
559.511	19.03
559.708	19.17
559.906	19.27
560.104	19.35
560.301	19.43
560.498	19.64
560.696	19.75
560.893	19.9
561.091	20.04
561.288	20.24
561.486	20.34
561.683	20.47
561.88	20.65
562.078	20.83
562.275	21
562.473	21.11
562.67	21.27
562.867	21.36
563.064	21.4
563.262	21.44
563.459	21.64
563.656	21.76
563.853	21.87
564.051	22.19
564.248	22.37
564.445	22.46
564.642	22.58
564.839	22.75
565.036	22.87
565.234	23.02
565.431	23.07
565.628	23.17
565.825	23.24
566.022	23.3
566.219	23.4
566.416	23.6
566.613	23.77
566.81	23.93
567.007	23.95
567.204	24
567.401	24.13
567.598	24.27
567.795	24.37
567.991	24.54
568.188	24.63
568.385	24.7
568.582	24.83
568.779	24.91
568.976	24.91
569.172	25
569.369	25.11
569.566	25.03
569.763	25.09
569.96	25.28
570.156	25.44
570.353	25.54
570.55	25.73
570.746	25.89
570.943	25.99
571.14	26.03
571.336	26.03
571.533	26.07
571.729	26.06
571.926	26.1
572.123	26.17
572.319	26.2
572.516	26.28
572.712	26.35
572.909	26.37
573.105	26.41
573.302	26.49
573.498	26.43
573.695	26.47
573.891	26.48
574.087	26.37
574.284	26.33
574.48	26.39
574.677	26.31
574.873	26.34
575.069	26.52
575.266	26.59
575.462	26.55
575.658	26.73
575.854	26.75
576.051	26.72
576.247	26.7
576.443	26.81
576.639	26.71
576.835	26.68
577.032	26.62
577.228	26.69
577.424	26.67
577.62	26.66
577.816	26.61
578.012	26.61
578.208	26.6
578.404	26.64
578.6	26.71
578.796	26.8
578.993	26.84
579.189	26.79
579.384	26.7
579.58	26.66
579.776	26.58
579.972	26.61
580.168	26.6
580.364	26.63
580.56	26.56
580.756	26.52
580.952	26.57
581.148	26.53
581.343	26.52
581.539	26.48
581.735	26.47
581.931	26.35
582.127	26.37
582.322	26.41
582.518	26.45
582.714	26.52
582.909	26.49
583.105	26.52
583.301	26.47
583.496	26.41
583.692	26.23
583.888	26.25
584.083	26.17
584.279	26.07
584.474	26.14
584.67	26.15
584.866	26.11
585.061	26.13
585.257	26.17
585.452	26.05
585.648	26.08
585.843	26.12
586.039	26.1
586.234	26.11
586.429	26.11
586.625	26.18
586.82	26.27
587.015	26.21
587.211	26.23
587.406	26.23
587.601	26.14
587.797	25.98
587.992	26.02
588.187	25.91
588.383	25.95
588.578	25.98
588.773	25.97
588.968	25.98
589.163	26.13
589.359	26.09
589.554	26.15
589.749	26.19
589.944	26.25
590.139	26.28
590.334	26.45
590.529	26.47
590.724	26.6
590.919	26.64
591.114	26.58
591.309	26.51
591.504	26.5
591.699	26.46
591.894	26.41
592.089	26.46
592.284	26.53
592.479	26.59
592.674	26.7
592.869	26.77
593.064	26.87
593.259	27.02
593.454	27.04
593.648	27.01
593.843	27.13
594.038	27.16
594.233	27.15
594.428	27.31
594.622	27.48
594.817	27.58
595.012	27.73
595.206	27.8
595.401	27.88
595.596	27.91
595.79	27.98
595.985	27.96
596.18	28.04
596.374	28.12
596.569	28.18
596.763	28.24
596.958	28.4
597.153	28.53
597.347	28.53
597.542	28.67
597.736	28.73
597.931	28.7
598.125	28.87
598.319	29.02
598.514	29.03
598.708	29.21
598.903	29.47
599.097	29.41
599.291	29.5
599.486	29.68
599.68	29.74
599.874	29.77
600.069	29.8
600.263	29.9
600.457	29.89
600.651	29.84
600.846	29.87
601.04	29.97
601.234	29.97
601.428	30.08
601.622	30.16
601.817	30.13
602.011	30.2
602.205	30.3
602.399	30.21
602.593	30.37
602.787	30.37
602.981	30.36
603.175	30.35
603.369	30.29
603.563	30.29
603.757	30.26
603.951	30.29
604.145	30.3
604.339	30.4
604.533	30.3
604.727	30.29
604.921	30.24
605.115	30.14
605.309	30.07
605.502	30.11
605.696	30.08
605.89	30.06
606.084	29.99
606.278	30.09
606.471	30.04
606.665	30.03
606.859	29.85
607.053	29.8
607.246	29.67
607.44	29.47
607.634	29.42
607.827	29.47
608.021	29.39
608.214	29.31
608.408	29.21
608.602	29.04
608.795	29
608.989	28.93
609.182	28.86
609.376	28.8
609.569	28.74
609.763	28.63
609.956	28.48
610.15	28.37
610.343	28.36
610.537	28.29
610.73	28.1
610.923	28.05
611.117	28.01
611.31	27.8
611.504	27.75
611.697	27.75
611.89	27.62
612.083	27.42
612.277	27.46
612.47	27.27
612.663	27.24
612.856	27.2
613.05	27.17
613.243	27.04
613.436	26.96
613.629	26.82
613.822	26.74
614.015	26.64
614.209	26.52
614.402	26.41
614.595	26.28
614.788	26.11
614.981	25.98
615.174	25.78
615.367	25.81
615.56	25.73
615.753	25.75
615.946	25.67
616.139	25.75
616.332	25.62
616.525	25.56
616.718	25.46
616.911	25.39
617.103	25.25
617.296	25.2
617.489	25.13
617.682	25.04
617.875	25.02
618.067	25.06
618.26	24.86
618.453	24.81
618.646	24.74
618.838	24.67
619.031	24.51
619.224	24.51
619.417	24.48
619.609	24.45
619.802	24.38
619.994	24.37
620.187	24.33
620.38	24.27
620.572	24.21
620.765	24.18
620.957	24.06
621.15	24.02
621.342	23.94
621.535	23.95
621.727	23.88
621.92	23.96
622.112	23.9
622.305	23.88
622.497	23.78
622.69	23.76
622.882	23.8
623.074	23.88
623.267	23.82
623.459	23.82
623.651	23.79
623.844	23.67
624.036	23.58
624.228	23.5
624.42	23.41
624.613	23.41
624.805	23.32
624.997	23.23
625.189	23.3
625.381	23.29
625.574	23.18
625.766	23.15
625.958	23.17
626.15	23.01
626.342	23.01
626.534	23.05
626.726	22.92
626.918	22.87
627.11	22.84
627.302	22.86
627.494	22.74
627.686	22.7
627.878	22.69
628.07	22.72
628.262	22.62
628.454	22.65
628.646	22.75
628.838	22.87
629.029	22.79
629.221	22.74
629.413	22.7
629.605	22.55
629.797	22.33
629.989	22.33
630.18	22.3
630.372	22.26
630.564	22.25
630.755	22.24
630.947	22.18
631.139	22.18
631.33	22.09
631.522	22.04
631.714	21.94
631.905	21.98
632.097	21.86
632.289	21.77
632.48	21.79
632.672	21.79
632.863	21.62
633.055	21.67
633.246	21.74
633.438	21.7
633.629	21.66
633.821	21.72
634.012	21.68
634.203	21.7
634.395	21.65
634.586	21.68
634.777	21.63
634.969	21.6
635.16	21.49
635.351	21.51
635.543	21.4
635.734	21.4
635.925	21.4
636.117	21.43
636.308	21.41
636.499	21.45
636.69	21.48
636.881	21.45
637.073	21.51
637.264	21.48
637.455	21.49
637.646	21.44
637.837	21.48
638.028	21.37
638.219	21.51
638.41	21.6
638.601	21.56
638.792	21.55
638.983	21.59
639.174	21.37
639.365	21.29
639.556	21.28
639.747	21.16
639.938	21.23
640.129	21.24
640.32	21.18
640.511	21.18
640.701	21.21
640.892	21.03
641.083	20.99
641.274	20.91
641.465	20.86
641.655	20.84
641.846	20.81
642.037	20.72
642.228	20.68
642.418	20.58
642.609	20.5
642.8	20.52
642.99	20.53
643.181	20.58
643.372	20.53
643.562	20.46
643.753	20.41
643.943	20.33
644.134	20.26
644.324	20.29
644.515	20.34
644.705	20.31
644.896	20.46
645.086	20.48
645.277	20.48
645.467	20.4
645.658	20.33
645.848	20.23
646.038	20.12
646.229	20.13
646.419	20.01
646.61	20.09
646.8	20.05
646.99	20.16
647.18	20.05
647.371	20.11
647.561	20.03
647.751	19.98
647.941	19.86
648.132	19.8
648.322	19.73
648.512	19.77
648.702	19.79
648.892	19.85
649.082	20
649.272	20.02
649.462	19.95
649.653	19.87
649.843	19.74
650.033	19.68
650.223	19.68
650.413	19.7
650.603	19.72
650.793	19.7
650.983	19.66
651.172	19.61
651.362	19.47
651.552	19.35
651.742	19.22
651.932	19.07
652.122	18.95
652.312	18.88
652.502	18.81
652.691	18.88
652.881	18.82
653.071	18.74
653.261	18.64
653.45	18.48
653.64	18.26
653.83	18.21
654.019	18.01
654.209	17.88
654.399	17.7
654.588	17.57
654.778	17.3
654.968	17.22
655.157	17.13
655.347	16.96
655.536	16.81
655.726	16.65
655.915	16.51
656.105	16.25
656.294	16.1
656.484	15.88
656.673	15.7
656.863	15.53
657.052	15.4
657.241	15.28
657.431	15.22
657.62	15.08
657.809	14.83
657.999	14.59
658.188	14.49
658.377	14.23
658.567	14.08
658.756	13.83
658.945	13.68
659.134	13.41
659.324	13.17
659.513	12.89
659.702	12.8
659.891	12.58
660.08	12.43
660.269	12.26
660.458	12.04
660.648	11.76
660.837	11.63
661.026	11.41
661.215	11.25
661.404	11.05
661.593	10.97
661.782	10.63
661.971	10.44
662.16	10.34
662.349	10.22
662.538	9.99
662.726	9.94
662.915	9.83
663.104	9.65
663.293	9.5
663.482	9.43
663.671	9.33
663.86	9.24
664.048	9.12
664.237	9.13
664.426	9.08
664.615	9
664.803	8.82
664.992	8.73
665.181	8.59
665.369	8.38
665.558	8.33
665.747	8.39
665.935	8.3
666.124	8.26
666.312	8.26
666.501	8.25
666.69	8.17
666.878	8.17
667.067	8.01
667.255	7.97
667.444	7.93
667.632	7.95
667.82	7.97
668.009	8
668.197	8.04
668.386	7.99
668.574	7.95
668.762	7.84
668.951	7.82
669.139	7.77
669.327	7.67
669.516	7.59
669.704	7.65
669.892	7.73
670.08	7.7
670.269	7.79
670.457	7.84
670.645	7.84
670.833	7.87
671.021	7.95
671.21	7.98
671.398	8.08
671.586	8.1
671.774	8.12
671.962	8.12
672.15	8.21
672.338	8.16
672.526	8.29
672.714	8.36
672.902	8.46
673.09	8.53
673.278	8.74
673.466	8.83
673.654	8.94
673.842	9.02
674.03	9.15
674.218	9.15
674.405	9.13
674.593	9.19
674.781	9.28
674.969	9.4
675.157	9.49
675.344	9.6
675.532	9.71
675.72	9.86
675.908	9.8
676.095	9.91
676.283	10.04
676.471	10.12
676.658	10.19
676.846	10.32
677.033	10.3
677.221	10.47
677.409	10.58
677.596	10.65
677.784	10.77
677.971	10.91
678.159	10.94
678.346	10.97
678.534	11.06
678.721	11.22
678.909	11.39
679.096	11.58
679.283	11.75
679.471	11.96
679.658	11.97
679.846	12.03
680.033	12.23
680.22	12.38
680.408	12.3
680.595	12.49
680.782	12.7
680.969	12.8
681.157	13.04
681.344	13.27
681.531	13.51
681.718	13.59
681.905	13.71
682.093	13.86
682.28	14.11
682.467	14.4
682.654	14.7
682.841	14.93
683.028	15
683.215	15.36
683.402	15.41
683.589	15.72
683.776	15.94
683.963	16.33
684.15	16.53
684.337	16.84
684.524	17.08
684.711	17.4
684.898	17.63
685.085	17.9
685.271	18.27
685.458	18.67
685.645	18.97
685.832	19.32
686.019	19.56
686.205	19.84
686.392	20.22
686.579	20.74
686.766	21.18
686.952	21.67
687.139	22.18
687.326	22.59
687.512	23.06
687.699	23.61
687.886	24.11
688.072	24.52
688.259	24.93
688.445	25.61
688.632	26.22
688.818	26.82
689.005	27.51
689.191	28.33
689.378	28.8
689.564	29.35
689.751	30.08
689.937	30.86
690.124	31.34
690.31	31.97
690.496	32.61
690.683	33.21
690.869	33.86
691.055	34.66
691.242	35.3
691.428	36.03
691.614	36.92
691.8	37.65
691.987	38.55
692.173	39.76
692.359	40.57
692.545	41.27
692.731	42.13
692.918	42.73
693.104	43.22
693.29	43.9
693.476	44.79
693.662	45.38
693.848	46.04
694.034	46.87
694.22	47.84
694.406	48.41
694.592	49.5
694.778	50.32
694.964	50.91
695.15	51.64
695.336	52.39
695.522	52.91
695.708	53.88
695.894	54.77
696.08	55.49
696.265	56.33
696.451	57.08
696.637	57.83
696.823	58.32
697.009	58.91
697.194	59.67
697.38	60.23
697.566	60.59
697.751	61.4
697.937	62.2
698.123	62.72
698.308	63.24
698.494	64.2
698.68	64.67
698.865	65.12
699.051	65.85
699.236	66.38
699.422	66.78
699.607	67.71
699.793	68.75
699.978	68.89
700.164	69.37
700.349	69.91
700.535	69.92
700.72	70.1
700.906	70.79
701.091	71.43
701.276	71.68
701.462	72.41
701.647	72.52
701.832	72.83
702.018	73.45
702.203	74.11
702.388	74.39
702.573	74.78
702.759	75.5
702.944	75.56
703.129	75.6
703.314	76.1
703.499	76.64
703.684	76.76
703.87	77.23
704.055	77.89
704.24	78.09
704.425	78.57
704.61	79
704.795	79.43
704.98	79.6
705.165	79.8
705.35	79.9
705.535	80.32
705.72	80.46
705.905	80.77
706.09	81.25
706.275	81.57
706.459	81.67
706.644	81.76
706.829	81.89
707.014	82.13
707.199	82.54
707.384	82.53
707.568	82.82
707.753	83.14
707.938	83.19
708.123	83.12
708.307	83.34
708.492	83.73
708.677	83.87
708.861	84.15
709.046	84.09
709.231	84.03
709.415	84.05
709.6	84.3
709.784	84.3
709.969	84.88
710.153	85.26
710.338	85.46
710.522	85.58
710.707	85.63
710.891	85.45
711.076	85.73
711.26	86.07
711.445	86.07
711.629	86.06
711.813	86.45
711.998	86.41
712.182	86.02
712.366	86.58
712.551	86.92
712.735	86.93
712.919	87.22
713.103	87.8
713.288	87.45
713.472	87.69
713.656	87.57
713.84	87.38
714.024	87.28
714.208	87.35
714.393	87.6
714.577	88.15
714.761	88.67
714.945	88.83
715.129	89.19
715.313	89.04
715.497	88.78
715.681	88.69
715.865	88.81
716.049	89.08
716.233	89.26
716.417	89.26
716.601	89.56
716.785	89.76
716.968	89.73
717.152	89.73
717.336	90.08
717.52	90.31
717.704	90.58
717.888	90.58
718.071	90.41
718.255	90.62
718.439	90.05
718.622	90.03
718.806	89.84
718.99	89.93
719.174	89.87
719.357	90.12
719.541	90.18
719.724	90.22
719.908	90.32
720.092	90.19
720.275	90.64
720.459	90.44
720.642	90.68
720.826	91.13
721.009	91.31
721.193	90.95
721.376	91.45
721.559	91.72
721.743	91.81
721.926	91.7
722.11	92.6
722.293	92.66
722.476	92.08
722.66	92.84
722.843	92.7
723.026	92.47
723.21	92.26
723.393	92.96
723.576	92.17
723.759	92.71
723.942	92.9
724.126	93.03
724.309	92.99
724.492	92.78
724.675	92.55
724.858	92.7
725.041	92.97
725.224	93.18
725.407	93.75
725.59	94.03
725.774	93.37
725.957	92.91
726.14	92.18
726.322	92.48
726.505	92.83
726.688	92.94
726.871	92.85
727.054	93.97
727.237	93.41
727.42	92.73
727.603	93.16
727.786	93.72
727.968	93.37
728.151	93.61
728.334	94.81
728.517	94.73
728.699	94.9
728.882	94.66
729.065	94.11
729.248	93.26
729.43	93.01
729.613	93.46
729.796	94.11
729.978	95.16
730.161	95.26
730.343	96.11
730.526	95.62
730.708	95.4
730.891	94.83
731.073	95.02
731.256	94.57
731.438	95.01
731.621	95.44
731.803	96.05
731.986	96.45
732.168	96.84
732.35	97.19
732.533	96.11
732.715	96.19
732.898	95.91
733.08	95.29
733.262	94.97
733.444	96.35
733.627	96.22
733.809	97
733.991	97.63
734.173	96.86
734.355	96.37
734.538	96.61
734.72	96.45
734.902	96.33
735.084	96.82
735.266	96.85
735.448	97.26
735.63	97.17
735.812	97.47
735.994	97.69
736.176	97.8
736.358	97.99
736.54	99.11
736.722	98.7
736.904	98.75
737.086	98.58
737.268	98.91
737.45	98.48
737.632	99.04
737.814	99.78
737.995	99.79
738.177	98.61
738.359	98.61
738.541	98.32
738.723	98.4
738.904	99.12
739.086	100.1
739.268	99.68
739.449	99.56
739.631	98.16
739.813	96.95
739.994	95.85
740.176	95.95
740.358	95.89
740.539	96.7
740.721	97.95
740.902	98.88
741.084	99.22
741.265	99.58
741.447	100.25
741.628	99.85
741.81	99.8
741.991	99.26
742.172	99.27
742.354	99.08
742.535	98.62
742.717	97.13
742.898	97.24
743.079	97.47
743.261	96.76
743.442	95.77
743.623	96.64
743.804	95.89
743.986	95.47
744.167	95.57
744.348	96.72
744.529	96.47
744.71	97.46
744.891	97.29
745.073	97.81
745.254	97.98
745.435	98.08
745.616	97.93
745.797	97.6
745.978	97.48
746.159	97.16
746.34	98.01
746.521	97.29
746.702	98.2
746.883	98.32
747.064	99.37
747.245	99.25
747.426	99.87
747.606	99.25
747.787	99.04
747.968	97.41
748.149	96.34
748.33	95.65
748.51	94.9
748.691	93.97
748.872	95.4
749.053	95.45
749.233	94.82
749.414	96.42
749.595	97.59
749.775	96.27
749.956	97.64
750.137	98.16
750.317	96.28
750.498	95.17
750.678	96.7
750.859	96.2
751.04	96.91
751.22	96.83
751.4	97.97
751.581	97.09
751.761	96.69
751.942	96.54
752.122	96.66
752.303	95.89
752.483	95.89
752.663	96.43
752.844	95.84
753.024	96.12
753.204	95.55
753.385	95.45
753.565	94.35
753.745	93.58
753.925	93.72
754.106	95.01
754.286	94.77
754.466	95.31
754.646	95.87
754.826	97.45
755.006	94.91
755.187	95.5
755.367	94.01
755.547	93.77
755.727	93.12
755.907	94.8
756.087	93.18
756.267	92.35
756.447	92.66
756.627	92.46
756.807	92.73
756.987	93.72
757.167	95.31
757.346	94.66
757.526	94.89
757.706	94.43
757.886	93.63
758.066	94.61
758.246	94.64
758.425	92.81
758.605	92.1
758.785	92.7
758.965	92.42
759.144	91.7
759.324	93.86
759.504	94.78
759.683	92.89
759.863	92.47
760.043	93.16
760.222	91.6
760.402	89.82
760.581	92.8
760.761	93.13
760.94	93.47
761.12	93.55
761.299	95.72
761.479	94.96
761.658	93.92
761.838	94.28
762.017	94.82
762.197	92.67
762.376	92.67
762.555	92.56
762.735	92.44
762.914	91.95
763.093	92.78
763.273	91.47
763.452	91.65
763.631	91.35
763.81	91.54
763.99	91.09
764.169	91.32
764.348	90.6
764.527	89.43
764.706	88
764.885	89.36
765.064	90.49
765.243	91.22
765.423	92.04
765.602	94.05
765.781	90.66
765.96	88.94
766.139	88.6
766.318	89.82
766.497	89.5
766.676	91.36
766.854	92.55
767.033	93.85
767.212	93.69
767.391	93.4
767.57	96.06
767.749	95.3
767.928	93.23
768.106	92.09
768.285	91.64
768.464	89.18
768.643	88.42
768.821	88.06
769	87.96
769.179	88.91
769.357	88.47
769.536	88.43
769.715	87.96
769.893	88.18
770.072	85.79
770.25	84.23
770.429	84.9
770.607	86.73
770.786	85.97
770.964	88.03
771.143	90.43
771.321	88.7
771.5	87.35
771.678	87.19
771.857	86.07
772.035	86.47
772.213	86.93
772.392	86.23
772.57	86.74
772.748	86.06
772.927	84.92
773.105	86.43
773.283	87.57
773.461	88.49
773.64	87.93
773.818	88.48
773.996	88.43
774.174	88.15
774.352	85.84
774.531	85.58
774.709	85.68
774.887	83.61
775.065	84.89
775.243	86.12
775.421	86.22
775.599	87.92
775.777	89.53
775.955	89.08
776.133	88.07
776.311	88.32
776.489	85.22
776.667	83.93
776.844	82.3
777.022	82.88
777.2	83.57
777.378	83.15
777.556	85.03
777.734	87.39
777.911	88.35
778.089	90.19
778.267	90.21
778.445	91.48
778.622	90.05
778.8	88.3
778.978	89.21
779.155	90.85
779.333	89.95
779.511	89.53
779.688	91.92
779.866	90.1
780.043	89.72
780.221	87.53
780.398	86.8
780.576	85.72
780.753	82.95
780.931	82.55
781.108	84.77
781.286	85.07
781.463	83.53
781.64	84.12
781.818	85.95
781.995	81.2
782.172	79.33
782.35	82.36
782.527	82.5
782.704	79.17
782.882	80.03
783.059	82
783.236	81.34
783.413	81.64
783.59	82.32
783.768	82.56
783.945	81.93
784.122	78.77
784.299	81.34
784.476	80.43
784.653	80.29
784.83	80.19
785.007	81.85
785.184	80.29
785.361	80.38
785.538	79.79
785.715	82.29
785.892	79.88
786.069	79.29
786.246	81.83
786.423	85.3
786.6	84.65
786.776	87.68
786.953	84.95
787.13	84.06
787.307	83.08
787.484	77.08
787.66	75.31
787.837	75.57
788.014	74.42
788.191	72.52
788.367	73.02
788.544	75.54
788.721	77.06
788.897	77.52
789.074	78.58
789.25	84.16
789.427	81.22
789.603	77.89
789.78	75.05
789.956	71.73
790.133	69.7
790.309	70.06
790.486	72.19
790.662	74
790.839	77.64
791.015	78.73
791.192	79.19
791.368	80.28
791.544	82.55
791.721	82.81
791.897	79.24
792.073	78.39
792.249	78.27
792.426	77.33
792.602	76.77
792.778	79.15
792.954	80.24
793.13	80.44
793.307	78.17
793.483	76.07
793.659	75.27
793.835	76.12
794.011	77.35
794.187	75.99
794.363	75.12
794.539	75.32
794.715	73.88
794.891	71.74
795.067	75.74
795.243	79.18
795.419	78.71
795.595	80.68
795.771	79.93
795.947	77.77
796.122	70.56
796.298	68.1
796.474	69.33
796.65	68.21
796.826	67.43
797.001	76.01
797.177	73.4
797.353	68.07
797.529	70.76
797.704	70.63
797.88	65.38
798.056	69.38
798.231	71.67
798.407	69.51
798.582	71.94
798.758	76.25
798.934	79.93
799.109	75.07
799.285	75.64
799.46	75.07
799.636	74.24
799.811	74.79
799.986	80.93
800.162	78.2
800.337	83.01
800.513	81.3
800.688	75.48
800.863	81.09
801.039	79.41
801.214	77.1
801.389	75.75
801.565	75.97
801.74	70.28
801.915	74.85
802.09	66.69
802.265	65.63
802.441	67.14
802.616	63.64
802.791	62.84
802.966	68.87
803.141	74.06
803.316	76.79
803.491	76.23
803.666	77.56
803.841	75.48
804.016	68.97
804.191	67.36
804.366	72.91
804.541	69.01
804.716	68.11
804.891	72.73
805.066	70.12
805.241	65.5
805.416	71.97
805.591	74.89
805.765	84.3
805.94	80.92
806.115	82.01
806.29	76.9
806.464	76.03
806.639	63.49
806.814	67.03
806.989	64.37
807.163	67.66
807.338	64.29
807.512	69.38
807.687	68.43
807.862	71.09
808.036	72.26
808.211	73.89
808.385	73.32
808.56	73.09
808.734	65.79
808.909	64.38
809.083	67.09
809.258	72.85
809.432	72.23
809.606	83.32
809.781	77.76
809.955	73.04
810.13	60.91
810.304	65.15
810.478	63.49
810.652	62.46
810.827	64.12
811.001	68.41
811.175	69.32
811.349	69.66
811.524	75.57
811.698	71.25
811.872	75.48
812.046	72.59
812.22	71.48
812.394	64.82
812.568	69.29
812.742	60.89
812.916	63.86
813.09	54.89
813.264	55.66
813.438	56.06
813.612	55.86
813.786	49.42
813.96	62.58
814.134	60.46
814.308	62.09
814.482	64.36
814.656	65
814.83	59.38
815.003	66.28
815.177	61.91
815.351	64.35
815.525	74.15
815.698	69.68
815.872	59.23
816.046	63.33
816.219	65.84
816.393	57.85
816.567	58.89
816.74	60.18
816.914	58.2
817.088	50.35
817.261	49.41
817.435	50.97
817.608	55.64
817.782	48.27
817.955	49.8
818.129	57.8
818.302	58.85
818.475	57.16
818.649	60.13
818.822	57.82
818.996	62.81
819.169	69.47
819.342	73.18
819.516	74.22
819.689	74.7
819.862	66.2
820.035	61.32
820.209	57.49
820.382	49.28
820.555	47.68
820.728	56.52
820.901	52.29
821.075	51.91
821.248	62.68
821.421	57.79
821.594	52.76
821.767	58.84
821.94	53.64
822.113	56.7
822.286	65.05
822.459	69.74
822.632	62.87
822.805	69.27
822.978	57.89
823.151	51.1
823.324	34.78
823.496	28.5
823.669	28.79
823.842	38.47
824.015	38.62
824.188	43.46
824.361	46.63
824.533	47.13
824.706	43.24
824.879	47.54
825.051	50.32
825.224	62.52
825.397	57.88
825.569	58.88
825.742	63.46
825.915	55.24
826.087	31.54
826.26	34.93
826.432	36.75
826.605	32.96
826.777	48.6
826.95	55.6
827.122	48.59
827.295	58.99
827.467	63.71
827.64	52.94
827.812	45.48
827.984	55.76
828.157	37.89
828.329	41.44
828.501	34.21
828.674	45.09
828.846	39.03
829.018	48.13
829.19	35.84
829.363	36.58
829.535	43.37
829.707	45.46
829.879	34.16
830.051	35.85
830.223	47
830.395	41.47
830.568	46.17
830.74	41.22
830.912	42.11
831.084	36.93
831.256	30.89
831.428	25.07
831.6	23.34
831.772	22.91
831.943	15.75
832.115	18.45
832.287	23.47
832.459	37.68
832.631	42.48
832.803	59.98
832.975	63.46
833.146	59.52
833.318	59.78
833.49	54.3
833.662	48.94
833.833	41.28
834.005	31.87
834.177	34.43
834.348	32.78
834.52	33.97
834.692	27.12
834.863	38.7
835.035	42.85
835.206	44.02
835.378	35.18
835.549	37.09
835.721	32.73
835.892	29.6
836.064	29.22
836.235	31.36
836.407	44.26
836.578	54.11
836.749	45.51
836.921	48.84
837.092	40.6
837.264	30.8
837.435	12.91
837.606	32.34
837.777	32.79
837.949	49.02
838.12	54.27
838.291	61.91
838.462	57.47
838.633	62.07
838.805	47.39
838.976	26.26
839.147	39.12
839.318	35.34
839.489	23.14
839.66	39.63
839.831	44.25
840.002	37.58
840.173	44.03
840.344	48.61
840.515	32.29
840.686	37.93
840.857	36.14
841.028	37.77
841.199	38.39
841.369	40.95
841.54	40.83
841.711	56.19
841.882	44.15
842.053	32.34
842.223	30.35
842.394	19.46
842.565	-2.37
842.736	15.47
842.906	6.95
843.077	21.15
843.248	37.47
843.418	50.67
843.589	31.83
843.759	37.07
843.93	22.53
844.101	23.69
844.271	44.77
844.442	43.05
844.612	49.24
844.783	32.17
844.953	21.19
845.123	-8.59
845.294	-8.4
845.464	-33.26
845.635	0.07
845.805	-8.36
845.975	3.21
846.146	4
846.316	13.18
846.486	37.8
846.656	62.8
846.827	54.76
846.997	48.38
847.167	42.24
847.337	22.96
847.507	23.87
847.677	38.85
847.848	50.78
848.018	63.5
848.188	50.48
848.358	22.82
848.528	5.14
848.698	-4.8
848.868	-3.08
849.038	4.23
849.208	18.26
849.378	30.42
849.548	7.27
849.718	-11.85
849.887	-4.41
850.057	-19.6
850.227	7.37
850.397	22.47
850.567	-5.93
850.737	-16.6
850.906	-29.71
851.076	-40.63
851.246	-41.02
851.415	-52.62
851.585	-21.83
851.755	16.83
851.924	11.42
852.094	20.18
852.264	32.77
852.433	25.75
852.603	-24.99
852.772	-5.95
852.942	29.49
853.111	16.5
853.281	15.13
853.45	33.23
853.62	19.19
853.789	3.47
853.959	37.8
854.128	34.03
854.297	33.57
854.467	32.16
854.636	27.59
854.805	12.91
854.975	26.34
855.144	30.82
855.313	47.35
855.482	28.47
855.652	17.22
855.821	-6.77
855.99	-23.7
856.159	-38.39
856.328	-31.91
856.497	4.92
856.667	-4.86
856.836	24.54
857.005	29.6
857.174	36.51
857.343	3.75
857.512	12.34
857.681	-19.26
857.85	-15.76
858.019	-76.73
858.188	-57.76
858.356	0.97
858.525	20.05
858.694	34.28
858.863	28.27
859.032	39.33
859.201	-1.27
859.369	-36.66
859.538	-10.83
859.707	-15.9
859.876	-19.31
860.044	4.32
860.213	18.75
860.382	9.22
860.55	13.65
860.719	20.93
860.888	10.04
861.056	-8.39
861.225	0.08
861.393	-11.68
861.562	-42.81
861.73	-18.94
861.899	3.24
862.067	-42.86
862.236	-32.85
862.404	-8.75
862.572	-29.57
862.741	-83.47
862.909	-42.96
863.078	-17.62
863.246	-9.84
863.414	19.59
863.582	27.3
863.751	-2.25
863.919	7.17
864.087	0.67
864.255	-81.52
864.424	-73.71
864.592	-7.7
864.76	-51.23
864.928	-63.23
865.096	-20.89
865.264	-17.66
865.432	-21.78
865.6	-15.43
865.768	-16.62
865.936	-20.88
866.104	7.16
866.272	-89.98
866.44	-66.53
866.608	-52.01
866.776	-54.41
866.944	-58.66
867.112	-7.59
867.28	16.83
867.448	20.87
867.615	31.57
867.783	13.73
867.951	17.54
868.119	5.36
868.286	10.07
868.454	-4.26
868.622	-3.01
868.789	-24.42
868.957	-7.55
869.125	-1.04
869.292	-40.04
869.46	-26.35
869.627	-18.77
869.795	-40.05
869.963	-22.16
870.13	-7.24
870.298	-2.78
870.465	7.97
870.632	8.64
870.8	4
870.967	-17.66
871.135	-17.8
871.302	-31.73
871.469	-12.57
871.637	-17.08
871.804	48.67
871.971	43.38
872.139	53.07
872.306	19.46
872.473	-5.36
872.64	-96.62
872.807	-118.86
872.975	-281.37
873.142	-41.78
873.309	-22.25
873.476	14.8
873.643	69.54
873.81	44.66
873.977	-6.67
874.144	43.59
874.311	3.67
874.478	-96.54
874.645	-138.87
874.812	-6.25
874.979	-71.35
875.146	-134.75
875.313	-48.52
875.48	15.53
875.647	-72.41
875.813	-112.84
875.98	-82.86
876.147	-225.77
876.314	-157.48
876.481	-89.33
876.647	-1.58
876.814	-2.92
876.981	7.97
877.147	-2.1
877.314	-8.23
877.481	-17.2
877.647	15.43
877.814	-0.95
877.98	-1.56
878.147	33.4
878.314	51.64
878.48	21.78
878.647	54.61
878.813	61.02
878.979	44.32
879.146	37.59
879.312	68.01
879.479	25.56
879.645	32.36
879.811	-6.46
879.978	-12.4
880.144	-27.85
880.31	-15.58
880.477	-23
880.643	-10.51
880.809	-95.93
880.975	-68.13
881.142	-120.54
881.308	364.6
881.474	636.62
881.64	-45.01
881.806	-130.86
881.972	-87.53
882.138	-18.37
882.304	-8.08
882.47	-44.96
882.636	-42.12
882.802	-17.27
882.968	-6.78
883.134	-1.33
883.3	25.93
883.466	91.33
883.632	14.71
883.798	-103.3
883.964	-122.79
884.129	-1015.28
884.295	-150.11
884.461	-131.63
884.627	-17.46
884.793	-15.97
884.958	13.23
885.124	-3.38
885.29	-38.14
885.455	-77.4
885.621	-76.29
885.787	-86.3
885.952	-104.8
886.118	-23.93
886.283	-33.46
886.449	-37.66
886.614	-20.19
886.78	12.84
886.945	8.61
887.111	-21.9
887.276	-21.1
887.442	-88.4
887.607	-65.56
887.773	-12.73
887.938	-9.57
888.103	-3.14
888.269	22.76
888.434	27.37
888.599	4.14
888.764	28.79
888.93	21.22
889.095	10.16
889.26	-10.54
889.425	-40.76
889.59	-102.97
889.756	-61.9
889.921	-45.93
890.086	-159.31
890.251	-63.03
890.416	-45.95
890.581	-61.13
890.746	-40.33
890.911	-7.31
891.076	-17.67
891.241	-35.05
891.406	-67.01
891.571	-151.02
891.736	-246.24
891.901	-58
892.065	-27.49
892.23	16
892.395	10.06
892.56	-4.21
892.725	-91.67
892.889	-153.08
893.054	-121.32
893.219	-113.18
893.384	-95.87
893.548	-65.81
893.713	-97.5
893.878	-119.33
