Data from Ofra_1a_PS_4HS15.2_Reflection_2.txt Node
Date: Tue Jul 20 10:58:18 EDT 2021
User: Adam
Spectrometer: FLMT01687
Trigger mode: 0
Integration Time (sec): 1.004000E0
Scans to average: 2
Electric dark correction enabled: true
Nonlinearity correction enabled: false
Boxcar width: 2
XAxis mode: Wavelengths
Number of Pixels in Spectrum: 3648
>>>>>Begin Spectral Data<<<<<
179.494	-427.41
179.716	-583.21
179.937	1014.72
180.158	-1259.87
180.38	78.81
180.601	56.06
180.823	-29.24
181.044	-118.33
181.265	-349.88
181.486	155.6
181.708	137.43
181.929	-3618.18
182.15	-121.58
182.372	542.86
182.593	510.86
182.814	-125.98
183.035	-12.75
183.257	68.27
183.478	28.49
183.699	9.75
183.92	-36.58
184.141	-10.54
184.363	-34.27
184.584	-14.86
184.805	42.89
185.026	68.21
185.247	41.28
185.468	30.85
185.689	15.76
185.91	-29.48
186.132	-9.25
186.353	17.94
186.574	23.76
186.795	17.88
187.016	36.87
187.237	11.34
187.458	-6.11
187.679	-9.44
187.9	21.18
188.121	20.46
188.342	39.64
188.563	52
188.784	55.15
189.005	28.01
189.226	19.51
189.447	13.82
189.667	-1.3
189.888	1.05
190.109	1.86
190.33	12.98
190.551	1.42
190.772	13.25
190.993	-19.45
191.214	-33.03
191.434	-64.17
191.655	-83.93
191.876	-20.01
192.097	5.15
192.318	40.47
192.538	-4.52
192.759	-0.66
192.98	0.03
193.201	-7.4
193.421	-16.72
193.642	23.88
193.863	28.65
194.083	13.02
194.304	13.83
194.525	-0.46
194.745	-20.14
194.966	-14.49
195.187	-0.96
195.407	0.66
195.628	15.77
195.848	25.23
196.069	26.69
196.29	12.6
196.51	3.68
196.731	-20.95
196.951	-50.63
197.172	-43.55
197.392	-21.34
197.613	6.38
197.833	6.94
198.054	10.83
198.274	17.46
198.495	-5.63
198.715	-33.45
198.936	-15.23
199.156	-4.66
199.377	-2.71
199.597	1.42
199.817	11.15
200.038	-5.09
200.258	6.16
200.479	-3.88
200.699	13.83
200.919	18.17
201.14	22.18
201.36	17.09
201.58	-0.21
201.801	-11.54
202.021	-25.58
202.241	-19.43
202.461	-23.93
202.682	-7.21
202.902	-9.61
203.122	-9.58
203.342	-13.45
203.563	-14.94
203.783	-28.43
204.003	-31.42
204.223	-12.71
204.443	1.95
204.663	5.48
204.884	32.6
205.104	34.36
205.324	42.69
205.544	15.38
205.764	28.38
205.984	6.47
206.204	10.61
206.424	-7.51
206.644	-34.21
206.864	-70.7
207.084	-20.61
207.304	-19.25
207.525	-16.54
207.745	11.66
207.964	26.15
208.184	40.84
208.404	34.55
208.624	62.06
208.844	45.67
209.064	37.37
209.284	13.1
209.504	0.27
209.724	-23.01
209.944	-12.13
210.164	3.11
210.384	11.74
210.604	-2.67
210.823	-16.21
211.043	-8.17
211.263	-78.78
211.483	-49.03
211.703	-23.99
211.922	-28.94
212.142	12.19
212.362	26.26
212.582	28.72
212.801	9
213.021	-7.23
213.241	-35.2
213.461	-31.73
213.68	-18.82
213.9	1.89
214.12	17.06
214.339	16.89
214.559	12.4
214.779	4
214.998	-0.46
215.218	-14.25
215.438	4.47
215.657	7.58
215.877	6.82
216.096	26.91
216.316	37.88
216.535	31.66
216.755	37.37
216.974	37.04
217.194	18.8
217.413	24.76
217.633	12.21
217.852	1.89
218.072	6.47
218.291	12.24
218.511	8.11
218.73	5.16
218.95	-21.38
219.169	-22.03
219.389	-33.2
219.608	-34.77
219.827	-22.76
220.047	-2.42
220.266	-6.34
220.485	-14.36
220.705	-46.79
220.924	-36.87
221.143	-2.8
221.363	19.29
221.582	0.95
221.801	15.88
222.021	-5.25
222.24	-12.85
222.459	-8.51
222.678	18.13
222.897	17.57
223.117	39.56
223.336	45.62
223.555	29.14
223.774	27.87
223.993	51.89
224.213	59.98
224.432	52.86
224.651	43.53
224.87	36.93
225.089	24.02
225.308	18.08
225.527	11.42
225.746	12.94
225.965	7.19
226.184	5.1
226.404	-18.37
226.623	-5.06
226.842	0.92
227.061	10.59
227.28	19.17
227.499	37.9
227.718	35.7
227.936	33.63
228.155	39.53
228.374	34.15
228.593	31.89
228.812	32.88
229.031	37.94
229.25	23.2
229.469	18.23
229.688	24.94
229.907	35.15
230.125	30.91
230.344	31.67
230.563	44.39
230.782	28.45
231.001	15.2
231.22	15.41
231.438	37
231.657	26.31
231.876	46.05
232.095	53.19
232.313	57.3
232.532	28.79
232.751	30.03
232.969	27.71
233.188	-1.13
233.407	8.07
233.625	15.26
233.844	11.29
234.063	-1.65
234.281	18.52
234.5	13.25
234.719	7.16
234.937	0.86
235.156	6.98
235.374	10.39
235.593	20.03
235.811	32.29
236.03	38.07
236.249	32.19
236.467	25.09
236.686	6.97
236.904	7.1
237.123	-3.34
237.341	9.12
237.559	-5.32
237.778	20.88
237.996	25.12
238.215	12.94
238.433	-67.35
238.652	3.61
238.87	-13.09
239.088	-24.57
239.307	-1.38
239.525	19.96
239.743	7.23
239.962	-0.38
240.18	6.34
240.398	7.86
240.617	-13.07
240.835	-11.16
241.053	-3.67
241.271	2.71
241.49	6.1
241.708	8.75
241.926	4.51
242.144	19.8
242.363	0.32
242.581	-15.8
242.799	22.38
243.017	18.3
243.235	10.41
243.453	24.66
243.672	36.11
243.89	23.89
244.108	36.19
244.326	44.29
244.544	41.71
244.762	27.99
244.98	30.69
245.198	16.23
245.416	11.94
245.634	11.19
245.852	1.79
246.07	1.55
246.288	19.1
246.506	5.83
246.724	0.59
246.942	13.62
247.16	25.15
247.378	8.8
247.596	10.27
247.814	3.62
248.032	-10.75
248.25	8.99
248.468	25.75
248.685	32.7
248.903	38.7
249.121	45.41
249.339	32.01
249.557	18.86
249.775	24.94
249.992	17.09
250.21	11.54
250.428	23.09
250.646	45.83
250.863	36.93
251.081	48.6
251.299	51.89
251.517	49.74
251.734	27.77
251.952	19.84
252.17	-1.2
252.387	-0.56
252.605	5.57
252.823	-11.93
253.04	14.97
253.258	50.79
253.475	50.53
253.693	47.06
253.911	32.83
254.128	31.63
254.346	26.72
254.563	25.06
254.781	9.64
254.998	11.73
255.216	-29.9
255.433	-55.04
255.651	-43.56
255.868	-26.8
256.086	9.18
256.303	16.14
256.521	21.87
256.738	12.94
256.956	5.61
257.173	-16.18
257.39	-2.84
257.608	-2
257.825	-6.12
258.043	7.5
258.26	10.04
258.477	13.53
258.695	14.23
258.912	22.81
259.129	10.89
259.346	6.44
259.564	-18.47
259.781	-14.89
259.998	-2.38
260.216	11.2
260.433	5.67
260.65	19.55
260.867	21.86
261.084	7.13
261.302	2.82
261.519	13.94
261.736	-11.46
261.953	-20.08
262.17	-0.81
262.387	-2.62
262.604	-0.27
262.822	16.24
263.039	17.37
263.256	11.22
263.473	11.48
263.69	10.53
263.907	16.96
264.124	20.1
264.341	36.43
264.558	30.44
264.775	31.92
264.992	33.06
265.209	35.59
265.426	-1.61
265.643	12.2
265.86	25.76
266.077	2.4
266.294	-0.48
266.51	29.19
266.727	32.32
266.944	36.18
267.161	39.14
267.378	44.58
267.595	28.21
267.812	8.8
268.028	-3.09
268.245	4.18
268.462	13.59
268.679	43.19
268.896	65.1
269.112	57.61
269.329	41.93
269.546	53.01
269.763	31.9
269.979	25.61
270.196	31.16
270.413	36.63
270.629	14.22
270.846	10.21
271.063	6.93
271.279	14.95
271.496	8.01
271.712	18.23
271.929	29.83
272.146	23.09
272.362	20.98
272.579	17.82
272.795	7.57
273.012	-1.94
273.228	25.79
273.445	10.55
273.661	24.23
273.878	16.96
274.094	13.73
274.311	-5.08
274.527	1.79
274.744	2.57
274.96	22.78
275.177	27.64
275.393	31.86
275.609	31.35
275.826	16.22
276.042	5.39
276.259	8.56
276.475	-10.67
276.691	-24.11
276.908	-13.36
277.124	2.8
277.34	-11.94
277.557	-7.08
277.773	-4.12
277.989	-2.82
278.205	-10.57
278.422	5.35
278.638	3.5
278.854	7.62
279.07	20.91
279.286	18.69
279.503	20.86
279.719	27.58
279.935	15.52
280.151	7.95
280.367	9.36
280.583	-5.99
280.799	-6.94
281.016	-24.66
281.232	-22.09
281.448	-27.36
281.664	-17.05
281.88	-7.84
282.096	21.93
282.312	16.15
282.528	11.98
282.744	24.18
282.96	3.31
283.176	-18.72
283.392	-13.93
283.608	9.99
283.824	-48.75
284.04	-60.22
284.256	-26.87
284.471	-25.98
284.687	-22.53
284.903	-10.99
285.119	19.92
285.335	20.7
285.551	26.39
285.767	21.82
285.982	34.06
286.198	-23.61
286.414	-4.53
286.63	2.01
286.846	12.93
287.061	14.17
287.277	25.92
287.493	2.02
287.709	5.32
287.924	1.9
288.14	16.81
288.356	33.41
288.571	36.88
288.787	23.99
289.003	30.77
289.218	-7.06
289.434	-19.93
289.65	-11.17
289.865	-6.8
290.081	-5.74
290.296	12.26
290.512	10.82
290.727	6.27
290.943	11.42
291.159	13.24
291.374	-2.92
291.59	4.83
291.805	-10.66
292.021	-7.17
292.236	-12.93
292.451	13.67
292.667	-1.38
292.882	17.5
293.098	12.86
293.313	0.19
293.529	-7.44
293.744	-14.4
293.959	-10.31
294.175	-7.91
294.39	-13.09
294.605	-1.52
294.821	9.83
295.036	0.58
295.251	-0.65
295.467	2.85
295.682	0.3
295.897	4.41
296.112	9.09
296.328	5.92
296.543	-5.87
296.758	-17.83
296.973	-24.22
297.188	-43.22
297.404	-74.58
297.619	-86.42
297.834	-104.87
298.049	-77.02
298.264	-59.47
298.479	-47.4
298.694	4.51
298.909	21.11
299.125	9.54
299.34	2.86
299.555	25.36
299.77	26.61
299.985	20.17
300.2	27.08
300.415	40.45
300.63	31.11
300.845	32.65
301.06	31.94
301.275	27.19
301.49	24.11
301.704	23.26
301.919	4.94
302.134	14.99
302.349	21.37
302.564	6.3
302.779	-1.32
302.994	19.67
303.209	22.19
303.423	30.75
303.638	50.98
303.853	42.3
304.068	34.35
304.283	29.28
304.497	3.78
304.712	7.44
304.927	12.38
305.142	14.97
305.356	9.05
305.571	12.22
305.786	12.14
306	29.25
306.215	34.79
306.43	31.72
306.644	23.6
306.859	32.49
307.074	12.51
307.288	7.37
307.503	18.01
307.717	17.55
307.932	12.37
308.147	8.62
308.361	0.72
308.576	-16.31
308.79	-8.08
309.005	-25.26
309.219	-6.34
309.434	5.54
309.648	6.72
309.863	15.16
310.077	13.71
310.292	19.04
310.506	1.23
310.72	-2.73
310.935	10.73
311.149	17.94
311.364	12.98
311.578	27.38
311.792	38.08
312.007	21.78
312.221	3.12
312.435	1.96
312.649	-8.86
312.864	-41.06
313.078	-35.66
313.292	-20.51
313.507	-11.38
313.721	3.08
313.935	41.58
314.149	41.9
314.363	28.6
314.578	5.82
314.792	-24.56
315.006	-18.4
315.22	-10.65
315.434	16.96
315.648	11.36
315.862	16.3
316.077	12.01
316.291	14.64
316.505	-28.19
316.719	-11.99
316.933	-16.73
317.147	-16.72
317.361	-24.65
317.575	4.48
317.789	7.33
318.003	17.65
318.217	16.92
318.431	11.67
318.645	2.17
318.859	1.08
319.073	2.04
319.287	4.54
319.5	4.5
319.714	-4.69
319.928	0.14
320.142	0.68
320.356	-0.99
320.57	-4.51
320.784	2.03
320.997	-28.65
321.211	-7.47
321.425	-14.73
321.639	-3.57
321.853	18.64
322.066	24.41
322.28	11.32
322.494	23.9
322.707	20.66
322.921	6.8
323.135	21.69
323.349	22.75
323.562	11.68
323.776	10.42
323.989	12.77
324.203	-5.29
324.417	-0.67
324.63	7.71
324.844	2.9
325.057	-10.91
325.271	-4.37
325.485	-15.06
325.698	-12.41
325.912	-1.85
326.125	-0.28
326.339	10.3
326.552	1.04
326.766	-7.73
326.979	-10.83
327.193	0.58
327.406	-3.75
327.619	17.49
327.833	14.24
328.046	22.84
328.26	10.85
328.473	18.66
328.686	8.2
328.9	16.49
329.113	0.18
329.326	10.04
329.54	11.24
329.753	20.47
329.966	19.68
330.179	26.91
330.393	21.51
330.606	21.14
330.819	5.85
331.032	0.03
331.246	7.59
331.459	24.26
331.672	27.97
331.885	28.89
332.098	42.08
332.311	30.06
332.525	4.9
332.738	2.01
332.951	-1.98
333.164	-6.6
333.377	-1.03
333.59	5.26
333.803	8.5
334.016	16.64
334.229	19.18
334.442	16.12
334.655	27.28
334.868	12.35
335.081	22.07
335.294	12.72
335.507	21.08
335.72	14.89
335.933	20.19
336.146	5.38
336.359	29.83
336.572	20.47
336.785	9.59
336.997	1.2
337.21	-3.67
337.423	-55.9
337.636	-41.73
337.849	-27.17
338.062	-12.58
338.274	-13.21
338.487	-17.34
338.7	-29.63
338.913	-27.42
339.125	-53.69
339.338	-44.3
339.551	-32.43
339.763	-34.2
339.976	-34.43
340.189	-22.81
340.402	-8.93
340.614	-4.17
340.827	24.09
341.039	32.21
341.252	25.79
341.465	8.68
341.677	11.41
341.89	-19.02
342.102	-6.22
342.315	-4.63
342.527	10.31
342.74	5.45
342.952	20.38
343.165	-0.88
343.377	12.22
343.59	11.6
343.802	22.24
344.015	31.89
344.227	34.63
344.44	19.14
344.652	11.45
344.864	4.16
345.077	0.48
345.289	8.98
345.502	29.13
345.714	21.08
345.926	26.86
346.139	17.17
346.351	19.8
346.563	24.65
346.775	40.52
346.988	52.07
347.2	44.86
347.412	42.17
347.624	33.81
347.837	35.99
348.049	24.45
348.261	21.35
348.473	2.27
348.685	-9.64
348.897	-0.88
349.11	-1.88
349.322	9.6
349.534	15.26
349.746	14.13
349.958	-4.26
350.17	-19.57
350.382	-14.19
350.594	1.05
350.806	10.98
351.018	19.45
351.23	36.6
351.442	31.9
351.654	22.18
351.866	23.53
352.078	31.93
352.29	20.19
352.502	23.2
352.714	33.8
352.926	26.9
353.138	25.21
353.35	18.99
353.561	15.01
353.773	9.77
353.985	18.85
354.197	4.86
354.409	4.93
354.621	-5.33
354.832	-2.71
355.044	-36.57
355.256	-26.39
355.468	-20.74
355.679	8.72
355.891	18.96
356.103	27.86
356.314	22.65
356.526	12.12
356.738	-15.91
356.949	-22.28
357.161	-16.43
357.373	-7.02
357.584	-2.87
357.796	6.86
358.008	3.65
358.219	5.45
358.431	-6.2
358.642	18.03
358.854	15.39
359.065	11.67
359.277	4.58
359.488	7.91
359.7	-8.07
359.911	-9.59
360.123	11.42
360.334	12.69
360.546	4.25
360.757	6.35
360.969	9.8
361.18	-7.68
361.391	6.17
361.603	23.35
361.814	22.46
362.025	23.29
362.237	32.03
362.448	29.05
362.659	19.86
362.871	4.32
363.082	-4.9
363.293	-36.43
363.504	-65.52
363.716	-62.3
363.927	-12.88
364.138	-23.23
364.349	-15.34
364.56	-6.94
364.772	1.1
364.983	-23.91
365.194	-7.71
365.405	8.08
365.616	24.7
365.827	15.35
366.038	37.97
366.25	30.8
366.461	20.17
366.672	11.32
366.883	8.24
367.094	-11.99
367.305	-14.12
367.516	-5.12
367.727	-23.15
367.938	-21.06
368.149	-19.28
368.36	-21.72
368.571	-59.4
368.781	-44.12
368.992	-33.98
369.203	-18.36
369.414	-24.11
369.625	-1.17
369.836	15.73
370.047	12.28
370.258	10.22
370.468	9.69
370.679	2.95
370.89	-10.05
371.101	3.8
371.312	-9.64
371.522	1.85
371.733	11.86
371.944	-0.12
372.155	6.83
372.365	26.85
372.576	12.89
372.787	8.57
372.997	23.03
373.208	22.08
373.419	10.15
373.629	7.31
373.84	8.65
374.05	1.96
374.261	-11.42
374.472	-8.19
374.682	11.08
374.893	4.92
375.103	3.51
375.314	8.33
375.524	2.37
375.735	-0.6
375.945	6.25
376.156	5.88
376.366	10.49
376.577	18.05
376.787	13.89
376.997	17.36
377.208	13.7
377.418	8.98
377.629	7.62
377.839	14.18
378.049	11.14
378.26	5.5
378.47	7.43
378.68	10.47
378.89	6.65
379.101	9.06
379.311	20.38
379.521	13.73
379.732	23.07
379.942	14.55
380.152	3.62
380.362	11.96
380.572	21.95
380.783	15.68
380.993	15.15
381.203	18.52
381.413	12.25
381.623	8.66
381.833	16.83
382.043	18.64
382.253	25.07
382.463	26.04
382.674	26.35
382.884	19.93
383.094	20.48
383.304	18.26
383.514	13.95
383.724	12.24
383.934	4.88
384.144	4.04
384.353	2.21
384.563	-0.14
384.773	-0.06
384.983	-3.46
385.193	1.29
385.403	1.04
385.613	6.47
385.823	1.86
386.033	5.48
386.242	0.22
386.452	0.45
386.662	-5.26
386.872	-5.16
387.082	-2.04
387.291	-0.3
387.501	3.05
387.711	6.42
387.921	10.31
388.13	10.98
388.34	10.31
388.55	6.59
388.759	4.58
388.969	1.12
389.179	0.47
389.388	-2.78
389.598	-6.3
389.807	-7
390.017	-4.87
390.227	-9.35
390.436	-3.83
390.646	1.57
390.855	1.37
391.065	2.78
391.274	5.8
391.484	4.53
391.693	1.57
391.903	2.54
392.112	1.79
392.322	2.03
392.531	1.32
392.74	2.6
392.95	2.34
393.159	1.98
393.369	2.14
393.578	1.77
393.787	2.38
393.997	3.42
394.206	3.28
394.415	3.36
394.625	4.16
394.834	1.13
395.043	0.25
395.252	2.7
395.462	3.75
395.671	3.38
395.88	5.3
396.089	5.37
396.298	4.3
396.508	3.04
396.717	3.18
396.926	2.75
397.135	3.65
397.344	3.01
397.553	3.21
397.762	3.61
397.971	4.17
398.181	2.67
398.39	2.91
398.599	3.28
398.808	3.05
399.017	3.37
399.226	4.5
399.435	4.22
399.644	4.18
399.853	4.28
400.062	4.06
400.27	3.35
400.479	3.65
400.688	3.92
400.897	3.76
401.106	3.64
401.315	3.92
401.524	4.06
401.733	3.42
401.941	3.58
402.15	3.53
402.359	3.62
402.568	3.7
402.777	3.92
402.985	3.68
403.194	3.53
403.403	3.56
403.612	3.14
403.82	2.99
404.029	3.02
404.238	3.2
404.446	3.16
404.655	3.33
404.864	3.4
405.072	3.43
405.281	3.48
405.489	3.33
405.698	3.35
405.906	3.39
406.115	3.32
406.324	3.28
406.532	3.43
406.741	3.32
406.949	3.32
407.158	3.52
407.366	3.33
407.574	3.28
407.783	3.33
407.991	3.31
408.2	3.4
408.408	3.52
408.617	3.49
408.825	3.43
409.033	3.37
409.242	3.21
409.45	3.08
409.658	3.09
409.867	3.01
410.075	3.02
410.283	2.89
410.491	2.84
410.7	2.69
410.908	2.79
411.116	2.87
411.324	2.81
411.533	2.78
411.741	2.91
411.949	2.95
412.157	2.91
412.365	3.06
412.573	3.19
412.781	3.06
412.99	2.96
413.198	2.94
413.406	2.99
413.614	3.07
413.822	3.08
414.03	3.04
414.238	3.09
414.446	3.1
414.654	2.99
414.862	3.01
415.07	2.98
415.278	3.06
415.486	2.82
415.694	2.85
415.902	2.79
416.109	2.82
416.317	2.64
416.525	2.61
416.733	2.45
416.941	2.56
417.149	2.56
417.357	2.64
417.564	2.69
417.772	2.81
417.98	2.87
418.188	2.75
418.395	2.48
418.603	2.46
418.811	2.42
419.019	2.35
419.226	2.52
419.434	2.85
419.642	2.81
419.849	2.71
420.057	2.84
420.265	2.76
420.472	2.74
420.68	2.84
420.887	2.84
421.095	2.7
421.302	2.78
421.51	2.7
421.717	2.8
421.925	2.81
422.132	2.83
422.34	2.6
422.547	2.51
422.755	2.55
422.962	2.68
423.17	2.44
423.377	2.63
423.585	2.81
423.792	2.78
423.999	2.73
424.207	2.77
424.414	2.73
424.621	2.59
424.829	2.69
425.036	2.68
425.243	2.83
425.451	2.94
425.658	2.86
425.865	2.71
426.072	2.88
426.28	2.92
426.487	2.86
426.694	2.93
426.901	2.96
427.108	2.82
427.315	2.78
427.523	2.63
427.73	2.53
427.937	2.37
428.144	2.31
428.351	2.26
428.558	2.38
428.765	2.48
428.972	2.76
429.179	2.77
429.386	2.88
429.593	2.81
429.8	2.83
430.007	2.77
430.214	2.83
430.421	2.97
430.628	3.06
430.835	2.97
431.042	2.81
431.249	2.75
431.456	2.61
431.662	2.66
431.869	2.77
432.076	2.81
432.283	2.98
432.49	2.88
432.697	2.78
432.903	2.72
433.11	2.88
433.317	2.85
433.524	2.89
433.73	2.91
433.937	3.04
434.144	2.93
434.35	2.81
434.557	2.99
434.764	2.95
434.97	2.88
435.177	2.93
435.384	2.98
435.59	2.92
435.797	2.95
436.003	2.96
436.21	2.78
436.416	2.87
436.623	2.86
436.829	2.87
437.036	2.89
437.242	3.02
437.449	3.05
437.655	3.03
437.862	3.14
438.068	3.17
438.275	3.3
438.481	3.18
438.687	3.11
438.894	3.2
439.1	3.13
439.307	3.15
439.513	3.23
439.719	3.32
439.926	3.19
440.132	3.29
440.338	3.13
440.544	3.08
440.751	3.01
440.957	3.11
441.163	3.05
441.369	3.08
441.575	3.02
441.782	3.14
441.988	3.07
442.194	3.07
442.4	3.12
442.606	3.38
442.812	3.31
443.018	3.39
443.224	3.49
443.431	3.48
443.637	3.27
443.843	3.37
444.049	3.36
444.255	3.31
444.461	3.33
444.667	3.4
444.873	3.39
445.079	3.36
445.284	3.34
445.49	3.27
445.696	3.31
445.902	3.28
446.108	3.3
446.314	3.38
446.52	3.48
446.726	3.51
446.931	3.51
447.137	3.51
447.343	3.5
447.549	3.44
447.755	3.46
447.96	3.45
448.166	3.43
448.372	3.41
448.578	3.4
448.783	3.42
448.989	3.51
449.195	3.56
449.4	3.61
449.606	3.65
449.812	3.53
450.017	3.52
450.223	3.47
450.428	3.35
450.634	3.33
450.84	3.36
451.045	3.38
451.251	3.41
451.456	3.55
451.662	3.6
451.867	3.61
452.073	3.59
452.278	3.68
452.483	3.66
452.689	3.68
452.894	3.75
453.1	3.73
453.305	3.76
453.51	3.84
453.716	3.83
453.921	3.86
454.127	3.82
454.332	3.77
454.537	3.65
454.742	3.6
454.948	3.64
455.153	3.63
455.358	3.62
455.563	3.7
455.769	3.75
455.974	3.71
456.179	3.76
456.384	3.7
456.589	3.66
456.795	3.66
457	3.63
457.205	3.59
457.41	3.6
457.615	3.59
457.82	3.69
458.025	3.7
458.23	3.67
458.435	3.72
458.64	3.75
458.845	3.75
459.05	3.8
459.255	3.88
459.46	3.89
459.665	3.88
459.87	3.83
460.075	3.81
460.28	3.83
460.485	3.92
460.69	3.92
460.895	3.94
461.099	3.86
461.304	3.81
461.509	3.73
461.714	3.81
461.919	3.79
462.123	3.81
462.328	3.78
462.533	3.75
462.738	3.69
462.942	3.69
463.147	3.8
463.352	4.01
463.556	4.05
463.761	4.08
463.966	4.13
464.17	4.18
464.375	4.17
464.58	4.13
464.784	4.16
464.989	4.1
465.193	4.01
465.398	3.93
465.602	4.07
465.807	4.01
466.011	4
466.216	3.95
466.42	3.99
466.625	3.98
466.829	3.98
467.034	4.08
467.238	4.18
467.443	4.17
467.647	4.11
467.851	4.26
468.056	4.31
468.26	4.27
468.464	4.29
468.669	4.35
468.873	4.27
469.077	4.28
469.282	4.34
469.486	4.32
469.69	4.38
469.894	4.4
470.099	4.36
470.303	4.33
470.507	4.39
470.711	4.41
470.915	4.46
471.119	4.5
471.324	4.55
471.528	4.53
471.732	4.48
471.936	4.43
472.14	4.35
472.344	4.42
472.548	4.43
472.752	4.38
472.956	4.38
473.16	4.49
473.364	4.43
473.568	4.42
473.772	4.41
473.976	4.47
474.18	4.45
474.384	4.48
474.588	4.55
474.792	4.59
474.995	4.53
475.199	4.53
475.403	4.51
475.607	4.47
475.811	4.53
476.015	4.51
476.218	4.46
476.422	4.5
476.626	4.51
476.83	4.54
477.033	4.64
477.237	4.7
477.441	4.59
477.644	4.53
477.848	4.57
478.052	4.58
478.255	4.58
478.459	4.67
478.663	4.81
478.866	4.79
479.07	4.74
479.273	4.84
479.477	4.82
479.681	4.77
479.884	4.78
480.088	4.81
480.291	4.71
480.495	4.76
480.698	4.77
480.901	4.83
481.105	4.85
481.308	4.88
481.512	4.83
481.715	4.96
481.919	4.98
482.122	4.97
482.325	5
482.529	5.01
482.732	4.89
482.935	4.79
483.138	4.75
483.342	4.81
483.545	4.93
483.748	5.02
483.952	5.08
484.155	5.06
484.358	5.06
484.561	4.96
484.764	4.9
484.967	4.92
485.171	5.05
485.374	4.97
485.577	4.97
485.78	5.01
485.983	4.99
486.186	4.98
486.389	5.03
486.592	5.03
486.795	4.98
486.998	4.93
487.201	4.9
487.404	4.99
487.607	4.98
487.81	5.05
488.013	5.04
488.216	5.02
488.419	4.89
488.622	4.88
488.825	4.87
489.028	4.9
489.231	4.94
489.433	4.98
489.636	4.98
489.839	4.98
490.042	4.97
490.245	4.92
490.447	4.94
490.65	4.98
490.853	4.98
491.056	5
491.258	5.02
491.461	5.03
491.664	5.01
491.866	4.98
492.069	5.05
492.272	4.97
492.474	4.97
492.677	5.02
492.879	5
493.082	4.98
493.285	5.1
493.487	5.06
493.69	5.01
493.892	5.01
494.095	4.99
494.297	5.02
494.5	4.99
494.702	5.02
494.905	5.02
495.107	4.96
495.309	4.98
495.512	5.01
495.714	4.97
495.917	5.04
496.119	5.12
496.321	5.03
496.524	4.98
496.726	5
496.928	4.94
497.13	4.87
497.333	4.88
497.535	4.91
497.737	4.93
497.939	4.97
498.142	4.99
498.344	4.98
498.546	4.93
498.748	4.97
498.95	4.99
499.152	5
499.355	5.03
499.557	5.13
499.759	5.17
499.961	5.15
500.163	5.19
500.365	5.21
500.567	5.19
500.769	5.13
500.971	5.14
501.173	5.08
501.375	5.18
501.577	5.1
501.779	5.13
501.981	5.12
502.183	5.13
502.385	5.04
502.587	5.2
502.788	5.23
502.99	5.24
503.192	5.3
503.394	5.27
503.596	5.18
503.798	5.12
503.999	5.13
504.201	5.07
504.403	5.11
504.605	5.18
504.806	5.21
505.008	5.25
505.21	5.33
505.411	5.38
505.613	5.35
505.815	5.4
506.016	5.44
506.218	5.47
506.42	5.38
506.621	5.41
506.823	5.43
507.024	5.41
507.226	5.44
507.427	5.56
507.629	5.57
507.83	5.55
508.032	5.56
508.233	5.52
508.435	5.5
508.636	5.52
508.838	5.55
509.039	5.54
509.24	5.6
509.442	5.62
509.643	5.62
509.845	5.57
510.046	5.59
510.247	5.54
510.448	5.53
510.65	5.58
510.851	5.64
511.052	5.66
511.254	5.67
511.455	5.67
511.656	5.58
511.857	5.53
512.058	5.56
512.26	5.6
512.461	5.66
512.662	5.72
512.863	5.7
513.064	5.67
513.265	5.65
513.466	5.62
513.667	5.67
513.868	5.75
514.069	5.72
514.27	5.74
514.471	5.7
514.672	5.68
514.873	5.64
515.074	5.68
515.275	5.64
515.476	5.65
515.677	5.72
515.878	5.78
516.079	5.79
516.28	5.86
516.481	5.94
516.682	5.88
516.882	5.82
517.083	5.77
517.284	5.76
517.485	5.73
517.686	5.77
517.886	5.79
518.087	5.8
518.288	5.77
518.488	5.74
518.689	5.71
518.89	5.74
519.091	5.86
519.291	5.88
519.492	5.94
519.692	5.98
519.893	6.05
520.094	5.99
520.294	6.01
520.495	5.99
520.695	6
520.896	5.98
521.096	6.01
521.297	6.03
521.497	6.03
521.698	5.97
521.898	5.95
522.099	5.93
522.299	5.89
522.499	5.96
522.7	6.05
522.9	6.06
523.101	6.05
523.301	6.08
523.501	6.01
523.702	6.01
523.902	5.98
524.102	6.06
524.302	6.07
524.503	6.13
524.703	6.11
524.903	6.11
525.103	6.12
525.304	6.14
525.504	6.16
525.704	6.2
525.904	6.22
526.104	6.22
526.304	6.25
526.504	6.22
526.705	6.21
526.905	6.22
527.105	6.23
527.305	6.21
527.505	6.19
527.705	6.17
527.905	6.22
528.105	6.18
528.305	6.19
528.505	6.23
528.705	6.3
528.905	6.29
529.105	6.32
529.304	6.31
529.504	6.32
529.704	6.27
529.904	6.28
530.104	6.3
530.304	6.33
530.503	6.37
530.703	6.37
530.903	6.36
531.103	6.38
531.303	6.38
531.502	6.42
531.702	6.48
531.902	6.57
532.101	6.57
532.301	6.59
532.501	6.62
532.7	6.64
532.9	6.63
533.1	6.63
533.299	6.66
533.499	6.55
533.698	6.51
533.898	6.55
534.097	6.57
534.297	6.57
534.496	6.6
534.696	6.67
534.895	6.63
535.095	6.64
535.294	6.63
535.494	6.66
535.693	6.64
535.892	6.66
536.092	6.67
536.291	6.68
536.491	6.73
536.69	6.75
536.889	6.72
537.088	6.76
537.288	6.76
537.487	6.79
537.686	6.73
537.886	6.82
538.085	6.82
538.284	6.89
538.483	6.84
538.682	6.92
538.882	6.94
539.081	6.93
539.28	6.88
539.479	6.91
539.678	6.9
539.877	6.88
540.076	6.91
540.275	7.03
540.474	7.07
540.673	7.12
540.872	7.12
541.071	7.17
541.27	7.18
541.469	7.22
541.668	7.25
541.867	7.28
542.066	7.25
542.265	7.25
542.464	7.25
542.663	7.32
542.862	7.42
543.06	7.54
543.259	7.6
543.458	7.63
543.657	7.65
543.856	7.67
544.054	7.64
544.253	7.6
544.452	7.64
544.651	7.7
544.849	7.67
545.048	7.69
545.247	7.77
545.445	7.79
545.644	7.77
545.843	7.85
546.041	7.84
546.24	7.85
546.438	7.97
546.637	8.02
546.836	8.06
547.034	8.14
547.233	8.23
547.431	8.18
547.63	8.21
547.828	8.25
548.027	8.27
548.225	8.21
548.423	8.25
548.622	8.3
548.82	8.37
549.019	8.47
549.217	8.56
549.415	8.58
549.614	8.68
549.812	8.68
550.01	8.66
550.209	8.73
550.407	8.86
550.605	8.81
550.803	8.82
551.002	8.93
551.2	8.94
551.398	8.99
551.596	9.05
551.794	9.18
551.993	9.22
552.191	9.3
552.389	9.3
552.587	9.4
552.785	9.37
552.983	9.49
553.181	9.54
553.379	9.61
553.577	9.67
553.775	9.85
553.973	9.89
554.171	9.94
554.369	10.06
554.567	10.18
554.765	10.14
554.963	10.16
555.161	10.23
555.359	10.26
555.557	10.22
555.755	10.31
555.952	10.39
556.15	10.48
556.348	10.49
556.546	10.63
556.744	10.7
556.941	10.66
557.139	10.72
557.337	10.84
557.535	10.86
557.732	10.9
557.93	11.13
558.128	11.12
558.325	11.19
558.523	11.32
558.721	11.41
558.918	11.44
559.116	11.62
559.313	11.68
559.511	11.8
559.708	11.88
559.906	11.98
560.104	12.02
560.301	12.09
560.498	12.12
560.696	12.18
560.893	12.26
561.091	12.35
561.288	12.48
561.486	12.51
561.683	12.54
561.88	12.61
562.078	12.66
562.275	12.65
562.473	12.77
562.67	12.82
562.867	12.88
563.064	12.99
563.262	13.08
563.459	13.08
563.656	13.21
563.853	13.26
564.051	13.38
564.248	13.46
564.445	13.52
564.642	13.6
564.839	13.67
565.036	13.67
565.234	13.73
565.431	13.89
565.628	13.95
565.825	14.03
566.022	14.14
566.219	14.2
566.416	14.25
566.613	14.34
566.81	14.41
567.007	14.41
567.204	14.43
567.401	14.47
567.598	14.54
567.795	14.58
567.991	14.65
568.188	14.75
568.385	14.75
568.582	14.81
568.779	14.93
568.976	15.01
569.172	15.09
569.369	15.19
569.566	15.21
569.763	15.16
569.96	15.16
570.156	15.24
570.353	15.25
570.55	15.29
570.746	15.35
570.943	15.39
571.14	15.25
571.336	15.25
571.533	15.24
571.729	15.28
571.926	15.36
572.123	15.57
572.319	15.58
572.516	15.6
572.712	15.6
572.909	15.57
573.105	15.54
573.302	15.59
573.498	15.6
573.695	15.64
573.891	15.64
574.087	15.6
574.284	15.64
574.48	15.7
574.677	15.69
574.873	15.71
575.069	15.83
575.266	15.83
575.462	15.8
575.658	15.94
575.854	15.99
576.051	15.94
576.247	15.94
576.443	16
576.639	15.87
576.835	15.77
577.032	15.67
577.228	15.66
577.424	15.63
577.62	15.63
577.816	15.66
578.012	15.71
578.208	15.75
578.404	15.7
578.6	15.7
578.796	15.7
578.993	15.71
579.189	15.74
579.384	15.77
579.58	15.75
579.776	15.75
579.972	15.73
580.168	15.55
580.364	15.61
580.56	15.58
580.756	15.56
580.952	15.49
581.148	15.58
581.343	15.52
581.539	15.56
581.735	15.54
581.931	15.58
582.127	15.49
582.322	15.44
582.518	15.35
582.714	15.33
582.909	15.34
583.105	15.36
583.301	15.34
583.496	15.38
583.692	15.32
583.888	15.29
584.083	15.31
584.279	15.37
584.474	15.31
584.67	15.34
584.866	15.31
585.061	15.24
585.257	15.21
585.452	15.21
585.648	15.1
585.843	15.09
586.039	15.07
586.234	15.08
586.429	15.03
586.625	15.11
586.82	15.14
587.015	15.17
587.211	15.17
587.406	15.21
587.601	15.25
587.797	15.21
587.992	15.16
588.187	15.05
588.383	15.12
588.578	15.07
588.773	15.08
588.968	15.17
589.163	15.25
589.359	15.15
589.554	15.2
589.749	15.27
589.944	15.29
590.139	15.31
590.334	15.34
590.529	15.3
590.724	15.36
590.919	15.4
591.114	15.4
591.309	15.43
591.504	15.49
591.699	15.42
591.894	15.38
592.089	15.39
592.284	15.47
592.479	15.46
592.674	15.5
592.869	15.56
593.064	15.64
593.259	15.71
593.454	15.75
593.648	15.74
593.843	15.79
594.038	15.85
594.233	15.83
594.428	15.89
594.622	16.03
594.817	16.13
595.012	16.09
595.206	16.1
595.401	16.15
595.596	16.15
595.79	16.07
595.985	16.11
596.18	16.17
596.374	16.25
596.569	16.33
596.763	16.39
596.958	16.46
597.153	16.53
597.347	16.51
597.542	16.56
597.736	16.71
597.931	16.72
598.125	16.8
598.319	16.9
598.514	16.93
598.708	16.83
598.903	16.91
599.097	16.95
599.291	16.95
599.486	16.94
599.68	17.07
599.874	17.12
600.069	17.11
600.263	17.17
600.457	17.26
600.651	17.25
600.846	17.28
601.04	17.28
601.234	17.29
601.428	17.38
601.622	17.4
601.817	17.42
602.011	17.46
602.205	17.44
602.399	17.36
602.593	17.43
602.787	17.44
602.981	17.35
603.175	17.44
603.369	17.36
603.563	17.44
603.757	17.41
603.951	17.43
604.145	17.42
604.339	17.56
604.533	17.53
604.727	17.48
604.921	17.57
605.115	17.5
605.309	17.36
605.502	17.33
605.696	17.31
605.89	17.37
606.084	17.35
606.278	17.46
606.471	17.43
606.665	17.39
606.859	17.2
607.053	17.08
607.246	16.96
607.44	16.81
607.634	16.76
607.827	16.7
608.021	16.75
608.214	16.71
608.408	16.67
608.602	16.68
608.795	16.68
608.989	16.56
609.182	16.52
609.376	16.56
609.569	16.51
609.763	16.44
609.956	16.39
610.15	16.24
610.343	16.14
610.537	16.12
610.73	16.03
610.923	16.03
611.117	16.12
611.31	16.01
611.504	15.87
611.697	15.87
611.89	15.74
612.083	15.63
612.277	15.7
612.47	15.71
612.663	15.62
612.856	15.56
613.05	15.5
613.243	15.3
613.436	15.22
613.629	15.08
613.822	15.01
614.015	14.89
614.209	14.8
614.402	14.75
614.595	14.83
614.788	14.84
614.981	14.77
615.174	14.75
615.367	14.67
615.56	14.56
615.753	14.6
615.946	14.67
616.139	14.65
616.332	14.6
616.525	14.54
616.718	14.44
616.911	14.33
617.103	14.32
617.296	14.26
617.489	14.19
617.682	14.21
617.875	14.22
618.067	14.19
618.26	14.2
618.453	14.17
618.646	14
618.838	13.92
619.031	13.84
619.224	13.75
619.417	13.74
619.609	13.73
619.802	13.71
619.994	13.72
620.187	13.69
620.38	13.64
620.572	13.69
620.765	13.7
620.957	13.6
621.15	13.57
621.342	13.6
621.535	13.52
621.727	13.4
621.92	13.42
622.112	13.46
622.305	13.43
622.497	13.5
622.69	13.54
622.882	13.52
623.074	13.56
623.267	13.46
623.459	13.31
623.651	13.22
623.844	13.26
624.036	13.22
624.228	13.21
624.42	13.26
624.613	13.25
624.805	13.16
624.997	13.08
625.189	13.17
625.381	13.08
625.574	13.08
625.766	13.02
625.958	13.05
626.15	12.94
626.342	12.94
626.534	12.91
626.726	12.91
626.918	12.81
627.11	12.74
627.302	12.75
627.494	12.76
627.686	12.74
627.878	12.74
628.07	12.8
628.262	12.86
628.454	12.78
628.646	12.75
628.838	12.76
629.029	12.66
629.221	12.55
629.413	12.52
629.605	12.43
629.797	12.42
629.989	12.42
630.18	12.42
630.372	12.43
630.564	12.41
630.755	12.31
630.947	12.37
631.139	12.26
631.33	12.24
631.522	12.31
631.714	12.3
631.905	12.22
632.097	12.19
632.289	12.12
632.48	12.07
632.672	12.07
632.863	11.98
633.055	11.98
633.246	11.99
633.438	11.94
633.629	11.94
633.821	12.03
634.012	12.06
634.203	12.08
634.395	12.06
634.586	12.05
634.777	11.96
634.969	11.9
635.16	11.81
635.351	11.75
635.543	11.73
635.734	11.69
635.925	11.78
636.117	11.79
636.308	11.84
636.499	11.74
636.69	11.73
636.881	11.59
637.073	11.66
637.264	11.64
637.455	11.67
637.646	11.74
637.837	11.75
638.028	11.66
638.219	11.69
638.41	11.7
638.601	11.63
638.792	11.63
638.983	11.54
639.174	11.47
639.365	11.5
639.556	11.39
639.747	11.38
639.938	11.52
640.129	11.54
640.32	11.49
640.511	11.53
640.701	11.55
640.892	11.45
641.083	11.44
641.274	11.33
641.465	11.36
641.655	11.31
641.846	11.28
642.037	11.18
642.228	11.15
642.418	11.06
642.609	11.02
642.8	10.96
642.99	10.96
643.181	10.99
643.372	10.99
643.562	10.95
643.753	10.97
643.943	10.91
644.134	10.84
644.324	10.81
644.515	10.76
644.705	10.73
644.896	10.83
645.086	10.83
645.277	10.84
645.467	10.9
645.658	10.79
645.848	10.67
646.038	10.64
646.229	10.62
646.419	10.61
646.61	10.75
646.8	10.83
646.99	10.82
647.18	10.75
647.371	10.66
647.561	10.52
647.751	10.46
647.941	10.48
648.132	10.53
648.322	10.49
648.512	10.54
648.702	10.52
648.892	10.46
649.082	10.46
649.272	10.47
649.462	10.44
649.653	10.45
649.843	10.36
650.033	10.36
650.223	10.28
650.413	10.29
650.603	10.34
650.793	10.44
650.983	10.37
651.172	10.37
651.362	10.27
651.552	10.12
651.742	10.03
651.932	9.97
652.122	10.04
652.312	9.98
652.502	9.91
652.691	9.9
652.881	9.93
653.071	9.83
653.261	9.9
653.45	9.93
653.64	9.88
653.83	9.82
654.019	9.69
654.209	9.65
654.399	9.54
654.588	9.52
654.778	9.38
654.968	9.44
655.157	9.37
655.347	9.29
655.536	9.17
655.726	9.16
655.915	9.04
656.105	8.91
656.294	8.84
656.484	8.71
656.673	8.63
656.863	8.59
657.052	8.52
657.241	8.45
657.431	8.45
657.62	8.38
657.809	8.25
657.999	8.2
658.188	8.1
658.377	7.98
658.567	7.89
658.756	7.75
658.945	7.63
659.134	7.57
659.324	7.43
659.513	7.25
659.702	7.14
659.891	7.06
660.08	6.99
660.269	6.96
660.458	6.92
660.648	6.94
660.837	6.83
661.026	6.72
661.215	6.62
661.404	6.57
661.593	6.44
661.782	6.35
661.971	6.23
662.16	6.23
662.349	6.04
662.538	5.99
662.726	5.99
662.915	5.96
663.104	5.81
663.293	5.96
663.482	5.95
663.671	5.91
663.86	5.84
664.048	5.93
664.237	5.83
664.426	5.77
664.615	5.74
664.803	5.73
664.992	5.52
665.181	5.49
665.369	5.33
665.558	5.22
665.747	5.22
665.935	5.28
666.124	5.31
666.312	5.33
666.501	5.41
666.69	5.44
666.878	5.41
667.067	5.36
667.255	5.44
667.444	5.45
667.632	5.47
667.82	5.51
668.009	5.55
668.197	5.63
668.386	5.53
668.574	5.48
668.762	5.48
668.951	5.42
669.139	5.23
669.327	5.24
669.516	5.12
669.704	5.13
669.892	5.14
670.08	5.14
670.269	5.24
670.457	5.38
670.645	5.38
670.833	5.43
671.021	5.65
671.21	5.61
671.398	5.65
671.586	5.64
671.774	5.72
671.962	5.65
672.15	5.72
672.338	5.77
672.526	5.8
672.714	5.77
672.902	5.88
673.09	6
673.278	6.03
673.466	6.17
673.654	6.24
673.842	6.32
674.03	6.39
674.218	6.4
674.405	6.4
674.593	6.51
674.781	6.53
674.969	6.55
675.157	6.63
675.344	6.65
675.532	6.6
675.72	6.57
675.908	6.53
676.095	6.52
676.283	6.71
676.471	6.81
676.658	6.89
676.846	6.92
677.033	6.98
677.221	6.87
677.409	6.89
677.596	6.97
677.784	7.15
677.971	7.21
678.159	7.29
678.346	7.32
678.534	7.38
678.721	7.46
678.909	7.65
679.096	7.76
679.283	7.9
679.471	8
679.658	7.97
679.846	7.91
680.033	8.08
680.22	8.15
680.408	8.04
680.595	8.09
680.782	8.26
680.969	8.34
681.157	8.33
681.344	8.34
681.531	8.48
681.718	8.55
681.905	8.45
682.093	8.56
682.28	8.85
682.467	8.91
682.654	8.99
682.841	9.17
683.028	9.19
683.215	9.25
683.402	9.21
683.589	9.19
683.776	9.17
683.963	9.44
684.15	9.63
684.337	9.95
684.524	10.16
684.711	10.37
684.898	10.37
685.085	10.41
685.271	10.62
685.458	10.68
685.645	10.74
685.832	10.95
686.019	11.03
686.205	11.12
686.392	11.49
686.579	11.75
686.766	12.03
686.952	12.19
687.139	12.37
687.326	12.56
687.512	12.8
687.699	13.05
687.886	13.41
688.072	13.56
688.259	13.78
688.445	14.18
688.632	14.46
688.818	14.92
689.005	15.26
689.191	15.63
689.378	15.92
689.564	16.31
689.751	16.6
689.937	17.07
690.124	17.49
690.31	17.78
690.496	18.26
690.683	18.74
690.869	19.19
691.055	19.67
691.242	20.17
691.428	20.54
691.614	20.93
691.8	21.46
691.987	21.92
692.173	22.56
692.359	23.11
692.545	23.75
692.731	24.28
692.918	24.79
693.104	25.28
693.29	25.8
693.476	26.33
693.662	26.69
693.848	27.18
694.034	27.71
694.22	28.19
694.406	28.54
694.592	29.39
694.778	30.03
694.964	30.84
695.15	31.41
695.336	32.22
695.522	32.73
695.708	33.61
695.894	34.13
696.08	34.93
696.265	35.68
696.451	36.21
696.637	36.62
696.823	37.19
697.009	37.62
697.194	38.13
697.38	38.77
697.566	39.38
697.751	40
697.937	40.95
698.123	41.64
698.308	42.22
698.494	43.21
698.68	43.83
698.865	44.41
699.051	45.05
699.236	45.71
699.422	45.87
699.607	46.31
699.793	46.97
699.978	47.72
700.164	48.41
700.349	49.29
700.535	50.11
700.72	50.46
700.906	50.74
701.091	51.6
701.276	52.18
701.462	52.68
701.647	53.32
701.832	53.93
702.018	54.41
702.203	55.04
702.388	55.53
702.573	56.38
702.759	57.3
702.944	57.38
703.129	57.7
703.314	58.23
703.499	58.36
703.684	58.61
703.87	59.5
704.055	60.21
704.24	60.99
704.425	61.61
704.61	62.12
704.795	62.52
704.98	62.62
705.165	62.62
705.35	63.06
705.535	63.4
705.72	63.8
705.905	64.38
706.09	65.12
706.275	65.59
706.459	66.13
706.644	66.38
706.829	66.79
707.014	67.26
707.199	67.68
707.384	68.13
707.568	68.67
707.753	69.24
707.938	69.54
708.123	69.9
708.307	70.32
708.492	71.08
708.677	71.38
708.861	71.69
709.046	71.78
709.231	71.79
709.415	71.8
709.6	71.81
709.784	72.15
709.969	72.98
710.153	73.15
710.338	73.62
710.522	74.43
710.707	74.74
710.891	74.72
711.076	75.2
711.26	75.46
711.445	75.51
711.629	75.46
711.813	76.02
711.998	76.39
712.182	76.36
712.366	77.17
712.551	78.27
712.735	78.3
712.919	78.83
713.103	79.4
713.288	79.07
713.472	79.02
713.656	78.97
713.84	79.38
714.024	79.94
714.208	80.28
714.393	80.64
714.577	81.2
714.761	81.24
714.945	81.17
715.129	81.42
715.313	81.3
715.497	81.49
715.681	81.16
715.865	81.13
716.049	81.41
716.233	81.83
716.417	82.09
716.601	82.61
716.785	83.19
716.968	83.21
717.152	83.49
717.336	83.48
717.52	84.19
717.704	84.54
717.888	84.71
718.071	84.44
718.255	85.05
718.439	84.84
718.622	84.87
718.806	85.07
718.99	84.96
719.174	85.04
719.357	85.63
719.541	85.95
719.724	86.11
719.908	86.62
720.092	86.7
720.275	86.29
720.459	86.32
720.642	86.76
720.826	86.7
721.009	86.63
721.193	86.49
721.376	86.26
721.559	86.19
721.743	86.79
721.926	87.17
722.11	87.97
722.293	88.9
722.476	88.85
722.66	89.26
722.843	89.37
723.026	89.51
723.21	89.15
723.393	89.78
723.576	89.84
723.759	90.16
723.942	90
724.126	89.84
724.309	89.32
724.492	89.22
724.675	89.13
724.858	89.26
725.041	89.83
725.224	91.01
725.407	91.08
725.59	91.31
725.774	91.42
725.957	91.58
726.14	91.08
726.322	90.77
726.505	91.18
726.688	91.58
726.871	91.4
727.054	91.8
727.237	92.56
727.42	92.07
727.603	91.86
727.786	92.1
727.968	91.77
728.151	91.81
728.334	92.37
728.517	92.86
728.699	92.78
728.882	92.96
729.065	92.5
729.248	92.46
729.43	92.24
729.613	92.39
729.796	93.54
729.978	94.17
730.161	93.84
730.343	93.86
730.526	93.95
730.708	93.04
730.891	93.43
731.073	93.89
731.256	94.48
731.438	96
731.621	96.13
731.803	96.2
731.986	96.7
732.168	96.98
732.35	96.31
732.533	96.37
732.715	96.38
732.898	96.02
733.08	95.61
733.262	95.17
733.444	95.81
733.627	96.03
733.809	96.45
733.991	97.19
734.173	97.56
734.355	97.16
734.538	97.35
734.72	97.69
734.902	97.31
735.084	96.74
735.266	97
735.448	96.86
735.63	97.07
735.812	96.94
735.994	97.28
736.176	97.39
736.358	98.15
736.54	97.85
736.722	97.77
736.904	98.09
737.086	97.23
737.268	97.69
737.45	98.53
737.632	99.42
737.814	100.17
737.995	101.43
738.177	100.78
738.359	99.98
738.541	99.48
738.723	98.98
738.904	98.26
739.086	98.48
739.268	98.42
739.449	98.41
739.631	98.32
739.813	98.92
739.994	98.4
740.176	98.97
740.358	99.69
740.539	98.7
740.721	98.6
740.902	98.73
741.084	98.81
741.265	98.34
741.447	100.19
741.628	99.95
741.81	100.58
741.991	99.85
742.172	99.83
742.354	98.73
742.535	99.02
742.717	98.04
742.898	98.78
743.079	99.86
743.261	100.93
743.442	99.8
743.623	100.75
743.804	100.55
743.986	99.48
744.167	98.32
744.348	98.37
744.529	97.47
744.71	97.09
744.891	97.32
745.073	98.14
745.254	98.73
745.435	99.07
745.616	98.37
745.797	97.73
745.978	98.35
746.159	98.49
746.34	99.25
746.521	100.72
746.702	101.6
746.883	100.52
747.064	100.38
747.245	99.65
747.426	98.97
747.606	98.08
747.787	98.54
747.968	98.59
748.149	97.92
748.33	97.43
748.51	97.39
748.691	96.55
748.872	97.96
749.053	97.71
749.233	98.18
749.414	98.8
749.595	98.88
749.775	97.45
749.956	98.14
750.137	98.39
750.317	97.29
750.498	99
750.678	98.76
750.859	98.94
751.04	98.66
751.22	97.32
751.4	96.14
751.581	97.15
751.761	96.69
751.942	96.99
752.122	98.82
752.303	98.93
752.483	98.54
752.663	99.82
752.844	100.03
753.024	102.33
753.204	103.01
753.385	103.4
753.565	102.11
753.745	101.48
753.925	98.81
754.106	97.76
754.286	95.51
754.466	95.79
754.646	95.88
754.826	98.33
755.006	97.96
755.187	100.83
755.367	100.38
755.547	100.14
755.727	99.26
755.907	99.41
756.087	98.03
756.267	97.03
756.447	97.28
756.627	95.94
756.807	97.02
756.987	97.42
757.167	98.55
757.346	98.29
757.526	99.49
757.706	97.9
757.886	98.01
758.066	98.83
758.246	98.63
758.425	97.04
758.605	97.45
758.785	96.74
758.965	97.32
759.144	96.72
759.324	98.51
759.504	98.88
759.683	98.52
759.863	98.69
760.043	99.52
760.222	98.26
760.402	97.75
760.581	99.47
760.761	98.55
760.94	98.53
761.12	98.5
761.299	99.02
761.479	98.26
761.658	96.56
761.838	97.13
762.017	97.27
762.197	96.01
762.376	96.1
762.555	97.18
762.735	96.01
762.914	95.83
763.093	95.75
763.273	95.28
763.452	93.73
763.631	93.85
763.81	93.48
763.99	93.84
764.169	94.7
764.348	94.5
764.527	94.17
764.706	94.07
764.885	95.25
765.064	95.02
765.243	96.71
765.423	97.34
765.602	98.47
765.781	95.45
765.96	94.19
766.139	94.05
766.318	95.49
766.497	95.79
766.676	96.81
766.854	96.61
767.033	96.57
767.212	97.14
767.391	95.75
767.57	99.1
767.749	98.68
767.928	98.63
768.106	96.76
768.285	95.84
768.464	93.48
768.643	95.47
768.821	94.13
769	93.59
769.179	94.53
769.357	94.93
769.536	92.16
769.715	92.6
769.893	93.04
770.072	92.39
770.25	91.59
770.429	92.03
770.607	91.52
770.786	90.18
770.964	91.06
771.143	92.01
771.321	90.99
771.5	92.79
771.678	93.24
771.857	91.48
772.035	92.08
772.213	94.4
772.392	91.41
772.57	92.36
772.748	93.62
772.927	92.81
773.105	93.08
773.283	94.58
773.461	95.32
773.64	96.35
773.818	96.69
773.996	96.72
774.174	97.51
774.352	95.84
774.531	92
774.709	90.79
774.887	87.88
775.065	88.63
775.243	89.56
775.421	91.56
775.599	93.53
775.777	93.43
775.955	92.8
776.133	90.88
776.311	89.75
776.489	87.92
776.667	88.5
776.844	88.16
777.022	88.17
777.2	89.71
777.378	87.24
777.556	88.71
777.734	88.7
777.911	91.14
778.089	90.94
778.267	92.25
778.445	94.33
778.622	94.69
778.8	91.33
778.978	91.54
779.155	95.49
779.333	95.26
779.511	94.12
779.688	96.07
779.866	96.23
780.043	92.95
780.221	91.77
780.398	91.27
780.576	91.12
780.753	89.97
780.931	89.78
781.108	91.21
781.286	92.32
781.463	91.69
781.64	92.29
781.818	93.81
781.995	90.87
782.172	90.43
782.35	89.68
782.527	90.14
782.704	89.36
782.882	87.69
783.059	87.71
783.236	89.05
783.413	87.51
783.59	88.53
783.768	90.49
783.945	89.97
784.122	89.93
784.299	91.12
784.476	86.76
784.653	85.88
784.83	84.63
785.007	82.02
785.184	80.42
785.361	84.04
785.538	82.85
785.715	85.7
785.892	86.96
786.069	88.28
786.246	86.81
786.423	86.62
786.6	83.45
786.776	83.89
786.953	82.91
787.13	82.9
787.307	83.83
787.484	84.75
787.66	83.38
787.837	84.02
788.014	85.62
788.191	85.09
788.367	85.96
788.544	87.51
788.721	83.59
788.897	83.01
789.074	85.02
789.25	83.19
789.427	81.02
789.603	80.56
789.78	80.24
789.956	78.09
790.133	79.78
790.309	83.58
790.486	85.04
790.662	84.07
790.839	85.83
791.015	83.13
791.192	77.33
791.368	79.22
791.544	79.71
791.721	79.68
791.897	80.53
792.073	82.99
792.249	81.3
792.426	80.65
792.602	83.81
792.778	82.17
792.954	81.63
793.13	81.54
793.307	81.73
793.483	78.27
793.659	81.93
793.835	84.33
794.011	90.02
794.187	90.5
794.363	89.78
794.539	87.58
794.715	87.45
794.891	85.99
795.067	85.86
795.243	84.65
795.419	86.74
795.595	90.09
795.771	86.49
795.947	82.71
796.122	81.95
796.298	81.02
796.474	82.52
796.65	86.34
796.826	86.42
797.001	88.35
797.177	82.66
797.353	76.33
797.529	76.77
797.704	77.82
797.88	78.76
798.056	82.67
798.231	82.8
798.407	83.29
798.582	85.51
798.758	84.46
798.934	87.31
799.109	86.11
799.285	83.93
799.46	79.57
799.636	80.79
799.811	78.89
799.986	74.56
800.162	70.01
800.337	75.13
800.513	76.15
800.688	72.94
800.863	84.06
801.039	89.56
801.214	83.19
801.389	78.38
801.565	82.04
801.74	73.19
801.915	71.63
802.09	70.83
802.265	70.22
802.441	70.96
802.616	71.15
802.791	67.18
802.966	73.5
803.141	75.08
803.316	76.41
803.491	78.04
803.666	84.65
803.841	82.1
804.016	81.83
804.191	77.66
804.366	77.02
804.541	78.69
804.716	80.82
804.891	83.13
805.066	88.19
805.241	86.09
805.416	86.92
805.591	90.32
805.765	94.03
805.94	85.84
806.115	86.67
806.29	80.63
806.464	73.1
806.639	70.17
806.814	78.67
806.989	83.19
807.163	90.29
807.338	87.62
807.512	88.01
807.687	81.44
807.862	76.24
808.036	79.81
808.211	83.42
808.385	89.51
808.56	87.19
808.734	83.7
808.909	74.5
809.083	79.25
809.258	71.17
809.432	76.3
809.606	79.35
809.781	78.1
809.955	68.81
810.13	65.63
810.304	60.61
810.478	61.42
810.652	61.07
810.827	65.71
811.001	67.83
811.175	68.96
811.349	77.57
811.524	83.67
811.698	83.69
811.872	86.36
812.046	80.11
812.22	77.42
812.394	75.62
812.568	72.39
812.742	66.99
812.916	76.98
813.09	72.85
813.264	68.1
813.438	71.82
813.612	78.32
813.786	76.77
813.96	79.41
814.134	84.31
814.308	87.45
814.482	85.21
814.656	82.93
814.83	73.62
815.003	66.36
815.177	58.78
815.351	63.19
815.525	67.56
815.698	69.67
815.872	70.71
816.046	68.96
816.219	71.49
816.393	65.9
816.567	71.08
816.74	75.87
816.914	77.94
817.088	72.62
817.261	67.77
817.435	66.4
817.608	62.13
817.782	61.93
817.955	63.08
818.129	67.56
818.302	67.73
818.475	70.54
818.649	72.36
818.822	71.11
818.996	72.67
819.169	76.2
819.342	73.8
819.516	77.5
819.689	68
819.862	72.1
820.035	74.28
820.209	78.99
820.382	74.01
820.555	75.37
820.728	75.87
820.901	71.08
821.075	76.58
821.248	77.85
821.421	77.21
821.594	74.33
821.767	74.32
821.94	57.67
822.113	53.25
822.286	57.13
822.459	59.28
822.632	55.28
822.805	63.99
822.978	70.26
823.151	66.96
823.324	47.07
823.496	56.35
823.669	65.82
823.842	71.31
824.015	78.26
824.188	100.47
824.361	88.33
824.533	74.88
824.706	74.15
824.879	69
825.051	76.34
825.224	68.76
825.397	70.52
825.569	61.73
825.742	68.94
825.915	61.38
826.087	55.68
826.26	53.57
826.432	63.8
826.605	52.02
826.777	55.54
826.95	57.33
827.122	57.53
827.295	67.15
827.467	84.85
827.64	61.7
827.812	62.81
827.984	75.5
828.157	46.1
828.329	48.23
828.501	51.87
828.674	64.82
828.846	54.49
829.018	54.99
829.19	48.23
829.363	57.07
829.535	50.97
829.707	48.55
829.879	53.76
830.051	44.95
830.223	47.48
830.395	60.05
830.568	61.31
830.74	63.39
830.912	67.82
831.084	68.25
831.256	59.48
831.428	63.52
831.6	58.13
831.772	44.05
831.943	35.97
832.115	45.63
832.287	53.34
832.459	64.75
832.631	81.1
832.803	86.9
832.975	82.05
833.146	72.82
833.318	69.39
833.49	64.96
833.662	70.55
833.833	57.43
834.005	58.09
834.177	73.94
834.348	69.77
834.52	61.13
834.692	56.88
834.863	51.14
835.035	49.09
835.206	42.8
835.378	52.16
835.549	60.46
835.721	55.48
835.892	46.13
836.064	50.01
836.235	43.66
836.407	45.88
836.578	67.26
836.749	55.58
836.921	59.86
837.092	46.7
837.264	37.81
837.435	21.91
837.606	38.62
837.777	44.71
837.949	53.86
838.12	58.45
838.291	56.67
838.462	60.93
838.633	61.28
838.805	46.21
838.976	29.83
839.147	50.34
839.318	45.36
839.489	32.48
839.66	48.15
839.831	57.3
840.002	43.56
840.173	50.02
840.344	53.74
840.515	50.66
840.686	55.38
840.857	59.01
841.028	54.51
841.199	59.92
841.369	68.93
841.54	54.03
841.711	68.4
841.882	61.13
842.053	56.37
842.223	42.4
842.394	36.87
842.565	16.43
842.736	20.6
842.906	22.03
843.077	20.56
843.248	50.85
843.418	56.51
843.589	48.82
843.759	57.92
843.93	76.49
844.101	76.16
844.271	113.3
844.442	121.15
844.612	111.66
844.783	103.26
844.953	103.16
845.123	96.96
845.294	106.11
845.464	98.96
845.635	103.58
845.805	127.04
845.975	128.82
846.146	87.29
846.316	70.76
846.486	52.93
846.656	43.71
846.827	32.94
846.997	26.42
847.167	42.93
847.337	44.57
847.507	46.99
847.677	29.78
847.848	45.68
848.018	49.94
848.188	52.44
848.358	39.99
848.528	63.57
848.698	39.82
848.868	32.93
849.038	10.59
849.208	18.06
849.378	19.36
849.548	24.69
849.718	31.01
849.887	53.45
850.057	26.19
850.227	70.56
850.397	71.64
850.567	53.79
850.737	68.02
850.906	90.6
851.076	56.02
851.246	59.25
851.415	47.32
851.585	70.51
851.755	72.47
851.924	80.36
852.094	92.15
852.264	102.68
852.433	66.7
852.603	53.65
852.772	61.78
852.942	46.76
853.111	43.21
853.281	44.77
853.45	47.47
853.62	34.48
853.789	20.47
853.959	38.82
854.128	41.37
854.297	37.5
854.467	34.46
854.636	44.07
854.805	19.13
854.975	10.59
855.144	6.24
855.313	7.08
855.482	-0.24
855.652	11.16
855.821	14.63
855.99	0.97
856.159	6.41
856.328	24.72
856.497	21.33
856.667	26.14
856.836	54.84
857.005	55.33
857.174	38.29
857.343	48.48
857.512	54.42
857.681	33.49
857.85	21.43
858.019	16.59
858.188	11.03
858.356	26.83
858.525	25.37
858.694	28.65
858.863	36.02
859.032	34.15
859.201	20.32
859.369	31.67
859.538	31.75
859.707	3.01
859.876	22.76
860.044	26.66
860.213	32.8
860.382	33.29
860.55	36.65
860.719	43.96
860.888	44.77
861.056	27.85
861.225	10.9
861.393	35.67
861.562	18.74
861.73	24.01
861.899	38.37
862.067	32.42
862.236	26.99
862.404	28.87
862.572	16.91
862.741	8.66
862.909	32.53
863.078	30.87
863.246	22.42
863.414	30.27
863.582	41.7
863.751	26.71
863.919	15.57
864.087	9.25
864.255	-28.05
864.424	-31.96
864.592	9.5
864.76	-8.45
864.928	-27.84
865.096	-5.42
865.264	-11
865.432	-22.51
865.6	0.86
865.768	19.14
865.936	21.87
866.104	20.39
866.272	9.2
866.44	3.78
866.608	11.12
866.776	20.19
866.944	49.87
867.112	69.67
867.28	67.34
867.448	77.06
867.615	65.28
867.783	46.55
867.951	30.8
868.119	74.1
868.286	65.73
868.454	58.55
868.622	35.61
868.789	22.81
868.957	20.39
869.125	11.02
869.292	-13.32
869.46	33.37
869.627	29.68
869.795	-27.09
869.963	33.63
870.13	51.4
870.298	18.17
870.465	46.28
870.632	48
870.8	19
870.967	7.69
871.135	-4.6
871.302	-16.31
871.469	10.59
871.637	12.29
871.804	19.63
871.971	4.12
872.139	5.05
872.306	-56.04
872.473	-92.75
872.64	-227.85
872.807	-169.63
872.975	-433.54
873.142	-52.42
873.309	-25.47
873.476	48.72
873.643	82.49
873.81	78.72
873.977	59.33
874.144	65.07
874.311	20.09
874.478	8.83
874.645	-26.33
874.812	41.47
874.979	94.04
875.146	79.82
875.313	32.05
875.48	80.92
875.647	52.92
875.813	27.77
875.98	11.68
876.147	50.09
876.314	6.13
876.481	34.73
876.647	23.69
876.814	34.82
876.981	34.47
877.147	33.69
877.314	34.2
877.481	46.64
877.647	57.09
877.814	24.88
877.98	7.62
878.147	30.32
878.314	22.23
878.48	9.98
878.647	39.92
878.813	78.76
878.979	56.16
879.146	62.98
879.312	89.91
879.479	77.99
879.645	56.12
879.811	45.56
879.978	42.58
880.144	16.8
880.31	21.2
880.477	32.29
880.643	45.16
880.809	50.07
880.975	66.53
881.142	31.78
881.308	190.31
881.474	325.91
881.64	-47.46
881.806	-110.77
881.972	-69.46
882.138	-2.33
882.304	24.96
882.47	-7.51
882.636	-11.42
882.802	-9.97
882.968	-83.39
883.134	-44.41
883.3	-14.91
883.466	28.74
883.632	100.05
883.798	199.1
883.964	74.85
884.129	252.4
884.295	133.09
884.461	-2.38
884.627	15.13
884.793	5.93
884.958	22.27
885.124	-22.16
885.29	-27.74
885.455	-10.37
885.621	55.37
885.787	18.76
885.952	6.38
886.118	51.71
886.283	59.07
886.449	32.36
886.614	26.62
886.78	35.91
886.945	-32.93
887.111	-74.82
887.276	-59.21
887.442	-139.69
887.607	-79.64
887.773	-2.14
887.938	-13.04
888.103	0.04
888.269	53.65
888.434	39.61
888.599	25.2
888.764	42.74
888.93	36.51
889.095	21.72
889.26	18.22
889.425	22.92
889.59	101.33
889.756	70.82
889.921	42.6
890.086	99.2
890.251	179.83
890.416	30.94
890.581	51.86
890.746	62.38
890.911	41.84
891.076	33.64
891.241	50.52
891.406	50.04
891.571	69.44
891.736	37.1
891.901	26.11
892.065	12.81
892.23	23.07
892.395	25.41
892.56	26.33
892.725	-1.48
892.889	-34.5
893.054	-65.42
893.219	-104.29
893.384	-102.13
893.548	-97.22
893.713	-110.31
893.878	-125.65
