Data from Ofra_PS_T2_1A_2HS09_Reflection_3.txt Node
Date: Wed Jul 21 18:04:07 EDT 2021
User: Adam
Spectrometer: FLMT01687
Trigger mode: 0
Integration Time (sec): 1.100000E0
Scans to average: 2
Electric dark correction enabled: true
Nonlinearity correction enabled: false
Boxcar width: 2
XAxis mode: Wavelengths
Number of Pixels in Spectrum: 3648
>>>>>Begin Spectral Data<<<<<
179.494	536.4
179.716	595.76
179.937	601.51
180.158	566.62
180.38	788.44
180.601	305.8
180.823	56.39
181.044	-209.72
181.265	-23.16
181.486	98.53
181.708	100.12
181.929	945.92
182.15	-809.15
182.372	20.78
182.593	-4.7
182.814	-19.36
183.035	19.04
183.257	19.38
183.478	-111.38
183.699	-47.49
183.92	-34.18
184.141	-28.91
184.363	-86.2
184.584	3.26
184.805	18.02
185.026	44.29
185.247	37.02
185.468	35.29
185.689	36.04
185.91	24.46
186.132	20.27
186.353	11.54
186.574	56.02
186.795	26.77
187.016	-32.67
187.237	-47.24
187.458	-75.51
187.679	-97.81
187.9	-71.48
188.121	-52.41
188.342	-50.47
188.563	11.23
188.784	41.47
189.005	26.24
189.226	86.35
189.447	106.15
189.667	-35.68
189.888	-303.69
190.109	-1217.53
190.33	-771.29
190.551	-1448.23
190.772	-299.64
190.993	-251.67
191.214	-159.5
191.434	-90.32
191.655	-27.79
191.876	-80.73
192.097	-135.58
192.318	-178.59
192.538	-259.09
192.759	-207.3
192.98	-86.42
193.201	-4.11
193.421	25.26
193.642	26.38
193.863	43.37
194.083	14.73
194.304	-10.78
194.525	-16.37
194.745	-48.92
194.966	-67.18
195.187	-55.26
195.407	-56.41
195.628	-149.56
195.848	-105.54
196.069	-85.87
196.29	-63.74
196.51	-88.6
196.731	-87.63
196.951	-103.96
197.172	-125.61
197.392	-135.38
197.613	-114.67
197.833	-113.51
198.054	-109.75
198.274	-38.43
198.495	-46.99
198.715	-5.84
198.936	-2.34
199.156	31.09
199.377	-60.49
199.597	-80.6
199.817	-119.97
200.038	-65.16
200.258	-159.14
200.479	-82.64
200.699	-87.19
200.919	-0.58
201.14	-20.27
201.36	-25.72
201.58	9.67
201.801	39.72
202.021	4.08
202.241	5.51
202.461	11.86
202.682	-70.47
202.902	-152.59
203.122	-88.02
203.342	-78.91
203.563	-33.08
203.783	2.98
204.003	-24.95
204.223	-45.9
204.443	10.08
204.663	-25.92
204.884	-12.89
205.104	39.33
205.324	55.11
205.544	40.71
205.764	54.92
205.984	46.76
206.204	40.89
206.424	38.45
206.644	19.13
206.864	17.56
207.084	-10.01
207.304	-23.29
207.525	-170.16
207.745	-97.65
207.964	-47.28
208.184	-104
208.404	-121.55
208.624	-116.54
208.844	-111.42
209.064	-419.93
209.284	-351.68
209.504	-174.77
209.724	-28.76
209.944	-16.2
210.164	20.83
210.384	19.11
210.604	8.3
210.823	-42.99
211.043	-67.27
211.263	-40.4
211.483	-36.69
211.703	-66.6
211.922	-33.13
212.142	42.47
212.362	61.66
212.582	56.12
212.801	45.11
213.021	21.92
213.241	-20.42
213.461	-63.86
213.68	-95.67
213.9	-56.47
214.12	-27.14
214.339	-51.06
214.559	-26.2
214.779	19.01
214.998	12.45
215.218	-25.4
215.438	-4.39
215.657	-21.77
215.877	-27.54
216.096	0.77
216.316	10.7
216.535	-16.29
216.755	-5.34
216.974	-78.16
217.194	-140.37
217.413	-132.02
217.633	-96.27
217.852	-250.77
218.072	-121.4
218.291	-74.94
218.511	-22.27
218.73	-50.04
218.95	-26.8
219.169	-21.78
219.389	-50.44
219.608	-41.46
219.827	-24.2
220.047	-5.35
220.266	4.95
220.485	-1.09
220.705	-11.06
220.924	-27.58
221.143	8.43
221.363	-18.46
221.582	-7.23
221.801	-9.71
222.021	3.03
222.24	-54.26
222.459	-29.17
222.678	-39.66
222.897	-70.97
223.117	-131.09
223.336	-113.69
223.555	-47.19
223.774	16.92
223.993	33.97
224.213	82.61
224.432	48.69
224.651	57.4
224.87	13.55
225.089	18.31
225.308	6.4
225.527	39.32
225.746	21.88
225.965	22.41
226.184	-6.75
226.404	16.68
226.623	-28.41
226.842	-20.7
227.061	5.29
227.28	20.44
227.499	6.33
227.718	22.8
227.936	6.64
228.155	7.75
228.374	-12.56
228.593	-3.3
228.812	-0.55
229.031	-3.66
229.25	-48.91
229.469	-55.98
229.688	-42.23
229.907	-18.62
230.125	5.42
230.344	15.48
230.563	34.62
230.782	33.08
231.001	-52.66
231.22	-59.14
231.438	-16.12
231.657	-2.35
231.876	-6.05
232.095	45.21
232.313	63.84
232.532	36.31
232.751	1.39
232.969	-9.98
233.188	-80.88
233.407	-25.64
233.625	-5.55
233.844	-27.33
234.063	-12.03
234.281	11.11
234.5	-9.78
234.719	-3.88
234.937	16.5
235.156	-0.26
235.374	-0.26
235.593	-1.33
235.811	-14.59
236.03	-14.92
236.249	-33.1
236.467	-43.09
236.686	-5.47
236.904	8.2
237.123	-19.24
237.341	-10.47
237.559	7.68
237.778	-17.63
237.996	-45.32
238.215	3.53
238.433	7.72
238.652	-3.24
238.87	-25.07
239.088	-14.77
239.307	-20.59
239.525	-17.91
239.743	-45.91
239.962	-8.92
240.18	-31.78
240.398	-82.83
240.617	-96.6
240.835	-93.24
241.053	-94.8
241.271	-34.82
241.49	-4.89
241.708	-24.4
241.926	-49.49
242.144	-26.08
242.363	-107.98
242.581	-106.5
242.799	-59.11
243.017	-8.52
243.235	-37.4
243.453	-15.31
243.672	-16.97
243.89	-16.24
244.108	-31.33
244.326	0.89
244.544	15.96
244.762	10.28
244.98	14.43
245.198	12.56
245.416	-10.68
245.634	-25.96
245.852	-50.28
246.07	-53.18
246.288	-61.38
246.506	-94.63
246.724	-63.28
246.942	-35
247.16	-13.14
247.378	7.23
247.596	42.63
247.814	34.94
248.032	7.95
248.25	-2.14
248.468	-3.01
248.685	-9.3
248.903	12.14
249.121	23.03
249.339	-0.09
249.557	-0.9
249.775	6.62
249.992	-46.15
250.21	-36.72
250.428	-33.27
250.646	-57.02
250.863	-82.19
251.081	-35.24
251.299	-28.88
251.517	1.83
251.734	7.21
251.952	8
252.17	-12.42
252.387	-14.91
252.605	-22.65
252.823	-14.93
253.04	-5.92
253.258	16.32
253.475	26.8
253.693	39.8
253.911	49.14
254.128	57.48
254.346	51.54
254.563	22.12
254.781	1.15
254.998	-40.25
255.216	-37.07
255.433	-30.24
255.651	9.93
255.868	35.13
256.086	63.99
256.303	39
256.521	31.56
256.738	-1.6
256.956	-23.88
257.173	-48.7
257.39	-55.32
257.608	-71.25
257.825	-5.8
258.043	21.72
258.26	30.85
258.477	77.21
258.695	71.49
258.912	29.63
259.129	22.86
259.346	-8.24
259.564	-65.54
259.781	-86.97
259.998	-27.28
260.216	5.85
260.433	39.65
260.65	53.67
260.867	69.08
261.084	43.02
261.302	17.8
261.519	11.52
261.736	-15.84
261.953	-29.61
262.17	2.92
262.387	-30.03
262.604	-54.96
262.822	-67.99
263.039	-52.24
263.256	-96.8
263.473	-42.92
263.69	-24.86
263.907	13.51
264.124	21.42
264.341	30.89
264.558	12.41
264.775	28.58
264.992	13.12
265.209	8.2
265.426	21.45
265.643	28.53
265.86	21.67
266.077	29
266.294	27.41
266.51	-0.91
266.727	-4.47
266.944	23.47
267.161	7.34
267.378	1.74
267.595	31.78
267.812	7.27
268.028	-39.86
268.245	-14.61
268.462	-27.43
268.679	-61.69
268.896	-4.06
269.112	9.1
269.329	-2.4
269.546	14.64
269.763	26.42
269.979	18.75
270.196	19.52
270.413	0.49
270.629	-20.16
270.846	-38.24
271.063	-40.91
271.279	-44.52
271.496	-34.96
271.712	-3.98
271.929	24.9
272.146	0.67
272.362	2.32
272.579	31.82
272.795	38.06
273.012	40.61
273.228	53.09
273.445	23.67
273.661	-2.47
273.878	-50.18
274.094	-52.62
274.311	-89.62
274.527	-20.15
274.744	-20.64
274.96	-31.33
275.177	-18.57
275.393	13.41
275.609	14.44
275.826	31.84
276.042	39.15
276.259	14.03
276.475	19.58
276.691	17.76
276.908	-3.99
277.124	6.78
277.34	13.42
277.557	4.29
277.773	-13.67
277.989	-11.9
278.205	-11.44
278.422	6.65
278.638	5.02
278.854	12.94
279.07	27.21
279.286	22.74
279.503	-7.27
279.719	-19.9
279.935	-30.51
280.151	-59.09
280.367	-54.95
280.583	-67.79
280.799	-58.38
281.016	-80.89
281.232	-34.75
281.448	-30.63
281.664	1.29
281.88	-6.21
282.096	6.86
282.312	29.93
282.528	60.02
282.744	63.84
282.96	53.36
283.176	40.14
283.392	18.83
283.608	-2.98
283.824	-0.9
284.04	7.91
284.256	14.13
284.471	7.22
284.687	14.97
284.903	10.33
285.119	31.97
285.335	11.87
285.551	27.89
285.767	-4.64
285.982	-19.14
286.198	-73.42
286.414	-9.4
286.63	-7.24
286.846	33.47
287.061	18.44
287.277	45.32
287.493	11.33
287.709	40.22
287.924	16.45
288.14	46.26
288.356	40.5
288.571	58.07
288.787	16.8
289.003	19.71
289.218	10.43
289.434	-16.37
289.65	-16.38
289.865	-4.79
290.081	10.19
290.296	13.64
290.512	12.69
290.727	-24.87
290.943	-32.92
291.159	-33.57
291.374	-35.67
291.59	-45.72
291.805	-22.41
292.021	-17.12
292.236	-20.54
292.451	-10.04
292.667	1.35
292.882	19.52
293.098	22.06
293.313	12.19
293.529	-16.21
293.744	-40.05
293.959	-55.41
294.175	-44.42
294.39	-4.93
294.605	16.91
294.821	49.84
295.036	61.57
295.251	64.91
295.467	25.83
295.682	14.94
295.897	-46.66
296.112	-62.71
296.328	-50.87
296.543	-57.07
296.758	-62.23
296.973	-18.27
297.188	19.41
297.404	-6.92
297.619	-6.18
297.834	-3.16
298.049	-5.12
298.264	-43.05
298.479	5.49
298.694	22.21
298.909	18.82
299.125	20.52
299.34	23.18
299.555	-8.32
299.77	-27.97
299.985	-60.2
300.2	-120.14
300.415	-126.26
300.63	-99.02
300.845	-91.94
301.06	-73.69
301.275	-37.63
301.49	-13.54
301.704	-19.86
301.919	-32.01
302.134	-47.21
302.349	-48.88
302.564	-117.94
302.779	-143.22
302.994	-125.78
303.209	-63.36
303.423	0.52
303.638	48.54
303.853	20.53
304.068	16.4
304.283	9.67
304.497	-1.24
304.712	-16.53
304.927	-7.79
305.142	-20.71
305.356	-10.76
305.571	-16.92
305.786	-31.99
306	-49.16
306.215	-31.84
306.43	-57.54
306.644	-48.72
306.859	-1.38
307.074	18.66
307.288	-15.32
307.503	-17.49
307.717	-31.04
307.932	-40.89
308.147	-62.65
308.361	-28.09
308.576	-32.61
308.79	-75.57
309.005	-54.96
309.219	-27.89
309.434	-39.13
309.648	-27.13
309.863	0.71
310.077	-4.14
310.292	-19.2
310.506	-22.38
310.72	-1.98
310.935	-2.65
311.149	11
311.364	45.17
311.578	50.5
311.792	28.84
312.007	38.45
312.221	18.35
312.435	20.72
312.649	12.17
312.864	41.75
313.078	55.23
313.292	124.15
313.507	65.5
313.721	114.99
313.935	76.82
314.149	50.51
314.363	26.74
314.578	36.93
314.792	23.41
315.006	1.66
315.22	21.6
315.434	19.11
315.648	26.88
315.862	21.68
316.077	16.15
316.291	0.92
316.505	17.57
316.719	23.56
316.933	13.72
317.147	37.67
317.361	-15.07
317.575	-53.5
317.789	-104.44
318.003	-158.79
318.217	-154.97
318.431	-65.42
318.645	-17.74
318.859	0.7
319.073	28.09
319.287	18.32
319.5	-9.44
319.714	-57.69
319.928	-86.74
320.142	-116.64
320.356	-64.72
320.57	-23.53
320.784	-10.1
320.997	-35.24
321.211	-33.01
321.425	-94.27
321.639	-127.8
321.853	-65.91
322.066	-27.55
322.28	-28.46
322.494	-10.22
322.707	5.75
322.921	-4.63
323.135	-15.81
323.349	-9.79
323.562	-22.84
323.776	-32.79
323.989	-44.17
324.203	-63.11
324.417	-59.37
324.63	-85.76
324.844	-90.16
325.057	-67.73
325.271	-39.46
325.485	-11.54
325.698	35.54
325.912	55.08
326.125	27.16
326.339	12.94
326.552	4.27
326.766	-11.04
326.979	2.23
327.193	48.58
327.406	41.29
327.619	22.94
327.833	24.76
328.046	-6.41
328.26	-50.99
328.473	-25.29
328.686	-54.24
328.9	-49.52
329.113	-7.71
329.326	-27.94
329.54	-16.83
329.753	-22.04
329.966	-58.75
330.179	-94.51
330.393	-49.25
330.606	-28.65
330.819	1.95
331.032	29.61
331.246	30.97
331.459	52.03
331.672	41.21
331.885	25.42
332.098	-4.03
332.311	11.13
332.525	-49.58
332.738	-33.09
332.951	-2.94
333.164	24.49
333.377	23.9
333.59	49.81
333.803	38.96
334.016	14.84
334.229	-10.98
334.442	-13.89
334.655	4.81
334.868	23.53
335.081	29.01
335.294	41.68
335.507	41.73
335.72	14.59
335.933	-10.67
336.146	-6.75
336.359	-13.91
336.572	-55.42
336.785	-79.45
336.997	-66.35
337.21	-47.62
337.423	-56.22
337.636	-47.74
337.849	-33.99
338.062	-41.06
338.274	-36.01
338.487	-39.14
338.7	-30.7
338.913	-52.95
339.125	-84.87
339.338	-157.4
339.551	-140.39
339.763	-95.47
339.976	-62.84
340.189	-26.07
340.402	7.12
340.614	4.93
340.827	-5.19
341.039	-17.43
341.252	-10.02
341.465	-1.8
341.677	2.16
341.89	-24.23
342.102	-0.09
342.315	-17.49
342.527	-42.6
342.74	-41.76
342.952	-13.21
343.165	-23.75
343.377	-8.76
343.59	-14.53
343.802	-2.81
344.015	-16.85
344.227	-3.29
344.44	1.96
344.652	8.51
344.864	-11.87
345.077	21.67
345.289	21.25
345.502	21.35
345.714	10.65
345.926	17.7
346.139	4.14
346.351	10.72
346.563	10.53
346.775	20.97
346.988	10.59
347.2	-8.61
347.412	-59.65
347.624	-82.57
347.837	-96.36
348.049	-50.28
348.261	4.41
348.473	13.14
348.685	5.3
348.897	-4.98
349.11	-22.36
349.322	-51.54
349.534	-47.63
349.746	-22.88
349.958	-13.01
350.17	-28.22
350.382	-8.4
350.594	-2.51
350.806	6.59
351.018	13.6
351.23	22.7
351.442	-28.54
351.654	-21.66
351.866	-23.38
352.078	-21.56
352.29	-10.62
352.502	17.32
352.714	26.71
352.926	10.28
353.138	19.7
353.35	9.43
353.561	8
353.773	-23.65
353.985	-12.81
354.197	-32.74
354.409	-29.87
354.621	-44.47
354.832	-14.48
355.044	-10.24
355.256	-5.45
355.468	-0.31
355.679	-1.71
355.891	-6.15
356.103	-27.49
356.314	-30.2
356.526	-32.72
356.738	-21.76
356.949	-39.04
357.161	-9.51
357.373	-7.49
357.584	-14.48
357.796	-1.17
358.008	4.98
358.219	13.45
358.431	19.08
358.642	30.73
358.854	19.09
359.065	8.47
359.277	-19.01
359.488	-37.63
359.7	-73.62
359.911	-87.15
360.123	-59.21
360.334	-76.1
360.546	-88.01
360.757	-63.48
360.969	-27.76
361.18	-25.81
361.391	12.82
361.603	12.84
361.814	2.48
362.025	-15.02
362.237	-25.48
362.448	-17.87
362.659	12.15
362.871	17.63
363.082	25.72
363.293	33.56
363.504	10.8
363.716	-22.04
363.927	-31.85
364.138	-62.38
364.349	-95
364.56	-74.72
364.772	-59.4
364.983	-31.78
365.194	-21.16
365.405	12.97
365.616	32.7
365.827	34.06
366.038	13.23
366.25	7.08
366.461	-35.64
366.672	-28.26
366.883	-16.55
367.094	-7.19
367.305	-14.21
367.516	-7.35
367.727	-38.39
367.938	-49.51
368.149	-50.02
368.36	-30.71
368.571	-22.67
368.781	-26.61
368.992	-35.08
369.203	-49.65
369.414	-68.25
369.625	-62.85
369.836	-62.82
370.047	-88.75
370.258	-72.81
370.468	-70.65
370.679	-95.09
370.89	-79.05
371.101	-43.61
371.312	-40.12
371.522	-38.2
371.733	-26.38
371.944	-13.86
372.155	-8.87
372.365	-18.44
372.576	-16.63
372.787	-16.94
372.997	-43.69
373.208	-46.04
373.419	-21.35
373.629	-37.97
373.84	-29.74
374.05	-33.49
374.261	-18.17
374.472	-24.88
374.682	9.88
374.893	7.18
375.103	38.71
375.314	17.95
375.524	7.85
375.735	5.98
375.945	17.62
376.156	-1.01
376.366	13.24
376.577	13.53
376.787	7.61
376.997	9.88
377.208	-0.29
377.418	-23.47
377.629	-11.53
377.839	-14.5
378.049	-19.07
378.26	-0.71
378.47	16.6
378.68	-0.66
378.89	-3.5
379.101	-3.06
379.311	-31.55
379.521	-71.17
379.732	-53.26
379.942	-45.94
380.152	-80.33
380.362	-42.72
380.572	-31.18
380.783	-16.78
380.993	-11.45
381.203	14.84
381.413	20.35
381.623	34.82
381.833	24.28
382.043	18.43
382.253	2.56
382.463	-5.31
382.674	-16.52
382.884	-34.83
383.094	-29.87
383.304	-20.4
383.514	-19.55
383.724	-9.9
383.934	-9.39
384.144	-21.01
384.353	-23.8
384.563	-18.14
384.773	-12.45
384.983	-18
385.193	-3.72
385.403	-1.81
385.613	-1.71
385.823	-17.88
386.033	-6.05
386.242	-14.69
386.452	-14.61
386.662	-21.79
386.872	-7.68
387.082	-13.62
387.291	-18.76
387.501	-23.32
387.711	-12.17
387.921	-19.63
388.13	-13.75
388.34	-1.65
388.55	-6.46
388.759	-11
388.969	-4.23
389.179	-6.56
389.388	-11.46
389.598	-2.7
389.807	-6.43
390.017	-11.28
390.227	-12.3
390.436	-11.11
390.646	-11.92
390.855	-9.19
391.065	-8.86
391.274	-10.7
391.484	-12.8
391.693	-11.33
391.903	-10.42
392.112	-2.04
392.322	1.1
392.531	3.92
392.74	4.74
392.95	1.07
393.159	-4.54
393.369	-2.74
393.578	-3.15
393.787	-4.97
393.997	-1.49
394.206	-2.06
394.415	-2.37
394.625	-2.77
394.834	-4.3
395.043	-4.85
395.252	-1.75
395.462	-0.37
395.671	1.69
395.88	2.96
396.089	3.72
396.298	1.76
396.508	2.12
396.717	0.83
396.926	1.79
397.135	1.11
397.344	0.96
397.553	0.62
397.762	2.06
397.971	2.08
398.181	2.8
398.39	2.5
398.599	1.92
398.808	1.51
399.017	1.87
399.226	2.89
399.435	3.74
399.644	4.22
399.853	3.51
400.062	2.71
400.27	2.07
400.479	1.87
400.688	0.99
400.897	0.96
401.106	0.89
401.315	0.58
401.524	0.49
401.733	1.53
401.941	1.86
402.15	2.18
402.359	2.13
402.568	2.59
402.777	2.48
402.985	2.55
403.194	2.41
403.403	2.63
403.612	2.23
403.82	1.82
404.029	1.97
404.238	1.92
404.446	1.95
404.655	1.78
404.864	1.78
405.072	1.67
405.281	1.74
405.489	1.55
405.698	1.54
405.906	1.56
406.115	1.49
406.324	1.5
406.532	1.72
406.741	2.14
406.949	2.09
407.158	2.06
407.366	2.11
407.574	1.99
407.783	1.85
407.991	1.79
408.2	2.02
408.408	1.97
408.617	1.86
408.825	1.67
409.033	1.79
409.242	1.6
409.45	1.61
409.658	1.56
409.867	1.69
410.075	1.64
410.283	1.63
410.491	1.74
410.7	1.78
410.908	1.86
411.116	2.2
411.324	2.23
411.533	2.12
411.741	2.28
411.949	2.18
412.157	1.71
412.365	1.64
412.573	1.67
412.781	1.74
412.99	1.61
413.198	1.93
413.406	1.89
413.614	1.96
413.822	1.69
414.03	1.74
414.238	1.46
414.446	1.58
414.654	1.27
414.862	1.46
415.07	1.56
415.278	1.86
415.486	1.63
415.694	1.85
415.902	1.65
416.109	1.47
416.317	1.26
416.525	1.19
416.733	1.15
416.941	1.26
417.149	1.22
417.357	1.34
417.564	1.62
417.772	1.83
417.98	1.84
418.188	1.83
418.395	1.86
418.603	1.98
418.811	1.57
419.019	1.49
419.226	1.8
419.434	1.8
419.642	1.5
419.849	1.79
420.057	1.86
420.265	1.77
420.472	1.5
420.68	1.63
420.887	1.38
421.095	1.42
421.302	1.31
421.51	1.58
421.717	1.68
421.925	1.85
422.132	1.77
422.34	1.55
422.547	1.55
422.755	1.29
422.962	1.21
423.17	1.12
423.377	1.25
423.585	1.19
423.792	1.2
423.999	1.27
424.207	1.32
424.414	1.47
424.621	1.38
424.829	1.48
425.036	1.54
425.243	1.57
425.451	1.47
425.658	1.36
425.865	1.56
426.072	1.61
426.28	1.93
426.487	1.81
426.694	1.96
426.901	1.73
427.108	1.52
427.315	1.31
427.523	1.7
427.73	1.75
427.937	1.71
428.144	1.69
428.351	1.63
428.558	1.61
428.765	1.43
428.972	1.44
429.179	1.63
429.386	1.81
429.593	1.46
429.8	1.4
430.007	1.49
430.214	1.39
430.421	1.19
430.628	1.18
430.835	1.15
431.042	1.3
431.249	1.33
431.456	1.39
431.662	1.57
431.869	1.75
432.076	1.7
432.283	1.85
432.49	1.79
432.697	1.73
432.903	1.55
433.11	1.45
433.317	1.55
433.524	1.73
433.73	1.7
433.937	1.98
434.144	1.9
434.35	1.79
434.557	1.6
434.764	1.67
434.97	1.45
435.177	1.61
435.384	1.43
435.59	1.49
435.797	1.66
436.003	1.87
436.21	1.88
436.416	2.07
436.623	2.13
436.829	2.17
437.036	2.22
437.242	2.26
437.449	2.11
437.655	2.14
437.862	1.96
438.068	1.89
438.275	1.98
438.481	2.19
438.687	2.12
438.894	2.17
439.1	2.17
439.307	2.26
439.513	2.12
439.719	2.1
439.926	2.19
440.132	2.15
440.338	1.89
440.544	2.04
440.751	1.95
440.957	1.91
441.163	1.83
441.369	1.96
441.575	1.73
441.782	1.87
441.988	1.85
442.194	1.94
442.4	1.9
442.606	2.22
442.812	2.23
443.018	2.31
443.224	2.33
443.431	2.46
443.637	2.22
443.843	2.15
444.049	2.07
444.255	2.01
444.461	1.96
444.667	1.92
444.873	2.15
445.079	2.21
445.284	2.23
445.49	2.08
445.696	2.02
445.902	1.84
446.108	1.8
446.314	1.86
446.52	1.96
446.726	2.21
446.931	2.16
447.137	2.22
447.343	2.22
447.549	2.08
447.755	1.92
447.96	2.02
448.166	1.94
448.372	1.88
448.578	2.01
448.783	2.08
448.989	2.23
449.195	2.46
449.4	2.44
449.606	2.44
449.812	2.35
450.017	2.28
450.223	2.09
450.428	2.06
450.634	2.16
450.84	2.29
451.045	2.16
451.251	2.13
451.456	2.4
451.662	2.47
451.867	2.56
452.073	2.6
452.278	2.72
452.483	2.76
452.689	2.61
452.894	2.54
453.1	2.62
453.305	2.51
453.51	2.32
453.716	2.3
453.921	2.27
454.127	2.22
454.332	2.25
454.537	2.21
454.742	2.23
454.948	2.24
455.153	2.31
455.358	2.35
455.563	2.55
455.769	2.68
455.974	2.62
456.179	2.45
456.384	2.43
456.589	2.32
456.795	2.15
457	2.17
457.205	2.48
457.41	2.47
457.615	2.41
457.82	2.49
458.025	2.55
458.23	2.3
458.435	2.31
458.64	2.32
458.845	2.46
459.05	2.43
459.255	2.49
459.46	2.54
459.665	2.58
459.87	2.49
460.075	2.54
460.28	2.64
460.485	2.66
460.69	2.67
460.895	2.6
461.099	2.55
461.304	2.61
461.509	2.7
461.714	2.65
461.919	2.78
462.123	2.67
462.328	2.59
462.533	2.48
462.738	2.6
462.942	2.46
463.147	2.57
463.352	2.67
463.556	2.65
463.761	2.65
463.966	2.7
464.17	2.74
464.375	2.59
464.58	2.6
464.784	2.51
464.989	2.44
465.193	2.4
465.398	2.38
465.602	2.55
465.807	2.54
466.011	2.62
466.216	2.69
466.42	2.78
466.625	2.77
466.829	2.82
467.034	2.88
467.238	3.08
467.443	3.02
467.647	2.89
467.851	2.97
468.056	3.04
468.26	2.89
468.464	2.99
468.669	3.2
468.873	3.33
469.077	3.28
469.282	3.27
469.486	3.28
469.69	3.17
469.894	3
470.099	3.02
470.303	3.18
470.507	3.03
470.711	2.97
470.915	2.95
471.119	2.86
471.324	2.7
471.528	2.78
471.732	2.89
471.936	2.93
472.14	3.03
472.344	3.13
472.548	3.22
472.752	3.38
472.956	3.58
473.16	3.55
473.364	3.4
473.568	3.31
473.772	3.28
473.976	3.08
474.18	3.08
474.384	3.22
474.588	3.24
474.792	3.05
474.995	3.09
475.199	3.18
475.403	3.24
475.607	3.28
475.811	3.26
476.015	3.36
476.218	3.4
476.422	3.25
476.626	3.32
476.83	3.45
477.033	3.36
477.237	3.23
477.441	3.35
477.644	3.3
477.848	3.31
478.052	3.24
478.255	3.29
478.459	3.28
478.663	3.41
478.866	3.48
479.07	3.59
479.273	3.72
479.477	3.68
479.681	3.61
479.884	3.55
480.088	3.54
480.291	3.48
480.495	3.52
480.698	3.55
480.901	3.58
481.105	3.67
481.308	3.68
481.512	3.64
481.715	3.73
481.919	3.75
482.122	3.79
482.325	3.78
482.529	3.92
482.732	3.92
482.935	3.87
483.138	3.75
483.342	3.83
483.545	3.8
483.748	3.78
483.952	3.92
484.155	4.06
484.358	4.06
484.561	4.03
484.764	3.96
484.967	3.97
485.171	4
485.374	3.97
485.577	4.1
485.78	4.21
485.983	4.2
486.186	4.11
486.389	4.08
486.592	4.04
486.795	4.08
486.998	3.99
487.201	4.04
487.404	4.09
487.607	4.08
487.81	4.07
488.013	4.14
488.216	4.13
488.419	4.11
488.622	4.06
488.825	3.96
489.028	3.91
489.231	3.91
489.433	3.9
489.636	3.86
489.839	3.92
490.042	3.89
490.245	3.84
490.447	3.87
490.65	3.89
490.853	3.91
491.056	3.93
491.258	3.98
491.461	3.97
491.664	4.1
491.866	4.07
492.069	4.23
492.272	4.21
492.474	4.25
492.677	4.26
492.879	4.36
493.082	4.35
493.285	4.49
493.487	4.49
493.69	4.38
493.892	4.26
494.095	4.18
494.297	4.08
494.5	4.11
494.702	4.15
494.905	4.26
495.107	4.31
495.309	4.37
495.512	4.36
495.714	4.43
495.917	4.45
496.119	4.4
496.321	4.42
496.524	4.49
496.726	4.46
496.928	4.45
497.13	4.51
497.333	4.52
497.535	4.55
497.737	4.57
497.939	4.6
498.142	4.63
498.344	4.58
498.546	4.45
498.748	4.5
498.95	4.6
499.152	4.55
499.355	4.63
499.557	4.75
499.759	4.81
499.961	4.73
500.163	4.73
500.365	4.73
500.567	4.81
500.769	4.67
500.971	4.66
501.173	4.65
501.375	4.7
501.577	4.6
501.779	4.63
501.981	4.69
502.183	4.71
502.385	4.63
502.587	4.58
502.788	4.66
502.99	4.66
503.192	4.71
503.394	4.74
503.596	4.77
503.798	4.81
503.999	4.87
504.201	4.85
504.403	4.94
504.605	5
504.806	4.89
505.008	4.83
505.21	4.93
505.411	4.91
505.613	4.92
505.815	4.99
506.016	5.04
506.218	5.05
506.42	4.99
506.621	4.98
506.823	5.03
507.024	5.01
507.226	4.97
507.427	4.97
507.629	5.02
507.83	5.09
508.032	5.04
508.233	5.18
508.435	5.23
508.636	5.25
508.838	5.12
509.039	5.19
509.24	5.15
509.442	5.16
509.643	5.14
509.845	5.19
510.046	5.32
510.247	5.34
510.448	5.4
510.65	5.47
510.851	5.57
511.052	5.5
511.254	5.42
511.455	5.45
511.656	5.47
511.857	5.52
512.058	5.48
512.26	5.53
512.461	5.49
512.662	5.53
512.863	5.4
513.064	5.42
513.265	5.45
513.466	5.48
513.667	5.39
513.868	5.45
514.069	5.54
514.27	5.59
514.471	5.54
514.672	5.58
514.873	5.54
515.074	5.55
515.275	5.45
515.476	5.5
515.677	5.56
515.878	5.72
516.079	5.61
516.28	5.67
516.481	5.77
516.682	5.78
516.882	5.66
517.083	5.72
517.284	5.69
517.485	5.61
517.686	5.59
517.886	5.6
518.087	5.65
518.288	5.7
518.488	5.64
518.689	5.65
518.89	5.64
519.091	5.63
519.291	5.6
519.492	5.66
519.692	5.66
519.893	5.74
520.094	5.72
520.294	5.74
520.495	5.71
520.695	5.76
520.896	5.72
521.096	5.75
521.297	5.78
521.497	5.82
521.698	5.77
521.898	5.78
522.099	5.81
522.299	5.87
522.499	5.86
522.7	5.92
522.9	5.95
523.101	5.97
523.301	5.91
523.501	5.9
523.702	5.88
523.902	5.93
524.102	5.95
524.302	5.96
524.503	6.02
524.703	6.05
524.903	6.03
525.103	6.01
525.304	6.13
525.504	6.18
525.704	6.16
525.904	6.1
526.104	6.05
526.304	5.98
526.504	6
526.705	5.99
526.905	6.09
527.105	6.16
527.305	6.15
527.505	6.07
527.705	6.13
527.905	6.13
528.105	6.11
528.305	6.07
528.505	6.15
528.705	6.17
528.905	6.16
529.105	6.18
529.304	6.28
529.504	6.32
529.704	6.24
529.904	6.3
530.104	6.33
530.304	6.38
530.503	6.33
530.703	6.33
530.903	6.31
531.103	6.33
531.303	6.25
531.502	6.27
531.702	6.39
531.902	6.43
532.101	6.37
532.301	6.4
532.501	6.41
532.7	6.37
532.9	6.38
533.1	6.4
533.299	6.46
533.499	6.51
533.698	6.49
533.898	6.45
534.097	6.48
534.297	6.53
534.496	6.5
534.696	6.54
534.895	6.64
535.095	6.75
535.294	6.66
535.494	6.59
535.693	6.61
535.892	6.59
536.092	6.48
536.291	6.48
536.491	6.59
536.69	6.62
536.889	6.58
537.088	6.59
537.288	6.65
537.487	6.71
537.686	6.7
537.886	6.74
538.085	6.81
538.284	6.95
538.483	6.94
538.682	7.01
538.882	7.02
539.081	7.05
539.28	6.92
539.479	6.9
539.678	6.87
539.877	7.01
540.076	7.01
540.275	7.04
540.474	7.1
540.673	7.11
540.872	7
541.071	7.06
541.27	7.1
541.469	7.18
541.668	7.22
541.867	7.29
542.066	7.34
542.265	7.4
542.464	7.37
542.663	7.4
542.862	7.46
543.06	7.47
543.259	7.49
543.458	7.53
543.657	7.55
543.856	7.59
544.054	7.52
544.253	7.5
544.452	7.56
544.651	7.64
544.849	7.62
545.048	7.71
545.247	7.72
545.445	7.73
545.644	7.77
545.843	7.76
546.041	7.82
546.24	7.91
546.438	8
546.637	8.01
546.836	8.17
547.034	8.26
547.233	8.3
547.431	8.3
547.63	8.3
547.828	8.28
548.027	8.31
548.225	8.28
548.423	8.28
548.622	8.37
548.82	8.38
549.019	8.4
549.217	8.54
549.415	8.63
549.614	8.66
549.812	8.65
550.01	8.63
550.209	8.65
550.407	8.69
550.605	8.72
550.803	8.86
551.002	8.9
551.2	8.98
551.398	9.08
551.596	9.18
551.794	9.25
551.993	9.41
552.191	9.49
552.389	9.6
552.587	9.71
552.785	9.73
552.983	9.77
553.181	9.78
553.379	9.83
553.577	9.84
553.775	10.03
553.973	10.06
554.171	10.22
554.369	10.16
554.567	10.2
554.765	10.18
554.963	10.31
555.161	10.25
555.359	10.41
555.557	10.54
555.755	10.6
555.952	10.65
556.15	10.78
556.348	10.88
556.546	10.99
556.744	11.02
556.941	11.09
557.139	11.19
557.337	11.24
557.535	11.27
557.732	11.41
557.93	11.53
558.128	11.63
558.325	11.74
558.523	11.77
558.721	11.84
558.918	11.92
559.116	11.96
559.313	11.97
559.511	12.13
559.708	12.24
559.906	12.29
560.104	12.34
560.301	12.51
560.498	12.52
560.696	12.61
560.893	12.69
561.091	12.78
561.288	12.84
561.486	12.98
561.683	13.01
561.88	13.1
562.078	13.27
562.275	13.3
562.473	13.38
562.67	13.59
562.867	13.74
563.064	13.79
563.262	13.84
563.459	13.89
563.656	13.95
563.853	13.97
564.051	14.09
564.248	14.23
564.445	14.36
564.642	14.41
564.839	14.57
565.036	14.73
565.234	14.94
565.431	15.04
565.628	15.22
565.825	15.26
566.022	15.21
566.219	15.28
566.416	15.42
566.613	15.46
566.81	15.58
567.007	15.68
567.204	15.67
567.401	15.7
567.598	15.75
567.795	15.77
567.991	15.83
568.188	15.93
568.385	16
568.582	16.08
568.779	16.22
568.976	16.29
569.172	16.43
569.369	16.48
569.566	16.59
569.763	16.67
569.96	16.77
570.156	16.7
570.353	16.71
570.55	16.72
570.746	16.75
570.943	16.85
571.14	16.99
571.336	17.16
571.533	17.25
571.729	17.25
571.926	17.29
572.123	17.33
572.319	17.36
572.516	17.36
572.712	17.37
572.909	17.37
573.105	17.44
573.302	17.45
573.498	17.59
573.695	17.69
573.891	17.79
574.087	17.8
574.284	17.76
574.48	17.69
574.677	17.71
574.873	17.67
575.069	17.76
575.266	17.88
575.462	17.91
575.658	17.99
575.854	18.08
576.051	18.04
576.247	18.03
576.443	18.03
576.639	18.02
576.835	18.01
577.032	17.95
577.228	18.06
577.424	18.16
577.62	18.14
577.816	18.16
578.012	18.25
578.208	18.13
578.404	18.14
578.6	18.23
578.796	18.26
578.993	18.31
579.189	18.37
579.384	18.22
579.58	18.09
579.776	18.08
579.972	17.99
580.168	17.95
580.364	18.04
580.56	18.18
580.756	18.19
580.952	18.23
581.148	18.23
581.343	18.25
581.539	18.23
581.735	18.25
581.931	18.26
582.127	18.34
582.322	18.28
582.518	18.32
582.714	18.24
582.909	18.18
583.105	18.15
583.301	18.19
583.496	18.16
583.692	18.19
583.888	18.2
584.083	18.22
584.279	18.2
584.474	18.19
584.67	18.27
584.866	18.31
585.061	18.19
585.257	18.31
585.452	18.3
585.648	18.22
585.843	18.33
586.039	18.45
586.234	18.35
586.429	18.25
586.625	18.4
586.82	18.31
587.015	18.28
587.211	18.21
587.406	18.29
587.601	18.21
587.797	18.19
587.992	18.12
588.187	18.3
588.383	18.34
588.578	18.33
588.773	18.4
588.968	18.52
589.163	18.6
589.359	18.53
589.554	18.5
589.749	18.51
589.944	18.54
590.139	18.42
590.334	18.55
590.529	18.61
590.724	18.62
590.919	18.65
591.114	18.66
591.309	18.74
591.504	18.79
591.699	18.83
591.894	18.85
592.089	18.95
592.284	18.96
592.479	19.08
592.674	19.14
592.869	19.25
593.064	19.31
593.259	19.37
593.454	19.41
593.648	19.41
593.843	19.42
594.038	19.41
594.233	19.43
594.428	19.45
594.622	19.53
594.817	19.74
595.012	19.79
595.206	19.84
595.401	19.8
595.596	19.9
595.79	19.85
595.985	19.98
596.18	20.12
596.374	20.28
596.569	20.33
596.763	20.34
596.958	20.37
597.153	20.45
597.347	20.42
597.542	20.55
597.736	20.59
597.931	20.72
598.125	20.73
598.319	20.91
598.514	20.84
598.708	21.05
598.903	21.01
599.097	21.03
599.291	21.08
599.486	21.16
599.68	21.11
599.874	21.25
600.069	21.33
600.263	21.35
600.457	21.51
600.651	21.47
600.846	21.55
601.04	21.67
601.234	21.75
601.428	21.74
601.622	21.93
601.817	21.91
602.011	21.94
602.205	21.97
602.399	21.91
602.593	21.93
602.787	21.91
602.981	21.84
603.175	21.91
603.369	21.89
603.563	21.91
603.757	22.04
603.951	22.13
604.145	22.04
604.339	22.24
604.533	22.11
604.727	22
604.921	21.9
605.115	21.95
605.309	21.94
605.502	22
605.696	21.97
605.89	22.01
606.084	21.93
606.278	21.8
606.471	21.7
606.665	21.71
606.859	21.65
607.053	21.64
607.246	21.61
607.44	21.58
607.634	21.48
607.827	21.47
608.021	21.37
608.214	21.25
608.408	21.27
608.602	21.31
608.795	21.23
608.989	21.19
609.182	21.18
609.376	21.17
609.569	21.08
609.763	20.98
609.956	20.92
610.15	20.86
610.343	20.85
610.537	20.83
610.73	20.82
610.923	20.8
611.117	20.77
611.31	20.65
611.504	20.63
611.697	20.56
611.89	20.43
612.083	20.43
612.277	20.4
612.47	20.22
612.663	20.13
612.856	20.11
613.05	19.92
613.243	19.82
613.436	19.74
613.629	19.74
613.822	19.64
614.015	19.68
614.209	19.55
614.402	19.64
614.595	19.61
614.788	19.56
614.981	19.4
615.174	19.3
615.367	19.07
615.56	18.88
615.753	18.83
615.946	18.78
616.139	18.87
616.332	19.02
616.525	19.12
616.718	19.18
616.911	19.14
617.103	19.07
617.296	18.96
617.489	18.83
617.682	18.66
617.875	18.66
618.067	18.51
618.26	18.37
618.453	18.44
618.646	18.51
618.838	18.54
619.031	18.66
619.224	18.65
619.417	18.64
619.609	18.54
619.802	18.45
619.994	18.34
620.187	18.38
620.38	18.21
620.572	18.23
620.765	18.25
620.957	18.21
621.15	18.11
621.342	18.08
621.535	18.05
621.727	17.99
621.92	18
622.112	17.95
622.305	18.01
622.497	17.94
622.69	17.96
622.882	17.99
623.074	18.05
623.267	17.98
623.459	17.88
623.651	17.78
623.844	17.74
624.036	17.68
624.228	17.64
624.42	17.68
624.613	17.75
624.805	17.68
624.997	17.7
625.189	17.76
625.381	17.8
625.574	17.71
625.766	17.7
625.958	17.72
626.15	17.68
626.342	17.59
626.534	17.6
626.726	17.56
626.918	17.47
627.11	17.36
627.302	17.37
627.494	17.29
627.686	17.23
627.878	17.12
628.07	17.14
628.262	17.11
628.454	17.09
628.646	17.13
628.838	17.18
629.029	17.16
629.221	17.15
629.413	17.09
629.605	16.95
629.797	16.94
629.989	16.88
630.18	16.89
630.372	16.93
630.564	17.01
630.755	17
630.947	17.07
631.139	16.84
631.33	16.68
631.522	16.73
631.714	16.65
631.905	16.58
632.097	16.66
632.289	16.7
632.48	16.58
632.672	16.52
632.863	16.36
633.055	16.27
633.246	16.31
633.438	16.2
633.629	16.2
633.821	16.32
634.012	16.31
634.203	16.17
634.395	16.26
634.586	16.21
634.777	16.08
634.969	16.08
635.16	16.17
635.351	16.05
635.543	16.09
635.734	16.15
635.925	16.15
636.117	16.15
636.308	16.16
636.499	16.07
636.69	15.95
636.881	15.89
637.073	15.94
637.264	15.92
637.455	15.99
637.646	16.08
637.837	16.14
638.028	16.01
638.219	16.04
638.41	16.01
638.601	15.9
638.792	15.95
638.983	15.91
639.174	15.84
639.365	15.83
639.556	15.81
639.747	15.66
639.938	15.67
640.129	15.57
640.32	15.47
640.511	15.53
640.701	15.68
640.892	15.64
641.083	15.81
641.274	15.83
641.465	15.79
641.655	15.66
641.846	15.69
642.037	15.56
642.228	15.53
642.418	15.49
642.609	15.43
642.8	15.41
642.99	15.34
643.181	15.34
643.372	15.43
643.562	15.4
643.753	15.34
643.943	15.26
644.134	15.19
644.324	15.06
644.515	15.02
644.705	15.05
644.896	15.15
645.086	15.19
645.277	15.17
645.467	15.26
645.658	15.15
645.848	15.1
646.038	15.09
646.229	15.05
646.419	14.92
646.61	14.9
646.8	14.9
646.99	14.83
647.18	14.77
647.371	14.8
647.561	14.8
647.751	14.79
647.941	14.77
648.132	14.76
648.322	14.71
648.512	14.77
648.702	14.83
648.892	14.79
649.082	14.76
649.272	14.6
649.462	14.45
649.653	14.31
649.843	14.27
650.033	14.4
650.223	14.49
650.413	14.42
650.603	14.48
650.793	14.4
650.983	14.22
651.172	14.19
651.362	14.21
651.552	14.06
651.742	14.08
651.932	14.03
652.122	14.05
652.312	14.11
652.502	14.11
652.691	14.14
652.881	14.11
653.071	14.01
653.261	13.84
653.45	13.72
653.64	13.6
653.83	13.49
654.019	13.42
654.209	13.35
654.399	13.34
654.588	13.3
654.778	13.16
654.968	13.08
655.157	13.07
655.347	12.98
655.536	12.8
655.726	12.7
655.915	12.48
656.105	12.29
656.294	12.2
656.484	12.01
656.673	11.97
656.863	12.04
657.052	11.88
657.241	11.62
657.431	11.48
657.62	11.32
657.809	10.99
657.999	10.92
658.188	10.76
658.377	10.62
658.567	10.47
658.756	10.48
658.945	10.28
659.134	10.14
659.324	10.11
659.513	9.96
659.702	9.75
659.891	9.64
660.08	9.6
660.269	9.55
660.458	9.39
660.648	9.33
660.837	9.21
661.026	9.11
661.215	8.89
661.404	8.71
661.593	8.58
661.782	8.32
661.971	8.17
662.16	8
662.349	8.01
662.538	7.74
662.726	7.75
662.915	7.62
663.104	7.48
663.293	7.4
663.482	7.57
663.671	7.47
663.86	7.37
664.048	7.34
664.237	7.32
664.426	7.04
664.615	7.05
664.803	6.97
664.992	6.85
665.181	6.62
665.369	6.54
665.558	6.41
665.747	6.37
665.935	6.4
666.124	6.48
666.312	6.57
666.501	6.57
666.69	6.41
666.878	6.3
667.067	6.1
667.255	6.1
667.444	6.24
667.632	6.36
667.82	6.46
668.009	6.43
668.197	6.28
668.386	6.11
668.574	6.16
668.762	6
668.951	6.12
669.139	6.13
669.327	6.06
669.516	6.06
669.704	6.19
669.892	6.28
670.08	6.35
670.269	6.27
670.457	6.14
670.645	5.88
670.833	5.87
671.021	5.77
671.21	5.91
671.398	6.2
671.586	6.28
671.774	6.12
671.962	6.16
672.15	6.27
672.338	6.04
672.526	6.13
672.714	6.17
672.902	6.17
673.09	6.23
673.278	6.41
673.466	6.52
673.654	6.75
673.842	6.88
674.03	6.88
674.218	6.8
674.405	6.84
674.593	6.74
674.781	6.75
674.969	6.77
675.157	6.87
675.344	6.95
675.532	7.07
675.72	7.12
675.908	7.16
676.095	7.11
676.283	7.16
676.471	7.36
676.658	7.42
676.846	7.5
677.033	7.74
677.221	7.83
677.409	7.69
677.596	7.88
677.784	7.94
677.971	7.94
678.159	7.93
678.346	8.06
678.534	8.04
678.721	8.15
678.909	8.2
679.096	8.33
679.283	8.48
679.471	8.52
679.658	8.59
679.846	8.82
680.033	9.1
680.22	9.21
680.408	9.23
680.595	9.29
680.782	9.17
680.969	9.17
681.157	9.23
681.344	9.5
681.531	9.57
681.718	9.69
681.905	9.76
682.093	9.91
682.28	10.12
682.467	10.42
682.654	10.74
682.841	10.9
683.028	11.07
683.215	11.17
683.402	11.17
683.589	11.31
683.776	11.5
683.963	11.57
684.15	11.76
684.337	12.02
684.524	12.25
684.711	12.48
684.898	12.56
685.085	12.79
685.271	13.03
685.458	13.14
685.645	13.25
685.832	13.7
686.019	14.04
686.205	14.23
686.392	14.63
686.579	15.03
686.766	15.45
686.952	15.77
687.139	16.33
687.326	16.55
687.512	16.93
687.699	17.16
687.886	17.39
688.072	17.54
688.259	18.05
688.445	18.51
688.632	18.88
688.818	19.49
689.005	19.96
689.191	20.37
689.378	21.05
689.564	21.57
689.751	22.09
689.937	22.67
690.124	23.25
690.31	23.47
690.496	24.07
690.683	24.55
690.869	25.13
691.055	25.48
691.242	26.25
691.428	26.73
691.614	27.14
691.8	27.73
691.987	28.62
692.173	29.13
692.359	29.91
692.545	30.69
692.731	31.12
692.918	31.65
693.104	32.18
693.29	32.71
693.476	33.39
693.662	34.29
693.848	34.87
694.034	35.5
694.22	36.12
694.406	37.01
694.592	37.59
694.778	38.34
694.964	39
695.15	39.72
695.336	40.11
695.522	40.91
695.708	41.55
695.894	42.19
696.08	43.15
696.265	43.58
696.451	44.02
696.637	44.6
696.823	45.26
697.009	45.27
697.194	45.99
697.38	46.61
697.566	46.91
697.751	47.33
697.937	48.36
698.123	48.86
698.308	49.48
698.494	50.19
698.68	50.69
698.865	50.93
699.051	51.5
699.236	51.71
699.422	52.16
699.607	52.71
699.793	52.92
699.978	53.31
700.164	53.82
700.349	54.7
700.535	55.14
700.72	55.85
700.906	56.51
701.091	57.14
701.276	57.38
701.462	58.17
701.647	58.89
701.832	59.26
702.018	59.66
702.203	59.91
702.388	59.85
702.573	60.06
702.759	60.53
702.944	60.79
703.129	60.98
703.314	61.37
703.499	61.62
703.684	61.87
703.87	62.84
704.055	63.71
704.24	64.13
704.425	64.56
704.61	64.85
704.795	64.57
704.98	64.65
705.165	64.58
705.35	64.98
705.535	65.5
705.72	65.73
705.905	66.05
706.09	66.66
706.275	66.75
706.459	66.4
706.644	66.68
706.829	66.81
707.014	66.93
707.199	67.46
707.384	68.11
707.568	68.46
707.753	68.96
707.938	69.4
708.123	69.19
708.307	69.14
708.492	69.21
708.677	69.17
708.861	69.31
709.046	69.41
709.231	70.05
709.415	70.41
709.6	70.48
709.784	70.33
709.969	70.22
710.153	70.06
710.338	70.05
710.522	70.36
710.707	70.76
710.891	71.49
711.076	71.7
711.26	71.63
711.445	71.91
711.629	72.16
711.813	71.97
711.998	72.41
712.182	72.59
712.366	72.76
712.551	73.28
712.735	73.59
712.919	73.28
713.103	73.81
713.288	73.48
713.472	73.08
713.656	73.72
713.84	73.97
714.024	73.94
714.208	74.27
714.393	75.03
714.577	74.67
714.761	74.76
714.945	74.6
715.129	74.5
715.313	74.03
715.497	74.25
715.681	74.37
715.865	74.38
716.049	74.66
716.233	74.88
716.417	75.08
716.601	75.02
716.785	75.33
716.968	75.55
717.152	75.55
717.336	75.57
717.52	75.65
717.704	75.79
717.888	75.86
718.071	76.06
718.255	76.11
718.439	76.02
718.622	76.26
718.806	76.23
718.99	76.26
719.174	76.19
719.357	76.64
719.541	76.84
719.724	77.18
719.908	78.17
720.092	78.55
720.275	78.88
720.459	78.42
720.642	77.73
720.826	76.59
721.009	76.04
721.193	75.65
721.376	75.88
721.559	76.22
721.743	76.39
721.926	76.75
722.11	77.27
722.293	76.87
722.476	77.17
722.66	77.57
722.843	77.11
723.026	76.11
723.21	76.5
723.393	77.25
723.576	77.23
723.759	77.27
723.942	77.9
724.126	78.14
724.309	77.24
724.492	76.89
724.675	77.19
724.858	77.89
725.041	78.1
725.224	78.72
725.407	79.01
725.59	79.45
725.774	78.99
725.957	78.58
726.14	77.91
726.322	78.3
726.505	77.96
726.688	78.47
726.871	78.53
727.054	78.7
727.237	78.35
727.42	78.73
727.603	78.24
727.786	78.21
727.968	78.95
728.151	79.2
728.334	79.26
728.517	79.21
728.699	79.77
728.882	79.2
729.065	79.32
729.248	79.02
729.43	79.33
729.613	79.81
729.796	80.75
729.978	80.65
730.161	81.14
730.343	80.72
730.526	81.16
730.708	80.31
730.891	80.4
731.073	79.84
731.256	79.94
731.438	79.37
731.621	79.97
731.803	79.83
731.986	80.39
732.168	80.07
732.35	79.65
732.533	79.74
732.715	79.97
732.898	80.37
733.08	80.5
733.262	81.11
733.444	80.78
733.627	80.47
733.809	80.57
733.991	81.58
734.173	80.97
734.355	81.22
734.538	82.35
734.72	81.93
734.902	82.27
735.084	82.82
735.266	83.03
735.448	82.61
735.63	82.58
735.812	82.1
735.994	82.9
736.176	82.95
736.358	82.68
736.54	84.14
736.722	84.3
736.904	83.34
737.086	83.28
737.268	83.85
737.45	82.92
737.632	83.33
737.814	83.18
737.995	83.07
738.177	83.37
738.359	82.79
738.541	82.52
738.723	83.11
738.904	83.15
739.086	82.96
739.268	83.3
739.449	83.69
739.631	83.37
739.813	84.25
739.994	84.09
740.176	85.11
740.358	84.24
740.539	85.17
740.721	85.33
740.902	85.91
741.084	85.07
741.265	85.53
741.447	85.36
741.628	84.45
741.81	83.12
741.991	83.22
742.172	84.26
742.354	84.61
742.535	84.93
742.717	86.16
742.898	86.5
743.079	86.17
743.261	85.45
743.442	84.99
743.623	85.16
743.804	84.9
743.986	84.57
744.167	84.23
744.348	83.82
744.529	84.03
744.71	83.33
744.891	82.96
745.073	82.49
745.254	82.6
745.435	81.67
745.616	81.32
745.797	81.61
745.978	81.65
746.159	81.76
746.34	80.97
746.521	82.48
746.702	81.3
746.883	81.37
747.064	80.66
747.245	82.33
747.426	81.86
747.606	82.48
747.787	83.27
747.968	84.06
748.149	84.24
748.33	84.98
748.51	84.17
748.691	83.27
748.872	82.7
749.053	81.45
749.233	80.33
749.414	80.6
749.595	80.11
749.775	80.28
749.956	80.01
750.137	79.91
750.317	81.42
750.498	84.08
750.678	84.91
750.859	85
751.04	85.11
751.22	84.13
751.4	82.36
751.581	81.55
751.761	81.54
751.942	81.77
752.122	81.72
752.303	81.74
752.483	81.41
752.663	81.27
752.844	80.48
753.024	81.33
753.204	81.43
753.385	81.92
753.565	81.69
753.745	82.85
753.925	81.39
754.106	80.34
754.286	79.55
754.466	80.21
754.646	80.4
754.826	80.93
755.006	81.51
755.187	82.87
755.367	83.36
755.547	82.76
755.727	83.03
755.907	83.01
756.087	84.3
756.267	82.85
756.447	81.73
756.627	80.21
756.807	81.2
756.987	79.87
757.167	81.28
757.346	81.7
757.526	81.36
757.706	81.58
757.886	81.23
758.066	82.41
758.246	84.56
758.425	85.53
758.605	83.99
758.785	83.54
758.965	81
759.144	77.56
759.324	77.85
759.504	78.57
759.683	79.54
759.863	78.55
760.043	79.4
760.222	79.81
760.402	78.39
760.581	77.57
760.761	80.14
760.94	79.63
761.12	81.6
761.299	83.57
761.479	83.37
761.658	81.71
761.838	81.94
762.017	79.43
762.197	78.85
762.376	79.93
762.555	80.36
762.735	81.47
762.914	80.49
763.093	80.99
763.273	79.11
763.452	78.31
763.631	78.34
763.81	79.23
763.99	78.17
764.169	78.85
764.348	77.58
764.527	76.2
764.706	77.99
764.885	79.07
765.064	77.67
765.243	80.12
765.423	80.31
765.602	78.65
765.781	75.87
765.96	75.35
766.139	73.99
766.318	74.15
766.497	73.65
766.676	76.04
766.854	78.69
767.033	78.78
767.212	79.75
767.391	79.48
767.57	79.76
767.749	78.05
767.928	79.78
768.106	78.64
768.285	76.92
768.464	75.4
768.643	75.54
768.821	74.25
769	76.58
769.179	77.68
769.357	76.31
769.536	76.61
769.715	76.1
769.893	76.19
770.072	76.21
770.25	77.5
770.429	77.72
770.607	76.75
770.786	75.28
770.964	76.6
771.143	75.83
771.321	76.17
771.5	78.98
771.678	77
771.857	74.54
772.035	74.54
772.213	72.67
772.392	68.22
772.57	69.59
772.748	70.63
772.927	70.28
773.105	71.23
773.283	74.77
773.461	75.34
773.64	77.45
773.818	77.8
773.996	79.17
774.174	78.09
774.352	76.34
774.531	72.75
774.709	75.52
774.887	74.6
775.065	74.9
775.243	75.1
775.421	75.98
775.599	74.46
775.777	72.01
775.955	70.23
776.133	68.33
776.311	68.5
776.489	66.55
776.667	68.54
776.844	70.15
777.022	69.13
777.2	68.9
777.378	69.27
777.556	69.67
777.734	70.52
777.911	73.98
778.089	74.33
778.267	74.37
778.445	72.51
778.622	70.05
778.8	70.45
778.978	70.74
779.155	70.3
779.333	70.89
779.511	71.99
779.688	74.84
779.866	71.8
780.043	68.76
780.221	69.35
780.398	68.27
780.576	66.98
780.753	72.71
780.931	73.79
781.108	73.21
781.286	75.6
781.463	70.46
781.64	65.93
781.818	67.67
781.995	67.97
782.172	64.72
782.35	68.04
782.527	70.15
782.704	69.13
782.882	70.18
783.059	70.49
783.236	71.4
783.413	72.8
783.59	75.71
783.768	72.11
783.945	76.32
784.122	75.5
784.299	75.49
784.476	71.11
784.653	73.36
784.83	66.52
785.007	62.3
785.184	61.7
785.361	61.17
785.538	63.41
785.715	68.68
785.892	70.81
786.069	69.67
786.246	74.33
786.423	72.33
786.6	71.9
786.776	75.12
786.953	75.03
787.13	76.75
787.307	75.02
787.484	74.28
787.66	70.61
787.837	71.09
788.014	66.31
788.191	66.39
788.367	63.67
788.544	67.74
788.721	65.7
788.897	69.2
789.074	70.65
789.25	69.88
789.427	70.46
789.603	70.46
789.78	69.36
789.956	68.06
790.133	68.35
790.309	64.89
790.486	71.19
790.662	68.19
790.839	66.9
791.015	71.15
791.192	72.31
791.368	69.3
791.544	70.07
791.721	70
791.897	65.03
792.073	63.42
792.249	59.68
792.426	61.93
792.602	64.48
792.778	67.68
792.954	63.73
793.13	63.37
793.307	55.32
793.483	46.57
793.659	45.76
793.835	50.3
794.011	50.7
794.187	57.18
794.363	61.65
794.539	68.84
794.715	63.98
794.891	61.25
795.067	58.16
795.243	62.38
795.419	54.18
795.595	55.36
795.771	60.36
795.947	63.6
796.122	59.87
796.298	65.42
796.474	69.46
796.65	69.71
796.826	66.87
797.001	66.1
797.177	59.82
797.353	60.19
797.529	62.12
797.704	61.85
797.88	63.09
798.056	59.16
798.231	53.76
798.407	50.51
798.582	52.86
798.758	59.24
798.934	70.85
799.109	70.51
799.285	65.5
799.46	67.76
799.636	66.67
799.811	62.05
799.986	64.1
800.162	71.57
800.337	73.95
800.513	66.87
800.688	64.71
800.863	76
801.039	63.79
801.214	58.15
801.389	68.16
801.565	69.49
801.74	54.98
801.915	70.98
802.09	73.4
802.265	71.17
802.441	68.91
802.616	68.33
802.791	65.48
802.966	64.38
803.141	58.5
803.316	53.25
803.491	59.62
803.666	51.23
803.841	40.82
804.016	38.22
804.191	46.02
804.366	37.26
804.541	48.22
804.716	57.32
804.891	58.29
805.066	62.71
805.241	64.5
805.416	60.11
805.591	58.97
805.765	62.62
805.94	61.46
806.115	60.4
806.29	56.44
806.464	51.77
806.639	44.4
806.814	42
806.989	34.55
807.163	45.56
807.338	51.23
807.512	48.5
807.687	35.66
807.862	52.26
808.036	51.7
808.211	49.55
808.385	60.98
808.56	75.53
808.734	87.86
808.909	81.48
809.083	79.16
809.258	83.76
809.432	73.07
809.606	44.61
809.781	39.94
809.955	45.54
810.13	43.53
810.304	44.19
810.478	49.03
810.652	58.58
810.827	68.16
811.001	59.48
811.175	59.07
811.349	60.47
811.524	54.87
811.698	37.43
811.872	40.76
812.046	51.5
812.22	58.25
812.394	61.43
812.568	66.1
812.742	74.58
812.916	67.61
813.09	58.8
813.264	49.83
813.438	59.09
813.612	47.82
813.786	38.61
813.96	49.85
814.134	58.84
814.308	67.88
814.482	69.88
814.656	71.64
814.83	68.38
815.003	62.27
815.177	46.68
815.351	39.28
815.525	42.9
815.698	31.91
815.872	25.27
816.046	12.47
816.219	29.46
816.393	46.08
816.567	53.63
816.74	61.8
816.914	72.13
817.088	75.72
817.261	61.27
817.435	61.83
817.608	61.07
817.782	49.37
817.955	42.55
818.129	39.4
818.302	39.23
818.475	48.61
818.649	51.42
818.822	36.04
818.996	56.34
819.169	64.84
819.342	53.18
819.516	54.91
819.689	60.72
819.862	44.05
820.035	30.53
820.209	24.01
820.382	36
820.555	47.35
820.728	41.02
820.901	50.46
821.075	51.38
821.248	51.39
821.421	39.22
821.594	29.52
821.767	42.85
821.94	67.08
822.113	39.06
822.286	34.71
822.459	52.96
822.632	37.1
822.805	9.26
822.978	15.65
823.151	30.13
823.324	15.06
823.496	-4.53
823.669	-6.33
823.842	11.88
824.015	2.55
824.188	0.62
824.361	13.79
824.533	16.5
824.706	14.53
824.879	8.44
825.051	36.68
825.224	36.7
825.397	41.49
825.569	31.56
825.742	55.79
825.915	34.67
826.087	59.12
826.26	37.18
826.432	49.81
826.605	46.51
826.777	32.98
826.95	13.01
827.122	17.58
827.295	8.3
827.467	8.07
827.64	-5.81
827.812	4.01
827.984	8.74
828.157	4.33
828.329	-38.35
828.501	-26.74
828.674	-9.33
828.846	-17.13
829.018	9.63
829.19	16.85
829.363	48.47
829.535	41.25
829.707	46.99
829.879	22.66
830.051	18.2
830.223	-7.7
830.395	-22.15
830.568	-19.95
830.74	-29.57
830.912	10.45
831.084	-8.85
831.256	-0.92
831.428	-6.51
831.6	-14.87
831.772	-64.12
831.943	-57.33
832.115	-19.25
832.287	-13.53
832.459	20.16
832.631	39.76
832.803	62.77
832.975	51.26
833.146	55.19
833.318	39.39
833.49	56.03
833.662	42.04
833.833	38.24
834.005	33.59
834.177	51.93
834.348	38.49
834.52	34.44
834.692	33.06
834.863	37.63
835.035	14.35
835.206	-10.74
835.378	-0.97
835.549	-10.42
835.721	10.66
835.892	0.11
836.064	-1.88
836.235	-7.53
836.407	5.68
836.578	-39.19
836.749	-60.26
836.921	-94.84
837.092	-102.49
837.264	-87.85
837.435	-73.57
837.606	-18.43
837.777	29.01
837.949	49.79
838.12	45.34
838.291	45.78
838.462	41.88
838.633	-0.26
838.805	-0.8
838.976	15.71
839.147	-45.06
839.318	-65.63
839.489	-102.69
839.66	-93.64
839.831	-38.38
840.002	-7.67
840.173	-5.67
840.344	41.68
840.515	17.63
840.686	-194.1
840.857	-167.66
841.028	-170.65
841.199	-126.26
841.369	-124.89
841.54	-83.22
841.711	-53.23
841.882	-8.32
842.053	-22.12
842.223	-29.39
842.394	-5.3
842.565	4.92
842.736	6.54
842.906	2.26
843.077	21.62
843.248	27.31
843.418	17.93
843.589	-43.76
843.759	22.17
843.93	48.51
844.101	7.69
844.271	9.3
844.442	21.95
844.612	23.87
844.783	-6.38
844.953	-27.61
845.123	-61.04
845.294	-65.92
845.464	-270.9
845.635	-130.09
845.805	-31.4
845.975	26.46
846.146	-8.24
846.316	1.44
846.486	16.49
846.656	42.59
846.827	16.28
846.997	6.3
847.167	16.63
847.337	-12.62
847.507	-85.05
847.677	-46.14
847.848	32.31
848.018	35.58
848.188	43.81
848.358	36.33
848.528	26.86
848.698	-16.39
848.868	-109.86
849.038	-202
849.208	-74.01
849.378	-69.51
849.548	-62.82
849.718	-36.28
849.887	-17.73
850.057	-45.6
850.227	-66.42
850.397	-86.78
850.567	-192.44
850.737	-410.22
850.906	-1381.88
851.076	-985.55
851.246	-574.08
851.415	-109.8
851.585	-85.78
851.755	-87.87
851.924	-21.59
852.094	-43.81
852.264	-138.38
852.433	-1137.98
852.603	-223.14
852.772	-234.98
852.942	-73.31
853.111	-53.64
853.281	33.2
853.45	46.78
853.62	-34.59
853.789	-58.59
853.959	-34.06
854.128	-90.43
854.297	-115.34
854.467	-116.3
854.636	-137.34
854.805	-64.22
854.975	-71.69
855.144	-89.18
855.313	206.64
855.482	-64.6
855.652	-111.44
855.821	-105.09
855.99	40.76
856.159	22.28
856.328	32.29
856.497	22.75
856.667	31.1
856.836	20.56
857.005	-19.58
857.174	-49.03
857.343	-87.63
857.512	-72.69
857.681	-115.54
857.85	-131.18
858.019	-32.52
858.188	-12.09
858.356	-38.64
858.525	-104.54
858.694	-78.01
858.863	-194.47
859.032	-154.41
859.201	-220.48
859.369	-113.65
859.538	-83.3
859.707	-81.46
859.876	-75.14
860.044	-65.4
860.213	18.46
860.382	-5.43
860.55	14.71
860.719	33.86
860.888	54.44
861.056	-0.41
861.225	-8.11
861.393	18.75
861.562	-8.6
861.73	-145.02
861.899	-418.59
862.067	-2984.48
862.236	-161.73
862.404	-323.78
862.572	-159.3
862.741	-32.95
862.909	-35.34
863.078	-146.66
863.246	-61.7
863.414	-53.01
863.582	-24.34
863.751	-1.1
863.919	2.16
864.087	42.77
864.255	42.04
864.424	-253.98
864.592	-51.64
864.76	-93.34
864.928	-510
865.096	-274.68
865.264	-179.11
865.432	-2805.68
865.6	-383.25
865.768	-201.71
865.936	-182.58
866.104	-233.52
866.272	-227.34
866.44	-438.78
866.608	576.36
866.776	300.41
866.944	2543.02
867.112	-481.14
867.28	-228.26
867.448	-119.52
867.615	-38.67
867.783	-21.53
867.951	-19.29
868.119	3.07
868.286	9.51
868.454	-108.04
868.622	-92.72
868.789	-146.05
868.957	-3610.71
869.125	-2182.89
869.292	-175.06
869.46	-289.22
869.627	-63.95
869.795	-35.84
869.963	-23.64
870.13	8.28
870.298	44.14
870.465	-11.84
870.632	-31.04
870.8	-11.51
870.967	-85.09
871.135	-151.31
871.302	-129.86
871.469	-174.89
871.637	-296.26
871.804	-118.48
871.971	-209.58
872.139	-599.3
872.306	-87.58
872.473	-86.19
872.64	-399.79
872.807	-117.37
872.975	-7.09
873.142	-294
873.309	2452.7
873.476	-4.2
873.643	79.15
873.81	46.51
873.977	84.55
874.144	65.46
874.311	-58.24
874.478	-132.46
874.645	-171.54
874.812	-113.27
874.979	-29.57
875.146	-40.17
875.313	-83.58
875.48	19.86
875.647	-8.52
875.813	-58.25
875.98	-32.36
876.147	-43.45
876.314	-127.2
876.481	1002.89
876.647	-1225.28
876.814	532.38
876.981	-126.35
877.147	-76.16
877.314	-11.17
877.481	19.45
877.647	28.81
877.814	-30.48
877.98	-69.21
878.147	-32.89
878.314	11.22
878.48	-41.49
878.647	41.08
878.813	101.21
878.979	107.08
879.146	56.49
879.312	59.43
879.479	20.68
879.645	-118.4
879.811	-323.19
879.978	-743.13
880.144	-173.17
880.31	-71.84
880.477	-227.51
880.643	-336.44
880.809	-150.63
880.975	-150.29
881.142	-1021.36
881.308	-154.39
881.474	-54.44
881.64	-53.3
881.806	-78.31
881.972	-34.8
882.138	-31.53
882.304	-24.64
882.47	-173.87
882.636	-756.15
882.802	-194.43
882.968	-3.96
883.134	-29.58
883.3	-28.15
883.466	25.3
883.632	68.48
883.798	10.27
883.964	9.79
884.129	-3.95
884.295	3.35
884.461	-84.88
884.627	-79.01
884.793	-92.84
884.958	-37.58
885.124	-159.42
885.29	-276.95
885.455	-420.15
885.621	-87.27
885.787	-112.21
885.952	-24.82
886.118	-9.75
886.283	-41.46
886.449	-189.41
886.614	-206.52
886.78	-437.88
886.945	1758.2
887.111	-750
887.276	-551.42
887.442	-1002.27
887.607	-404.01
887.773	-285.19
887.938	-277.68
888.103	-302.32
888.269	-193.83
888.434	-464.59
888.599	-143.25
888.764	4.39
888.93	15.92
889.095	-2.82
889.26	-22.69
889.425	-27.11
889.59	-97.72
889.756	-96.16
889.921	-81.18
890.086	-15.17
890.251	-15.42
890.416	-130.09
890.581	-1405.65
890.746	178.39
890.911	362.1
891.076	165.51
891.241	-314.55
891.406	20.87
891.571	22.39
891.736	-191.97
891.901	-269.47
892.065	248.9
892.23	126.17
892.395	279.16
892.56	422.69
892.725	-887.11
892.889	-2535.37
893.054	-304.26
893.219	-109.98
893.384	-53.93
893.548	-91.45
893.713	-124.12
893.878	-94.63
