Data from Ofra_1a_PS_OGT14_Reflection_2.txt Node
Date: Tue Jul 20 10:41:30 EDT 2021
User: Adam
Spectrometer: FLMT01687
Trigger mode: 0
Integration Time (sec): 1.004000E0
Scans to average: 2
Electric dark correction enabled: true
Nonlinearity correction enabled: false
Boxcar width: 2
XAxis mode: Wavelengths
Number of Pixels in Spectrum: 3648
>>>>>Begin Spectral Data<<<<<
179.494	-236.04
179.716	-341.22
179.937	885.95
180.158	-930.57
180.38	162.28
180.601	94.48
180.823	36.32
181.044	-150.67
181.265	-238.42
181.486	245.73
181.708	189.99
181.929	-11590.91
182.15	29.2
182.372	311.82
182.593	554.04
182.814	-309.17
183.035	-41.18
183.257	-13.45
183.478	-9.8
183.699	0.96
183.92	-22.51
184.141	-45.83
184.363	-23.2
184.584	-5.13
184.805	9.77
185.026	34.14
185.247	31.8
185.468	23.58
185.689	20.94
185.91	-13.46
186.132	-2.46
186.353	-2.27
186.574	9.02
186.795	11.62
187.016	48.95
187.237	36.22
187.458	40.12
187.679	17.8
187.9	17.97
188.121	8.59
188.342	41.09
188.563	51.42
188.784	56.24
189.005	50.8
189.226	27.73
189.447	14.93
189.667	1
189.888	-7.91
190.109	-16.55
190.33	2.88
190.551	-21.14
190.772	0.06
190.993	-9.52
191.214	-27.66
191.434	-13.13
191.655	42.18
191.876	18.9
192.097	58.98
192.318	56.71
192.538	33.78
192.759	20.29
192.98	30.95
193.201	12.65
193.421	7.43
193.642	16.09
193.863	11.38
194.083	16.16
194.304	6.82
194.525	0.57
194.745	1.45
194.966	13.84
195.187	1.69
195.407	-7.48
195.628	12.03
195.848	0.85
196.069	-7.52
196.29	-12
196.51	-3.34
196.731	-37.46
196.951	-56.94
197.172	-57.32
197.392	-78.01
197.613	-37.7
197.833	-56
198.054	-47.89
198.274	-25
198.495	-4.08
198.715	-17.31
198.936	35.1
199.156	39.84
199.377	29.8
199.597	33.44
199.817	30.89
200.038	-1.93
200.258	7.27
200.479	8.88
200.699	5.1
200.919	24.74
201.14	23.92
201.36	30.19
201.58	13.21
201.801	22.33
202.021	12.26
202.241	3.59
202.461	-17.84
202.682	10.94
202.902	-7.91
203.122	-10.2
203.342	-1.23
203.563	11.79
203.783	-4.65
204.003	12.88
204.223	32.98
204.443	42.16
204.663	40.75
204.884	57.21
205.104	32.1
205.324	-2.55
205.544	-27.1
205.764	-7.42
205.984	-26.67
206.204	-4.54
206.424	-27.93
206.644	-38.97
206.864	-85.1
207.084	-30.26
207.304	-65.87
207.525	-50.9
207.745	-17.09
207.964	1.48
208.184	-7.66
208.404	8.49
208.624	19.39
208.844	17.06
209.064	9.97
209.284	11.41
209.504	1
209.724	-13.26
209.944	-39.98
210.164	-25.76
210.384	-33.97
210.604	-89.33
210.823	-66.55
211.043	-35.76
211.263	-87.78
211.483	-63.69
211.703	-5.05
211.922	-11.25
212.142	7.11
212.362	21.14
212.582	25.9
212.801	-2.31
213.021	-14.22
213.241	-16.12
213.461	1.93
213.68	9.95
213.9	12.39
214.12	14.15
214.339	19.62
214.559	-0.15
214.779	-15.78
214.998	-13.68
215.218	19.67
215.438	19.86
215.657	13.2
215.877	6.63
216.096	15.33
216.316	-1.49
216.535	-21.95
216.755	-16.11
216.974	-36.52
217.194	-46.72
217.413	-39.63
217.633	-37.98
217.852	-16.71
218.072	17.06
218.291	35.41
218.511	40.43
218.73	35.09
218.95	23.49
219.169	-0.52
219.389	-35.68
219.608	-38.15
219.827	-10.62
220.047	1.18
220.266	-13.23
220.485	-9.43
220.705	-11.03
220.924	-22.78
221.143	1.5
221.363	22.59
221.582	21.97
221.801	22.53
222.021	22.69
222.24	8.5
222.459	7.34
222.678	26.62
222.897	12.72
223.117	31.94
223.336	27.79
223.555	21.65
223.774	27.59
223.993	65.3
224.213	36.99
224.432	25.29
224.651	28.91
224.87	23.29
225.089	6.46
225.308	10.33
225.527	12.34
225.746	8.22
225.965	-12.83
226.184	-9.02
226.404	-8.95
226.623	0.95
226.842	-1.46
227.061	24.86
227.28	31.38
227.499	35.43
227.718	31.84
227.936	48.27
228.155	45.39
228.374	31.63
228.593	29.78
228.812	50.22
229.031	42.92
229.25	21.11
229.469	30.92
229.688	12.76
229.907	3.1
230.125	-3.63
230.344	6.93
230.563	14.69
230.782	24.92
231.001	31.12
231.22	19.27
231.438	31.76
231.657	29.65
231.876	41.09
232.095	44.75
232.313	44.61
232.532	31.51
232.751	30.24
232.969	16.42
233.188	-1.7
233.407	-0.96
233.625	0.39
233.844	-2.65
234.063	3.91
234.281	7.99
234.5	16.81
234.719	9.96
234.937	-5.12
235.156	-9.27
235.374	-4.18
235.593	-3.35
235.811	20.21
236.03	17.01
236.249	17.59
236.467	27.62
236.686	23.51
236.904	19.65
237.123	25.2
237.341	25.93
237.559	5.42
237.778	20.49
237.996	-27.91
238.215	-50.52
238.433	-141.81
238.652	-51.97
238.87	-74.2
239.088	-30.85
239.307	-17.72
239.525	14.9
239.743	4.61
239.962	-0.57
240.18	8.84
240.398	9.44
240.617	-0.88
240.835	4.38
241.053	24.74
241.271	14.04
241.49	31.81
241.708	21.01
241.926	22.62
242.144	26.08
242.363	26.09
242.581	-5.02
242.799	-31.64
243.017	-26.33
243.235	-30.03
243.453	-64.85
243.672	-39.8
243.89	-17.11
244.108	-5.3
244.326	7.84
244.544	34.35
244.762	23.57
244.98	30.96
245.198	31.75
245.416	37.97
245.634	11.52
245.852	3.03
246.07	11.34
246.288	5.8
246.506	-3.94
246.724	12.27
246.942	23.1
247.16	30.64
247.378	25.57
247.596	41.25
247.814	39.93
248.032	34.87
248.25	34.84
248.468	26.21
248.685	23.17
248.903	14.99
249.121	17.81
249.339	4.21
249.557	12.04
249.775	10.4
249.992	17.1
250.21	1.14
250.428	11.94
250.646	9.25
250.863	6.78
251.081	4.6
251.299	18.51
251.517	11.52
251.734	28.66
251.952	18.13
252.17	19.34
252.387	7.6
252.605	5.77
252.823	-4.88
253.04	21.47
253.258	13.44
253.475	24.39
253.693	17.23
253.911	14.94
254.128	17.9
254.346	39.9
254.563	42.31
254.781	40.52
254.998	23.84
255.216	-14.78
255.433	-42.22
255.651	-31.01
255.868	-30.68
256.086	-31.24
256.303	3.86
256.521	3.4
256.738	-15.41
256.956	2.39
257.173	0.56
257.39	-0.76
257.608	2.23
257.825	5.74
258.043	12.78
258.26	17.73
258.477	12.99
258.695	16.51
258.912	1.05
259.129	-23.53
259.346	-33.43
259.564	-48.92
259.781	-52.5
259.998	7.97
260.216	20.25
260.433	11.77
260.65	4.73
260.867	-3.94
261.084	-17.8
261.302	-12.24
261.519	20.23
261.736	40.5
261.953	55.9
262.17	50.62
262.387	38.8
262.604	32.34
262.822	24.36
263.039	15.38
263.256	10.27
263.473	9.42
263.69	12.11
263.907	25.22
264.124	29.34
264.341	32.88
264.558	30.62
264.775	14.02
264.992	4.09
265.209	7.89
265.426	-2.41
265.643	-15.82
265.86	-21.74
266.077	-22.65
266.294	-16.82
266.51	7.65
266.727	22.61
266.944	39.56
267.161	37.85
267.378	34.39
267.595	34.75
267.812	24.08
268.028	1.09
268.245	0.98
268.462	5.35
268.679	16.48
268.896	36.02
269.112	49.35
269.329	31.42
269.546	61.28
269.763	42.12
269.979	25.45
270.196	35.03
270.413	49.57
270.629	23.85
270.846	30.78
271.063	27.09
271.279	3.22
271.496	-20.6
271.712	-7.49
271.929	-4.68
272.146	-3.33
272.362	6.83
272.579	25.6
272.795	17.84
273.012	14.34
273.228	22.56
273.445	21.61
273.661	19.85
273.878	15.88
274.094	-7.11
274.311	-9.79
274.527	-18.89
274.744	-0.63
274.96	10.34
275.177	27.99
275.393	27.8
275.609	38.8
275.826	13.7
276.042	13.1
276.259	14.83
276.475	13.25
276.691	-6.98
276.908	12.75
277.124	12.8
277.34	5.51
277.557	0.05
277.773	7.17
277.989	7.97
278.205	9.52
278.422	0.54
278.638	-6.9
278.854	-29.23
279.07	-18.86
279.286	-20.05
279.503	-1.84
279.719	14.02
279.935	31.18
280.151	18.24
280.367	7.39
280.583	0.51
280.799	-14.05
281.016	-40.1
281.232	-25.35
281.448	-33.48
281.664	-29.47
281.88	-23.57
282.096	-7.44
282.312	-7.16
282.528	6.4
282.744	2.46
282.96	-7.87
283.176	-12.02
283.392	-33.01
283.608	-15.45
283.824	-25.5
284.04	-40.35
284.256	-12.7
284.471	-1.31
284.687	2.15
284.903	5.4
285.119	24.87
285.335	30.2
285.551	30.26
285.767	29.28
285.982	36.41
286.198	11.34
286.414	-10.08
286.63	-14.68
286.846	-22.62
287.061	-1.37
287.277	20.41
287.493	25.74
287.709	23.17
287.924	30.54
288.14	26.01
288.356	15.23
288.571	12.54
288.787	10.62
289.003	4.19
289.218	-8.67
289.434	-5.76
289.65	16.04
289.865	30.08
290.081	30.89
290.296	43.23
290.512	36.02
290.727	18.12
290.943	7.27
291.159	7.21
291.374	-16.83
291.59	-5.37
291.805	-17.56
292.021	-17.11
292.236	-15.88
292.451	6.36
292.667	18.18
292.882	39.4
293.098	52.3
293.313	40.03
293.529	28.9
293.744	12.77
293.959	2.59
294.175	9.54
294.39	3.72
294.605	28.89
294.821	18.19
295.036	21.82
295.251	16.85
295.467	15.91
295.682	-3.14
295.897	3.61
296.112	-3.2
296.328	6.5
296.543	-6.02
296.758	-4.74
296.973	2.53
297.188	-0.35
297.404	-35.82
297.619	-39.46
297.834	-59.97
298.049	-37.33
298.264	-29.29
298.479	-30.35
298.694	4.07
298.909	26.84
299.125	14.82
299.34	17.08
299.555	27.89
299.77	33.85
299.985	27.06
300.2	34.5
300.415	38.03
300.63	27.94
300.845	20.64
301.06	5.89
301.275	-4.96
301.49	5.3
301.704	12.98
301.919	5.43
302.134	11.13
302.349	11.56
302.564	-6.87
302.779	-16.33
302.994	6.96
303.209	9.32
303.423	7.17
303.638	18.37
303.853	1.47
304.068	-22.67
304.283	-19.65
304.497	-45.81
304.712	-12.73
304.927	10.59
305.142	15.39
305.356	22.81
305.571	43.79
305.786	25.94
306	30.89
306.215	32.27
306.43	4.96
306.644	-17.08
306.859	-37.4
307.074	-16.43
307.288	-18.67
307.503	7.63
307.717	8.42
307.932	17.7
308.147	4.6
308.361	18.55
308.576	-3.03
308.79	11.55
309.005	-12.4
309.219	-8.33
309.434	-12.88
309.648	6.73
309.863	3.88
310.077	15.01
310.292	19.73
310.506	-5.32
310.72	-8.04
310.935	3.5
311.149	10.12
311.364	22.31
311.578	29.95
311.792	31.29
312.007	24.21
312.221	6.47
312.435	-5.73
312.649	10.47
312.864	7.45
313.078	22.77
313.292	36.2
313.507	40.71
313.721	31.33
313.935	53.66
314.149	19.87
314.363	25.79
314.578	32.05
314.792	39.59
315.006	8.8
315.22	24.9
315.434	20.63
315.648	1.12
315.862	-3.52
316.077	-6.53
316.291	-7.17
316.505	-45.01
316.719	-29.27
316.933	-18.39
317.147	-6.89
317.361	-8.9
317.575	11.48
317.789	15.43
318.003	18.29
318.217	16.43
318.431	13.79
318.645	16.02
318.859	18.56
319.073	16.54
319.287	18.48
319.5	21.23
319.714	10.04
319.928	-1.68
320.142	0.3
320.356	1.49
320.57	-18.44
320.784	-18.79
320.997	-39.18
321.211	-35.9
321.425	-57.65
321.639	-24.82
321.853	-8.97
322.066	-9.38
322.28	-11.92
322.494	0.93
322.707	-14.92
322.921	-12.59
323.135	14.37
323.349	5.86
323.562	3.13
323.776	18.93
323.989	21.64
324.203	-4.77
324.417	5.73
324.63	-6.49
324.844	-19.61
325.057	-41.26
325.271	-12.97
325.485	-10.88
325.698	13.84
325.912	26.13
326.125	31.29
326.339	30.13
326.552	21.37
326.766	-5.99
326.979	1.15
327.193	-16.35
327.406	-28.49
327.619	-12.31
327.833	0.7
328.046	3.23
328.26	11.57
328.473	28.47
328.686	28.71
328.9	27.36
329.113	16.63
329.326	12.48
329.54	6.21
329.753	12.75
329.966	13.78
330.179	9.45
330.393	13.43
330.606	18.41
330.819	5.56
331.032	3.1
331.246	11.71
331.459	22.97
331.672	15.36
331.885	19.63
332.098	26.4
332.311	20.51
332.525	11.25
332.738	10.32
332.951	-0.23
333.164	2.78
333.377	5.81
333.59	-5.65
333.803	4.45
334.016	7.8
334.229	5.8
334.442	9.31
334.655	23.68
334.868	1.8
335.081	2.5
335.294	-11.56
335.507	-3.69
335.72	-13.16
335.933	-16.89
336.146	-26.33
336.359	8.7
336.572	0.88
336.785	-5.1
336.997	18.66
337.21	43.71
337.423	1.1
337.636	6.5
337.849	30.31
338.062	16.61
338.274	19.65
338.487	20.73
338.7	6.04
338.913	4.34
339.125	0.05
339.338	-9.99
339.551	-9.3
339.763	-13.68
339.976	-23.94
340.189	-23.3
340.402	-4.79
340.614	10.88
340.827	27.33
341.039	19.93
341.252	23.55
341.465	11.63
341.677	0.87
341.89	-0.45
342.102	19.57
342.315	26.72
342.527	29.62
342.74	18.13
342.952	3.54
343.165	-9.08
343.377	-5.26
343.59	-4.78
343.802	9.78
344.015	19.32
344.227	15.81
344.44	14.6
344.652	13.61
344.864	16.85
345.077	34.03
345.289	45.26
345.502	44.07
345.714	36.42
345.926	32.42
346.139	15.47
346.351	6.83
346.563	0.42
346.775	-9.56
346.988	0.79
347.2	-1.64
347.412	9.97
347.624	13.36
347.837	24.83
348.049	14.98
348.261	6.42
348.473	-16.3
348.685	-32.09
348.897	-29.66
349.11	-7.44
349.322	10.05
349.534	5.55
349.746	11.2
349.958	-5.01
350.17	-41.32
350.382	-51.64
350.594	-12.35
350.806	16.25
351.018	24.08
351.23	41.42
351.442	38.96
351.654	32.81
351.866	17.56
352.078	19.8
352.29	11.64
352.502	16.52
352.714	2.13
352.926	3.46
353.138	-5.09
353.35	-7.91
353.561	-6.94
353.773	3.2
353.985	17.07
354.197	19.71
354.409	19.87
354.621	16.53
354.832	11.87
355.044	-10.58
355.256	-17.75
355.468	-26.69
355.679	-2.6
355.891	2.05
356.103	4.77
356.314	0.68
356.526	-6.23
356.738	-22.42
356.949	-23.67
357.161	-8.66
357.373	5.88
357.584	20.17
357.796	28.68
358.008	34.38
358.219	35.53
358.431	27.49
358.642	25.17
358.854	33.14
359.065	24.15
359.277	8.94
359.488	9.25
359.7	7.5
359.911	-8.88
360.123	-11.62
360.334	-13.22
360.546	-8.16
360.757	-4.65
360.969	-0.24
361.18	3.65
361.391	14.53
361.603	23.21
361.814	23.98
362.025	25.85
362.237	31.48
362.448	33.03
362.659	23.42
362.871	13.36
363.082	-7.04
363.293	-19.99
363.504	-40.97
363.716	-48.27
363.927	-5.3
364.138	-13.27
364.349	-9.71
364.56	-11.38
364.772	-3.88
364.983	-12.5
365.194	16.82
365.405	18.2
365.616	28.3
365.827	35.69
366.038	30.36
366.25	19.25
366.461	22.45
366.672	14.09
366.883	4.58
367.094	-2.48
367.305	-3.38
367.516	-8.28
367.727	-6.63
367.938	7.12
368.149	8.94
368.36	4.91
368.571	-4.4
368.781	-18.02
368.992	-23.37
369.203	-27.31
369.414	-24.41
369.625	-23.8
369.836	6.54
370.047	7.36
370.258	21.16
370.468	18.13
370.679	20.51
370.89	-0.12
371.101	19.33
371.312	11.89
371.522	14.91
371.733	20.92
371.944	19.14
372.155	7
372.365	11.47
372.576	9.07
372.787	10.72
372.997	13.16
373.208	3.62
373.419	-4.16
373.629	-13.17
373.84	-18.26
374.05	-21.57
374.261	-32.05
374.472	-18.22
374.682	-14.05
374.893	-23.77
375.103	-17.71
375.314	-0.77
375.524	-4.78
375.735	-3.94
375.945	8.29
376.156	1.64
376.366	-4.72
376.577	-4.4
376.787	2.36
376.997	-3.93
377.208	6.43
377.418	14
377.629	13.01
377.839	20.28
378.049	21.98
378.26	18.64
378.47	5.34
378.68	11.82
378.89	6.21
379.101	6.7
379.311	3.44
379.521	4.56
379.732	3.59
379.942	3.32
380.152	2.32
380.362	1.73
380.572	13.36
380.783	21.81
380.993	16.9
381.203	17.29
381.413	21.03
381.623	16.17
381.833	6.8
382.043	6.78
382.253	10.17
382.463	21.41
382.674	25
382.884	26.6
383.094	26.91
383.304	27.79
383.514	19.41
383.724	7.49
383.934	-0.39
384.144	3.15
384.353	-5.06
384.563	-0.06
384.773	12.89
384.983	11.93
385.193	-0.22
385.403	-4.11
385.613	-4.02
385.823	-19.23
386.033	-11.57
386.242	-5
386.452	0.45
386.662	-5.04
386.872	7.88
387.082	2.66
387.291	3.34
387.501	2.52
387.711	3.49
387.921	-0.94
388.13	1.69
388.34	1.04
388.55	1.75
388.759	-1.04
388.969	-0.51
389.179	-2.18
389.388	-2.52
389.598	-2.8
389.807	-3.96
390.017	-2.1
390.227	-2.75
390.436	-0.42
390.646	1.92
390.855	5.55
391.065	3.17
391.274	4.89
391.484	2.85
391.693	-1.38
391.903	-0.9
392.112	-0.02
392.322	-1.66
392.531	-2.33
392.74	-0.53
392.95	-0.15
393.159	-0.04
393.369	0.61
393.578	0.52
393.787	1.43
393.997	0.17
394.206	0.81
394.415	1.74
394.625	2.24
394.834	-0.16
395.043	0.31
395.252	2.04
395.462	2.2
395.671	2.46
395.88	4.83
396.089	4.76
396.298	3.37
396.508	3.56
396.717	3.77
396.926	3.25
397.135	3.55
397.344	3.22
397.553	3.28
397.762	3.85
397.971	3.62
398.181	3.61
398.39	3.54
398.599	3.7
398.808	3.23
399.017	3.9
399.226	3.88
399.435	3.9
399.644	4.16
399.853	4.22
400.062	4.06
400.27	3.64
400.479	3.86
400.688	3.7
400.897	3.61
401.106	3.5
401.315	3.61
401.524	3.79
401.733	3.45
401.941	3.67
402.15	3.39
402.359	3.39
402.568	3.17
402.777	3.42
402.985	3.14
403.194	3.36
403.403	3.75
403.612	3.79
403.82	3.33
404.029	3.43
404.238	3.47
404.446	3.41
404.655	3.5
404.864	3.73
405.072	3.83
405.281	3.81
405.489	3.6
405.698	3.62
405.906	3.77
406.115	3.62
406.324	3.77
406.532	3.98
406.741	3.91
406.949	3.96
407.158	4.1
407.366	3.79
407.574	3.76
407.783	3.91
407.991	3.73
408.2	3.74
408.408	3.85
408.617	3.68
408.825	3.44
409.033	3.49
409.242	3.48
409.45	3.46
409.658	3.46
409.867	3.52
410.075	3.53
410.283	3.48
410.491	3.41
410.7	3.42
410.908	3.43
411.116	3.51
411.324	3.54
411.533	3.56
411.741	3.57
411.949	3.54
412.157	3.33
412.365	3.37
412.573	3.38
412.781	3.42
412.99	3.64
413.198	3.69
413.406	3.68
413.614	3.79
413.822	3.83
414.03	3.72
414.238	3.87
414.446	3.94
414.654	3.8
414.862	3.66
415.07	3.58
415.278	3.56
415.486	3.34
415.694	3.38
415.902	3.4
416.109	3.45
416.317	3.35
416.525	3.35
416.733	3.33
416.941	3.45
417.149	3.26
417.357	3.3
417.564	3.37
417.772	3.57
417.98	3.53
418.188	3.66
418.395	3.45
418.603	3.34
418.811	3.14
419.019	2.97
419.226	3
419.434	3.28
419.642	3.28
419.849	3.25
420.057	3.32
420.265	3.17
420.472	3.08
420.68	3.17
420.887	3.14
421.095	3.24
421.302	3.32
421.51	3.19
421.717	3.16
421.925	3.34
422.132	3.23
422.34	2.93
422.547	2.86
422.755	2.88
422.962	2.83
423.17	2.7
423.377	2.87
423.585	3.06
423.792	3.01
423.999	2.89
424.207	2.96
424.414	3.1
424.621	3.03
424.829	3.07
425.036	3.11
425.243	3.15
425.451	3.2
425.658	3.25
425.865	3.31
426.072	3.41
426.28	3.47
426.487	3.31
426.694	3.01
426.901	2.98
427.108	2.86
427.315	2.73
427.523	2.72
427.73	2.9
427.937	2.78
428.144	2.86
428.351	2.95
428.558	2.98
428.765	3.06
428.972	3.21
429.179	3.01
429.386	2.94
429.593	2.89
429.8	2.79
430.007	2.71
430.214	2.71
430.421	2.91
430.628	2.9
430.835	2.94
431.042	2.98
431.249	3.05
431.456	2.96
431.662	3.14
431.869	3.24
432.076	3.28
432.283	3.46
432.49	3.39
432.697	3.29
432.903	3.2
433.11	3.28
433.317	3.23
433.524	3.31
433.73	3.35
433.937	3.54
434.144	3.35
434.35	3.29
434.557	3.36
434.764	3.37
434.97	3.2
435.177	3.4
435.384	3.55
435.59	3.51
435.797	3.59
436.003	3.58
436.21	3.32
436.416	3.27
436.623	3.32
436.829	3.21
437.036	3.25
437.242	3.5
437.449	3.47
437.655	3.49
437.862	3.62
438.068	3.61
438.275	3.68
438.481	3.78
438.687	3.71
438.894	3.77
439.1	3.82
439.307	3.86
439.513	3.81
439.719	3.87
439.926	3.87
440.132	3.92
440.338	3.76
440.544	3.78
440.751	3.77
440.957	3.78
441.163	3.62
441.369	3.71
441.575	3.75
441.782	3.8
441.988	3.79
442.194	3.87
442.4	3.75
442.606	3.84
442.812	3.79
443.018	3.71
443.224	3.84
443.431	3.89
443.637	3.75
443.843	3.82
444.049	3.96
444.255	4.01
444.461	3.96
444.667	3.97
444.873	4.01
445.079	3.9
445.284	3.82
445.49	3.93
445.696	4
445.902	3.9
446.108	4.03
446.314	4.07
446.52	4.11
446.726	4.14
446.931	4.08
447.137	3.98
447.343	3.98
447.549	3.99
447.755	3.93
447.96	4.08
448.166	4.08
448.372	4.09
448.578	3.91
448.783	3.96
448.989	4.04
449.195	4.07
449.4	4.04
449.606	4.14
449.812	4.06
450.017	3.94
450.223	3.84
450.428	3.9
450.634	3.85
450.84	3.92
451.045	4.06
451.251	4.18
451.456	4.16
451.662	4.23
451.867	4.25
452.073	4.2
452.278	4.19
452.483	4.13
452.689	4.08
452.894	4.13
453.1	4.05
453.305	4.07
453.51	4.14
453.716	4.17
453.921	4.2
454.127	4.2
454.332	4.16
454.537	4.14
454.742	4.13
454.948	4.07
455.153	4.14
455.358	4.12
455.563	4.27
455.769	4.28
455.974	4.3
456.179	4.21
456.384	4.23
456.589	4.08
456.795	4.08
457	4.01
457.205	3.97
457.41	3.99
457.615	3.99
457.82	4.04
458.025	4.05
458.23	4.14
458.435	4.19
458.64	4.21
458.845	4.18
459.05	4.28
459.255	4.21
459.46	4.16
459.665	4.24
459.87	4.32
460.075	4.33
460.28	4.37
460.485	4.38
460.69	4.27
460.895	4.34
461.099	4.24
461.304	4.13
461.509	4.16
461.714	4.29
461.919	4.21
462.123	4.29
462.328	4.36
462.533	4.28
462.738	4.16
462.942	4.07
463.147	4.05
463.352	4.14
463.556	4.27
463.761	4.41
463.966	4.53
464.17	4.61
464.375	4.66
464.58	4.65
464.784	4.58
464.989	4.61
465.193	4.53
465.398	4.49
465.602	4.59
465.807	4.66
466.011	4.63
466.216	4.54
466.42	4.59
466.625	4.52
466.829	4.5
467.034	4.61
467.238	4.84
467.443	4.84
467.647	4.83
467.851	4.9
468.056	4.94
468.26	4.85
468.464	4.9
468.669	4.89
468.873	4.93
469.077	4.79
469.282	4.86
469.486	4.79
469.69	4.9
469.894	4.84
470.099	4.9
470.303	4.9
470.507	4.99
470.711	4.96
470.915	5.02
471.119	5.08
471.324	5.12
471.528	5.12
471.732	5.16
471.936	5.21
472.14	5.23
472.344	5.33
472.548	5.37
472.752	5.34
472.956	5.32
473.16	5.29
473.364	5.17
473.568	5.07
473.772	5.03
473.976	5.11
474.18	5.16
474.384	5.14
474.588	5.2
474.792	5.23
474.995	5.17
475.199	5.15
475.403	5.23
475.607	5.33
475.811	5.42
476.015	5.38
476.218	5.36
476.422	5.35
476.626	5.33
476.83	5.4
477.033	5.47
477.237	5.54
477.441	5.47
477.644	5.41
477.848	5.33
478.052	5.34
478.255	5.38
478.459	5.47
478.663	5.62
478.866	5.66
479.07	5.63
479.273	5.67
479.477	5.64
479.681	5.63
479.884	5.62
480.088	5.71
480.291	5.63
480.495	5.69
480.698	5.66
480.901	5.7
481.105	5.68
481.308	5.72
481.512	5.69
481.715	5.83
481.919	5.91
482.122	5.9
482.325	6
482.529	6
482.732	5.87
482.935	5.78
483.138	5.76
483.342	5.69
483.545	5.83
483.748	5.89
483.952	5.91
484.155	6.05
484.358	6.04
484.561	6
484.764	5.95
484.967	5.97
485.171	5.94
485.374	5.92
485.577	5.89
485.78	5.88
485.983	5.84
486.186	5.78
486.389	5.84
486.592	5.84
486.795	5.91
486.998	5.94
487.201	5.98
487.404	6.11
487.607	6.09
487.81	6.07
488.013	6.05
488.216	6.03
488.419	5.88
488.622	5.91
488.825	5.95
489.028	5.97
489.231	5.95
489.433	5.95
489.636	5.94
489.839	5.94
490.042	5.95
490.245	5.98
490.447	6.02
490.65	6.01
490.853	5.93
491.056	5.87
491.258	5.9
491.461	5.88
491.664	5.96
491.866	5.96
492.069	6.06
492.272	5.94
492.474	5.9
492.677	5.86
492.879	5.9
493.082	5.89
493.285	6.06
493.487	6.13
493.69	6.07
493.892	6.05
494.095	5.98
494.297	5.96
494.5	5.89
494.702	5.95
494.905	5.99
495.107	6.03
495.309	6.03
495.512	6.07
495.714	6.09
495.917	6.14
496.119	6.15
496.321	6.09
496.524	5.99
496.726	6.01
496.928	5.98
497.13	5.95
497.333	5.98
497.535	6.13
497.737	6.1
497.939	6.1
498.142	6.05
498.344	6.07
498.546	6.03
498.748	6.11
498.95	6.13
499.152	6.23
499.355	6.23
499.557	6.27
499.759	6.27
499.961	6.29
500.163	6.25
500.365	6.31
500.567	6.27
500.769	6.24
500.971	6.26
501.173	6.26
501.375	6.34
501.577	6.37
501.779	6.37
501.981	6.38
502.183	6.41
502.385	6.4
502.587	6.47
502.788	6.52
502.99	6.52
503.192	6.58
503.394	6.54
503.596	6.57
503.798	6.49
503.999	6.52
504.201	6.5
504.403	6.5
504.605	6.52
504.806	6.64
505.008	6.65
505.21	6.64
505.411	6.64
505.613	6.7
505.815	6.68
506.016	6.77
506.218	6.89
506.42	6.93
506.621	6.82
506.823	6.84
507.024	6.78
507.226	6.76
507.427	6.83
507.629	6.89
507.83	6.92
508.032	6.92
508.233	7
508.435	6.95
508.636	7.02
508.838	7.05
509.039	7.14
509.24	7.14
509.442	7.2
509.643	7.16
509.845	7.16
510.046	7.2
510.247	7.22
510.448	7.29
510.65	7.3
510.851	7.36
511.052	7.33
511.254	7.38
511.455	7.36
511.656	7.4
511.857	7.38
512.058	7.4
512.26	7.33
512.461	7.37
512.662	7.44
512.863	7.38
513.064	7.32
513.265	7.33
513.466	7.34
513.667	7.34
513.868	7.32
514.069	7.38
514.27	7.44
514.471	7.41
514.672	7.43
514.873	7.51
515.074	7.56
515.275	7.52
515.476	7.56
515.677	7.54
515.878	7.57
516.079	7.6
516.28	7.64
516.481	7.61
516.682	7.61
516.882	7.64
517.083	7.64
517.284	7.75
517.485	7.81
517.686	7.88
517.886	7.85
518.087	7.77
518.288	7.7
518.488	7.68
518.689	7.64
518.89	7.67
519.091	7.8
519.291	7.75
519.492	7.8
519.692	7.79
519.893	7.82
520.094	7.82
520.294	7.87
520.495	7.88
520.695	7.95
520.896	7.98
521.096	7.95
521.297	7.95
521.497	7.91
521.698	7.89
521.898	7.88
522.099	7.93
522.299	7.99
522.499	8.02
522.7	8.01
522.9	8.01
523.101	7.92
523.301	7.95
523.501	7.98
523.702	7.98
523.902	8.02
524.102	8.15
524.302	8.13
524.503	8.14
524.703	8.17
524.903	8.15
525.103	8.12
525.304	8.13
525.504	8.18
525.704	8.19
525.904	8.18
526.104	8.12
526.304	8.13
526.504	8.14
526.705	8.14
526.905	8.17
527.105	8.2
527.305	8.16
527.505	8.06
527.705	8.06
527.905	8.12
528.105	8.17
528.305	8.2
528.505	8.3
528.705	8.39
528.905	8.36
529.105	8.31
529.304	8.32
529.504	8.34
529.704	8.27
529.904	8.28
530.104	8.34
530.304	8.35
530.503	8.36
530.703	8.38
530.903	8.43
531.103	8.5
531.303	8.5
531.502	8.52
531.702	8.56
531.902	8.6
532.101	8.54
532.301	8.62
532.501	8.67
532.7	8.68
532.9	8.69
533.1	8.76
533.299	8.81
533.499	8.7
533.698	8.69
533.898	8.67
534.097	8.63
534.297	8.6
534.496	8.67
534.696	8.76
534.895	8.86
535.095	8.92
535.294	8.94
535.494	8.98
535.693	8.96
535.892	8.94
536.092	8.95
536.291	9.06
536.491	9.15
536.69	9.18
536.889	9.17
537.088	9.17
537.288	9.1
537.487	9.1
537.686	9.11
537.886	9.18
538.085	9.19
538.284	9.23
538.483	9.22
538.682	9.27
538.882	9.24
539.081	9.27
539.28	9.24
539.479	9.29
539.678	9.27
539.877	9.32
540.076	9.37
540.275	9.46
540.474	9.44
540.673	9.5
540.872	9.52
541.071	9.57
541.27	9.58
541.469	9.63
541.668	9.72
541.867	9.8
542.066	9.81
542.265	9.86
542.464	9.89
542.663	9.87
542.862	9.95
543.06	10.06
543.259	10.13
543.458	10.24
543.657	10.3
543.856	10.31
544.054	10.29
544.253	10.29
544.452	10.29
544.651	10.33
544.849	10.3
545.048	10.38
545.247	10.45
545.445	10.42
545.644	10.46
545.843	10.55
546.041	10.57
546.24	10.55
546.438	10.65
546.637	10.65
546.836	10.66
547.034	10.74
547.233	10.84
547.431	10.87
547.63	10.95
547.828	11.01
548.027	11.01
548.225	11.01
548.423	11.05
548.622	11.09
548.82	11.14
549.019	11.19
549.217	11.25
549.415	11.29
549.614	11.44
549.812	11.51
550.01	11.56
550.209	11.71
550.407	11.77
550.605	11.73
550.803	11.76
551.002	11.85
551.2	11.83
551.398	11.96
551.596	12.05
551.794	12.14
551.993	12.22
552.191	12.34
552.389	12.36
552.587	12.43
552.785	12.47
552.983	12.58
553.181	12.59
553.379	12.67
553.577	12.73
553.775	12.88
553.973	12.89
554.171	12.97
554.369	13.07
554.567	13.15
554.765	13.18
554.963	13.3
555.161	13.42
555.359	13.5
555.557	13.58
555.755	13.65
555.952	13.64
556.15	13.68
556.348	13.69
556.546	13.84
556.744	13.92
556.941	14.03
557.139	14.15
557.337	14.34
557.535	14.36
557.732	14.37
557.93	14.5
558.128	14.54
558.325	14.57
558.523	14.69
558.721	14.85
558.918	14.96
559.116	15.1
559.313	15.27
559.511	15.36
559.708	15.47
559.906	15.59
560.104	15.64
560.301	15.68
560.498	15.81
560.696	15.89
560.893	15.96
561.091	16.04
561.288	16.22
561.486	16.22
561.683	16.23
561.88	16.24
562.078	16.4
562.275	16.4
562.473	16.61
562.67	16.78
562.867	16.92
563.064	16.98
563.262	17.09
563.459	17.22
563.656	17.29
563.853	17.36
564.051	17.46
564.248	17.55
564.445	17.6
564.642	17.7
564.839	17.89
565.036	18.06
565.234	18.15
565.431	18.2
565.628	18.32
565.825	18.28
566.022	18.27
566.219	18.37
566.416	18.52
566.613	18.63
566.81	18.79
567.007	18.88
567.204	18.99
567.401	19.01
567.598	19.02
567.795	19.07
567.991	19.16
568.188	19.24
568.385	19.33
568.582	19.49
568.779	19.6
568.976	19.73
569.172	19.84
569.369	19.95
569.566	19.96
569.763	20.01
569.96	20.11
570.156	20.13
570.353	20.12
570.55	20.21
570.746	20.28
570.943	20.32
571.14	20.32
571.336	20.29
571.533	20.37
571.729	20.42
571.926	20.45
572.123	20.56
572.319	20.68
572.516	20.71
572.712	20.72
572.909	20.74
573.105	20.81
573.302	20.89
573.498	20.84
573.695	20.81
573.891	20.79
574.087	20.66
574.284	20.67
574.48	20.86
574.677	20.95
574.873	21.11
575.069	21.34
575.266	21.44
575.462	21.39
575.658	21.55
575.854	21.4
576.051	21.3
576.247	21.29
576.443	21.4
576.639	21.36
576.835	21.43
577.032	21.49
577.228	21.5
577.424	21.43
577.62	21.38
577.816	21.41
578.012	21.45
578.208	21.44
578.404	21.43
578.6	21.51
578.796	21.61
578.993	21.62
579.189	21.71
579.384	21.8
579.58	21.77
579.776	21.72
579.972	21.75
580.168	21.72
580.364	21.77
580.56	21.71
580.756	21.6
580.952	21.53
581.148	21.52
581.343	21.46
581.539	21.54
581.735	21.6
581.931	21.55
582.127	21.49
582.322	21.44
582.518	21.39
582.714	21.34
582.909	21.34
583.105	21.35
583.301	21.38
583.496	21.34
583.692	21.34
583.888	21.35
584.083	21.23
584.279	21.16
584.474	21.13
584.67	21.22
584.866	21.2
585.061	21.29
585.257	21.29
585.452	21.36
585.648	21.3
585.843	21.34
586.039	21.39
586.234	21.49
586.429	21.42
586.625	21.38
586.82	21.38
587.015	21.3
587.211	21.23
587.406	21.27
587.601	21.33
587.797	21.35
587.992	21.32
588.187	21.34
588.383	21.38
588.578	21.37
588.773	21.41
588.968	21.48
589.163	21.49
589.359	21.54
589.554	21.58
589.749	21.54
589.944	21.6
590.139	21.66
590.334	21.63
590.529	21.55
590.724	21.64
590.919	21.61
591.114	21.57
591.309	21.51
591.504	21.58
591.699	21.56
591.894	21.6
592.089	21.59
592.284	21.71
592.479	21.75
592.674	21.78
592.869	21.81
593.064	21.85
593.259	21.89
593.454	22.01
593.648	22.02
593.843	22.12
594.038	22.3
594.233	22.32
594.428	22.32
594.622	22.52
594.817	22.7
595.012	22.7
595.206	22.82
595.401	22.96
595.596	22.94
595.79	22.87
595.985	22.97
596.18	23.01
596.374	23.07
596.569	23.12
596.763	23.22
596.958	23.34
597.153	23.43
597.347	23.44
597.542	23.49
597.736	23.52
597.931	23.52
598.125	23.62
598.319	23.74
598.514	23.84
598.708	24
598.903	24.14
599.097	24.18
599.291	24.21
599.486	24.32
599.68	24.35
599.874	24.42
600.069	24.44
600.263	24.54
600.457	24.59
600.651	24.65
600.846	24.6
601.04	24.67
601.234	24.62
601.428	24.59
601.622	24.59
601.817	24.56
602.011	24.65
602.205	24.7
602.399	24.64
602.593	24.67
602.787	24.77
602.981	24.61
603.175	24.68
603.369	24.77
603.563	24.83
603.757	24.79
603.951	24.84
604.145	24.82
604.339	24.81
604.533	24.72
604.727	24.68
604.921	24.76
605.115	24.69
605.309	24.64
605.502	24.67
605.696	24.68
605.89	24.67
606.084	24.66
606.278	24.67
606.471	24.57
606.665	24.54
606.859	24.45
607.053	24.44
607.246	24.35
607.44	24.28
607.634	24.23
607.827	24.15
608.021	23.96
608.214	23.99
608.408	23.95
608.602	23.79
608.795	23.75
608.989	23.73
609.182	23.7
609.376	23.62
609.569	23.68
609.763	23.57
609.956	23.67
610.15	23.48
610.343	23.47
610.537	23.46
610.73	23.22
610.923	23.08
611.117	23.12
611.31	22.94
611.504	22.74
611.697	22.84
611.89	22.74
612.083	22.58
612.277	22.58
612.47	22.58
612.663	22.63
612.856	22.55
613.05	22.48
613.243	22.41
613.436	22.33
613.629	22.14
613.822	22.13
614.015	22.04
614.209	21.97
614.402	21.89
614.595	21.85
614.788	21.82
614.981	21.8
615.174	21.61
615.367	21.49
615.56	21.42
615.753	21.43
615.946	21.33
616.139	21.37
616.332	21.4
616.525	21.3
616.718	21.18
616.911	21.17
617.103	21.15
617.296	21.01
617.489	20.92
617.682	20.93
617.875	20.94
618.067	20.83
618.26	20.86
618.453	20.83
618.646	20.72
618.838	20.53
619.031	20.48
619.224	20.37
619.417	20.41
619.609	20.42
619.802	20.44
619.994	20.48
620.187	20.38
620.38	20.31
620.572	20.18
620.765	20.16
620.957	20.11
621.15	20.08
621.342	20.03
621.535	20.05
621.727	19.99
621.92	19.94
622.112	20.03
622.305	20.04
622.497	19.94
622.69	19.98
622.882	20.05
623.074	20
623.267	19.96
623.459	19.95
623.651	19.95
623.844	19.94
624.036	19.98
624.228	20.01
624.42	19.94
624.613	19.81
624.805	19.68
624.997	19.59
625.189	19.43
625.381	19.36
625.574	19.33
625.766	19.36
625.958	19.35
626.15	19.4
626.342	19.47
626.534	19.49
626.726	19.39
626.918	19.42
627.11	19.31
627.302	19.26
627.494	19.28
627.686	19.27
627.878	19.15
628.07	19.24
628.262	19.3
628.454	19.19
628.646	19.16
628.838	19.23
629.029	19.12
629.221	19.01
629.413	19
629.605	18.95
629.797	18.85
629.989	18.81
630.18	18.84
630.372	18.86
630.564	18.9
630.755	18.91
630.947	18.9
631.139	18.82
631.33	18.69
631.522	18.61
631.714	18.56
631.905	18.51
632.097	18.43
632.289	18.48
632.48	18.43
632.672	18.48
632.863	18.39
633.055	18.43
633.246	18.36
633.438	18.37
633.629	18.34
633.821	18.42
634.012	18.41
634.203	18.43
634.395	18.42
634.586	18.38
634.777	18.33
634.969	18.32
635.16	18.33
635.351	18.29
635.543	18.16
635.734	18.13
635.925	18.13
636.117	18.09
636.308	18.1
636.499	18.15
636.69	18.24
636.881	18.13
637.073	18.16
637.264	18.12
637.455	18.12
637.646	18.05
637.837	18.08
638.028	18.02
638.219	18.08
638.41	18.16
638.601	18.16
638.792	18.18
638.983	18.2
639.174	18.1
639.365	18.05
639.556	17.94
639.747	17.92
639.938	17.92
640.129	17.9
640.32	17.86
640.511	17.95
640.701	17.91
640.892	17.82
641.083	17.76
641.274	17.7
641.465	17.61
641.655	17.64
641.846	17.67
642.037	17.73
642.228	17.7
642.418	17.67
642.609	17.68
642.8	17.58
642.99	17.52
643.181	17.55
643.372	17.53
643.562	17.41
643.753	17.36
643.943	17.35
644.134	17.19
644.324	17.2
644.515	17.28
644.705	17.32
644.896	17.36
645.086	17.49
645.277	17.45
645.467	17.35
645.658	17.3
645.848	17.23
646.038	17.26
646.229	17.33
646.419	17.28
646.61	17.33
646.8	17.31
646.99	17.2
647.18	17.04
647.371	17.06
647.561	17
647.751	16.97
647.941	16.91
648.132	16.92
648.322	16.93
648.512	16.91
648.702	16.93
648.892	16.86
649.082	16.85
649.272	16.74
649.462	16.74
649.653	16.61
649.843	16.6
650.033	16.62
650.223	16.59
650.413	16.57
650.603	16.63
650.793	16.65
650.983	16.54
651.172	16.58
651.362	16.46
651.552	16.39
651.742	16.27
651.932	16.26
652.122	16.28
652.312	16.24
652.502	16.02
652.691	16.03
652.881	15.97
653.071	15.79
653.261	15.74
653.45	15.83
653.64	15.72
653.83	15.57
654.019	15.33
654.209	15.2
654.399	14.99
654.588	14.96
654.778	14.85
654.968	14.87
655.157	14.67
655.347	14.55
655.536	14.34
655.726	14.13
655.915	13.99
656.105	13.95
656.294	13.86
656.484	13.75
656.673	13.71
656.863	13.63
657.052	13.49
657.241	13.39
657.431	13.22
657.62	13.15
657.809	12.87
657.999	12.76
658.188	12.61
658.377	12.48
658.567	12.26
658.756	12.22
658.945	12.06
659.134	11.87
659.324	11.63
659.513	11.54
659.702	11.34
659.891	11.09
660.08	10.97
660.269	10.92
660.458	10.73
660.648	10.61
660.837	10.54
661.026	10.23
661.215	10.05
661.404	9.89
661.593	9.75
661.782	9.58
661.971	9.44
662.16	9.31
662.349	9.12
662.538	9.01
662.726	8.83
662.915	8.95
663.104	8.85
663.293	8.85
663.482	8.76
663.671	8.72
663.86	8.55
664.048	8.57
664.237	8.48
664.426	8.4
664.615	8.29
664.803	8.19
664.992	8
665.181	7.94
665.369	7.8
665.558	7.8
665.747	7.81
665.935	7.79
666.124	7.78
666.312	7.77
666.501	7.75
666.69	7.7
666.878	7.66
667.067	7.54
667.255	7.48
667.444	7.44
667.632	7.46
667.82	7.44
668.009	7.38
668.197	7.37
668.386	7.32
668.574	7.3
668.762	7.2
668.951	7.28
669.139	7.3
669.327	7.27
669.516	7.28
669.704	7.29
669.892	7.21
670.08	7.2
670.269	7.19
670.457	7.07
670.645	7.05
670.833	7.13
671.021	7.22
671.21	7.28
671.398	7.4
671.586	7.47
671.774	7.53
671.962	7.46
672.15	7.49
672.338	7.5
672.526	7.61
672.714	7.62
672.902	7.75
673.09	7.87
673.278	7.94
673.466	8.04
673.654	8.09
673.842	8.15
674.03	8.16
674.218	8.22
674.405	8.19
674.593	8.25
674.781	8.15
674.969	8.28
675.157	8.36
675.344	8.43
675.532	8.46
675.72	8.61
675.908	8.51
676.095	8.5
676.283	8.53
676.471	8.53
676.658	8.6
676.846	8.67
677.033	8.63
677.221	8.72
677.409	8.87
677.596	8.86
677.784	8.94
677.971	9.1
678.159	9.1
678.346	9.13
678.534	9.31
678.721	9.39
678.909	9.52
679.096	9.67
679.283	9.73
679.471	9.82
679.658	9.95
679.846	9.88
680.033	10.07
680.22	10.22
680.408	10.13
680.595	10.25
680.782	10.57
680.969	10.74
681.157	10.92
681.344	11.09
681.531	11.22
681.718	11.28
681.905	11.33
682.093	11.42
682.28	11.66
682.467	11.83
682.654	12.03
682.841	12.2
683.028	12.16
683.215	12.44
683.402	12.43
683.589	12.48
683.776	12.57
683.963	12.92
684.15	13.08
684.337	13.57
684.524	13.82
684.711	14.14
684.898	14.34
685.085	14.47
685.271	14.6
685.458	14.87
685.645	15.08
685.832	15.41
686.019	15.69
686.205	15.99
686.392	16.33
686.579	16.71
686.766	17.06
686.952	17.4
687.139	17.68
687.326	18.05
687.512	18.26
687.699	18.7
687.886	19.07
688.072	19.59
688.259	19.95
688.445	20.46
688.632	20.91
688.818	21.44
689.005	21.85
689.191	22.46
689.378	22.9
689.564	23.35
689.751	23.95
689.937	24.48
690.124	24.97
690.31	25.31
690.496	25.9
690.683	26.57
690.869	27.22
691.055	27.77
691.242	28.51
691.428	29.01
691.614	29.31
691.8	29.74
691.987	30.4
692.173	31.2
692.359	31.98
692.545	32.82
692.731	33.43
692.918	33.98
693.104	34.58
693.29	35.08
693.476	35.8
693.662	36.58
693.848	37.4
694.034	38.24
694.22	39.05
694.406	39.59
694.592	40.26
694.778	40.87
694.964	41.31
695.15	41.99
695.336	42.64
695.522	43.36
695.708	44.02
695.894	44.93
696.08	45.63
696.265	46.22
696.451	46.68
696.637	47.65
696.823	47.93
697.009	48.45
697.194	49.51
697.38	50.29
697.566	50.56
697.751	51.36
697.937	52.05
698.123	52.34
698.308	52.85
698.494	53.67
698.68	54.33
698.865	55.05
699.051	55.64
699.236	56.47
699.422	56.82
699.607	57.45
699.793	57.99
699.978	58.11
700.164	58.49
700.349	59.19
700.535	59.2
700.72	59.76
700.906	60.53
701.091	61.06
701.276	61.36
701.462	62.36
701.647	62.53
701.832	63.26
702.018	63.87
702.203	64.32
702.388	64.71
702.573	65.09
702.759	65.51
702.944	65.45
703.129	65.56
703.314	65.87
703.499	66.24
703.684	66.41
703.87	67.14
704.055	67.75
704.24	67.85
704.425	68.12
704.61	68.46
704.795	68.69
704.98	68.55
705.165	69.21
705.35	69.67
705.535	70.28
705.72	70.53
705.905	71.69
706.09	72.11
706.275	72.52
706.459	72.43
706.644	72.76
706.829	73
707.014	72.91
707.199	73.19
707.384	73.57
707.568	73.66
707.753	73.76
707.938	74.22
708.123	74.61
708.307	74.94
708.492	75.48
708.677	75.39
708.861	75.67
709.046	75.38
709.231	75.52
709.415	75.6
709.6	75.78
709.784	75.96
709.969	76.69
710.153	76.63
710.338	77.13
710.522	77.64
710.707	77.59
710.891	77.31
711.076	77.45
711.26	77.75
711.445	77.62
711.629	77.42
711.813	78
711.998	78.67
712.182	78.28
712.366	78.81
712.551	79.43
712.735	79.18
712.919	79.45
713.103	79.94
713.288	79.92
713.472	79.93
713.656	80.14
713.84	79.71
714.024	79.54
714.208	79.44
714.393	79.68
714.577	80.17
714.761	80.25
714.945	80.36
715.129	80.69
715.313	80.75
715.497	80
715.681	79.86
715.865	79.59
716.049	79.87
716.233	79.73
716.417	79.89
716.601	80.23
716.785	80.67
716.968	80.55
717.152	80.87
717.336	81.65
717.52	81.74
717.704	81.9
717.888	81.9
718.071	81.87
718.255	81.94
718.439	82.05
718.622	82.33
718.806	82.1
718.99	82.31
719.174	82.34
719.357	82.61
719.541	82.53
719.724	82.83
719.908	82.62
720.092	82.28
720.275	82.55
720.459	82.39
720.642	83
720.826	83.17
721.009	83.34
721.193	82.79
721.376	82.96
721.559	82.41
721.743	82.92
721.926	83.63
722.11	84.08
722.293	84.81
722.476	85.17
722.66	85.28
722.843	85.09
723.026	85.62
723.21	85.06
723.393	85.11
723.576	84.56
723.759	84.68
723.942	84.38
724.126	84.31
724.309	84.75
724.492	85.21
724.675	85.01
724.858	85.13
725.041	85.69
725.224	85.63
725.407	85.69
725.59	85.47
725.774	85.32
725.957	85.29
726.14	85.11
726.322	84.87
726.505	85.28
726.688	85.41
726.871	84.8
727.054	85.18
727.237	85.33
727.42	85.16
727.603	85.29
727.786	85.78
727.968	85.35
728.151	85.83
728.334	86.14
728.517	86.18
728.699	86.45
728.882	86.51
729.065	86.24
729.248	86.29
729.43	86.86
729.613	86.66
729.796	87.34
729.978	87.87
730.161	88.36
730.343	88.02
730.526	88.37
730.708	87.85
730.891	87.59
731.073	86.95
731.256	87.21
731.438	87.95
731.621	88.28
731.803	88.38
731.986	89
732.168	89.23
732.35	88.91
732.533	89.24
732.715	89.7
732.898	89.02
733.08	88.61
733.262	88.32
733.444	88.37
733.627	88.05
733.809	89.05
733.991	89.25
734.173	88.91
734.355	88.8
734.538	89.36
734.72	89.34
734.902	89.64
735.084	90.19
735.266	90.57
735.448	90.21
735.63	90.37
735.812	90.26
735.994	89.75
736.176	89.71
736.358	90.4
736.54	90.7
736.722	90.4
736.904	91.2
737.086	90.91
737.268	91.02
737.45	90.76
737.632	91.08
737.814	91.14
737.995	91.48
738.177	91.01
738.359	90.8
738.541	91.21
738.723	91.14
738.904	91.07
739.086	90.95
739.268	90.84
739.449	89.94
739.631	90.14
739.813	89.68
739.994	89.86
740.176	90.85
740.358	91.75
740.539	91.28
740.721	92.3
740.902	92.28
741.084	92.45
741.265	92.59
741.447	93.34
741.628	92.75
741.81	93.41
741.991	93.24
742.172	92.42
742.354	92.06
742.535	91.76
742.717	90.49
742.898	89.52
743.079	90.77
743.261	91.23
743.442	90.97
743.623	90.84
743.804	91.11
743.986	90.33
744.167	89.92
744.348	90.44
744.529	90.65
744.71	91.29
744.891	91.2
745.073	91.09
745.254	91.09
745.435	92.18
745.616	91.15
745.797	91.23
745.978	90.97
746.159	91.19
746.34	91.15
746.521	91.3
746.702	92.41
746.883	92.3
747.064	92.43
747.245	92.78
747.426	92.82
747.606	91.81
747.787	93.25
747.968	92.14
748.149	91.78
748.33	91.7
748.51	91.68
748.691	90.71
748.872	93.06
749.053	90.99
749.233	91.28
749.414	91.81
749.595	91.96
749.775	90.82
749.956	92.08
750.137	92.54
750.317	91.63
750.498	91.94
750.678	91.22
750.859	91.65
751.04	91.45
751.22	90.46
751.4	90.62
751.581	90.72
751.761	91.25
751.942	90.82
752.122	91.2
752.303	91.28
752.483	91.24
752.663	90.06
752.844	89.32
753.024	90.94
753.204	90.71
753.385	90.79
753.565	92.33
753.745	92.85
753.925	90.26
754.106	90.59
754.286	89.56
754.466	88.82
754.646	88.39
754.826	91.15
755.006	90.15
755.187	91.4
755.367	90.72
755.547	91.83
755.727	91.23
755.907	90.81
756.087	90.33
756.267	89.5
756.447	89.77
756.627	90.15
756.807	91.69
756.987	91.6
757.167	92.2
757.346	91.18
757.526	90.18
757.706	88.43
757.886	89.22
758.066	91.31
758.246	91.36
758.425	91.05
758.605	91.97
758.785	91.62
758.965	90.13
759.144	88.13
759.324	89.94
759.504	91.76
759.683	90.26
759.863	91.21
760.043	92.82
760.222	91.92
760.402	89.11
760.581	90.16
760.761	89.67
760.94	89.9
761.12	89.26
761.299	91.07
761.479	90.55
761.658	90.66
761.838	91.65
762.017	93.34
762.197	91.24
762.376	91.78
762.555	90.66
762.735	89.3
762.914	88.3
763.093	88.86
763.273	88.67
763.452	88.87
763.631	88.43
763.81	87.84
763.99	87.21
764.169	87.66
764.348	86.39
764.527	87.15
764.706	85.71
764.885	87.03
765.064	87.93
765.243	89.76
765.423	90.17
765.602	92.34
765.781	89.79
765.96	89.27
766.139	88.93
766.318	89.63
766.497	88.2
766.676	88.9
766.854	86.87
767.033	86.11
767.212	86.4
767.391	86.97
767.57	89.84
767.749	91.01
767.928	92.56
768.106	90.6
768.285	90.6
768.464	89.35
768.643	88.05
768.821	85.82
769	86.13
769.179	85.11
769.357	83.79
769.536	83.76
769.715	83.86
769.893	82.78
770.072	82.95
770.25	82.84
770.429	83.84
770.607	85.92
770.786	86.5
770.964	87.55
771.143	90.05
771.321	88.51
771.5	88.78
771.678	87.81
771.857	85.62
772.035	84.02
772.213	85.06
772.392	81.01
772.57	80.69
772.748	81.72
772.927	81.63
773.105	82.2
773.283	85.38
773.461	87.17
773.64	87.48
773.818	87.25
773.996	88.32
774.174	88.92
774.352	87.8
774.531	87.84
774.709	89.57
774.887	88.03
775.065	86.35
775.243	86.94
775.421	85.88
775.599	85.18
775.777	84.86
775.955	84.34
776.133	83.57
776.311	83.75
776.489	82.41
776.667	79.81
776.844	80.46
777.022	82.68
777.2	82.08
777.378	82.07
777.556	84.5
777.734	85.12
777.911	83.29
778.089	85.56
778.267	85.66
778.445	86.98
778.622	86
778.8	84.75
778.978	85.3
779.155	87.47
779.333	86.93
779.511	87.35
779.688	89.63
779.866	87.05
780.043	85.67
780.221	86.11
780.398	85.99
780.576	84.6
780.753	83.73
780.931	84.05
781.108	86.2
781.286	87.84
781.463	88.26
781.64	89.4
781.818	87.48
781.995	84
782.172	82.84
782.35	82.47
782.527	81.8
782.704	80.7
782.882	78.32
783.059	77.41
783.236	78.24
783.413	77.77
783.59	80.31
783.768	83.38
783.945	83.74
784.122	82.46
784.299	85.72
784.476	82.19
784.653	81.58
784.83	80.7
785.007	82.08
785.184	78.64
785.361	80.3
785.538	78.23
785.715	78.8
785.892	78.38
786.069	81.52
786.246	82.04
786.423	83.45
786.6	83.57
786.776	81.97
786.953	79.74
787.13	80.38
787.307	79.37
787.484	77.51
787.66	78.06
787.837	79.17
788.014	78.72
788.191	78.16
788.367	75.8
788.544	76.99
788.721	74.82
788.897	74.86
789.074	77.57
789.25	80.91
789.427	80.48
789.603	79.47
789.78	76.68
789.956	76.15
790.133	75.34
790.309	75.01
790.486	76.65
790.662	79.63
790.839	76.7
791.015	79.92
791.192	80.09
791.368	79.9
791.544	80.08
791.721	82.24
791.897	78.66
792.073	78
792.249	75.53
792.426	76.11
792.602	76.38
792.778	75.26
792.954	76.68
793.13	79.18
793.307	75.71
793.483	74.73
793.659	75.74
793.835	76.35
794.011	78.29
794.187	77.93
794.363	78.73
794.539	79.77
794.715	77.6
794.891	77.45
795.067	79.2
795.243	78.62
795.419	77.34
795.595	83.46
795.771	81.16
795.947	79.69
796.122	79.18
796.298	77.66
796.474	78.45
796.65	78.2
796.826	77.99
797.001	81.81
797.177	81.17
797.353	73.64
797.529	77.9
797.704	79.81
797.88	73.95
798.056	76.34
798.231	79.06
798.407	77.05
798.582	73.29
798.758	76.4
798.934	74.71
799.109	70.54
799.285	68.88
799.46	68.39
799.636	66.63
799.811	69.23
799.986	68.89
800.162	66.28
800.337	71.98
800.513	67.9
800.688	61.25
800.863	67.36
801.039	75.26
801.214	74.98
801.389	78.49
801.565	83.8
801.74	79.34
801.915	70.49
802.09	66.79
802.265	69.5
802.441	69.28
802.616	67.35
802.791	70.85
802.966	73.06
803.141	71.41
803.316	72.24
803.491	71.59
803.666	72.94
803.841	70.77
804.016	66.98
804.191	68.66
804.366	73.48
804.541	74.48
804.716	75.59
804.891	78.64
805.066	74.75
805.241	73.39
805.416	76.62
805.591	79.41
805.765	84.15
805.94	86.07
806.115	81.5
806.29	74.15
806.464	73.97
806.639	67.97
806.814	64.15
806.989	71.3
807.163	80.45
807.338	77.19
807.512	85.92
807.687	86.76
807.862	82.78
808.036	80.89
808.211	83.04
808.385	73.9
808.56	76.14
808.734	66.77
808.909	64.81
809.083	67.02
809.258	67.82
809.432	65.01
809.606	77.43
809.781	71.71
809.955	71.47
810.13	65.03
810.304	65.15
810.478	60.84
810.652	62.82
810.827	63.38
811.001	69.27
811.175	70.67
811.349	74.28
811.524	79.53
811.698	79.21
811.872	78.23
812.046	74.11
812.22	69.07
812.394	61.98
812.568	59.6
812.742	59.29
812.916	68.8
813.09	71.3
813.264	73.82
813.438	67.61
813.612	66.49
813.786	62.44
813.96	61.19
814.134	56.49
814.308	62.5
814.482	63.27
814.656	61.73
814.83	67.56
815.003	67.15
815.177	68.41
815.351	68.43
815.525	71.98
815.698	56.95
815.872	51.4
816.046	43.04
816.219	52.68
816.393	50.24
816.567	58.13
816.74	62.36
816.914	72.53
817.088	69.69
817.261	66.84
817.435	72.6
817.608	73.26
817.782	65.22
817.955	67.36
818.129	76.11
818.302	75.83
818.475	74.24
818.649	68.74
818.822	56.28
818.996	56.95
819.169	57.51
819.342	62.81
819.516	77.12
819.689	79.67
819.862	74.2
820.035	71.07
820.209	65.93
820.382	58.58
820.555	50.4
820.728	41.33
820.901	38
821.075	40.06
821.248	43.12
821.421	57.42
821.594	68.63
821.767	70.8
821.94	59.49
822.113	61.91
822.286	64.62
822.459	64.57
822.632	67.88
822.805	85.88
822.978	94.16
823.151	88.21
823.324	78.09
823.496	79.93
823.669	75.28
823.842	66.26
824.015	75.49
824.188	69.6
824.361	60.35
824.533	56.74
824.706	50.9
824.879	45.19
825.051	55.74
825.224	54.27
825.397	46.46
825.569	48.21
825.742	58.2
825.915	52.97
826.087	54.73
826.26	58.02
826.432	50.6
826.605	32.56
826.777	37
826.95	36.94
827.122	28.36
827.295	50.12
827.467	63.15
827.64	50.94
827.812	51.65
827.984	76.95
828.157	52.39
828.329	62.94
828.501	67.04
828.674	67.89
828.846	62.09
829.018	50.47
829.19	42.83
829.363	41.54
829.535	37.97
829.707	42.2
829.879	36.26
830.051	26.05
830.223	36.33
830.395	35.6
830.568	43.2
830.74	59.91
830.912	61.37
831.084	55.58
831.256	51.22
831.428	47.27
831.6	43.03
831.772	35.02
831.943	34.42
832.115	48.84
832.287	53.91
832.459	51.07
832.631	61.93
832.803	59.27
832.975	58.89
833.146	45.53
833.318	54.4
833.49	61.96
833.662	77.62
833.833	72.42
834.005	81.08
834.177	80.05
834.348	66.7
834.52	58.54
834.692	52.76
834.863	63.07
835.035	58.63
835.206	49.69
835.378	53.72
835.549	56.66
835.721	46.68
835.892	36.83
836.064	40.74
836.235	35.46
836.407	31.78
836.578	31.85
836.749	45.16
836.921	53.05
837.092	39.9
837.264	49.25
837.435	38.81
837.606	47.98
837.777	45.39
837.949	53.63
838.12	56.48
838.291	66.8
838.462	53.87
838.633	63.89
838.805	75.36
838.976	64.69
839.147	59.05
839.318	70.64
839.489	65.11
839.66	49.49
839.831	57.17
840.002	50.37
840.173	61.23
840.344	56.07
840.515	49.13
840.686	44.4
840.857	46.32
841.028	44.31
841.199	46.47
841.369	70.76
841.54	73.05
841.711	107.54
841.882	81.32
842.053	68.19
842.223	42.42
842.394	40.87
842.565	16.79
842.736	23.51
842.906	14.41
843.077	35.78
843.248	56
843.418	56.84
843.589	46.43
843.759	78.61
843.93	73.36
844.101	67.5
844.271	85.41
844.442	74
844.612	37.59
844.783	39.39
844.953	34.83
845.123	36.01
845.294	53.67
845.464	49.66
845.635	33.89
845.805	40.41
845.975	61.94
846.146	32.75
846.316	48.23
846.486	68.1
846.656	58.67
846.827	50.36
846.997	50.6
847.167	64.4
847.337	61.17
847.507	59.83
847.677	58.49
847.848	58.86
848.018	51.27
848.188	54.24
848.358	54.91
848.528	63.99
848.698	62.06
848.868	57.76
849.038	40.84
849.208	37.23
849.378	39.69
849.548	36.63
849.718	15.56
849.887	-3.96
850.057	8.05
850.227	9.93
850.397	13.32
850.567	2.78
850.737	33.39
850.906	16.32
851.076	-11.6
851.246	16.85
851.415	61.41
851.585	85.31
851.755	86.7
851.924	100.05
852.094	97.13
852.264	74.25
852.433	37.49
852.603	5.58
852.772	-7.63
852.942	30.43
853.111	30.7
853.281	52.92
853.45	53.28
853.62	60.57
853.789	16.12
853.959	11.67
854.128	-0.38
854.297	26.67
854.467	27.19
854.636	34.73
854.805	33.38
854.975	45.06
855.144	23.13
855.313	49.27
855.482	32.73
855.652	48.64
855.821	47.09
855.99	56.46
856.159	26.85
856.328	53.4
856.497	59.54
856.667	43.4
856.836	39.6
857.005	50.81
857.174	44.79
857.343	11.97
857.512	10.09
857.681	3.36
857.85	2.85
858.019	-11.46
858.188	-18.74
858.356	-2.6
858.525	8.28
858.694	8.89
858.863	12.73
859.032	20.68
859.201	-4.64
859.369	-11.3
859.538	7.57
859.707	-7.32
859.876	10.82
860.044	37.24
860.213	58
860.382	41.84
860.55	35.14
860.719	46.9
860.888	52.77
861.056	23.13
861.225	33.3
861.393	37.65
861.562	17.73
861.73	-2.41
861.899	12.17
862.067	8.41
862.236	5.46
862.404	28.01
862.572	20.6
862.741	-4.59
862.909	28.55
863.078	51.87
863.246	24.43
863.414	56.79
863.582	59.73
863.751	62.96
863.919	58.74
864.087	47.54
864.255	29.78
864.424	4.39
864.592	19.47
864.76	-4.91
864.928	30.79
865.096	63.59
865.264	84.94
865.432	69.51
865.6	124.36
865.768	118.21
865.936	75.8
866.104	59.83
866.272	48.4
866.44	28.35
866.608	16.24
866.776	-5.81
866.944	27.91
867.112	44.7
867.28	44.49
867.448	41.25
867.615	46.63
867.783	23.56
867.951	35.02
868.119	15.5
868.286	59.3
868.454	32.89
868.622	24.71
868.789	11.6
868.957	26
869.125	23.13
869.292	8.36
869.46	24.99
869.627	21.29
869.795	6
869.963	27.09
870.13	41.01
870.298	61.4
870.465	59.93
870.632	44.32
870.8	22.95
870.967	22.09
871.135	28.1
871.302	17.04
871.469	42.53
871.637	53.94
871.804	56.02
871.971	15.19
872.139	13.08
872.306	-22.82
872.473	-16.7
872.64	-98.96
872.807	-46.85
872.975	-96.52
873.142	39.5
873.309	2.57
873.476	45.32
873.643	65.33
873.81	44.95
873.977	-4.86
874.144	27.01
874.311	-12.79
874.478	-38.1
874.645	-51.56
874.812	29.19
874.979	33.61
875.146	50.43
875.313	59.55
875.48	90.14
875.647	50.09
875.813	12.66
875.98	17.11
876.147	-45.44
876.314	-27.87
876.481	59.61
876.647	86.15
876.814	64.18
876.981	76.58
877.147	73.58
877.314	67.44
877.481	59.94
877.647	52.1
877.814	62.48
877.98	55
878.147	53.95
878.314	60.86
878.48	73.23
878.647	75.71
878.813	113.38
878.979	79.56
879.146	74.65
879.312	79.82
879.479	67.75
879.645	40
879.811	49.04
879.978	58.86
880.144	57.23
880.31	34.85
880.477	32.02
880.643	25.69
880.809	-19.3
880.975	-70.62
881.142	-83.9
881.308	311.31
881.474	490.15
881.64	-64.84
881.806	-30.02
881.972	-48.37
882.138	-9.74
882.304	-5.48
882.47	-19.97
882.636	-43.97
882.802	-6.08
882.968	-0.4
883.134	10.76
883.3	-16.76
883.466	13.01
883.632	-1.11
883.798	-90.7
883.964	-194.3
884.129	-1025.76
884.295	-84.94
884.461	-80.41
884.627	-1.99
884.793	26.45
884.958	51.23
885.124	33.41
885.29	-18.15
885.455	-29.88
885.621	4.26
885.787	15.06
885.952	-11.14
886.118	33.2
886.283	53.94
886.449	46.33
886.614	20.01
886.78	26.82
886.945	-4.6
887.111	-59.34
887.276	-86.01
887.442	-129.52
887.607	-89.71
887.773	-18.58
887.938	-12.32
888.103	-7.95
888.269	0.54
888.434	-3.41
888.599	-13.55
888.764	20.01
888.93	28.77
889.095	25.94
889.26	20.26
889.425	14.78
889.59	-23.4
889.756	-11.66
889.921	-31.46
890.086	-83.93
890.251	-96.03
890.416	-40.42
890.581	-94.45
890.746	3.84
890.911	16.46
891.076	12.43
891.241	0.4
891.406	21.22
891.571	-46.07
891.736	-118.1
891.901	8.49
892.065	9.05
892.23	-11.19
892.395	-24.76
892.56	-36.36
892.725	-107.79
892.889	-99.52
893.054	1
893.219	-2.05
893.384	29.63
893.548	-7.68
893.713	-63.75
893.878	-146.1
