Data from OFra_PS_T2_2A_0CX04_Reflection_1.txt Node
Date: Wed Jul 21 16:48:07 EDT 2021
User: Adam
Spectrometer: FLMT01687
Trigger mode: 0
Integration Time (sec): 1.100000E0
Scans to average: 2
Electric dark correction enabled: true
Nonlinearity correction enabled: false
Boxcar width: 2
XAxis mode: Wavelengths
Number of Pixels in Spectrum: 3648
>>>>>Begin Spectral Data<<<<<
179.494	282.2
179.716	288.94
179.937	286.04
180.158	265.44
180.38	539.84
180.601	284.94
180.823	136.51
181.044	143.48
181.265	368.2
181.486	50.6
181.708	53.29
181.929	550.51
182.15	127.11
182.372	194.68
182.593	118.21
182.814	59.42
183.035	103.35
183.257	67.96
183.478	-11.44
183.699	11.46
183.92	10.49
184.141	-2.3
184.363	-42.95
184.584	16.14
184.805	29.9
185.026	59.8
185.247	61.27
185.468	54.58
185.689	50.96
185.91	54.9
186.132	40.56
186.353	32
186.574	64.73
186.795	54.07
187.016	26.35
187.237	8.71
187.458	-9.33
187.679	-20.21
187.9	-31.32
188.121	-19.16
188.342	-1.99
188.563	52.15
188.784	61.42
189.005	87.87
189.226	91.69
189.447	80.55
189.667	-79.98
189.888	-129.93
190.109	-615.26
190.33	-414.03
190.551	-838.72
190.772	-170.64
190.993	-114.5
191.214	-123.74
191.434	-79.08
191.655	-36.04
191.876	-38.32
192.097	-130.55
192.318	-148.72
192.538	-137.17
192.759	-80.38
192.98	-32.86
193.201	18.74
193.421	38.91
193.642	31.26
193.863	29.78
194.083	5.09
194.304	-10.09
194.525	-6.29
194.745	-31.83
194.966	-23.42
195.187	-3.54
195.407	-21.74
195.628	-65.99
195.848	-50.03
196.069	-35.33
196.29	-31.33
196.51	-17.32
196.731	-33.34
196.951	-32.13
197.172	-43.25
197.392	-78.17
197.613	-74.02
197.833	-77.72
198.054	-48.09
198.274	-28.47
198.495	-27.07
198.715	-8.91
198.936	-11.56
199.156	-23.2
199.377	-53.82
199.597	-35.94
199.817	-43.47
200.038	-14.81
200.258	-21.42
200.479	-13.24
200.699	-28.05
200.919	-1.9
201.14	8
201.36	-7.57
201.58	27.92
201.801	39.02
202.021	17.86
202.241	9.04
202.461	1.94
202.682	-47.54
202.902	-66.99
203.122	-19.12
203.342	-21.32
203.563	20.65
203.783	22.41
204.003	16.36
204.223	1.63
204.443	31.06
204.663	11.44
204.884	3.9
205.104	6.79
205.324	37.61
205.544	83.34
205.764	62.81
205.984	53.22
206.204	54.35
206.424	42.85
206.644	8.85
206.864	23.26
207.084	45.88
207.304	92.2
207.525	71.33
207.745	97.42
207.964	99.78
208.184	53.98
208.404	21.91
208.624	31.51
208.844	-1.57
209.064	-145.1
209.284	-95.53
209.504	-77.06
209.724	-0.3
209.944	-0.94
210.164	0.9
210.384	-10.55
210.604	1.53
210.823	-40.48
211.043	-12.14
211.263	-3.45
211.483	9.67
211.703	-32.06
211.922	-20.33
212.142	-13.71
212.362	-19.27
212.582	-1.5
212.801	2.19
213.021	-5.76
213.241	-24
213.461	-51.51
213.68	-78.11
213.9	-87.76
214.12	-54.78
214.339	-61.89
214.559	-26.87
214.779	-7.77
214.998	28.52
215.218	10.72
215.438	20.34
215.657	10.84
215.877	18.2
216.096	27.57
216.316	42.81
216.535	22.75
216.755	41.87
216.974	34
217.194	-15.85
217.413	-17.75
217.633	-14.62
217.852	-85.75
218.072	-15.47
218.291	4.11
218.511	-3.09
218.73	-10.82
218.95	2.24
219.169	-3.5
219.389	-15.88
219.608	11
219.827	12.89
220.047	8.1
220.266	14.01
220.485	24.88
220.705	5.93
220.924	13.95
221.143	30.53
221.363	19.72
221.582	7.67
221.801	18.82
222.021	29.68
222.24	5.9
222.459	2.11
222.678	25.74
222.897	-22.75
223.117	-56.18
223.336	-63.57
223.555	-16.12
223.774	0.03
223.993	17.12
224.213	22.6
224.432	45.53
224.651	44.42
224.87	14.31
225.089	25.11
225.308	14.56
225.527	13.39
225.746	20.69
225.965	22.53
226.184	-5.62
226.404	17.79
226.623	-0.56
226.842	-13.51
227.061	5.53
227.28	7.22
227.499	0.71
227.718	10.93
227.936	0.01
228.155	9.28
228.374	27.33
228.593	16.61
228.812	31.2
229.031	25.5
229.25	-14.44
229.469	-40.98
229.688	-31.84
229.907	-27.4
230.125	-11.51
230.344	-5.93
230.563	-1.54
230.782	5.15
231.001	-49.89
231.22	-44.54
231.438	-3.54
231.657	14.12
231.876	14.19
232.095	50.21
232.313	60.55
232.532	61.99
232.751	52.09
232.969	59.01
233.188	76.67
233.407	73.28
233.625	54.13
233.844	53.63
234.063	34.81
234.281	28.95
234.5	28.26
234.719	9.85
234.937	5.54
235.156	6.34
235.374	6.36
235.593	-22.54
235.811	-26.02
236.03	-13.27
236.249	-38.08
236.467	-23.19
236.686	10.61
236.904	24.81
237.123	24.41
237.341	25.06
237.559	29.8
237.778	31.16
237.996	23.37
238.215	14.53
238.433	10.25
238.652	7.12
238.87	-3.49
239.088	4.73
239.307	2.81
239.525	20.82
239.743	7.62
239.962	5.97
240.18	0.99
240.398	11.63
240.617	-22.42
240.835	-22.45
241.053	-11.99
241.271	-20.48
241.49	-10.86
241.708	12.15
241.926	-31.16
242.144	0.03
242.363	-0.55
242.581	-5.15
242.799	-8.9
243.017	32.7
243.235	6.53
243.453	7.24
243.672	15.14
243.89	17.25
244.108	12.48
244.326	16.8
244.544	20.39
244.762	14.57
244.98	6.43
245.198	4.79
245.416	17.11
245.634	23.58
245.852	5.78
246.07	-4.44
246.288	-21.1
246.506	-20.93
246.724	-41.1
246.942	-5.93
247.16	5.98
247.378	16.92
247.596	6.06
247.814	11.26
248.032	2.26
248.25	21.88
248.468	17.38
248.685	6.28
248.903	22.01
249.121	18.44
249.339	-4.49
249.557	-4.97
249.775	11.02
249.992	-22.89
250.21	-26.62
250.428	-14.79
250.646	-35.53
250.863	-41.66
251.081	-25.05
251.299	-25.33
251.517	-5.6
251.734	-24.94
251.952	-15.77
252.17	-14.49
252.387	0.72
252.605	-9.57
252.823	9.62
253.04	19.78
253.258	25.52
253.475	9.36
253.693	32.43
253.911	33.6
254.128	25.4
254.346	29.07
254.563	33.43
254.781	14.19
254.998	8.1
255.216	20.2
255.433	24.45
255.651	50.63
255.868	50.22
256.086	57.67
256.303	55
256.521	49.68
256.738	24.78
256.956	11.91
257.173	-13.35
257.39	-40.1
257.608	-64.89
257.825	-30.23
258.043	-19.66
258.26	8.68
258.477	27.85
258.695	27.13
258.912	10.63
259.129	26.91
259.346	3.39
259.564	-19.51
259.781	-17
259.998	-0.64
260.216	-30.51
260.433	3.21
260.65	10.35
260.867	11.42
261.084	-8.48
261.302	8.53
261.519	-9.25
261.736	-15.48
261.953	-7.64
262.17	13.23
262.387	-5.32
262.604	-4.89
262.822	28.06
263.039	15.24
263.256	11.67
263.473	52.31
263.69	39.22
263.907	30.28
264.124	28.81
264.341	6.07
264.558	-0.14
264.775	-13.41
264.992	-25.41
265.209	-14.35
265.426	8.77
265.643	5.45
265.86	18.24
266.077	15.96
266.294	29.23
266.51	9.4
266.727	-6.02
266.944	-9.03
267.161	-12.8
267.378	-39.83
267.595	4.23
267.812	-4.83
268.028	-13.89
268.245	19.94
268.462	30.63
268.679	16.91
268.896	38.21
269.112	42.55
269.329	34.5
269.546	24.48
269.763	17.31
269.979	25.27
270.196	26.43
270.413	3.37
270.629	1.07
270.846	7.19
271.063	8.63
271.279	-5.39
271.496	20.33
271.712	53.11
271.929	60.85
272.146	28.5
272.362	29.2
272.579	19.74
272.795	18.99
273.012	29.91
273.228	48.02
273.445	41.23
273.661	49.49
273.878	33.48
274.094	13.61
274.311	11.37
274.527	44.94
274.744	37.49
274.96	17.72
275.177	21.81
275.393	24.37
275.609	11.2
275.826	27.49
276.042	27.26
276.259	25.13
276.475	31.34
276.691	41.12
276.908	25.96
277.124	33.06
277.34	36.29
277.557	25.37
277.773	6.81
277.989	7.94
278.205	12.03
278.422	12.26
278.638	12.95
278.854	35.82
279.07	34.93
279.286	37.18
279.503	32.36
279.719	42.32
279.935	25.09
280.151	18.62
280.367	21.16
280.583	7.88
280.799	-2.21
281.016	-24.84
281.232	6.82
281.448	-17.83
281.664	-10.3
281.88	-30.42
282.096	-10.83
282.312	-25.96
282.528	1.5
282.744	21.69
282.96	24.57
283.176	22.3
283.392	18.61
283.608	4.08
283.824	-6.49
284.04	2.52
284.256	10.42
284.471	7.81
284.687	25.3
284.903	48.34
285.119	43.53
285.335	24.99
285.551	38.58
285.767	32.41
285.982	15.41
286.198	-2.66
286.414	21.04
286.63	23.32
286.846	26.15
287.061	21.31
287.277	38.45
287.493	11.99
287.709	18.39
287.924	-1.82
288.14	13.11
288.356	6.01
288.571	34.23
288.787	16.59
289.003	18.23
289.218	9.48
289.434	-10.85
289.65	-33.46
289.865	-49.3
290.081	-32.73
290.296	-29.83
290.512	0.02
290.727	-8.96
290.943	7.79
291.159	9.73
291.374	6.26
291.59	-14.83
291.805	11.58
292.021	15.95
292.236	11.19
292.451	25.22
292.667	26.37
292.882	29.49
293.098	20.48
293.313	23.94
293.529	6.32
293.744	15.52
293.959	4.55
294.175	-2.07
294.39	5.51
294.605	9.27
294.821	11.76
295.036	20.96
295.251	28.18
295.467	27.98
295.682	20.06
295.897	14.64
296.112	-4.83
296.328	-16.21
296.543	-51.45
296.758	-38.18
296.973	-28.52
297.188	0.99
297.404	-6.16
297.619	-3.52
297.834	-6.31
298.049	-3.95
298.264	-16.06
298.479	10.09
298.694	10.39
298.909	30.23
299.125	36.06
299.34	35.6
299.555	24.2
299.77	31.56
299.985	-11.76
300.2	-44.28
300.415	-51
300.63	-34.98
300.845	-30
301.06	-23.73
301.275	-2.32
301.49	17.33
301.704	12.99
301.919	1.9
302.134	6.01
302.349	-13.11
302.564	-55.82
302.779	-43.98
302.994	-10.31
303.209	17.76
303.423	36.62
303.638	52.3
303.853	7.73
304.068	0.57
304.283	1.01
304.497	2.34
304.712	-3.72
304.927	15.16
305.142	11.43
305.356	12.87
305.571	6.65
305.786	8.32
306	-6.97
306.215	-8.41
306.43	-19.67
306.644	-12.41
306.859	-0.28
307.074	31.16
307.288	12.14
307.503	-22.45
307.717	-23.53
307.932	-36.89
308.147	-39.94
308.361	-21.66
308.576	2.33
308.79	-10.2
309.005	-4.08
309.219	-1.84
309.434	-11.39
309.648	-1.09
309.863	19.36
310.077	29.79
310.292	29.04
310.506	34.75
310.72	28.91
310.935	30.05
311.149	15.74
311.364	29.28
311.578	29.12
311.792	22.97
312.007	21.54
312.221	26.52
312.435	24.4
312.649	23.26
312.864	37.08
313.078	59.21
313.292	64.92
313.507	21.59
313.721	37.48
313.935	33.62
314.149	9.98
314.363	17.89
314.578	34.36
314.792	27.52
315.006	4.47
315.22	25.8
315.434	15.36
315.648	20.12
315.862	19.59
316.077	30.51
316.291	17.58
316.505	56.24
316.719	41.96
316.933	19.43
317.147	-4.87
317.361	-38.76
317.575	-75.35
317.789	-104.84
318.003	-144.04
318.217	-95.11
318.431	-8.55
318.645	37.25
318.859	50.89
319.073	59.12
319.287	54.6
319.5	25.83
319.714	-4.54
319.928	-34.4
320.142	-44.62
320.356	-24.27
320.57	-12.2
320.784	-10.85
320.997	-15.64
321.211	-17.32
321.425	-25.95
321.639	-33.08
321.853	-7.92
322.066	18.03
322.28	15.27
322.494	11.96
322.707	4.79
322.921	8.4
323.135	8.82
323.349	14.66
323.562	9.18
323.776	10.32
323.989	-16.66
324.203	-35.45
324.417	-39.97
324.63	-54.72
324.844	-31.6
325.057	-10.45
325.271	-4.64
325.485	14.49
325.698	42.12
325.912	49.61
326.125	39.05
326.339	46.33
326.552	35.16
326.766	23.27
326.979	15.69
327.193	30.42
327.406	13.86
327.619	16.76
327.833	17.15
328.046	5.57
328.26	-4.9
328.473	15.97
328.686	25.9
328.9	15.33
329.113	30.64
329.326	22.12
329.54	19.94
329.753	21.21
329.966	27.88
330.179	22.6
330.393	24.4
330.606	15.25
330.819	18.46
331.032	36.47
331.246	39.49
331.459	42.69
331.672	41.03
331.885	32.31
332.098	22.06
332.311	8.39
332.525	-6.39
332.738	-33.65
332.951	-10.66
333.164	2.47
333.377	-4.12
333.59	8.54
333.803	26.18
334.016	10.3
334.229	-8.62
334.442	17.11
334.655	12.21
334.868	11.52
335.081	23.99
335.294	27.25
335.507	13.89
335.72	30.09
335.933	26.48
336.146	23.22
336.359	17.23
336.572	3.27
336.785	-25.31
336.997	-19.56
337.21	-5.74
337.423	-0.16
337.636	2.65
337.849	25.74
338.062	18.9
338.274	27
338.487	28.74
338.7	23.57
338.913	1.59
339.125	-7.96
339.338	-50.46
339.551	-50.31
339.763	-32.63
339.976	-21.96
340.189	-10.97
340.402	-7.58
340.614	-3.61
340.827	13.28
341.039	22.25
341.252	46.3
341.465	56
341.677	50.91
341.89	27.08
342.102	26.42
342.315	5.63
342.527	-32.32
342.74	-28.37
342.952	-25
343.165	-37.68
343.377	-28.37
343.59	-15.43
343.802	-5.48
344.015	14.71
344.227	26.84
344.44	35.04
344.652	46.87
344.864	43.37
345.077	41.65
345.289	39.17
345.502	40.07
345.714	34.03
345.926	31.77
346.139	28.89
346.351	41.11
346.563	34.8
346.775	38.87
346.988	38.07
347.2	29.73
347.412	-10.63
347.624	-19.83
347.837	-52.72
348.049	-28.51
348.261	-20.08
348.473	-5.39
348.685	-7.7
348.897	-16.75
349.11	-38.54
349.322	-69.62
349.534	-52.31
349.746	-37.43
349.958	-9.99
350.17	-14.83
350.382	11.09
350.594	4.87
350.806	9.86
351.018	20.03
351.23	20.19
351.442	14.35
351.654	17.24
351.866	18.22
352.078	6.22
352.29	24.38
352.502	25.13
352.714	34.98
352.926	33.63
353.138	33.69
353.35	32.14
353.561	43.62
353.773	31.02
353.985	29.3
354.197	30.23
354.409	23.8
354.621	7.08
354.832	6.79
355.044	-1.44
355.256	1.81
355.468	4.55
355.679	3.93
355.891	20.57
356.103	19.08
356.314	24.99
356.526	38.08
356.738	41.01
356.949	15.09
357.161	11.39
357.373	1.79
357.584	-4.84
357.796	4.85
358.008	8.65
358.219	22.59
358.431	11.47
358.642	9.87
358.854	2.83
359.065	-9.17
359.277	-29.13
359.488	-23.62
359.7	-25.38
359.911	-29
360.123	-12.44
360.334	-15.35
360.546	-11.53
360.757	-14.66
360.969	2.76
361.18	-5.93
361.391	3.87
361.603	-4.48
361.814	-6.96
362.025	-0.67
362.237	18.93
362.448	25.16
362.659	38.25
362.871	43.93
363.082	35.07
363.293	21.07
363.504	12.34
363.716	-2.46
363.927	-25.35
364.138	-39.03
364.349	-37.32
364.56	-23.97
364.772	-19.03
364.983	12.01
365.194	17.4
365.405	16.4
365.616	22.95
365.827	23.54
366.038	0.95
366.25	-0.47
366.461	5.33
366.672	15.72
366.883	20.98
367.094	22.95
367.305	16.7
367.516	15.87
367.727	-3.96
367.938	-3.1
368.149	6.05
368.36	16.91
368.571	10.15
368.781	5.5
368.992	-7.62
369.203	-30.4
369.414	-48.35
369.625	-32.62
369.836	-22.42
370.047	-39.07
370.258	-13.07
370.468	-14.28
370.679	-26.63
370.89	-25.24
371.101	-8.86
371.312	-9.33
371.522	-5.74
371.733	-7.25
371.944	-9.36
372.155	-6.53
372.365	-13.97
372.576	-9.32
372.787	-0.53
372.997	-12.98
373.208	-6.22
373.419	-5.2
373.629	-22.57
373.84	-22.43
374.05	-9.82
374.261	-17.9
374.472	-16.29
374.682	16.01
374.893	14.66
375.103	36.37
375.314	36.38
375.524	37.6
375.735	28.07
375.945	39.13
376.156	20.26
376.366	12.39
376.577	8.69
376.787	6.05
376.997	-7.41
377.208	-9.58
377.418	-1.12
377.629	2.61
377.839	2.8
378.049	6.07
378.26	17.17
378.47	16.47
378.68	11.37
378.89	6.44
379.101	0.4
379.311	-23.61
379.521	-41.13
379.732	-23.97
379.942	-11.25
380.152	-19.34
380.362	8.37
380.572	14.13
380.783	25.59
380.993	22.47
381.203	38.05
381.413	35.07
381.623	39.13
381.833	19.87
382.043	17.86
382.253	18.26
382.463	18.02
382.674	14.07
382.884	6.58
383.094	11.56
383.304	2.83
383.514	1.56
383.724	-1.28
383.934	0.99
384.144	-9.64
384.353	-14.37
384.563	-19.17
384.773	-7.95
384.983	-12.65
385.193	-2.2
385.403	3.62
385.613	8.51
385.823	-0.7
386.033	1.6
386.242	-4.5
386.452	-13.29
386.662	-15.34
386.872	-5.73
387.082	-11
387.291	-10.17
387.501	-4.99
387.711	-1.6
387.921	-6.2
388.13	-0.69
388.34	10.51
388.55	13.58
388.759	13.33
388.969	16.35
389.179	14.6
389.388	9.82
389.598	12.11
389.807	7.71
390.017	6.86
390.227	7.35
390.436	5.96
390.646	2.81
390.855	3.57
391.065	3.28
391.274	3.4
391.484	3.29
391.693	2.47
391.903	5.99
392.112	7.52
392.322	8.88
392.531	9.71
392.74	12.2
392.95	9.67
393.159	9.93
393.369	8.19
393.578	8.14
393.787	6.86
393.997	6.77
394.206	5.66
394.415	7.15
394.625	7.53
394.834	7.62
395.043	9.02
395.252	10.06
395.462	11.12
395.671	11.35
395.88	11.01
396.089	10.81
396.298	9.61
396.508	8.09
396.717	7.83
396.926	8.15
397.135	7.81
397.344	8.56
397.553	9.74
397.762	10.39
397.971	10.43
398.181	10.42
398.39	10.19
398.599	9.92
398.808	9.6
399.017	9.74
399.226	10.47
399.435	10.69
399.644	10.74
399.853	10.08
400.062	10.28
400.27	9.7
400.479	9.33
400.688	8.88
400.897	9.26
401.106	8.9
401.315	9.16
401.524	9.44
401.733	9.42
401.941	9.52
402.15	9.6
402.359	9.32
402.568	9.45
402.777	9.92
402.985	9.75
403.194	9.69
403.403	9.71
403.612	9.57
403.82	9.36
404.029	9.64
404.238	9.68
404.446	9.87
404.655	9.45
404.864	9.33
405.072	8.78
405.281	8.82
405.489	8.76
405.698	9.04
405.906	8.95
406.115	9.01
406.324	8.93
406.532	8.89
406.741	8.94
406.949	9.22
407.158	9.26
407.366	9.25
407.574	9.25
407.783	9.2
407.991	8.79
408.2	8.96
408.408	8.93
408.617	8.84
408.825	8.69
409.033	8.89
409.242	8.77
409.45	8.9
409.658	8.96
409.867	8.99
410.075	8.92
410.283	8.85
410.491	8.72
410.7	8.59
410.908	8.58
411.116	8.71
411.324	8.67
411.533	8.49
411.741	8.5
411.949	8.39
412.157	8.18
412.365	8.19
412.573	8.18
412.781	8.22
412.99	8.21
413.198	8.35
413.406	8.34
413.614	8.4
413.822	8.37
414.03	8.42
414.238	8.31
414.446	8.33
414.654	8.22
414.862	8.19
415.07	8.28
415.278	8.23
415.486	8.05
415.694	8.14
415.902	8.03
416.109	7.84
416.317	7.86
416.525	7.93
416.733	7.91
416.941	8.09
417.149	8.22
417.357	8.23
417.564	8.21
417.772	8.29
417.98	7.91
418.188	7.84
418.395	7.81
418.603	7.96
418.811	7.65
419.019	7.86
419.226	7.9
419.434	7.95
419.642	7.82
419.849	8.12
420.057	7.99
420.265	7.89
420.472	7.9
420.68	7.89
420.887	7.8
421.095	7.83
421.302	7.89
421.51	7.63
421.717	7.68
421.925	7.64
422.132	7.75
422.34	7.5
422.547	7.6
422.755	7.55
422.962	7.53
423.17	7.45
423.377	7.61
423.585	7.68
423.792	7.54
423.999	7.45
424.207	7.36
424.414	7.38
424.621	7.17
424.829	7.18
425.036	7.47
425.243	7.61
425.451	7.41
425.658	7.46
425.865	7.59
426.072	7.51
426.28	7.7
426.487	7.87
426.694	8.01
426.901	7.89
427.108	7.76
427.315	7.44
427.523	7.52
427.73	7.49
427.937	7.57
428.144	7.52
428.351	7.54
428.558	7.52
428.765	7.52
428.972	7.41
429.179	7.47
429.386	7.6
429.593	7.53
429.8	7.49
430.007	7.57
430.214	7.65
430.421	7.7
430.628	7.66
430.835	7.7
431.042	7.78
431.249	8
431.456	8.03
431.662	8.25
431.869	8.41
432.076	8.53
432.283	8.36
432.49	8.36
432.697	8.33
432.903	8.17
433.11	8.16
433.317	8.2
433.524	8.29
433.73	8.26
433.937	8.42
434.144	8.33
434.35	8.32
434.557	8.19
434.764	8.24
434.97	8.25
435.177	8.46
435.384	8.6
435.59	8.73
435.797	8.89
436.003	8.86
436.21	8.81
436.416	8.8
436.623	8.87
436.829	8.92
437.036	9.12
437.242	9.21
437.449	9.19
437.655	9.24
437.862	9.18
438.068	9.05
438.275	9.2
438.481	9.35
438.687	9.3
438.894	9.35
439.1	9.39
439.307	9.3
439.513	9.27
439.719	9.23
439.926	9.4
440.132	9.5
440.338	9.53
440.544	9.67
440.751	9.78
440.957	9.69
441.163	9.67
441.369	9.75
441.575	9.66
441.782	9.66
441.988	9.75
442.194	9.76
442.4	9.73
442.606	9.88
442.812	9.98
443.018	10.02
443.224	10.1
443.431	10.24
443.637	10.13
443.843	10.13
444.049	10.11
444.255	10.06
444.461	10.06
444.667	10.07
444.873	10.12
445.079	10.15
445.284	10.26
445.49	10.15
445.696	10.23
445.902	10.19
446.108	10.06
446.314	10.01
446.52	10
446.726	10.06
446.931	10.1
447.137	10.21
447.343	10.18
447.549	10.19
447.755	10.17
447.96	10.25
448.166	10.26
448.372	10.33
448.578	10.48
448.783	10.53
448.989	10.59
449.195	10.75
449.4	10.76
449.606	10.73
449.812	10.6
450.017	10.58
450.223	10.5
450.428	10.46
450.634	10.49
450.84	10.56
451.045	10.5
451.251	10.51
451.456	10.77
451.662	10.74
451.867	10.93
452.073	10.97
452.278	11.05
452.483	11.04
452.689	11.07
452.894	11.01
453.1	11.06
453.305	11.08
453.51	11.04
453.716	11.09
453.921	11.15
454.127	11.06
454.332	10.91
454.537	10.89
454.742	10.94
454.948	10.89
455.153	10.91
455.358	11.06
455.563	11.04
455.769	10.97
455.974	10.93
456.179	10.95
456.384	10.78
456.589	10.8
456.795	10.68
457	10.66
457.205	10.75
457.41	10.9
457.615	10.96
457.82	11.04
458.025	11.03
458.23	11.07
458.435	10.98
458.64	10.95
458.845	11.13
459.05	11.18
459.255	11.15
459.46	11.26
459.665	11.27
459.87	11.17
460.075	11.21
460.28	11.2
460.485	11.24
460.69	11.2
460.895	11.17
461.099	11.25
461.304	11.28
461.509	11.19
461.714	11.17
461.919	11.25
462.123	11.09
462.328	11.11
462.533	11.21
462.738	11.39
462.942	11.49
463.147	11.6
463.352	11.69
463.556	11.68
463.761	11.64
463.966	11.59
464.17	11.55
464.375	11.48
464.58	11.55
464.784	11.57
464.989	11.53
465.193	11.64
465.398	11.77
465.602	11.69
465.807	11.81
466.011	11.92
466.216	11.92
466.42	11.95
466.625	12.1
466.829	12.12
467.034	12.2
467.238	12.29
467.443	12.21
467.647	12.22
467.851	12.23
468.056	12.17
468.26	12.19
468.464	12.23
468.669	12.23
468.873	12.32
469.077	12.32
469.282	12.46
469.486	12.56
469.69	12.64
469.894	12.64
470.099	12.71
470.303	12.74
470.507	12.77
470.711	12.72
470.915	12.63
471.119	12.59
471.324	12.51
471.528	12.59
471.732	12.73
471.936	12.9
472.14	13.03
472.344	13.13
472.548	13.05
472.752	13.18
472.956	13.31
473.16	13.36
473.364	13.31
473.568	13.42
473.772	13.33
473.976	13.28
474.18	13.3
474.384	13.43
474.588	13.48
474.792	13.49
474.995	13.55
475.199	13.64
475.403	13.6
475.607	13.61
475.811	13.64
476.015	13.6
476.218	13.68
476.422	13.72
476.626	13.79
476.83	13.92
477.033	14.04
477.237	14
477.441	14.15
477.644	14.22
477.848	14.18
478.052	14.21
478.255	14.24
478.459	14.23
478.663	14.2
478.866	14.27
479.07	14.34
479.273	14.37
479.477	14.39
479.681	14.51
479.884	14.59
480.088	14.56
480.291	14.68
480.495	14.74
480.698	14.74
480.901	14.75
481.105	14.88
481.308	14.82
481.512	14.94
481.715	14.99
481.919	15.06
482.122	15.08
482.325	15.17
482.529	15.08
482.732	15.14
482.935	15.1
483.138	15.01
483.342	15
483.545	15.11
483.748	15.17
483.952	15.29
484.155	15.45
484.358	15.5
484.561	15.47
484.764	15.33
484.967	15.37
485.171	15.37
485.374	15.35
485.577	15.47
485.78	15.68
485.983	15.6
486.186	15.56
486.389	15.65
486.592	15.61
486.795	15.55
486.998	15.56
487.201	15.67
487.404	15.66
487.607	15.7
487.81	15.74
488.013	15.81
488.216	15.79
488.419	15.79
488.622	15.75
488.825	15.81
489.028	15.74
489.231	15.74
489.433	15.77
489.636	15.8
489.839	15.71
490.042	15.8
490.245	15.8
490.447	15.81
490.65	15.82
490.853	15.84
491.056	15.86
491.258	15.97
491.461	16
491.664	16.02
491.866	16.12
492.069	16.14
492.272	16.01
492.474	16.06
492.677	16.08
492.879	16.04
493.082	16.14
493.285	16.26
493.487	16.26
493.69	16.19
493.892	16.18
494.095	16.12
494.297	16.15
494.5	16.19
494.702	16.23
494.905	16.29
495.107	16.29
495.309	16.33
495.512	16.36
495.714	16.48
495.917	16.54
496.119	16.63
496.321	16.67
496.524	16.7
496.726	16.73
496.928	16.74
497.13	16.74
497.333	16.74
497.535	16.75
497.737	16.76
497.939	16.78
498.142	16.86
498.344	16.95
498.546	16.98
498.748	17.05
498.95	17.16
499.152	17.12
499.355	17.15
499.557	17.22
499.759	17.32
499.961	17.4
500.163	17.42
500.365	17.43
500.567	17.55
500.769	17.54
500.971	17.49
501.173	17.56
501.375	17.59
501.577	17.53
501.779	17.52
501.981	17.54
502.183	17.65
502.385	17.66
502.587	17.61
502.788	17.74
502.99	17.84
503.192	17.88
503.394	17.94
503.596	18.12
503.798	18.17
503.999	18.23
504.201	18.23
504.403	18.26
504.605	18.26
504.806	18.23
505.008	18.27
505.21	18.32
505.411	18.42
505.613	18.44
505.815	18.48
506.016	18.58
506.218	18.72
506.42	18.76
506.621	18.86
506.823	18.91
507.024	18.8
507.226	18.76
507.427	18.78
507.629	18.88
507.83	19.03
508.032	19.15
508.233	19.25
508.435	19.38
508.636	19.35
508.838	19.31
509.039	19.42
509.24	19.4
509.442	19.35
509.643	19.4
509.845	19.44
510.046	19.46
510.247	19.53
510.448	19.56
510.65	19.62
510.851	19.7
511.052	19.72
511.254	19.78
511.455	19.84
511.656	19.87
511.857	19.9
512.058	19.92
512.26	19.93
512.461	20.05
512.662	20.16
512.863	20.12
513.064	20.16
513.265	20.22
513.466	20.27
513.667	20.28
513.868	20.35
514.069	20.43
514.27	20.49
514.471	20.37
514.672	20.36
514.873	20.36
515.074	20.36
515.275	20.38
515.476	20.5
515.677	20.63
515.878	20.8
516.079	20.85
516.28	20.89
516.481	20.94
516.682	20.95
516.882	20.87
517.083	20.92
517.284	20.93
517.485	21
517.686	21.02
517.886	21.06
518.087	21.03
518.288	21.07
518.488	21.07
518.689	21.05
518.89	21.09
519.091	21.23
519.291	21.23
519.492	21.32
519.692	21.35
519.893	21.33
520.094	21.33
520.294	21.38
520.495	21.42
520.695	21.52
520.896	21.61
521.096	21.62
521.297	21.72
521.497	21.64
521.698	21.72
521.898	21.73
522.099	21.81
522.299	21.87
522.499	21.98
522.7	21.95
522.9	22.01
523.101	22.04
523.301	22.06
523.501	22.1
523.702	22.12
523.902	22.11
524.102	22.13
524.302	22.11
524.503	22.1
524.703	22.13
524.903	22.19
525.103	22.16
525.304	22.23
525.504	22.34
525.704	22.35
525.904	22.38
526.104	22.5
526.304	22.53
526.504	22.51
526.705	22.54
526.905	22.64
527.105	22.64
527.305	22.65
527.505	22.66
527.705	22.74
527.905	22.72
528.105	22.71
528.305	22.69
528.505	22.75
528.705	22.77
528.905	22.76
529.105	22.77
529.304	22.92
529.504	22.96
529.704	22.99
529.904	23.1
530.104	23.18
530.304	23.11
530.503	23.18
530.703	23.14
530.903	23.1
531.103	23.11
531.303	23.18
531.502	23.2
531.702	23.29
531.902	23.33
532.101	23.37
532.301	23.45
532.501	23.45
532.7	23.54
532.9	23.59
533.1	23.56
533.299	23.59
533.499	23.6
533.698	23.56
533.898	23.6
534.097	23.66
534.297	23.66
534.496	23.67
534.696	23.68
534.895	23.71
535.095	23.82
535.294	23.82
535.494	23.9
535.693	23.93
535.892	24.02
536.092	23.97
536.291	23.96
536.491	24
536.69	24.08
536.889	24.03
537.088	24.06
537.288	24.19
537.487	24.33
537.686	24.36
537.886	24.47
538.085	24.55
538.284	24.55
538.483	24.44
538.682	24.58
538.882	24.62
539.081	24.71
539.28	24.76
539.479	24.87
539.678	24.83
539.877	24.81
540.076	24.78
540.275	24.84
540.474	24.87
540.673	24.89
540.872	24.99
541.071	25.11
541.27	25.11
541.469	25.15
541.668	25.22
541.867	25.25
542.066	25.25
542.265	25.37
542.464	25.37
542.663	25.49
542.862	25.64
543.06	25.8
543.259	25.93
543.458	26.08
543.657	26.13
543.856	26.22
544.054	26.14
544.253	26.15
544.452	26.22
544.651	26.25
544.849	26.21
545.048	26.34
545.247	26.4
545.445	26.44
545.644	26.55
545.843	26.62
546.041	26.79
546.24	26.85
546.438	26.97
546.637	26.98
546.836	27.16
547.034	27.11
547.233	27.15
547.431	27.16
547.63	27.23
547.828	27.21
548.027	27.33
548.225	27.41
548.423	27.38
548.622	27.51
548.82	27.55
549.019	27.6
549.217	27.65
549.415	27.89
549.614	27.96
549.812	28.08
550.01	28.16
550.209	28.33
550.407	28.34
550.605	28.47
550.803	28.56
551.002	28.75
551.2	28.85
551.398	28.97
551.596	29.1
551.794	29.15
551.993	29.22
552.191	29.35
552.389	29.54
552.587	29.48
552.785	29.64
552.983	29.67
553.181	29.67
553.379	29.64
553.577	29.8
553.775	29.94
553.973	30.13
554.171	30.23
554.369	30.4
554.567	30.55
554.765	30.56
554.963	30.7
555.161	30.73
555.359	30.82
555.557	30.91
555.755	31.02
555.952	30.99
556.15	31.17
556.348	31.2
556.546	31.29
556.744	31.38
556.941	31.52
557.139	31.74
557.337	31.87
557.535	31.87
557.732	32.08
557.93	32.19
558.128	32.1
558.325	32.26
558.523	32.44
558.721	32.51
558.918	32.62
559.116	32.78
559.313	32.8
559.511	32.97
559.708	33.02
559.906	33.09
560.104	33.23
560.301	33.44
560.498	33.54
560.696	33.62
560.893	33.77
561.091	33.85
561.288	33.94
561.486	33.94
561.683	34.19
561.88	34.36
562.078	34.58
562.275	34.61
562.473	34.8
562.67	34.81
562.867	34.81
563.064	34.84
563.262	34.99
563.459	35.08
563.656	35.18
563.853	35.29
564.051	35.42
564.248	35.6
564.445	35.77
564.642	35.96
564.839	36.12
565.036	36.34
565.234	36.45
565.431	36.56
565.628	36.69
565.825	36.87
566.022	36.94
566.219	37.01
566.416	37.16
566.613	37.23
566.81	37.32
567.007	37.34
567.204	37.5
567.401	37.53
567.598	37.5
567.795	37.53
567.991	37.61
568.188	37.65
568.385	37.74
568.582	37.93
568.779	38.12
568.976	38.25
569.172	38.39
569.369	38.41
569.566	38.41
569.763	38.44
569.96	38.46
570.156	38.48
570.353	38.5
570.55	38.7
570.746	38.76
570.943	38.92
571.14	38.96
571.336	39.1
571.533	39.15
571.729	39.21
571.926	39.18
572.123	39.26
572.319	39.31
572.516	39.31
572.712	39.3
572.909	39.24
573.105	39.26
573.302	39.38
573.498	39.46
573.695	39.54
573.891	39.7
574.087	39.75
574.284	39.73
574.48	39.67
574.677	39.63
574.873	39.66
575.069	39.76
575.266	39.84
575.462	39.84
575.658	39.84
575.854	39.93
576.051	39.83
576.247	39.74
576.443	39.79
576.639	39.92
576.835	39.86
577.032	39.89
577.228	39.98
577.424	39.96
577.62	39.82
577.816	39.89
578.012	39.92
578.208	39.88
578.404	39.92
578.6	39.98
578.796	39.98
578.993	40.01
579.189	40.01
579.384	39.94
579.58	39.85
579.776	39.77
579.972	39.75
580.168	39.69
580.364	39.83
580.56	39.82
580.756	39.83
580.952	39.84
581.148	39.89
581.343	39.88
581.539	40.01
581.735	39.97
581.931	39.96
582.127	40
582.322	39.84
582.518	39.67
582.714	39.78
582.909	39.82
583.105	39.83
583.301	39.94
583.496	40.05
583.692	39.98
583.888	39.91
584.083	39.88
584.279	39.89
584.474	39.86
584.67	39.87
584.866	39.94
585.061	39.83
585.257	39.8
585.452	39.78
585.648	39.76
585.843	39.81
586.039	39.83
586.234	39.86
586.429	39.89
586.625	39.91
586.82	39.73
587.015	39.8
587.211	39.67
587.406	39.82
587.601	39.88
587.797	40.02
587.992	40.07
588.187	40.17
588.383	39.96
588.578	39.95
588.773	39.92
588.968	39.84
589.163	39.89
589.359	40
589.554	39.97
589.749	39.95
589.944	40.09
590.139	40.15
590.334	40.14
590.529	40.22
590.724	40.37
590.919	40.49
591.114	40.58
591.309	40.75
591.504	40.84
591.699	40.92
591.894	40.88
592.089	40.85
592.284	40.8
592.479	40.87
592.674	40.8
592.869	40.85
593.064	40.91
593.259	41.06
593.454	41.16
593.648	41.27
593.843	41.3
594.038	41.39
594.233	41.39
594.428	41.39
594.622	41.46
594.817	41.55
595.012	41.68
595.206	41.82
595.401	41.88
595.596	41.95
595.79	42.12
595.985	42.13
596.18	42.27
596.374	42.43
596.569	42.57
596.763	42.57
596.958	42.74
597.153	42.68
597.347	42.63
597.542	42.73
597.736	42.75
597.931	42.72
598.125	42.82
598.319	43.05
598.514	42.97
598.708	43.17
598.903	43.3
599.097	43.5
599.291	43.44
599.486	43.55
599.68	43.49
599.874	43.56
600.069	43.5
600.263	43.54
600.457	43.66
600.651	43.78
600.846	43.87
601.04	43.91
601.234	43.91
601.428	43.9
601.622	43.96
601.817	44
602.011	44.13
602.205	44.3
602.399	44.42
602.593	44.43
602.787	44.4
602.981	44.4
603.175	44.46
603.369	44.41
603.563	44.38
603.757	44.33
603.951	44.29
604.145	44.18
604.339	44.18
604.533	44.16
604.727	44.27
604.921	44.18
605.115	44.19
605.309	44.25
605.502	44.3
605.696	44.26
605.89	44.31
606.084	44.28
606.278	44.2
606.471	44.14
606.665	44.11
606.859	44.02
607.053	44.02
607.246	43.91
607.44	43.86
607.634	43.76
607.827	43.75
608.021	43.65
608.214	43.75
608.408	43.78
608.602	43.72
608.795	43.82
608.989	43.75
609.182	43.65
609.376	43.55
609.569	43.51
609.763	43.35
609.956	43.26
610.15	43.13
610.343	43.04
610.537	43.01
610.73	42.92
610.923	42.97
611.117	43.03
611.31	43.01
611.504	42.99
611.697	42.88
611.89	42.81
612.083	42.74
612.277	42.7
612.47	42.62
612.663	42.6
612.856	42.57
613.05	42.4
613.243	42.28
613.436	42.09
613.629	42.01
613.822	41.77
614.015	41.84
614.209	41.79
614.402	41.85
614.595	41.71
614.788	41.8
614.981	41.6
615.174	41.43
615.367	41.35
615.56	41.48
615.753	41.32
615.946	41.33
616.139	41.34
616.332	41.38
616.525	41.21
616.718	41.22
616.911	41.12
617.103	41.15
617.296	41.06
617.489	41.06
617.682	41.06
617.875	41.14
618.067	41.01
618.26	40.91
618.453	40.95
618.646	40.85
618.838	40.77
619.031	40.86
619.224	40.88
619.417	40.82
619.609	40.88
619.802	40.88
619.994	40.68
620.187	40.59
620.38	40.55
620.572	40.44
620.765	40.44
620.957	40.39
621.15	40.34
621.342	40.27
621.535	40.24
621.727	39.98
621.92	39.98
622.112	39.85
622.305	39.92
622.497	39.88
622.69	40.05
622.882	40.1
623.074	40.25
623.267	40.21
623.459	40.02
623.651	39.88
623.844	39.91
624.036	39.96
624.228	39.76
624.42	39.86
624.613	39.86
624.805	39.79
624.997	39.64
625.189	39.77
625.381	39.76
625.574	39.73
625.766	39.7
625.958	39.7
626.15	39.63
626.342	39.62
626.534	39.59
626.726	39.6
626.918	39.63
627.11	39.55
627.302	39.54
627.494	39.55
627.686	39.59
627.878	39.45
628.07	39.52
628.262	39.39
628.454	39.36
628.646	39.22
628.838	39.23
629.029	39.11
629.221	39.13
629.413	39.09
629.605	39.03
629.797	38.93
629.989	38.85
630.18	38.8
630.372	38.75
630.564	38.65
630.755	38.74
630.947	38.82
631.139	38.76
631.33	38.69
631.522	38.74
631.714	38.66
631.905	38.55
632.097	38.52
632.289	38.56
632.48	38.55
632.672	38.52
632.863	38.47
633.055	38.42
633.246	38.33
633.438	38.32
633.629	38.34
633.821	38.4
634.012	38.35
634.203	38.3
634.395	38.22
634.586	38.13
634.777	38.02
634.969	38.14
635.16	38.33
635.351	38.28
635.543	38.31
635.734	38.38
635.925	38.31
636.117	38.14
636.308	38.22
636.499	38.15
636.69	38.09
636.881	38.07
637.073	38.06
637.264	38
637.455	38.03
637.646	38.08
637.837	38.09
638.028	38.07
638.219	38.02
638.41	37.92
638.601	37.84
638.792	37.87
638.983	37.76
639.174	37.74
639.365	37.71
639.556	37.66
639.747	37.51
639.938	37.58
640.129	37.51
640.32	37.5
640.511	37.57
640.701	37.61
640.892	37.52
641.083	37.52
641.274	37.54
641.465	37.35
641.655	37.32
641.846	37.36
642.037	37.24
642.228	37.23
642.418	37.26
642.609	37.09
642.8	37.04
642.99	37.11
643.181	36.99
643.372	36.95
643.562	37.01
643.753	36.92
643.943	36.84
644.134	36.79
644.324	36.69
644.515	36.7
644.705	36.72
644.896	36.66
645.086	36.55
645.277	36.58
645.467	36.61
645.658	36.61
645.848	36.67
646.038	36.67
646.229	36.65
646.419	36.44
646.61	36.33
646.8	36.21
646.99	36.25
647.18	36.21
647.371	36.21
647.561	36.18
647.751	36.16
647.941	36.1
648.132	36.11
648.322	36.02
648.512	36.05
648.702	36.16
648.892	36.17
649.082	36.1
649.272	36.08
649.462	35.93
649.653	35.83
649.843	35.74
650.033	35.71
650.223	35.76
650.413	35.68
650.603	35.53
650.793	35.52
650.983	35.42
651.172	35.29
651.362	35.17
651.552	35.07
651.742	34.99
651.932	34.9
652.122	34.86
652.312	34.97
652.502	35.1
652.691	34.95
652.881	34.87
653.071	34.82
653.261	34.68
653.45	34.26
653.64	34.26
653.83	34.14
654.019	33.84
654.209	33.69
654.399	33.65
654.588	33.4
654.778	33.32
654.968	33.33
655.157	33.14
655.347	33.11
655.536	33.04
655.726	32.83
655.915	32.58
656.105	32.48
656.294	32.21
656.484	31.92
656.673	31.73
656.863	31.72
657.052	31.46
657.241	31.28
657.431	31.12
657.62	30.9
657.809	30.45
657.999	30.3
658.188	30.08
658.377	29.91
658.567	29.68
658.756	29.59
658.945	29.44
659.134	29.18
659.324	28.89
659.513	28.74
659.702	28.49
659.891	28.25
660.08	28.09
660.269	28.05
660.458	27.74
660.648	27.58
660.837	27.37
661.026	27.17
661.215	26.91
661.404	26.69
661.593	26.43
661.782	26.12
661.971	25.88
662.16	25.5
662.349	25.43
662.538	25.27
662.726	25.12
662.915	24.99
663.104	24.85
663.293	24.59
663.482	24.46
663.671	24.34
663.86	24.1
664.048	23.97
664.237	23.85
664.426	23.58
664.615	23.37
664.803	23.25
664.992	22.95
665.181	22.75
665.369	22.5
665.558	22.36
665.747	22.16
665.935	22.12
666.124	21.98
666.312	21.88
666.501	21.69
666.69	21.5
666.878	21.48
667.067	21.26
667.255	21.21
667.444	21.21
667.632	21.2
667.82	21.04
668.009	20.99
668.197	20.79
668.386	20.66
668.574	20.52
668.762	20.39
668.951	20.27
669.139	20.32
669.327	20.12
669.516	20.07
669.704	19.93
669.892	19.96
670.08	19.81
670.269	19.83
670.457	19.86
670.645	19.77
670.833	19.72
671.021	19.59
671.21	19.52
671.398	19.52
671.586	19.52
671.774	19.28
671.962	19.34
672.15	19.22
672.338	19.01
672.526	19.01
672.714	19.13
672.902	19.09
673.09	19.23
673.278	19.38
673.466	19.45
673.654	19.57
673.842	19.67
674.03	19.7
674.218	19.55
674.405	19.6
674.593	19.45
674.781	19.31
674.969	19.26
675.157	19.4
675.344	19.45
675.532	19.63
675.72	19.85
675.908	19.93
676.095	19.95
676.283	20.02
676.471	20.13
676.658	20.14
676.846	20.25
677.033	20.33
677.221	20.41
677.409	20.33
677.596	20.38
677.784	20.36
677.971	20.47
678.159	20.48
678.346	20.58
678.534	20.86
678.721	21.13
678.909	21.25
679.096	21.35
679.283	21.62
679.471	21.72
679.658	21.82
679.846	21.93
680.033	22.26
680.22	22.34
680.408	22.42
680.595	22.46
680.782	22.59
680.969	22.71
681.157	22.96
681.344	23.17
681.531	23.28
681.718	23.59
681.905	23.81
682.093	24.04
682.28	24.21
682.467	24.56
682.654	24.89
682.841	25.12
683.028	25.37
683.215	25.8
683.402	26.13
683.589	26.38
683.776	26.77
683.963	27.05
684.15	27.27
684.337	27.61
684.524	27.94
684.711	28.27
684.898	28.46
685.085	28.81
685.271	29.35
685.458	29.61
685.645	29.99
685.832	30.53
686.019	31.13
686.205	31.28
686.392	31.81
686.579	32.17
686.766	32.59
686.952	32.81
687.139	33.43
687.326	33.89
687.512	34.31
687.699	35.06
687.886	35.64
688.072	36
688.259	36.46
688.445	37.11
688.632	37.39
688.818	38.03
689.005	38.67
689.191	39.24
689.378	39.83
689.564	40.49
689.751	41.03
689.937	41.57
690.124	42.17
690.31	42.57
690.496	43.19
690.683	43.47
690.869	43.93
691.055	44.45
691.242	44.96
691.428	45.44
691.614	46.43
691.8	47.15
691.987	47.86
692.173	48.44
692.359	49.01
692.545	49.29
692.731	50
692.918	50.71
693.104	51.39
693.29	51.93
693.476	52.5
693.662	52.9
693.848	53.34
694.034	53.71
694.22	54.16
694.406	54.86
694.592	55.5
694.778	56.02
694.964	56.91
695.15	57.74
695.336	58.23
695.522	58.86
695.708	59.26
695.894	59.67
696.08	60.18
696.265	60.88
696.451	61.37
696.637	61.85
696.823	62.23
697.009	62.63
697.194	62.74
697.38	63.07
697.566	63.57
697.751	64.38
697.937	64.98
698.123	65.69
698.308	66.01
698.494	66.56
698.68	66.64
698.865	67.09
699.051	67.43
699.236	67.95
699.422	68.19
699.607	68.65
699.793	68.92
699.978	69.3
700.164	69.84
700.349	70.3
700.535	70.91
700.72	71.05
700.906	71.44
701.091	71.44
701.276	71.97
701.462	72.19
701.647	72.74
701.832	73.17
702.018	73.65
702.203	73.86
702.388	74.25
702.573	74.72
702.759	74.96
702.944	75.29
703.129	75.41
703.314	75.59
703.499	75.56
703.684	75.37
703.87	75.95
704.055	76.46
704.24	76.48
704.425	76.97
704.61	77.67
704.795	77.68
704.98	77.83
705.165	78.18
705.35	78.43
705.535	78.84
705.72	79
705.905	79.11
706.09	79.44
706.275	79.57
706.459	79.6
706.644	79.62
706.829	80.02
707.014	80.04
707.199	80.21
707.384	80.14
707.568	80.47
707.753	80.8
707.938	81.09
708.123	81.12
708.307	81.37
708.492	81.51
708.677	81.44
708.861	81.6
709.046	81.54
709.231	82.03
709.415	82.38
709.6	82.3
709.784	82.31
709.969	82.61
710.153	82.47
710.338	82.53
710.522	83.05
710.707	83.41
710.891	83.44
711.076	83.67
711.26	83.73
711.445	83.49
711.629	83.66
711.813	84.21
711.998	84.29
712.182	84.34
712.366	85.24
712.551	85.34
712.735	85.08
712.919	84.72
713.103	84.96
713.288	84.28
713.472	83.92
713.656	84.42
713.84	84.76
714.024	85.06
714.208	84.98
714.393	85.89
714.577	85.55
714.761	85.52
714.945	85.67
715.129	86.08
715.313	85.95
715.497	86.59
715.681	87.47
715.865	87.07
716.049	87.63
716.233	87.3
716.417	87.17
716.601	86.73
716.785	87.05
716.968	86.49
717.152	86.66
717.336	87.04
717.52	87.23
717.704	87.38
717.888	87.64
718.071	87.5
718.255	86.6
718.439	86.57
718.622	86.33
718.806	86.68
718.99	86.89
719.174	87.12
719.357	87.02
719.541	87.4
719.724	87.22
719.908	87.85
720.092	88.31
720.275	88.62
720.459	88.05
720.642	87.99
720.826	87.45
721.009	87.37
721.193	87.04
721.376	87.57
721.559	87.51
721.743	88.05
721.926	88.21
722.11	88.52
722.293	88.05
722.476	87.89
722.66	87.84
722.843	87.83
723.026	87.55
723.21	87.83
723.393	88.4
723.576	88.19
723.759	87.75
723.942	87.87
724.126	87.68
724.309	87.78
724.492	87.91
724.675	88.13
724.858	88.69
725.041	89.27
725.224	89.11
725.407	89.05
725.59	89.3
725.774	89.26
725.957	88.64
726.14	88.14
726.322	87.73
726.505	87.9
726.688	87.96
726.871	88.25
727.054	88.57
727.237	88.29
727.42	88.42
727.603	88.1
727.786	88.41
727.968	88.53
728.151	89.72
728.334	89.56
728.517	89
728.699	88.95
728.882	88.94
729.065	88.92
729.248	88.94
729.43	90.29
729.613	90.9
729.796	91.57
729.978	90.89
730.161	91.14
730.343	90.01
730.526	90.37
730.708	89.87
730.891	90.08
731.073	89.84
731.256	90.2
731.438	90.09
731.621	90.23
731.803	90.56
731.986	90.39
732.168	90.29
732.35	89.61
732.533	89.73
732.715	89.36
732.898	89.7
733.08	89.3
733.262	89.05
733.444	88.94
733.627	89.57
733.809	89.8
733.991	90.57
734.173	90.91
734.355	90.76
734.538	90.7
734.72	90.2
734.902	89.76
735.084	90.07
735.266	89.49
735.448	89.4
735.63	90.05
735.812	90.96
735.994	90.84
736.176	92.01
736.358	92.24
736.54	92.43
736.722	91.84
736.904	91.22
737.086	91.08
737.268	91.72
737.45	91.7
737.632	91.43
737.814	92.01
737.995	92.2
738.177	91.26
738.359	91.02
738.541	91.84
738.723	91.26
738.904	91.29
739.086	91.18
739.268	90.47
739.449	90.46
739.631	90.83
739.813	91.24
739.994	92.42
740.176	93.15
740.358	92.55
740.539	93.26
740.721	92.97
740.902	92.66
741.084	92.04
741.265	92.19
741.447	92.41
741.628	91.56
741.81	90.58
741.991	91.57
742.172	91.7
742.354	91.02
742.535	92.11
742.717	92.49
742.898	93.09
743.079	93.84
743.261	94.29
743.442	93.33
743.623	94.34
743.804	94
743.986	93.43
744.167	92.31
744.348	92.29
744.529	92.32
744.71	90.93
744.891	91.22
745.073	91.54
745.254	90.83
745.435	90.31
745.616	90.35
745.797	90.03
745.978	90.48
746.159	91.76
746.34	90.88
746.521	92.5
746.702	91.48
746.883	91.29
747.064	91.48
747.245	92.25
747.426	91.46
747.606	93.1
747.787	93.4
747.968	92.56
748.149	91.56
748.33	91.69
748.51	91.08
748.691	90.55
748.872	90.56
749.053	90.81
749.233	90.14
749.414	90.03
749.595	89.44
749.775	89.21
749.956	89.57
750.137	89.86
750.317	89.54
750.498	91.28
750.678	92.64
750.859	92.75
751.04	91.58
751.22	91.19
751.4	90.25
751.581	88.51
751.761	88.92
751.942	90.23
752.122	90.16
752.303	89.92
752.483	89.91
752.663	87.97
752.844	86.95
753.024	87.96
753.204	88.15
753.385	88.86
753.565	90.42
753.745	90.69
753.925	89.75
754.106	89.55
754.286	88.95
754.466	89.01
754.646	88.24
754.826	88.95
755.006	89.06
755.187	89.33
755.367	89.23
755.547	89.76
755.727	90.46
755.907	90.73
756.087	90.5
756.267	90.85
756.447	92.04
756.627	90.78
756.807	90.24
756.987	90.36
757.167	89.76
757.346	89.17
757.526	89.12
757.706	90.4
757.886	92.49
758.066	92.2
758.246	93
758.425	93.32
758.605	91.36
758.785	90.68
758.965	91.68
759.144	89.72
759.324	90.11
759.504	91.25
759.683	91.24
759.863	89.76
760.043	90.63
760.222	90.43
760.402	90.08
760.581	89.19
760.761	90.14
760.94	91.01
761.12	91.37
761.299	91.8
761.479	91.64
761.658	90.15
761.838	89.06
762.017	87.99
762.197	88.2
762.376	88.53
762.555	90.42
762.735	92.22
762.914	92.29
763.093	90.81
763.273	89.25
763.452	87.71
763.631	86.64
763.81	87.01
763.99	86.52
764.169	88.44
764.348	88.99
764.527	88.55
764.706	88.25
764.885	90.18
765.064	87.76
765.243	87.24
765.423	88.27
765.602	88.24
765.781	86.61
765.96	86.54
766.139	86.42
766.318	85.95
766.497	85.71
766.676	86.16
766.854	87.34
767.033	89.16
767.212	87.47
767.391	88.36
767.57	89.37
767.749	89.32
767.928	89.09
768.106	90.29
768.285	88.71
768.464	87.98
768.643	87.79
768.821	86.3
769	85.7
769.179	85.85
769.357	85.32
769.536	87.51
769.715	87.48
769.893	88.68
770.072	89.24
770.25	90.22
770.429	88.36
770.607	87.62
770.786	87.7
770.964	89.95
771.143	90.44
771.321	90.49
771.5	92.88
771.678	92.6
771.857	90.49
772.035	89.62
772.213	89.42
772.392	87.41
772.57	85.8
772.748	86.67
772.927	85.99
773.105	86.58
773.283	85.9
773.461	87.22
773.64	87.24
773.818	88.43
773.996	87.91
774.174	87.06
774.352	86.5
774.531	84.69
774.709	85.28
774.887	83.6
775.065	85.42
775.243	86.4
775.421	87.56
775.599	86.58
775.777	87.82
775.955	87.02
776.133	84.21
776.311	84.15
776.489	83.43
776.667	85.58
776.844	84.94
777.022	85.03
777.2	83.83
777.378	84.73
777.556	84.42
777.734	86.29
777.911	88.79
778.089	91.14
778.267	90.83
778.445	88.19
778.622	88.71
778.8	86.71
778.978	84.14
779.155	82.91
779.333	85.32
779.511	84.32
779.688	84.72
779.866	84.51
780.043	82.49
780.221	81.05
780.398	79.65
780.576	80.13
780.753	82.85
780.931	85.02
781.108	83.76
781.286	85.32
781.463	84.34
781.64	80.75
781.818	77.89
781.995	79.53
782.172	81.58
782.35	84.17
782.527	86.26
782.704	90.81
782.882	91.3
783.059	90.14
783.236	88.59
783.413	90.72
783.59	91.43
783.768	89.87
783.945	91.84
784.122	93.6
784.299	93.78
784.476	89.67
784.653	88.68
784.83	86.55
785.007	83.4
785.184	81.55
785.361	81.92
785.538	82.87
785.715	82.75
785.892	81.52
786.069	83.73
786.246	85.53
786.423	88.18
786.6	89.08
786.776	88.83
786.953	85.94
787.13	87.12
787.307	85.16
787.484	81.95
787.66	82.81
787.837	82.76
788.014	78.65
788.191	77.01
788.367	77.37
788.544	79.77
788.721	79.17
788.897	85.01
789.074	84.03
789.25	81.9
789.427	82.83
789.603	83.08
789.78	78.08
789.956	80.67
790.133	82.07
790.309	82.5
790.486	82.78
790.662	81.85
790.839	79.82
791.015	78.35
791.192	76.26
791.368	75.01
791.544	76.51
791.721	78.42
791.897	81.24
792.073	78.86
792.249	75.14
792.426	76.23
792.602	76.52
792.778	78.64
792.954	80.42
793.13	82.95
793.307	78.92
793.483	76.11
793.659	74.73
793.835	78.84
794.011	78.1
794.187	84.67
794.363	85.19
794.539	85.91
794.715	79.33
794.891	79.22
795.067	76.44
795.243	79.95
795.419	77.73
795.595	76.07
795.771	77.95
795.947	75.27
796.122	73.84
796.298	76.69
796.474	78.54
796.65	73.89
796.826	77.92
797.001	76.84
797.177	72.61
797.353	76.01
797.529	80.32
797.704	81
797.88	80.61
798.056	81.12
798.231	80.5
798.407	84.35
798.582	85.87
798.758	91.04
798.934	92.44
799.109	91.88
799.285	88.93
799.46	82.27
799.636	76.7
799.811	79.29
799.986	73.41
800.162	69.22
800.337	73.2
800.513	73.06
800.688	68.68
800.863	76.91
801.039	78.12
801.214	72.77
801.389	74.17
801.565	75.27
801.74	69.18
801.915	72.4
802.09	78.97
802.265	78.07
802.441	75.62
802.616	83.13
802.791	88.13
802.966	83.97
803.141	79.79
803.316	78.4
803.491	73.04
803.666	72.99
803.841	69.97
804.016	72.15
804.191	76.02
804.366	77.19
804.541	76.53
804.716	74.09
804.891	69.28
805.066	74.2
805.241	67.64
805.416	65.07
805.591	67.6
805.765	77.58
805.94	74.74
806.115	79.88
806.29	74.33
806.464	68.64
806.639	63.37
806.814	59.78
806.989	60.43
807.163	65.18
807.338	74.91
807.512	77.32
807.687	68.24
807.862	70.79
808.036	73
808.211	71.12
808.385	68.26
808.56	70.57
808.734	66.28
808.909	62.67
809.083	65.57
809.258	73.16
809.432	84.75
809.606	88.24
809.781	89.04
809.955	84.59
810.13	81.09
810.304	70.94
810.478	62.31
810.652	61.47
810.827	65.43
811.001	59.77
811.175	68.87
811.349	69.41
811.524	70.74
811.698	63.32
811.872	69.05
812.046	70.5
812.22	67.52
812.394	67.43
812.568	72.27
812.742	69.12
812.916	65.35
813.09	68.88
813.264	71.88
813.438	71.27
813.612	65.71
813.786	67.66
813.96	73.82
814.134	71.14
814.308	78.58
814.482	87.12
814.656	78.73
814.83	81.55
815.003	85.07
815.177	68.64
815.351	66.99
815.525	66.72
815.698	58.2
815.872	59.49
816.046	69.14
816.219	65.85
816.393	75.46
816.567	78.86
816.74	70.49
816.914	66.3
817.088	72.79
817.261	70.41
817.435	72.21
817.608	72.76
817.782	78
817.955	73.27
818.129	65.14
818.302	60.66
818.475	66.35
818.649	68.04
818.822	68.74
818.996	80.61
819.169	84.52
819.342	77.78
819.516	81.23
819.689	80.74
819.862	72.58
820.035	78.24
820.209	72.84
820.382	71.02
820.555	66.38
820.728	59.9
820.901	56.7
821.075	59.5
821.248	57.39
821.421	57
821.594	61.71
821.767	58.97
821.94	62.79
822.113	53.23
822.286	60.69
822.459	53.61
822.632	56.74
822.805	50.46
822.978	54.03
823.151	48.3
823.324	57.99
823.496	44.39
823.669	51.82
823.842	53.28
824.015	43
824.188	48.98
824.361	56.37
824.533	57.79
824.706	49.75
824.879	65.89
825.051	60.09
825.224	58.04
825.397	46.49
825.569	58.81
825.742	49.61
825.915	57.94
826.087	60.17
826.26	60.38
826.432	60.69
826.605	54.61
826.777	52.15
826.95	61.81
827.122	62.54
827.295	64.3
827.467	75.36
827.64	74.34
827.812	62.4
827.984	55.58
828.157	58
828.329	26.81
828.501	42.11
828.674	52.31
828.846	52.34
829.018	50.94
829.19	56.07
829.363	48.72
829.535	40.85
829.707	41.18
829.879	35.08
830.051	33.81
830.223	44.34
830.395	40.87
830.568	36.41
830.74	37.26
830.912	61.05
831.084	52.52
831.256	50.04
831.428	69.12
831.6	73.22
831.772	46.53
831.943	45.97
832.115	53.57
832.287	51.35
832.459	63.23
832.631	72.21
832.803	68.88
832.975	91.29
833.146	80.48
833.318	65.03
833.49	59.93
833.662	59.3
833.833	33.37
834.005	34.62
834.177	36.5
834.348	38.61
834.52	48.83
834.692	64.62
834.863	89.25
835.035	64.16
835.206	48.27
835.378	44.23
835.549	21.63
835.721	15.02
835.892	17.37
836.064	29.54
836.235	25.27
836.407	36.62
836.578	30.88
836.749	53.06
836.921	22.1
837.092	2.57
837.264	5.4
837.435	-1.96
837.606	13.55
837.777	47.21
837.949	52.83
838.12	49.52
838.291	62.42
838.462	57.78
838.633	41.18
838.805	44.9
838.976	77.7
839.147	70.12
839.318	36.63
839.489	-13.69
839.66	-9.07
839.831	-16.57
840.002	-16.88
840.173	-0.3
840.344	42.75
840.515	19.46
840.686	-60.24
840.857	-46.28
841.028	-41.78
841.199	-31.48
841.369	-10.85
841.54	8.95
841.711	38.32
841.882	25.11
842.053	35.07
842.223	41.56
842.394	50.81
842.565	53.78
842.736	58.45
842.906	57.09
843.077	49.7
843.248	72.41
843.418	77.59
843.589	86.78
843.759	135.26
843.93	108.61
844.101	50.95
844.271	33.23
844.442	30.5
844.612	25.77
844.783	19.44
844.953	5.47
845.123	-12.29
845.294	-28.38
845.464	-138.73
845.635	-93.31
845.805	-72.1
845.975	-9.05
846.146	-22.45
846.316	-13.96
846.486	-1.49
846.656	35.74
846.827	25.75
846.997	34.34
847.167	57.43
847.337	57.34
847.507	33.99
847.677	34.6
847.848	62.72
848.018	56.38
848.188	60.12
848.358	49.34
848.528	43.85
848.698	4.95
848.868	-16.1
849.038	-49.11
849.208	7.95
849.378	63.19
849.548	48.49
849.718	37.89
849.887	42.44
850.057	20.03
850.227	-11.69
850.397	13.19
850.567	-32.96
850.737	-58.59
850.906	-314.69
851.076	-119.34
851.246	-133.38
851.415	20.26
851.585	15.67
851.755	11.39
851.924	22.33
852.094	25.07
852.264	-1.27
852.433	-472.84
852.603	-51.92
852.772	-32.68
852.942	-11.69
853.111	-10.88
853.281	40.08
853.45	54.28
853.62	17.23
853.789	40.66
853.959	47.57
854.128	22.35
854.297	16.21
854.467	33.93
854.636	5.55
854.805	18.37
854.975	-14.08
855.144	-30.34
855.313	-20.8
855.482	-150.91
855.652	-5.19
855.821	65.48
855.99	58.84
856.159	24.37
856.328	29.31
856.497	21.34
856.667	17.23
856.836	7.11
857.005	22.65
857.174	12.07
857.343	1.79
857.512	25.73
857.681	-11.91
857.85	-28.58
858.019	6.84
858.188	21.64
858.356	-1.75
858.525	-1.03
858.694	11.36
858.863	-60.7
859.032	-32.66
859.201	-24.81
859.369	91.9
859.538	10.9
859.707	42.04
859.876	52.34
860.044	70.73
860.213	25.78
860.382	26.5
860.55	44.29
860.719	44.55
860.888	21.28
861.056	-0.79
861.225	15.42
861.393	-0.3
861.562	7.98
861.73	44.58
861.899	-37.57
862.067	-319.83
862.236	74.7
862.404	-45.75
862.572	-27.55
862.741	33.16
862.909	22.41
863.078	-32.32
863.246	11.86
863.414	28.91
863.582	58.21
863.751	51.21
863.919	49.12
864.087	35.91
864.255	19.33
864.424	-174.4
864.592	-34.39
864.76	-90.34
864.928	-230.2
865.096	-99.28
865.264	-37.94
865.432	-585.8
865.6	37.62
865.768	-32.99
865.936	-30.59
866.104	22.1
866.272	49.77
866.44	-50.69
866.608	118.89
866.776	53.07
866.944	1073.84
867.112	-208.37
867.28	-59.43
867.448	-34.7
867.615	-24.2
867.783	-13.66
867.951	-23.18
868.119	-21.3
868.286	-23.15
868.454	-77.17
868.622	-24.28
868.789	127.54
868.957	2123.21
869.125	316.45
869.292	152.64
869.46	50.7
869.627	23.88
869.795	15.82
869.963	43.71
870.13	53.5
870.298	78.91
870.465	71.5
870.632	54.22
870.8	66.43
870.967	14.41
871.135	-19.89
871.302	-4.6
871.469	-26.49
871.637	-142.97
871.804	-25.84
871.971	-54.5
872.139	-309.65
872.306	-17.23
872.473	28.7
872.64	-24.36
872.807	37.09
872.975	98.82
873.142	73.18
873.309	315.54
873.476	46.5
873.643	61.71
873.81	20.41
873.977	29.03
874.144	24.14
874.311	-81.12
874.478	-71.65
874.645	-91.83
874.812	-31.68
874.979	-11.19
875.146	3.59
875.313	13.11
875.48	45.56
875.647	1.74
875.813	-23.44
875.98	-8.16
876.147	-18
876.314	-91.62
876.481	557.64
876.647	-589.61
876.814	239.25
876.981	-58.75
877.147	29.48
877.314	21.76
877.481	46.7
877.647	46.48
877.814	49.06
877.98	33.11
878.147	41.52
878.314	54.23
878.48	3.97
878.647	13.52
878.813	71.8
878.979	86.49
879.146	52.47
879.312	71.7
879.479	68.81
879.645	-40.8
879.811	-104.97
879.978	-286.07
880.144	-31.95
880.31	-4.64
880.477	-0.84
880.643	-35.83
880.809	8.93
880.975	-50.34
881.142	-422.5
881.308	-86.67
881.474	-51.73
881.64	-34.9
881.806	-19.43
881.972	15.09
882.138	27.16
882.304	1.8
882.47	-147.15
882.636	-494.06
882.802	-208.2
882.968	-61.92
883.134	-13.62
883.3	-7.72
883.466	3.17
883.632	30.38
883.798	6.31
883.964	-31.1
884.129	10.57
884.295	15.24
884.461	-9.76
884.627	30.3
884.793	0.48
884.958	-17.5
885.124	-67.58
885.29	-66.96
885.455	-331.92
885.621	-42
885.787	-63.17
885.952	-25
886.118	-44.88
886.283	-23.43
886.449	-80.3
886.614	-49.24
886.78	-71.44
886.945	850.41
887.111	-181.94
887.276	-54.4
887.442	-351.59
887.607	-145.64
887.773	-48.65
887.938	-61.03
888.103	-108.59
888.269	-7.15
888.434	5
888.599	35.6
888.764	87.94
888.93	59.11
889.095	29.86
889.26	3.49
889.425	-16.19
889.59	-31.71
889.756	-22.46
889.921	-4.36
890.086	41.59
890.251	73.13
890.416	-11.61
890.581	-439.92
890.746	37.41
890.911	213.85
891.076	95.82
891.241	-4.29
891.406	48.47
891.571	-30.51
891.736	-68.69
891.901	-124.56
892.065	299.73
892.23	128.89
892.395	144.37
892.56	198.48
892.725	-266.99
892.889	-1023.78
893.054	-65.22
893.219	28.67
893.384	52.95
893.548	36.37
893.713	46.56
893.878	76.29
