Data from Ofra_2a_PS_2CX12_Reflection_1.txt Node
Date: Tue Jul 20 09:37:56 EDT 2021
User: Adam
Spectrometer: FLMT01687
Trigger mode: 0
Integration Time (sec): 9.450000E-1
Scans to average: 3
Electric dark correction enabled: true
Nonlinearity correction enabled: false
Boxcar width: 3
XAxis mode: Wavelengths
Number of Pixels in Spectrum: 3648
>>>>>Begin Spectral Data<<<<<
179.494	718.93
179.716	429.93
179.937	428.57
180.158	1950
180.38	-1039.53
180.601	-148.33
180.823	-63.29
181.044	-70.52
181.265	-109.09
181.486	-14.72
181.708	-339.13
181.929	39.07
182.15	231.82
182.372	-64.98
182.593	-32.88
182.814	220.96
183.035	270.25
183.257	131.19
183.478	98.56
183.699	66.35
183.92	55.07
184.141	62.92
184.363	68.12
184.584	39.97
184.805	49.9
185.026	42.45
185.247	39.29
185.468	41.1
185.689	38.29
185.91	16.61
186.132	24.45
186.353	6.39
186.574	16.99
186.795	14.41
187.016	0.94
187.237	-7
187.458	-11.23
187.679	-30.67
187.9	-20.98
188.121	-22.71
188.342	-4.16
188.563	12.32
188.784	6.6
189.005	19.63
189.226	21.69
189.447	16.59
189.667	11.31
189.888	22.45
190.109	13.22
190.33	12.83
190.551	15.41
190.772	16.4
190.993	30.88
191.214	36.9
191.434	29.58
191.655	35.14
191.876	34.24
192.097	25.26
192.318	32.9
192.538	29.77
192.759	30.79
192.98	27.25
193.201	40.6
193.421	46.95
193.642	44.83
193.863	34.32
194.083	24.47
194.304	15.73
194.525	31.72
194.745	5.12
194.966	5.84
195.187	18.21
195.407	20.45
195.628	18.91
195.848	24.91
196.069	17.65
196.29	12.2
196.51	-1.14
196.731	-7.32
196.951	-0.6
197.172	-0.67
197.392	12.5
197.613	8.27
197.833	6.95
198.054	8.77
198.274	10.73
198.495	5.53
198.715	-3.02
198.936	-40.03
199.156	-33.79
199.377	-11.77
199.597	-7.44
199.817	2.35
200.038	12.61
200.258	19.36
200.479	29.14
200.699	34.5
200.919	25.73
201.14	30.55
201.36	29.28
201.58	24.88
201.801	16.75
202.021	20.66
202.241	22.63
202.461	27.34
202.682	37.38
202.902	36.38
203.122	29.42
203.342	50.69
203.563	47.1
203.783	41.93
204.003	37.93
204.223	31.25
204.443	33.29
204.663	39.29
204.884	27.73
205.104	32.82
205.324	49.23
205.544	49.84
205.764	45.6
205.984	37.91
206.204	33.63
206.424	30.81
206.644	19.89
206.864	6.09
207.084	28.11
207.304	26.97
207.525	26.85
207.745	27.58
207.964	34.54
208.184	33.11
208.404	35.05
208.624	7.17
208.844	2.01
209.064	-4.99
209.284	-4.45
209.504	-3.2
209.724	-21.02
209.944	-29.95
210.164	-17.61
210.384	-8.35
210.604	-4.49
210.823	7.57
211.043	-12.39
211.263	15.27
211.483	29.77
211.703	34.6
211.922	38.23
212.142	36.05
212.362	31.67
212.582	41.46
212.801	36.15
213.021	31.24
213.241	23.97
213.461	22.06
213.68	39.3
213.9	50.02
214.12	35.03
214.339	25.96
214.559	28.41
214.779	36.83
214.998	28.79
215.218	23.02
215.438	26.06
215.657	35.01
215.877	35.5
216.096	34.18
216.316	28.43
216.535	38.58
216.755	14.59
216.974	6.62
217.194	6.32
217.413	22.12
217.633	14.37
217.852	7.95
218.072	1.07
218.291	34.65
218.511	26.51
218.73	20.05
218.95	18.93
219.169	25.24
219.389	23.51
219.608	19.53
219.827	8.22
220.047	25.65
220.266	29.83
220.485	30.8
220.705	17.93
220.924	17.87
221.143	16.86
221.363	13.39
221.582	4.53
221.801	10.8
222.021	7.61
222.24	12.25
222.459	15.31
222.678	18.22
222.897	17.18
223.117	19.44
223.336	8.91
223.555	-2.36
223.774	4.87
223.993	25.16
224.213	18.81
224.432	28.72
224.651	31.63
224.87	31.75
225.089	41.19
225.308	36.58
225.527	30.07
225.746	36.28
225.965	23.64
226.184	13.56
226.404	6.86
226.623	11.52
226.842	7.62
227.061	19.54
227.28	23.48
227.499	32.12
227.718	34.01
227.936	31.58
228.155	27.9
228.374	37.24
228.593	16.37
228.812	6.13
229.031	-2.37
229.25	11.72
229.469	21.2
229.688	25.46
229.907	19.3
230.125	30.27
230.344	39.62
230.563	40.03
230.782	20.29
231.001	22.64
231.22	18.98
231.438	23.41
231.657	23.85
231.876	21.32
232.095	22.5
232.313	37
232.532	32.32
232.751	32.45
232.969	36.57
233.188	36.88
233.407	40.63
233.625	34.38
233.844	24.96
234.063	26.48
234.281	21.21
234.5	22.55
234.719	22.35
234.937	23.5
235.156	27.97
235.374	26.31
235.593	22.54
235.811	27.6
236.03	18.72
236.249	24.95
236.467	23.92
236.686	30.42
236.904	30.09
237.123	38.48
237.341	39.82
237.559	45.2
237.778	44.26
237.996	48.54
238.215	40.83
238.433	50.49
238.652	43.97
238.87	43.85
239.088	34.07
239.307	29.39
239.525	20.99
239.743	12.26
239.962	9.6
240.18	9.92
240.398	13.07
240.617	20.71
240.835	14.67
241.053	28.75
241.271	44.47
241.49	32.34
241.708	31.48
241.926	23.97
242.144	21.57
242.363	26.93
242.581	11.94
242.799	6.15
243.017	13.9
243.235	11.08
243.453	11.43
243.672	17.66
243.89	19.57
244.108	36.5
244.326	33.24
244.544	38.81
244.762	46.16
244.98	38.47
245.198	28.12
245.416	29.73
245.634	21.92
245.852	28.58
246.07	25.46
246.288	9.07
246.506	18.2
246.724	35.24
246.942	41.18
247.16	39.32
247.378	23.97
247.596	25.13
247.814	15.62
248.032	22.46
248.25	10.09
248.468	3.47
248.685	11.34
248.903	14.14
249.121	15.45
249.339	23.19
249.557	26.87
249.775	16.8
249.992	19.16
250.21	4.52
250.428	7.35
250.646	8.03
250.863	12.15
251.081	-0.63
251.299	17.72
251.517	14.06
251.734	16.02
251.952	26.58
252.17	15.96
252.387	17.07
252.605	22.51
252.823	14.35
253.04	10.2
253.258	17.64
253.475	4.27
253.693	18.13
253.911	21.53
254.128	15.83
254.346	12.41
254.563	11.26
254.781	11.08
254.998	15.34
255.216	14.35
255.433	7.86
255.651	12.28
255.868	13.7
256.086	16.76
256.303	13.84
256.521	10.16
256.738	5.34
256.956	9.93
257.173	4.73
257.39	18.63
257.608	21.32
257.825	16.84
258.043	20.71
258.26	26.29
258.477	26.3
258.695	30.12
258.912	32.19
259.129	24.3
259.346	31.37
259.564	29.62
259.781	30.23
259.998	30.24
260.216	30.39
260.433	32.31
260.65	34.16
260.867	28.51
261.084	38.99
261.302	33.05
261.519	26.87
261.736	33.2
261.953	20.3
262.17	21.64
262.387	27.67
262.604	3.64
262.822	12.87
263.039	21
263.256	8.28
263.473	6.86
263.69	2.23
263.907	3.73
264.124	12.52
264.341	2.03
264.558	2
264.775	13.56
264.992	11.94
265.209	26.55
265.426	25.44
265.643	28.24
265.86	26.92
266.077	27.05
266.294	24.53
266.51	30.01
266.727	22.28
266.944	-31.24
267.161	-36.24
267.378	-50.62
267.595	-49.39
267.812	-58.21
268.028	-60.17
268.245	-54.62
268.462	-2.64
268.679	-5.45
268.896	0.25
269.112	14.5
269.329	24.12
269.546	20.18
269.763	22.33
269.979	10.62
270.196	17.97
270.413	16.64
270.629	11.32
270.846	11.29
271.063	12.72
271.279	8.67
271.496	8.49
271.712	1.18
271.929	9.36
272.146	7.49
272.362	-7.1
272.579	-1.86
272.795	0.98
273.012	6.8
273.228	8.83
273.445	6.79
273.661	5.81
273.878	14.39
274.094	10.96
274.311	6.79
274.527	8.82
274.744	6.08
274.96	6.82
275.177	5.83
275.393	0.53
275.609	8.76
275.826	21.04
276.042	33.31
276.259	37.45
276.475	35.25
276.691	33.42
276.908	37.12
277.124	33.22
277.34	25.2
277.557	13.6
277.773	3.1
277.989	5.08
278.205	-8.7
278.422	0.09
278.638	16.52
278.854	15.11
279.07	9.57
279.286	18
279.503	17.46
279.719	33.82
279.935	11.36
280.151	3.76
280.367	7.99
280.583	17.08
280.799	19.35
281.016	16.08
281.232	11.03
281.448	18.44
281.664	9.31
281.88	10.76
282.096	14.84
282.312	7.86
282.528	6.08
282.744	16.17
282.96	15.75
283.176	20.63
283.392	25.68
283.608	18.86
283.824	19.86
284.04	24.85
284.256	17.08
284.471	26.54
284.687	25.06
284.903	25.4
285.119	17.04
285.335	17.93
285.551	22.64
285.767	22.04
285.982	8.25
286.198	9.44
286.414	16.36
286.63	23.33
286.846	21.8
287.061	20.08
287.277	23.33
287.493	28.35
287.709	23.13
287.924	21.71
288.14	23.18
288.356	30.11
288.571	17.52
288.787	20.02
289.003	25.03
289.218	33.76
289.434	26.38
289.65	27.54
289.865	25.48
290.081	36.5
290.296	34.37
290.512	32.39
290.727	31.79
290.943	33.39
291.159	27.72
291.374	32.36
291.59	26.31
291.805	28.24
292.021	27.58
292.236	21.95
292.451	10.84
292.667	22.9
292.882	9.03
293.098	2.74
293.313	-3.6
293.529	2.89
293.744	7.3
293.959	23.61
294.175	22.29
294.39	38.66
294.605	41.27
294.821	42.72
295.036	42.15
295.251	37.37
295.467	27.96
295.682	24.11
295.897	18.66
296.112	24.36
296.328	28.49
296.543	16.04
296.758	20.29
296.973	18.41
297.188	13.43
297.404	21.47
297.619	19.21
297.834	18.55
298.049	32.79
298.264	28.77
298.479	18.93
298.694	22.94
298.909	14.94
299.125	16.54
299.34	14.74
299.555	16.03
299.77	9.56
299.985	14.69
300.2	14.88
300.415	13.12
300.63	7.84
300.845	14.3
301.06	9.39
301.275	18.28
301.49	26.55
301.704	31.65
301.919	38.61
302.134	35.35
302.349	32.04
302.564	45.07
302.779	36.21
302.994	32.87
303.209	18.27
303.423	21.92
303.638	26.52
303.853	35.31
304.068	23.63
304.283	26.41
304.497	26
304.712	28.46
304.927	15.84
305.142	21.51
305.356	15.66
305.571	16.89
305.786	12.89
306	11.28
306.215	14.54
306.43	36.08
306.644	28.78
306.859	25.81
307.074	25.98
307.288	35.24
307.503	32.53
307.717	27.56
307.932	22.77
308.147	23.85
308.361	22.37
308.576	17.11
308.79	16.76
309.005	17.42
309.219	20.78
309.434	15.22
309.648	9.68
309.863	8.97
310.077	7.33
310.292	6.74
310.506	22.95
310.72	24.42
310.935	24.39
311.149	26.38
311.364	34.46
311.578	37.31
311.792	30.8
312.007	19.04
312.221	16.27
312.435	11.6
312.649	16.94
312.864	3.77
313.078	5.16
313.292	3.19
313.507	15.61
313.721	11.71
313.935	38.05
314.149	34.06
314.363	41.42
314.578	40.15
314.792	40.23
315.006	36.37
315.22	43.04
315.434	25.12
315.648	18.64
315.862	15.64
316.077	18.2
316.291	28.72
316.505	26.05
316.719	13.1
316.933	19.16
317.147	16.03
317.361	23.11
317.575	23.33
317.789	10.5
318.003	6.95
318.217	21.76
318.431	24.39
318.645	25.12
318.859	13.51
319.073	15.81
319.287	22.89
319.5	19.49
319.714	12.66
319.928	15.92
320.142	13.48
320.356	25.29
320.57	16.24
320.784	12.69
320.997	21.03
321.211	18.87
321.425	7.41
321.639	18.45
321.853	11.74
322.066	15.94
322.28	22.13
322.494	22.14
322.707	26.36
322.921	33.48
323.135	30.49
323.349	32.33
323.562	34.91
323.776	27.75
323.989	27.53
324.203	33.41
324.417	24.62
324.63	17.33
324.844	1.83
325.057	4.33
325.271	0.64
325.485	-3.23
325.698	-12.98
325.912	-1.14
326.125	7.27
326.339	23.16
326.552	27.5
326.766	36.61
326.979	39.88
327.193	42.84
327.406	38.61
327.619	31.97
327.833	23.48
328.046	11.11
328.26	-6.44
328.473	-8.95
328.686	-11.56
328.9	-18.18
329.113	-7.04
329.326	5.71
329.54	5.01
329.753	12.91
329.966	12.67
330.179	16.6
330.393	22.7
330.606	22.52
330.819	16.9
331.032	19.97
331.246	20.02
331.459	22.9
331.672	20.78
331.885	19.33
332.098	12.81
332.311	3.54
332.525	8.01
332.738	11.73
332.951	12.88
333.164	8.15
333.377	3.58
333.59	10.09
333.803	13.66
334.016	0.53
334.229	-3.23
334.442	3.89
334.655	15.97
334.868	26.36
335.081	28.22
335.294	32.18
335.507	44.56
335.72	38.14
335.933	39.3
336.146	37.93
336.359	34.33
336.572	24.24
336.785	27.11
336.997	16.98
337.21	17.86
337.423	17.28
337.636	12.37
337.849	11.41
338.062	16.62
338.274	19.55
338.487	14.55
338.7	15.8
338.913	5.99
339.125	2.1
339.338	10.18
339.551	10.14
339.763	5.76
339.976	9.09
340.189	14.03
340.402	20.8
340.614	27.16
340.827	12.03
341.039	18.22
341.252	17.39
341.465	12.27
341.677	7.98
341.89	11.1
342.102	14.88
342.315	31.03
342.527	29.43
342.74	27.49
342.952	39.65
343.165	52.06
343.377	48.17
343.59	38.08
343.802	40.71
344.015	39.12
344.227	36.53
344.44	28.64
344.652	21.99
344.864	20.82
345.077	23.27
345.289	20.41
345.502	22.53
345.714	24.36
345.926	26.99
346.139	24.65
346.351	14.19
346.563	21.08
346.775	8.05
346.988	-4.69
347.2	2.25
347.412	3.09
347.624	2.21
347.837	6.09
348.049	6.89
348.261	8.81
348.473	12.17
348.685	18.23
348.897	18.58
349.11	17.08
349.322	20.26
349.534	8.09
349.746	19.02
349.958	27.46
350.17	24.35
350.382	19.22
350.594	28.11
350.806	33.05
351.018	44.11
351.23	38.53
351.442	29.91
351.654	31.63
351.866	40.63
352.078	34.07
352.29	31.62
352.502	24.99
352.714	23.2
352.926	27.16
353.138	22.82
353.35	13.86
353.561	9.32
353.773	10.39
353.985	11.01
354.197	5.87
354.409	6.28
354.621	7.4
354.832	9.94
355.044	20.88
355.256	18.6
355.468	20.92
355.679	19.12
355.891	20.33
356.103	21.08
356.314	18.59
356.526	10.88
356.738	7.8
356.949	4.95
357.161	5.48
357.373	0.58
357.584	8.09
357.796	11.53
358.008	12.87
358.219	20.78
358.431	19.59
358.642	16.56
358.854	16.37
359.065	9.49
359.277	5.16
359.488	7.64
359.7	7.42
359.911	12.48
360.123	22.02
360.334	20.24
360.546	14.89
360.757	22.69
360.969	27.12
361.18	25.74
361.391	18.96
361.603	22.78
361.814	27.7
362.025	30.79
362.237	28.59
362.448	28.61
362.659	16.25
362.871	29.14
363.082	29.16
363.293	32.99
363.504	31.58
363.716	32.8
363.927	28.7
364.138	39.61
364.349	34.93
364.56	28.93
364.772	22.74
364.983	16.21
365.194	10.99
365.405	7.28
365.616	-5.08
365.827	-9.07
366.038	0.6
366.25	5.03
366.461	16.25
366.672	11.91
366.883	22.76
367.094	23.83
367.305	24.89
367.516	17.08
367.727	18.33
367.938	21
368.149	19.65
368.36	13.64
368.571	18.8
368.781	20.23
368.992	22.64
369.203	18.27
369.414	11.08
369.625	17.79
369.836	18.36
370.047	17.06
370.258	10.28
370.468	10.01
370.679	8.81
370.89	20.87
371.101	13.4
371.312	10.24
371.522	9.94
371.733	9.6
371.944	13.25
372.155	8.5
372.365	-6.87
372.576	-2.22
372.787	-2.69
372.997	-2.72
373.208	11.24
373.419	9.21
373.629	17.67
373.84	20.29
374.05	25.39
374.261	19.02
374.472	20.02
374.682	11.59
374.893	6.3
375.103	7.34
375.314	8.03
375.524	3.63
375.735	12.51
375.945	10.65
376.156	9.3
376.366	14.32
376.577	15.6
376.787	18.06
376.997	17.68
377.208	18.83
377.418	18.73
377.629	15.49
377.839	16.98
378.049	13.91
378.26	14.85
378.47	17.69
378.68	9.7
378.89	5.85
379.101	2.67
379.311	-6.08
379.521	-0.89
379.732	-8.06
379.942	-8.26
380.152	1.01
380.362	6.88
380.572	10.45
380.783	10.97
380.993	7.02
381.203	15.11
381.413	19.47
381.623	19.79
381.833	17.97
382.043	16.38
382.253	17.74
382.463	17.77
382.674	14.59
382.884	10.39
383.094	7.09
383.304	5.45
383.514	10.52
383.724	12.49
383.934	15.22
384.144	14.23
384.353	13.47
384.563	12.89
384.773	15.59
384.983	11.58
385.193	12.41
385.403	13.16
385.613	12.86
385.823	9.77
386.033	15.37
386.242	13.8
386.452	13.6
386.662	15.52
386.872	8.82
387.082	8.64
387.291	13.46
387.501	8.67
387.711	6.38
387.921	7.97
388.13	4.35
388.34	6.29
388.55	6.75
388.759	3.47
388.969	2.73
389.179	6.31
389.388	8.3
389.598	8.8
389.807	9.92
390.017	9.61
390.227	9.64
390.436	7.92
390.646	5.96
390.855	4.72
391.065	4.95
391.274	3.19
391.484	4.99
391.693	6.52
391.903	7.55
392.112	6.91
392.322	6.59
392.531	6.38
392.74	5.23
392.95	4.02
393.159	4.29
393.369	4.2
393.578	5
393.787	4.39
393.997	5.48
394.206	6.29
394.415	6.24
394.625	4.02
394.834	3.68
395.043	4.36
395.252	5.7
395.462	4.54
395.671	4.84
395.88	5.12
396.089	6.06
396.298	6.15
396.508	5.57
396.717	4.67
396.926	5.16
397.135	4.92
397.344	4.37
397.553	4.86
397.762	4.96
397.971	5.17
398.181	5.07
398.39	4.52
398.599	4.89
398.808	5.18
399.017	4.9
399.226	5.19
399.435	4.83
399.644	4.79
399.853	5.12
400.062	4.77
400.27	4.56
400.479	4.54
400.688	4.27
400.897	4.53
401.106	4.69
401.315	4.56
401.524	4.74
401.733	5.04
401.941	4.95
402.15	4.8
402.359	4.76
402.568	4.74
402.777	4.71
402.985	4.54
403.194	4.37
403.403	4.13
403.612	4.14
403.82	4.09
404.029	4.01
404.238	4.09
404.446	4.06
404.655	3.84
404.864	3.96
405.072	4.02
405.281	3.9
405.489	3.87
405.698	3.77
405.906	3.75
406.115	3.95
406.324	3.92
406.532	3.89
406.741	4.02
406.949	3.91
407.158	4.03
407.366	4.07
407.574	4.07
407.783	4.08
407.991	4.03
408.2	3.89
408.408	3.93
408.617	3.84
408.825	3.84
409.033	3.74
409.242	3.71
409.45	3.76
409.658	3.76
409.867	3.81
410.075	3.79
410.283	3.73
410.491	3.68
410.7	3.72
410.908	3.76
411.116	3.73
411.324	3.75
411.533	3.67
411.741	3.64
411.949	3.7
412.157	3.72
412.365	3.66
412.573	3.71
412.781	3.69
412.99	3.76
413.198	3.8
413.406	3.75
413.614	3.71
413.822	3.69
414.03	3.64
414.238	3.65
414.446	3.61
414.654	3.6
414.862	3.62
415.07	3.64
415.278	3.61
415.486	3.67
415.694	3.62
415.902	3.6
416.109	3.6
416.317	3.55
416.525	3.53
416.733	3.57
416.941	3.41
417.149	3.44
417.357	3.42
417.564	3.45
417.772	3.46
417.98	3.41
418.188	3.3
418.395	3.32
418.603	3.17
418.811	3.15
419.019	3.11
419.226	3.15
419.434	3.13
419.642	3.19
419.849	3.28
420.057	3.32
420.265	3.37
420.472	3.33
420.68	3.28
420.887	3.35
421.095	3.37
421.302	3.39
421.51	3.46
421.717	3.46
421.925	3.47
422.132	3.41
422.34	3.35
422.547	3.34
422.755	3.32
422.962	3.23
423.17	3.13
423.377	3.27
423.585	3.28
423.792	3.19
423.999	3.16
424.207	3.12
424.414	3.19
424.621	3.38
424.829	3.16
425.036	3.14
425.243	3.2
425.451	3.14
425.658	3.2
425.865	3.12
426.072	3
426.28	3.1
426.487	3.13
426.694	3.12
426.901	3.09
427.108	3.07
427.315	3.06
427.523	3.02
427.73	3.04
427.937	3.03
428.144	3.12
428.351	3.29
428.558	3.23
428.765	3.23
428.972	3.25
429.179	3.17
429.386	3.24
429.593	3.2
429.8	3.17
430.007	3.16
430.214	3.25
430.421	3.25
430.628	3.19
430.835	3.13
431.042	3.13
431.249	3.08
431.456	3.09
431.662	3.08
431.869	3.09
432.076	3.21
432.283	3.17
432.49	3.13
432.697	3.13
432.903	3.16
433.11	3.17
433.317	3.16
433.524	3.06
433.73	3.15
433.937	3.14
434.144	3.21
434.35	3.18
434.557	3.12
434.764	3.13
434.97	3.16
435.177	3.08
435.384	3.16
435.59	3.1
435.797	3.14
436.003	3.14
436.21	3.12
436.416	3.15
436.623	3.21
436.829	3.15
437.036	3.14
437.242	3.11
437.449	3.14
437.655	3.18
437.862	3.16
438.068	3.2
438.275	3.24
438.481	3.32
438.687	3.36
438.894	3.33
439.1	3.37
439.307	3.35
439.513	3.33
439.719	3.32
439.926	3.34
440.132	3.37
440.338	3.42
440.544	3.32
440.751	3.35
440.957	3.32
441.163	3.36
441.369	3.33
441.575	3.28
441.782	3.29
441.988	3.33
442.194	3.42
442.4	3.47
442.606	3.43
442.812	3.44
443.018	3.48
443.224	3.47
443.431	3.49
443.637	3.42
443.843	3.45
444.049	3.44
444.255	3.41
444.461	3.4
444.667	3.41
444.873	3.39
445.079	3.42
445.284	3.34
445.49	3.34
445.696	3.4
445.902	3.4
446.108	3.4
446.314	3.46
446.52	3.48
446.726	3.5
446.931	3.5
447.137	3.47
447.343	3.51
447.549	3.48
447.755	3.39
447.96	3.35
448.166	3.37
448.372	3.4
448.578	3.41
448.783	3.41
448.989	3.48
449.195	3.51
449.4	3.53
449.606	3.53
449.812	3.54
450.017	3.52
450.223	3.51
450.428	3.44
450.634	3.46
450.84	3.46
451.045	3.46
451.251	3.46
451.456	3.45
451.662	3.44
451.867	3.49
452.073	3.5
452.278	3.46
452.483	3.4
452.689	3.36
452.894	3.38
453.1	3.35
453.305	3.32
453.51	3.26
453.716	3.3
453.921	3.35
454.127	3.34
454.332	3.31
454.537	3.38
454.742	3.35
454.948	3.39
455.153	3.38
455.358	3.4
455.563	3.46
455.769	3.48
455.974	3.39
456.179	3.39
456.384	3.39
456.589	3.44
456.795	3.31
457	3.32
457.205	3.29
457.41	3.3
457.615	3.36
457.82	3.42
458.025	3.38
458.23	3.44
458.435	3.41
458.64	3.49
458.845	3.53
459.05	3.48
459.255	3.43
459.46	3.42
459.665	3.52
459.87	3.52
460.075	3.5
460.28	3.5
460.485	3.53
460.69	3.49
460.895	3.53
461.099	3.49
461.304	3.49
461.509	3.44
461.714	3.43
461.919	3.41
462.123	3.46
462.328	3.39
462.533	3.41
462.738	3.38
462.942	3.43
463.147	3.4
463.352	3.4
463.556	3.4
463.761	3.45
463.966	3.43
464.17	3.47
464.375	3.47
464.58	3.47
464.784	3.53
464.989	3.57
465.193	3.6
465.398	3.62
465.602	3.62
465.807	3.63
466.011	3.7
466.216	3.66
466.42	3.68
466.625	3.66
466.829	3.7
467.034	3.74
467.238	3.81
467.443	3.84
467.647	3.86
467.851	3.83
468.056	3.79
468.26	3.7
468.464	3.64
468.669	3.58
468.873	3.57
469.077	3.6
469.282	3.61
469.486	3.66
469.69	3.71
469.894	3.76
470.099	3.78
470.303	3.74
470.507	3.71
470.711	3.66
470.915	3.7
471.119	3.74
471.324	3.74
471.528	3.77
471.732	3.75
471.936	3.8
472.14	3.85
472.344	3.89
472.548	3.91
472.752	3.96
472.956	3.96
473.16	4.02
473.364	4
473.568	4.04
473.772	4.03
473.976	4.06
474.18	4.05
474.384	4.06
474.588	4.05
474.792	4.07
474.995	4.05
475.199	4.08
475.403	4.05
475.607	4.05
475.811	4.07
476.015	4.12
476.218	4.14
476.422	4.17
476.626	4.16
476.83	4.2
477.033	4.27
477.237	4.29
477.441	4.29
477.644	4.28
477.848	4.27
478.052	4.27
478.255	4.26
478.459	4.27
478.663	4.25
478.866	4.23
479.07	4.27
479.273	4.28
479.477	4.28
479.681	4.27
479.884	4.23
480.088	4.24
480.291	4.28
480.495	4.29
480.698	4.29
480.901	4.32
481.105	4.36
481.308	4.4
481.512	4.43
481.715	4.43
481.919	4.47
482.122	4.5
482.325	4.51
482.529	4.58
482.732	4.61
482.935	4.59
483.138	4.6
483.342	4.6
483.545	4.59
483.748	4.63
483.952	4.59
484.155	4.63
484.358	4.64
484.561	4.66
484.764	4.71
484.967	4.8
485.171	4.79
485.374	4.8
485.577	4.82
485.78	4.91
485.983	4.95
486.186	4.91
486.389	4.89
486.592	4.94
486.795	4.93
486.998	4.92
487.201	4.94
487.404	4.98
487.607	5
487.81	5.04
488.013	5.04
488.216	5.1
488.419	5.12
488.622	5.12
488.825	5.14
489.028	5.2
489.231	5.25
489.433	5.27
489.636	5.32
489.839	5.39
490.042	5.42
490.245	5.49
490.447	5.51
490.65	5.58
490.853	5.64
491.056	5.69
491.258	5.78
491.461	5.81
491.664	5.8
491.866	5.89
492.069	5.92
492.272	5.96
492.474	6.06
492.677	6.06
492.879	6.16
493.082	6.29
493.285	6.36
493.487	6.42
493.69	6.53
493.892	6.58
494.095	6.67
494.297	6.76
494.5	6.83
494.702	6.94
494.905	7.04
495.107	7.1
495.309	7.14
495.512	7.22
495.714	7.33
495.917	7.4
496.119	7.49
496.321	7.59
496.524	7.73
496.726	7.85
496.928	7.98
497.13	8.05
497.333	8.16
497.535	8.2
497.737	8.29
497.939	8.36
498.142	8.44
498.344	8.51
498.546	8.62
498.748	8.69
498.95	8.76
499.152	8.8
499.355	8.87
499.557	8.96
499.759	9.08
499.961	9.15
500.163	9.23
500.365	9.34
500.567	9.42
500.769	9.54
500.971	9.57
501.173	9.59
501.375	9.6
501.577	9.66
501.779	9.7
501.981	9.76
502.183	9.74
502.385	9.78
502.587	9.78
502.788	9.83
502.99	9.85
503.192	9.89
503.394	9.91
503.596	9.97
503.798	10.02
503.999	10.06
504.201	10.06
504.403	10.05
504.605	10.08
504.806	10.05
505.008	10.01
505.21	9.99
505.411	10.02
505.613	10.02
505.815	10.05
506.016	10.02
506.218	10.01
506.42	10.02
506.621	10.04
506.823	10.02
507.024	9.98
507.226	9.9
507.427	9.84
507.629	9.83
507.83	9.78
508.032	9.76
508.233	9.71
508.435	9.69
508.636	9.72
508.838	9.72
509.039	9.7
509.24	9.7
509.442	9.63
509.643	9.61
509.845	9.62
510.046	9.6
510.247	9.6
510.448	9.56
510.65	9.56
510.851	9.56
511.052	9.58
511.254	9.52
511.455	9.44
511.656	9.41
511.857	9.38
512.058	9.37
512.26	9.33
512.461	9.26
512.662	9.21
512.863	9.24
513.064	9.2
513.265	9.21
513.466	9.23
513.667	9.23
513.868	9.2
514.069	9.25
514.27	9.22
514.471	9.24
514.672	9.24
514.873	9.21
515.074	9.21
515.275	9.21
515.476	9.19
515.677	9.23
515.878	9.24
516.079	9.24
516.28	9.19
516.481	9.13
516.682	9.13
516.882	9.07
517.083	9.05
517.284	9.02
517.485	8.99
517.686	8.98
517.886	9
518.087	9.03
518.288	9.05
518.488	9.05
518.689	9.05
518.89	9.09
519.091	9.11
519.291	9.14
519.492	9.1
519.692	9.14
519.893	9.12
520.094	9.08
520.294	9.03
520.495	9.04
520.695	9.02
520.896	9
521.096	9
521.297	9.03
521.497	9.04
521.698	9.05
521.898	9.05
522.099	9.05
522.299	9.08
522.499	9.02
522.7	9.02
522.9	9.01
523.101	9.04
523.301	9.08
523.501	9.08
523.702	9.09
523.902	9.13
524.102	9.12
524.302	9.13
524.503	9.11
524.703	9.1
524.903	9.14
525.103	9.17
525.304	9.17
525.504	9.18
525.704	9.21
525.904	9.18
526.104	9.2
526.304	9.17
526.504	9.14
526.705	9.13
526.905	9.13
527.105	9.13
527.305	9.16
527.505	9.15
527.705	9.16
527.905	9.16
528.105	9.18
528.305	9.19
528.505	9.18
528.705	9.19
528.905	9.17
529.105	9.16
529.304	9.18
529.504	9.2
529.704	9.21
529.904	9.25
530.104	9.28
530.304	9.33
530.503	9.34
530.703	9.36
530.903	9.39
531.103	9.39
531.303	9.43
531.502	9.39
531.702	9.37
531.902	9.4
532.101	9.4
532.301	9.4
532.501	9.42
532.7	9.39
532.9	9.43
533.1	9.45
533.299	9.5
533.499	9.52
533.698	9.55
533.898	9.56
534.097	9.62
534.297	9.64
534.496	9.67
534.696	9.66
534.895	9.72
535.095	9.71
535.294	9.7
535.494	9.73
535.693	9.74
535.892	9.74
536.092	9.74
536.291	9.73
536.491	9.78
536.69	9.85
536.889	9.87
537.088	9.87
537.288	9.91
537.487	9.94
537.686	10
537.886	9.97
538.085	9.98
538.284	9.99
538.483	10.03
538.682	10.06
538.882	10.05
539.081	10.06
539.28	10.08
539.479	10.1
539.678	10.16
539.877	10.2
540.076	10.23
540.275	10.28
540.474	10.25
540.673	10.3
540.872	10.33
541.071	10.34
541.27	10.33
541.469	10.35
541.668	10.39
541.867	10.45
542.066	10.49
542.265	10.52
542.464	10.51
542.663	10.57
542.862	10.62
543.06	10.66
543.259	10.65
543.458	10.7
543.657	10.74
543.856	10.76
544.054	10.78
544.253	10.79
544.452	10.75
544.651	10.82
544.849	10.82
545.048	10.82
545.247	10.86
545.445	10.84
545.644	10.91
545.843	11.04
546.041	11.07
546.24	11.13
546.438	11.2
546.637	11.25
546.836	11.31
547.034	11.32
547.233	11.33
547.431	11.35
547.63	11.4
547.828	11.44
548.027	11.46
548.225	11.54
548.423	11.57
548.622	11.64
548.82	11.72
549.019	11.76
549.217	11.83
549.415	11.91
549.614	11.93
549.812	12
550.01	12.03
550.209	12.1
550.407	12.15
550.605	12.2
550.803	12.25
551.002	12.33
551.2	12.41
551.398	12.44
551.596	12.46
551.794	12.54
551.993	12.56
552.191	12.65
552.389	12.75
552.587	12.75
552.785	12.87
552.983	12.97
553.181	13
553.379	13.1
553.577	13.2
553.775	13.26
553.973	13.35
554.171	13.39
554.369	13.43
554.567	13.51
554.765	13.52
554.963	13.52
555.161	13.62
555.359	13.68
555.557	13.73
555.755	13.84
555.952	13.94
556.15	14.08
556.348	14.21
556.546	14.25
556.744	14.36
556.941	14.51
557.139	14.6
557.337	14.66
557.535	14.75
557.732	14.81
557.93	14.92
558.128	15.03
558.325	15.09
558.523	15.13
558.721	15.24
558.918	15.35
559.116	15.44
559.313	15.54
559.511	15.61
559.708	15.69
559.906	15.82
560.104	15.9
560.301	15.95
560.498	16.03
560.696	16.1
560.893	16.23
561.091	16.34
561.288	16.42
561.486	16.52
561.683	16.65
561.88	16.77
562.078	16.84
562.275	16.92
562.473	17.03
562.67	17.13
562.867	17.28
563.064	17.41
563.262	17.53
563.459	17.71
563.656	17.82
563.853	17.9
564.051	18.03
564.248	18.1
564.445	18.17
564.642	18.23
564.839	18.33
565.036	18.43
565.234	18.56
565.431	18.61
565.628	18.76
565.825	18.87
566.022	18.98
566.219	19.05
566.416	19.17
566.613	19.27
566.81	19.4
567.007	19.45
567.204	19.5
567.401	19.6
567.598	19.69
567.795	19.76
567.991	19.82
568.188	19.89
568.385	19.98
568.582	20.09
568.779	20.17
568.976	20.28
569.172	20.38
569.369	20.45
569.566	20.55
569.763	20.62
569.96	20.69
570.156	20.71
570.353	20.76
570.55	20.77
570.746	20.83
570.943	20.9
571.14	20.94
571.336	20.99
571.533	21.06
571.729	21.11
571.926	21.16
572.123	21.21
572.319	21.25
572.516	21.34
572.712	21.41
572.909	21.5
573.105	21.6
573.302	21.66
573.498	21.73
573.695	21.75
573.891	21.73
574.087	21.8
574.284	21.76
574.48	21.77
574.677	21.79
574.873	21.8
575.069	21.85
575.266	21.94
575.462	21.96
575.658	22
575.854	21.99
576.051	22.03
576.247	22.06
576.443	22.1
576.639	22.1
576.835	22.13
577.032	22.17
577.228	22.2
577.424	22.21
577.62	22.2
577.816	22.17
578.012	22.17
578.208	22.14
578.404	22.16
578.6	22.17
578.796	22.22
578.993	22.25
579.189	22.29
579.384	22.25
579.58	22.26
579.776	22.21
579.972	22.16
580.168	22.14
580.364	22.15
580.56	22.09
580.756	22.12
580.952	22.14
581.148	22.12
581.343	22.19
581.539	22.14
581.735	22.11
581.931	22.13
582.127	22.16
582.322	22.15
582.518	22.16
582.714	22.09
582.909	22.05
583.105	22.04
583.301	21.99
583.496	21.9
583.692	21.88
583.888	21.85
584.083	21.94
584.279	22.01
584.474	22.05
584.67	22.06
584.866	22.11
585.061	22.09
585.257	22.13
585.452	22.05
585.648	22.03
585.843	22
586.039	21.96
586.234	21.97
586.429	21.98
586.625	21.94
586.82	21.91
587.015	21.85
587.211	21.88
587.406	21.94
587.601	21.93
587.797	21.87
587.992	21.85
588.187	21.93
588.383	22.01
588.578	22
588.773	22.04
588.968	22.08
589.163	22.15
589.359	22.21
589.554	22.19
589.749	22.23
589.944	22.26
590.139	22.22
590.334	22.19
590.529	22.28
590.724	22.29
590.919	22.35
591.114	22.32
591.309	22.33
591.504	22.41
591.699	22.48
591.894	22.49
592.089	22.57
592.284	22.53
592.479	22.59
592.674	22.62
592.869	22.68
593.064	22.81
593.259	22.82
593.454	22.82
593.648	22.89
593.843	22.96
594.038	23.06
594.233	23.09
594.428	23.1
594.622	23.19
594.817	23.27
595.012	23.35
595.206	23.41
595.401	23.44
595.596	23.51
595.79	23.55
595.985	23.62
596.18	23.71
596.374	23.77
596.569	23.87
596.763	24.02
596.958	24.08
597.153	24.18
597.347	24.27
597.542	24.41
597.736	24.53
597.931	24.59
598.125	24.59
598.319	24.65
598.514	24.73
598.708	24.8
598.903	24.79
599.097	24.86
599.291	24.86
599.486	24.96
599.68	24.99
599.874	25.04
600.069	25.05
600.263	25.09
600.457	25.13
600.651	25.26
600.846	25.3
601.04	25.36
601.234	25.41
601.428	25.47
601.622	25.47
601.817	25.53
602.011	25.51
602.205	25.54
602.399	25.59
602.593	25.62
602.787	25.66
602.981	25.75
603.175	25.71
603.369	25.76
603.563	25.78
603.757	25.74
603.951	25.7
604.145	25.65
604.339	25.64
604.533	25.65
604.727	25.66
604.921	25.63
605.115	25.69
605.309	25.7
605.502	25.69
605.696	25.58
605.89	25.61
606.084	25.49
606.278	25.45
606.471	25.37
606.665	25.32
606.859	25.29
607.053	25.3
607.246	25.19
607.44	25.2
607.634	25.12
607.827	25.08
608.021	25.01
608.214	24.96
608.408	24.89
608.602	24.83
608.795	24.7
608.989	24.67
609.182	24.62
609.376	24.52
609.569	24.4
609.763	24.42
609.956	24.4
610.15	24.36
610.343	24.32
610.537	24.2
610.73	24.19
610.923	24.15
611.117	23.98
611.31	23.83
611.504	23.81
611.697	23.74
611.89	23.69
612.083	23.6
612.277	23.5
612.47	23.47
612.663	23.43
612.856	23.34
613.05	23.21
613.243	23.14
613.436	23.04
613.629	23.01
613.822	22.92
614.015	22.86
614.209	22.79
614.402	22.73
614.595	22.62
614.788	22.58
614.981	22.49
615.174	22.48
615.367	22.38
615.56	22.35
615.753	22.25
615.946	22.23
616.139	22.13
616.332	22.08
616.525	22
616.718	21.89
616.911	21.82
617.103	21.85
617.296	21.77
617.489	21.76
617.682	21.75
617.875	21.64
618.067	21.63
618.26	21.58
618.453	21.47
618.646	21.42
618.838	21.36
619.031	21.29
619.224	21.29
619.417	21.26
619.609	21.22
619.802	21.17
619.994	21.17
620.187	21.17
620.38	21.12
620.572	21.07
620.765	21.01
620.957	20.95
621.15	20.96
621.342	20.95
621.535	20.88
621.727	20.81
621.92	20.8
622.112	20.81
622.305	20.8
622.497	20.76
622.69	20.68
622.882	20.64
623.074	20.68
623.267	20.64
623.459	20.6
623.651	20.61
623.844	20.64
624.036	20.65
624.228	20.69
624.42	20.65
624.613	20.66
624.805	20.65
624.997	20.62
625.189	20.57
625.381	20.52
625.574	20.46
625.766	20.44
625.958	20.44
626.15	20.44
626.342	20.37
626.534	20.27
626.726	20.26
626.918	20.17
627.11	20.12
627.302	19.99
627.494	19.93
627.686	19.9
627.878	19.9
628.07	19.87
628.262	19.87
628.454	19.89
628.646	19.86
628.838	19.84
629.029	19.8
629.221	19.78
629.413	19.71
629.605	19.7
629.797	19.64
629.989	19.64
630.18	19.56
630.372	19.5
630.564	19.5
630.755	19.48
630.947	19.4
631.139	19.32
631.33	19.26
631.522	19.24
631.714	19.23
631.905	19.2
632.097	19.21
632.289	19.17
632.48	19.19
632.672	19.11
632.863	19.09
633.055	19.08
633.246	19
633.438	18.93
633.629	18.97
633.821	18.95
634.012	19.02
634.203	19.04
634.395	19.04
634.586	19.02
634.777	19.01
634.969	18.98
635.16	18.95
635.351	18.86
635.543	18.82
635.734	18.78
635.925	18.82
636.117	18.81
636.308	18.81
636.499	18.75
636.69	18.82
636.881	18.85
637.073	18.84
637.264	18.78
637.455	18.78
637.646	18.79
637.837	18.83
638.028	18.85
638.219	18.83
638.41	18.81
638.601	18.85
638.792	18.81
638.983	18.77
639.174	18.75
639.365	18.62
639.556	18.59
639.747	18.64
639.938	18.62
640.129	18.57
640.32	18.56
640.511	18.52
640.701	18.51
640.892	18.48
641.083	18.38
641.274	18.33
641.465	18.33
641.655	18.33
641.846	18.29
642.037	18.31
642.228	18.29
642.418	18.22
642.609	18.16
642.8	18.14
642.99	18.12
643.181	18.13
643.372	18.12
643.562	18.13
643.753	18.17
643.943	18.15
644.134	18.17
644.324	18.12
644.515	18.1
644.705	18.06
644.896	18.04
645.086	17.97
645.277	18.01
645.467	17.94
645.658	17.91
645.848	17.86
646.038	17.81
646.229	17.78
646.419	17.81
646.61	17.76
646.8	17.77
646.99	17.75
647.18	17.72
647.371	17.7
647.561	17.68
647.751	17.64
647.941	17.59
648.132	17.58
648.322	17.6
648.512	17.66
648.702	17.62
648.892	17.66
649.082	17.65
649.272	17.61
649.462	17.58
649.653	17.52
649.843	17.4
650.033	17.4
650.223	17.25
650.413	17.25
650.603	17.28
650.793	17.19
650.983	17.18
651.172	17.21
651.362	17.14
651.552	17.1
651.742	17.02
651.932	16.95
652.122	16.97
652.312	16.8
652.502	16.73
652.691	16.72
652.881	16.72
653.071	16.64
653.261	16.61
653.45	16.48
653.64	16.48
653.83	16.35
654.019	16.2
654.209	16.09
654.399	16.04
654.588	15.87
654.778	15.81
654.968	15.66
655.157	15.55
655.347	15.45
655.536	15.25
655.726	15.12
655.915	14.98
656.105	14.86
656.294	14.76
656.484	14.68
656.673	14.54
656.863	14.48
657.052	14.25
657.241	14.15
657.431	13.97
657.62	13.72
657.809	13.53
657.999	13.37
658.188	13.2
658.377	13.1
658.567	12.9
658.756	12.74
658.945	12.64
659.134	12.44
659.324	12.3
659.513	12.11
659.702	11.89
659.891	11.7
660.08	11.52
660.269	11.39
660.458	11.27
660.648	11.1
660.837	10.99
661.026	10.93
661.215	10.85
661.404	10.73
661.593	10.56
661.782	10.43
661.971	10.3
662.16	10.14
662.349	9.96
662.538	9.86
662.726	9.71
662.915	9.58
663.104	9.44
663.293	9.32
663.482	9.17
663.671	9.06
663.86	8.89
664.048	8.8
664.237	8.71
664.426	8.66
664.615	8.54
664.803	8.46
664.992	8.4
665.181	8.36
665.369	8.28
665.558	8.24
665.747	8.17
665.935	8.14
666.124	8.16
666.312	8.02
666.501	7.94
666.69	7.87
666.878	7.83
667.067	7.81
667.255	7.76
667.444	7.71
667.632	7.7
667.82	7.65
668.009	7.69
668.197	7.63
668.386	7.5
668.574	7.47
668.762	7.42
668.951	7.41
669.139	7.47
669.327	7.36
669.516	7.37
669.704	7.44
669.892	7.43
670.08	7.36
670.269	7.41
670.457	7.39
670.645	7.43
670.833	7.41
671.021	7.44
671.21	7.52
671.398	7.59
671.586	7.61
671.774	7.62
671.962	7.71
672.15	7.74
672.338	7.8
672.526	7.79
672.714	7.87
672.902	7.91
673.09	7.94
673.278	7.93
673.466	8.03
673.654	8.01
673.842	8.09
674.03	8.13
674.218	8.19
674.405	8.27
674.593	8.32
674.781	8.34
674.969	8.43
675.157	8.42
675.344	8.5
675.532	8.58
675.72	8.61
675.908	8.7
676.095	8.81
676.283	8.82
676.471	8.89
676.658	8.99
676.846	9.07
677.033	9.18
677.221	9.32
677.409	9.33
677.596	9.45
677.784	9.53
677.971	9.55
678.159	9.67
678.346	9.76
678.534	9.77
678.721	9.9
678.909	10.02
679.096	10.16
679.283	10.28
679.471	10.37
679.658	10.5
679.846	10.64
680.033	10.75
680.22	10.84
680.408	10.97
680.595	11.1
680.782	11.15
680.969	11.23
681.157	11.36
681.344	11.58
681.531	11.76
681.718	11.94
681.905	12.11
682.093	12.39
682.28	12.56
682.467	12.7
682.654	12.74
682.841	12.91
683.028	13.17
683.215	13.33
683.402	13.33
683.589	13.56
683.776	13.76
683.963	13.92
684.15	14.09
684.337	14.23
684.524	14.41
684.711	14.74
684.898	14.97
685.085	15.22
685.271	15.59
685.458	15.92
685.645	16.2
685.832	16.57
686.019	16.87
686.205	17.2
686.392	17.53
686.579	17.87
686.766	18.18
686.952	18.57
687.139	18.86
687.326	19.29
687.512	19.6
687.699	20.07
687.886	20.4
688.072	20.82
688.259	21.3
688.445	21.81
688.632	22.23
688.818	22.8
689.005	23.39
689.191	23.96
689.378	24.46
689.564	24.94
689.751	25.51
689.937	26.09
690.124	26.65
690.31	27.1
690.496	27.71
690.683	28.33
690.869	28.9
691.055	29.6
691.242	30.21
691.428	31
691.614	31.73
691.8	32.37
691.987	33.09
692.173	33.87
692.359	34.45
692.545	35.21
692.731	35.75
692.918	36.44
693.104	37.15
693.29	37.82
693.476	38.37
693.662	39.04
693.848	39.61
694.034	40.17
694.22	40.8
694.406	41.43
694.592	42.18
694.778	42.85
694.964	43.38
695.15	44.14
695.336	45.01
695.522	45.65
695.708	46.3
695.894	46.96
696.08	47.65
696.265	48.35
696.451	49.07
696.637	49.62
696.823	50.23
697.009	50.98
697.194	51.57
697.38	52.02
697.566	52.72
697.751	53.26
697.937	53.85
698.123	54.45
698.308	54.92
698.494	55.4
698.68	56.27
698.865	56.87
699.051	57.47
699.236	58.03
699.422	58.47
699.607	58.93
699.793	59.52
699.978	59.87
700.164	60.3
700.349	60.69
700.535	61.21
700.72	61.88
700.906	62.42
701.091	62.83
701.276	63.3
701.462	63.82
701.647	64.18
701.832	64.62
702.018	64.86
702.203	65.22
702.388	65.57
702.573	66.08
702.759	66.29
702.944	66.66
703.129	66.99
703.314	67.45
703.499	67.93
703.684	68.4
703.87	68.62
704.055	69.11
704.24	69.47
704.425	69.97
704.61	70.25
704.795	70.4
704.98	70.54
705.165	70.99
705.35	71.25
705.535	71.59
705.72	71.5
705.905	71.74
706.09	72.11
706.275	72.28
706.459	72.49
706.644	72.56
706.829	72.81
707.014	73.18
707.199	73.3
707.384	73.49
707.568	74.01
707.753	74.28
707.938	74.67
708.123	74.77
708.307	75.22
708.492	75.51
708.677	75.67
708.861	75.84
709.046	75.98
709.231	76.29
709.415	76.5
709.6	76.37
709.784	76.7
709.969	77.1
710.153	77.41
710.338	77.38
710.522	77.41
710.707	77.32
710.891	77.74
711.076	77.55
711.26	77.41
711.445	77.32
711.629	77.73
711.813	77.87
711.998	78.04
712.182	78.15
712.366	78.55
712.551	78.85
712.735	78.8
712.919	78.78
713.103	78.96
713.288	79.36
713.472	79.35
713.656	79.11
713.84	79.16
714.024	79.63
714.208	79.62
714.393	79.67
714.577	79.82
714.761	80.14
714.945	80.52
715.129	80.62
715.313	80.52
715.497	80.9
715.681	81.07
715.865	81
716.049	81.04
716.233	81.37
716.417	81.6
716.601	81.66
716.785	81.63
716.968	81.53
717.152	81.72
717.336	81.66
717.52	81.64
717.704	81.66
717.888	82.01
718.071	82
718.255	82.18
718.439	82.01
718.622	82.14
718.806	81.8
718.99	81.77
719.174	81.52
719.357	81.71
719.541	82.09
719.724	82.47
719.908	82.46
720.092	83.07
720.275	83.26
720.459	83.45
720.642	83.26
720.826	82.98
721.009	83.06
721.193	83.26
721.376	83.01
721.559	83.06
721.743	82.71
721.926	82.8
722.11	83.21
722.293	82.96
722.476	82.67
722.66	82.79
722.843	82.82
723.026	83.16
723.21	83.19
723.393	83.09
723.576	83.28
723.759	83.86
723.942	84.15
724.126	84.14
724.309	84.65
724.492	85.01
724.675	84.99
724.858	85.35
725.041	85.04
725.224	84.99
725.407	84.92
725.59	84.66
725.774	84.44
725.957	84.56
726.14	84.38
726.322	84.25
726.505	84.43
726.688	84.67
726.871	84.79
727.054	85.21
727.237	85.02
727.42	85.46
727.603	85.77
727.786	85.75
727.968	86.12
728.151	86.58
728.334	86.43
728.517	86.8
728.699	86.68
728.882	87.22
729.065	87.53
729.248	87.17
729.43	86.77
729.613	87.28
729.796	87.11
729.978	87.22
730.161	87.36
730.343	87.23
730.526	87.57
730.708	87.87
730.891	87.85
731.073	87.99
731.256	87.98
731.438	87.98
731.621	88.51
731.803	88.61
731.986	88.65
732.168	88.47
732.35	88.6
732.533	88.97
732.715	88.8
732.898	88.57
733.08	88.89
733.262	89.03
733.444	88.98
733.627	88.94
733.809	88.79
733.991	89.13
734.173	89.08
734.355	89.38
734.538	89.4
734.72	90.16
734.902	90.57
735.084	90.66
735.266	90.54
735.448	90.94
735.63	90.41
735.812	90.83
735.994	90.37
736.176	90.22
736.358	90.49
736.54	90.37
736.722	90.08
736.904	90.4
737.086	90.24
737.268	90.48
737.45	90.9
737.632	90.35
737.814	90.25
737.995	90.44
738.177	90.52
738.359	90.08
738.541	89.97
738.723	90.33
738.904	90.7
739.086	90.94
739.268	91.37
739.449	91.68
739.631	92.17
739.813	92.36
739.994	92.01
740.176	92.19
740.358	92.66
740.539	92.07
740.721	91.81
740.902	91.35
741.084	91.43
741.265	91.18
741.447	90.46
741.628	89.9
741.81	90.28
741.991	90.58
742.172	90.81
742.354	90.74
742.535	90.83
742.717	91.19
742.898	91.69
743.079	91.37
743.261	91.35
743.442	91.45
743.623	91.42
743.804	91.22
743.986	91.63
744.167	91.6
744.348	91.91
744.529	91.13
744.71	90.77
744.891	90.58
745.073	91.17
745.254	90.89
745.435	90.18
745.616	89.97
745.797	90.59
745.978	91.01
746.159	91.67
746.34	91.95
746.521	92.31
746.702	92.39
746.883	92.8
747.064	92.15
747.245	92.98
747.426	92.75
747.606	92.15
747.787	92.35
747.968	93.45
748.149	92.87
748.33	94.26
748.51	93.42
748.691	93.48
748.872	93.63
749.053	93.25
749.233	92.56
749.414	93.14
749.595	91.64
749.775	92
749.956	91.13
750.137	90.89
750.317	90.9
750.498	90.62
750.678	89.92
750.859	90.32
751.04	89.61
751.22	89.35
751.4	89.59
751.581	89.56
751.761	90.51
751.942	91.06
752.122	91.08
752.303	91.67
752.483	92.45
752.663	92.41
752.844	91.76
753.024	91.78
753.204	90.84
753.385	90.55
753.565	89.88
753.745	89.14
753.925	88.57
754.106	89.26
754.286	88.69
754.466	88.97
754.646	88.83
754.826	89.2
755.006	89.25
755.187	89.66
755.367	89.16
755.547	88.96
755.727	88.89
755.907	89.24
756.087	89.28
756.267	89.5
756.447	90.08
756.627	90.47
756.807	90.69
756.987	91.61
757.167	91.51
757.346	91.01
757.526	91.5
757.706	90.91
757.886	90.66
758.066	90.31
758.246	89.8
758.425	90.2
758.605	90.6
758.785	90.27
758.965	89.48
759.144	89.61
759.324	89.97
759.504	90.44
759.683	89.55
759.863	88.61
760.043	88.92
760.222	88.94
760.402	89.4
760.581	89.06
760.761	88.26
760.94	87.93
761.12	88.7
761.299	87.85
761.479	89.19
761.658	88.73
761.838	89.2
762.017	89.4
762.197	90.1
762.376	89.97
762.555	90.03
762.735	88.55
762.914	88.36
763.093	87.41
763.273	87.39
763.452	87.59
763.631	87.06
763.81	87.46
763.99	87.88
764.169	87.8
764.348	88.7
764.527	88.1
764.706	88.38
764.885	89.52
765.064	89.24
765.243	89.31
765.423	89.19
765.602	87.98
765.781	88.61
765.96	87.9
766.139	86.29
766.318	86.73
766.497	86.69
766.676	88.01
766.854	87.96
767.033	87.66
767.212	87.75
767.391	88.19
767.57	87.63
767.749	88.28
767.928	86.55
768.106	87.89
768.285	87.95
768.464	88.27
768.643	89.45
768.821	90.1
769	90.1
769.179	89.98
769.357	88.97
769.536	87.87
769.715	87
769.893	85.64
770.072	85.55
770.25	83.79
770.429	84.24
770.607	84.47
770.786	85.37
770.964	85.01
771.143	86.1
771.321	85.39
771.5	86.22
771.678	85.8
771.857	85.91
772.035	85.86
772.213	86.6
772.392	85.94
772.57	85.98
772.748	85.18
772.927	86.38
773.105	86.38
773.283	85.41
773.461	86.06
773.64	85.95
773.818	85.89
773.996	85.87
774.174	85.29
774.352	84.89
774.531	85.95
774.709	85.76
774.887	85.53
775.065	84.92
775.243	86.64
775.421	86.07
775.599	85.9
775.777	86.16
775.955	85.35
776.133	84.68
776.311	84.34
776.489	83.71
776.667	83.52
776.844	83.37
777.022	82.51
777.2	82.56
777.378	84.22
777.556	86.42
777.734	85.67
777.911	87.52
778.089	86.57
778.267	86.83
778.445	86.88
778.622	85.47
778.8	84.53
778.978	83.57
779.155	82.19
779.333	81.17
779.511	81.29
779.688	79.73
779.866	79.27
780.043	80.18
780.221	81.02
780.398	81.26
780.576	82.25
780.753	81.54
780.931	81.76
781.108	82.45
781.286	80.34
781.463	80.24
781.64	79.79
781.818	80.49
781.995	80.57
782.172	81.81
782.35	81.32
782.527	83.09
782.704	83.3
782.882	83.71
783.059	82.64
783.236	83.17
783.413	82.9
783.59	82.17
783.768	81.62
783.945	83.19
784.122	82.01
784.299	82.35
784.476	82.18
784.653	82.01
784.83	82.49
785.007	80.29
785.184	78.18
785.361	79.73
785.538	81.09
785.715	80.01
785.892	78.86
786.069	80.06
786.246	81.03
786.423	83.01
786.6	82.37
786.776	80.97
786.953	80.92
787.13	82.42
787.307	81.71
787.484	82.03
787.66	80.26
787.837	80.05
788.014	79.31
788.191	80.14
788.367	79
788.544	78.08
788.721	77.72
788.897	79.06
789.074	79.05
789.25	81.57
789.427	81.93
789.603	83.13
789.78	86.12
789.956	85.07
790.133	84.37
790.309	81.68
790.486	83.52
790.662	82.36
790.839	83.59
791.015	81.09
791.192	83.44
791.368	85.92
791.544	87.64
791.721	83.37
791.897	83.46
792.073	80.46
792.249	83.49
792.426	83.18
792.602	79.69
792.778	79.81
792.954	80.66
793.13	81.02
793.307	81.59
793.483	79.05
793.659	80.94
793.835	79.8
794.011	80.61
794.187	78.98
794.363	80.05
794.539	80.64
794.715	80.18
794.891	76.84
795.067	78.01
795.243	76.58
795.419	79.03
795.595	76.59
795.771	76.71
795.947	75
796.122	75.42
796.298	75.73
796.474	77.32
796.65	78.02
796.826	81
797.001	81.65
797.177	83.4
797.353	86.84
797.529	88.36
797.704	87.36
797.88	85.29
798.056	86.7
798.231	86.38
798.407	87.18
798.582	84.84
798.758	84.42
798.934	83.32
799.109	80.69
799.285	76.44
799.46	75.64
799.636	76.44
799.811	76.78
799.986	77.03
800.162	77.33
800.337	78.85
800.513	83.35
800.688	84.36
800.863	82.72
801.039	81.41
801.214	79.08
801.389	79.33
801.565	82.81
801.74	79.63
801.915	76.6
802.09	75.51
802.265	73.19
802.441	71.83
802.616	69.98
802.791	69.23
802.966	67.02
803.141	66.51
803.316	71.65
803.491	72.5
803.666	74.62
803.841	80.02
804.016	78.91
804.191	83.04
804.366	84.94
804.541	80.28
804.716	76.66
804.891	79.67
805.066	75.49
805.241	71.4
805.416	68.88
805.591	69.99
805.765	70.51
805.94	74.39
806.115	70.35
806.29	71.81
806.464	74.93
806.639	78.21
806.814	76.79
806.989	73.77
807.163	75.98
807.338	74.15
807.512	68.81
807.687	68.41
807.862	61.83
808.036	59.44
808.211	65.18
808.385	60.14
808.56	64.24
808.734	66.1
808.909	64.45
809.083	69.31
809.258	75.8
809.432	73.04
809.606	75.1
809.781	73.95
809.955	77.46
810.13	82.52
810.304	82.31
810.478	78.64
810.652	78.47
810.827	79.41
811.001	79.93
811.175	77.7
811.349	75.98
811.524	72.44
811.698	72.07
811.872	73.4
812.046	72.31
812.22	69.36
812.394	70.26
812.568	70.17
812.742	73.67
812.916	75.01
813.09	72.08
813.264	73.43
813.438	81.94
813.612	78.84
813.786	77.52
813.96	80.68
814.134	78.82
814.308	75.54
814.482	77.28
814.656	76.19
814.83	78.3
815.003	77.7
815.177	74.69
815.351	74.23
815.525	73.19
815.698	68.45
815.872	65.12
816.046	66.52
816.219	66.52
816.393	67.47
816.567	68.47
816.74	72.79
816.914	74.99
817.088	67.56
817.261	64.51
817.435	63.5
817.608	62.64
817.782	69.22
817.955	66.17
818.129	66.23
818.302	70.14
818.475	71.86
818.649	67.91
818.822	63.9
818.996	57.77
819.169	62.5
819.342	63.03
819.516	65.96
819.689	65.46
819.862	67.32
820.035	68.29
820.209	62.56
820.382	55.53
820.555	57.38
820.728	51.14
820.901	52.55
821.075	55.13
821.248	56.09
821.421	54.77
821.594	58.91
821.767	60.24
821.94	61.3
822.113	63.25
822.286	69.82
822.459	74.87
822.632	85.28
822.805	90.52
822.978	84.98
823.151	90.05
823.324	81.9
823.496	65.11
823.669	67.69
823.842	61.35
824.015	57.74
824.188	57.4
824.361	55.58
824.533	59.97
824.706	81.72
824.879	69.05
825.051	76.58
825.224	71.6
825.397	68.7
825.569	74.63
825.742	70.45
825.915	66.26
826.087	63.63
826.26	62.01
826.432	68.86
826.605	65.73
826.777	63.66
826.95	63.12
827.122	62.2
827.295	62.57
827.467	54.28
827.64	47.97
827.812	53.11
827.984	56.02
828.157	58.22
828.329	57.04
828.501	56.58
828.674	62.47
828.846	67.41
829.018	61.48
829.19	49.21
829.363	54.96
829.535	56.43
829.707	62.76
829.879	59.06
830.051	61.92
830.223	61.23
830.395	60.23
830.568	63.95
830.74	64.17
830.912	61.86
831.084	58.38
831.256	45.07
831.428	43.73
831.6	47.81
831.772	43.41
831.943	41.98
832.115	44.86
832.287	55.34
832.459	70.73
832.631	72.84
832.803	76.64
832.975	74.68
833.146	66.94
833.318	67.55
833.49	66.82
833.662	66.59
833.833	71.86
834.005	73.32
834.177	73.63
834.348	70.96
834.52	67.97
834.692	74.77
834.863	71.07
835.035	70.32
835.206	66.41
835.378	62.04
835.549	72.24
835.721	71.47
835.892	59.97
836.064	67.93
836.235	71.66
836.407	71.73
836.578	73.36
836.749	74.26
836.921	83.47
837.092	97.08
837.264	87.14
837.435	70.54
837.606	73.24
837.777	73.37
837.949	59.87
838.12	49.25
838.291	42.83
838.462	40.32
838.633	46.35
838.805	46.4
838.976	51.24
839.147	55.42
839.318	62.92
839.489	60.5
839.66	59.62
839.831	56.65
840.002	51.22
840.173	47.54
840.344	47.77
840.515	32.08
840.686	34.52
840.857	36.99
841.028	46.38
841.199	48.8
841.369	42.42
841.54	46.48
841.711	57.85
841.882	51.56
842.053	60.18
842.223	48.33
842.394	52.45
842.565	77.24
842.736	75.33
842.906	76.81
843.077	88.85
843.248	77.14
843.418	72.04
843.589	73.36
843.759	51.25
843.93	44.99
844.101	46.06
844.271	28.54
844.442	36.39
844.612	31.8
844.783	13.26
844.953	20.11
845.123	29.84
845.294	22.66
845.464	30.26
845.635	27.24
845.805	42.01
845.975	56.97
846.146	41.71
846.316	32.1
846.486	39.88
846.656	40.47
846.827	39.89
846.997	46.71
847.167	44.53
847.337	64.83
847.507	68.03
847.677	66.06
847.848	64.32
848.018	64.23
848.188	48.88
848.358	55.36
848.528	52.84
848.698	47.05
848.868	42.77
849.038	44.47
849.208	51.15
849.378	51.62
849.548	44.05
849.718	37.77
849.887	22.13
850.057	33.22
850.227	45.68
850.397	46.16
850.567	65.21
850.737	55.78
850.906	49.02
851.076	67.83
851.246	61.68
851.415	57.13
851.585	52.29
851.755	47.99
851.924	64.9
852.094	62.51
852.264	57.6
852.433	65.47
852.603	81.12
852.772	68.45
852.942	51.55
853.111	51.12
853.281	55.95
853.45	58.16
853.62	50.27
853.789	37.75
853.959	51.74
854.128	50.73
854.297	34.16
854.467	32.89
854.636	27.74
854.805	34.08
854.975	36.02
855.144	36.01
855.313	45.53
855.482	44.45
855.652	40.76
855.821	46.01
855.99	54.83
856.159	46.23
856.328	45.44
856.497	46.45
856.667	63.97
856.836	60.06
857.005	56.06
857.174	68.1
857.343	61.49
857.512	44.46
857.681	42.25
857.85	29.1
858.019	38.62
858.188	38.49
858.356	5.13
858.525	32.14
858.694	52.26
858.863	52.66
859.032	51.63
859.201	49.64
859.369	49.9
859.538	44.97
859.707	46.27
859.876	41.23
860.044	46.37
860.213	33.5
860.382	44.22
860.55	53.85
860.719	70.37
860.888	68.39
861.056	81.83
861.225	78.57
861.393	84.81
861.562	65.82
861.73	53.11
861.899	30.02
862.067	29.6
862.236	40.69
862.404	29.29
862.572	21.28
862.741	32.05
862.909	33.91
863.078	41.78
863.246	34.98
863.414	26.2
863.582	44.04
863.751	47.81
863.919	53.42
864.087	60.24
864.255	59.63
864.424	61.31
864.592	57.83
864.76	69.81
864.928	77.68
865.096	68.52
865.264	69.81
865.432	62.48
865.6	44.22
865.768	34.32
865.936	23.7
866.104	-5.35
866.272	0
866.44	-7.28
866.608	-1.08
866.776	64.18
866.944	64.95
867.112	36.59
867.28	53.49
867.448	39.5
867.615	30.16
867.783	21.2
867.951	-8.54
868.119	27.79
868.286	37.69
868.454	42.8
868.622	47.79
868.789	62.17
868.957	75.32
869.125	61.12
869.292	54.57
869.46	48.14
869.627	35.98
869.795	24.18
869.963	3.78
870.13	10.63
870.298	22.24
870.465	8.24
870.632	30.68
870.8	45.85
870.967	41.17
871.135	36.85
871.302	38.47
871.469	30.49
871.637	27.5
871.804	26.96
871.971	31.06
872.139	42.12
872.306	44.08
872.473	27.21
872.64	30.97
872.807	33.42
872.975	26.25
873.142	2.66
873.309	-16.93
873.476	-10.74
873.643	67.34
873.81	95.43
873.977	101.62
874.144	122.83
874.311	120.19
874.478	57.11
874.645	45.59
874.812	48.5
874.979	32.4
875.146	20.73
875.313	44.61
875.48	111.77
875.647	132.89
875.813	132.47
875.98	106.46
876.147	96.23
876.314	88.88
876.481	66.4
876.647	47.8
876.814	55.85
876.981	41.82
877.147	27.4
877.314	23
877.481	29.88
877.647	31.79
877.814	19.17
877.98	8.25
878.147	20.97
878.314	43.53
878.48	34.21
878.647	52.95
878.813	54.72
878.979	65.17
879.146	44.84
879.312	62.11
879.479	51.81
879.645	41.45
879.811	14.81
879.978	19.76
880.144	-1.24
880.31	7.48
880.477	-11.74
880.643	-94.22
880.809	-2.8
880.975	0.4
881.142	21.1
881.308	50.86
881.474	47.99
881.64	47.66
881.806	45.43
881.972	77.41
882.138	85.93
882.304	44.37
882.47	43.13
882.636	22.14
882.802	14.36
882.968	-43.03
883.134	-254.91
883.3	-87.52
883.466	-15.19
883.632	-14.4
883.798	17.14
883.964	10.32
884.129	38.87
884.295	56.34
884.461	53.59
884.627	72.75
884.793	59.95
884.958	53.38
885.124	50.51
885.29	34.73
885.455	25.34
885.621	19.21
885.787	14.98
885.952	15.08
886.118	2.25
886.283	21.69
886.449	10.01
886.614	19.75
886.78	42.06
886.945	26.54
887.111	1.81
887.276	18.94
887.442	8.62
887.607	10.19
887.773	-4.09
887.938	-34.16
888.103	25.63
888.269	37.89
888.434	30.73
888.599	54.51
888.764	42.29
888.93	57.15
889.095	74.59
889.26	34.84
889.425	78.84
889.59	81.42
889.756	78.86
889.921	82.4
890.086	90.72
890.251	60.23
890.416	51.85
890.581	16.1
890.746	-6.32
890.911	-58.89
891.076	-68.2
891.241	-142.36
891.406	-20.08
891.571	12.64
891.736	-0.23
891.901	21.63
892.065	35.47
892.23	36.79
892.395	40.84
892.56	9.46
892.725	6.46
892.889	-2.68
893.054	-39.21
893.219	-48.07
893.384	-94.2
893.548	-290
893.713	240.59
893.878	140.22
