Data from Ofra_2a_PS_6EV18_Reflection_3.txt Node
Date: Tue Jul 20 09:53:18 EDT 2021
User: Adam
Spectrometer: FLMT01687
Trigger mode: 0
Integration Time (sec): 9.450000E-1
Scans to average: 3
Electric dark correction enabled: true
Nonlinearity correction enabled: false
Boxcar width: 3
XAxis mode: Wavelengths
Number of Pixels in Spectrum: 3648
>>>>>Begin Spectral Data<<<<<
179.494	1422.49
179.716	869.54
179.937	915.38
180.158	3266.41
180.38	-1436.63
180.601	-201.67
180.823	84.79
181.044	198.61
181.265	97.85
181.486	91.24
181.708	-232.61
181.929	-137.91
182.15	-857.95
182.372	233.75
182.593	161.13
182.814	-30.24
183.035	-56.82
183.257	-36.13
183.478	22.96
183.699	41.31
183.92	41.4
184.141	32.56
184.363	37.63
184.584	30.82
184.805	52.38
185.026	24.49
185.247	-3.82
185.468	11.11
185.689	21.59
185.91	10.3
186.132	20.6
186.353	-2.39
186.574	23.38
186.795	12.29
187.016	2.37
187.237	-1.56
187.458	-6.48
187.679	-32.01
187.9	-3.68
188.121	8.11
188.342	36.91
188.563	36.08
188.784	34.19
189.005	54.04
189.226	57.57
189.447	44.47
189.667	39.59
189.888	33.52
190.109	26.09
190.33	20.37
190.551	4
190.772	-0.33
190.993	0.12
191.214	-15.24
191.434	-24.73
191.655	2.41
191.876	13.14
192.097	16.63
192.318	29.78
192.538	38.01
192.759	42.4
192.98	48.6
193.201	52.78
193.421	51.44
193.642	55.87
193.863	48.83
194.083	42.57
194.304	53.47
194.525	61.76
194.745	35.75
194.966	37.7
195.187	49.57
195.407	40.72
195.628	35.03
195.848	34.12
196.069	24.3
196.29	21.98
196.51	0.17
196.731	-7.43
196.951	-8.03
197.172	-20.05
197.392	-8.82
197.613	-12.61
197.833	-9.82
198.054	-3.94
198.274	-21.68
198.495	-16.55
198.715	-22.04
198.936	-38.14
199.156	-26.31
199.377	-32.09
199.597	-29.38
199.817	-26.61
200.038	-27.16
200.258	-11.09
200.479	-0.73
200.699	2.28
200.919	-10.87
201.14	1.44
201.36	27.74
201.58	35.39
201.801	29.27
202.021	31.68
202.241	39.18
202.461	46.49
202.682	45.82
202.902	33.84
203.122	24.52
203.342	33.2
203.563	27.82
203.783	18.19
204.003	18.4
204.223	19.54
204.443	18.43
204.663	29.46
204.884	20.19
205.104	19.56
205.324	33.63
205.544	48.57
205.764	46.93
205.984	51.06
206.204	46.54
206.424	50.35
206.644	45.3
206.864	28.28
207.084	39.34
207.304	31.48
207.525	13.83
207.745	22.75
207.964	9.51
208.184	14.51
208.404	19.98
208.624	-10.8
208.844	-20.04
209.064	-1.76
209.284	0.45
209.504	2.03
209.724	-13.8
209.944	-7.3
210.164	5.76
210.384	22.55
210.604	20.42
210.823	0.3
211.043	-18.28
211.263	5.15
211.483	12.47
211.703	22.51
211.922	21.56
212.142	20.7
212.362	28.66
212.582	37.81
212.801	22.44
213.021	14.93
213.241	-14.53
213.461	-19.84
213.68	-20.73
213.9	-9.51
214.12	-19.71
214.339	-1.49
214.559	10.99
214.779	28.32
214.998	30.78
215.218	38.72
215.438	38.27
215.657	45.03
215.877	33.95
216.096	23.96
216.316	3.68
216.535	0.42
216.755	-17.64
216.974	-38.53
217.194	-37.37
217.413	-17.7
217.633	-27.81
217.852	-19.47
218.072	-19.62
218.291	17.14
218.511	18.24
218.73	10.59
218.95	-1.55
219.169	6.04
219.389	16.71
219.608	24.43
219.827	6.91
220.047	12.62
220.266	19.91
220.485	31.77
220.705	22.17
220.924	20.83
221.143	8.78
221.363	10.06
221.582	-1.02
221.801	0.32
222.021	-5.91
222.24	-7.85
222.459	-12.8
222.678	-7.78
222.897	-4.37
223.117	10.15
223.336	14.41
223.555	4
223.774	17.19
223.993	42.07
224.213	28.83
224.432	47.3
224.651	38.81
224.87	33.82
225.089	50.54
225.308	55.26
225.527	34.66
225.746	38.65
225.965	18.52
226.184	26.91
226.404	16.67
226.623	20.84
226.842	8.99
227.061	23.17
227.28	46.86
227.499	53.08
227.718	55.25
227.936	44.5
228.155	41.6
228.374	45.9
228.593	42.97
228.812	26.71
229.031	14.4
229.25	14.42
229.469	40.08
229.688	38.16
229.907	31.57
230.125	28.37
230.344	38.07
230.563	45.77
230.782	30.05
231.001	19.85
231.22	14.99
231.438	17.27
231.657	14.61
231.876	9.45
232.095	1.97
232.313	13.66
232.532	16.74
232.751	24.11
232.969	25.73
233.188	33.01
233.407	24.54
233.625	28.54
233.844	26.61
234.063	29.34
234.281	26.43
234.5	35.82
234.719	31.29
234.937	43.45
235.156	31.83
235.374	32.12
235.593	20.21
235.811	13.76
236.03	-13.41
236.249	2.37
236.467	-4.23
236.686	7.27
236.904	5.45
237.123	14.36
237.341	11.47
237.559	18.85
237.778	14.27
237.996	26.88
238.215	22.71
238.433	37.31
238.652	31.04
238.87	39.33
239.088	34.74
239.307	34.52
239.525	11.75
239.743	6.55
239.962	4.44
240.18	19.31
240.398	15.7
240.617	24.25
240.835	20.3
241.053	36.72
241.271	39.46
241.49	24.23
241.708	12.92
241.926	-1.09
242.144	-5.23
242.363	-11.65
242.581	-0.65
242.799	-3.88
243.017	6.7
243.235	7.81
243.453	8.48
243.672	8.7
243.89	16.45
244.108	8.96
244.326	12.85
244.544	3.9
244.762	18.7
244.98	22.67
245.198	9.56
245.416	5.12
245.634	21.04
245.852	25.37
246.07	31.14
246.288	19.73
246.506	29.55
246.724	48.93
246.942	59.75
247.16	33.1
247.378	23.59
247.596	37.08
247.814	26.18
248.032	26.46
248.25	6.09
248.468	10.23
248.685	18.46
248.903	10.25
249.121	8
249.339	16.8
249.557	15.24
249.775	6.99
249.992	-2.18
250.21	-13.03
250.428	-8.1
250.646	-16.23
250.863	-14.06
251.081	-22.71
251.299	5.48
251.517	9.85
251.734	15.43
251.952	34.11
252.17	8.46
252.387	10.86
252.605	16.65
252.823	1.64
253.04	-6.35
253.258	-0.1
253.475	-10.28
253.693	12.9
253.911	9.13
254.128	5.56
254.346	4.99
254.563	-1.81
254.781	-3
254.998	-5.82
255.216	-3.18
255.433	-0.38
255.651	-3.58
255.868	1.7
256.086	9.08
256.303	8.1
256.521	3.93
256.738	2.99
256.956	-13.7
257.173	1
257.39	4.07
257.608	10.34
257.825	3.3
258.043	15.51
258.26	7.36
258.477	21.66
258.695	18.34
258.912	23.81
259.129	11.66
259.346	31.3
259.564	25.08
259.781	37.5
259.998	34.44
260.216	32.3
260.433	26.66
260.65	33.61
260.867	17.64
261.084	21.45
261.302	16.44
261.519	3.35
261.736	-1.78
261.953	-4.89
262.17	-6.95
262.387	0.4
262.604	-20.24
262.822	-22.71
263.039	-18.96
263.256	-5.41
263.473	-2.62
263.69	2.93
263.907	-3.06
264.124	6.6
264.341	3.91
264.558	7.86
264.775	2.57
264.992	4.07
265.209	9.94
265.426	13.56
265.643	15.3
265.86	16.34
266.077	20.28
266.294	18.68
266.51	18.18
266.727	2.79
266.944	-4.6
267.161	-9.31
267.378	-13.75
267.595	-30.44
267.812	-34.19
268.028	-26.11
268.245	-10.13
268.462	-2.44
268.679	-0.33
268.896	-0.89
269.112	16.09
269.329	25.32
269.546	18.9
269.763	14.17
269.979	13.3
270.196	15.5
270.413	15.15
270.629	4.74
270.846	3.87
271.063	3.79
271.279	1.2
271.496	-2.84
271.712	-7.38
271.929	5.03
272.146	16.88
272.362	2.95
272.579	11.08
272.795	12.46
273.012	9.31
273.228	9.77
273.445	6.97
273.661	-4.77
273.878	3.9
274.094	0.09
274.311	5.14
274.527	5.66
274.744	5.86
274.96	-5.49
275.177	4.5
275.393	8.08
275.609	11.92
275.826	11.2
276.042	21.2
276.259	15.21
276.475	19.73
276.691	21.06
276.908	26.51
277.124	17.78
277.34	14.44
277.557	10.1
277.773	7.36
277.989	6.44
278.205	-5.51
278.422	-5.78
278.638	6.03
278.854	8
279.07	-6.67
279.286	5.15
279.503	8.03
279.719	21.5
279.935	11.37
280.151	15.31
280.367	18.63
280.583	24.06
280.799	24.61
281.016	23.13
281.232	12.84
281.448	2.12
281.664	0.57
281.88	4.84
282.096	14.08
282.312	6.21
282.528	2.95
282.744	14.82
282.96	36.97
283.176	24.09
283.392	31.71
283.608	29.93
283.824	24.79
284.04	29.68
284.256	28.16
284.471	26
284.687	23.47
284.903	12.87
285.119	-2.97
285.335	-0.62
285.551	8.22
285.767	2.61
285.982	-2.14
286.198	0.8
286.414	12.83
286.63	22.13
286.846	26.79
287.061	20.77
287.277	22.27
287.493	21.32
287.709	21.44
287.924	23.47
288.14	25.41
288.356	29.41
288.571	15.04
288.787	21.02
289.003	22.91
289.218	19.09
289.434	7.88
289.65	6.24
289.865	6.17
290.081	19.41
290.296	16.96
290.512	15.58
290.727	25.18
290.943	19.41
291.159	12.19
291.374	13.75
291.59	4.88
291.805	-2.53
292.021	-15.15
292.236	-16.76
292.451	-9.64
292.667	4.27
292.882	5.15
293.098	6.47
293.313	3.97
293.529	9.29
293.744	8.17
293.959	14.73
294.175	18.89
294.39	19.92
294.605	21.45
294.821	17.29
295.036	28.12
295.251	28.36
295.467	20.77
295.682	13.11
295.897	11.15
296.112	10.42
296.328	15.73
296.543	3.63
296.758	7.13
296.973	4.21
297.188	-4.52
297.404	-2.08
297.619	-4.45
297.834	7.79
298.049	10.53
298.264	9.48
298.479	1.78
298.694	6.77
298.909	0.09
299.125	0.46
299.34	-6.52
299.555	2.59
299.77	-3.36
299.985	0.63
300.2	1.47
300.415	5.22
300.63	1.64
300.845	7.54
301.06	0.63
301.275	12.34
301.49	14.86
301.704	12.37
301.919	4.95
302.134	9.47
302.349	1.56
302.564	1.83
302.779	-5.6
302.994	0.68
303.209	5.96
303.423	23.43
303.638	28.07
303.853	32.53
304.068	35.04
304.283	24.14
304.497	20.17
304.712	24.63
304.927	12.73
305.142	7.51
305.356	1.55
305.571	3.25
305.786	5.67
306	8.61
306.215	2.45
306.43	17.71
306.644	27.84
306.859	29.88
307.074	22.62
307.288	29.06
307.503	31.13
307.717	20.41
307.932	19.34
308.147	9.48
308.361	16
308.576	19.34
308.79	12.13
309.005	6.96
309.219	22.96
309.434	13.83
309.648	9.31
309.863	4.65
310.077	-2.76
310.292	-2.84
310.506	10.76
310.72	9.21
310.935	21.94
311.149	23.71
311.364	30.97
311.578	29.57
311.792	34.18
312.007	23.01
312.221	20.91
312.435	14.37
312.649	-16.71
312.864	-40.06
313.078	-19.46
313.292	-16.48
313.507	-2.59
313.721	-14.08
313.935	-7.78
314.149	19.8
314.363	30.06
314.578	53.29
314.792	41.27
315.006	31.76
315.22	39.86
315.434	29.66
315.648	33.33
315.862	24.8
316.077	-0.42
316.291	1.38
316.505	-0.65
316.719	-19.04
316.933	0.01
317.147	5.3
317.361	7.94
317.575	9.97
317.789	23.52
318.003	31.99
318.217	42.83
318.431	31.78
318.645	30.71
318.859	24.37
319.073	20.47
319.287	17.42
319.5	14.66
319.714	9.84
319.928	20.37
320.142	21.19
320.356	34.29
320.57	37.04
320.784	30.62
320.997	31.95
321.211	36.02
321.425	21.85
321.639	21.15
321.853	7.15
322.066	5.46
322.28	9.94
322.494	3.16
322.707	1.3
322.921	3.01
323.135	3.36
323.349	6.96
323.562	5.06
323.776	-0.32
323.989	-0.06
324.203	1.85
324.417	1.04
324.63	-8.84
324.844	-15.2
325.057	-4.15
325.271	-0.9
325.485	7.08
325.698	13.61
325.912	27.88
326.125	37.04
326.339	51.26
326.552	51.33
326.766	53.13
326.979	49.67
327.193	43.7
327.406	32.77
327.619	22.22
327.833	6.79
328.046	-2.85
328.26	0.87
328.473	3.56
328.686	-3.29
328.9	-7.98
329.113	-0.71
329.326	15.76
329.54	12.9
329.753	-0.77
329.966	2.69
330.179	14.39
330.393	19.59
330.606	25.1
330.819	13.64
331.032	15.15
331.246	18.91
331.459	17.47
331.672	16.84
331.885	12.62
332.098	7.08
332.311	2.49
332.525	23.12
332.738	22.36
332.951	17.58
333.164	5.96
333.377	10.13
333.59	18.04
333.803	24.4
334.016	-0.4
334.229	2.64
334.442	6.03
334.655	11.85
334.868	22.55
335.081	22.16
335.294	20.1
335.507	27.34
335.72	16.28
335.933	29.16
336.146	25.43
336.359	6.89
336.572	2.31
336.785	5.36
336.997	-4.53
337.21	5.04
337.423	-4.66
337.636	9.11
337.849	15.82
338.062	13.9
338.274	12.86
338.487	17.95
338.7	14.77
338.913	8.75
339.125	0.74
339.338	9.55
339.551	13.72
339.763	9.3
339.976	9.22
340.189	7.87
340.402	13.76
340.614	17
340.827	0.87
341.039	-2.31
341.252	-2.56
341.465	-14.26
341.677	-11.73
341.89	-15.3
342.102	-17.59
342.315	-2.9
342.527	-6.76
342.74	-6.88
342.952	7.47
343.165	12.81
343.377	14.47
343.59	19.61
343.802	21.25
344.015	31.7
344.227	27.1
344.44	24.07
344.652	25.93
344.864	24.86
345.077	15.29
345.289	9.43
345.502	5.44
345.714	7.16
345.926	4.12
346.139	-5.01
346.351	-21.58
346.563	-11.49
346.775	-15.83
346.988	-15.92
347.2	-2.37
347.412	-2.72
347.624	2.94
347.837	10.47
348.049	8.55
348.261	11.85
348.473	1.8
348.685	3.94
348.897	4.6
349.11	5.6
349.322	8.36
349.534	3.85
349.746	9.14
349.958	16.29
350.17	9.77
350.382	7.12
350.594	9.08
350.806	17.4
351.018	29.46
351.23	29.25
351.442	25.56
351.654	24.78
351.866	31.92
352.078	24.1
352.29	21.73
352.502	13.3
352.714	15.11
352.926	17.68
353.138	18
353.35	8.22
353.561	2.96
353.773	3.25
353.985	9.01
354.197	0.57
354.409	-0.72
354.621	-0.37
354.832	-3.24
355.044	7.56
355.256	-2.83
355.468	-10.75
355.679	-7.3
355.891	-0.87
356.103	-0.51
356.314	8.54
356.526	-0.26
356.738	-2.16
356.949	1.6
357.161	-3.82
357.373	-3.16
357.584	7.43
357.796	0.69
358.008	14.63
358.219	28.63
358.431	27.96
358.642	36.8
358.854	36.32
359.065	23.13
359.277	26.15
359.488	20.07
359.7	14.31
359.911	14.69
360.123	14.5
360.334	4.65
360.546	4.98
360.757	11.77
360.969	12.42
361.18	10.59
361.391	8.89
361.603	12.54
361.814	17.66
362.025	17.51
362.237	13.14
362.448	12.8
362.659	3.8
362.871	8.31
363.082	9.56
363.293	15.21
363.504	20.93
363.716	19.63
363.927	18.23
364.138	23.66
364.349	20.21
364.56	14.13
364.772	12.31
364.983	-0.48
365.194	-0.25
365.405	-3.73
365.616	-10.62
365.827	-8
366.038	0.83
366.25	-2.47
366.461	7.63
366.672	6.04
366.883	10.25
367.094	7.93
367.305	4.71
367.516	0.83
367.727	5.81
367.938	6.5
368.149	8.73
368.36	8.71
368.571	17.41
368.781	18.35
368.992	18.23
369.203	13.96
369.414	5.4
369.625	0.62
369.836	2.4
370.047	-5.56
370.258	-14.95
370.468	-23.97
370.679	-25.37
370.89	-0.65
371.101	0.07
371.312	-1.8
371.522	1.67
371.733	2.03
371.944	16.09
372.155	12.64
372.365	-1.85
372.576	-7.91
372.787	-10.14
372.997	-4.88
373.208	5.24
373.419	-9.13
373.629	6.42
373.84	1.33
374.05	8.92
374.261	12.48
374.472	8.43
374.682	1.1
374.893	1.03
375.103	-4.04
375.314	-1
375.524	0.46
375.735	0.92
375.945	-0.68
376.156	9.14
376.366	15.61
376.577	15.06
376.787	23.7
376.997	21.61
377.208	19.15
377.418	22.52
377.629	15.38
377.839	16.37
378.049	20.17
378.26	17.09
378.47	20.6
378.68	23.71
378.89	19.96
379.101	17.32
379.311	12.65
379.521	4.34
379.732	-7.61
379.942	-10.11
380.152	-6.29
380.362	1.44
380.572	2.77
380.783	3.25
380.993	2.18
381.203	8.44
381.413	14.96
381.623	11.58
381.833	3.74
382.043	2.62
382.253	3.08
382.463	12.55
382.674	10.19
382.884	0.93
383.094	-1.98
383.304	-2
383.514	7.06
383.724	5.91
383.934	-0.19
384.144	2.85
384.353	3.62
384.563	2.09
384.773	5.31
384.983	-0.42
385.193	4.09
385.403	6.66
385.613	2.24
385.823	2.17
386.033	2.35
386.242	-1.16
386.452	-2.57
386.662	-5.6
386.872	-7.94
387.082	-8.05
387.291	-5.38
387.501	-1.76
387.711	-0.3
387.921	0.11
388.13	-0.28
388.34	1.18
388.55	4.28
388.759	1.73
388.969	-0.21
389.179	2.08
389.388	3.97
389.598	2.9
389.807	1.85
390.017	0.26
390.227	1.05
390.436	0.31
390.646	0.19
390.855	1.16
391.065	2.6
391.274	1.42
391.484	2
391.693	3.43
391.903	3.97
392.112	2.87
392.322	3.57
392.531	3.27
392.74	3.47
392.95	5.05
393.159	4.62
393.369	4.92
393.578	4.98
393.787	3.99
393.997	4.94
394.206	5.38
394.415	4.76
394.625	3.95
394.834	2.5
395.043	2.54
395.252	2.16
395.462	1.06
395.671	0.98
395.88	0.74
396.089	1.13
396.298	1.95
396.508	1.61
396.717	1.35
396.926	1.18
397.135	1.16
397.344	1.09
397.553	1.61
397.762	1.49
397.971	1.67
398.181	1.54
398.39	1.85
398.599	2.1
398.808	1.83
399.017	1.72
399.226	1.95
399.435	1.94
399.644	2.03
399.853	2.1
400.062	2.11
400.27	2.3
400.479	2.23
400.688	2.22
400.897	2.43
401.106	2.48
401.315	2.4
401.524	2.43
401.733	2.51
401.941	2.32
402.15	2.12
402.359	2.12
402.568	2.12
402.777	2.08
402.985	2
403.194	1.87
403.403	1.7
403.612	1.77
403.82	1.76
404.029	1.79
404.238	1.94
404.446	1.84
404.655	1.8
404.864	1.85
405.072	1.92
405.281	1.69
405.489	1.69
405.698	1.49
405.906	1.52
406.115	1.64
406.324	1.67
406.532	1.66
406.741	1.74
406.949	1.66
407.158	1.77
407.366	1.84
407.574	1.84
407.783	1.76
407.991	1.66
408.2	1.71
408.408	1.8
408.617	1.72
408.825	1.72
409.033	1.69
409.242	1.76
409.45	1.83
409.658	1.77
409.867	1.74
410.075	1.75
410.283	1.57
410.491	1.43
410.7	1.43
410.908	1.42
411.116	1.4
411.324	1.49
411.533	1.42
411.741	1.49
411.949	1.63
412.157	1.68
412.365	1.68
412.573	1.71
412.781	1.66
412.99	1.78
413.198	1.82
413.406	1.77
413.614	1.78
413.822	1.74
414.03	1.65
414.238	1.7
414.446	1.58
414.654	1.58
414.862	1.54
415.07	1.56
415.278	1.56
415.486	1.73
415.694	1.55
415.902	1.56
416.109	1.59
416.317	1.54
416.525	1.53
416.733	1.56
416.941	1.44
417.149	1.64
417.357	1.65
417.564	1.59
417.772	1.75
417.98	1.71
418.188	1.61
418.395	1.54
418.603	1.29
418.811	1.32
419.019	1.31
419.226	1.32
419.434	1.25
419.642	1.25
419.849	1.29
420.057	1.43
420.265	1.33
420.472	1.34
420.68	1.22
420.887	1.29
421.095	1.33
421.302	1.42
421.51	1.48
421.717	1.69
421.925	1.53
422.132	1.52
422.34	1.52
422.547	1.52
422.755	1.43
422.962	1.23
423.17	1.11
423.377	1.34
423.585	1.38
423.792	1.31
423.999	1.27
424.207	1.27
424.414	1.38
424.621	1.5
424.829	1.38
425.036	1.4
425.243	1.43
425.451	1.46
425.658	1.53
425.865	1.45
426.072	1.45
426.28	1.44
426.487	1.42
426.694	1.42
426.901	1.27
427.108	1.24
427.315	1.23
427.523	1.15
427.73	1.22
427.937	1.23
428.144	1.19
428.351	1.35
428.558	1.27
428.765	1.27
428.972	1.25
429.179	1.13
429.386	1.14
429.593	1.08
429.8	1.12
430.007	1.22
430.214	1.31
430.421	1.38
430.628	1.3
430.835	1.28
431.042	1.43
431.249	1.47
431.456	1.42
431.662	1.47
431.869	1.49
432.076	1.63
432.283	1.61
432.49	1.54
432.697	1.47
432.903	1.5
433.11	1.46
433.317	1.48
433.524	1.4
433.73	1.42
433.937	1.38
434.144	1.46
434.35	1.51
434.557	1.45
434.764	1.38
434.97	1.49
435.177	1.45
435.384	1.5
435.59	1.45
435.797	1.39
436.003	1.45
436.21	1.42
436.416	1.35
436.623	1.41
436.829	1.4
437.036	1.43
437.242	1.51
437.449	1.51
437.655	1.56
437.862	1.62
438.068	1.68
438.275	1.67
438.481	1.7
438.687	1.69
438.894	1.67
439.1	1.68
439.307	1.65
439.513	1.6
439.719	1.66
439.926	1.62
440.132	1.58
440.338	1.63
440.544	1.61
440.751	1.67
440.957	1.63
441.163	1.66
441.369	1.63
441.575	1.6
441.782	1.59
441.988	1.55
442.194	1.55
442.4	1.63
442.606	1.65
442.812	1.71
443.018	1.73
443.224	1.7
443.431	1.74
443.637	1.67
443.843	1.67
444.049	1.56
444.255	1.54
444.461	1.53
444.667	1.53
444.873	1.51
445.079	1.57
445.284	1.5
445.49	1.48
445.696	1.47
445.902	1.53
446.108	1.57
446.314	1.63
446.52	1.6
446.726	1.69
446.931	1.76
447.137	1.78
447.343	1.75
447.549	1.71
447.755	1.67
447.96	1.63
448.166	1.65
448.372	1.67
448.578	1.66
448.783	1.64
448.989	1.67
449.195	1.65
449.4	1.74
449.606	1.63
449.812	1.65
450.017	1.68
450.223	1.69
450.428	1.7
450.634	1.75
450.84	1.72
451.045	1.8
451.251	1.81
451.456	1.81
451.662	1.82
451.867	1.8
452.073	1.77
452.278	1.76
452.483	1.74
452.689	1.7
452.894	1.7
453.1	1.66
453.305	1.66
453.51	1.67
453.716	1.71
453.921	1.7
454.127	1.69
454.332	1.69
454.537	1.83
454.742	1.83
454.948	1.84
455.153	1.8
455.358	1.87
455.563	1.91
455.769	1.9
455.974	1.82
456.179	1.79
456.384	1.78
456.589	1.82
456.795	1.7
457	1.73
457.205	1.71
457.41	1.73
457.615	1.78
457.82	1.77
458.025	1.75
458.23	1.8
458.435	1.67
458.64	1.76
458.845	1.72
459.05	1.7
459.255	1.73
459.46	1.69
459.665	1.76
459.87	1.8
460.075	1.75
460.28	1.83
460.485	1.84
460.69	1.76
460.895	1.85
461.099	1.8
461.304	1.82
461.509	1.76
461.714	1.72
461.919	1.74
462.123	1.81
462.328	1.75
462.533	1.73
462.738	1.73
462.942	1.8
463.147	1.83
463.352	1.8
463.556	1.79
463.761	1.79
463.966	1.81
464.17	1.83
464.375	1.8
464.58	1.74
464.784	1.74
464.989	1.76
465.193	1.78
465.398	1.82
465.602	1.8
465.807	1.83
466.011	1.9
466.216	1.94
466.42	1.94
466.625	1.97
466.829	1.95
467.034	2
467.238	2.01
467.443	1.99
467.647	2
467.851	2.02
468.056	2.03
468.26	2.04
468.464	2.02
468.669	2.04
468.873	2
469.077	2.01
469.282	2.02
469.486	2.03
469.69	2.02
469.894	2.06
470.099	2.04
470.303	2.1
470.507	2.1
470.711	2.09
470.915	2.1
471.119	2.13
471.324	2.1
471.528	2.12
471.732	2.14
471.936	2.16
472.14	2.19
472.344	2.21
472.548	2.27
472.752	2.31
472.956	2.32
473.16	2.3
473.364	2.27
473.568	2.23
473.772	2.26
473.976	2.18
474.18	2.14
474.384	2.16
474.588	2.19
474.792	2.19
474.995	2.23
475.199	2.2
475.403	2.2
475.607	2.24
475.811	2.25
476.015	2.27
476.218	2.32
476.422	2.33
476.626	2.34
476.83	2.37
477.033	2.35
477.237	2.34
477.441	2.35
477.644	2.34
477.848	2.34
478.052	2.36
478.255	2.37
478.459	2.44
478.663	2.43
478.866	2.37
479.07	2.41
479.273	2.38
479.477	2.4
479.681	2.39
479.884	2.31
480.088	2.34
480.291	2.38
480.495	2.37
480.698	2.39
480.901	2.39
481.105	2.46
481.308	2.49
481.512	2.48
481.715	2.49
481.919	2.49
482.122	2.5
482.325	2.51
482.529	2.51
482.732	2.56
482.935	2.57
483.138	2.63
483.342	2.66
483.545	2.65
483.748	2.68
483.952	2.67
484.155	2.69
484.358	2.69
484.561	2.68
484.764	2.68
484.967	2.71
485.171	2.66
485.374	2.68
485.577	2.67
485.78	2.68
485.983	2.66
486.186	2.65
486.389	2.64
486.592	2.69
486.795	2.73
486.998	2.75
487.201	2.76
487.404	2.84
487.607	2.88
487.81	2.9
488.013	2.92
488.216	2.85
488.419	2.82
488.622	2.79
488.825	2.75
489.028	2.73
489.231	2.74
489.433	2.71
489.636	2.71
489.839	2.73
490.042	2.75
490.245	2.76
490.447	2.74
490.65	2.77
490.853	2.81
491.056	2.8
491.258	2.83
491.461	2.81
491.664	2.8
491.866	2.87
492.069	2.86
492.272	2.86
492.474	2.91
492.677	2.91
492.879	2.96
493.082	3
493.285	2.97
493.487	2.95
493.69	2.94
493.892	2.96
494.095	2.97
494.297	3.01
494.5	3.03
494.702	3.08
494.905	3.15
495.107	3.2
495.309	3.22
495.512	3.26
495.714	3.25
495.917	3.25
496.119	3.31
496.321	3.37
496.524	3.39
496.726	3.41
496.928	3.46
497.13	3.52
497.333	3.57
497.535	3.56
497.737	3.52
497.939	3.55
498.142	3.56
498.344	3.55
498.546	3.61
498.748	3.59
498.95	3.62
499.152	3.65
499.355	3.68
499.557	3.75
499.759	3.82
499.961	3.83
500.163	3.88
500.365	3.87
500.567	3.87
500.769	3.89
500.971	3.86
501.173	3.83
501.375	3.81
501.577	3.84
501.779	3.9
501.981	3.98
502.183	3.98
502.385	3.99
502.587	4.04
502.788	4.07
502.99	4.08
503.192	4.1
503.394	4.09
503.596	4.16
503.798	4.27
503.999	4.28
504.201	4.29
504.403	4.31
504.605	4.34
504.806	4.35
505.008	4.33
505.21	4.29
505.411	4.33
505.613	4.34
505.815	4.37
506.016	4.39
506.218	4.38
506.42	4.42
506.621	4.44
506.823	4.45
507.024	4.5
507.226	4.49
507.427	4.44
507.629	4.51
507.83	4.48
508.032	4.51
508.233	4.52
508.435	4.54
508.636	4.55
508.838	4.62
509.039	4.61
509.24	4.64
509.442	4.57
509.643	4.57
509.845	4.57
510.046	4.58
510.247	4.6
510.448	4.61
510.65	4.66
510.851	4.72
511.052	4.74
511.254	4.72
511.455	4.74
511.656	4.74
511.857	4.74
512.058	4.74
512.26	4.76
512.461	4.76
512.662	4.76
512.863	4.74
513.064	4.74
513.265	4.77
513.466	4.78
513.667	4.78
513.868	4.76
514.069	4.81
514.27	4.8
514.471	4.8
514.672	4.78
514.873	4.8
515.074	4.79
515.275	4.78
515.476	4.77
515.677	4.81
515.878	4.84
516.079	4.86
516.28	4.82
516.481	4.8
516.682	4.85
516.882	4.85
517.083	4.82
517.284	4.78
517.485	4.79
517.686	4.82
517.886	4.84
518.087	4.82
518.288	4.81
518.488	4.81
518.689	4.82
518.89	4.85
519.091	4.82
519.291	4.79
519.492	4.77
519.692	4.8
519.893	4.79
520.094	4.81
520.294	4.76
520.495	4.76
520.695	4.78
520.896	4.79
521.096	4.77
521.297	4.77
521.497	4.76
521.698	4.77
521.898	4.81
522.099	4.84
522.299	4.82
522.499	4.82
522.7	4.83
522.9	4.82
523.101	4.83
523.301	4.76
523.501	4.77
523.702	4.78
523.902	4.78
524.102	4.78
524.302	4.77
524.503	4.79
524.703	4.84
524.903	4.84
525.103	4.87
525.304	4.85
525.504	4.85
525.704	4.89
525.904	4.88
526.104	4.88
526.304	4.86
526.504	4.84
526.705	4.88
526.905	4.87
527.105	4.87
527.305	4.85
527.505	4.86
527.705	4.84
527.905	4.84
528.105	4.82
528.305	4.83
528.505	4.81
528.705	4.83
528.905	4.83
529.105	4.86
529.304	4.91
529.504	4.93
529.704	4.95
529.904	4.96
530.104	4.93
530.304	4.95
530.503	4.92
530.703	4.92
530.903	4.95
531.103	4.93
531.303	4.97
531.502	4.96
531.702	4.93
531.902	4.95
532.101	4.96
532.301	4.93
532.501	4.95
532.7	4.92
532.9	4.97
533.1	4.98
533.299	5.01
533.499	5.01
533.698	5.04
533.898	5.05
534.097	5.08
534.297	5.11
534.496	5.15
534.696	5.15
534.895	5.19
535.095	5.19
535.294	5.16
535.494	5.18
535.693	5.17
535.892	5.15
536.092	5.14
536.291	5.15
536.491	5.16
536.69	5.18
536.889	5.16
537.088	5.18
537.288	5.23
537.487	5.23
537.686	5.23
537.886	5.24
538.085	5.32
538.284	5.34
538.483	5.36
538.682	5.37
538.882	5.41
539.081	5.42
539.28	5.42
539.479	5.42
539.678	5.46
539.877	5.47
540.076	5.46
540.275	5.49
540.474	5.49
540.673	5.56
540.872	5.57
541.071	5.57
541.27	5.59
541.469	5.61
541.668	5.62
541.867	5.66
542.066	5.64
542.265	5.67
542.464	5.7
542.663	5.74
542.862	5.77
543.06	5.78
543.259	5.79
543.458	5.81
543.657	5.82
543.856	5.86
544.054	5.9
544.253	5.9
544.452	5.89
544.651	5.92
544.849	5.94
545.048	5.96
545.247	5.99
545.445	5.98
545.644	6.01
545.843	6.09
546.041	6.1
546.24	6.16
546.438	6.2
546.637	6.21
546.836	6.26
547.034	6.3
547.233	6.33
547.431	6.35
547.63	6.38
547.828	6.42
548.027	6.43
548.225	6.47
548.423	6.51
548.622	6.51
548.82	6.58
549.019	6.61
549.217	6.68
549.415	6.74
549.614	6.74
549.812	6.79
550.01	6.88
550.209	6.93
550.407	6.98
550.605	7.01
550.803	7.06
551.002	7.09
551.2	7.15
551.398	7.16
551.596	7.2
551.794	7.25
551.993	7.24
552.191	7.34
552.389	7.44
552.587	7.44
552.785	7.5
552.983	7.53
553.181	7.58
553.379	7.67
553.577	7.66
553.775	7.72
553.973	7.8
554.171	7.85
554.369	7.91
554.567	7.93
554.765	7.96
554.963	8.02
555.161	8.06
555.359	8.06
555.557	8.17
555.755	8.25
555.952	8.32
556.15	8.4
556.348	8.5
556.546	8.59
556.744	8.72
556.941	8.75
557.139	8.84
557.337	8.9
557.535	8.99
557.732	9.06
557.93	9.12
558.128	9.18
558.325	9.24
558.523	9.28
558.721	9.38
558.918	9.46
559.116	9.48
559.313	9.55
559.511	9.6
559.708	9.64
559.906	9.71
560.104	9.78
560.301	9.84
560.498	9.92
560.696	10
560.893	10.07
561.091	10.21
561.288	10.28
561.486	10.37
561.683	10.46
561.88	10.56
562.078	10.58
562.275	10.71
562.473	10.75
562.67	10.83
562.867	10.91
563.064	11
563.262	11.09
563.459	11.19
563.656	11.25
563.853	11.3
564.051	11.39
564.248	11.46
564.445	11.53
564.642	11.61
564.839	11.75
565.036	11.85
565.234	11.98
565.431	12.06
565.628	12.12
565.825	12.25
566.022	12.3
566.219	12.36
566.416	12.42
566.613	12.51
566.81	12.56
567.007	12.6
567.204	12.59
567.401	12.67
567.598	12.69
567.795	12.75
567.991	12.8
568.188	12.86
568.385	12.98
568.582	13.09
568.779	13.15
568.976	13.26
569.172	13.33
569.369	13.39
569.566	13.42
569.763	13.5
569.96	13.51
570.156	13.55
570.353	13.57
570.55	13.62
570.746	13.66
570.943	13.78
571.14	13.79
571.336	13.83
571.533	13.89
571.729	13.95
571.926	13.98
572.123	14.04
572.319	14.03
572.516	14.07
572.712	14.09
572.909	14.16
573.105	14.21
573.302	14.26
573.498	14.28
573.695	14.31
573.891	14.34
574.087	14.41
574.284	14.38
574.48	14.34
574.677	14.35
574.873	14.39
575.069	14.48
575.266	14.48
575.462	14.49
575.658	14.57
575.854	14.64
576.051	14.65
576.247	14.65
576.443	14.64
576.639	14.65
576.835	14.68
577.032	14.67
577.228	14.69
577.424	14.72
577.62	14.76
577.816	14.77
578.012	14.81
578.208	14.79
578.404	14.83
578.6	14.87
578.796	14.89
578.993	14.87
579.189	14.84
579.384	14.81
579.58	14.84
579.776	14.77
579.972	14.73
580.168	14.67
580.364	14.67
580.56	14.67
580.756	14.61
580.952	14.59
581.148	14.59
581.343	14.57
581.539	14.58
581.735	14.58
581.931	14.56
582.127	14.58
582.322	14.59
582.518	14.56
582.714	14.59
582.909	14.59
583.105	14.55
583.301	14.56
583.496	14.57
583.692	14.52
583.888	14.51
584.083	14.54
584.279	14.54
584.474	14.55
584.67	14.55
584.866	14.57
585.061	14.6
585.257	14.67
585.452	14.62
585.648	14.62
585.843	14.66
586.039	14.64
586.234	14.63
586.429	14.63
586.625	14.58
586.82	14.55
587.015	14.57
587.211	14.58
587.406	14.61
587.601	14.62
587.797	14.61
587.992	14.64
588.187	14.73
588.383	14.72
588.578	14.66
588.773	14.67
588.968	14.71
589.163	14.72
589.359	14.73
589.554	14.68
589.749	14.72
589.944	14.76
590.139	14.79
590.334	14.75
590.529	14.86
590.724	14.89
590.919	14.96
591.114	14.98
591.309	15.02
591.504	15.06
591.699	15.07
591.894	15.09
592.089	15.13
592.284	15.09
592.479	15.09
592.674	15.1
592.869	15.14
593.064	15.3
593.259	15.32
593.454	15.33
593.648	15.39
593.843	15.46
594.038	15.47
594.233	15.49
594.428	15.47
594.622	15.51
594.817	15.59
595.012	15.65
595.206	15.69
595.401	15.81
595.596	15.9
595.79	15.96
595.985	16.01
596.18	16.1
596.374	16.19
596.569	16.27
596.763	16.36
596.958	16.42
597.153	16.45
597.347	16.52
597.542	16.58
597.736	16.64
597.931	16.7
598.125	16.74
598.319	16.75
598.514	16.8
598.708	16.89
598.903	16.98
599.097	17.02
599.291	17.08
599.486	17.12
599.68	17.19
599.874	17.29
600.069	17.31
600.263	17.32
600.457	17.38
600.651	17.36
600.846	17.41
601.04	17.44
601.234	17.44
601.428	17.48
601.622	17.48
601.817	17.52
602.011	17.63
602.205	17.64
602.399	17.7
602.593	17.69
602.787	17.69
602.981	17.73
603.175	17.69
603.369	17.67
603.563	17.73
603.757	17.73
603.951	17.79
604.145	17.8
604.339	17.8
604.533	17.75
604.727	17.72
604.921	17.65
605.115	17.63
605.309	17.6
605.502	17.58
605.696	17.53
605.89	17.62
606.084	17.57
606.278	17.51
606.471	17.43
606.665	17.36
606.859	17.34
607.053	17.29
607.246	17.2
607.44	17.15
607.634	17.1
607.827	17.06
608.021	16.99
608.214	16.92
608.408	16.9
608.602	16.88
608.795	16.79
608.989	16.81
609.182	16.81
609.376	16.76
609.569	16.7
609.763	16.68
609.956	16.57
610.15	16.54
610.343	16.46
610.537	16.38
610.73	16.34
610.923	16.3
611.117	16.19
611.31	16.19
611.504	16.17
611.697	16.11
611.89	16.03
612.083	15.98
612.277	15.87
612.47	15.82
612.663	15.72
612.856	15.61
613.05	15.54
613.243	15.45
613.436	15.36
613.629	15.33
613.822	15.27
614.015	15.2
614.209	15.19
614.402	15.16
614.595	15.11
614.788	15.02
614.981	14.97
615.174	14.91
615.367	14.87
615.56	14.77
615.753	14.67
615.946	14.61
616.139	14.59
616.332	14.48
616.525	14.46
616.718	14.4
616.911	14.41
617.103	14.38
617.296	14.34
617.489	14.32
617.682	14.34
617.875	14.28
618.067	14.23
618.26	14.16
618.453	14.09
618.646	14.04
618.838	13.99
619.031	13.91
619.224	13.9
619.417	13.89
619.609	13.86
619.802	13.88
619.994	13.86
620.187	13.82
620.38	13.8
620.572	13.75
620.765	13.68
620.957	13.63
621.15	13.6
621.342	13.62
621.535	13.6
621.727	13.58
621.92	13.54
622.112	13.59
622.305	13.58
622.497	13.54
622.69	13.46
622.882	13.46
623.074	13.46
623.267	13.4
623.459	13.36
623.651	13.34
623.844	13.3
624.036	13.32
624.228	13.27
624.42	13.25
624.613	13.24
624.805	13.23
624.997	13.18
625.189	13.23
625.381	13.19
625.574	13.17
625.766	13.14
625.958	13.15
626.15	13.15
626.342	13.16
626.534	13.11
626.726	13.11
626.918	13.1
627.11	13.07
627.302	13.04
627.494	13.01
627.686	12.98
627.878	12.94
628.07	12.88
628.262	12.82
628.454	12.79
628.646	12.74
628.838	12.67
629.029	12.54
629.221	12.51
629.413	12.44
629.605	12.41
629.797	12.42
629.989	12.39
630.18	12.36
630.372	12.43
630.564	12.42
630.755	12.42
630.947	12.39
631.139	12.28
631.33	12.24
631.522	12.21
631.714	12.17
631.905	12.11
632.097	12.11
632.289	12.11
632.48	12.08
632.672	12.07
632.863	12.01
633.055	12.03
633.246	12.09
633.438	12.07
633.629	12.05
633.821	12.11
634.012	12.13
634.203	12.22
634.395	12.16
634.586	12.08
634.777	12.01
634.969	12.02
635.16	11.97
635.351	11.93
635.543	11.87
635.734	11.87
635.925	11.93
636.117	11.96
636.308	11.9
636.499	11.88
636.69	11.92
636.881	11.93
637.073	11.95
637.264	11.86
637.455	11.89
637.646	11.93
637.837	11.94
638.028	11.93
638.219	11.88
638.41	11.85
638.601	11.87
638.792	11.83
638.983	11.79
639.174	11.8
639.365	11.77
639.556	11.77
639.747	11.8
639.938	11.77
640.129	11.78
640.32	11.75
640.511	11.75
640.701	11.71
640.892	11.66
641.083	11.62
641.274	11.61
641.465	11.54
641.655	11.59
641.846	11.51
642.037	11.51
642.228	11.53
642.418	11.45
642.609	11.41
642.8	11.43
642.99	11.42
643.181	11.43
643.372	11.42
643.562	11.38
643.753	11.41
643.943	11.39
644.134	11.37
644.324	11.34
644.515	11.31
644.705	11.3
644.896	11.28
645.086	11.24
645.277	11.28
645.467	11.29
645.658	11.25
645.848	11.22
646.038	11.18
646.229	11.21
646.419	11.24
646.61	11.19
646.8	11.15
646.99	11.15
647.18	11.2
647.371	11.22
647.561	11.18
647.751	11.14
647.941	11.09
648.132	11.08
648.322	11.08
648.512	11.02
648.702	11.01
648.892	11.03
649.082	11.03
649.272	11.02
649.462	11.03
649.653	11.02
649.843	10.98
650.033	10.95
650.223	10.88
650.413	10.87
650.603	10.89
650.793	10.77
650.983	10.73
651.172	10.71
651.362	10.67
651.552	10.61
651.742	10.56
651.932	10.53
652.122	10.56
652.312	10.43
652.502	10.42
652.691	10.4
652.881	10.38
653.071	10.31
653.261	10.21
653.45	10.17
653.64	10.23
653.83	10.14
654.019	9.97
654.209	9.88
654.399	9.81
654.588	9.78
654.778	9.73
654.968	9.59
655.157	9.48
655.347	9.47
655.536	9.31
655.726	9.25
655.915	9.11
656.105	8.96
656.294	8.89
656.484	8.82
656.673	8.73
656.863	8.7
657.052	8.54
657.241	8.42
657.431	8.32
657.62	8.15
657.809	7.99
657.999	7.84
658.188	7.74
658.377	7.69
658.567	7.58
658.756	7.44
658.945	7.35
659.134	7.25
659.324	7.17
659.513	6.98
659.702	6.85
659.891	6.7
660.08	6.63
660.269	6.57
660.458	6.49
660.648	6.4
660.837	6.39
661.026	6.32
661.215	6.3
661.404	6.21
661.593	6.13
661.782	6.04
661.971	5.96
662.16	5.85
662.349	5.77
662.538	5.74
662.726	5.61
662.915	5.52
663.104	5.42
663.293	5.31
663.482	5.21
663.671	5.1
663.86	4.96
664.048	4.98
664.237	4.92
664.426	4.89
664.615	4.86
664.803	4.81
664.992	4.86
665.181	4.81
665.369	4.69
665.558	4.62
665.747	4.66
665.935	4.65
666.124	4.65
666.312	4.56
666.501	4.57
666.69	4.56
666.878	4.56
667.067	4.52
667.255	4.5
667.444	4.51
667.632	4.53
667.82	4.54
668.009	4.53
668.197	4.54
668.386	4.48
668.574	4.53
668.762	4.49
668.951	4.45
669.139	4.47
669.327	4.49
669.516	4.52
669.704	4.54
669.892	4.49
670.08	4.45
670.269	4.51
670.457	4.5
670.645	4.49
670.833	4.51
671.021	4.48
671.21	4.53
671.398	4.59
671.586	4.59
671.774	4.6
671.962	4.69
672.15	4.7
672.338	4.82
672.526	4.81
672.714	4.85
672.902	4.91
673.09	5.01
673.278	4.94
673.466	5.06
673.654	5.05
673.842	5.15
674.03	5.24
674.218	5.25
674.405	5.29
674.593	5.41
674.781	5.39
674.969	5.5
675.157	5.57
675.344	5.58
675.532	5.67
675.72	5.69
675.908	5.73
676.095	5.86
676.283	5.82
676.471	5.91
676.658	6
676.846	6.07
677.033	6.08
677.221	6.19
677.409	6.22
677.596	6.41
677.784	6.41
677.971	6.43
678.159	6.51
678.346	6.62
678.534	6.68
678.721	6.72
678.909	6.7
679.096	6.78
679.283	6.89
679.471	6.99
679.658	7.1
679.846	7.2
680.033	7.34
680.22	7.47
680.408	7.54
680.595	7.63
680.782	7.68
680.969	7.71
681.157	7.76
681.344	7.84
681.531	7.9
681.718	8.07
681.905	8.17
682.093	8.37
682.28	8.58
682.467	8.72
682.654	8.79
682.841	8.91
683.028	9.03
683.215	9.13
683.402	9.18
683.589	9.22
683.776	9.3
683.963	9.43
684.15	9.58
684.337	9.71
684.524	9.87
684.711	9.97
684.898	10.14
685.085	10.36
685.271	10.61
685.458	10.82
685.645	10.96
685.832	11.2
686.019	11.48
686.205	11.68
686.392	11.92
686.579	12.08
686.766	12.32
686.952	12.74
687.139	12.98
687.326	13.29
687.512	13.57
687.699	13.79
687.886	14.11
688.072	14.55
688.259	14.72
688.445	15.03
688.632	15.51
688.818	15.91
689.005	16.47
689.191	16.86
689.378	17.12
689.564	17.61
689.751	18.15
689.937	18.43
690.124	18.98
690.31	19.34
690.496	19.79
690.683	20.34
690.869	20.81
691.055	21.3
691.242	21.8
691.428	22.34
691.614	22.92
691.8	23.52
691.987	24.1
692.173	24.66
692.359	25.34
692.545	25.92
692.731	26.46
692.918	27
693.104	27.6
693.29	28.22
693.476	28.91
693.662	29.37
693.848	29.91
694.034	30.43
694.22	31.06
694.406	31.74
694.592	32.26
694.778	32.76
694.964	33.37
695.15	34.06
695.336	34.81
695.522	35.47
695.708	36.04
695.894	36.81
696.08	37.38
696.265	37.98
696.451	38.7
696.637	39.23
696.823	39.77
697.009	40.36
697.194	40.86
697.38	41.59
697.566	42.2
697.751	42.82
697.937	43.37
698.123	44.03
698.308	44.49
698.494	45.08
698.68	45.67
698.865	46.4
699.051	46.98
699.236	47.61
699.422	48.16
699.607	48.84
699.793	49.35
699.978	49.84
700.164	50.17
700.349	50.57
700.535	51.03
700.72	51.54
700.906	51.94
701.091	52.31
701.276	52.78
701.462	53.37
701.647	53.75
701.832	54.23
702.018	54.62
702.203	55.01
702.388	55.57
702.573	56.15
702.759	56.48
702.944	57.06
703.129	57.48
703.314	57.98
703.499	58.49
703.684	58.91
703.87	59.07
704.055	59.52
704.24	59.84
704.425	60.29
704.61	60.46
704.795	60.9
704.98	61.14
705.165	61.67
705.35	62.06
705.535	62.46
705.72	62.76
705.905	63.19
706.09	63.35
706.275	63.56
706.459	63.88
706.644	64.06
706.829	64.22
707.014	64.36
707.199	64.53
707.384	64.92
707.568	65.34
707.753	65.49
707.938	65.64
708.123	65.77
708.307	66.26
708.492	66.44
708.677	66.53
708.861	66.58
709.046	66.55
709.231	66.95
709.415	67.26
709.6	67.2
709.784	67.56
709.969	67.82
710.153	68.04
710.338	68.4
710.522	68.35
710.707	68.21
710.891	68.59
711.076	68.49
711.26	68.84
711.445	69.07
711.629	69.3
711.813	69.64
711.998	70.03
712.182	69.98
712.366	70.38
712.551	70.32
712.735	70.47
712.919	70.82
713.103	70.76
713.288	71.09
713.472	71.32
713.656	71.27
713.84	71.39
714.024	71.61
714.208	71.61
714.393	71.89
714.577	72.02
714.761	72.33
714.945	72.43
715.129	72.58
715.313	72.72
715.497	72.87
715.681	73.28
715.865	73.23
716.049	73.38
716.233	73.8
716.417	74.18
716.601	74.16
716.785	74.22
716.968	73.88
717.152	74.08
717.336	74.07
717.52	74.08
717.704	74.18
717.888	74.58
718.071	74.6
718.255	74.89
718.439	74.82
718.622	74.71
718.806	74.54
718.99	74.51
719.174	74.38
719.357	74.51
719.541	74.56
719.724	74.74
719.908	74.87
720.092	75.28
720.275	75.46
720.459	75.7
720.642	75.89
720.826	75.91
721.009	76.01
721.193	76.09
721.376	76
721.559	75.93
721.743	75.78
721.926	75.75
722.11	76.05
722.293	75.79
722.476	75.95
722.66	76.03
722.843	76.39
723.026	76.83
723.21	76.84
723.393	77.05
723.576	77.41
723.759	77.65
723.942	77.91
724.126	77.76
724.309	77.55
724.492	77.64
724.675	77.64
724.858	78.14
725.041	78.4
725.224	78.39
725.407	78.56
725.59	78.69
725.774	78.96
725.957	79.14
726.14	79.14
726.322	79.12
726.505	79.6
726.688	79.76
726.871	79.92
727.054	79.9
727.237	79.55
727.42	79.83
727.603	79.83
727.786	79.67
727.968	80.01
728.151	80.37
728.334	80.49
728.517	81.1
728.699	80.92
728.882	81.42
729.065	81.68
729.248	81.48
729.43	81.11
729.613	81.7
729.796	81.66
729.978	82.04
730.161	81.99
730.343	82.41
730.526	82.57
730.708	83.39
730.891	83.29
731.073	83.26
731.256	83.21
731.438	83.65
731.621	83.64
731.803	83.89
731.986	83.57
732.168	83.49
732.35	84.17
732.533	84.35
732.715	84.11
732.898	83.97
733.08	84.63
733.262	84.82
733.444	84.93
733.627	84.53
733.809	84.69
733.991	85.07
734.173	85.31
734.355	85.27
734.538	85.38
734.72	85.79
734.902	85.87
735.084	86.13
735.266	85.81
735.448	86.21
735.63	85.85
735.812	86.11
735.994	85.94
736.176	86.52
736.358	86.66
736.54	86.44
736.722	86.05
736.904	86.13
737.086	85.98
737.268	86.3
737.45	86.36
737.632	85.82
737.814	85.98
737.995	86.28
738.177	86.79
738.359	86.95
738.541	86.75
738.723	86.55
738.904	86.88
739.086	87.5
739.268	88.02
739.449	88.07
739.631	88.44
739.813	88.39
739.994	88.95
740.176	88.98
740.358	88.77
740.539	88.48
740.721	88.07
740.902	87.99
741.084	88.49
741.265	88.19
741.447	87.9
741.628	87.84
741.81	87.53
741.991	88.06
742.172	87.96
742.354	88.15
742.535	88.56
742.717	88.89
742.898	90.02
743.079	90.07
743.261	90.21
743.442	90.32
743.623	90
743.804	89.69
743.986	89.79
744.167	88.78
744.348	89.59
744.529	88.82
744.71	88.69
744.891	88.72
745.073	88.59
745.254	88.88
745.435	88.46
745.616	87.56
745.797	87.52
745.978	88.35
746.159	88.16
746.34	88.68
746.521	88.41
746.702	88.64
746.883	88.94
747.064	89.18
747.245	89.27
747.426	89.45
747.606	89.1
747.787	89.56
747.968	90.47
748.149	90.55
748.33	91.23
748.51	90.54
748.691	90.54
748.872	90.72
749.053	89.95
749.233	89.38
749.414	89.27
749.595	87.94
749.775	87.68
749.956	87.73
750.137	87.22
750.317	87.86
750.498	87.56
750.678	88.35
750.859	89.04
751.04	89.15
751.22	88.51
751.4	88.98
751.581	88.44
751.761	89.04
751.942	88.04
752.122	87.87
752.303	88.45
752.483	89.65
752.663	89.58
752.844	89.54
753.024	89.15
753.204	89.07
753.385	89.13
753.565	87.85
753.745	87.2
753.925	86.76
754.106	87.6
754.286	87.41
754.466	87.26
754.646	87
754.826	87.72
755.006	87.48
755.187	87.19
755.367	86.91
755.547	87.09
755.727	87.24
755.907	88.36
756.087	88.31
756.267	88.23
756.447	88.98
756.627	88.37
756.807	88.65
756.987	89.01
757.167	88.68
757.346	88.08
757.526	88.26
757.706	88.11
757.886	88.41
758.066	88.46
758.246	88.5
758.425	88.62
758.605	88.92
758.785	88.41
758.965	87.51
759.144	87.86
759.324	87.84
759.504	87.81
759.683	87.01
759.863	87.35
760.043	88.29
760.222	88.57
760.402	89.15
760.581	88.32
760.761	87.82
760.94	87.81
761.12	87.45
761.299	86.48
761.479	87.07
761.658	85.43
761.838	86.91
762.017	87.34
762.197	87.76
762.376	87.69
762.555	87.55
762.735	86.71
762.914	87.55
763.093	85.95
763.273	85.28
763.452	84.84
763.631	83.67
763.81	84.43
763.99	86.43
764.169	85.95
764.348	86.48
764.527	87.04
764.706	86.94
764.885	88.5
765.064	88.28
765.243	86.5
765.423	87.4
765.602	86.96
765.781	86.24
765.96	86.8
766.139	86.28
766.318	86.49
766.497	87.46
766.676	86.79
766.854	87.4
767.033	87.91
767.212	87.79
767.391	87.75
767.57	87.59
767.749	87.06
767.928	86.52
768.106	86.22
768.285	86.38
768.464	86.1
768.643	86.59
768.821	86.8
769	87.65
769.179	87.46
769.357	86.99
769.536	85.73
769.715	85.57
769.893	84.6
770.072	84.46
770.25	82.53
770.429	82.91
770.607	83.37
770.786	84.03
770.964	83.28
771.143	83.15
771.321	81.88
771.5	81.94
771.678	82.15
771.857	81.84
772.035	81.85
772.213	81.99
772.392	82.42
772.57	83.7
772.748	84.2
772.927	84.13
773.105	84.46
773.283	84.65
773.461	84.96
773.64	85.33
773.818	83.73
773.996	83.7
774.174	84.39
774.352	83.5
774.531	82.98
774.709	83.41
774.887	83.08
775.065	83.96
775.243	85.07
775.421	83.33
775.599	83.18
775.777	82.62
775.955	81.87
776.133	80.67
776.311	80.23
776.489	78.89
776.667	79.23
776.844	79.35
777.022	79.26
777.2	78.53
777.378	80.23
777.556	81.77
777.734	81.92
777.911	83.17
778.089	83.19
778.267	84.09
778.445	84.78
778.622	82.74
778.8	81.38
778.978	81.78
779.155	79.74
779.333	79.15
779.511	79.1
779.688	77.68
779.866	78.62
780.043	78.75
780.221	78.15
780.398	80.08
780.576	80.68
780.753	78.76
780.931	80.84
781.108	81.5
781.286	80.93
781.463	80.67
781.64	80.34
781.818	80.95
781.995	83.68
782.172	82.79
782.35	80.79
782.527	82.82
782.704	81.84
782.882	81.62
783.059	80.5
783.236	80.93
783.413	79.94
783.59	80.28
783.768	77.32
783.945	78.48
784.122	77.85
784.299	77.66
784.476	75.75
784.653	75.46
784.83	75.02
785.007	76.18
785.184	75.44
785.361	74.55
785.538	74.97
785.715	75.33
785.892	77.21
786.069	78.5
786.246	78.11
786.423	76.99
786.6	77.51
786.776	76.67
786.953	75.69
787.13	75.95
787.307	74.91
787.484	75.44
787.66	76.16
787.837	77.04
788.014	78.01
788.191	78.64
788.367	78
788.544	77.61
788.721	78.63
788.897	81.74
789.074	80.22
789.25	81.48
789.427	80.74
789.603	83.01
789.78	85.09
789.956	82.95
790.133	82.86
790.309	84.66
790.486	84.45
790.662	87.42
790.839	86.96
791.015	87.23
791.192	87.69
791.368	86.37
791.544	85.81
791.721	84.15
791.897	83.01
792.073	80.38
792.249	80.5
792.426	82.01
792.602	81.49
792.778	81.39
792.954	81.7
793.13	83.14
793.307	82.38
793.483	82.1
793.659	81.32
793.835	80.69
794.011	79.56
794.187	77.1
794.363	75.72
794.539	76.72
794.715	74.79
794.891	72.69
795.067	73.93
795.243	74.4
795.419	78.02
795.595	76.15
795.771	77.13
795.947	76.6
796.122	78.67
796.298	77.29
796.474	78.27
796.65	76.7
796.826	81.34
797.001	80.75
797.177	81.85
797.353	81.54
797.529	79.58
797.704	76
797.88	74.65
798.056	70.42
798.231	67.98
798.407	68.93
798.582	70.07
798.758	75.44
798.934	77.7
799.109	78.96
799.285	79.1
799.46	80.73
799.636	79.02
799.811	79.36
799.986	76.47
800.162	77.22
800.337	76.89
800.513	78.73
800.688	82.35
800.863	84.15
801.039	78.9
801.214	78.34
801.389	77.82
801.565	78.78
801.74	76.04
801.915	73.06
802.09	72.53
802.265	76.82
802.441	76.22
802.616	76.72
802.791	75.94
802.966	77.38
803.141	73.15
803.316	75.92
803.491	69.78
803.666	67.59
803.841	68.79
804.016	68.61
804.191	66.56
804.366	71.21
804.541	67.24
804.716	69.76
804.891	74.72
805.066	72.79
805.241	71.67
805.416	71.7
805.591	71.35
805.765	76.03
805.94	80.86
806.115	76.8
806.29	77.26
806.464	76.83
806.639	78.06
806.814	74.9
806.989	68.69
807.163	65.55
807.338	66.24
807.512	60.51
807.687	62.18
807.862	59.15
808.036	61.48
808.211	63.81
808.385	60.05
808.56	65.86
808.734	69.25
808.909	67.84
809.083	70.78
809.258	71.83
809.432	68.53
809.606	74.35
809.781	70.54
809.955	75.51
810.13	79.8
810.304	78.44
810.478	79.6
810.652	85.59
810.827	81.8
811.001	81.18
811.175	74.33
811.349	72.05
811.524	71.49
811.698	71.14
811.872	70.55
812.046	72.12
812.22	71.96
812.394	76.27
812.568	78.01
812.742	78.68
812.916	79.52
813.09	75.48
813.264	75.36
813.438	80.36
813.612	73.71
813.786	72.76
813.96	76.89
814.134	75.17
814.308	72.64
814.482	73.12
814.656	70.86
814.83	79.99
815.003	78.28
815.177	74.29
815.351	73.65
815.525	72.54
815.698	71.53
815.872	66.67
816.046	59.64
816.219	62.8
816.393	58.63
816.567	56.77
816.74	61.31
816.914	62.07
817.088	62.92
817.261	66.15
817.435	61.38
817.608	65.1
817.782	70.65
817.955	71.42
818.129	71.14
818.302	69.88
818.475	73.51
818.649	74.44
818.822	81.27
818.996	78.8
819.169	76.07
819.342	69.63
819.516	74.94
819.689	75.33
819.862	75.32
820.035	70.48
820.209	67.44
820.382	68.69
820.555	76.47
820.728	67.18
820.901	58.8
821.075	62.25
821.248	61.62
821.421	61.31
821.594	64.58
821.767	62.01
821.94	62.31
822.113	66.74
822.286	63.93
822.459	75.62
822.632	80.01
822.805	74.08
822.978	69.68
823.151	75.84
823.324	67.91
823.496	65.34
823.669	52.1
823.842	49.18
824.015	43.72
824.188	47.93
824.361	42.91
824.533	53.37
824.706	58.72
824.879	65.52
825.051	65.63
825.224	71.54
825.397	70.84
825.569	80.98
825.742	78.79
825.915	76.18
826.087	70.21
826.26	75.06
826.432	77.19
826.605	73.87
826.777	68.2
826.95	61.02
827.122	52.24
827.295	56.53
827.467	47.41
827.64	35.87
827.812	38.41
827.984	36.52
828.157	44.2
828.329	42.74
828.501	43.45
828.674	44.41
828.846	50.39
829.018	46.82
829.19	48.46
829.363	43.47
829.535	49.33
829.707	45.77
829.879	48.9
830.051	52.56
830.223	48.47
830.395	48.69
830.568	52.02
830.74	55.4
830.912	53.54
831.084	50.83
831.256	45.14
831.428	43.27
831.6	39.77
831.772	35.41
831.943	31.66
832.115	35.98
832.287	31.21
832.459	40.3
832.631	47.83
832.803	55.15
832.975	60.55
833.146	53.78
833.318	58.71
833.49	70.38
833.662	64.63
833.833	68.19
834.005	62.22
834.177	60.34
834.348	62.39
834.52	63.57
834.692	58.1
834.863	56.04
835.035	50.9
835.206	52.18
835.378	44.93
835.549	52.95
835.721	48.43
835.892	46.31
836.064	55.76
836.235	60.65
836.407	55.48
836.578	61.37
836.749	55.65
836.921	54.07
837.092	63.81
837.264	50.89
837.435	39.34
837.606	53.77
837.777	51.25
837.949	48.73
838.12	42.47
838.291	42.3
838.462	43.87
838.633	46.11
838.805	31.87
838.976	34.7
839.147	33.41
839.318	37.03
839.489	23.97
839.66	31.24
839.831	29.4
840.002	38.47
840.173	30
840.344	32.37
840.515	33.63
840.686	47.6
840.857	46.21
841.028	50.16
841.199	43.66
841.369	44.46
841.54	46.58
841.711	56.07
841.882	45.95
842.053	42.06
842.223	47.12
842.394	48.12
842.565	58.54
842.736	54.36
842.906	48.03
843.077	58.78
843.248	60.91
843.418	54.14
843.589	54.78
843.759	50.97
843.93	57.19
844.101	57.37
844.271	42.01
844.442	40.16
844.612	37.88
844.783	30.92
844.953	31.88
845.123	39.52
845.294	29.25
845.464	53.16
845.635	60.68
845.805	74.87
845.975	71.52
846.146	69.94
846.316	77.04
846.486	84.38
846.656	78.45
846.827	77.11
846.997	85.04
847.167	82.48
847.337	88.63
847.507	83.96
847.677	86.63
847.848	89.26
848.018	71.41
848.188	48.44
848.358	44.85
848.528	37.22
848.698	15.38
848.868	-5.17
849.038	8.43
849.208	28.25
849.378	30.7
849.548	42.75
849.718	38.08
849.887	38.46
850.057	35.68
850.227	19.26
850.397	11.11
850.567	14.44
850.737	14.91
850.906	27.29
851.076	32.7
851.246	57.61
851.415	65.46
851.585	70.05
851.755	66.94
851.924	63.52
852.094	60.92
852.264	58.72
852.433	54.07
852.603	57.93
852.772	45.61
852.942	39.42
853.111	42.34
853.281	28.96
853.45	38.6
853.62	23.83
853.789	27.76
853.959	33.67
854.128	24.74
854.297	25.58
854.467	32.09
854.636	30.78
854.805	47.45
854.975	45.07
855.144	52.67
855.313	67.24
855.482	61.23
855.652	67.31
855.821	72.65
855.99	79.67
856.159	61.29
856.328	54.5
856.497	53.06
856.667	66.26
856.836	71.69
857.005	64
857.174	68.11
857.343	80.63
857.512	64.15
857.681	63.8
857.85	61.18
858.019	50.87
858.188	57.61
858.356	16.54
858.525	8.49
858.694	26.9
858.863	23.06
859.032	15.69
859.201	-19.74
859.369	3.64
859.538	3.17
859.707	15.15
859.876	19.89
860.044	30.31
860.213	21.96
860.382	52.85
860.55	59.12
860.719	80.56
860.888	77.66
861.056	77.38
861.225	80.32
861.393	92.14
861.562	74.91
861.73	53.77
861.899	45.35
862.067	45.83
862.236	51.95
862.404	38.72
862.572	30.76
862.741	33.9
862.909	29.45
863.078	21.3
863.246	14.58
863.414	19.68
863.582	19.78
863.751	20
863.919	35.85
864.087	44.05
864.255	41.81
864.424	46.28
864.592	45.09
864.76	44.1
864.928	50.03
865.096	38.51
865.264	44.06
865.432	50.95
865.6	39.6
865.768	23.63
865.936	34.5
866.104	35.96
866.272	39.61
866.44	7.06
866.608	13.5
866.776	48.63
866.944	23.84
867.112	-5.91
867.28	-19.26
867.448	-3.91
867.615	27.4
867.783	6.37
867.951	-15.7
868.119	36.07
868.286	21.33
868.454	40.32
868.622	35.39
868.789	40.96
868.957	52.06
869.125	46.71
869.292	47.42
869.46	61.73
869.627	47.84
869.795	45.79
869.963	38.14
870.13	49.8
870.298	56.69
870.465	39.66
870.632	61.4
870.8	47.4
870.967	38.62
871.135	37.56
871.302	31.71
871.469	15.64
871.637	24.4
871.804	13.49
871.971	18.09
872.139	18.6
872.306	1.37
872.473	-17.81
872.64	-1.88
872.807	-12.85
872.975	24.18
873.142	15.75
873.309	43.5
873.476	120.58
873.643	145.16
873.81	92.88
873.977	40.04
874.144	-7.01
874.311	-30.2
874.478	-63.16
874.645	-45.86
874.812	5.95
874.979	10.76
875.146	2.52
875.313	-23.6
875.48	72.78
875.647	84.65
875.813	32.85
875.98	-26.06
876.147	31.74
876.314	42.43
876.481	24.59
876.647	17.95
876.814	31.53
876.981	22.77
877.147	17.72
877.314	12.51
877.481	26.53
877.647	55.87
877.814	38.64
877.98	28.91
878.147	67.38
878.314	81.59
878.48	69.19
878.647	95.38
878.813	86.79
878.979	124.96
879.146	95.27
879.312	84.57
879.479	76.25
879.645	60.53
879.811	42.56
879.978	32.28
880.144	28.95
880.31	24.5
880.477	10.03
880.643	-50.38
880.809	31.75
880.975	-16.16
881.142	-17.63
881.308	-30.4
881.474	31.13
881.64	18.17
881.806	21.6
881.972	0.9
882.138	3.3
882.304	-38.8
882.47	-50.16
882.636	-126.25
882.802	-213.76
882.968	-371.21
883.134	-641.26
883.3	-255.19
883.466	-72.78
883.632	-58.82
883.798	-30.26
883.964	-17.48
884.129	4.73
884.295	20.86
884.461	1.75
884.627	-47.12
884.793	8.64
884.958	-1.87
885.124	-3.93
885.29	-6.79
885.455	0.59
885.621	-10.89
885.787	-15.37
885.952	-30.95
886.118	1.72
886.283	3.27
886.449	-13.58
886.614	-4.82
886.78	34.5
886.945	21.46
887.111	13.85
887.276	-20.56
887.442	-8
887.607	-14
887.773	-30.54
887.938	-53.46
888.103	-21.54
888.269	-30.15
888.434	-30.11
888.599	-2.61
888.764	19.02
888.93	29.82
889.095	12.47
889.26	46.34
889.425	86.19
889.59	49.88
889.756	31.32
889.921	17.07
890.086	14.68
890.251	-5.62
890.416	-66.48
890.581	-37.79
890.746	-24.45
890.911	-69.3
891.076	-109.57
891.241	-96.4
891.406	-3.97
891.571	10.91
891.736	-43.83
891.901	-30.39
892.065	-7.63
892.23	-18.14
892.395	-35.61
892.56	-30.89
892.725	-44.58
892.889	-48.79
893.054	-97.61
893.219	-143.25
893.384	-203.9
893.548	-490
893.713	1049.01
893.878	488.04
