Data from Ofra_PS_T2_2A_0GT01_Reflection_2.txt Node
Date: Wed Jul 21 16:50:45 EDT 2021
User: Adam
Spectrometer: FLMT01687
Trigger mode: 0
Integration Time (sec): 1.100000E0
Scans to average: 2
Electric dark correction enabled: true
Nonlinearity correction enabled: false
Boxcar width: 2
XAxis mode: Wavelengths
Number of Pixels in Spectrum: 3648
>>>>>Begin Spectral Data<<<<<
179.494	391.6
179.716	448.71
179.937	443.85
180.158	456.62
180.38	815.31
180.601	374.31
180.823	111.13
181.044	-62.8
181.265	-128.31
181.486	-99.06
181.708	-19.52
181.929	-13.27
182.15	-282.39
182.372	7.26
182.593	-100.17
182.814	-38.64
183.035	16.78
183.257	52.32
183.478	7.77
183.699	27.6
183.92	30.55
184.141	-14.29
184.363	-89.56
184.584	-64
184.805	-58.47
185.026	-54.52
185.247	-26.49
185.468	-17.66
185.689	-33.83
185.91	-11.13
186.132	-22.01
186.353	-10.52
186.574	21.85
186.795	48.15
187.016	-15.55
187.237	-15.93
187.458	-68.32
187.679	-79.47
187.9	-83.42
188.121	-36.65
188.342	-39.26
188.563	8.64
188.784	11.75
189.005	25
189.226	15.77
189.447	32.19
189.667	-135.19
189.888	-282.02
190.109	-1000.65
190.33	-413.87
190.551	-854.42
190.772	-179.3
190.993	-168.85
191.214	-147.27
191.434	-110.14
191.655	-61.04
191.876	-138.45
192.097	-159.88
192.318	-196.62
192.538	-269.06
192.759	-150.16
192.98	-62.06
193.201	-1.37
193.421	13.32
193.642	22.23
193.863	19.75
194.083	5.88
194.304	-17.65
194.525	-22.75
194.745	-63.65
194.966	-52.86
195.187	-23.26
195.407	-16.26
195.628	-45.13
195.848	-29.83
196.069	-2.06
196.29	-11.19
196.51	-14.63
196.731	-9.27
196.951	-25.52
197.172	-65.95
197.392	-100.79
197.613	-109.13
197.833	-123.17
198.054	-85.79
198.274	-30.61
198.495	-27.79
198.715	10.8
198.936	-6.57
199.156	-1.29
199.377	-58.34
199.597	-63.74
199.817	-121.12
200.038	-68.11
200.258	-128.28
200.479	-112.53
200.699	-101.15
200.919	-19.27
201.14	-28.35
201.36	-24.11
201.58	12.79
201.801	16.52
202.021	-20.09
202.241	-14.2
202.461	-15.97
202.682	-98.64
202.902	-101.66
203.122	-39.8
203.342	-34.22
203.563	9.53
203.783	32.09
204.003	2.77
204.223	9.97
204.443	23.67
204.663	-52.12
204.884	-38.49
205.104	-25.05
205.324	-36.26
205.544	-34.16
205.764	24.67
205.984	27.06
206.204	39.6
206.424	32.77
206.644	22.52
206.864	7.44
207.084	-5.71
207.304	-39.48
207.525	-119.84
207.745	-34.8
207.964	23.79
208.184	-14.29
208.404	-17.17
208.624	-10.92
208.844	-46.81
209.064	-249.42
209.284	-273.45
209.504	-172.7
209.724	-61.7
209.944	-26.6
210.164	-8.56
210.384	-5.15
210.604	-12.47
210.823	-52.48
211.043	-46.83
211.263	-30.07
211.483	-14.77
211.703	-36.14
211.922	-11.78
212.142	15.17
212.362	4.87
212.582	-2.74
212.801	-5.01
213.021	-13.22
213.241	-32.25
213.461	-47.01
213.68	-36.17
213.9	-43.71
214.12	-26.46
214.339	-51.45
214.559	-30.18
214.779	-6.86
214.998	9.01
215.218	-34.7
215.438	-15.26
215.657	-28.79
215.877	-60.34
216.096	-23.55
216.316	-3.21
216.535	-21.52
216.755	-11.79
216.974	-65.67
217.194	-132.34
217.413	-99.68
217.633	-84.6
217.852	-157.68
218.072	-64.3
218.291	-4.97
218.511	2.31
218.73	-14.2
218.95	5.12
219.169	8.8
219.389	-20.96
219.608	-7.09
219.827	-7.22
220.047	-13.95
220.266	-14.35
220.485	-8.26
220.705	-8.5
220.924	-10.42
221.143	15.21
221.363	4.37
221.582	8.03
221.801	-9.99
222.021	8.6
222.24	-52.72
222.459	5.77
222.678	-18.98
222.897	-45.49
223.117	-63.29
223.336	-55.46
223.555	-67.05
223.774	2.2
223.993	19.14
224.213	39.31
224.432	13.4
224.651	44.9
224.87	13.9
225.089	27.19
225.308	32.27
225.527	41.8
225.746	33.63
225.965	26.32
226.184	14.51
226.404	14.08
226.623	2.9
226.842	3.92
227.061	33.28
227.28	32.46
227.499	19.8
227.718	36.33
227.936	35.74
228.155	14.13
228.374	23.42
228.593	20.34
228.812	6.8
229.031	6.51
229.25	-8.09
229.469	-25.04
229.688	-1.45
229.907	22.89
230.125	13.64
230.344	2.08
230.563	9.34
230.782	14.51
231.001	-60.06
231.22	-29.59
231.438	-20.87
231.657	-7.49
231.876	-20.53
232.095	17.94
232.313	-2.81
232.532	-3.6
232.751	-47.06
232.969	-50.6
233.188	-109.6
233.407	-24.71
233.625	-11.06
233.844	2.16
234.063	0.99
234.281	11.23
234.5	-3.19
234.719	4.19
234.937	9.71
235.156	6.36
235.374	5.31
235.593	-20.47
235.811	-22.15
236.03	-26.8
236.249	-44.83
236.467	-41.73
236.686	22.06
236.904	12.91
237.123	-9.31
237.341	-3.34
237.559	15.52
237.778	-11.25
237.996	-17.34
238.215	17.41
238.433	20.66
238.652	-2.26
238.87	-9.14
239.088	-11.39
239.307	-18.23
239.525	-19.84
239.743	-23.84
239.962	-17.8
240.18	-17
240.398	-41.73
240.617	-53.35
240.835	-48.1
241.053	-28.84
241.271	-1.16
241.49	10.04
241.708	5.34
241.926	-18.81
242.144	-31.91
242.363	-68.79
242.581	-86.25
242.799	-62.44
243.017	-16.21
243.235	-21.28
243.453	1.36
243.672	11.64
243.89	18.94
244.108	7.84
244.326	30.85
244.544	34.83
244.762	22.77
244.98	34.68
245.198	39.9
245.416	13.53
245.634	-8.1
245.852	-6.92
246.07	-30.04
246.288	-37.6
246.506	-73.77
246.724	-39.16
246.942	-17.23
247.16	-9.9
247.378	-3.3
247.596	26.51
247.814	20.98
248.032	11.23
248.25	18.97
248.468	13.95
248.685	13.41
248.903	20.56
249.121	11.83
249.339	6.79
249.557	2.43
249.775	1.58
249.992	-23.96
250.21	-15.05
250.428	-12.05
250.646	-33.87
250.863	-33.18
251.081	-16.4
251.299	-42.03
251.517	-31.44
251.734	-3.4
251.952	-6.58
252.17	-0.64
252.387	17.69
252.605	8.51
252.823	6
253.04	14.85
253.258	15.93
253.475	-10.64
253.693	10.57
253.911	10.69
254.128	9.41
254.346	0.04
254.563	-0.34
254.781	-24.98
254.998	-32.01
255.216	-46.59
255.433	-39.33
255.651	-1.07
255.868	-7.12
256.086	23.1
256.303	33.4
256.521	32.23
256.738	16.87
256.956	-8.28
257.173	-44.99
257.39	-71.35
257.608	-97.46
257.825	-83.21
258.043	-61.4
258.26	-50.1
258.477	-4.29
258.695	-7.77
258.912	-22.79
259.129	3.97
259.346	-11.48
259.564	-52.93
259.781	-71.78
259.998	-25.15
260.216	-22.92
260.433	15.41
260.65	3.28
260.867	16.18
261.084	-6.98
261.302	-33.1
261.519	-39.67
261.736	-28.91
261.953	-48.03
262.17	-20.54
262.387	-39.72
262.604	-86.34
262.822	-80.42
263.039	-45.87
263.256	-71.41
263.473	-21.76
263.69	8.29
263.907	27.97
264.124	16.02
264.341	7.86
264.558	0.18
264.775	14.77
264.992	7.56
265.209	4.76
265.426	17.69
265.643	32.95
265.86	28.67
266.077	28.14
266.294	42.66
266.51	14.64
266.727	-20.02
266.944	-15.45
267.161	-26.84
267.378	-43.75
267.595	-20.02
267.812	-34.73
268.028	-68.25
268.245	-77.8
268.462	-59.97
268.679	-61.12
268.896	-11.72
269.112	-9.96
269.329	-1.21
269.546	5.29
269.763	3.3
269.979	-7.32
270.196	0.88
270.413	-19.07
270.629	-32.9
270.846	-37.29
271.063	-29.9
271.279	-30.17
271.496	-10.23
271.712	23.11
271.929	20.16
272.146	-14.33
272.362	4.14
272.579	10.77
272.795	6.81
273.012	29.28
273.228	60.04
273.445	33.24
273.661	34.09
273.878	14.42
274.094	7.07
274.311	-41.3
274.527	0.61
274.744	-1.3
274.96	-15.68
275.177	-17.14
275.393	9.07
275.609	-18.79
275.826	-9.03
276.042	-14.02
276.259	-27.04
276.475	-8.76
276.691	7.67
276.908	-0.6
277.124	9.47
277.34	18.09
277.557	2.32
277.773	-10.41
277.989	-19.21
278.205	-22.85
278.422	-12.82
278.638	-14.66
278.854	8.08
279.07	21.29
279.286	26.94
279.503	-4.96
279.719	-13.38
279.935	-56.99
280.151	-69.94
280.367	-55.65
280.583	-74.07
280.799	-55.11
281.016	-70.04
281.232	-38.92
281.448	-41.54
281.664	-10.29
281.88	-30.88
282.096	-1.81
282.312	15.4
282.528	4.48
282.744	7.01
282.96	13.56
283.176	0.7
283.392	-5.17
283.608	-3.17
283.824	4.59
284.04	4.16
284.256	12.86
284.471	5.67
284.687	8.64
284.903	9.32
285.119	26.28
285.335	17.97
285.551	15.88
285.767	13.86
285.982	7.53
286.198	-11.4
286.414	14.79
286.63	16.51
286.846	22.82
287.061	5.02
287.277	24.12
287.493	-2
287.709	11.91
287.924	6.04
288.14	44.57
288.356	41.5
288.571	60.49
288.787	30.1
289.003	22.79
289.218	1.06
289.434	-12.38
289.65	-27.65
289.865	-22.59
290.081	-14.62
290.296	-12.42
290.512	-10.12
290.727	-22.01
290.943	-31.08
291.159	-19.41
291.374	-34
291.59	-60.81
291.805	-33.7
292.021	-3.76
292.236	-8.4
292.451	10.14
292.667	26.52
292.882	35.71
293.098	21.43
293.313	3.99
293.529	-2.06
293.744	-30.74
293.959	-46.04
294.175	-30.55
294.39	1.94
294.605	8.56
294.821	23.52
295.036	34
295.251	32.15
295.467	17.04
295.682	-6.28
295.897	-36.84
296.112	-52.2
296.328	-41.16
296.543	-52.14
296.758	-6.99
296.973	13.91
297.188	36.76
297.404	17.2
297.619	7.29
297.834	-7.01
298.049	-8.74
298.264	-54.34
298.479	-22.09
298.694	-12.57
298.909	-17.43
299.125	-11.95
299.34	-4.03
299.555	-13.81
299.77	-15.45
299.985	-29.04
300.2	-53.56
300.415	-65.7
300.63	-45.55
300.845	-41.63
301.06	-44.35
301.275	-30.69
301.49	1.21
301.704	-5.65
301.919	-25.54
302.134	-22.03
302.349	-23.74
302.564	-92
302.779	-100.06
302.994	-78.92
303.209	-35.41
303.423	-12.72
303.638	34.54
303.853	10.25
304.068	9.85
304.283	-2.78
304.497	-2.89
304.712	-14.39
304.927	-16
305.142	-16.08
305.356	-20.73
305.571	-21.83
305.786	-35.04
306	-34.1
306.215	-39.68
306.43	-35.35
306.644	-19.5
306.859	30.76
307.074	40.32
307.288	30.46
307.503	11.79
307.717	-1.49
307.932	-17.53
308.147	-40.27
308.361	-46.03
308.576	-37.45
308.79	-79.6
309.005	-72.13
309.219	-55
309.434	-50
309.648	-29.95
309.863	-6.11
310.077	2.67
310.292	1.65
310.506	-2.74
310.72	7.95
310.935	0.35
311.149	-7.84
311.364	5.08
311.578	25.06
311.792	15.9
312.007	20.08
312.221	17.26
312.435	13.19
312.649	0.7
312.864	-33.54
313.078	-34.98
313.292	-6
313.507	-46.3
313.721	-58.96
313.935	8.25
314.149	-1.5
314.363	-6.09
314.578	11.63
314.792	16.84
315.006	12.98
315.22	25.94
315.434	18.64
315.648	8.92
315.862	4.37
316.077	-2.08
316.291	-10.79
316.505	6.83
316.719	18.91
316.933	-7.99
317.147	10.11
317.361	-32.18
317.575	-54.32
317.789	-80.14
318.003	-133.31
318.217	-110
318.431	-36.26
318.645	7.4
318.859	17.04
319.073	35.12
319.287	25.04
319.5	16.65
319.714	-16.92
319.928	-35.75
320.142	-57.36
320.356	-36.52
320.57	-35.57
320.784	-38.81
320.997	-29.91
321.211	-26.72
321.425	-41.61
321.639	-64.05
321.853	-37.36
322.066	-20.79
322.28	-10.96
322.494	-10.65
322.707	13.11
322.921	22.03
323.135	7.89
323.349	21.59
323.562	12.55
323.776	-0.62
323.989	-0.3
324.203	-12.45
324.417	-42.79
324.63	-54.91
324.844	-44.2
325.057	-55.65
325.271	-36.43
325.485	0.74
325.698	15.87
325.912	19.83
326.125	-1.09
326.339	6.69
326.552	-21.21
326.766	-20.88
326.979	-21.45
327.193	7.02
327.406	-10.53
327.619	-7.4
327.833	-0.99
328.046	-19.89
328.26	-32.97
328.473	-14.97
328.686	-30.81
328.9	-43.06
329.113	-10.97
329.326	-12.13
329.54	-2.25
329.753	0.77
329.966	21.81
330.179	19.63
330.393	11.54
330.606	7.82
330.819	14.15
331.032	25.33
331.246	21.79
331.459	32.83
331.672	28.7
331.885	26.33
332.098	6.41
332.311	8.4
332.525	-13.02
332.738	-6.04
332.951	5.92
333.164	17.41
333.377	18.13
333.59	25.03
333.803	37.56
334.016	26.27
334.229	27.25
334.442	28.01
334.655	31.25
334.868	30.45
335.081	38.46
335.294	25.82
335.507	24.66
335.72	20.79
335.933	-1.51
336.146	-6.82
336.359	-8.37
336.572	-38
336.785	-62.35
336.997	-53.16
337.21	-33.01
337.423	-27.16
337.636	-11.4
337.849	2.03
338.062	-5.25
338.274	-19.6
338.487	-20.62
338.7	-22.92
338.913	-34.89
339.125	-51.51
339.338	-77.71
339.551	-91.85
339.763	-74.72
339.976	-37.52
340.189	-1.96
340.402	6.49
340.614	16.45
340.827	15.05
341.039	7.19
341.252	3.03
341.465	23.24
341.677	20.56
341.89	-6.89
342.102	-4.49
342.315	-18.67
342.527	-60.39
342.74	-45.3
342.952	-29.53
343.165	-32.76
343.377	-22.93
343.59	-18.97
343.802	-13.84
344.015	-9.77
344.227	-4.19
344.44	-2.96
344.652	10.87
344.864	1.1
345.077	23.56
345.289	17.16
345.502	14.56
345.714	0.69
345.926	9.39
346.139	-6.28
346.351	0.44
346.563	15.85
346.775	19.26
346.988	15.94
347.2	10.62
347.412	-17.52
347.624	-49.28
347.837	-56.31
348.049	-56.06
348.261	-18.22
348.473	-8.35
348.685	10.06
348.897	24.3
349.11	-1.68
349.322	-38.7
349.534	-22.46
349.746	-26.46
349.958	-33.1
350.17	-3.85
350.382	24.61
350.594	21.88
350.806	28.52
351.018	15.94
351.23	-4
351.442	-46.6
351.654	-45.16
351.866	-55.56
352.078	-42.37
352.29	-13.26
352.502	1.54
352.714	0.79
352.926	0.29
353.138	-0.1
353.35	0.02
353.561	1.08
353.773	-9.12
353.985	-0.69
354.197	1.79
354.409	-5.99
354.621	-14.82
354.832	-3.8
355.044	-11.48
355.256	-16.12
355.468	-3.05
355.679	0.91
355.891	11.9
356.103	5.38
356.314	14.1
356.526	14.89
356.738	10.14
356.949	-9.18
357.161	-0.5
357.373	-16.08
357.584	-22.52
357.796	-9.1
358.008	-9.01
358.219	4.35
358.431	9.46
358.642	17.81
358.854	13.13
359.065	0.98
359.277	-22.98
359.488	-26.12
359.7	-43.13
359.911	-45.95
360.123	-27.67
360.334	-28.42
360.546	-37.85
360.757	-45.3
360.969	-34.11
361.18	-28.43
361.391	-20.02
361.603	-12.72
361.814	-15.21
362.025	-19.88
362.237	-27.24
362.448	-23.4
362.659	-8.89
362.871	-1.9
363.082	-5.39
363.293	-6.19
363.504	-14.33
363.716	-35.97
363.927	-34.21
364.138	-39.38
364.349	-37.86
364.56	-22.37
364.772	-21.65
364.983	3.82
365.194	2.12
365.405	7.54
365.616	11.14
365.827	18.33
366.038	-18.92
366.25	-20.31
366.461	-38.56
366.672	-17.05
366.883	-9.11
367.094	-1.79
367.305	0.5
367.516	-2.3
367.727	-28.85
367.938	-33.72
368.149	-26.06
368.36	-13.44
368.571	-9.2
368.781	-21.69
368.992	-31.04
369.203	-47.11
369.414	-80.05
369.625	-80.3
369.836	-57.8
370.047	-77.21
370.258	-58.61
370.468	-43.75
370.679	-45.86
370.89	-40.58
371.101	-24.55
371.312	-27.85
371.522	-14.91
371.733	-8.06
371.944	-5.33
372.155	1.49
372.365	-6.32
372.576	-14.18
372.787	-15.5
372.997	-33.22
373.208	-22.45
373.419	-11.11
373.629	-31.51
373.84	-25.15
374.05	-25.24
374.261	-22.62
374.472	-17.66
374.682	10.24
374.893	1.76
375.103	22.9
375.314	14.21
375.524	16.96
375.735	17.14
375.945	31.25
376.156	15.38
376.366	13.66
376.577	-1.92
376.787	2.46
376.997	-3.25
377.208	4.18
377.418	4.05
377.629	21.54
377.839	8.52
378.049	10.71
378.26	13.57
378.47	16.22
378.68	8.12
378.89	4.05
379.101	-1.44
379.311	-13.18
379.521	-19.76
379.732	-12.91
379.942	-7.15
380.152	-19.92
380.362	1.27
380.572	0.91
380.783	5.27
380.993	15.4
381.203	30.5
381.413	30.32
381.623	42.22
381.833	40.68
382.043	29.15
382.253	17.12
382.463	10.45
382.674	-3.2
382.884	-19.9
383.094	-11.34
383.304	6.01
383.514	4.76
383.724	4.39
383.934	8.13
384.144	-5.07
384.353	-16.46
384.563	-11.33
384.773	-6.75
384.983	-13.27
385.193	6.47
385.403	9.15
385.613	6.46
385.823	4.73
386.033	11.03
386.242	2.97
386.452	-0.77
386.662	-1.52
386.872	4.31
387.082	1.44
387.291	-5.12
387.501	-6.83
387.711	0.16
387.921	-5.06
388.13	-5.27
388.34	7.17
388.55	-0.14
388.759	-4.66
388.969	1.22
389.179	2.14
389.388	-1.56
389.598	5.7
389.807	0.63
390.017	-5.62
390.227	-4.88
390.436	-3.25
390.646	-2.25
390.855	2.72
391.065	3.46
391.274	2.91
391.484	-0.51
391.693	-0.55
391.903	0.01
392.112	4.28
392.322	7.11
392.531	10.41
392.74	10.46
392.95	7.21
393.159	7.01
393.369	5.8
393.578	5.59
393.787	5.31
393.997	7.41
394.206	6.09
394.415	6.7
394.625	4.91
394.834	3.84
395.043	4.37
395.252	5.75
395.462	6.41
395.671	6.82
395.88	8.53
396.089	8.73
396.298	6.97
396.508	6.43
396.717	6.33
396.926	5.8
397.135	5.15
397.344	6.25
397.553	6.39
397.762	7.24
397.971	7.73
398.181	7.75
398.39	7.33
398.599	7.35
398.808	7.06
399.017	7.15
399.226	7.95
399.435	8.55
399.644	8.37
399.853	8.25
400.062	7.85
400.27	7.51
400.479	6.81
400.688	6.74
400.897	6.92
401.106	7.51
401.315	7.88
401.524	8.29
401.733	8.44
401.941	9.08
402.15	8.8
402.359	8.43
402.568	8.82
402.777	9.05
402.985	8.6
403.194	8.79
403.403	8.75
403.612	8.35
403.82	8.1
404.029	8.25
404.238	8.04
404.446	8.3
404.655	8.17
404.864	8.06
405.072	7.75
405.281	7.91
405.489	7.84
405.698	7.98
405.906	8.2
406.115	8.25
406.324	8.1
406.532	8.08
406.741	8.17
406.949	8.23
407.158	8.5
407.366	8.53
407.574	8.7
407.783	8.66
407.991	8.39
408.2	8.27
408.408	8.26
408.617	8.03
408.825	7.87
409.033	7.95
409.242	7.85
409.45	7.96
409.658	7.81
409.867	7.87
410.075	7.8
410.283	7.81
410.491	7.61
410.7	7.6
410.908	7.65
411.116	7.73
411.324	7.61
411.533	7.6
411.741	7.82
411.949	7.59
412.157	7.55
412.365	7.75
412.573	7.7
412.781	7.63
412.99	7.79
413.198	7.8
413.406	7.69
413.614	7.65
413.822	7.49
414.03	7.42
414.238	7.33
414.446	7.25
414.654	7.21
414.862	7.31
415.07	7.45
415.278	7.45
415.486	7.49
415.694	7.5
415.902	7.33
416.109	7.06
416.317	7.04
416.525	6.87
416.733	6.84
416.941	6.93
417.149	7.05
417.357	7.07
417.564	7.16
417.772	7.36
417.98	7.28
418.188	7.13
418.395	7.14
418.603	7.19
418.811	6.97
419.019	6.97
419.226	7.27
419.434	7.3
419.642	7.2
419.849	7.17
420.057	7.09
420.265	7
420.472	7.03
420.68	7.11
420.887	7.08
421.095	7.06
421.302	6.97
421.51	6.79
421.717	6.7
421.925	6.78
422.132	6.8
422.34	6.6
422.547	6.63
422.755	6.54
422.962	6.38
423.17	6.39
423.377	6.63
423.585	6.59
423.792	6.71
423.999	6.83
424.207	6.83
424.414	6.74
424.621	6.72
424.829	6.64
425.036	6.68
425.243	6.87
425.451	6.77
425.658	6.72
425.865	6.79
426.072	6.85
426.28	6.78
426.487	6.78
426.694	6.76
426.901	6.63
427.108	6.46
427.315	6.52
427.523	6.79
427.73	6.74
427.937	6.87
428.144	6.79
428.351	6.61
428.558	6.53
428.765	6.51
428.972	6.32
429.179	6.51
429.386	6.63
429.593	6.39
429.8	6.46
430.007	6.7
430.214	6.66
430.421	6.5
430.628	6.54
430.835	6.5
431.042	6.54
431.249	6.72
431.456	6.81
431.662	6.9
431.869	7
432.076	6.97
432.283	6.8
432.49	6.91
432.697	6.87
432.903	6.69
433.11	6.75
433.317	6.86
433.524	6.82
433.73	6.98
433.937	7.29
434.144	7.21
434.35	7.19
434.557	7.1
434.764	6.96
434.97	6.77
435.177	6.9
435.384	6.91
435.59	7
435.797	7.41
436.003	7.55
436.21	7.52
436.416	7.61
436.623	7.72
436.829	7.52
437.036	7.68
437.242	7.66
437.449	7.47
437.655	7.4
437.862	7.37
438.068	7.18
438.275	7.28
438.481	7.49
438.687	7.53
438.894	7.62
439.1	7.75
439.307	7.85
439.513	7.8
439.719	7.8
439.926	7.8
440.132	7.78
440.338	7.69
440.544	7.79
440.751	7.86
440.957	7.99
441.163	8
441.369	8.13
441.575	8.04
441.782	7.98
441.988	7.82
442.194	7.77
442.4	7.69
442.606	7.89
442.812	8.01
443.018	8.08
443.224	8.09
443.431	8.23
443.637	8.07
443.843	7.99
444.049	8
444.255	7.99
444.461	7.93
444.667	7.95
444.873	8.01
445.079	8.04
445.284	8.17
445.49	8.05
445.696	8.03
445.902	8.04
446.108	7.97
446.314	8.02
446.52	8.1
446.726	8.34
446.931	8.4
447.137	8.48
447.343	8.44
447.549	8.42
447.755	8.28
447.96	8.28
448.166	8.28
448.372	8.2
448.578	8.27
448.783	8.24
448.989	8.29
449.195	8.39
449.4	8.5
449.606	8.49
449.812	8.42
450.017	8.48
450.223	8.5
450.428	8.42
450.634	8.4
450.84	8.5
451.045	8.41
451.251	8.32
451.456	8.53
451.662	8.61
451.867	8.67
452.073	8.67
452.278	8.76
452.483	8.79
452.689	8.7
452.894	8.71
453.1	8.65
453.305	8.66
453.51	8.61
453.716	8.64
453.921	8.64
454.127	8.65
454.332	8.51
454.537	8.46
454.742	8.43
454.948	8.36
455.153	8.44
455.358	8.6
455.563	8.66
455.769	8.77
455.974	8.82
456.179	8.76
456.384	8.72
456.589	8.71
456.795	8.57
457	8.6
457.205	8.68
457.41	8.74
457.615	8.69
457.82	8.83
458.025	8.69
458.23	8.63
458.435	8.56
458.64	8.52
458.845	8.61
459.05	8.69
459.255	8.84
459.46	8.89
459.665	8.97
459.87	8.97
460.075	9.02
460.28	8.95
460.485	8.99
460.69	8.9
460.895	8.75
461.099	8.73
461.304	8.91
461.509	8.9
461.714	8.94
461.919	9.01
462.123	9
462.328	8.94
462.533	8.93
462.738	9.02
462.942	8.96
463.147	9.03
463.352	9.06
463.556	9.09
463.761	9.1
463.966	9.12
464.17	9.15
464.375	9.09
464.58	9
464.784	9.02
464.989	9
465.193	8.96
465.398	8.93
465.602	9.09
465.807	9
466.011	9.11
466.216	9.19
466.42	9.24
466.625	9.2
466.829	9.36
467.034	9.45
467.238	9.51
467.443	9.5
467.647	9.51
467.851	9.49
468.056	9.5
468.26	9.43
468.464	9.51
468.669	9.55
468.873	9.75
469.077	9.66
469.282	9.79
469.486	9.75
469.69	9.7
469.894	9.45
470.099	9.47
470.303	9.53
470.507	9.54
470.711	9.58
470.915	9.61
471.119	9.65
471.324	9.6
471.528	9.68
471.732	9.71
471.936	9.73
472.14	9.78
472.344	9.81
472.548	9.8
472.752	9.94
472.956	10.13
473.16	10.15
473.364	10.06
473.568	10.05
473.772	9.94
473.976	9.86
474.18	9.85
474.384	9.92
474.588	9.93
474.792	10
474.995	10.03
475.199	10.05
475.403	10.07
475.607	10.02
475.811	9.95
476.015	10.04
476.218	10.09
476.422	10.07
476.626	10.22
476.83	10.4
477.033	10.26
477.237	10.23
477.441	10.28
477.644	10.27
477.848	10.11
478.052	10.11
478.255	10.14
478.459	10.16
478.663	10.18
478.866	10.31
479.07	10.41
479.273	10.49
479.477	10.49
479.681	10.44
479.884	10.42
480.088	10.38
480.291	10.32
480.495	10.29
480.698	10.32
480.901	10.31
481.105	10.39
481.308	10.39
481.512	10.46
481.715	10.55
481.919	10.64
482.122	10.67
482.325	10.69
482.529	10.77
482.732	10.67
482.935	10.58
483.138	10.54
483.342	10.65
483.545	10.67
483.748	10.8
483.952	10.9
484.155	10.98
484.358	10.94
484.561	10.89
484.764	10.82
484.967	10.83
485.171	10.91
485.374	10.86
485.577	10.92
485.78	10.97
485.983	10.94
486.186	10.84
486.389	10.88
486.592	10.92
486.795	10.91
486.998	10.97
487.201	11.01
487.404	11.07
487.607	11.05
487.81	11.08
488.013	11.06
488.216	11.01
488.419	11.01
488.622	11.03
488.825	10.96
489.028	10.92
489.231	10.91
489.433	10.84
489.636	10.79
489.839	10.88
490.042	10.83
490.245	10.86
490.447	10.95
490.65	10.99
490.853	11.01
491.056	11.16
491.258	11.24
491.461	11.23
491.664	11.3
491.866	11.25
492.069	11.21
492.272	11.09
492.474	11.11
492.677	11.11
492.879	11.17
493.082	11.2
493.285	11.3
493.487	11.39
493.69	11.3
493.892	11.3
494.095	11.25
494.297	11.32
494.5	11.28
494.702	11.39
494.905	11.38
495.107	11.44
495.309	11.43
495.512	11.48
495.714	11.55
495.917	11.59
496.119	11.6
496.321	11.68
496.524	11.72
496.726	11.73
496.928	11.77
497.13	11.76
497.333	11.68
497.535	11.65
497.737	11.67
497.939	11.72
498.142	11.81
498.344	11.85
498.546	11.82
498.748	11.78
498.95	11.78
499.152	11.78
499.355	11.85
499.557	11.97
499.759	12.09
499.961	12.16
500.163	12.15
500.365	12.2
500.567	12.17
500.769	12.12
500.971	12.14
501.173	12.18
501.375	12.15
501.577	12.21
501.779	12.2
501.981	12.22
502.183	12.32
502.385	12.36
502.587	12.36
502.788	12.51
502.99	12.48
503.192	12.48
503.394	12.48
503.596	12.49
503.798	12.52
503.999	12.68
504.201	12.7
504.403	12.76
504.605	12.84
504.806	12.71
505.008	12.67
505.21	12.72
505.411	12.72
505.613	12.74
505.815	12.85
506.016	12.92
506.218	12.94
506.42	13.03
506.621	13.08
506.823	13.12
507.024	13.12
507.226	13.19
507.427	13.17
507.629	13.17
507.83	13.24
508.032	13.28
508.233	13.39
508.435	13.53
508.636	13.64
508.838	13.63
509.039	13.68
509.24	13.6
509.442	13.59
509.643	13.56
509.845	13.63
510.046	13.71
510.247	13.77
510.448	13.71
510.65	13.75
510.851	13.87
511.052	13.82
511.254	13.85
511.455	14.05
511.656	14.06
511.857	14.08
512.058	14.12
512.26	14.15
512.461	14.12
512.662	14.21
512.863	14.19
513.064	14.26
513.265	14.27
513.466	14.32
513.667	14.37
513.868	14.39
514.069	14.44
514.27	14.52
514.471	14.48
514.672	14.57
514.873	14.56
515.074	14.57
515.275	14.5
515.476	14.54
515.677	14.47
515.878	14.6
516.079	14.6
516.28	14.69
516.481	14.76
516.682	14.82
516.882	14.78
517.083	14.79
517.284	14.83
517.485	14.85
517.686	14.82
517.886	14.88
518.087	14.88
518.288	14.94
518.488	14.97
518.689	14.98
518.89	14.92
519.091	15
519.291	14.98
519.492	15
519.692	15.03
519.893	15.11
520.094	15.16
520.294	15.17
520.495	15.22
520.695	15.28
520.896	15.37
521.096	15.36
521.297	15.41
521.497	15.38
521.698	15.39
521.898	15.36
522.099	15.33
522.299	15.41
522.499	15.42
522.7	15.46
522.9	15.53
523.101	15.63
523.301	15.67
523.501	15.76
523.702	15.82
523.902	15.8
524.102	15.88
524.302	15.89
524.503	15.98
524.703	15.97
524.903	16.03
525.103	15.93
525.304	15.9
525.504	15.89
525.704	15.96
525.904	15.95
526.104	16.01
526.304	16.07
526.504	16.08
526.705	16.08
526.905	16.18
527.105	16.18
527.305	16.23
527.505	16.18
527.705	16.19
527.905	16.15
528.105	16.2
528.305	16.16
528.505	16.26
528.705	16.27
528.905	16.32
529.105	16.33
529.304	16.38
529.504	16.41
529.704	16.46
529.904	16.45
530.104	16.45
530.304	16.51
530.503	16.49
530.703	16.46
530.903	16.47
531.103	16.52
531.303	16.49
531.502	16.57
531.702	16.7
531.902	16.76
532.101	16.74
532.301	16.84
532.501	16.81
532.7	16.77
532.9	16.78
533.1	16.82
533.299	16.84
533.499	16.89
533.698	16.88
533.898	16.9
534.097	16.94
534.297	16.95
534.496	16.96
534.696	16.96
534.895	17.04
535.095	17.08
535.294	17.11
535.494	17.11
535.693	17.2
535.892	17.21
536.092	17.24
536.291	17.25
536.491	17.35
536.69	17.4
536.889	17.39
537.088	17.41
537.288	17.44
537.487	17.45
537.686	17.47
537.886	17.56
538.085	17.59
538.284	17.63
538.483	17.61
538.682	17.64
538.882	17.67
539.081	17.72
539.28	17.79
539.479	17.84
539.678	17.88
539.877	17.92
540.076	17.98
540.275	17.94
540.474	18.04
540.673	17.97
540.872	17.98
541.071	18.02
541.27	18.09
541.469	18.06
541.668	18.15
541.867	18.22
542.066	18.27
542.265	18.37
542.464	18.5
542.663	18.55
542.862	18.64
543.06	18.69
543.259	18.7
543.458	18.69
543.657	18.75
543.856	18.73
544.054	18.7
544.253	18.76
544.452	18.77
544.651	18.9
544.849	18.95
545.048	19.03
545.247	19.03
545.445	19.12
545.644	19.14
545.843	19.23
546.041	19.32
546.24	19.46
546.438	19.56
546.637	19.63
546.836	19.71
547.034	19.76
547.233	19.79
547.431	19.86
547.63	19.88
547.828	19.94
548.027	19.97
548.225	20.03
548.423	20.03
548.622	20.15
548.82	20.2
549.019	20.34
549.217	20.41
549.415	20.5
549.614	20.55
549.812	20.58
550.01	20.54
550.209	20.61
550.407	20.71
550.605	20.75
550.803	20.83
551.002	20.96
551.2	21.05
551.398	21.07
551.596	21.22
551.794	21.28
551.993	21.38
552.191	21.45
552.389	21.64
552.587	21.63
552.785	21.77
552.983	21.87
553.181	22
553.379	21.99
553.577	22.14
553.775	22.12
553.973	22.2
554.171	22.28
554.369	22.4
554.567	22.48
554.765	22.67
554.963	22.71
555.161	22.7
555.359	22.75
555.557	22.86
555.755	22.91
555.952	23.09
556.15	23.26
556.348	23.24
556.546	23.31
556.744	23.36
556.941	23.41
557.139	23.58
557.337	23.82
557.535	23.93
557.732	24.04
557.93	24.13
558.128	24.12
558.325	24.16
558.523	24.2
558.721	24.35
558.918	24.42
559.116	24.5
559.313	24.6
559.511	24.73
559.708	24.72
559.906	24.75
560.104	24.9
560.301	24.99
560.498	25.09
560.696	25.22
560.893	25.36
561.091	25.43
561.288	25.55
561.486	25.68
561.683	25.79
561.88	25.91
562.078	26.09
562.275	26.17
562.473	26.28
562.67	26.42
562.867	26.5
563.064	26.51
563.262	26.55
563.459	26.55
563.656	26.63
563.853	26.74
564.051	26.91
564.248	27.12
564.445	27.29
564.642	27.39
564.839	27.56
565.036	27.7
565.234	27.84
565.431	27.97
565.628	28.01
565.825	28.11
566.022	28.2
566.219	28.25
566.416	28.34
566.613	28.53
566.81	28.58
567.007	28.54
567.204	28.6
567.401	28.67
567.598	28.72
567.795	28.92
567.991	29.05
568.188	29.21
568.385	29.29
568.582	29.38
568.779	29.4
568.976	29.53
569.172	29.61
569.369	29.53
569.566	29.59
569.763	29.56
569.96	29.52
570.156	29.44
570.353	29.62
570.55	29.72
570.746	29.87
570.943	29.96
571.14	30
571.336	29.94
571.533	29.93
571.729	29.91
571.926	29.96
572.123	30.05
572.319	30.2
572.516	30.24
572.712	30.27
572.909	30.27
573.105	30.43
573.302	30.44
573.498	30.51
573.695	30.54
573.891	30.58
574.087	30.5
574.284	30.53
574.48	30.46
574.677	30.5
574.873	30.61
575.069	30.63
575.266	30.72
575.462	30.79
575.658	30.9
575.854	30.93
576.051	30.95
576.247	30.92
576.443	30.93
576.639	30.88
576.835	30.78
577.032	30.78
577.228	30.88
577.424	30.92
577.62	30.85
577.816	30.92
578.012	30.93
578.208	30.88
578.404	30.94
578.6	31.06
578.796	31.09
578.993	31.12
579.189	31.1
579.384	30.98
579.58	30.86
579.776	30.86
579.972	30.79
580.168	30.75
580.364	30.9
580.56	30.93
580.756	30.83
580.952	30.83
581.148	30.83
581.343	30.72
581.539	30.84
581.735	30.92
581.931	30.95
582.127	31.04
582.322	31.03
582.518	30.97
582.714	31
582.909	31.06
583.105	31
583.301	30.91
583.496	30.98
583.692	30.91
583.888	30.84
584.083	30.9
584.279	31.07
584.474	31.03
584.67	30.98
584.866	30.99
585.061	30.81
585.257	30.71
585.452	30.7
585.648	30.73
585.843	30.79
586.039	30.89
586.234	30.9
586.429	30.82
586.625	30.91
586.82	30.83
587.015	30.9
587.211	30.88
587.406	31
587.601	30.98
587.797	31.03
587.992	30.98
588.187	31.08
588.383	30.98
588.578	30.93
588.773	30.99
588.968	30.96
589.163	30.99
589.359	31.09
589.554	31.09
589.749	31.09
589.944	31.14
590.139	31.06
590.334	31.03
590.529	31.05
590.724	31.08
590.919	31.17
591.114	31.23
591.309	31.4
591.504	31.53
591.699	31.43
591.894	31.41
592.089	31.43
592.284	31.36
592.479	31.35
592.674	31.57
592.869	31.65
593.064	31.74
593.259	31.87
593.454	32.04
593.648	32.01
593.843	32.12
594.038	32.18
594.233	32.19
594.428	32.24
594.622	32.36
594.817	32.46
595.012	32.54
595.206	32.57
595.401	32.52
595.596	32.51
595.79	32.52
595.985	32.64
596.18	32.69
596.374	32.84
596.569	32.99
596.763	33.09
596.958	33.13
597.153	33.22
597.347	33.17
597.542	33.21
597.736	33.14
597.931	33.09
598.125	33.08
598.319	33.22
598.514	33.15
598.708	33.34
598.903	33.43
599.097	33.65
599.291	33.64
599.486	33.67
599.68	33.65
599.874	33.69
600.069	33.59
600.263	33.64
600.457	33.84
600.651	33.93
600.846	34.02
601.04	34.11
601.234	34.27
601.428	34.29
601.622	34.3
601.817	34.29
602.011	34.34
602.205	34.3
602.399	34.3
602.593	34.25
602.787	34.27
602.981	34.23
603.175	34.19
603.369	34.08
603.563	34.18
603.757	34.24
603.951	34.26
604.145	34.15
604.339	34.22
604.533	34.09
604.727	33.95
604.921	33.82
605.115	33.85
605.309	34.02
605.502	34.03
605.696	34.01
605.89	33.98
606.084	34.01
606.278	33.81
606.471	33.76
606.665	33.73
606.859	33.74
607.053	33.61
607.246	33.52
607.44	33.5
607.634	33.55
607.827	33.47
608.021	33.42
608.214	33.33
608.408	33.25
608.602	33.06
608.795	32.98
608.989	32.95
609.182	32.97
609.376	32.95
609.569	32.86
609.763	32.77
609.956	32.64
610.15	32.53
610.343	32.52
610.537	32.48
610.73	32.46
610.923	32.4
611.117	32.29
611.31	32.18
611.504	32.09
611.697	32.03
611.89	32.06
612.083	32.01
612.277	31.9
612.47	31.92
612.663	31.89
612.856	31.74
613.05	31.78
613.243	31.75
613.436	31.61
613.629	31.55
613.822	31.52
614.015	31.43
614.209	31.32
614.402	31.3
614.595	31.21
614.788	31.22
614.981	31.06
615.174	30.86
615.367	30.73
615.56	30.6
615.753	30.46
615.946	30.39
616.139	30.47
616.332	30.52
616.525	30.55
616.718	30.6
616.911	30.66
617.103	30.69
617.296	30.64
617.489	30.53
617.682	30.48
617.875	30.45
618.067	30.31
618.26	30.21
618.453	30.19
618.646	30.11
618.838	30.06
619.031	30.12
619.224	30.12
619.417	30.13
619.609	30.06
619.802	29.96
619.994	29.84
620.187	29.73
620.38	29.69
620.572	29.6
620.765	29.68
620.957	29.62
621.15	29.65
621.342	29.56
621.535	29.57
621.727	29.42
621.92	29.33
622.112	29.31
622.305	29.32
622.497	29.22
622.69	29.2
622.882	29.2
623.074	29.21
623.267	29.23
623.459	29.22
623.651	29.18
623.844	29.32
624.036	29.41
624.228	29.4
624.42	29.48
624.613	29.56
624.805	29.4
624.997	29.2
625.189	29.15
625.381	29.09
625.574	28.97
625.766	29
625.958	29.02
626.15	29.02
626.342	29.08
626.534	29.07
626.726	29.01
626.918	28.97
627.11	28.9
627.302	28.79
627.494	28.89
627.686	28.97
627.878	29.01
628.07	28.97
628.262	29.01
628.454	28.93
628.646	28.91
628.838	28.83
629.029	28.8
629.221	28.73
629.413	28.7
629.605	28.53
629.797	28.48
629.989	28.51
630.18	28.42
630.372	28.34
630.564	28.37
630.755	28.43
630.947	28.46
631.139	28.38
631.33	28.26
631.522	28.22
631.714	28.18
631.905	28.12
632.097	28.09
632.289	28.17
632.48	28.15
632.672	28.09
632.863	27.97
633.055	28.01
633.246	27.97
633.438	27.91
633.629	27.89
633.821	27.93
634.012	27.94
634.203	27.97
634.395	27.99
634.586	27.99
634.777	27.95
634.969	27.98
635.16	27.96
635.351	27.9
635.543	27.85
635.734	27.82
635.925	27.72
636.117	27.72
636.308	27.73
636.499	27.69
636.69	27.59
636.881	27.56
637.073	27.54
637.264	27.5
637.455	27.51
637.646	27.66
637.837	27.7
638.028	27.67
638.219	27.7
638.41	27.65
638.601	27.55
638.792	27.51
638.983	27.42
639.174	27.42
639.365	27.42
639.556	27.34
639.747	27.23
639.938	27.27
640.129	27.16
640.32	27.09
640.511	27.07
640.701	27.15
640.892	27.08
641.083	27.09
641.274	27.14
641.465	27.07
641.655	26.92
641.846	26.92
642.037	26.74
642.228	26.63
642.418	26.69
642.609	26.72
642.8	26.62
642.99	26.61
643.181	26.57
643.372	26.44
643.562	26.44
643.753	26.34
643.943	26.25
644.134	26.16
644.324	26.19
644.515	26.12
644.705	26.18
644.896	26.17
645.086	26.11
645.277	25.94
645.467	25.95
645.658	25.83
645.848	25.82
646.038	25.72
646.229	25.7
646.419	25.56
646.61	25.54
646.8	25.43
646.99	25.48
647.18	25.42
647.371	25.28
647.561	25.25
647.751	25.21
647.941	25.06
648.132	25.03
648.322	25.02
648.512	24.97
648.702	25.01
648.892	25.03
649.082	25
649.272	24.8
649.462	24.57
649.653	24.47
649.843	24.36
650.033	24.27
650.223	24.27
650.413	24.33
650.603	24.26
650.793	24.19
650.983	23.97
651.172	23.9
651.362	23.73
651.552	23.58
651.742	23.52
651.932	23.52
652.122	23.45
652.312	23.42
652.502	23.36
652.691	23.27
652.881	23.23
653.071	23.22
653.261	23.11
653.45	23.02
653.64	23
653.83	22.76
654.019	22.57
654.209	22.48
654.399	22.42
654.588	22.24
654.778	22.18
654.968	22.15
655.157	21.92
655.347	21.72
655.536	21.54
655.726	21.32
655.915	21.09
656.105	20.99
656.294	20.76
656.484	20.64
656.673	20.6
656.863	20.51
657.052	20.38
657.241	20.3
657.431	20.09
657.62	19.91
657.809	19.6
657.999	19.51
658.188	19.33
658.377	19.18
658.567	19.04
658.756	18.9
658.945	18.65
659.134	18.48
659.324	18.34
659.513	18.16
659.702	18.05
659.891	17.92
660.08	17.77
660.269	17.7
660.458	17.5
660.648	17.33
660.837	17.19
661.026	17.03
661.215	16.69
661.404	16.5
661.593	16.36
661.782	16.13
661.971	16.02
662.16	15.84
662.349	15.78
662.538	15.57
662.726	15.37
662.915	15.2
663.104	15.13
663.293	15.03
663.482	15.01
663.671	14.99
663.86	14.9
664.048	14.79
664.237	14.63
664.426	14.41
664.615	14.32
664.803	14.2
664.992	14.05
665.181	13.98
665.369	13.9
665.558	13.77
665.747	13.67
665.935	13.76
666.124	13.71
666.312	13.71
666.501	13.71
666.69	13.67
666.878	13.54
667.067	13.41
667.255	13.46
667.444	13.55
667.632	13.51
667.82	13.49
668.009	13.55
668.197	13.47
668.386	13.24
668.574	13.26
668.762	13.18
668.951	13
669.139	12.91
669.327	12.84
669.516	12.73
669.704	12.63
669.892	12.75
670.08	12.71
670.269	12.65
670.457	12.58
670.645	12.54
670.833	12.6
671.021	12.56
671.21	12.73
671.398	12.95
671.586	12.95
671.774	12.66
671.962	12.7
672.15	12.6
672.338	12.42
672.526	12.53
672.714	12.53
672.902	12.58
673.09	12.6
673.278	12.74
673.466	12.65
673.654	12.92
673.842	12.99
674.03	12.99
674.218	12.95
674.405	13.14
674.593	12.99
674.781	12.93
674.969	13.05
675.157	13.17
675.344	13.25
675.532	13.43
675.72	13.56
675.908	13.55
676.095	13.45
676.283	13.45
676.471	13.51
676.658	13.46
676.846	13.48
677.033	13.6
677.221	13.67
677.409	13.65
677.596	13.74
677.784	13.84
677.971	13.92
678.159	13.99
678.346	14.04
678.534	14.09
678.721	14.24
678.909	14.36
679.096	14.31
679.283	14.58
679.471	14.78
679.658	14.81
679.846	14.88
680.033	15.15
680.22	15.21
680.408	15.27
680.595	15.29
680.782	15.36
680.969	15.51
681.157	15.64
681.344	15.81
681.531	16.11
681.718	16.33
681.905	16.33
682.093	16.49
682.28	16.71
682.467	16.93
682.654	17.09
682.841	17.24
683.028	17.49
683.215	17.57
683.402	17.66
683.589	17.96
683.776	18.34
683.963	18.49
684.15	18.81
684.337	19.17
684.524	19.36
684.711	19.6
684.898	19.67
685.085	19.93
685.271	20.36
685.458	20.64
685.645	20.98
685.832	21.58
686.019	22
686.205	22.14
686.392	22.64
686.579	23.1
686.766	23.34
686.952	23.7
687.139	24.33
687.326	24.63
687.512	24.94
687.699	25.47
687.886	25.74
688.072	25.92
688.259	26.48
688.445	27.04
688.632	27.55
688.818	28.26
689.005	28.84
689.191	29.44
689.378	30.05
689.564	30.57
689.751	31.23
689.937	31.72
690.124	32.18
690.31	32.63
690.496	33.18
690.683	33.46
690.869	34.07
691.055	34.69
691.242	35.34
691.428	36.08
691.614	36.87
691.8	37.77
691.987	38.44
692.173	38.97
692.359	39.56
692.545	40.23
692.731	40.65
692.918	41.25
693.104	41.89
693.29	42.62
693.476	43.33
693.662	44.01
693.848	44.46
694.034	45.26
694.22	45.62
694.406	46.38
694.592	47.15
694.778	48.06
694.964	48.37
695.15	49.22
695.336	49.59
695.522	50.41
695.708	50.92
695.894	51.7
696.08	52.38
696.265	53.12
696.451	53.61
696.637	54.11
696.823	54.82
697.009	55.28
697.194	55.81
697.38	56.16
697.566	56.89
697.751	57.59
697.937	58.25
698.123	58.74
698.308	59.34
698.494	60.06
698.68	60.55
698.865	61.18
699.051	61.78
699.236	62.48
699.422	63.03
699.607	63.36
699.793	63.69
699.978	64.28
700.164	64.7
700.349	65.05
700.535	65.71
700.72	66.17
700.906	66.79
701.091	67.13
701.276	67.61
701.462	68.28
701.647	68.85
701.832	69.1
702.018	69.61
702.203	69.84
702.388	69.81
702.573	70.3
702.759	70.93
702.944	71.28
703.129	71.37
703.314	71.88
703.499	71.94
703.684	72.07
703.87	72.91
704.055	73.83
704.24	74.05
704.425	74.76
704.61	75.11
704.795	75.14
704.98	75.38
705.165	75.97
705.35	76.34
705.535	76.73
705.72	76.97
705.905	77.56
706.09	78.07
706.275	78.21
706.459	78.44
706.644	78.6
706.829	78.25
707.014	78.15
707.199	78.71
707.384	79.07
707.568	79.5
707.753	80.27
707.938	80.54
708.123	80.64
708.307	80.75
708.492	81.07
708.677	81.16
708.861	81.54
709.046	81.38
709.231	81.88
709.415	82.29
709.6	82.25
709.784	82.36
709.969	82.65
710.153	82.72
710.338	82.53
710.522	82.89
710.707	83.1
710.891	83.32
711.076	83.9
711.26	84.04
711.445	84.38
711.629	84.81
711.813	85.41
711.998	84.99
712.182	85.2
712.366	85.81
712.551	85.86
712.735	85.89
712.919	85.95
713.103	86.08
713.288	85.82
713.472	85.67
713.656	86.12
713.84	86.29
714.024	86.6
714.208	86.53
714.393	87.14
714.577	86.94
714.761	87.16
714.945	87.18
715.129	87.69
715.313	87.51
715.497	87.63
715.681	88.16
715.865	88.04
716.049	87.77
716.233	87.77
716.417	87.7
716.601	87.3
716.785	87.57
716.968	87.66
717.152	87.92
717.336	88.29
717.52	88.35
717.704	88.59
717.888	89.3
718.071	89.35
718.255	89.29
718.439	89.54
718.622	89.79
718.806	89.54
718.99	89.62
719.174	89.14
719.357	89.45
719.541	89.4
719.724	89.59
719.908	90.01
720.092	90.64
720.275	90.71
720.459	90.48
720.642	89.99
720.826	89.94
721.009	89.95
721.193	90
721.376	90.2
721.559	90.53
721.743	90.56
721.926	90.6
722.11	91.38
722.293	91.09
722.476	91.34
722.66	91.52
722.843	91.39
723.026	90.41
723.21	91.02
723.393	91.6
723.576	91.09
723.759	90.97
723.942	91.45
724.126	91.23
724.309	90.92
724.492	91.65
724.675	92.07
724.858	92.36
725.041	92.63
725.224	93.1
725.407	92.92
725.59	93.09
725.774	92.27
725.957	92.22
726.14	91.32
726.322	91.07
726.505	91.27
726.688	91.92
726.871	92.27
727.054	92.71
727.237	92.61
727.42	92.73
727.603	92.53
727.786	92.68
727.968	92.55
728.151	92.85
728.334	92.13
728.517	92.17
728.699	92.01
728.882	91.96
729.065	92.21
729.248	92.85
729.43	93.4
729.613	93.73
729.796	94.25
729.978	93.99
730.161	94.21
730.343	93.4
730.526	93.89
730.708	93.19
730.891	93.65
731.073	93.75
731.256	93.91
731.438	93.16
731.621	94.45
731.803	94.81
731.986	94.33
732.168	94.02
732.35	94.81
732.533	94.56
732.715	93.9
732.898	94.43
733.08	95.66
733.262	95.45
733.444	95.28
733.627	95.88
733.809	96.25
733.991	96.44
734.173	95.75
734.355	95.59
734.538	96.07
734.72	95.78
734.902	95.68
735.084	96.18
735.266	96.31
735.448	96.49
735.63	96.34
735.812	95.98
735.994	96.6
736.176	96.43
736.358	96.33
736.54	96.8
736.722	96.82
736.904	96.23
737.086	96.75
737.268	96.58
737.45	96.54
737.632	97.04
737.814	96.85
737.995	97.08
738.177	97.15
738.359	96.66
738.541	96.77
738.723	97.86
738.904	97.63
739.086	98
739.268	98.44
739.449	99.06
739.631	98.64
739.813	99.3
739.994	99.76
740.176	100.45
740.358	99.34
740.539	98.71
740.721	98.97
740.902	97.75
741.084	96.82
741.265	97.33
741.447	97.93
741.628	97.54
741.81	97.54
741.991	98.09
742.172	98.3
742.354	98.98
742.535	98.06
742.717	98.69
742.898	99.41
743.079	100.39
743.261	99.5
743.442	100.14
743.623	101.24
743.804	100.58
743.986	100.06
744.167	99.7
744.348	98.59
744.529	98.04
744.71	97.94
744.891	97.71
745.073	97.87
745.254	98.02
745.435	97.59
745.616	96.84
745.797	96.59
745.978	96.18
746.159	96.96
746.34	96.44
746.521	98.38
746.702	97.57
746.883	97.72
747.064	97.3
747.245	98.15
747.426	97.25
747.606	98.24
747.787	99.07
747.968	99.37
748.149	98.94
748.33	98.85
748.51	97.82
748.691	98.11
748.872	98.84
749.053	98.42
749.233	97.43
749.414	97.84
749.595	96.51
749.775	95.83
749.956	96.25
750.137	96.82
750.317	97.38
750.498	99.65
750.678	99.68
750.859	100.19
751.04	100.6
751.22	98.96
751.4	97.65
751.581	97.49
751.761	96.61
751.942	96.68
752.122	96.64
752.303	96.29
752.483	96.43
752.663	95.62
752.844	93.87
753.024	95.04
753.204	95.48
753.385	95.51
753.565	96.53
753.745	97.75
753.925	96.52
754.106	94.8
754.286	94.47
754.466	93.74
754.646	93.49
754.826	93.87
755.006	93.9
755.187	94.55
755.367	95.89
755.547	95.2
755.727	96.6
755.907	97.99
756.087	97.92
756.267	96.79
756.447	98.17
756.627	96.79
756.807	96.95
756.987	97.17
757.167	97.31
757.346	96.77
757.526	96.46
757.706	96.66
757.886	96.71
758.066	97.32
758.246	99.14
758.425	99
758.605	98.9
758.785	98.71
758.965	98.05
759.144	95.72
759.324	97.61
759.504	98.77
759.683	97.71
759.863	97.1
760.043	97.68
760.222	96.63
760.402	94.24
760.581	93.48
760.761	94.84
760.94	94.27
761.12	94.77
761.299	95.56
761.479	96.35
761.658	96.28
761.838	95.91
762.017	95.78
762.197	96.96
762.376	96.73
762.555	95.68
762.735	97.32
762.914	97.07
763.093	95.77
763.273	95.65
763.452	95.17
763.631	94.12
763.81	93.54
763.99	93.09
764.169	93.57
764.348	93.75
764.527	93.12
764.706	94.13
764.885	94.99
765.064	93.61
765.243	94.08
765.423	96.68
765.602	95.5
765.781	94.97
765.96	95.65
766.139	93.8
766.318	92.47
766.497	92.17
766.676	92.71
766.854	92.5
767.033	93.84
767.212	92.87
767.391	94.3
767.57	95.29
767.749	96.57
767.928	98.37
768.106	98.68
768.285	96.12
768.464	95.26
768.643	94.46
768.821	93.42
769	94.34
769.179	95.58
769.357	94.11
769.536	94.78
769.715	94.01
769.893	94.4
770.072	94.48
770.25	95.5
770.429	96.02
770.607	95.02
770.786	94.82
770.964	95.48
771.143	94.53
771.321	95.04
771.5	95.05
771.678	94.44
771.857	93.76
772.035	93.25
772.213	91.88
772.392	92.77
772.57	93.56
772.748	93.31
772.927	92.9
773.105	91.69
773.283	92.11
773.461	89.89
773.64	90.16
773.818	91.96
773.996	92.89
774.174	91.5
774.352	91.35
774.531	88.32
774.709	88.29
774.887	87.47
775.065	88.89
775.243	90.6
775.421	92.86
775.599	92.58
775.777	92.09
775.955	89.53
776.133	87.56
776.311	87.1
776.489	85.65
776.667	86.94
776.844	87.14
777.022	86.87
777.2	88.7
777.378	88.85
777.556	89.15
777.734	90.2
777.911	93.58
778.089	92.33
778.267	91.78
778.445	90.43
778.622	90.89
778.8	88.2
778.978	88.31
779.155	88.65
779.333	89.53
779.511	92.13
779.688	92.83
779.866	91.01
780.043	89.2
780.221	88.66
780.398	83.7
780.576	83.41
780.753	87.31
780.931	89.91
781.108	91.87
781.286	95.19
781.463	94.54
781.64	90.37
781.818	89.18
781.995	87.59
782.172	83.97
782.35	84.93
782.527	87.22
782.704	87.47
782.882	87.16
783.059	87.56
783.236	88.2
783.413	87.42
783.59	88.2
783.768	87.91
783.945	90.95
784.122	91.28
784.299	93.06
784.476	90.63
784.653	89.55
784.83	88.09
785.007	83.57
785.184	83.41
785.361	84.88
785.538	87.92
785.715	89.53
785.892	92.57
786.069	92.44
786.246	91.43
786.423	90.51
786.6	89.34
786.776	89.02
786.953	85.94
787.13	88.85
787.307	85.75
787.484	84.43
787.66	81.71
787.837	83.37
788.014	78.88
788.191	80.31
788.367	79.53
788.544	84.16
788.721	83.63
788.897	88.73
789.074	88.7
789.25	90.63
789.427	86.94
789.603	86.38
789.78	85.23
789.956	86.17
790.133	85.52
790.309	89.66
790.486	92.09
790.662	88.44
790.839	87.26
791.015	85.89
791.192	83.39
791.368	81.31
791.544	82
791.721	85.32
791.897	86.97
792.073	87.28
792.249	85.38
792.426	87.08
792.602	84.82
792.778	83.98
792.954	83.68
793.13	86.82
793.307	80.54
793.483	77.16
793.659	81.06
793.835	80.85
794.011	75.35
794.187	80.42
794.363	82.35
794.539	78.55
794.715	79.15
794.891	82.67
795.067	84.26
795.243	86.75
795.419	88.06
795.595	85.16
795.771	83.86
795.947	80.54
796.122	77.24
796.298	78.09
796.474	78.8
796.65	76.85
796.826	77.09
797.001	76.53
797.177	71.29
797.353	74.05
797.529	77.85
797.704	79.92
797.88	82.88
798.056	87.08
798.231	87.58
798.407	85.03
798.582	82.13
798.758	85.85
798.934	89.55
799.109	88.81
799.285	90.69
799.46	93.74
799.636	87.28
799.811	83.14
799.986	81.11
800.162	78.05
800.337	75.37
800.513	74.21
800.688	73.42
800.863	81.73
801.039	83.02
801.214	80.07
801.389	79.9
801.565	79.18
801.74	65.22
801.915	69.64
802.09	70.8
802.265	78.84
802.441	71.35
802.616	77.59
802.791	73.9
802.966	74.04
803.141	72.06
803.316	74.86
803.491	78.01
803.666	83.77
803.841	82.96
804.016	76.71
804.191	78.43
804.366	73.94
804.541	70.3
804.716	74.45
804.891	72.08
805.066	75.26
805.241	73.6
805.416	72.6
805.591	69.35
805.765	77.41
805.94	75.12
806.115	72.67
806.29	68.72
806.464	67.25
806.639	59.87
806.814	63.57
806.989	63.48
807.163	71.54
807.338	79.88
807.512	83.23
807.687	65.89
807.862	72.42
808.036	63.17
808.211	67.82
808.385	75.27
808.56	91.83
808.734	94.95
808.909	98.96
809.083	92.11
809.258	84.59
809.432	78.98
809.606	68.99
809.781	74.19
809.955	71.6
810.13	69.13
810.304	66.75
810.478	64.36
810.652	64.88
810.827	60.27
811.001	59.21
811.175	59.66
811.349	59.36
811.524	49.55
811.698	48.44
811.872	46.9
812.046	52.3
812.22	55.22
812.394	64.3
812.568	73.18
812.742	68.77
812.916	65.36
813.09	61.7
813.264	57.26
813.438	55.43
813.612	60.42
813.786	64.3
813.96	75.96
814.134	71.82
814.308	81.7
814.482	97.32
814.656	91.74
814.83	88.2
815.003	97.08
815.177	78.04
815.351	65.76
815.525	61.95
815.698	58.8
815.872	51.92
816.046	53.84
816.219	59.39
816.393	64.74
816.567	62.87
816.74	70.01
816.914	69.75
817.088	69.8
817.261	58.45
817.435	59.41
817.608	62.18
817.782	66.59
817.955	64.79
818.129	71.26
818.302	65.58
818.475	67.4
818.649	60.29
818.822	54.96
818.996	63.95
819.169	73.79
819.342	67.19
819.516	83.97
819.689	86.38
819.862	68.31
820.035	63.35
820.209	61.35
820.382	59.2
820.555	62.67
820.728	60.23
820.901	60.99
821.075	59.92
821.248	66.31
821.421	65.23
821.594	77.51
821.767	83.89
821.94	84.21
822.113	61.18
822.286	56.1
822.459	62.63
822.632	60.25
822.805	57.68
822.978	67.1
823.151	67.93
823.324	50.71
823.496	35.34
823.669	36.5
823.842	35.15
824.015	21.06
824.188	20.18
824.361	33.84
824.533	38.04
824.706	42.96
824.879	44.35
825.051	53.4
825.224	45.19
825.397	36.54
825.569	17.37
825.742	36.7
825.915	30.57
826.087	39.76
826.26	34.56
826.432	45.64
826.605	42.66
826.777	47.16
826.95	44.31
827.122	40.88
827.295	32.24
827.467	27.67
827.64	15.75
827.812	28.49
827.984	25.48
828.157	29.23
828.329	8.32
828.501	23.01
828.674	10.29
828.846	22.46
829.018	32.24
829.19	34.08
829.363	40.36
829.535	54.7
829.707	50.06
829.879	42.45
830.051	42.22
830.223	28.76
830.395	-1.48
830.568	-0.79
830.74	-12.65
830.912	4.65
831.084	-6.25
831.256	19.17
831.428	29.48
831.6	42.69
831.772	29.05
831.943	23.67
832.115	16.25
832.287	34.38
832.459	43.67
832.631	65.07
832.803	81.08
832.975	112.79
833.146	94.94
833.318	106.77
833.49	107.21
833.662	101.01
833.833	72.64
834.005	57.45
834.177	45.36
834.348	34.16
834.52	20.77
834.692	-9.66
834.863	-28.21
835.035	-19.61
835.206	-58.43
835.378	-48.05
835.549	-11.79
835.721	-2.54
835.892	-9.65
836.064	7.56
836.235	24.13
836.407	30.27
836.578	5.09
836.749	51.24
836.921	6.86
837.092	-15.52
837.264	-18.36
837.435	-2.6
837.606	17.3
837.777	46.9
837.949	49.74
838.12	48.95
838.291	51.44
838.462	40.02
838.633	11.32
838.805	28.59
838.976	50.93
839.147	34.92
839.318	21.21
839.489	18.57
839.66	18.26
839.831	-6.7
840.002	4.98
840.173	-1.24
840.344	44.27
840.515	13.37
840.686	-0.63
840.857	6.47
841.028	2.15
841.199	10.44
841.369	19.24
841.54	32.95
841.711	61.36
841.882	66.32
842.053	43.07
842.223	37.33
842.394	35.27
842.565	-3.56
842.736	9.88
842.906	1.29
843.077	4.95
843.248	-4.4
843.418	11.72
843.589	-37.39
843.759	17.06
843.93	-8.3
844.101	17.18
844.271	17.37
844.442	27.83
844.612	24.47
844.783	-2.71
844.953	-29.26
845.123	-19.58
845.294	14.98
845.464	-65.22
845.635	70.82
845.805	71.71
845.975	26.36
846.146	10.24
846.316	13.13
846.486	32.44
846.656	43.35
846.827	36.16
846.997	28.15
847.167	53.34
847.337	26.19
847.507	-5.31
847.677	27.93
847.848	43.11
848.018	27.36
848.188	36.57
848.358	27.26
848.528	11.71
848.698	-2.92
848.868	-32.21
849.038	-110.82
849.208	-21.55
849.378	-9.18
849.548	-8.38
849.718	14
849.887	35.93
850.057	19.37
850.227	13.62
850.397	28.46
850.567	-38.21
850.737	-233.26
850.906	-723.13
851.076	-475.39
851.246	-211.78
851.415	-15.44
851.585	-4.38
851.755	-22.66
851.924	-10.53
852.094	-75.47
852.264	-171.79
852.433	-1046.63
852.603	-202.6
852.772	-232.25
852.942	-66.69
853.111	-66.19
853.281	-30.85
853.45	0.06
853.62	-17.13
853.789	3.33
853.959	25.86
854.128	27.14
854.297	-11.49
854.467	-33.44
854.636	-78.62
854.805	7.14
854.975	-32.57
855.144	-63.97
855.313	-146.5
855.482	-304.01
855.652	-255.46
855.821	-139.39
855.99	-32.32
856.159	-3.37
856.328	6.69
856.497	0.04
856.667	2.83
856.836	3.73
857.005	5.56
857.174	-15.77
857.343	-24.08
857.512	-5.57
857.681	-32.54
857.85	-46.55
858.019	-14.59
858.188	0.9
858.356	-29.86
858.525	-33.2
858.694	-41.6
858.863	-98.23
859.032	-58.04
859.201	-29.27
859.369	-36.61
859.538	-33.09
859.707	-6.38
859.876	-12.02
860.044	-5.47
860.213	36.95
860.382	27.85
860.55	18.47
860.719	28.27
860.888	39.33
861.056	8.18
861.225	3.35
861.393	24.51
861.562	0.51
861.73	-57.32
861.899	-191.36
862.067	-763.79
862.236	-19.08
862.404	-47.41
862.572	-32.9
862.741	14.47
862.909	19.56
863.078	-33.3
863.246	-10.18
863.414	18.57
863.582	21.44
863.751	4.49
863.919	18.52
864.087	43.04
864.255	27.18
864.424	-171.91
864.592	-15.13
864.76	-14.96
864.928	-290
865.096	-133.6
865.264	-115.5
865.432	-1812.5
865.6	-382.25
865.768	-152.08
865.936	-165.72
866.104	-184.97
866.272	-207.03
866.44	-364.76
866.608	602.99
866.776	282.7
866.944	2510.47
867.112	-485.38
867.28	-158
867.448	-55.36
867.615	-25.05
867.783	-21.91
867.951	-32.06
868.119	-44.4
868.286	-68.08
868.454	-135.02
868.622	-108
868.789	-76.5
868.957	-2696.43
869.125	-2011.84
869.292	-112.65
869.46	-194.84
869.627	-61.05
869.795	-29
869.963	13.32
870.13	6.15
870.298	8.9
870.465	-36.91
870.632	-37.62
870.8	-47.33
870.967	-66.23
871.135	-85.93
871.302	-48.45
871.469	-112.72
871.637	-240.04
871.804	-111.91
871.971	-138.64
872.139	-475.58
872.306	-36.43
872.473	-23.1
872.64	-195.49
872.807	-17.37
872.975	58.16
873.142	-21.64
873.309	631.08
873.476	29.76
873.643	72.43
873.81	-3.76
873.977	14.57
874.144	19.14
874.311	-107.88
874.478	-104.15
874.645	-96.45
874.812	-105.1
874.979	-12.01
875.146	16.29
875.313	-23.23
875.48	26.86
875.647	19.45
875.813	-14.55
875.98	-2.39
876.147	-7.22
876.314	-40.61
876.481	545.04
876.647	-848.88
876.814	385.23
876.981	-2.12
877.147	-57.75
877.314	-11.58
877.481	4.45
877.647	0.04
877.814	-45.91
877.98	-36.77
878.147	-15.01
878.314	8.69
878.48	-4.83
878.647	25.82
878.813	28.07
878.979	24.23
879.146	3.95
879.312	-9.32
879.479	-87.13
879.645	-183.72
879.811	-347.16
879.978	-867.56
880.144	-208.01
880.31	-105.23
880.477	-201.37
880.643	-196.3
880.809	64.8
880.975	27.9
881.142	14.09
881.308	18.85
881.474	44.11
881.64	-85.53
881.806	-98.72
881.972	-72.39
882.138	-90.67
882.304	-199.57
882.47	-264.06
882.636	-919.26
882.802	-246.34
882.968	-105.2
883.134	-47.57
883.3	-47.47
883.466	-2.66
883.632	27.92
883.798	24.94
883.964	14.81
884.129	41.47
884.295	14.83
884.461	-62.05
884.627	-84.05
884.793	-87.22
884.958	-45.11
885.124	-81.67
885.29	-108.09
885.455	-238.59
885.621	-46.85
885.787	-88.56
885.952	-48.71
886.118	-61.04
886.283	-38.27
886.449	-109.24
886.614	-116.7
886.78	-222.5
886.945	869.67
887.111	-273.7
887.276	-216.19
887.442	-435.91
887.607	-240.33
887.773	-141.24
887.938	-145.56
888.103	-195.82
888.269	-127.26
888.434	-210.54
888.599	-85.9
888.764	-60.84
888.93	-14.9
889.095	-15.19
889.26	-41.51
889.425	-13.79
889.59	41.15
889.756	23.13
889.921	23.6
890.086	61.57
890.251	41.94
890.416	-74.71
890.581	-821.77
890.746	248.39
890.911	454.46
891.076	174.15
891.241	-304.1
891.406	-9.37
891.571	-51.07
891.736	-160.78
891.901	-150.88
892.065	388.46
892.23	131.35
892.395	159
892.56	214.02
892.725	-555.08
892.889	-1871.95
893.054	-234.54
893.219	-94.79
893.384	-63.43
893.548	-70.19
893.713	-69.47
893.878	-31.07
