Data from OFra_PS_T2_2A_0CX04_Reflection_3.txt Node
Date: Wed Jul 21 16:49:02 EDT 2021
User: Adam
Spectrometer: FLMT01687
Trigger mode: 0
Integration Time (sec): 1.100000E0
Scans to average: 2
Electric dark correction enabled: true
Nonlinearity correction enabled: false
Boxcar width: 2
XAxis mode: Wavelengths
Number of Pixels in Spectrum: 3648
>>>>>Begin Spectral Data<<<<<
179.494	360.2
179.716	406.12
179.937	397.03
180.158	401.56
180.38	673.91
180.601	317.27
180.823	129.99
181.044	85.9
181.265	166.36
181.486	108.91
181.708	115.99
181.929	516.84
182.15	-318.66
182.372	83.7
182.593	144.86
182.814	48.32
183.035	70.22
183.257	66.44
183.478	-17.5
183.699	-23.57
183.92	13.75
184.141	-6.76
184.363	-45.01
184.584	-10.9
184.805	6.34
185.026	19.08
185.247	30.04
185.468	30.67
185.689	19.25
185.91	27.46
186.132	13.67
186.353	-11.79
186.574	15.86
186.795	27.05
187.016	3.76
187.237	4.93
187.458	38.5
187.679	35
187.9	23.53
188.121	6
188.342	26.99
188.563	20.4
188.784	-5.63
189.005	-3.88
189.226	18.92
189.447	-0.2
189.667	-163.71
189.888	-201.6
190.109	-457.47
190.33	-265.97
190.551	-648.89
190.772	-125.24
190.993	-142.06
191.214	-111.63
191.434	-76.11
191.655	14.94
191.876	-18.34
192.097	-24.87
192.318	-59.27
192.538	-27.64
192.759	-59.91
192.98	18.48
193.201	27.1
193.421	40.22
193.642	26.39
193.863	22.38
194.083	2.06
194.304	4.78
194.525	6.83
194.745	-19.31
194.966	-33.49
195.187	-20.68
195.407	-37.15
195.628	-101.66
195.848	-63.29
196.069	-33.42
196.29	-14.64
196.51	-11.15
196.731	-18.76
196.951	-37.79
197.172	-62.13
197.392	-75.79
197.613	-76.86
197.833	-55.53
198.054	-26.56
198.274	4.21
198.495	-15.24
198.715	3.8
198.936	-19.14
199.156	-27.34
199.377	-80.94
199.597	-65.98
199.817	-84.38
200.038	-25.5
200.258	-47.45
200.479	-25.9
200.699	-1.28
200.919	62.47
201.14	55.63
201.36	59.23
201.58	61.31
201.801	66.37
202.021	29.54
202.241	20.57
202.461	16.12
202.682	-23.58
202.902	-81.55
203.122	-23.67
203.342	-16.66
203.563	11.76
203.783	9.57
204.003	-10.41
204.223	-1.41
204.443	24.69
204.663	-24.27
204.884	-16.2
205.104	6.37
205.324	-14.66
205.544	-15.02
205.764	23.21
205.984	33.48
206.204	39.67
206.424	32.01
206.644	17.02
206.864	15.74
207.084	-25.56
207.304	-44.78
207.525	-116.64
207.745	-37.95
207.964	12.82
208.184	4.55
208.404	-14.13
208.624	1.57
208.844	-23.41
209.064	-210.43
209.284	-233.48
209.504	-113.93
209.724	-54.74
209.944	-39.46
210.164	-19.05
210.384	0.11
210.604	-25.54
210.823	-44.27
211.043	-43.94
211.263	-27.6
211.483	-25.9
211.703	-21.15
211.922	-13.59
212.142	36.44
212.362	32.44
212.582	-8.21
212.801	-9.24
213.021	-6.29
213.241	-43.08
213.461	-53.63
213.68	-43.46
213.9	-32.38
214.12	-42.82
214.339	-57.69
214.559	-52.24
214.779	-16.99
214.998	-8.17
215.218	-24.78
215.438	-0.61
215.657	19.02
215.877	42.94
216.096	24.38
216.316	38.38
216.535	11.39
216.755	24.01
216.974	-34.14
217.194	-45.47
217.413	-43.07
217.633	-11.16
217.852	-86.04
218.072	-23.66
218.291	3.77
218.511	3.44
218.73	-17.3
218.95	-16.77
219.169	-23.84
219.389	-62.45
219.608	-37.57
219.827	-36.15
220.047	-22.16
220.266	-2.8
220.485	25.77
220.705	33.41
220.924	29.15
221.143	32.69
221.363	16.13
221.582	1.12
221.801	-13.88
222.021	-6.15
222.24	-86.07
222.459	-133.95
222.678	-110.52
222.897	-107.48
223.117	-158.65
223.336	-123.62
223.555	-53.26
223.774	-3.71
223.993	6.99
224.213	57.12
224.432	42.04
224.651	61.56
224.87	32.98
225.089	28.47
225.308	12.19
225.527	33.83
225.746	36.66
225.965	34.73
226.184	11.18
226.404	29.05
226.623	15.8
226.842	1.62
227.061	13.06
227.28	18.71
227.499	9.29
227.718	8.35
227.936	4.59
228.155	13.41
228.374	23.07
228.593	18.21
228.812	27.38
229.031	10.57
229.25	-26.07
229.469	-13.06
229.688	-12.15
229.907	10.64
230.125	37.26
230.344	55.49
230.563	32.69
230.782	38.78
231.001	-23.11
231.22	-39.06
231.438	-43.9
231.657	-29.04
231.876	-58.13
232.095	-11.23
232.313	-3.11
232.532	-22.83
232.751	-21.82
232.969	-12.93
233.188	-47.79
233.407	-12.35
233.625	5.11
233.844	-26.78
234.063	-15.59
234.281	-3.06
234.5	-27.72
234.719	-22.78
234.937	8.57
235.156	20.28
235.374	23.53
235.593	29.44
235.811	28.11
236.03	9.43
236.249	-7.56
236.467	5.1
236.686	19.6
236.904	21.1
237.123	1.24
237.341	-4.6
237.559	-4.86
237.778	-23.17
237.996	-43.32
238.215	-1.03
238.433	8.38
238.652	1.17
238.87	-4.37
239.088	-6.42
239.307	-5.67
239.525	-9.11
239.743	-8.34
239.962	-6.31
240.18	0.87
240.398	-18.11
240.617	-33.64
240.835	-26.39
241.053	-20.42
241.271	-7.66
241.49	12.74
241.708	6.09
241.926	-32.51
242.144	-21.23
242.363	-51.46
242.581	-72.99
242.799	-37.17
243.017	-16.73
243.235	-10.94
243.453	1.44
243.672	1.51
243.89	2.83
244.108	5.25
244.326	7.84
244.544	10.92
244.762	12.3
244.98	10.39
245.198	24.83
245.416	6.2
245.634	-3.42
245.852	-6.58
246.07	-2.21
246.288	-22.47
246.506	-11.7
246.724	-11.93
246.942	-11.15
247.16	10.73
247.378	13.92
247.596	20.14
247.814	30.33
248.032	18.26
248.25	0.13
248.468	14.03
248.685	26.65
248.903	42.63
249.121	46.81
249.339	37.73
249.557	21.05
249.775	-4.54
249.992	-52.18
250.21	-59.61
250.428	-49.25
250.646	-79.2
250.863	-62.08
251.081	-41.39
251.299	-51.33
251.517	-32.73
251.734	-16.13
251.952	-14.6
252.17	-18.08
252.387	2.77
252.605	-1.56
252.823	12.9
253.04	4.73
253.258	13.85
253.475	-4.1
253.693	4.57
253.911	-7.89
254.128	4.34
254.346	-10.7
254.563	1.76
254.781	-15.72
254.998	-13.32
255.216	-27.1
255.433	8.44
255.651	18.62
255.868	22.83
256.086	28.27
256.303	32.34
256.521	22.67
256.738	1.61
256.956	-5.74
257.173	-12.57
257.39	-11.09
257.608	-30.88
257.825	12.64
258.043	42.38
258.26	47.58
258.477	53.9
258.695	52.19
258.912	26.19
259.129	21.98
259.346	-0.08
259.564	-12.55
259.781	-17.43
259.998	8.52
260.216	10.23
260.433	26.08
260.65	33.4
260.867	40.83
261.084	32.21
261.302	19.83
261.519	18.69
261.736	-1.69
261.953	-16.12
262.17	13.12
262.387	-14.79
262.604	-15.62
262.822	-23.67
263.039	-20.23
263.256	-42.63
263.473	9.11
263.69	2.6
263.907	21.86
264.124	28.72
264.341	16.13
264.558	13.49
264.775	30.88
264.992	26.36
265.209	16.66
265.426	25.47
265.643	25.51
265.86	24.66
266.077	28.22
266.294	24.8
266.51	1.19
266.727	-22.34
266.944	-26.31
267.161	-29.03
267.378	-10.52
267.595	-1.89
267.812	-18.84
268.028	-44.56
268.245	-30.88
268.462	-33.99
268.679	-21.69
268.896	18.07
269.112	15.08
269.329	17.41
269.546	6.91
269.763	-9.57
269.979	-14.4
270.196	0.44
270.413	-46.57
270.629	-35.13
270.846	-20.18
271.063	-28.79
271.279	-23.08
271.496	11.46
271.712	16.66
271.929	19.28
272.146	11.34
272.362	2.34
272.579	-0.85
272.795	9.39
273.012	12.04
273.228	22.09
273.445	27.22
273.661	35.96
273.878	32.24
274.094	30.37
274.311	15.02
274.527	23.25
274.744	22.94
274.96	6.68
275.177	12.64
275.393	24.45
275.609	25.45
275.826	27.89
276.042	28.71
276.259	36.02
276.475	36.69
276.691	33.55
276.908	28.54
277.124	39.07
277.34	33.77
277.557	19.17
277.773	14.95
277.989	6.17
278.205	-2.37
278.422	1.73
278.638	-2.24
278.854	4.38
279.07	15.91
279.286	26.63
279.503	11.41
279.719	20.83
279.935	6.56
280.151	-13.56
280.367	-15.37
280.583	-31.31
280.799	-12.33
281.016	-40.16
281.232	-1.97
281.448	-3.94
281.664	16.6
281.88	-10.57
282.096	15.26
282.312	8.04
282.528	5.81
282.744	-1.4
282.96	19.26
283.176	10.15
283.392	11.59
283.608	14.77
283.824	15.72
284.04	23.44
284.256	26.46
284.471	22.5
284.687	10.33
284.903	29.11
285.119	23
285.335	22.26
285.551	8.86
285.767	16.42
285.982	-5.55
286.198	-19.83
286.414	-0.08
286.63	17.41
286.846	14.75
287.061	18.01
287.277	38.39
287.493	25.64
287.709	29.12
287.924	24.15
288.14	39.4
288.356	31.87
288.571	39.52
288.787	34.12
289.003	49.61
289.218	27.76
289.434	5.05
289.65	8.43
289.865	2.97
290.081	-10.4
290.296	10.43
290.512	20.82
290.727	-0.47
290.943	-2.84
291.159	0.23
291.374	-3.5
291.59	-15.29
291.805	-1.86
292.021	10.98
292.236	-5.23
292.451	1.8
292.667	6.74
292.882	9.65
293.098	8.56
293.313	26.84
293.529	-11.76
293.744	-18.89
293.959	-19.15
294.175	-23.76
294.39	-2.61
294.605	21.43
294.821	36.94
295.036	40.5
295.251	34.85
295.467	23.77
295.682	4.19
295.897	-22.36
296.112	-17.73
296.328	-18.6
296.543	-28.93
296.758	-15.57
296.973	-6.14
297.188	8.15
297.404	2.27
297.619	7.57
297.834	5.34
298.049	-4.68
298.264	-21.88
298.479	-5.18
298.694	-3.52
298.909	7.24
299.125	17.41
299.34	36.46
299.555	31.12
299.77	20.05
299.985	-5.96
300.2	-29.55
300.415	-53.65
300.63	-37.34
300.845	-29.43
301.06	-32.4
301.275	-15.52
301.49	-9.82
301.704	-11.42
301.919	-16.2
302.134	-11.72
302.349	-16.4
302.564	-39.61
302.779	-32.43
302.994	-36.87
303.209	-17.89
303.423	-22.58
303.638	24.98
303.853	4.93
304.068	13.08
304.283	14.15
304.497	27.32
304.712	14.68
304.927	13.48
305.142	15.22
305.356	17.9
305.571	6.73
305.786	-7.55
306	-4.54
306.215	-2.53
306.43	-3.85
306.644	9.35
306.859	12.15
307.074	11.26
307.288	-22.35
307.503	-53.21
307.717	-36.53
307.932	-28.64
308.147	-28.64
308.361	-19.04
308.576	-17.57
308.79	-45.95
309.005	-37.09
309.219	-24.91
309.434	-24.9
309.648	-18.29
309.863	-4.63
310.077	13.49
310.292	-1.7
310.506	0.62
310.72	19.16
310.935	15.19
311.149	8.24
311.364	24.29
311.578	41.04
311.792	25.73
312.007	37.53
312.221	31.29
312.435	23.78
312.649	5.65
312.864	-12.95
313.078	-7.55
313.292	-5.34
313.507	-24.92
313.721	-48.2
313.935	30.54
314.149	22.92
314.363	26.59
314.578	28.95
314.792	35.65
315.006	12.61
315.22	12.59
315.434	3.35
315.648	16.71
315.862	7.33
316.077	14.96
316.291	9.31
316.505	36.97
316.719	27.82
316.933	48.96
317.147	41.77
317.361	8.01
317.575	-22.1
317.789	-21.71
318.003	-114.43
318.217	-86.33
318.431	-11.45
318.645	11.75
318.859	3.8
319.073	41.19
319.287	40.11
319.5	21.72
319.714	1.02
319.928	2.18
320.142	-39.1
320.356	-25.2
320.57	-17.27
320.784	-5.73
320.997	-42.37
321.211	-28.73
321.425	-53.13
321.639	-62.37
321.853	-41.66
322.066	-13.19
322.28	-14.17
322.494	-12.2
322.707	-8.56
322.921	-8.63
323.135	-7.3
323.349	3.88
323.562	3.76
323.776	-9.25
323.989	-15.59
324.203	-16.33
324.417	-29.72
324.63	-42.5
324.844	-14.09
325.057	-7.21
325.271	-3.57
325.485	25.02
325.698	41.59
325.912	38.14
326.125	29.25
326.339	26.73
326.552	4.09
326.766	-3.01
326.979	3.6
327.193	18.18
327.406	10.49
327.619	13.48
327.833	18.09
328.046	6.11
328.26	-1.48
328.473	6.8
328.686	5.09
328.9	-4.37
329.113	14.93
329.326	-12.77
329.54	-1.01
329.753	-8.38
329.966	-10.28
330.179	-13.98
330.393	5.38
330.606	2.7
330.819	4.41
331.032	24.29
331.246	28.55
331.459	43.43
331.672	44.95
331.885	53.78
332.098	33.69
332.311	25.79
332.525	11.58
332.738	-2.67
332.951	-9.47
333.164	8.35
333.377	7.24
333.59	3.16
333.803	9.51
334.016	18.87
334.229	9.12
334.442	25.37
334.655	45.24
334.868	44.5
335.081	45.2
335.294	53.86
335.507	53.47
335.72	50.94
335.933	42.1
336.146	37.21
336.359	16.53
336.572	-5.78
336.785	-31.7
336.997	-25
337.21	-14.19
337.423	-2.69
337.636	2.92
337.849	12.12
338.062	9.17
338.274	12.54
338.487	9.31
338.7	4.95
338.913	-22.03
339.125	-31.36
339.338	-57.28
339.551	-28.39
339.763	-20.21
339.976	15.06
340.189	28.08
340.402	18.72
340.614	0.27
340.827	4.41
341.039	-5.35
341.252	6.11
341.465	12.32
341.677	22.53
341.89	12.5
342.102	15.21
342.315	-6.62
342.527	-31.96
342.74	-27.86
342.952	-18.09
343.165	-18.15
343.377	-9.37
343.59	0.22
343.802	-8.43
344.015	-21.44
344.227	-27.4
344.44	-21.43
344.652	-10.01
344.864	1.93
345.077	33.22
345.289	33.74
345.502	32.74
345.714	27.33
345.926	22.78
346.139	12.94
346.351	11.98
346.563	14.46
346.775	16.24
346.988	11.57
347.2	-3.39
347.412	-23.23
347.624	-20.55
347.837	-39.76
348.049	-24.35
348.261	-0.29
348.473	12.59
348.685	17.66
348.897	3.77
349.11	-11.89
349.322	-39.3
349.534	-41.18
349.746	-39.95
349.958	-31.45
350.17	-23.86
350.382	-6.82
350.594	-13.95
350.806	-13.09
351.018	9.51
351.23	10.81
351.442	-9.82
351.654	4.46
351.866	-0.11
352.078	1.09
352.29	-0.82
352.502	17.74
352.714	23.77
352.926	15.6
353.138	12.62
353.35	12.36
353.561	12.5
353.773	1.67
353.985	0.9
354.197	-4
354.409	-6.91
354.621	-18.37
354.832	-7.07
355.044	-12.61
355.256	-7.92
355.468	6.82
355.679	10.7
355.891	6.6
356.103	7.5
356.314	8.56
356.526	-3.34
356.738	-2.42
356.949	4.73
357.161	21.79
357.373	18.46
357.584	7.29
357.796	18.87
358.008	14.56
358.219	17.25
358.431	6.82
358.642	13.08
358.854	5.3
359.065	-8.61
359.277	-17.63
359.488	-17.84
359.7	-31.78
359.911	-41.91
360.123	-14.54
360.334	-28.84
360.546	-32.7
360.757	-19.26
360.969	7.77
361.18	-13.26
361.391	5.9
361.603	4.6
361.814	10.02
362.025	3.02
362.237	3
362.448	7.11
362.659	16.47
362.871	3.37
363.082	3.36
363.293	14.35
363.504	4.58
363.716	-9.15
363.927	-1.67
364.138	-12.06
364.349	-22.88
364.56	-17.06
364.772	-10.2
364.983	5.65
365.194	8.46
365.405	20.05
365.616	38.26
365.827	40.54
366.038	27.65
366.25	13.27
366.461	-2.74
366.672	-18
366.883	2.33
367.094	13.55
367.305	14.1
367.516	19.06
367.727	1.04
367.938	-12.35
368.149	-17.3
368.36	-12.01
368.571	-17.33
368.781	-13.66
368.992	-13.88
369.203	-33.21
369.414	-33.89
369.625	-39.17
369.836	-30.56
370.047	-53.57
370.258	-34.86
370.468	-25.97
370.679	-16.64
370.89	-14.01
371.101	4.31
371.312	9.56
371.522	-0.06
371.733	-4.72
371.944	-1.66
372.155	4.61
372.365	-5.62
372.576	4.15
372.787	7.77
372.997	-6.4
373.208	-9.63
373.419	12.76
373.629	-13.1
373.84	-6.96
374.05	-15.16
374.261	-24.24
374.472	-37.88
374.682	2.5
374.893	1.97
375.103	25.12
375.314	36.68
375.524	42.98
375.735	34.68
375.945	27.29
376.156	18.53
376.366	15.08
376.577	2.92
376.787	3.09
376.997	12.41
377.208	16.82
377.418	14.42
377.629	17.92
377.839	11.6
378.049	6.23
378.26	12.38
378.47	16.25
378.68	11.23
378.89	17.91
379.101	15.61
379.311	-8.29
379.521	-32.6
379.732	-20.58
379.942	-22.99
380.152	-30.36
380.362	2.94
380.572	11.74
380.783	19.63
380.993	16.55
381.203	21.95
381.413	9.09
381.623	8.28
381.833	3.91
382.043	0.37
382.253	-4.32
382.463	8.46
382.674	-0.44
382.884	-10.92
383.094	-0.93
383.304	10.98
383.514	12.05
383.724	14.54
383.934	20.46
384.144	5.58
384.353	-7.41
384.563	-19.58
384.773	-11.09
384.983	-15.3
385.193	1.52
385.403	7.04
385.613	14.99
385.823	3.74
386.033	3.52
386.242	-5.88
386.452	-7.14
386.662	-13.49
386.872	5.84
387.082	6.12
387.291	8.59
387.501	9.31
387.711	11.01
387.921	1.45
388.13	6.33
388.34	15.74
388.55	12.69
388.759	9.51
388.969	9.95
389.179	5.47
389.388	-1.08
389.598	4.81
389.807	4.12
390.017	2.02
390.227	1
390.436	1.83
390.646	-2.98
390.855	1.66
391.065	-0.16
391.274	1.04
391.484	0.98
391.693	2.35
391.903	2.98
392.112	9.29
392.322	8.26
392.531	10.02
392.74	11.83
392.95	8.85
393.159	6.82
393.369	8.99
393.578	7.89
393.787	7.4
393.997	9.17
394.206	9.07
394.415	8.5
394.625	9.01
394.834	7.82
395.043	7.44
395.252	9.32
395.462	9.2
395.671	9.49
395.88	9.59
396.089	9.43
396.298	6.98
396.508	7.42
396.717	6.97
396.926	8.12
397.135	8.46
397.344	9.17
397.553	10.13
397.762	10.71
397.971	10.55
398.181	10.98
398.39	11.01
398.599	10.38
398.808	10.28
399.017	10.43
399.226	11.2
399.435	11.44
399.644	11.33
399.853	10.97
400.062	10.66
400.27	9.95
400.479	9.57
400.688	9.1
400.897	9.49
401.106	9.65
401.315	9.71
401.524	10.05
401.733	10.68
401.941	10.83
402.15	10.59
402.359	10.28
402.568	10.17
402.777	10.26
402.985	9.83
403.194	10.02
403.403	9.79
403.612	9.61
403.82	9.14
404.029	9.32
404.238	9.3
404.446	9.55
404.655	9.54
404.864	9.65
405.072	9.42
405.281	9.25
405.489	9.27
405.698	9.37
405.906	9.26
406.115	9.22
406.324	9.26
406.532	9.29
406.741	9.29
406.949	9.5
407.158	9.76
407.366	9.85
407.574	9.83
407.783	9.79
407.991	9.61
408.2	9.4
408.408	9.29
408.617	9.16
408.825	9.03
409.033	9.15
409.242	9.18
409.45	9.21
409.658	9.2
409.867	9.35
410.075	9.18
410.283	9.15
410.491	9.1
410.7	9.16
410.908	9.11
411.116	9.38
411.324	9.37
411.533	9.26
411.741	9.19
411.949	9.06
412.157	8.66
412.365	8.67
412.573	8.62
412.781	8.72
412.99	8.82
413.198	9
413.406	8.98
413.614	8.98
413.822	8.82
414.03	8.83
414.238	8.59
414.446	8.59
414.654	8.48
414.862	8.44
415.07	8.38
415.278	8.66
415.486	8.5
415.694	8.7
415.902	8.73
416.109	8.69
416.317	8.46
416.525	8.43
416.733	8.41
416.941	8.53
417.149	8.54
417.357	8.48
417.564	8.59
417.772	8.43
417.98	8.22
418.188	8.09
418.395	8.16
418.603	8.16
418.811	8.07
419.019	8.09
419.226	8.18
419.434	8.25
419.642	8.1
419.849	8.25
420.057	8.19
420.265	8.24
420.472	8.14
420.68	8.02
420.887	7.99
421.095	7.93
421.302	7.85
421.51	7.84
421.717	8.06
421.925	8
422.132	8
422.34	7.78
422.547	7.7
422.755	7.53
422.962	7.52
423.17	7.48
423.377	7.58
423.585	7.55
423.792	7.53
423.999	7.43
424.207	7.5
424.414	7.5
424.621	7.36
424.829	7.45
425.036	7.59
425.243	7.61
425.451	7.46
425.658	7.66
425.865	7.57
426.072	7.44
426.28	7.52
426.487	7.76
426.694	7.78
426.901	7.77
427.108	7.89
427.315	7.83
427.523	7.8
427.73	7.62
427.937	7.63
428.144	7.51
428.351	7.5
428.558	7.49
428.765	7.58
428.972	7.65
429.179	7.82
429.386	8.09
429.593	8.13
429.8	8.18
430.007	8.36
430.214	8.36
430.421	7.99
430.628	7.81
430.835	7.8
431.042	7.84
431.249	7.95
431.456	8.18
431.662	8.34
431.869	8.43
432.076	8.31
432.283	8.39
432.49	8.36
432.697	8.39
432.903	8.4
433.11	8.56
433.317	8.49
433.524	8.59
433.73	8.7
433.937	8.71
434.144	8.73
434.35	8.83
434.557	8.7
434.764	8.78
434.97	8.9
435.177	8.93
435.384	8.94
435.59	9.08
435.797	9.23
436.003	9.25
436.21	9.25
436.416	9.31
436.623	9.34
436.829	9.29
437.036	9.36
437.242	9.39
437.449	9.33
437.655	9.41
437.862	9.48
438.068	9.43
438.275	9.55
438.481	9.72
438.687	9.84
438.894	9.77
439.1	9.9
439.307	10.03
439.513	9.99
439.719	9.95
439.926	10.09
440.132	10.11
440.338	9.99
440.544	10.15
440.751	10.04
440.957	10.15
441.163	10.16
441.369	10.33
441.575	10.23
441.782	10.37
441.988	10.26
442.194	10.27
442.4	10.25
442.606	10.36
442.812	10.49
443.018	10.55
443.224	10.56
443.431	10.57
443.637	10.55
443.843	10.43
444.049	10.49
444.255	10.56
444.461	10.63
444.667	10.73
444.873	10.91
445.079	10.84
445.284	10.94
445.49	10.82
445.696	10.71
445.902	10.7
446.108	10.79
446.314	10.87
446.52	10.87
446.726	11.09
446.931	11.12
447.137	11.11
447.343	11.04
447.549	11.16
447.755	11.08
447.96	11.09
448.166	11.06
448.372	11.04
448.578	11.06
448.783	11.11
448.989	11.2
449.195	11.35
449.4	11.48
449.606	11.56
449.812	11.55
450.017	11.47
450.223	11.46
450.428	11.37
450.634	11.36
450.84	11.45
451.045	11.52
451.251	11.51
451.456	11.71
451.662	11.68
451.867	11.7
452.073	11.73
452.278	11.81
452.483	11.77
452.689	11.77
452.894	11.72
453.1	11.63
453.305	11.64
453.51	11.6
453.716	11.63
453.921	11.65
454.127	11.69
454.332	11.61
454.537	11.63
454.742	11.6
454.948	11.53
455.153	11.66
455.358	11.77
455.563	11.82
455.769	11.99
455.974	12.07
456.179	11.98
456.384	11.95
456.589	11.86
456.795	11.75
457	11.72
457.205	11.8
457.41	11.96
457.615	12.06
457.82	12.18
458.025	12.25
458.23	12.27
458.435	12.23
458.64	12.11
458.845	12.16
459.05	12.16
459.255	12.17
459.46	12.09
459.665	12.18
459.87	12.15
460.075	12.14
460.28	12.14
460.485	12.23
460.69	12.27
460.895	12.18
461.099	12.21
461.304	12.15
461.509	12.13
461.714	12.07
461.919	12.19
462.123	12.21
462.328	12.41
462.533	12.45
462.738	12.52
462.942	12.5
463.147	12.55
463.352	12.5
463.556	12.57
463.761	12.63
463.966	12.72
464.17	12.74
464.375	12.74
464.58	12.73
464.784	12.82
464.989	12.78
465.193	12.77
465.398	12.88
465.602	12.99
465.807	12.96
466.011	13.09
466.216	13.17
466.42	13.25
466.625	13.33
466.829	13.38
467.034	13.52
467.238	13.62
467.443	13.54
467.647	13.47
467.851	13.56
468.056	13.35
468.26	13.36
468.464	13.43
468.669	13.53
468.873	13.66
469.077	13.77
469.282	13.88
469.486	13.95
469.69	14
469.894	13.91
470.099	14.02
470.303	14.01
470.507	13.98
470.711	13.94
470.915	14.04
471.119	13.98
471.324	14.01
471.528	14.08
471.732	14.06
471.936	14
472.14	14.09
472.344	14.16
472.548	14.18
472.752	14.5
472.956	14.71
473.16	14.82
473.364	14.78
473.568	14.87
473.772	14.87
473.976	14.82
474.18	14.83
474.384	14.94
474.588	14.94
474.792	14.89
474.995	15.03
475.199	15.1
475.403	15.11
475.607	15.2
475.811	15.18
476.015	15.2
476.218	15.26
476.422	15.3
476.626	15.35
476.83	15.54
477.033	15.45
477.237	15.51
477.441	15.61
477.644	15.78
477.848	15.83
478.052	15.9
478.255	15.9
478.459	15.98
478.663	16.04
478.866	16.03
479.07	16.18
479.273	16.26
479.477	16.27
479.681	16.16
479.884	16.11
480.088	16.04
480.291	16.04
480.495	16.11
480.698	16.23
480.901	16.32
481.105	16.39
481.308	16.45
481.512	16.55
481.715	16.62
481.919	16.72
482.122	16.84
482.325	16.87
482.529	16.8
482.732	16.7
482.935	16.68
483.138	16.5
483.342	16.48
483.545	16.58
483.748	16.66
483.952	16.66
484.155	16.84
484.358	17
484.561	16.93
484.764	16.94
484.967	16.95
485.171	17.02
485.374	16.91
485.577	17.09
485.78	17.15
485.983	17.12
486.186	17.08
486.389	17.18
486.592	17.13
486.795	17.18
486.998	17.27
487.201	17.33
487.404	17.44
487.607	17.44
487.81	17.41
488.013	17.44
488.216	17.44
488.419	17.33
488.622	17.35
488.825	17.36
489.028	17.29
489.231	17.21
489.433	17.2
489.636	17.12
489.839	17.17
490.042	17.24
490.245	17.26
490.447	17.3
490.65	17.36
490.853	17.27
491.056	17.36
491.258	17.5
491.461	17.56
491.664	17.59
491.866	17.64
492.069	17.66
492.272	17.58
492.474	17.65
492.677	17.75
492.879	17.83
493.082	17.8
493.285	17.94
493.487	17.87
493.69	17.87
493.892	17.85
494.095	17.84
494.297	17.89
494.5	17.96
494.702	17.92
494.905	18.02
495.107	18.13
495.309	18.1
495.512	18.09
495.714	18.08
495.917	18.09
496.119	18.12
496.321	18.13
496.524	18.22
496.726	18.38
496.928	18.45
497.13	18.55
497.333	18.65
497.535	18.68
497.737	18.65
497.939	18.75
498.142	18.7
498.344	18.78
498.546	18.91
498.748	19.02
498.95	19.12
499.152	19.17
499.355	19.18
499.557	19.22
499.759	19.32
499.961	19.23
500.163	19.42
500.365	19.37
500.567	19.48
500.769	19.53
500.971	19.69
501.173	19.61
501.375	19.72
501.577	19.69
501.779	19.65
501.981	19.68
502.183	19.78
502.385	19.82
502.587	19.77
502.788	19.84
502.99	19.82
503.192	19.83
503.394	19.87
503.596	19.96
503.798	20.04
503.999	20.19
504.201	20.19
504.403	20.31
504.605	20.38
504.806	20.4
505.008	20.41
505.21	20.45
505.411	20.49
505.613	20.6
505.815	20.63
506.016	20.66
506.218	20.78
506.42	20.74
506.621	20.77
506.823	20.86
507.024	20.86
507.226	20.85
507.427	20.85
507.629	20.92
507.83	21.01
508.032	21.07
508.233	21.23
508.435	21.36
508.636	21.38
508.838	21.36
509.039	21.4
509.24	21.37
509.442	21.44
509.643	21.44
509.845	21.57
510.046	21.63
510.247	21.73
510.448	21.75
510.65	21.86
510.851	21.85
511.052	21.96
511.254	21.86
511.455	21.88
511.656	21.9
511.857	21.98
512.058	21.98
512.26	22.14
512.461	22.25
512.662	22.35
512.863	22.35
513.064	22.31
513.265	22.25
513.466	22.35
513.667	22.31
513.868	22.3
514.069	22.44
514.27	22.6
514.471	22.57
514.672	22.63
514.873	22.69
515.074	22.75
515.275	22.74
515.476	22.72
515.677	22.73
515.878	22.81
516.079	22.8
516.28	22.79
516.481	22.9
516.682	23
516.882	23.01
517.083	23.02
517.284	23.11
517.485	23.14
517.686	23.08
517.886	23.12
518.087	23.12
518.288	23.14
518.488	23.18
518.689	23.22
518.89	23.26
519.091	23.38
519.291	23.41
519.492	23.48
519.692	23.61
519.893	23.58
520.094	23.55
520.294	23.5
520.495	23.45
520.695	23.5
520.896	23.62
521.096	23.65
521.297	23.75
521.497	23.78
521.698	23.79
521.898	23.81
522.099	23.89
522.299	23.94
522.499	24.05
522.7	24.05
522.9	24
523.101	24.03
523.301	24.11
523.501	24.07
523.702	24.1
523.902	24.28
524.102	24.4
524.302	24.47
524.503	24.53
524.703	24.58
524.903	24.54
525.103	24.44
525.304	24.4
525.504	24.42
525.704	24.47
525.904	24.47
526.104	24.49
526.304	24.55
526.504	24.55
526.705	24.53
526.905	24.63
527.105	24.66
527.305	24.69
527.505	24.71
527.705	24.7
527.905	24.68
528.105	24.69
528.305	24.69
528.505	24.73
528.705	24.8
528.905	24.85
529.105	24.92
529.304	24.98
529.504	25.12
529.704	25.14
529.904	25.19
530.104	25.21
530.304	25.2
530.503	25.17
530.703	25.17
530.903	25.21
531.103	25.25
531.303	25.31
531.502	25.34
531.702	25.43
531.902	25.45
532.101	25.48
532.301	25.6
532.501	25.66
532.7	25.69
532.9	25.79
533.1	25.82
533.299	25.78
533.499	25.85
533.698	25.82
533.898	25.78
534.097	25.81
534.297	25.89
534.496	25.89
534.696	26.02
534.895	26.07
535.095	26.16
535.294	26.07
535.494	26.06
535.693	26.06
535.892	26.03
536.092	26.05
536.291	26.13
536.491	26.23
536.69	26.28
536.889	26.32
537.088	26.31
537.288	26.37
537.487	26.41
537.686	26.5
537.886	26.68
538.085	26.7
538.284	26.78
538.483	26.83
538.682	26.89
538.882	27
539.081	27.15
539.28	27.12
539.479	27.18
539.678	27.21
539.877	27.2
540.076	27.25
540.275	27.29
540.474	27.36
540.673	27.36
540.872	27.39
541.071	27.43
541.27	27.43
541.469	27.39
541.668	27.44
541.867	27.43
542.066	27.52
542.265	27.73
542.464	27.84
542.663	27.9
542.862	28.1
543.06	28.17
543.259	28.32
543.458	28.47
543.657	28.55
543.856	28.52
544.054	28.5
544.253	28.46
544.452	28.44
544.651	28.48
544.849	28.46
545.048	28.56
545.247	28.62
545.445	28.65
545.644	28.71
545.843	28.85
546.041	28.91
546.24	28.97
546.438	29.12
546.637	29.21
546.836	29.28
547.034	29.34
547.233	29.36
547.431	29.31
547.63	29.36
547.828	29.38
548.027	29.46
548.225	29.46
548.423	29.6
548.622	29.69
548.82	29.77
549.019	29.8
549.217	30
549.415	30.06
549.614	30.23
549.812	30.38
550.01	30.41
550.209	30.54
550.407	30.63
550.605	30.69
550.803	30.73
551.002	30.88
551.2	30.91
551.398	31.02
551.596	31.03
551.794	31.22
551.993	31.31
552.191	31.39
552.389	31.47
552.587	31.59
552.785	31.66
552.983	31.76
553.181	31.92
553.379	32.06
553.577	32.14
553.775	32.24
553.973	32.32
554.171	32.31
554.369	32.37
554.567	32.55
554.765	32.65
554.963	32.79
555.161	32.93
555.359	33.12
555.557	33.23
555.755	33.27
555.952	33.45
556.15	33.55
556.348	33.54
556.546	33.6
556.744	33.7
556.941	33.77
557.139	33.92
557.337	34.03
557.535	34.1
557.732	34.32
557.93	34.29
558.128	34.28
558.325	34.39
558.523	34.45
558.721	34.46
558.918	34.59
559.116	34.83
559.313	34.9
559.511	35.15
559.708	35.29
559.906	35.45
560.104	35.46
560.301	35.55
560.498	35.57
560.696	35.63
560.893	35.87
561.091	36.01
561.288	36.2
561.486	36.38
561.683	36.52
561.88	36.48
562.078	36.69
562.275	36.75
562.473	36.85
562.67	37.06
562.867	37.21
563.064	37.32
563.262	37.46
563.459	37.58
563.656	37.65
563.853	37.78
564.051	37.9
564.248	37.93
564.445	38.02
564.642	38.06
564.839	38.21
565.036	38.34
565.234	38.56
565.431	38.71
565.628	38.89
565.825	38.91
566.022	39.07
566.219	39.18
566.416	39.23
566.613	39.3
566.81	39.46
567.007	39.43
567.204	39.47
567.401	39.64
567.598	39.8
567.795	39.89
567.991	40
568.188	40.15
568.385	40.15
568.582	40.19
568.779	40.32
568.976	40.32
569.172	40.37
569.369	40.46
569.566	40.53
569.763	40.55
569.96	40.63
570.156	40.74
570.353	40.78
570.55	40.89
570.746	40.91
570.943	40.99
571.14	40.9
571.336	40.96
571.533	41.02
571.729	41.05
571.926	41.14
572.123	41.31
572.319	41.48
572.516	41.4
572.712	41.43
572.909	41.39
573.105	41.52
573.302	41.51
573.498	41.63
573.695	41.76
573.891	41.86
574.087	41.82
574.284	41.81
574.48	41.85
574.677	41.79
574.873	41.87
575.069	41.91
575.266	41.93
575.462	41.85
575.658	41.99
575.854	41.95
576.051	41.89
576.247	41.85
576.443	41.97
576.639	41.94
576.835	41.95
577.032	41.85
577.228	41.99
577.424	41.96
577.62	41.95
577.816	41.98
578.012	42.14
578.208	42.16
578.404	42.2
578.6	42.17
578.796	42.15
578.993	42.16
579.189	42.05
579.384	42.02
579.58	42.06
579.776	42.11
579.972	42.03
580.168	42
580.364	42.12
580.56	42.1
580.756	41.89
580.952	41.9
581.148	41.96
581.343	41.81
581.539	41.78
581.735	41.89
581.931	41.88
582.127	41.91
582.322	41.94
582.518	41.97
582.714	42.14
582.909	42.12
583.105	42.05
583.301	41.95
583.496	42.06
583.692	42.01
583.888	42.03
584.083	42.04
584.279	42.19
584.474	42.17
584.67	42.15
584.866	42.16
585.061	41.98
585.257	42.01
585.452	42.05
585.648	42.09
585.843	42.09
586.039	42.22
586.234	42.26
586.429	42.15
586.625	42.04
586.82	42.09
587.015	42.14
587.211	41.89
587.406	41.98
587.601	42.09
587.797	42.05
587.992	42.13
588.187	42.35
588.383	42.25
588.578	42.28
588.773	42.36
588.968	42.33
589.163	42.34
589.359	42.32
589.554	42.31
589.749	42.16
589.944	42.27
590.139	42.31
590.334	42.46
590.529	42.53
590.724	42.73
590.919	42.77
591.114	42.82
591.309	42.98
591.504	43.07
591.699	43.05
591.894	43.2
592.089	43.12
592.284	43.11
592.479	43.14
592.674	43.22
592.869	43.16
593.064	43.3
593.259	43.4
593.454	43.42
593.648	43.6
593.843	43.69
594.038	43.73
594.233	43.66
594.428	43.72
594.622	43.77
594.817	43.86
595.012	43.86
595.206	44.03
595.401	44.06
595.596	44.04
595.79	44.1
595.985	44.25
596.18	44.34
596.374	44.54
596.569	44.59
596.763	44.58
596.958	44.77
597.153	44.74
597.347	44.72
597.542	44.8
597.736	44.85
597.931	44.85
598.125	45.01
598.319	45.2
598.514	45.33
598.708	45.52
598.903	45.52
599.097	45.59
599.291	45.54
599.486	45.49
599.68	45.46
599.874	45.6
600.069	45.56
600.263	45.63
600.457	45.82
600.651	45.85
600.846	45.89
601.04	45.98
601.234	46.06
601.428	46.12
601.622	46.15
601.817	46.22
602.011	46.28
602.205	46.28
602.399	46.15
602.593	46.22
602.787	46.23
602.981	46.28
603.175	46.29
603.369	46.31
603.563	46.32
603.757	46.32
603.951	46.29
604.145	46.28
604.339	46.37
604.533	46.28
604.727	46.22
604.921	46.18
605.115	46.27
605.309	46.36
605.502	46.54
605.696	46.59
605.89	46.55
606.084	46.41
606.278	46.3
606.471	46.18
606.665	46.11
606.859	46.07
607.053	46.12
607.246	46.05
607.44	46.01
607.634	45.99
607.827	45.87
608.021	45.77
608.214	45.78
608.408	45.66
608.602	45.69
608.795	45.74
608.989	45.73
609.182	45.65
609.376	45.73
609.569	45.6
609.763	45.51
609.956	45.34
610.15	45.3
610.343	45.22
610.537	45.07
610.73	45
610.923	44.98
611.117	44.96
611.31	44.92
611.504	44.93
611.697	44.92
611.89	44.91
612.083	44.78
612.277	44.74
612.47	44.67
612.663	44.65
612.856	44.65
613.05	44.61
613.243	44.48
613.436	44.46
613.629	44.31
613.822	44.11
614.015	43.99
614.209	43.97
614.402	43.92
614.595	43.95
614.788	44.08
614.981	44
615.174	43.81
615.367	43.71
615.56	43.65
615.753	43.37
615.946	43.36
616.139	43.43
616.332	43.51
616.525	43.45
616.718	43.53
616.911	43.58
617.103	43.68
617.296	43.58
617.489	43.59
617.682	43.53
617.875	43.48
618.067	43.21
618.26	43.01
618.453	42.88
618.646	42.84
618.838	42.72
619.031	42.74
619.224	42.85
619.417	43.01
619.609	42.88
619.802	42.87
619.994	42.82
620.187	42.63
620.38	42.44
620.572	42.52
620.765	42.56
620.957	42.51
621.15	42.49
621.342	42.45
621.535	42.33
621.727	42.18
621.92	42.16
622.112	42.12
622.305	42.15
622.497	42.22
622.69	42.17
622.882	42.19
623.074	42.29
623.267	42.26
623.459	42.1
623.651	42.19
623.844	42.13
624.036	42.19
624.228	42.08
624.42	42.19
624.613	42.19
624.805	42.2
624.997	42.08
625.189	42.09
625.381	41.95
625.574	41.83
625.766	41.81
625.958	41.84
626.15	41.89
626.342	41.99
626.534	41.92
626.726	41.9
626.918	41.8
627.11	41.76
627.302	41.67
627.494	41.68
627.686	41.74
627.878	41.68
628.07	41.64
628.262	41.55
628.454	41.47
628.646	41.39
628.838	41.47
629.029	41.39
629.221	41.49
629.413	41.53
629.605	41.39
629.797	41.23
629.989	41.2
630.18	41.14
630.372	41.09
630.564	40.97
630.755	41.03
630.947	41.14
631.139	41.04
631.33	40.96
631.522	41.14
631.714	41.08
631.905	40.9
632.097	40.9
632.289	40.98
632.48	40.75
632.672	40.73
632.863	40.77
633.055	40.7
633.246	40.58
633.438	40.7
633.629	40.77
633.821	40.66
634.012	40.66
634.203	40.71
634.395	40.64
634.586	40.67
634.777	40.68
634.969	40.59
635.16	40.52
635.351	40.45
635.543	40.37
635.734	40.34
635.925	40.45
636.117	40.48
636.308	40.57
636.499	40.4
636.69	40.3
636.881	40.28
637.073	40.26
637.264	40.17
637.455	40.16
637.646	40.25
637.837	40.08
638.028	39.94
638.219	39.99
638.41	40.02
638.601	39.93
638.792	40
638.983	40.11
639.174	40.04
639.365	40
639.556	39.96
639.747	39.87
639.938	39.85
640.129	39.78
640.32	39.64
640.511	39.73
640.701	39.72
640.892	39.59
641.083	39.62
641.274	39.7
641.465	39.6
641.655	39.56
641.846	39.64
642.037	39.55
642.228	39.47
642.418	39.49
642.609	39.59
642.8	39.5
642.99	39.55
643.181	39.54
643.372	39.39
643.562	39.28
643.753	39.26
643.943	39.15
644.134	39.03
644.324	39.11
644.515	39.05
644.705	38.93
644.896	38.97
645.086	38.96
645.277	38.89
645.467	38.82
645.658	38.9
645.848	38.81
646.038	38.81
646.229	38.72
646.419	38.69
646.61	38.54
646.8	38.5
646.99	38.47
647.18	38.43
647.371	38.25
647.561	38.28
647.751	38.23
647.941	38.13
648.132	38.13
648.322	38.23
648.512	38.19
648.702	38.12
648.892	38.08
649.082	37.99
649.272	37.96
649.462	37.8
649.653	37.89
649.843	37.86
650.033	37.88
650.223	37.74
650.413	37.69
650.603	37.52
650.793	37.48
650.983	37.36
651.172	37.27
651.362	37.25
651.552	37.25
651.742	37.22
651.932	37.26
652.122	37.28
652.312	37.18
652.502	37.17
652.691	37.08
652.881	36.84
653.071	36.68
653.261	36.63
653.45	36.34
653.64	36.24
653.83	36.12
654.019	36.07
654.209	35.95
654.399	35.87
654.588	35.56
654.778	35.42
654.968	35.25
655.157	35.01
655.347	34.86
655.536	34.89
655.726	34.74
655.915	34.55
656.105	34.48
656.294	34.42
656.484	34.18
656.673	34.11
656.863	34.05
657.052	33.85
657.241	33.54
657.431	33.35
657.62	33.15
657.809	32.87
657.999	32.65
658.188	32.48
658.377	32.24
658.567	31.98
658.756	31.75
658.945	31.59
659.134	31.23
659.324	31.01
659.513	30.68
659.702	30.56
659.891	30.45
660.08	30.29
660.269	30.2
660.458	30.09
660.648	29.71
660.837	29.32
661.026	29.19
661.215	28.86
661.404	28.54
661.593	28.4
661.782	28.22
661.971	27.95
662.16	27.77
662.349	27.58
662.538	27.41
662.726	27.2
662.915	27
663.104	26.82
663.293	26.68
663.482	26.44
663.671	26.22
663.86	25.99
664.048	25.72
664.237	25.58
664.426	25.37
664.615	25.22
664.803	25.04
664.992	24.81
665.181	24.52
665.369	24.3
665.558	24.08
665.747	23.98
665.935	23.94
666.124	23.87
666.312	23.78
666.501	23.59
666.69	23.32
666.878	23.11
667.067	22.95
667.255	22.88
667.444	22.93
667.632	22.94
667.82	22.83
668.009	22.65
668.197	22.45
668.386	22.3
668.574	22.15
668.762	22.02
668.951	21.85
669.139	21.87
669.327	21.67
669.516	21.59
669.704	21.54
669.892	21.7
670.08	21.56
670.269	21.53
670.457	21.44
670.645	21.3
670.833	21.16
671.021	21.07
671.21	21.07
671.398	21.14
671.586	21.16
671.774	21.17
671.962	21.25
672.15	21.15
672.338	21.06
672.526	21.13
672.714	20.95
672.902	20.9
673.09	20.97
673.278	21.02
673.466	21.07
673.654	21.22
673.842	21.19
674.03	21.16
674.218	21.1
674.405	21.03
674.593	20.95
674.781	20.95
674.969	21.12
675.157	21.16
675.344	21.22
675.532	21.48
675.72	21.68
675.908	21.66
676.095	21.62
676.283	21.7
676.471	21.76
676.658	21.69
676.846	21.75
677.033	21.95
677.221	22.02
677.409	21.91
677.596	22.15
677.784	22.23
677.971	22.4
678.159	22.44
678.346	22.54
678.534	22.54
678.721	22.74
678.909	22.89
679.096	22.95
679.283	23.2
679.471	23.36
679.658	23.45
679.846	23.63
680.033	23.87
680.22	23.88
680.408	23.99
680.595	24.04
680.782	24.1
680.969	24.25
681.157	24.49
681.344	24.68
681.531	25.06
681.718	25.18
681.905	25.47
682.093	25.81
682.28	26.16
682.467	26.46
682.654	26.97
682.841	27.17
683.028	27.36
683.215	27.49
683.402	27.49
683.589	27.73
683.776	28.12
683.963	28.56
684.15	28.87
684.337	29.37
684.524	29.67
684.711	30.09
684.898	30.35
685.085	30.72
685.271	31.25
685.458	31.45
685.645	31.73
685.832	32.12
686.019	32.63
686.205	32.7
686.392	33.27
686.579	33.66
686.766	34.18
686.952	34.62
687.139	35.32
687.326	35.75
687.512	36.29
687.699	36.72
687.886	37.25
688.072	37.68
688.259	38.14
688.445	38.87
688.632	39.26
688.818	39.67
689.005	40.11
689.191	40.58
689.378	41
689.564	41.83
689.751	42.61
689.937	43.12
690.124	43.79
690.31	44.26
690.496	44.62
690.683	44.93
690.869	45.59
691.055	46.2
691.242	46.71
691.428	47.37
691.614	48.08
691.8	48.78
691.987	49.46
692.173	50.23
692.359	50.69
692.545	51.28
692.731	51.85
692.918	52.26
693.104	52.78
693.29	53.31
693.476	53.88
693.662	54.47
693.848	55.1
694.034	55.5
694.22	55.76
694.406	56.16
694.592	56.7
694.778	57.14
694.964	57.9
695.15	58.83
695.336	59.33
695.522	60.02
695.708	60.38
695.894	60.59
696.08	61.07
696.265	61.49
696.451	61.93
696.637	62.34
696.823	62.83
697.009	63.36
697.194	64.06
697.38	64.15
697.566	64.6
697.751	64.98
697.937	65.46
698.123	65.96
698.308	66.48
698.494	66.97
698.68	67.12
698.865	67.59
699.051	67.63
699.236	67.96
699.422	68.3
699.607	68.88
699.793	68.97
699.978	69.24
700.164	69.62
700.349	69.96
700.535	70.41
700.72	70.71
700.906	71.35
701.091	71.67
701.276	71.99
701.462	72.57
701.647	73.08
701.832	73.06
702.018	72.96
702.203	73.1
702.388	73.04
702.573	73.02
702.759	73.72
702.944	74.41
703.129	74.89
703.314	75.18
703.499	75.55
703.684	75.24
703.87	75.76
704.055	76.17
704.24	76.33
704.425	76.56
704.61	77.44
704.795	77.25
704.98	77.4
705.165	77.78
705.35	78.22
705.535	78.16
705.72	78.45
705.905	78.77
706.09	78.87
706.275	78.81
706.459	78.62
706.644	78.45
706.829	78.62
707.014	78.44
707.199	78.71
707.384	79.28
707.568	79.71
707.753	79.86
707.938	80.18
708.123	80.12
708.307	80.05
708.492	80.1
708.677	80.21
708.861	80.58
709.046	80.72
709.231	81.24
709.415	81.51
709.6	81.5
709.784	81.22
709.969	81.25
710.153	81.26
710.338	81.25
710.522	81.25
710.707	81.86
710.891	82.17
711.076	82.37
711.26	82.5
711.445	83.05
711.629	83.24
711.813	83.58
711.998	83.6
712.182	83.52
712.366	83.51
712.551	83.58
712.735	83.41
712.919	83.2
713.103	83.24
713.288	83.08
713.472	82.89
713.656	82.93
713.84	82.74
714.024	83.3
714.208	83.18
714.393	83.65
714.577	83.9
714.761	84.38
714.945	84.28
715.129	84.8
715.313	84.93
715.497	85.06
715.681	85.56
715.865	85.28
716.049	85.12
716.233	84.66
716.417	84.78
716.601	84.21
716.785	84.22
716.968	84.2
717.152	84.41
717.336	84.31
717.52	84.57
717.704	84.59
717.888	84.77
718.071	84.93
718.255	84.92
718.439	84.75
718.622	85.45
718.806	85.09
718.99	85.11
719.174	84.82
719.357	85.28
719.541	85.32
719.724	85.57
719.908	85.98
720.092	86.35
720.275	86.42
720.459	85.91
720.642	85.69
720.826	84.95
721.009	84.85
721.193	84.35
721.376	84.73
721.559	85.28
721.743	85.8
721.926	86.05
722.11	86.57
722.293	86.13
722.476	85.85
722.66	85.66
722.843	85.56
723.026	85.05
723.21	85.91
723.393	86.57
723.576	86.39
723.759	85.71
723.942	86.41
724.126	86
724.309	85.75
724.492	86.17
724.675	86.61
724.858	86.48
725.041	86.55
725.224	86.62
725.407	86.65
725.59	86.88
725.774	86.66
725.957	86.3
726.14	86.37
726.322	86.29
726.505	86.63
726.688	87.14
726.871	87.46
727.054	87.31
727.237	87.01
727.42	86.65
727.603	86.2
727.786	86.43
727.968	86.63
728.151	86.64
728.334	87.47
728.517	88.02
728.699	87.97
728.882	87.64
729.065	88.31
729.248	87.48
729.43	87.19
729.613	87.84
729.796	88.31
729.978	88.06
730.161	88.34
730.343	87.99
730.526	87.84
730.708	87.2
730.891	87.1
731.073	87.09
731.256	87.31
731.438	86.85
731.621	87.34
731.803	87.76
731.986	87.25
732.168	87.09
732.35	87.39
732.533	87.62
732.715	87.08
732.898	87.87
733.08	87.86
733.262	88.1
733.444	87.19
733.627	87.52
733.809	87.62
733.991	87.98
734.173	87.19
734.355	87.66
734.538	88.29
734.72	87.84
734.902	87.49
735.084	88.08
735.266	88.08
735.448	87.62
735.63	87.89
735.812	87.94
735.994	88.68
736.176	88.81
736.358	89.04
736.54	89.58
736.722	89.53
736.904	89.24
737.086	89.55
737.268	89.48
737.45	89.41
737.632	89.6
737.814	88.85
737.995	88.3
738.177	87.6
738.359	87.25
738.541	87.5
738.723	87.16
738.904	87.89
739.086	88.5
739.268	88.43
739.449	88.89
739.631	89.03
739.813	89.19
739.994	89.05
740.176	89.24
740.358	88.59
740.539	89.99
740.721	90.21
740.902	90.91
741.084	90.87
741.265	91.26
741.447	90.57
741.628	90.12
741.81	88.79
741.991	88.83
742.172	88.3
742.354	88.2
742.535	87.99
742.717	88.99
742.898	89.83
743.079	89.73
743.261	89.45
743.442	89.68
743.623	89.36
743.804	88.87
743.986	89.91
744.167	89.82
744.348	89.31
744.529	89.22
744.71	88.18
744.891	88.07
745.073	88.37
745.254	88.15
745.435	88.74
745.616	89.18
745.797	88.82
745.978	88.77
746.159	89.02
746.34	87.93
746.521	88.94
746.702	88.18
746.883	88.28
747.064	88.29
747.245	89.03
747.426	87.76
747.606	88.95
747.787	88.88
747.968	89.03
748.149	88.73
748.33	89.49
748.51	88.44
748.691	88.59
748.872	89.06
749.053	89.23
749.233	88.92
749.414	89.32
749.595	88.16
749.775	87.19
749.956	87.09
750.137	86.05
750.317	87.19
750.498	89.3
750.678	89.17
750.859	89.46
751.04	89.77
751.22	88.61
751.4	87.62
751.581	87.52
751.761	87.54
751.942	87.88
752.122	87.22
752.303	86.47
752.483	86.17
752.663	85.1
752.844	84.06
753.024	85.38
753.204	85.86
753.385	85.89
753.565	86.61
753.745	87.43
753.925	86.45
754.106	85.53
754.286	86.36
754.466	86.62
754.646	87.35
754.826	86.45
755.006	86.83
755.187	87.09
755.367	87.19
755.547	86.04
755.727	88.03
755.907	88.33
756.087	87.94
756.267	86.48
756.447	87.04
756.627	85.83
756.807	86.06
756.987	86.21
757.167	86.92
757.346	86.73
757.526	87.84
757.706	87.51
757.886	88.75
758.066	89.51
758.246	90.14
758.425	88.43
758.605	88.02
758.785	86.67
758.965	86.42
759.144	86.1
759.324	88.14
759.504	88.89
759.683	89.48
759.863	88.69
760.043	87.5
760.222	85.17
760.402	83.81
760.581	82.95
760.761	83.79
760.94	84.66
761.12	86.4
761.299	88.55
761.479	89.11
761.658	88.69
761.838	89.09
762.017	89.05
762.197	87.36
762.376	87.53
762.555	88.67
762.735	87.83
762.914	86.48
763.093	86.55
763.273	85.56
763.452	84.71
763.631	84.7
763.81	83.53
763.99	83.25
764.169	84.13
764.348	82.87
764.527	82.28
764.706	84.84
764.885	85.66
765.064	83.36
765.243	83.64
765.423	85.62
765.602	84.76
765.781	82.76
765.96	83.57
766.139	82.95
766.318	82.43
766.497	82.94
766.676	83.7
766.854	85.21
767.033	85.91
767.212	84.2
767.391	84.45
767.57	86.17
767.749	86.03
767.928	87.07
768.106	87.73
768.285	85.3
768.464	84.36
768.643	83.2
768.821	82.6
769	82.75
769.179	84.38
769.357	83.59
769.536	85.15
769.715	85.13
769.893	86.5
770.072	85.23
770.25	86.96
770.429	86.67
770.607	86.26
770.786	84.59
770.964	86.41
771.143	85.92
771.321	87.13
771.5	88.58
771.678	88.03
771.857	85.91
772.035	85.46
772.213	83.86
772.392	81.64
772.57	83.72
772.748	84.14
772.927	83.93
773.105	82.39
773.283	83.05
773.461	82.75
773.64	84.74
773.818	85.26
773.996	86.84
774.174	87.41
774.352	86.23
774.531	83.12
774.709	83.87
774.887	82.41
775.065	81.52
775.243	82.35
775.421	83.26
775.599	82.18
775.777	82.13
775.955	82.07
776.133	80.45
776.311	81.01
776.489	80.14
776.667	80.85
776.844	81.03
777.022	80.01
777.2	80.54
777.378	81.21
777.556	81.88
777.734	84.04
777.911	88.89
778.089	89.58
778.267	89.04
778.445	88.02
778.622	86.72
778.8	84.25
778.978	82.84
779.155	84.51
779.333	84.21
779.511	84.68
779.688	87.56
779.866	85.89
780.043	83.63
780.221	84.92
780.398	82.38
780.576	80.68
780.753	84.27
780.931	84.39
781.108	83.54
781.286	83.56
781.463	83.49
781.64	78.6
781.818	79.46
781.995	77.95
782.172	79
782.35	78.68
782.527	82.26
782.704	81.07
782.882	83.81
783.059	83.66
783.236	83.16
783.413	83.64
783.59	84.32
783.768	81.78
783.945	83.8
784.122	82.78
784.299	83.08
784.476	81.83
784.653	83.46
784.83	81.34
785.007	80.23
785.184	77.13
785.361	78.01
785.538	81.25
785.715	80.11
785.892	82.6
786.069	84.65
786.246	85.83
786.423	83.56
786.6	85.2
786.776	83.23
786.953	79.48
787.13	79.87
787.307	78.78
787.484	75.22
787.66	72.46
787.837	76.47
788.014	72.84
788.191	70.54
788.367	72.77
788.544	78.18
788.721	77.3
788.897	79.29
789.074	79.15
789.25	81.49
789.427	79.54
789.603	79.8
789.78	80.33
789.956	83.44
790.133	82.78
790.309	84.1
790.486	84.51
790.662	80.78
790.839	79.8
791.015	76.72
791.192	76.14
791.368	77.47
791.544	79.11
791.721	79.61
791.897	80.96
792.073	77.56
792.249	72.73
792.426	73.42
792.602	71.65
792.778	74.17
792.954	75.74
793.13	77.83
793.307	74.93
793.483	72.13
793.659	75.15
793.835	75.13
794.011	73.86
794.187	79.09
794.363	81.06
794.539	77.56
794.715	77.79
794.891	79.38
795.067	78.48
795.243	76.69
795.419	75.5
795.595	75.26
795.771	73.2
795.947	73.24
796.122	76.04
796.298	75.01
796.474	74.81
796.65	74.31
796.826	71.78
797.001	74.75
797.177	73.87
797.353	76.28
797.529	78.34
797.704	81.71
797.88	78.86
798.056	78.07
798.231	76.62
798.407	75.8
798.582	76.62
798.758	77.48
798.934	79.05
799.109	78.24
799.285	74.4
799.46	71.03
799.636	72.37
799.811	71.96
799.986	70.45
800.162	76.22
800.337	76.22
800.513	68.62
800.688	69.62
800.863	81.93
801.039	76.07
801.214	76.6
801.389	89.74
801.565	88.4
801.74	66.82
801.915	70.86
802.09	68.18
802.265	66.3
802.441	62.19
802.616	67.48
802.791	69
802.966	73.09
803.141	70.73
803.316	73.27
803.491	76.4
803.666	77.55
803.841	78.41
804.016	72.25
804.191	71.93
804.366	78
804.541	73.92
804.716	71.47
804.891	76.63
805.066	77.65
805.241	65.48
805.416	62.72
805.591	61.9
805.765	64.05
805.94	71.76
806.115	74.21
806.29	72.47
806.464	72.46
806.639	66.7
806.814	57.6
806.989	58.57
807.163	60.9
807.338	61.24
807.512	59.74
807.687	53.15
807.862	54.7
808.036	69.43
808.211	72.78
808.385	77.54
808.56	87.88
808.734	102.01
808.909	90.65
809.083	83.55
809.258	83.68
809.432	76.82
809.606	62.23
809.781	58.33
809.955	64.17
810.13	64.4
810.304	65.28
810.478	63.13
810.652	62.81
810.827	65.86
811.001	60.85
811.175	64.14
811.349	68.06
811.524	68.86
811.698	61.84
811.872	63.45
812.046	69.71
812.22	72.55
812.394	71.59
812.568	79.66
812.742	86.67
812.916	78.72
813.09	69.19
813.264	69.23
813.438	61.84
813.612	58.49
813.786	62.17
813.96	68.39
814.134	65.78
814.308	72.74
814.482	72.35
814.656	58.19
814.83	61.26
815.003	64.23
815.177	52.71
815.351	49.19
815.525	53.58
815.698	50.75
815.872	49.46
816.046	46.75
816.219	49.98
816.393	48.65
816.567	49.83
816.74	57.68
816.914	67.07
817.088	69.85
817.261	69.75
817.435	66.73
817.608	59.24
817.782	59.76
817.955	52.09
818.129	52.87
818.302	55.42
818.475	52.99
818.649	46.45
818.822	49.55
818.996	54.54
819.169	60.89
819.342	61.76
819.516	65.45
819.689	62.71
819.862	68.65
820.035	66.84
820.209	63.29
820.382	61.1
820.555	63.66
820.728	60.16
820.901	52.57
821.075	53.1
821.248	56.46
821.421	41.74
821.594	37.36
821.767	41.03
821.94	50.51
822.113	36.81
822.286	39.42
822.459	38.53
822.632	27.89
822.805	22.83
822.978	21.97
823.151	27.63
823.324	26.35
823.496	21.61
823.669	22.57
823.842	40.52
824.015	40.3
824.188	42
824.361	48.14
824.533	39.32
824.706	36.64
824.879	35.49
825.051	45.68
825.224	47.21
825.397	49.45
825.569	49.1
825.742	77.11
825.915	55.92
826.087	70
826.26	63.59
826.432	60.91
826.605	44.55
826.777	56.44
826.95	54.59
827.122	40.38
827.295	36.27
827.467	35.72
827.64	9.57
827.812	8.79
827.984	23.12
828.157	29.51
828.329	12.07
828.501	29.33
828.674	34.16
828.846	40.19
829.018	47.62
829.19	49.17
829.363	65.71
829.535	75.18
829.707	69.76
829.879	53.81
830.051	59.29
830.223	38.35
830.395	19.58
830.568	22.86
830.74	19.56
830.912	19.16
831.084	21.42
831.256	19.74
831.428	12.19
831.6	2.38
831.772	-5
831.943	-13.13
832.115	3.05
832.287	16.91
832.459	30.46
832.631	48.48
832.803	49.33
832.975	74.2
833.146	73.37
833.318	87.56
833.49	105.09
833.662	108.77
833.833	61.84
834.005	48.39
834.177	55.55
834.348	51.31
834.52	68.55
834.692	72.15
834.863	114.95
835.035	94.03
835.206	53.72
835.378	41.31
835.549	54.7
835.721	58.5
835.892	41.83
836.064	39.94
836.235	42.3
836.407	44.8
836.578	12.15
836.749	10.6
836.921	8.31
837.092	-9.35
837.264	-2.11
837.435	-1.19
837.606	19.69
837.777	37.43
837.949	42.22
838.12	40.22
838.291	41.02
838.462	29.39
838.633	28.24
838.805	35.41
838.976	75.39
839.147	66.22
839.318	61.37
839.489	39.29
839.66	18.41
839.831	-4.9
840.002	10.55
840.173	10.88
840.344	47.39
840.515	80.54
840.686	73.56
840.857	36.82
841.028	3.92
841.199	-7.75
841.369	-1.41
841.54	-7.64
841.711	19.05
841.882	22.25
842.053	1.83
842.223	-18.98
842.394	-10.03
842.565	-24.1
842.736	-1.6
842.906	13.29
843.077	39.78
843.248	47.19
843.418	64.94
843.589	47.99
843.759	42.47
843.93	-7.04
844.101	13
844.271	25.61
844.442	32.89
844.612	30.93
844.783	24.25
844.953	-6.07
845.123	-34.05
845.294	-30.47
845.464	-117.69
845.635	-35.98
845.805	23.14
845.975	4.11
846.146	-40.88
846.316	-27.61
846.486	-19.11
846.656	11.57
846.827	18.85
846.997	36.76
847.167	50.52
847.337	47.44
847.507	16.86
847.677	24.7
847.848	36.9
848.018	25.73
848.188	12.5
848.358	4.76
848.528	-20.73
848.698	-18.59
848.868	-42.79
849.038	-51.31
849.208	-6.63
849.378	26.03
849.548	-9.59
849.718	2.24
849.887	11.22
850.057	-4.42
850.227	-5.17
850.397	-10.54
850.567	-31.48
850.737	-140.11
850.906	-504.06
851.076	-436.91
851.246	-231.54
851.415	-17.59
851.585	15.53
851.755	18.31
851.924	37.06
852.094	8.88
852.264	-38.77
852.433	-681.97
852.603	-93.87
852.772	-84.39
852.942	10.19
853.111	12.26
853.281	44.47
853.45	38.08
853.62	-2.45
853.789	-1.96
853.959	-67.8
854.128	-77.1
854.297	-61.01
854.467	-57.82
854.636	-85
854.805	-2.39
854.975	-8.12
855.144	-24.18
855.313	-2.97
855.482	23.18
855.652	38.64
855.821	55.45
855.99	18.46
856.159	22.3
856.328	18.32
856.497	9.77
856.667	12.61
856.836	35.33
857.005	26.28
857.174	7.43
857.343	-31.37
857.512	-18.71
857.681	-43.84
857.85	-50.04
858.019	-23.64
858.188	-8.08
858.356	-4.67
858.525	-40.12
858.694	-41.81
858.863	-59.76
859.032	14.32
859.201	35.11
859.369	119.07
859.538	87.18
859.707	43.65
859.876	34.45
860.044	-4.13
860.213	34.08
860.382	36.17
860.55	24.08
860.719	39.15
860.888	49.95
861.056	3.68
861.225	0.16
861.393	30.84
861.562	17.02
861.73	-52.39
861.899	-61.91
862.067	368.1
862.236	67.95
862.404	-2.09
862.572	13.55
862.741	61.43
862.909	32.17
863.078	-11
863.246	19.94
863.414	78.31
863.582	35.06
863.751	6.88
863.919	1.01
864.087	23.49
864.255	0.27
864.424	-178.59
864.592	1.6
864.76	-42.19
864.928	-260.2
865.096	-164.73
865.264	-94.95
865.432	-1611.93
865.6	-144.62
865.768	-101.49
865.936	-53.2
866.104	-55.73
866.272	-33.2
866.44	-129.23
866.608	233.83
866.776	186.72
866.944	2081.98
867.112	-311.97
867.28	-136.91
867.448	-70.72
867.615	-13.84
867.783	-10.1
867.951	-35.99
868.119	-30.51
868.286	-34.51
868.454	-155.51
868.622	-85.5
868.789	-34.3
868.957	-1058.93
869.125	-1013.82
869.292	-31.27
869.46	-107.27
869.627	22.8
869.795	14.08
869.963	28.09
870.13	36.06
870.298	38.53
870.465	-50.45
870.632	-35.68
870.8	-36.85
870.967	-66.04
871.135	-64.73
871.302	-25
871.469	-64.66
871.637	-115.75
871.804	-102.11
871.971	-151.43
872.139	-441.51
872.306	-35.24
872.473	-35.5
872.64	-108.69
872.807	-28.65
872.975	14.44
873.142	-235
873.309	1762.84
873.476	-56.76
873.643	-9.73
873.81	-48.12
873.977	10.8
874.144	-5.83
874.311	-118.18
874.478	-84.62
874.645	-48.49
874.812	-50.32
874.979	-7.95
875.146	-8.48
875.313	-25.1
875.48	12.46
875.647	17.16
875.813	0.41
875.98	17.58
876.147	-7.91
876.314	-72.62
876.481	789.46
876.647	-1107.02
876.814	533.81
876.981	-120.48
877.147	-12.09
877.314	28.34
877.481	77.65
877.647	52.46
877.814	41.74
877.98	22.48
878.147	29.57
878.314	48.88
878.48	70.01
878.647	84.03
878.813	66.61
878.979	51.63
879.146	10.96
879.312	0.78
879.479	-65.49
879.645	-110.69
879.811	-167.9
879.978	-399.43
880.144	-76.19
880.31	-67.12
880.477	-167.25
880.643	-192.69
880.809	-14.85
880.975	-15.3
881.142	-6.59
881.308	54.25
881.474	61.73
881.64	66.17
881.806	60.27
881.972	33.62
882.138	-20.87
882.304	-84.22
882.47	-153.12
882.636	-640.37
882.802	-207.72
882.968	-24.88
883.134	19.29
883.3	8.62
883.466	30.49
883.632	46.01
883.798	28.18
883.964	16.55
884.129	3.98
884.295	-14.49
884.461	-31.02
884.627	-30.01
884.793	-85.27
884.958	-47.33
885.124	-78.07
885.29	-101.08
885.455	-332.65
885.621	-78.1
885.787	-159.96
885.952	-85.65
886.118	-94.75
886.283	-72.49
886.449	-136.48
886.614	-80.04
886.78	-111.25
886.945	803.69
887.111	-290.32
887.276	-268.32
887.442	-642.05
887.607	-275.12
887.773	-95.94
887.938	-96.67
888.103	-104.41
888.269	-94.35
888.434	-282.84
888.599	-128.26
888.764	-92.24
888.93	-70.75
889.095	-64.45
889.26	-76.7
889.425	-55.97
889.59	10.72
889.756	19.06
889.921	47.71
890.086	54.67
890.251	31.06
890.416	-125.92
890.581	-1255.24
890.746	279.02
890.911	426.91
891.076	177.3
891.241	-334.51
891.406	18.14
891.571	12.5
891.736	-3.33
891.901	-38.27
892.065	-100.82
892.23	72.45
892.395	107.68
892.56	170.3
892.725	-29.1
892.889	-851.83
893.054	-52.44
893.219	10.38
893.384	36.06
893.548	14.77
893.713	36.49
893.878	51.75
