Data from Ofra_PS_T2_2A_0GT05_Reflection_1.txt Node
Date: Wed Jul 21 16:52:22 EDT 2021
User: Adam
Spectrometer: FLMT01687
Trigger mode: 0
Integration Time (sec): 1.100000E0
Scans to average: 2
Electric dark correction enabled: true
Nonlinearity correction enabled: false
Boxcar width: 2
XAxis mode: Wavelengths
Number of Pixels in Spectrum: 3648
>>>>>Begin Spectral Data<<<<<
179.494	386
179.716	386.35
179.937	398.69
180.158	396.12
180.38	662.19
180.601	300.28
180.823	208.06
181.044	108.29
181.265	150.37
181.486	68.5
181.708	50.69
181.929	-482.65
182.15	307.75
182.372	133.61
182.593	105.4
182.814	40.71
183.035	58.35
183.257	31.71
183.478	16.49
183.699	43.51
183.92	27.36
184.141	-8.21
184.363	-60.9
184.584	-50.7
184.805	-15.76
185.026	11.75
185.247	22.39
185.468	23.35
185.689	39.69
185.91	36.47
186.132	27.25
186.353	19.97
186.574	93.59
186.795	53.49
187.016	14.9
187.237	-15.47
187.458	-31
187.679	-93.79
187.9	-67.86
188.121	-60.66
188.342	-35.34
188.563	11.6
188.784	44.52
189.005	18.92
189.226	53.82
189.447	10.94
189.667	-291.5
189.888	-476.11
190.109	-1329.22
190.33	-650.65
190.551	-916.37
190.772	-157.02
190.993	-110.38
191.214	-68.23
191.434	-70.5
191.655	-32.45
191.876	-71.49
192.097	-117.57
192.318	-137.19
192.538	-162.02
192.759	-108.43
192.98	-35.14
193.201	0.24
193.421	11.82
193.642	14.66
193.863	5.08
194.083	-9.98
194.304	-18.1
194.525	-22.2
194.745	-14.03
194.966	3.56
195.187	-1.69
195.407	-12.76
195.628	-41.29
195.848	-88.23
196.069	-61.01
196.29	-38.67
196.51	-31.42
196.731	-21.09
196.951	-21.25
197.172	-63.51
197.392	-67.3
197.613	-47.29
197.833	-89.91
198.054	-62.72
198.274	-25.66
198.495	-35.19
198.715	-27.29
198.936	-32.86
199.156	-28.07
199.377	-124.08
199.597	-119.51
199.817	-141.94
200.038	-77.33
200.258	-157.42
200.479	-46.31
200.699	-48.85
200.919	51.74
201.14	34.24
201.36	33.77
201.58	36.05
201.801	49.45
202.021	0.16
202.241	-2.04
202.461	-3.31
202.682	-91.66
202.902	-156.85
203.122	-79.13
203.342	-55.06
203.563	1.86
203.783	23.8
204.003	26.86
204.223	31.93
204.443	26.14
204.663	-30.05
204.884	-8.92
205.104	29.84
205.324	47.32
205.544	85.16
205.764	80.73
205.984	69.21
206.204	48.15
206.424	21.64
206.644	-32.43
206.864	-10.87
207.084	-50.37
207.304	-30.63
207.525	-34.84
207.745	1.59
207.964	50
208.184	18.97
208.404	-10.26
208.624	-23.66
208.844	-1.97
209.064	-183.99
209.284	-192.1
209.504	-68.2
209.724	14.9
209.944	6.44
210.164	19.36
210.384	19.75
210.604	10.32
210.823	-20.43
211.043	-28.67
211.263	-13.25
211.483	-9.24
211.703	-47.01
211.922	-45.14
212.142	9.27
212.362	22.26
212.582	22.76
212.801	22.57
213.021	26.05
213.241	13.3
213.461	-40.62
213.68	-43.68
213.9	-47.36
214.12	-44.04
214.339	-93.49
214.559	-56.05
214.779	-26.72
214.998	-14.62
215.218	-37.18
215.438	-7.82
215.657	-11.14
215.877	-14.03
216.096	-3.34
216.316	18.34
216.535	12.15
216.755	10.2
216.974	-57.11
217.194	-79.53
217.413	-129.19
217.633	-115.67
217.852	-195.87
218.072	-75.12
218.291	-38.02
218.511	8.05
218.73	-26.59
218.95	-10.21
219.169	-11.2
219.389	-33.66
219.608	-21.2
219.827	-0.39
220.047	7.17
220.266	14.93
220.485	19.11
220.705	-9.01
220.924	-19.77
221.143	4.02
221.363	-25.42
221.582	-4.45
221.801	27.96
222.021	34.02
222.24	-17.25
222.459	30.38
222.678	-10.27
222.897	-69.38
223.117	-148.81
223.336	-121.12
223.555	-77.21
223.774	-52.43
223.993	-88.68
224.213	-0.05
224.432	22.09
224.651	51.5
224.87	33.68
225.089	54.64
225.308	44.66
225.527	38.63
225.746	21.57
225.965	20.4
226.184	-0.78
226.404	20.29
226.623	-0.22
226.842	0.82
227.061	19.51
227.28	21.98
227.499	-4.88
227.718	14.58
227.936	11.01
228.155	-4.87
228.374	-10.31
228.593	13.18
228.812	26.13
229.031	19.39
229.25	-10.43
229.469	1.84
229.688	11.37
229.907	-5.29
230.125	6.65
230.344	32.37
230.563	27.31
230.782	29.47
231.001	-9.19
231.22	-10.54
231.438	-5.15
231.657	10.5
231.876	-7.12
232.095	29.72
232.313	29.29
232.532	15.09
232.751	-31.35
232.969	-38.78
233.188	-115.28
233.407	-54.48
233.625	-26.75
233.844	-17.47
234.063	3.77
234.281	10.24
234.5	0.57
234.719	3.56
234.937	9.3
235.156	11.6
235.374	19.35
235.593	2.43
235.811	-13.3
236.03	-23.62
236.249	-74.33
236.467	-68.81
236.686	-15.5
236.904	1.52
237.123	-12.31
237.341	-7.79
237.559	0.11
237.778	-9.16
237.996	-13.45
238.215	21.93
238.433	27.26
238.652	33.81
238.87	30.4
239.088	19.73
239.307	9.1
239.525	13.14
239.743	-21.09
239.962	-20.99
240.18	-37.78
240.398	-63.88
240.617	-67.37
240.835	-40.9
241.053	-41.23
241.271	-21.16
241.49	0.4
241.708	-41.4
241.926	-84.02
242.144	-56.43
242.363	-79.78
242.581	-109.15
242.799	-47.39
243.017	-24.1
243.235	-43.26
243.453	-15.25
243.672	-12.51
243.89	-12.68
244.108	-9.5
244.326	9.82
244.544	1.77
244.762	6.88
244.98	13.22
245.198	13.88
245.416	4.01
245.634	12.27
245.852	7.16
246.07	-25.37
246.288	-20.26
246.506	-53.55
246.724	-32.57
246.942	-34.31
247.16	13.88
247.378	-7.6
247.596	19.98
247.814	-4
248.032	-12.8
248.25	-15.59
248.468	-7.77
248.685	-12.99
248.903	22.3
249.121	11.93
249.339	-5.75
249.557	-5.81
249.775	-18.77
249.992	-106.16
250.21	-82.67
250.428	-69.29
250.646	-104.21
250.863	-89.1
251.081	-39.28
251.299	-40.03
251.517	-26.76
251.734	-6.22
251.952	-22.65
252.17	-16.37
252.387	-3.56
252.605	-15.49
252.823	-6.58
253.04	0.72
253.258	10.41
253.475	-1.59
253.693	38.45
253.911	42.45
254.128	53.13
254.346	45.62
254.563	24.02
254.781	-5.46
254.998	-28.18
255.216	-30.96
255.433	-6.68
255.651	21.48
255.868	18.31
256.086	53.46
256.303	40.45
256.521	20.71
256.738	11.26
256.956	-6.64
257.173	-53.53
257.39	-57.62
257.608	-79.96
257.825	-49.17
258.043	-21.64
258.26	-7.05
258.477	18.59
258.695	19.86
258.912	-6.5
259.129	2.84
259.346	-19.89
259.564	-37.88
259.781	-32.07
259.998	12.11
260.216	18.32
260.433	39.51
260.65	32.49
260.867	35.43
261.084	6.13
261.302	-5.41
261.519	6.05
261.736	-19.87
261.953	-44.16
262.17	-5.23
262.387	-27.8
262.604	-55.91
262.822	-50.79
263.039	-35.38
263.256	-77.18
263.473	-36.39
263.69	-24.38
263.907	13.72
264.124	3.52
264.341	-14.81
264.558	-5.96
264.775	-8.71
264.992	-33.19
265.209	-17.1
265.426	9.33
265.643	0.29
265.86	16.52
266.077	3.95
266.294	-12.73
266.51	-37.05
266.727	-39.2
266.944	-46.51
267.161	-51.52
267.378	-42.2
267.595	-27.91
267.812	-61.76
268.028	-58.4
268.245	-8.58
268.462	-15.03
268.679	-7.73
268.896	23.13
269.112	9.48
269.329	7.4
269.546	15.62
269.763	12.13
269.979	11.65
270.196	20.43
270.413	-18.75
270.629	-38.88
270.846	-68.32
271.063	-54.37
271.279	-71.04
271.496	-50.93
271.712	-22.5
271.929	3.64
272.146	-30.92
272.362	-28.41
272.579	-17.01
272.795	-10.66
273.012	5.6
273.228	42.53
273.445	41.17
273.661	29.92
273.878	7.7
274.094	-12.23
274.311	-46.68
274.527	-8.32
274.744	-15.25
274.96	-33.65
275.177	-18.02
275.393	3.96
275.609	-7.67
275.826	22.21
276.042	33.38
276.259	30.77
276.475	23.15
276.691	29.61
276.908	19.05
277.124	28.3
277.34	20.96
277.557	7.78
277.773	-4.45
277.989	-5.76
278.205	-14.18
278.422	7.59
278.638	10.16
278.854	25.16
279.07	29.23
279.286	34.23
279.503	8.21
279.719	11.33
279.935	-5.36
280.151	-19.62
280.367	-4.64
280.583	-17.43
280.799	-0.96
281.016	-26.18
281.232	-6.83
281.448	-13.09
281.664	-2.26
281.88	-54.34
282.096	-19.47
282.312	-7.04
282.528	19.19
282.744	29.62
282.96	30.96
283.176	20.25
283.392	11
283.608	-5.7
283.824	-2.93
284.04	1.31
284.256	-3.67
284.471	-7
284.687	-13.84
284.903	-18.6
285.119	17.59
285.335	13.16
285.551	10.29
285.767	-2.1
285.982	0.37
286.198	-53.61
286.414	-15.2
286.63	-5.36
286.846	12.46
287.061	-2.96
287.277	18.44
287.493	-20.81
287.709	-11.14
287.924	-27.26
288.14	-5.1
288.356	-11.32
288.571	20.86
288.787	5.4
289.003	8.23
289.218	-5.5
289.434	-26.71
289.65	-9.26
289.865	-13.49
290.081	2.25
290.296	13.06
290.512	30.41
290.727	-22.07
290.943	-16.79
291.159	-25.69
291.374	-25
291.59	-44.38
291.805	-12.9
292.021	1.39
292.236	7.88
292.451	22.07
292.667	35.97
292.882	41.24
293.098	23.62
293.313	7.16
293.529	-9.37
293.744	-16.95
293.959	-19.48
294.175	-10.43
294.39	13.67
294.605	24.07
294.821	23.71
295.036	16.63
295.251	26.09
295.467	21.44
295.682	11.85
295.897	-4.76
296.112	0.62
296.328	-26.46
296.543	-41.02
296.758	-45.27
296.973	-4.72
297.188	16.54
297.404	11.48
297.619	6.05
297.834	-15.2
298.049	-32.42
298.264	-45.1
298.479	-4.24
298.694	4.13
298.909	24.6
299.125	27.3
299.34	26.2
299.555	8.91
299.77	5.58
299.985	-30.53
300.2	-82.1
300.415	-96.57
300.63	-73.61
300.845	-62.36
301.06	-46.17
301.275	-17.1
301.49	3
301.704	-2.14
301.919	-15.65
302.134	-19.09
302.349	-24.33
302.564	-80.72
302.779	-136.49
302.994	-112.93
303.209	-88.73
303.423	-65.3
303.638	11.54
303.853	2.86
304.068	-6.7
304.283	3.61
304.497	3.18
304.712	-4.61
304.927	0.56
305.142	-5.39
305.356	-6.84
305.571	3.37
305.786	-7.84
306	-18.26
306.215	-13.35
306.43	-33.32
306.644	-42.1
306.859	-30.14
307.074	5.4
307.288	-18.99
307.503	-22
307.717	-19.59
307.932	-24.33
308.147	-35.25
308.361	-9.78
308.576	2.12
308.79	-29.85
309.005	-11.93
309.219	-14.67
309.434	-21.05
309.648	-38.66
309.863	-13.08
310.077	-16.76
310.292	-10.31
310.506	-13.85
310.72	6.72
310.935	10.41
311.149	1.58
311.364	17.01
311.578	21.31
311.792	9.9
312.007	8.81
312.221	9.64
312.435	5.66
312.649	-10.22
312.864	-45.17
313.078	-48.16
313.292	-33.04
313.507	-85.03
313.721	-79.85
313.935	6.69
314.149	8.79
314.363	-1.59
314.578	7.81
314.792	15.26
315.006	2.42
315.22	6.87
315.434	10.07
315.648	9.52
315.862	-1.04
316.077	-0.03
316.291	-10.04
316.505	-20.64
316.719	-13.06
316.933	-8.36
317.147	-26.97
317.361	-68.95
317.575	-60.58
317.789	-87.52
318.003	-142.61
318.217	-82.6
318.431	-12.39
318.645	13.54
318.859	15.13
319.073	35.38
319.287	23.22
319.5	12.24
319.714	-28.28
319.928	-48.14
320.142	-78.78
320.356	-53.69
320.57	-27.08
320.784	-18.39
320.997	-37.17
321.211	-42.04
321.425	-72
321.639	-97.5
321.853	-47.67
322.066	-24.34
322.28	-27.09
322.494	-19.39
322.707	-19.12
322.921	-30.41
323.135	-24.1
323.349	1.78
323.562	-11.18
323.776	-6.63
323.989	-9.6
324.203	-22.23
324.417	-27.03
324.63	-37.43
324.844	-36.66
325.057	-13.43
325.271	-0.23
325.485	9.15
325.698	35.29
325.912	42.45
326.125	7.78
326.339	7.85
326.552	-17.5
326.766	-27.59
326.979	-12.42
327.193	23.54
327.406	12.61
327.619	23.13
327.833	26.98
328.046	-16.24
328.26	-45.49
328.473	-20.45
328.686	-52.88
328.9	-34.55
329.113	1.17
329.326	-5.26
329.54	-11.72
329.753	-17.82
329.966	-62.14
330.179	-49.82
330.393	-13.69
330.606	11.92
330.819	29.82
331.032	37.04
331.246	35.18
331.459	47.71
331.672	31.87
331.885	26.56
332.098	29.78
332.311	15.38
332.525	-17.21
332.738	-6.59
332.951	14.79
333.164	19.98
333.377	39.04
333.59	46.37
333.803	51.72
334.016	33.97
334.229	24
334.442	17.26
334.655	19.85
334.868	13.12
335.081	22.99
335.294	30.66
335.507	41.79
335.72	39.71
335.933	24.39
336.146	18.42
336.359	2.37
336.572	-37.66
336.785	-57.82
336.997	-52.04
337.21	-30.48
337.423	-13.28
337.636	-0.21
337.849	16.17
338.062	20.36
338.274	13.29
338.487	5.6
338.7	1.98
338.913	-21.98
339.125	-32.17
339.338	-71.71
339.551	-64.51
339.763	-27.01
339.976	-9.85
340.189	-4.43
340.402	6.23
340.614	7.57
340.827	-11.69
341.039	-28.67
341.252	-19.89
341.465	-1.44
341.677	-7.79
341.89	-20.38
342.102	-10.1
342.315	-20.23
342.527	-59.28
342.74	-45.78
342.952	-14.2
343.165	-7.3
343.377	-3.44
343.59	3.38
343.802	1.21
344.015	3.39
344.227	2.33
344.44	20.55
344.652	27.85
344.864	26.33
345.077	29.06
345.289	32.45
345.502	22.86
345.714	15.64
345.926	18.95
346.139	5.23
346.351	12.57
346.563	19.46
346.775	20.12
346.988	17.83
347.2	14.52
347.412	-34.75
347.624	-46.9
347.837	-70.36
348.049	-61.37
348.261	-27.72
348.473	-9.35
348.685	-7.55
348.897	19.88
349.11	2.03
349.322	-24.48
349.534	-17.02
349.746	-28.5
349.958	-43.85
350.17	-35
350.382	-10.42
350.594	-19.1
350.806	-6.54
351.018	1
351.23	-15.97
351.442	-48.38
351.654	-40.94
351.866	-40.73
352.078	-38.4
352.29	-15.91
352.502	2.46
352.714	6.64
352.926	-0.57
353.138	-0.02
353.35	-1.36
353.561	2.75
353.773	0.51
353.985	13.33
354.197	11.14
354.409	15.65
354.621	0.12
354.832	-7.29
355.044	-22.75
355.256	-28.59
355.468	-21.13
355.679	-11.91
355.891	1.28
356.103	7.54
356.314	20.26
356.526	19.91
356.738	13.34
356.949	2.48
357.161	11.52
357.373	9.16
357.584	15.63
357.796	17.66
358.008	11.54
358.219	14.98
358.431	6.18
358.642	2.44
358.854	-3.55
359.065	-7.31
359.277	-24.91
359.488	-32.04
359.7	-61.52
359.911	-55.43
360.123	-35.35
360.334	-44.82
360.546	-63.64
360.757	-42.16
360.969	-38.88
361.18	-44.02
361.391	-30.11
361.603	-20.51
361.814	-21.88
362.025	-11.53
362.237	-12.64
362.448	1.17
362.659	18.95
362.871	8.62
363.082	-0.02
363.293	2.66
363.504	-8.14
363.716	-30.41
363.927	-27.71
364.138	-42.89
364.349	-39.39
364.56	-38.46
364.772	-32.82
364.983	-8.81
365.194	1.46
365.405	-1.7
365.616	6.6
365.827	8.1
366.038	-18.5
366.25	-18.9
366.461	-27.81
366.672	-14.54
366.883	-7.21
367.094	9.05
367.305	1.07
367.516	6.58
367.727	-9.19
367.938	-9.05
368.149	-12.25
368.36	-1.95
368.571	-4.05
368.781	-6.82
368.992	-25.56
369.203	-46.86
369.414	-60.66
369.625	-57.77
369.836	-54.7
370.047	-61.94
370.258	-39.12
370.468	-46.63
370.679	-54.93
370.89	-39.93
371.101	-8.62
371.312	-13.18
371.522	2.77
371.733	13.68
371.944	12.57
372.155	8.38
372.365	5.8
372.576	2.87
372.787	-5.42
372.997	-14.1
373.208	-18.29
373.419	1.81
373.629	-22.16
373.84	-27.45
374.05	-35.98
374.261	-32.48
374.472	-43.03
374.682	-1.77
374.893	3.17
375.103	23.5
375.314	19.77
375.524	14.08
375.735	10.8
375.945	17.18
376.156	-5.74
376.366	-7.24
376.577	-2.19
376.787	-5.95
376.997	-20.53
377.208	-10.88
377.418	-17.51
377.629	-9.01
377.839	-14.93
378.049	-0.33
378.26	10.13
378.47	10.64
378.68	2.01
378.89	1.9
379.101	-4
379.311	-30.9
379.521	-42.45
379.732	-41.53
379.942	-37.88
380.152	-49.22
380.362	-20.85
380.572	-10.24
380.783	-3.95
380.993	0.76
381.203	6.28
381.413	4.11
381.623	9.98
381.833	11.32
382.043	6.25
382.253	-2.21
382.463	-2.97
382.674	-10.26
382.884	-23.6
383.094	-13.15
383.304	-5.3
383.514	-3.73
383.724	0.67
383.934	3.1
384.144	-15.98
384.353	-24.95
384.563	-21.8
384.773	-20.23
384.983	-30.01
385.193	-6.64
385.403	5.83
385.613	10.46
385.823	3.99
386.033	10.93
386.242	-0.79
386.452	-14.37
386.662	-20.6
386.872	-13.73
387.082	-19.53
387.291	-18.44
387.501	-13.54
387.711	-12.95
387.921	-13.83
388.13	-12.47
388.34	-6.77
388.55	-8.79
388.759	-8.77
388.969	-5.88
389.179	-7.13
389.388	-7.5
389.598	-0.77
389.807	-6.42
390.017	-6.09
390.227	-4.43
390.436	-7.06
390.646	-7.4
390.855	-3.01
391.065	-5.5
391.274	-5.61
391.484	-5.35
391.693	-5.1
391.903	-1.61
392.112	4.82
392.322	5.89
392.531	7.59
392.74	8.69
392.95	4.38
393.159	0.34
393.369	1.1
393.578	0.8
393.787	0.77
393.997	0.73
394.206	-0.41
394.415	-0.34
394.625	-0.4
394.834	-1.55
395.043	-0.69
395.252	1.08
395.462	2.22
395.671	2.25
395.88	2.84
396.089	3.56
396.298	1.95
396.508	0.72
396.717	0.42
396.926	1.17
397.135	0.97
397.344	1.82
397.553	2.23
397.762	3.4
397.971	3.08
398.181	3.21
398.39	2.96
398.599	3.19
398.808	3.01
399.017	3.21
399.226	3.59
399.435	4.37
399.644	4.41
399.853	3.77
400.062	3.49
400.27	3.2
400.479	2.41
400.688	1.71
400.897	1.81
401.106	1.91
401.315	2.05
401.524	2.45
401.733	3.02
401.941	3.35
402.15	3.47
402.359	3.02
402.568	3.04
402.777	3.1
402.985	3.09
403.194	2.71
403.403	3
403.612	2.67
403.82	2.35
404.029	2.48
404.238	2.71
404.446	2.84
404.655	2.75
404.864	2.79
405.072	2.39
405.281	2.43
405.489	2.29
405.698	2.48
405.906	2.56
406.115	2.55
406.324	2.42
406.532	2.55
406.741	2.66
406.949	2.61
407.158	2.7
407.366	2.67
407.574	2.59
407.783	2.61
407.991	2.42
408.2	2.45
408.408	2.32
408.617	2.21
408.825	2.08
409.033	2.3
409.242	2.43
409.45	2.72
409.658	2.68
409.867	2.77
410.075	2.67
410.283	2.5
410.491	2.37
410.7	2.38
410.908	2.41
411.116	2.55
411.324	2.52
411.533	2.45
411.741	2.61
411.949	2.46
412.157	2.32
412.365	2.35
412.573	2.46
412.781	2.39
412.99	2.38
413.198	2.56
413.406	2.71
413.614	2.61
413.822	2.5
414.03	2.47
414.238	2.29
414.446	2.29
414.654	2.23
414.862	2.36
415.07	2.53
415.278	2.74
415.486	2.52
415.694	2.57
415.902	2.51
416.109	2.35
416.317	2.2
416.525	2.12
416.733	2.12
416.941	2.26
417.149	2.29
417.357	2.26
417.564	2.44
417.772	2.62
417.98	2.41
418.188	2.4
418.395	2.51
418.603	2.59
418.811	2.32
419.019	2.31
419.226	2.53
419.434	2.52
419.642	2.36
419.849	2.46
420.057	2.48
420.265	2.38
420.472	2.31
420.68	2.34
420.887	2.24
421.095	2.31
421.302	2.21
421.51	2.24
421.717	2.37
421.925	2.45
422.132	2.38
422.34	2.22
422.547	2.33
422.755	2.17
422.962	2.14
423.17	2.12
423.377	2.26
423.585	2.15
423.792	2.16
423.999	2.16
424.207	2.05
424.414	2.16
424.621	1.93
424.829	1.83
425.036	1.81
425.243	2.02
425.451	1.81
425.658	1.85
425.865	1.98
426.072	2.04
426.28	2.07
426.487	2.12
426.694	2.29
426.901	2.15
427.108	2.1
427.315	1.99
427.523	2.11
427.73	2.01
427.937	2.07
428.144	1.94
428.351	1.84
428.558	1.81
428.765	1.81
428.972	1.76
429.179	1.91
429.386	2.24
429.593	2.14
429.8	2.1
430.007	2.25
430.214	2.26
430.421	2.1
430.628	2.04
430.835	2.05
431.042	2.16
431.249	2.29
431.456	2.2
431.662	2.36
431.869	2.48
432.076	2.42
432.283	2.43
432.49	2.42
432.697	2.41
432.903	2.2
433.11	2.18
433.317	2.18
433.524	2.32
433.73	2.31
433.937	2.54
434.144	2.38
434.35	2.35
434.557	2.16
434.764	2.06
434.97	1.93
435.177	2.07
435.384	2.04
435.59	2.21
435.797	2.45
436.003	2.49
436.21	2.55
436.416	2.52
436.623	2.49
436.829	2.46
437.036	2.55
437.242	2.56
437.449	2.53
437.655	2.57
437.862	2.63
438.068	2.51
438.275	2.56
438.481	2.67
438.687	2.62
438.894	2.45
439.1	2.48
439.307	2.51
439.513	2.37
439.719	2.4
439.926	2.55
440.132	2.5
440.338	2.39
440.544	2.59
440.751	2.53
440.957	2.54
441.163	2.56
441.369	2.6
441.575	2.41
441.782	2.51
441.988	2.44
442.194	2.44
442.4	2.42
442.606	2.73
442.812	2.72
443.018	2.81
443.224	2.84
443.431	2.93
443.637	2.65
443.843	2.58
444.049	2.54
444.255	2.54
444.461	2.53
444.667	2.62
444.873	2.77
445.079	2.75
445.284	2.84
445.49	2.72
445.696	2.61
445.902	2.44
446.108	2.39
446.314	2.32
446.52	2.36
446.726	2.61
446.931	2.72
447.137	2.76
447.343	2.82
447.549	2.71
447.755	2.56
447.96	2.52
448.166	2.46
448.372	2.37
448.578	2.53
448.783	2.53
448.989	2.55
449.195	2.74
449.4	2.8
449.606	2.74
449.812	2.65
450.017	2.64
450.223	2.54
450.428	2.47
450.634	2.48
450.84	2.61
451.045	2.63
451.251	2.61
451.456	2.79
451.662	2.88
451.867	2.99
452.073	2.96
452.278	3.01
452.483	3.02
452.689	2.99
452.894	2.88
453.1	2.95
453.305	2.87
453.51	2.84
453.716	2.77
453.921	2.79
454.127	2.67
454.332	2.69
454.537	2.62
454.742	2.59
454.948	2.56
455.153	2.67
455.358	2.73
455.563	2.89
455.769	3.01
455.974	3.06
456.179	3.06
456.384	3
456.589	2.93
456.795	2.85
457	2.83
457.205	2.94
457.41	2.91
457.615	2.88
457.82	2.89
458.025	2.85
458.23	2.74
458.435	2.77
458.64	2.7
458.845	2.85
459.05	2.95
459.255	2.96
459.46	3
459.665	3.05
459.87	2.99
460.075	2.96
460.28	2.94
460.485	2.98
460.69	2.95
460.895	2.89
461.099	2.81
461.304	2.89
461.509	2.82
461.714	2.81
461.919	2.87
462.123	2.87
462.328	2.84
462.533	2.84
462.738	2.89
462.942	2.8
463.147	2.86
463.352	2.83
463.556	2.9
463.761	2.93
463.966	2.98
464.17	3.05
464.375	3.01
464.58	3
464.784	2.94
464.989	2.84
465.193	2.86
465.398	2.95
465.602	3.02
465.807	3
466.011	3.1
466.216	3.02
466.42	2.98
466.625	3.03
466.829	3.16
467.034	3.22
467.238	3.38
467.443	3.38
467.647	3.27
467.851	3.28
468.056	3.23
468.26	3.16
468.464	3.2
468.669	3.32
468.873	3.36
469.077	3.42
469.282	3.53
469.486	3.56
469.69	3.55
469.894	3.44
470.099	3.5
470.303	3.51
470.507	3.46
470.711	3.33
470.915	3.38
471.119	3.22
471.324	3.11
471.528	3.16
471.732	3.23
471.936	3.21
472.14	3.3
472.344	3.32
472.548	3.32
472.752	3.38
472.956	3.59
473.16	3.6
473.364	3.6
473.568	3.53
473.772	3.6
473.976	3.46
474.18	3.46
474.384	3.51
474.588	3.56
474.792	3.45
474.995	3.51
475.199	3.53
475.403	3.61
475.607	3.61
475.811	3.65
476.015	3.61
476.218	3.76
476.422	3.61
476.626	3.71
476.83	3.82
477.033	3.85
477.237	3.7
477.441	3.83
477.644	3.84
477.848	3.83
478.052	3.79
478.255	3.87
478.459	3.89
478.663	3.91
478.866	3.87
479.07	3.96
479.273	4
479.477	4.02
479.681	3.97
479.884	3.98
480.088	3.9
480.291	3.89
480.495	3.82
480.698	3.84
480.901	3.87
481.105	3.97
481.308	3.95
481.512	3.98
481.715	4.01
481.919	4.07
482.122	4.1
482.325	4.07
482.529	4.1
482.732	4.05
482.935	4
483.138	3.95
483.342	4.04
483.545	4.09
483.748	4.19
483.952	4.18
484.155	4.28
484.358	4.27
484.561	4.21
484.764	4.15
484.967	4.27
485.171	4.29
485.374	4.3
485.577	4.38
485.78	4.42
485.983	4.39
486.186	4.28
486.389	4.26
486.592	4.26
486.795	4.27
486.998	4.28
487.201	4.36
487.404	4.38
487.607	4.42
487.81	4.43
488.013	4.47
488.216	4.44
488.419	4.43
488.622	4.38
488.825	4.34
489.028	4.21
489.231	4.23
489.433	4.16
489.636	4.11
489.839	4.16
490.042	4.17
490.245	4.17
490.447	4.25
490.65	4.23
490.853	4.22
491.056	4.28
491.258	4.32
491.461	4.36
491.664	4.48
491.866	4.42
492.069	4.53
492.272	4.44
492.474	4.48
492.677	4.52
492.879	4.61
493.082	4.57
493.285	4.69
493.487	4.63
493.69	4.55
493.892	4.52
494.095	4.51
494.297	4.54
494.5	4.54
494.702	4.61
494.905	4.67
495.107	4.64
495.309	4.6
495.512	4.67
495.714	4.65
495.917	4.66
496.119	4.65
496.321	4.66
496.524	4.66
496.726	4.68
496.928	4.68
497.13	4.68
497.333	4.64
497.535	4.63
497.737	4.65
497.939	4.62
498.142	4.68
498.344	4.74
498.546	4.71
498.748	4.71
498.95	4.83
499.152	4.83
499.355	4.9
499.557	4.98
499.759	5.07
499.961	5.04
500.163	5.05
500.365	5.03
500.567	5.04
500.769	4.92
500.971	4.96
501.173	4.93
501.375	4.92
501.577	4.92
501.779	5
501.981	4.97
502.183	5
502.385	4.94
502.587	4.89
502.788	4.96
502.99	5.02
503.192	5.11
503.394	5.13
503.596	5.23
503.798	5.22
503.999	5.19
504.201	5.13
504.403	5.16
504.605	5.16
504.806	5.14
505.008	5.17
505.21	5.23
505.411	5.27
505.613	5.26
505.815	5.22
506.016	5.24
506.218	5.31
506.42	5.31
506.621	5.37
506.823	5.43
507.024	5.36
507.226	5.26
507.427	5.29
507.629	5.33
507.83	5.37
508.032	5.43
508.233	5.54
508.435	5.54
508.636	5.55
508.838	5.52
509.039	5.52
509.24	5.43
509.442	5.45
509.643	5.35
509.845	5.35
510.046	5.43
510.247	5.52
510.448	5.54
510.65	5.61
510.851	5.68
511.052	5.66
511.254	5.6
511.455	5.68
511.656	5.71
511.857	5.73
512.058	5.72
512.26	5.73
512.461	5.68
512.662	5.69
512.863	5.61
513.064	5.64
513.265	5.67
513.466	5.67
513.667	5.67
513.868	5.71
514.069	5.71
514.27	5.78
514.471	5.71
514.672	5.75
514.873	5.74
515.074	5.77
515.275	5.67
515.476	5.77
515.677	5.76
515.878	5.85
516.079	5.81
516.28	5.84
516.481	5.89
516.682	5.91
516.882	5.86
517.083	5.9
517.284	5.84
517.485	5.77
517.686	5.8
517.886	5.78
518.087	5.76
518.288	5.84
518.488	5.83
518.689	5.78
518.89	5.78
519.091	5.85
519.291	5.83
519.492	5.92
519.692	5.96
519.893	6.04
520.094	6.03
520.294	6.06
520.495	6.01
520.695	6.02
520.896	5.98
521.096	6
521.297	6.04
521.497	6.04
521.698	6.07
521.898	6.08
522.099	6.07
522.299	6.08
522.499	6.11
522.7	6.1
522.9	6.06
523.101	6.11
523.301	6.08
523.501	6.05
523.702	6.06
523.902	6.18
524.102	6.19
524.302	6.22
524.503	6.28
524.703	6.29
524.903	6.25
525.103	6.2
525.304	6.22
525.504	6.23
525.704	6.27
525.904	6.26
526.104	6.27
526.304	6.27
526.504	6.28
526.705	6.29
526.905	6.37
527.105	6.35
527.305	6.3
527.505	6.26
527.705	6.28
527.905	6.28
528.105	6.36
528.305	6.37
528.505	6.44
528.705	6.44
528.905	6.42
529.105	6.4
529.304	6.45
529.504	6.5
529.704	6.46
529.904	6.43
530.104	6.42
530.304	6.46
530.503	6.41
530.703	6.41
530.903	6.43
531.103	6.47
531.303	6.42
531.502	6.46
531.702	6.53
531.902	6.55
532.101	6.52
532.301	6.56
532.501	6.53
532.7	6.51
532.9	6.55
533.1	6.57
533.299	6.6
533.499	6.66
533.698	6.62
533.898	6.6
534.097	6.61
534.297	6.67
534.496	6.65
534.696	6.71
534.895	6.78
535.095	6.86
535.294	6.84
535.494	6.81
535.693	6.84
535.892	6.9
536.092	6.84
536.291	6.82
536.491	6.91
536.69	6.9
536.889	6.87
537.088	6.93
537.288	6.99
537.487	7.02
537.686	7.09
537.886	7.13
538.085	7.17
538.284	7.26
538.483	7.24
538.682	7.27
538.882	7.31
539.081	7.31
539.28	7.2
539.479	7.25
539.678	7.19
539.877	7.25
540.076	7.26
540.275	7.28
540.474	7.29
540.673	7.34
540.872	7.27
541.071	7.33
541.27	7.41
541.469	7.46
541.668	7.51
541.867	7.61
542.066	7.64
542.265	7.68
542.464	7.68
542.663	7.68
542.862	7.76
543.06	7.78
543.259	7.84
543.458	7.91
543.657	7.95
543.856	7.98
544.054	8.01
544.253	7.99
544.452	8
544.651	8.05
544.849	8.03
545.048	8.05
545.247	8.1
545.445	8.16
545.644	8.2
545.843	8.2
546.041	8.22
546.24	8.27
546.438	8.33
546.637	8.36
546.836	8.46
547.034	8.5
547.233	8.5
547.431	8.49
547.63	8.55
547.828	8.56
548.027	8.61
548.225	8.66
548.423	8.67
548.622	8.74
548.82	8.74
549.019	8.79
549.217	8.87
549.415	8.94
549.614	8.98
549.812	9.08
550.01	9.08
550.209	9.16
550.407	9.24
550.605	9.24
550.803	9.31
551.002	9.44
551.2	9.43
551.398	9.5
551.596	9.65
551.794	9.72
551.993	9.75
552.191	9.83
552.389	9.96
552.587	9.94
552.785	9.94
552.983	10.04
553.181	10.09
553.379	10.11
553.577	10.23
553.775	10.32
553.973	10.38
554.171	10.47
554.369	10.46
554.567	10.5
554.765	10.54
554.963	10.57
555.161	10.57
555.359	10.67
555.557	10.71
555.755	10.82
555.952	10.92
556.15	11.02
556.348	11.11
556.546	11.21
556.744	11.24
556.941	11.25
557.139	11.43
557.337	11.5
557.535	11.55
557.732	11.64
557.93	11.81
558.128	11.73
558.325	11.82
558.523	11.92
558.721	12.02
558.918	12.04
559.116	12.19
559.313	12.21
559.511	12.33
559.708	12.38
559.906	12.51
560.104	12.63
560.301	12.78
560.498	12.83
560.696	12.93
560.893	12.91
561.091	13
561.288	13.12
561.486	13.17
561.683	13.24
561.88	13.44
562.078	13.52
562.275	13.5
562.473	13.65
562.67	13.74
562.867	13.78
563.064	13.88
563.262	13.99
563.459	14.06
563.656	14.17
563.853	14.18
564.051	14.23
564.248	14.35
564.445	14.47
564.642	14.54
564.839	14.79
565.036	14.95
565.234	15.08
565.431	15.15
565.628	15.21
565.825	15.25
566.022	15.36
566.219	15.43
566.416	15.54
566.613	15.69
566.81	15.78
567.007	15.73
567.204	15.81
567.401	15.85
567.598	15.94
567.795	15.98
567.991	16.12
568.188	16.2
568.385	16.31
568.582	16.33
568.779	16.47
568.976	16.54
569.172	16.67
569.369	16.74
569.566	16.86
569.763	16.9
569.96	17.01
570.156	16.98
570.353	17.03
570.55	17.14
570.746	17.21
570.943	17.27
571.14	17.31
571.336	17.38
571.533	17.4
571.729	17.38
571.926	17.48
572.123	17.64
572.319	17.67
572.516	17.66
572.712	17.8
572.909	17.71
573.105	17.74
573.302	17.81
573.498	17.92
573.695	17.83
573.891	17.97
574.087	18
574.284	18.02
574.48	18.03
574.677	18.22
574.873	18.24
575.069	18.32
575.266	18.37
575.462	18.38
575.658	18.38
575.854	18.47
576.051	18.41
576.247	18.4
576.443	18.44
576.639	18.39
576.835	18.35
577.032	18.38
577.228	18.51
577.424	18.53
577.62	18.6
577.816	18.68
578.012	18.74
578.208	18.72
578.404	18.81
578.6	18.85
578.796	18.87
578.993	18.87
579.189	18.86
579.384	18.71
579.58	18.63
579.776	18.53
579.972	18.51
580.168	18.54
580.364	18.68
580.56	18.7
580.756	18.74
580.952	18.76
581.148	18.74
581.343	18.64
581.539	18.71
581.735	18.8
581.931	18.75
582.127	18.79
582.322	18.86
582.518	18.8
582.714	18.73
582.909	18.71
583.105	18.64
583.301	18.63
583.496	18.71
583.692	18.68
583.888	18.72
584.083	18.82
584.279	18.79
584.474	18.72
584.67	18.79
584.866	18.78
585.061	18.63
585.257	18.64
585.452	18.67
585.648	18.55
585.843	18.6
586.039	18.69
586.234	18.69
586.429	18.61
586.625	18.66
586.82	18.63
587.015	18.6
587.211	18.56
587.406	18.67
587.601	18.72
587.797	18.7
587.992	18.64
588.187	18.76
588.383	18.71
588.578	18.66
588.773	18.76
588.968	18.83
589.163	18.82
589.359	18.83
589.554	18.88
589.749	18.83
589.944	18.92
590.139	18.91
590.334	18.97
590.529	18.89
590.724	18.96
590.919	18.95
591.114	18.91
591.309	18.97
591.504	19.13
591.699	19.13
591.894	19.19
592.089	19.29
592.284	19.24
592.479	19.25
592.674	19.31
592.869	19.33
593.064	19.44
593.259	19.56
593.454	19.68
593.648	19.76
593.843	19.86
594.038	19.86
594.233	19.84
594.428	19.77
594.622	19.83
594.817	19.91
595.012	19.94
595.206	20.01
595.401	20.11
595.596	20.14
595.79	20.22
595.985	20.36
596.18	20.5
596.374	20.62
596.569	20.69
596.763	20.62
596.958	20.62
597.153	20.64
597.347	20.67
597.542	20.81
597.736	20.84
597.931	20.97
598.125	21.07
598.319	21.23
598.514	21.19
598.708	21.3
598.903	21.33
599.097	21.37
599.291	21.32
599.486	21.38
599.68	21.52
599.874	21.57
600.069	21.58
600.263	21.6
600.457	21.69
600.651	21.68
600.846	21.65
601.04	21.67
601.234	21.78
601.428	21.86
601.622	21.9
601.817	21.94
602.011	22.06
602.205	22.09
602.399	22.08
602.593	22.08
602.787	22.16
602.981	22.1
603.175	22.11
603.369	22.09
603.563	22.07
603.757	22.13
603.951	22.17
604.145	22.12
604.339	22.18
604.533	22.18
604.727	22.05
604.921	21.97
605.115	21.99
605.309	21.97
605.502	21.99
605.696	21.98
605.89	22.04
606.084	21.95
606.278	21.87
606.471	21.8
606.665	21.78
606.859	21.65
607.053	21.67
607.246	21.62
607.44	21.59
607.634	21.54
607.827	21.65
608.021	21.44
608.214	21.31
608.408	21.23
608.602	21.16
608.795	21.05
608.989	21.05
609.182	21.08
609.376	21.06
609.569	20.92
609.763	20.78
609.956	20.7
610.15	20.59
610.343	20.58
610.537	20.54
610.73	20.56
610.923	20.54
611.117	20.51
611.31	20.4
611.504	20.38
611.697	20.21
611.89	20.21
612.083	20.11
612.277	20.09
612.47	19.96
612.663	19.94
612.856	19.8
613.05	19.73
613.243	19.63
613.436	19.62
613.629	19.47
613.822	19.35
614.015	19.38
614.209	19.27
614.402	19.27
614.595	19.3
614.788	19.35
614.981	19.13
615.174	19
615.367	18.88
615.56	18.8
615.753	18.69
615.946	18.62
616.139	18.64
616.332	18.63
616.525	18.62
616.718	18.58
616.911	18.6
617.103	18.6
617.296	18.6
617.489	18.5
617.682	18.46
617.875	18.41
618.067	18.34
618.26	18.18
618.453	18.14
618.646	18.18
618.838	18.15
619.031	18.21
619.224	18.29
619.417	18.34
619.609	18.28
619.802	18.21
619.994	18.05
620.187	17.93
620.38	17.88
620.572	17.78
620.765	17.84
620.957	17.74
621.15	17.73
621.342	17.64
621.535	17.65
621.727	17.63
621.92	17.57
622.112	17.45
622.305	17.51
622.497	17.38
622.69	17.3
622.882	17.45
623.074	17.55
623.267	17.46
623.459	17.43
623.651	17.38
623.844	17.28
624.036	17.21
624.228	17.23
624.42	17.28
624.613	17.37
624.805	17.35
624.997	17.28
625.189	17.23
625.381	17.3
625.574	17.23
625.766	17.19
625.958	17.23
626.15	17.3
626.342	17.17
626.534	17.08
626.726	17.03
626.918	17.01
627.11	16.89
627.302	16.92
627.494	16.97
627.686	16.99
627.878	16.94
628.07	16.88
628.262	16.79
628.454	16.79
628.646	16.82
628.838	16.89
629.029	16.88
629.221	16.89
629.413	16.76
629.605	16.63
629.797	16.55
629.989	16.59
630.18	16.55
630.372	16.53
630.564	16.52
630.755	16.47
630.947	16.41
631.139	16.3
631.33	16.16
631.522	16.19
631.714	16.23
631.905	16.17
632.097	16.21
632.289	16.26
632.48	16.2
632.672	16.05
632.863	16
633.055	15.96
633.246	16.02
633.438	16
633.629	16.04
633.821	16
634.012	15.97
634.203	15.89
634.395	15.87
634.586	15.91
634.777	15.95
634.969	16.01
635.16	16.04
635.351	15.96
635.543	15.94
635.734	15.95
635.925	15.89
636.117	15.9
636.308	16.04
636.499	16.02
636.69	16.01
636.881	16.02
637.073	16.03
637.264	15.92
637.455	15.9
637.646	15.96
637.837	15.98
638.028	15.91
638.219	15.96
638.41	15.89
638.601	15.75
638.792	15.76
638.983	15.75
639.174	15.73
639.365	15.86
639.556	15.88
639.747	15.77
639.938	15.82
640.129	15.68
640.32	15.56
640.511	15.59
640.701	15.63
640.892	15.56
641.083	15.64
641.274	15.68
641.465	15.67
641.655	15.63
641.846	15.63
642.037	15.59
642.228	15.54
642.418	15.58
642.609	15.61
642.8	15.65
642.99	15.6
643.181	15.66
643.372	15.61
643.562	15.64
643.753	15.54
643.943	15.5
644.134	15.41
644.324	15.35
644.515	15.33
644.705	15.37
644.896	15.41
645.086	15.43
645.277	15.44
645.467	15.41
645.658	15.45
645.848	15.42
646.038	15.33
646.229	15.23
646.419	15.24
646.61	15.23
646.8	15.17
646.99	15.21
647.18	15.28
647.371	15.15
647.561	15.01
647.751	15.01
647.941	14.88
648.132	14.88
648.322	14.94
648.512	14.96
648.702	15.03
648.892	15.12
649.082	15.04
649.272	14.91
649.462	14.85
649.653	14.68
649.843	14.45
650.033	14.45
650.223	14.51
650.413	14.5
650.603	14.65
650.793	14.78
650.983	14.75
651.172	14.68
651.362	14.56
651.552	14.31
651.742	14.19
651.932	14.11
652.122	14.1
652.312	14.21
652.502	14.23
652.691	14.24
652.881	14.18
653.071	14.11
653.261	13.94
653.45	13.82
653.64	13.74
653.83	13.6
654.019	13.49
654.209	13.4
654.399	13.38
654.588	13.23
654.778	13.14
654.968	13
655.157	12.92
655.347	12.8
655.536	12.69
655.726	12.51
655.915	12.43
656.105	12.31
656.294	12.18
656.484	12.04
656.673	12.06
656.863	11.93
657.052	11.76
657.241	11.56
657.431	11.38
657.62	11.17
657.809	10.95
657.999	10.82
658.188	10.73
658.377	10.6
658.567	10.46
658.756	10.33
658.945	10.12
659.134	9.93
659.324	9.8
659.513	9.57
659.702	9.44
659.891	9.4
660.08	9.32
660.269	9.29
660.458	9.18
660.648	9.02
660.837	8.83
661.026	8.68
661.215	8.46
661.404	8.37
661.593	8.26
661.782	8.13
661.971	8.04
662.16	7.94
662.349	7.8
662.538	7.66
662.726	7.54
662.915	7.44
663.104	7.3
663.293	7.32
663.482	7.38
663.671	7.34
663.86	7.22
664.048	7.15
664.237	7.09
664.426	6.82
664.615	6.78
664.803	6.73
664.992	6.6
665.181	6.44
665.369	6.43
665.558	6.32
665.747	6.26
665.935	6.34
666.124	6.4
666.312	6.39
666.501	6.32
666.69	6.19
666.878	6.09
667.067	5.91
667.255	5.99
667.444	6.13
667.632	6.23
667.82	6.26
668.009	6.27
668.197	6.19
668.386	6.09
668.574	6.15
668.762	6.07
668.951	6.03
669.139	5.99
669.327	5.94
669.516	5.83
669.704	5.87
669.892	6
670.08	6.02
670.269	5.92
670.457	5.86
670.645	5.67
670.833	5.69
671.021	5.69
671.21	5.78
671.398	5.94
671.586	6.07
671.774	5.89
671.962	5.82
672.15	5.86
672.338	5.78
672.526	5.83
672.714	5.84
672.902	5.93
673.09	5.98
673.278	6.08
673.466	6.06
673.654	6.13
673.842	6.12
674.03	6.13
674.218	6.11
674.405	6.26
674.593	6.28
674.781	6.37
674.969	6.44
675.157	6.54
675.344	6.73
675.532	6.91
675.72	7.07
675.908	7.13
676.095	7.07
676.283	6.96
676.471	6.99
676.658	6.94
676.846	7.02
677.033	7.27
677.221	7.32
677.409	7.32
677.596	7.41
677.784	7.39
677.971	7.46
678.159	7.62
678.346	7.73
678.534	7.83
678.721	7.9
678.909	7.87
679.096	7.84
679.283	7.96
679.471	8.08
679.658	8.22
679.846	8.38
680.033	8.59
680.22	8.71
680.408	8.69
680.595	8.76
680.782	8.65
680.969	8.7
681.157	8.71
681.344	8.86
681.531	8.97
681.718	9.12
681.905	9.26
682.093	9.48
682.28	9.66
682.467	9.89
682.654	10.05
682.841	10.21
683.028	10.34
683.215	10.43
683.402	10.36
683.589	10.63
683.776	10.82
683.963	10.97
684.15	11.23
684.337	11.64
684.524	11.79
684.711	12.11
684.898	12.24
685.085	12.48
685.271	12.7
685.458	12.88
685.645	13.01
685.832	13.36
686.019	13.63
686.205	13.76
686.392	14.14
686.579	14.37
686.766	14.62
686.952	14.94
687.139	15.48
687.326	15.71
687.512	15.99
687.699	16.47
687.886	16.73
688.072	16.94
688.259	17.39
688.445	18.02
688.632	18.22
688.818	18.72
689.005	19.18
689.191	19.4
689.378	19.65
689.564	20.18
689.751	20.55
689.937	21.02
690.124	21.72
690.31	22.2
690.496	22.75
690.683	23.24
690.869	23.8
691.055	24.27
691.242	24.94
691.428	25.54
691.614	26.33
691.8	27.05
691.987	27.74
692.173	28.45
692.359	29.03
692.545	29.72
692.731	30.06
692.918	30.73
693.104	31.23
693.29	31.87
693.476	32.31
693.662	33.13
693.848	33.67
694.034	34.22
694.22	34.8
694.406	35.42
694.592	36.15
694.778	36.8
694.964	37.3
695.15	38.17
695.336	39.11
695.522	39.76
695.708	40.43
695.894	41.46
696.08	41.83
696.265	42.19
696.451	42.83
696.637	43.71
696.823	44.11
697.009	44.59
697.194	45.48
697.38	45.97
697.566	46.19
697.751	46.92
697.937	47.81
698.123	48.33
698.308	48.85
698.494	49.66
698.68	50.2
698.865	50.87
699.051	51.37
699.236	51.86
699.422	52.43
699.607	52.84
699.793	53.26
699.978	53.71
700.164	54.16
700.349	54.55
700.535	55.18
700.72	55.53
700.906	55.95
701.091	56.5
701.276	57.17
701.462	57.66
701.647	58.42
701.832	58.87
702.018	59.32
702.203	59.51
702.388	59.89
702.573	60.36
702.759	60.96
702.944	61.49
703.129	61.63
703.314	62.03
703.499	62.18
703.684	62.32
703.87	63.15
704.055	63.74
704.24	64.01
704.425	64.48
704.61	65.08
704.795	65.09
704.98	65.56
705.165	65.74
705.35	66.19
705.535	66.44
705.72	66.62
705.905	66.99
706.09	67.7
706.275	67.97
706.459	68.02
706.644	68.47
706.829	69.02
707.014	68.86
707.199	68.94
707.384	69.51
707.568	69.95
707.753	69.96
707.938	70.58
708.123	70.56
708.307	70.48
708.492	70.46
708.677	70.63
708.861	70.93
709.046	71.29
709.231	71.89
709.415	72.27
709.6	72.5
709.784	72.36
709.969	72.63
710.153	72.58
710.338	72.65
710.522	72.91
710.707	73.02
710.891	73.13
711.076	73.17
711.26	72.93
711.445	73.24
711.629	73.55
711.813	73.69
711.998	74.24
712.182	74.4
712.366	74.71
712.551	75.31
712.735	75.94
712.919	75.77
713.103	76.22
713.288	76.13
713.472	75.77
713.656	75.82
713.84	76.02
714.024	76.11
714.208	75.89
714.393	76.43
714.577	76.43
714.761	76.51
714.945	76.84
715.129	76.89
715.313	77.07
715.497	77.16
715.681	77.75
715.865	77.58
716.049	77.94
716.233	77.4
716.417	77.46
716.601	77.19
716.785	77.21
716.968	77.09
717.152	77.64
717.336	77.88
717.52	77.8
717.704	78.12
717.888	78.51
718.071	78.54
718.255	78.71
718.439	79
718.622	78.82
718.806	79.05
718.99	79.02
719.174	78.87
719.357	78.92
719.541	79.79
719.724	79.74
719.908	80.21
720.092	80.14
720.275	80.39
720.459	79.47
720.642	79.41
720.826	79.27
721.009	79.62
721.193	79.2
721.376	79.66
721.559	80.08
721.743	80.09
721.926	80.14
722.11	80.52
722.293	80.22
722.476	79.69
722.66	79.43
722.843	79.57
723.026	79.22
723.21	79.78
723.393	79.8
723.576	79.82
723.759	79.23
723.942	79.1
724.126	78.76
724.309	79.48
724.492	79.91
724.675	79.96
724.858	81
725.041	81.18
725.224	81.25
725.407	81.22
725.59	82.02
725.774	81.61
725.957	81.77
726.14	81.69
726.322	81.95
726.505	81.41
726.688	82.37
726.871	82.47
727.054	82.07
727.237	81.89
727.42	82.31
727.603	81.76
727.786	81.93
727.968	82.34
728.151	82.62
728.334	82.81
728.517	82.89
728.699	83.47
728.882	83.93
729.065	84.04
729.248	84.42
729.43	84.85
729.613	85.06
729.796	85.52
729.978	84.94
730.161	84.71
730.343	83.91
730.526	84.17
730.708	82.93
730.891	83.74
731.073	83.68
731.256	84.08
731.438	83.56
731.621	85.09
731.803	85
731.986	84.91
732.168	84.44
732.35	84.72
732.533	84.39
732.715	84.4
732.898	84.73
733.08	85.38
733.262	85.42
733.444	85
733.627	85.01
733.809	85.06
733.991	85.79
734.173	85.82
734.355	85.56
734.538	85.89
734.72	86.28
734.902	86.26
735.084	86.41
735.266	86.56
735.448	87.09
735.63	87.51
735.812	87.42
735.994	88.2
736.176	88.54
736.358	87.94
736.54	88.59
736.722	88.21
736.904	87.04
737.086	87.6
737.268	88.55
737.45	88.1
737.632	88.4
737.814	88.45
737.995	88.3
738.177	87.97
738.359	86.65
738.541	86.61
738.723	87.82
738.904	87.72
739.086	88.05
739.268	88.82
739.449	89.01
739.631	87.43
739.813	88.23
739.994	87.39
740.176	87.98
740.358	87.76
740.539	88.99
740.721	88.88
740.902	89.78
741.084	89.19
741.265	88.77
741.447	89.7
741.628	89.25
741.81	88.76
741.991	89.83
742.172	90.5
742.354	90.26
742.535	90.75
742.717	90.96
742.898	90.71
743.079	91.24
743.261	90.49
743.442	89.48
743.623	89.27
743.804	88.82
743.986	89.28
744.167	87.88
744.348	88.32
744.529	88.2
744.71	87.19
744.891	86.44
745.073	86.86
745.254	86.3
745.435	86.08
745.616	86.82
745.797	86.69
745.978	86.82
746.159	87.89
746.34	87.32
746.521	88.58
746.702	88.32
746.883	88.56
747.064	88.09
747.245	89.21
747.426	87.82
747.606	88.21
747.787	89.25
747.968	88.64
748.149	87.94
748.33	88.85
748.51	89.35
748.691	88.2
748.872	89.13
749.053	89.83
749.233	89.18
749.414	88.53
749.595	88.63
749.775	87.93
749.956	87.6
750.137	87.31
750.317	87.77
750.498	88.55
750.678	88.8
750.859	89.72
751.04	90.61
751.22	89.46
751.4	88.76
751.581	87.76
751.761	86.67
751.942	85.93
752.122	86.64
752.303	86.08
752.483	87.36
752.663	87.3
752.844	86.45
753.024	86.36
753.204	86.04
753.385	85.24
753.565	85.43
753.745	85.93
753.925	85.52
754.106	86.38
754.286	86.41
754.466	85.79
754.646	86
754.826	85.23
755.006	83.66
755.187	83.96
755.367	84.72
755.547	84.82
755.727	85.81
755.907	87.13
756.087	88.26
756.267	86.75
756.447	86.06
756.627	85.51
756.807	85.49
756.987	84.43
757.167	85.37
757.346	86.21
757.526	85.62
757.706	85.91
757.886	86.87
758.066	87.31
758.246	87.78
758.425	87.58
758.605	86.98
758.785	85.61
758.965	86.81
759.144	85.81
759.324	86.97
759.504	87.81
759.683	88.49
759.863	86.22
760.043	85.28
760.222	84.96
760.402	84.46
760.581	82.97
760.761	83.97
760.94	83.83
761.12	84.25
761.299	85.29
761.479	86.69
761.658	85.09
761.838	85.62
762.017	84.78
762.197	84.13
762.376	83.57
762.555	85.2
762.735	85.49
762.914	86.16
763.093	86.52
763.273	86.28
763.452	86.71
763.631	86.71
763.81	86.08
763.99	84.38
764.169	84.69
764.348	82.51
764.527	82.13
764.706	82.64
764.885	84.59
765.064	83.06
765.243	83.6
765.423	84.34
765.602	85.88
765.781	82.87
765.96	83.18
766.139	82.75
766.318	82.16
766.497	80.22
766.676	81.29
766.854	83.24
767.033	83.8
767.212	83.25
767.391	83.53
767.57	84.44
767.749	83.13
767.928	83.26
768.106	82.72
768.285	81.05
768.464	81.1
768.643	79.82
768.821	80.03
769	82.66
769.179	83.03
769.357	81.55
769.536	83.32
769.715	83.52
769.893	83.37
770.072	83.41
770.25	85.13
770.429	84.76
770.607	84.86
770.786	83.24
770.964	84.71
771.143	83.35
771.321	84.39
771.5	84.21
771.678	84.05
771.857	84.01
772.035	82.64
772.213	79.98
772.392	78.51
772.57	79.38
772.748	77.71
772.927	78.43
773.105	78.5
773.283	78.9
773.461	78.29
773.64	79.65
773.818	80.76
773.996	81.43
774.174	81.56
774.352	79.49
774.531	77.41
774.709	76.92
774.887	76.33
775.065	75.78
775.243	77.05
775.421	77.59
775.599	78.9
775.777	78.52
775.955	77.92
776.133	77.15
776.311	76.56
776.489	74.09
776.667	75.02
776.844	75.63
777.022	75.4
777.2	76.68
777.378	78.28
777.556	77.22
777.734	79.09
777.911	81.33
778.089	80.56
778.267	79.62
778.445	79.53
778.622	78.24
778.8	76.1
778.978	77.27
779.155	75
779.333	75.68
779.511	76.3
779.688	76.89
779.866	74.28
780.043	75.19
780.221	74.96
780.398	70.93
780.576	71.44
780.753	73.54
780.931	74.78
781.108	74.79
781.286	77.87
781.463	75.5
781.64	73.66
781.818	73.16
781.995	72.01
782.172	71.89
782.35	74.92
782.527	75.02
782.704	74.78
782.882	77.29
783.059	76.12
783.236	76.78
783.413	78.48
783.59	77.45
783.768	74.18
783.945	78.78
784.122	78.73
784.299	79.75
784.476	80.22
784.653	80.78
784.83	74.93
785.007	70.78
785.184	69.38
785.361	68.46
785.538	73.1
785.715	76.46
785.892	77.96
786.069	80.78
786.246	83.5
786.423	80.36
786.6	77.63
786.776	80.3
786.953	77.67
787.13	77.55
787.307	75.34
787.484	76.26
787.66	73.29
787.837	71.52
788.014	67.46
788.191	69.42
788.367	67.97
788.544	69.51
788.721	71.36
788.897	75.07
789.074	74.96
789.25	75.56
789.427	75.27
789.603	72.14
789.78	71.64
789.956	70.65
790.133	71.22
790.309	73.07
790.486	78.3
790.662	75.98
790.839	77.39
791.015	76.56
791.192	76.56
791.368	76.24
791.544	76.64
791.721	78.48
791.897	79.7
792.073	74.37
792.249	68.68
792.426	72.42
792.602	71.77
792.778	71.2
792.954	73.27
793.13	74.34
793.307	68.82
793.483	62.39
793.659	62.43
793.835	64.46
794.011	64.95
794.187	68.1
794.363	69.97
794.539	71.6
794.715	67.41
794.891	66.84
795.067	66.48
795.243	71.62
795.419	66.6
795.595	64.19
795.771	66.1
795.947	64.69
796.122	62.59
796.298	66.74
796.474	69.69
796.65	67.26
796.826	69.06
797.001	66.35
797.177	64.72
797.353	64.86
797.529	65.86
797.704	67.99
797.88	70
798.056	68.85
798.231	71.74
798.407	74.98
798.582	71.15
798.758	69.84
798.934	70.04
799.109	70.11
799.285	67.11
799.46	67.98
799.636	67.46
799.811	67.43
799.986	66.22
800.162	67.15
800.337	67.81
800.513	67.81
800.688	67.32
800.863	74.1
801.039	69.46
801.214	65.46
801.389	69.19
801.565	68.15
801.74	56.89
801.915	66.73
802.09	72.1
802.265	73.36
802.441	72.52
802.616	78.54
802.791	72.71
802.966	72.4
803.141	69.23
803.316	73.73
803.491	71.22
803.666	75.41
803.841	71.52
804.016	67.08
804.191	64.09
804.366	64.87
804.541	59.26
804.716	61.29
804.891	63.4
805.066	62.35
805.241	55.53
805.416	57.53
805.591	57.62
805.765	63.29
805.94	70.83
806.115	76
806.29	69.85
806.464	67.62
806.639	59.92
806.814	50.46
806.989	47.26
807.163	58.22
807.338	59.53
807.512	60
807.687	53.33
807.862	61.2
808.036	59.01
808.211	63.72
808.385	65.33
808.56	74.85
808.734	74.08
808.909	66.46
809.083	58.08
809.258	70.13
809.432	72.04
809.606	64.46
809.781	69.35
809.955	69.13
810.13	63.35
810.304	58.01
810.478	58.35
810.652	59.66
810.827	62.33
811.001	54.27
811.175	54.18
811.349	50.58
811.524	45.84
811.698	42.67
811.872	47.64
812.046	57.98
812.22	60.93
812.394	60.92
812.568	67.43
812.742	69.9
812.916	58.93
813.09	60.7
813.264	66.27
813.438	67.7
813.612	64.02
813.786	64.28
813.96	71.34
814.134	67.4
814.308	64.45
814.482	66.28
814.656	60.56
814.83	59.92
815.003	64.67
815.177	56.9
815.351	56.57
815.525	59.26
815.698	50.94
815.872	44.75
816.046	43.89
816.219	43.88
816.393	51.71
816.567	58.93
816.74	63.99
816.914	64.2
817.088	62.13
817.261	54.54
817.435	47.36
817.608	48.22
817.782	54.22
817.955	56.5
818.129	49.59
818.302	56.79
818.475	57.28
818.649	65.84
818.822	57.04
818.996	71.56
819.169	74.46
819.342	69.53
819.516	64.73
819.689	72.22
819.862	62.76
820.035	55.23
820.209	57.89
820.382	50.18
820.555	46.71
820.728	34.61
820.901	35.05
821.075	32.96
821.248	35.93
821.421	26.31
821.594	47.08
821.767	55.28
821.94	55.38
822.113	49.05
822.286	59.89
822.459	64.56
822.632	70.68
822.805	71.34
822.978	71.54
823.151	58.7
823.324	49.73
823.496	27.42
823.669	37.05
823.842	42.03
824.015	31.83
824.188	29.49
824.361	35.69
824.533	17.31
824.706	20.38
824.879	33.6
825.051	40.48
825.224	41.33
825.397	33.1
825.569	17.12
825.742	32.28
825.915	30.34
826.087	29.2
826.26	36.08
826.432	43.46
826.605	25.45
826.777	23.42
826.95	27.61
827.122	32.21
827.295	27.93
827.467	43.33
827.64	20.34
827.812	16.16
827.984	12.78
828.157	12.25
828.329	-26.34
828.501	-2.4
828.674	21.5
828.846	16.16
829.018	32.18
829.19	38.56
829.363	64.97
829.535	59.03
829.707	53.65
829.879	36.4
830.051	24.98
830.223	13.09
830.395	-28.35
830.568	-25.26
830.74	-23.36
830.912	12.73
831.084	-2.31
831.256	32.04
831.428	39.99
831.6	38.93
831.772	6.58
831.943	-12.63
832.115	-14.69
832.287	3.89
832.459	18.56
832.631	38.25
832.803	53.48
832.975	68.32
833.146	51.75
833.318	42.79
833.49	54.99
833.662	48.65
833.833	32.77
834.005	30.81
834.177	29.23
834.348	12.77
834.52	6.43
834.692	9.15
834.863	8.12
835.035	7.97
835.206	-28.8
835.378	-13.39
835.549	-12.91
835.721	10.04
835.892	27.24
836.064	34.05
836.235	39.58
836.407	65.11
836.578	47.48
836.749	39.25
836.921	43.64
837.092	18.06
837.264	-3.18
837.435	-10.37
837.606	4.07
837.777	16.46
837.949	19.18
838.12	23.12
838.291	29
838.462	25.32
838.633	15.61
838.805	26.94
838.976	31.37
839.147	14.03
839.318	-3.77
839.489	-42.57
839.66	-58.52
839.831	-12.42
840.002	2.04
840.173	23.92
840.344	86.9
840.515	162.95
840.686	117.46
840.857	55.5
841.028	44.32
841.199	15.09
841.369	-15.41
841.54	-21.79
841.711	11.59
841.882	21.5
842.053	29.21
842.223	24.51
842.394	61.35
842.565	42.92
842.736	34.46
842.906	31.76
843.077	53.73
843.248	50.39
843.418	78.64
843.589	61.46
843.759	74.36
843.93	11.98
844.101	20.88
844.271	11.87
844.442	19.14
844.612	31.63
844.783	25.67
844.953	-8.34
845.123	-14.7
845.294	7.38
845.464	-112.09
845.635	-28.26
845.805	49.22
845.975	49.24
846.146	6.84
846.316	-3.59
846.486	12.59
846.656	26.16
846.827	22.47
846.997	22.85
847.167	43.82
847.337	19.98
847.507	-21.8
847.677	-26.81
847.848	28.94
848.018	30.27
848.188	26.08
848.358	12.42
848.528	11.11
848.698	-21.24
848.868	-68.34
849.038	-131.83
849.208	-26.35
849.378	-2.76
849.548	-8.74
849.718	-2.57
849.887	32.16
850.057	27.03
850.227	-13.89
850.397	-1.79
850.567	-48.43
850.737	-241.52
850.906	-754.38
851.076	-562.89
851.246	-306.54
851.415	-5.25
851.585	11.17
851.755	4.2
851.924	54.58
852.094	41.37
852.264	-16.7
852.433	-580.29
852.603	-121.16
852.772	-140.44
852.942	-46.54
853.111	-50.5
853.281	8.37
853.45	38.17
853.62	6.43
853.789	-6.59
853.959	2.19
854.128	-8.15
854.297	-40.5
854.467	-49.55
854.636	-59.54
854.805	-10.35
854.975	-76.84
855.144	-121.78
855.313	-151.4
855.482	-59.49
855.652	-17.08
855.821	80.09
855.99	62.1
856.159	34.05
856.328	16.61
856.497	3.08
856.667	2.12
856.836	-17.34
857.005	-3.24
857.174	-4.19
857.343	-29.5
857.512	16.35
857.681	52.76
857.85	24.29
858.019	22.08
858.188	12.75
858.356	-10.43
858.525	-60.55
858.694	-57.43
858.863	-129.12
859.032	-54.07
859.201	-89.82
859.369	-56.76
859.538	31.81
859.707	25.77
859.876	2.11
860.044	1.58
860.213	36.87
860.382	8.43
860.55	10.95
860.719	47.02
860.888	58.38
861.056	33.59
861.225	29.38
861.393	36.14
861.562	3.01
861.73	-49.9
861.899	-179.32
862.067	-1915.52
862.236	-44.19
862.404	-86.6
862.572	-28.3
862.741	42.08
862.909	30.65
863.078	-51.46
863.246	-41.06
863.414	-56.47
863.582	-77.64
863.751	-71.99
863.919	-40.51
864.087	-9.53
864.255	12.33
864.424	-122.11
864.592	-15.28
864.76	-56.44
864.928	-10
865.096	-110.03
865.264	-83.42
865.432	-751.14
865.6	67.25
865.768	-57.49
865.936	-69.61
866.104	-77.62
866.272	-131.41
866.44	-299.02
866.608	551.36
866.776	213.49
866.944	1989.53
867.112	-370.13
867.28	-159.74
867.448	-55.85
867.615	-7.05
867.783	13.64
867.951	-2.74
868.119	-1.14
868.286	-25.12
868.454	-177.6
868.622	-146.18
868.789	-102.82
868.957	-539.29
869.125	-1280.26
869.292	-42.87
869.46	-79.84
869.627	21.17
869.795	11
869.963	48.62
870.13	58.02
870.298	47.72
870.465	-22.09
870.632	-49.58
870.8	-48.44
870.967	-98.84
871.135	-79.81
871.302	-69.79
871.469	-104.98
871.637	-197.69
871.804	-43.43
871.971	-112.75
872.139	-372.79
872.306	-11.43
872.473	1.11
872.64	-172.75
872.807	3.73
872.975	101.91
873.142	56.55
873.309	-71.62
873.476	87.78
873.643	92.98
873.81	31.28
873.977	45.17
874.144	37.11
874.311	-49.53
874.478	-55.51
874.645	-62.37
874.812	-56.86
874.979	-46.69
875.146	-36.08
875.313	-67.51
875.48	-20.72
875.647	-16.86
875.813	-12.03
875.98	2.17
876.147	-17.53
876.314	-46.13
876.481	434.3
876.647	-796.07
876.814	301.81
876.981	67.88
877.147	25.73
877.314	63.93
877.481	92.62
877.647	57.3
877.814	28.55
877.98	-1.5
878.147	-14.32
878.314	2.36
878.48	-20.7
878.647	6.06
878.813	48.74
878.979	37.45
879.146	7.14
879.312	6.3
879.479	-35.47
879.645	-162.23
879.811	-300.16
879.978	-689.69
880.144	-164.47
880.31	-55.77
880.477	-141.49
880.643	-236.8
880.809	-66.07
880.975	-115.35
881.142	-805
881.308	-136.04
881.474	-44.11
881.64	-41.46
881.806	-36.31
881.972	10.92
882.138	95.97
882.304	80.26
882.47	-8.09
882.636	-81.56
882.802	-69.9
882.968	-37.34
883.134	0.56
883.3	-22.98
883.466	-0.04
883.632	16.15
883.798	6
883.964	-17.38
884.129	-0.82
884.295	12
884.461	-15.5
884.627	-68.62
884.793	-95.35
884.958	-64.78
885.124	-138.73
885.29	-223.87
885.455	-486.65
885.621	-152.92
885.787	-174.42
885.952	-63.53
886.118	-67.42
886.283	-36.4
886.449	-99.75
886.614	-123.3
886.78	-271.35
886.945	979.51
887.111	-513.58
887.276	-460.51
887.442	-837.73
887.607	-390.8
887.773	-260.03
887.938	-214.75
888.103	-274.15
888.269	-155.57
888.434	-246.76
888.599	-98.93
888.764	-2.44
888.93	1.85
889.095	-0.06
889.26	-15.3
889.425	24.47
889.59	82.57
889.756	97.95
889.921	53.39
890.086	68.49
890.251	35.34
890.416	-107.89
890.581	-895.97
890.746	115.89
890.911	346.18
891.076	141.07
891.241	-112.31
891.406	7.7
891.571	-98.93
891.736	-296.1
891.901	-494.25
892.065	785.16
892.23	183.7
892.395	178.57
892.56	179.62
892.725	-87.11
892.889	-908.54
893.054	-59.78
893.219	-10.16
893.384	13.36
893.548	-23.08
893.713	2.6
893.878	19.86
