Data from Ofra_PS_T2_1A_4CX12_Reflection_2.txt Node
Date: Wed Jul 21 18:04:54 EDT 2021
User: Adam
Spectrometer: FLMT01687
Trigger mode: 0
Integration Time (sec): 1.100000E0
Scans to average: 2
Electric dark correction enabled: true
Nonlinearity correction enabled: false
Boxcar width: 2
XAxis mode: Wavelengths
Number of Pixels in Spectrum: 3648
>>>>>Begin Spectral Data<<<<<
179.494	457.6
179.716	536.94
179.937	512.5
180.158	514
180.38	803.12
180.601	441.44
180.823	174.42
181.044	75.83
181.265	382.35
181.486	118.5
181.708	68.82
181.929	-28.57
182.15	-73.24
182.372	238.85
182.593	114.63
182.814	63.86
183.035	103.65
183.257	130.48
183.478	62.34
183.699	66.78
183.92	13.35
184.141	-3.23
184.363	-90.24
184.584	-38.11
184.805	-14.27
185.026	21.57
185.247	25.48
185.468	10.25
185.689	6.54
185.91	8.61
186.132	16.73
186.353	27.71
186.574	102.04
186.795	102.33
187.016	89.6
187.237	64.11
187.458	40.16
187.679	27.22
187.9	20.68
188.121	16.59
188.342	24.19
188.563	65.9
188.784	74.06
189.005	49.01
189.226	63.51
189.447	54.47
189.667	-143.2
189.888	-251.72
190.109	-955.84
190.33	-501.94
190.551	-900.88
190.772	-184.02
190.993	-164.92
191.214	-90.61
191.434	-44.51
191.655	-4.91
191.876	-34.28
192.097	-119.23
192.318	-180.33
192.538	-286.22
192.759	-182.18
192.98	-91.11
193.201	-20.79
193.421	-14.55
193.642	7.29
193.863	8.7
194.083	-11.77
194.304	-27.85
194.525	-19.19
194.745	-24.16
194.966	-35.27
195.187	-20.66
195.407	-26.6
195.628	-35.6
195.848	-51.31
196.069	-36.36
196.29	-25.07
196.51	-41.82
196.731	-57.21
196.951	-87.82
197.172	-103.55
197.392	-136.42
197.613	-120.65
197.833	-151.22
198.054	-113.56
198.274	-44.37
198.495	-33.28
198.715	-1.22
198.936	5.7
199.156	-1.16
199.377	-88.12
199.597	-97.85
199.817	-98.85
200.038	-39.73
200.258	-41.06
200.479	2.68
200.699	49.65
200.919	59.41
201.14	37.3
201.36	-14.61
201.58	20.07
201.801	35.78
202.021	-3.29
202.241	-4.68
202.461	-7.58
202.682	-91.01
202.902	-156.12
203.122	-103.03
203.342	-104.71
203.563	-42.06
203.783	-9.11
204.003	-33.97
204.223	-33.05
204.443	8.96
204.663	-30.11
204.884	-12.57
205.104	-1.5
205.324	33.05
205.544	55.33
205.764	52.51
205.984	39.83
206.204	46.72
206.424	30.87
206.644	-12.4
206.864	18.66
207.084	25.67
207.304	66.44
207.525	4.38
207.745	9.94
207.964	46.97
208.184	-31.29
208.404	-82.39
208.624	-66.45
208.844	-75.98
209.064	-369.35
209.284	-316.58
209.504	-181.43
209.724	-61.86
209.944	-14.48
210.164	2.35
210.384	3.01
210.604	5.97
210.823	-27.26
211.043	-65.71
211.263	-50.76
211.483	-49.66
211.703	-80.92
211.922	-66.91
212.142	11.79
212.362	29.45
212.582	20.69
212.801	14.84
213.021	6.99
213.241	-10.77
213.461	-42.66
213.68	-53.14
213.9	-47.13
214.12	-31.22
214.339	-88.62
214.559	-56.1
214.779	4.6
214.998	18.1
215.218	-10.2
215.438	18.48
215.657	-3.7
215.877	-34.48
216.096	-19.47
216.316	-21.04
216.535	-32.42
216.755	2.88
216.974	-58.49
217.194	-94.06
217.413	-73.2
217.633	-90.09
217.852	-212.67
218.072	-94.24
218.291	-32.15
218.511	16.3
218.73	14.38
218.95	5.67
219.169	13.67
219.389	-11.48
219.608	-16.54
219.827	-10.76
220.047	16.97
220.266	9.84
220.485	7.83
220.705	4.09
220.924	-14
221.143	9.15
221.363	-7.24
221.582	-0.57
221.801	15.6
222.021	36.91
222.24	9.92
222.459	63.34
222.678	0.74
222.897	-82.28
223.117	-110.56
223.336	-75.16
223.555	-62.56
223.774	18.76
223.993	23.31
224.213	46.35
224.432	23.56
224.651	43.4
224.87	4.62
225.089	21.09
225.308	20.44
225.527	22.99
225.746	21.54
225.965	15.07
226.184	6.3
226.404	15.01
226.623	0.13
226.842	-0.06
227.061	24.55
227.28	27.55
227.499	17.46
227.718	34.92
227.936	33.24
228.155	27.72
228.374	6.26
228.593	18.06
228.812	11.48
229.031	-0.49
229.25	-41.42
229.469	-30.85
229.688	-35.57
229.907	-2.13
230.125	28.52
230.344	46.89
230.563	60.05
230.782	65
231.001	-6.1
231.22	-21.07
231.438	11.71
231.657	3.7
231.876	-10.13
232.095	34.59
232.313	44.01
232.532	9.44
232.751	-17.15
232.969	-18.27
233.188	-68.28
233.407	-16.16
233.625	9.66
233.844	-14.08
234.063	-13.9
234.281	14.31
234.5	2.76
234.719	-1.58
234.937	27.25
235.156	27.48
235.374	19.85
235.593	4.65
235.811	-5.87
236.03	-9.11
236.249	-44.67
236.467	-21.28
236.686	2.97
236.904	15.37
237.123	-9.06
237.341	-7.67
237.559	-12.33
237.778	-34.07
237.996	-66.14
238.215	-20.11
238.433	1.25
238.652	-6.13
238.87	-27.37
239.088	-5.5
239.307	-2.48
239.525	-2.85
239.743	-31.11
239.962	-5
240.18	-29.06
240.398	-53.77
240.617	-61.22
240.835	-49.42
241.053	-10.1
241.271	29.75
241.49	31.69
241.708	7.36
241.926	14.51
242.144	-13.37
242.363	-52.87
242.581	-81.93
242.799	-33.63
243.017	13.77
243.235	6.64
243.453	20.67
243.672	22.98
243.89	17.34
244.108	-6.04
244.326	7.69
244.544	9.5
244.762	7.94
244.98	14.26
245.198	19.03
245.416	-13.57
245.634	-13
245.852	-23.6
246.07	-22.14
246.288	-41.43
246.506	-52.35
246.724	-27.21
246.942	-18.57
247.16	-8.47
247.378	15.72
247.596	46.63
247.814	11.61
248.032	-16.87
248.25	-4.81
248.468	9.57
248.685	10.38
248.903	51.28
249.121	68.64
249.339	43.47
249.557	15.48
249.775	15.93
249.992	-63.83
250.21	-58.81
250.428	-30.86
250.646	-42.81
250.863	-64.81
251.081	-15.89
251.299	-12.37
251.517	-24.55
251.734	-9.01
251.952	-7.11
252.17	-5.06
252.387	10.13
252.605	-2.37
252.823	11.89
253.04	18.07
253.258	38.21
253.475	26.83
253.693	43.69
253.911	41
254.128	61.93
254.346	37.51
254.563	18.67
254.781	-0.9
254.998	-24.06
255.216	-40.96
255.433	-22.61
255.651	34.58
255.868	61.85
256.086	90.08
256.303	84.82
256.521	62.89
256.738	21.84
256.956	-0.63
257.173	-42.64
257.39	-58.3
257.608	-80.78
257.825	-28.51
258.043	6.64
258.26	18.29
258.477	51.29
258.695	59.23
258.912	20.68
259.129	15.9
259.346	-23.3
259.564	-42.31
259.781	-56.92
259.998	2.14
260.216	27.7
260.433	59.85
260.65	43.18
260.867	55.76
261.084	20.96
261.302	7.99
261.519	12.36
261.736	-9.65
261.953	-22.14
262.17	15.09
262.387	-30.25
262.604	-61.64
262.822	-69.07
263.039	-61.22
263.256	-102.1
263.473	-39.24
263.69	-23.8
263.907	14.46
264.124	25.71
264.341	20.42
264.558	2.08
264.775	22.71
264.992	12.54
265.209	7.55
265.426	33.2
265.643	33.35
265.86	38.81
266.077	40.2
266.294	23.62
266.51	-16.51
266.727	-11.93
266.944	-27.48
267.161	-30.88
267.378	-45.25
267.595	-10.9
267.812	-28.72
268.028	-39.82
268.245	-16.64
268.462	-7.05
268.679	-29.15
268.896	26.38
269.112	29.27
269.329	19.43
269.546	34.33
269.763	31.27
269.979	6.16
270.196	10.34
270.413	-15.23
270.629	-46.09
270.846	-44.36
271.063	-46
271.279	-64.09
271.496	-47.75
271.712	-2.93
271.929	14.64
272.146	3.11
272.362	0.73
272.579	20.13
272.795	25.9
273.012	50.61
273.228	52.45
273.445	39.01
273.661	22.89
273.878	-47.65
274.094	-79.3
274.311	-80.5
274.527	-6.81
274.744	10.78
274.96	20.82
275.177	34.62
275.393	40.86
275.609	27.33
275.826	40.13
276.042	36.26
276.259	17.79
276.475	29.68
276.691	32.77
276.908	-4.59
277.124	19.29
277.34	19.63
277.557	3.56
277.773	-12.86
277.989	-4.95
278.205	-14.7
278.422	8.76
278.638	12.75
278.854	45.52
279.07	36.61
279.286	33.42
279.503	0.58
279.719	-6.44
279.935	-35.8
280.151	-34.83
280.367	-23.1
280.583	-27.01
280.799	-17.7
281.016	-36.07
281.232	-0.84
281.448	8.03
281.664	21.95
281.88	11.85
282.096	24.69
282.312	37.42
282.528	33.44
282.744	39.64
282.96	34.05
283.176	18.04
283.392	-2.73
283.608	6.79
283.824	-4.06
284.04	-1.38
284.256	6.71
284.471	10.56
284.687	-21.58
284.903	16.05
285.119	40.11
285.335	14.01
285.551	16.22
285.767	15.61
285.982	-13.44
286.198	-60.71
286.414	-2.49
286.63	8.93
286.846	32.04
287.061	12
287.277	29.7
287.493	2.12
287.709	9.21
287.924	-12.75
288.14	22.38
288.356	46.35
288.571	51.72
288.787	33.4
289.003	40.09
289.218	20.23
289.434	-20.99
289.65	-8.75
289.865	-18.82
290.081	-1.91
290.296	10.67
290.512	14.14
290.727	-20.74
290.943	-13.88
291.159	-22.67
291.374	-19.41
291.59	-37.08
291.805	-26.13
292.021	-14.1
292.236	-12.44
292.451	-7.83
292.667	12
292.882	41.69
293.098	50.44
293.313	44.74
293.529	10.89
293.744	-19.11
293.959	-49.53
294.175	-63.61
294.39	-23.84
294.605	-3.24
294.821	26.83
295.036	38.09
295.251	43.96
295.467	9.42
295.682	1.79
295.897	-66.19
296.112	-80.75
296.328	-57.91
296.543	-59.65
296.758	-37.81
296.973	14.01
297.188	36.13
297.404	7.62
297.619	7.78
297.834	-19.75
298.049	-33.91
298.264	-50.21
298.479	8.07
298.694	12.82
298.909	31.48
299.125	38.25
299.34	51.93
299.555	16.06
299.77	23.94
299.985	-19.14
300.2	-85.3
300.415	-118.97
300.63	-77.24
300.845	-80.75
301.06	-69.37
301.275	-30.24
301.49	7.51
301.704	-0.38
301.919	-18.94
302.134	-29.88
302.349	-21.35
302.564	-82.65
302.779	-96.94
302.994	-67.4
303.209	-25.62
303.423	5.06
303.638	37.43
303.853	2.06
304.068	9.57
304.283	8.88
304.497	-3.4
304.712	-12.95
304.927	-3.98
305.142	0.5
305.356	13.11
305.571	4.32
305.786	-9.03
306	-23.34
306.215	-30.92
306.43	-59.14
306.644	-49.26
306.859	-9.93
307.074	7.33
307.288	-24.1
307.503	-46.3
307.717	-35.19
307.932	-28.44
308.147	-23.36
308.361	0.3
308.576	3.58
308.79	-34.89
309.005	-30.38
309.219	-17.85
309.434	-27.69
309.648	-25.63
309.863	-3.36
310.077	-2.35
310.292	-6.19
310.506	0.98
310.72	19.76
310.935	31.1
311.149	15.39
311.364	30.55
311.578	35.3
311.792	13.56
312.007	15.34
312.221	11.84
312.435	9.52
312.649	2.81
312.864	10.39
313.078	4.67
313.292	69.75
313.507	37.23
313.721	57.26
313.935	39.14
314.149	38.08
314.363	22.53
314.578	19.86
314.792	21.49
315.006	20.25
315.22	33.14
315.434	34.63
315.648	41.73
315.862	34.75
316.077	38.56
316.291	20.97
316.505	13.49
316.719	-3.03
316.933	-5.64
317.147	3.99
317.361	-37.29
317.575	-60.63
317.789	-87.01
318.003	-142.68
318.217	-122.1
318.431	-28.82
318.645	7.69
318.859	23.92
319.073	50.59
319.287	29.52
319.5	5.43
319.714	-21.39
319.928	-42.02
320.142	-71.46
320.356	-10.5
320.57	24.61
320.784	5.18
320.997	-1.82
321.211	7.2
321.425	-56.36
321.639	-82.84
321.853	-23.26
322.066	-11.08
322.28	1.09
322.494	27.99
322.707	47.5
322.921	43.77
323.135	42.42
323.349	37.63
323.562	7.13
323.776	-6.66
323.989	-10.79
324.203	-36.72
324.417	-43.1
324.63	-49.58
324.844	-43.1
325.057	-38.17
325.271	-8.79
325.485	7.41
325.698	26.21
325.912	34.3
326.125	16.68
326.339	9.64
326.552	-1.46
326.766	8.34
326.979	18.52
327.193	53.78
327.406	41.14
327.619	24.42
327.833	35.82
328.046	1.49
328.26	-42.19
328.473	0.11
328.686	-9.13
328.9	-16.81
329.113	12.54
329.326	2.9
329.54	-9.69
329.753	-21.51
329.966	-65.09
330.179	-56.39
330.393	-26.2
330.606	-12.87
330.819	11.92
331.032	29.51
331.246	21.96
331.459	44.93
331.672	19.25
331.885	13.99
332.098	-8.72
332.311	-8.43
332.525	-57.56
332.738	-28.14
332.951	-2.69
333.164	35.75
333.377	33.3
333.59	47.46
333.803	51.4
334.016	35.74
334.229	5.19
334.442	16.84
334.655	21.74
334.868	23.15
335.081	14.39
335.294	16.65
335.507	10.49
335.72	-1.85
335.933	-12.01
336.146	-13.57
336.359	-9.27
336.572	-46.24
336.785	-74.39
336.997	-61.37
337.21	-37.56
337.423	-54.97
337.636	-43.67
337.849	-6.9
338.062	-16.3
338.274	-14.78
338.487	-5.69
338.7	2.75
338.913	-35
339.125	-68.44
339.338	-124.85
339.551	-108.95
339.763	-62.78
339.976	-39.76
340.189	-2.26
340.402	21.96
340.614	20.33
340.827	4.58
341.039	-14.01
341.252	-15.99
341.465	-2.56
341.677	-6.27
341.89	-39.72
342.102	-7.7
342.315	-17.64
342.527	-35.72
342.74	-31.31
342.952	0.64
343.165	-2.25
343.377	21.66
343.59	5.05
343.802	8.05
344.015	1.43
344.227	9.9
344.44	11.57
344.652	21.95
344.864	18.34
345.077	44.44
345.289	32.03
345.502	29.06
345.714	17.09
345.926	33.82
346.139	19.26
346.351	28.74
346.563	34.48
346.775	55.11
346.988	27.63
347.2	17.97
347.412	-16.68
347.624	-45.91
347.837	-87.98
348.049	-32.17
348.261	-3.76
348.473	7.39
348.685	6.11
348.897	7.1
349.11	-21.13
349.322	-48.96
349.534	-43.92
349.746	-23.5
349.958	-24.09
350.17	-27.49
350.382	-7.85
350.594	-10.98
350.806	-20.28
351.018	-6.21
351.23	-19.23
351.442	-60.08
351.654	-43.14
351.866	-30.92
352.078	-23.19
352.29	9.54
352.502	26.45
352.714	32.75
352.926	21.46
353.138	18.35
353.35	-1.38
353.561	-12.33
353.773	-35.95
353.985	-15.87
354.197	-16.11
354.409	-14.88
354.621	-15.62
354.832	-11.01
355.044	-23.3
355.256	-31.09
355.468	-7.04
355.679	-1.43
355.891	8.64
356.103	2.78
356.314	3.88
356.526	-3.87
356.738	-2.95
356.949	-5.09
357.161	15.58
357.373	4.94
357.584	-2.87
357.796	-3.92
358.008	-6.29
358.219	8.47
358.431	19.24
358.642	31.02
358.854	34.19
359.065	25.75
359.277	-15.74
359.488	-25.03
359.7	-40.17
359.911	-60.93
360.123	-31.48
360.334	-24.74
360.546	-31.47
360.757	-23.95
360.969	5.62
361.18	16.29
361.391	16.13
361.603	3.53
361.814	-4.65
362.025	-4.69
362.237	-10.28
362.448	13.97
362.659	33.59
362.871	27.81
363.082	24.89
363.293	20.87
363.504	-9.91
363.716	-38.36
363.927	-49.91
364.138	-80.33
364.349	-91.85
364.56	-59.93
364.772	-47.99
364.983	-19.64
365.194	-9.42
365.405	4.12
365.616	14.62
365.827	25
366.038	-3.34
366.25	-1.84
366.461	-35.6
366.672	-21.06
366.883	-16.82
367.094	3.46
367.305	-7.42
367.516	1.7
367.727	-33.3
367.938	-45.93
368.149	-48.53
368.36	-23
368.571	-12.39
368.781	-13.91
368.992	-21.76
369.203	-38.37
369.414	-71.03
369.625	-83.26
369.836	-72.43
370.047	-102.18
370.258	-81.39
370.468	-62.58
370.679	-79.97
370.89	-76.65
371.101	-35.53
371.312	-34.58
371.522	-26.97
371.733	-2.1
371.944	8.53
372.155	5.16
372.365	-0.56
372.576	-12.01
372.787	-20.3
372.997	-51.08
373.208	-38.47
373.419	-22.45
373.629	-52.2
373.84	-59.54
374.05	-57.55
374.261	-66.82
374.472	-69.6
374.682	-6.1
374.893	5.03
375.103	40.51
375.314	37.88
375.524	31.86
375.735	32.17
375.945	30.83
376.156	7.34
376.366	15.66
376.577	15.72
376.787	-5.85
376.997	-5.2
377.208	-6.39
377.418	-24.58
377.629	-10.68
377.839	-4.7
378.049	-0.14
378.26	15.33
378.47	30.61
378.68	16.17
378.89	10.62
379.101	1.72
379.311	-17.24
379.521	-49.07
379.732	-39.19
379.942	-21.29
380.152	-34.4
380.362	-11.64
380.572	-13.38
380.783	3.02
380.993	2.73
381.203	19.9
381.413	29.01
381.623	42.03
381.833	29.6
382.043	21.79
382.253	11.34
382.463	-2.34
382.674	-13.89
382.884	-35.14
383.094	-31.24
383.304	-18.8
383.514	-5.64
383.724	6.83
383.934	12.6
384.144	1.81
384.353	-13.68
384.563	-23.17
384.773	-22.07
384.983	-27.6
385.193	-6.82
385.403	8.66
385.613	8.02
385.823	-0.34
386.033	4.47
386.242	-0.66
386.452	-9.76
386.662	-11.74
386.872	-1.59
387.082	-6.17
387.291	-13.48
387.501	-9.45
387.711	-3.31
387.921	-7.42
388.13	-2.47
388.34	11.3
388.55	5.75
388.759	2.24
388.969	8.28
389.179	5.97
389.388	-2.45
389.598	2.04
389.807	-5.41
390.017	-10.73
390.227	-6.51
390.436	-5.62
390.646	-6.06
390.855	0.1
391.065	0.17
391.274	-2.71
391.484	-2.68
391.693	0.29
391.903	2.13
392.112	8.02
392.322	9.3
392.531	10.64
392.74	10.98
392.95	6.06
393.159	2.27
393.369	2.54
393.578	2.52
393.787	0.03
393.997	3.7
394.206	3.66
394.415	3.09
394.625	2.94
394.834	2.74
395.043	1.63
395.252	3.27
395.462	5.44
395.671	7
395.88	6.99
396.089	8.72
396.298	6.94
396.508	5.63
396.717	4.59
396.926	5.39
397.135	4.71
397.344	5.44
397.553	6.63
397.762	7.92
397.971	8.2
398.181	7.97
398.39	7.68
398.599	7.22
398.808	6.9
399.017	7.73
399.226	8.82
399.435	9.63
399.644	9.83
399.853	9.11
400.062	8.25
400.27	7.62
400.479	6.97
400.688	5.91
400.897	6.21
401.106	6.37
401.315	6.17
401.524	6.06
401.733	6.7
401.941	6.75
402.15	6.81
402.359	6.72
402.568	7.15
402.777	7.29
402.985	7.02
403.194	6.89
403.403	6.89
403.612	6.4
403.82	6.22
404.029	6.65
404.238	6.54
404.446	6.8
404.655	6.81
404.864	6.81
405.072	6.34
405.281	6.49
405.489	6.33
405.698	6.42
405.906	6.38
406.115	6.54
406.324	6.53
406.532	6.54
406.741	6.76
406.949	6.81
407.158	6.86
407.366	6.91
407.574	7.02
407.783	6.98
407.991	6.75
408.2	6.73
408.408	6.66
408.617	6.44
408.825	6.24
409.033	6.42
409.242	6.51
409.45	6.32
409.658	6.26
409.867	6.43
410.075	6.22
410.283	6.02
410.491	6.14
410.7	6.16
410.908	6.07
411.116	6.4
411.324	6.4
411.533	6.39
411.741	6.51
411.949	6.46
412.157	6.12
412.365	6.15
412.573	6.14
412.781	6.11
412.99	6.1
413.198	6.32
413.406	6.34
413.614	6.33
413.822	6.2
414.03	6.04
414.238	5.82
414.446	5.8
414.654	5.56
414.862	5.7
415.07	5.94
415.278	6.21
415.486	6.07
415.694	6.24
415.902	6.13
416.109	5.93
416.317	5.84
416.525	5.73
416.733	5.61
416.941	5.73
417.149	5.73
417.357	5.8
417.564	5.95
417.772	6.18
417.98	6.02
418.188	5.98
418.395	5.86
418.603	5.91
418.811	5.65
419.019	5.58
419.226	5.83
419.434	5.96
419.642	5.74
419.849	5.82
420.057	5.88
420.265	5.71
420.472	5.27
420.68	5.31
420.887	5.11
421.095	5.05
421.302	5.08
421.51	5.33
421.717	5.47
421.925	5.78
422.132	5.71
422.34	5.48
422.547	5.58
422.755	5.48
422.962	5.26
423.17	5.2
423.377	5.31
423.585	5.25
423.792	5.24
423.999	5.26
424.207	5.35
424.414	5.51
424.621	5.56
424.829	5.53
425.036	5.53
425.243	5.72
425.451	5.42
425.658	5.1
425.865	5.14
426.072	5.12
426.28	5.36
426.487	5.52
426.694	5.64
426.901	5.5
427.108	5.47
427.315	5.19
427.523	5.51
427.73	5.65
427.937	5.69
428.144	5.51
428.351	5.45
428.558	5.25
428.765	5.14
428.972	5.04
429.179	5.38
429.386	5.66
429.593	5.34
429.8	5.18
430.007	5.34
430.214	5.42
430.421	5.14
430.628	5.19
430.835	5.2
431.042	5.42
431.249	5.31
431.456	5.27
431.662	5.47
431.869	5.7
432.076	5.51
432.283	5.67
432.49	5.74
432.697	5.75
432.903	5.55
433.11	5.62
433.317	5.59
433.524	5.76
433.73	5.73
433.937	5.98
434.144	5.93
434.35	6
434.557	5.85
434.764	5.86
434.97	5.71
435.177	5.83
435.384	5.65
435.59	5.65
435.797	5.84
436.003	5.91
436.21	5.79
436.416	5.87
436.623	5.9
436.829	5.87
437.036	5.87
437.242	5.98
437.449	5.95
437.655	5.97
437.862	5.89
438.068	5.92
438.275	6.03
438.481	6.21
438.687	6.17
438.894	6.16
439.1	6.11
439.307	6.29
439.513	6.15
439.719	6.13
439.926	6.22
440.132	6.23
440.338	5.98
440.544	6.14
440.751	6.2
440.957	6.27
441.163	6.26
441.369	6.35
441.575	6.04
441.782	5.97
441.988	5.78
442.194	5.86
442.4	5.86
442.606	6.25
442.812	6.35
443.018	6.44
443.224	6.4
443.431	6.43
443.637	6.15
443.843	6.09
444.049	6.09
444.255	6.06
444.461	6.01
444.667	6.03
444.873	6.23
445.079	6.25
445.284	6.35
445.49	6.17
445.696	5.97
445.902	5.75
446.108	5.77
446.314	5.69
446.52	5.82
446.726	6.21
446.931	6.29
447.137	6.34
447.343	6.4
447.549	6.3
447.755	6.06
447.96	6.16
448.166	6.04
448.372	6.05
448.578	6.14
448.783	6.29
448.989	6.27
449.195	6.48
449.4	6.43
449.606	6.39
449.812	6.32
450.017	6.42
450.223	6.32
450.428	6.36
450.634	6.53
450.84	6.65
451.045	6.47
451.251	6.41
451.456	6.64
451.662	6.68
451.867	6.66
452.073	6.71
452.278	6.77
452.483	6.73
452.689	6.53
452.894	6.55
453.1	6.54
453.305	6.5
453.51	6.36
453.716	6.36
453.921	6.36
454.127	6.34
454.332	6.35
454.537	6.34
454.742	6.41
454.948	6.4
455.153	6.42
455.358	6.47
455.563	6.69
455.769	6.85
455.974	6.83
456.179	6.85
456.384	6.8
456.589	6.71
456.795	6.41
457	6.38
457.205	6.52
457.41	6.56
457.615	6.5
457.82	6.69
458.025	6.77
458.23	6.66
458.435	6.67
458.64	6.55
458.845	6.64
459.05	6.58
459.255	6.68
459.46	6.78
459.665	6.89
459.87	6.84
460.075	6.83
460.28	6.83
460.485	6.82
460.69	6.87
460.895	6.69
461.099	6.69
461.304	6.8
461.509	6.8
461.714	6.71
461.919	7
462.123	7
462.328	7.01
462.533	6.91
462.738	7
462.942	6.83
463.147	6.91
463.352	6.86
463.556	6.96
463.761	6.96
463.966	6.99
464.17	6.96
464.375	6.85
464.58	6.81
464.784	6.75
464.989	6.75
465.193	6.8
465.398	6.87
465.602	6.98
465.807	6.94
466.011	6.98
466.216	7
466.42	7.08
466.625	7.14
466.829	7.32
467.034	7.37
467.238	7.53
467.443	7.4
467.647	7.25
467.851	7.23
468.056	7.31
468.26	7.16
468.464	7.22
468.669	7.33
468.873	7.46
469.077	7.36
469.282	7.48
469.486	7.5
469.69	7.53
469.894	7.34
470.099	7.44
470.303	7.44
470.507	7.37
470.711	7.22
470.915	7.2
471.119	7.1
471.324	7.04
471.528	7.06
471.732	7.16
471.936	7.2
472.14	7.28
472.344	7.33
472.548	7.42
472.752	7.62
472.956	7.77
473.16	7.75
473.364	7.64
473.568	7.57
473.772	7.5
473.976	7.36
474.18	7.31
474.384	7.39
474.588	7.4
474.792	7.27
474.995	7.42
475.199	7.44
475.403	7.49
475.607	7.41
475.811	7.4
476.015	7.37
476.218	7.44
476.422	7.38
476.626	7.6
476.83	7.71
477.033	7.68
477.237	7.59
477.441	7.64
477.644	7.5
477.848	7.46
478.052	7.31
478.255	7.31
478.459	7.32
478.663	7.45
478.866	7.52
479.07	7.71
479.273	7.89
479.477	7.87
479.681	7.85
479.884	7.7
480.088	7.56
480.291	7.48
480.495	7.5
480.698	7.49
480.901	7.65
481.105	7.84
481.308	7.8
481.512	7.77
481.715	7.85
481.919	7.82
482.122	7.75
482.325	7.76
482.529	7.78
482.732	7.73
482.935	7.65
483.138	7.6
483.342	7.6
483.545	7.74
483.748	7.73
483.952	7.81
484.155	7.97
484.358	8.02
484.561	7.95
484.764	7.87
484.967	7.95
485.171	7.91
485.374	7.91
485.577	8
485.78	8.16
485.983	8.15
486.186	8.02
486.389	7.96
486.592	7.85
486.795	7.76
486.998	7.65
487.201	7.75
487.404	7.86
487.607	7.92
487.81	7.95
488.013	8.09
488.216	8.05
488.419	7.96
488.622	7.91
488.825	7.83
489.028	7.71
489.231	7.63
489.433	7.6
489.636	7.52
489.839	7.53
490.042	7.51
490.245	7.56
490.447	7.63
490.65	7.65
490.853	7.65
491.056	7.67
491.258	7.64
491.461	7.58
491.664	7.68
491.866	7.66
492.069	7.76
492.272	7.79
492.474	7.86
492.677	7.78
492.879	7.85
493.082	7.86
493.285	7.95
493.487	7.87
493.69	7.88
493.892	7.83
494.095	7.72
494.297	7.63
494.5	7.67
494.702	7.72
494.905	7.78
495.107	7.8
495.309	7.82
495.512	7.87
495.714	7.92
495.917	7.9
496.119	7.9
496.321	7.93
496.524	7.94
496.726	7.82
496.928	7.82
497.13	7.8
497.333	7.77
497.535	7.75
497.737	7.82
497.939	7.83
498.142	7.89
498.344	7.82
498.546	7.72
498.748	7.7
498.95	7.79
499.152	7.76
499.355	7.84
499.557	7.95
499.759	8
499.961	7.94
500.163	7.94
500.365	7.97
500.567	7.98
500.769	7.86
500.971	7.89
501.173	7.82
501.375	7.83
501.577	7.81
501.779	7.85
501.981	7.83
502.183	7.89
502.385	7.81
502.587	7.72
502.788	7.8
502.99	7.84
503.192	7.88
503.394	7.89
503.596	7.96
503.798	7.96
503.999	8
504.201	8.01
504.403	8.09
504.605	8.12
504.806	8.08
505.008	8.03
505.21	8.04
505.411	8.02
505.613	7.98
505.815	7.97
506.016	7.97
506.218	8.03
506.42	8.05
506.621	8.13
506.823	8.14
507.024	8.08
507.226	7.99
507.427	7.94
507.629	7.95
507.83	8
508.032	8.06
508.233	8.23
508.435	8.29
508.636	8.36
508.838	8.35
509.039	8.41
509.24	8.41
509.442	8.41
509.643	8.27
509.845	8.23
510.046	8.24
510.247	8.19
510.448	8.18
510.65	8.24
510.851	8.38
511.052	8.35
511.254	8.36
511.455	8.49
511.656	8.52
511.857	8.55
512.058	8.59
512.26	8.52
512.461	8.45
512.662	8.56
512.863	8.44
513.064	8.41
513.265	8.48
513.466	8.49
513.667	8.39
513.868	8.43
514.069	8.51
514.27	8.57
514.471	8.58
514.672	8.63
514.873	8.63
515.074	8.61
515.275	8.49
515.476	8.49
515.677	8.47
515.878	8.59
516.079	8.58
516.28	8.65
516.481	8.77
516.682	8.76
516.882	8.63
517.083	8.62
517.284	8.54
517.485	8.41
517.686	8.42
517.886	8.44
518.087	8.5
518.288	8.61
518.488	8.65
518.689	8.67
518.89	8.62
519.091	8.63
519.291	8.58
519.492	8.61
519.692	8.61
519.893	8.71
520.094	8.7
520.294	8.71
520.495	8.67
520.695	8.73
520.896	8.74
521.096	8.73
521.297	8.75
521.497	8.79
521.698	8.72
521.898	8.71
522.099	8.74
522.299	8.85
522.499	8.89
522.7	8.94
522.9	8.92
523.101	8.95
523.301	8.92
523.501	8.91
523.702	8.9
523.902	9
524.102	9.02
524.302	9.04
524.503	9.08
524.703	9.12
524.903	9.12
525.103	9.09
525.304	9.14
525.504	9.19
525.704	9.18
525.904	9.15
526.104	9.13
526.304	9.1
526.504	9.06
526.705	9.07
526.905	9.13
527.105	9.13
527.305	9.06
527.505	9
527.705	9.01
527.905	8.97
528.105	9.05
528.305	9.07
528.505	9.17
528.705	9.24
528.905	9.23
529.105	9.15
529.304	9.22
529.504	9.28
529.704	9.21
529.904	9.26
530.104	9.31
530.304	9.38
530.503	9.34
530.703	9.31
530.903	9.32
531.103	9.34
531.303	9.28
531.502	9.3
531.702	9.44
531.902	9.39
532.101	9.36
532.301	9.45
532.501	9.42
532.7	9.33
532.9	9.42
533.1	9.46
533.299	9.44
533.499	9.52
533.698	9.53
533.898	9.52
534.097	9.58
534.297	9.69
534.496	9.64
534.696	9.66
534.895	9.74
535.095	9.81
535.294	9.74
535.494	9.72
535.693	9.79
535.892	9.84
536.092	9.72
536.291	9.68
536.491	9.79
536.69	9.83
536.889	9.71
537.088	9.82
537.288	9.87
537.487	9.88
537.686	9.87
537.886	9.98
538.085	10.01
538.284	10.09
538.483	10.08
538.682	10.14
538.882	10.18
539.081	10.22
539.28	10.14
539.479	10.16
539.678	10.13
539.877	10.18
540.076	10.17
540.275	10.2
540.474	10.3
540.673	10.37
540.872	10.37
541.071	10.45
541.27	10.53
541.469	10.53
541.668	10.52
541.867	10.51
542.066	10.52
542.265	10.62
542.464	10.59
542.663	10.61
542.862	10.74
543.06	10.76
543.259	10.78
543.458	10.83
543.657	10.91
543.856	10.92
544.054	10.89
544.253	10.87
544.452	10.93
544.651	11
544.849	11.05
545.048	11.14
545.247	11.25
545.445	11.33
545.644	11.37
545.843	11.35
546.041	11.47
546.24	11.52
546.438	11.57
546.637	11.58
546.836	11.71
547.034	11.69
547.233	11.74
547.431	11.74
547.63	11.83
547.828	11.8
548.027	11.88
548.225	11.92
548.423	11.98
548.622	12.06
548.82	12.12
549.019	12.13
549.217	12.22
549.415	12.31
549.614	12.37
549.812	12.42
550.01	12.47
550.209	12.54
550.407	12.54
550.605	12.53
550.803	12.65
551.002	12.76
551.2	12.77
551.398	12.91
551.596	13.11
551.794	13.18
551.993	13.25
552.191	13.32
552.389	13.41
552.587	13.43
552.785	13.47
552.983	13.59
553.181	13.72
553.379	13.78
553.577	13.83
553.775	13.94
553.973	14.04
554.171	14.1
554.369	14.18
554.567	14.25
554.765	14.38
554.963	14.42
555.161	14.47
555.359	14.56
555.557	14.73
555.755	14.81
555.952	14.97
556.15	15.09
556.348	15.19
556.546	15.23
556.744	15.29
556.941	15.22
557.139	15.33
557.337	15.43
557.535	15.5
557.732	15.63
557.93	15.88
558.128	15.93
558.325	16.04
558.523	16.14
558.721	16.23
558.918	16.34
559.116	16.49
559.313	16.6
559.511	16.81
559.708	16.92
559.906	16.96
560.104	17.05
560.301	17.15
560.498	17.14
560.696	17.16
560.893	17.31
561.091	17.5
561.288	17.6
561.486	17.75
561.683	17.92
561.88	17.98
562.078	18.04
562.275	18.18
562.473	18.32
562.67	18.59
562.867	18.78
563.064	18.94
563.262	18.98
563.459	19.07
563.656	19.18
563.853	19.27
564.051	19.37
564.248	19.57
564.445	19.7
564.642	19.69
564.839	19.85
565.036	19.98
565.234	20.18
565.431	20.38
565.628	20.58
565.825	20.68
566.022	20.82
566.219	20.87
566.416	20.99
566.613	21.08
566.81	21.27
567.007	21.33
567.204	21.38
567.401	21.45
567.598	21.54
567.795	21.48
567.991	21.58
568.188	21.76
568.385	21.88
568.582	21.95
568.779	22.09
568.976	22.15
569.172	22.26
569.369	22.27
569.566	22.38
569.763	22.49
569.96	22.6
570.156	22.63
570.353	22.69
570.55	22.72
570.746	22.8
570.943	22.95
571.14	23.03
571.336	23.12
571.533	23.31
571.729	23.36
571.926	23.39
572.123	23.55
572.319	23.62
572.516	23.59
572.712	23.67
572.909	23.66
573.105	23.65
573.302	23.66
573.498	23.74
573.695	23.68
573.891	23.79
574.087	23.8
574.284	23.83
574.48	23.78
574.677	23.91
574.873	23.88
575.069	23.9
575.266	24.02
575.462	24.03
575.658	24.12
575.854	24.32
576.051	24.34
576.247	24.28
576.443	24.32
576.639	24.3
576.835	24.16
577.032	24.08
577.228	24.19
577.424	24.3
577.62	24.24
577.816	24.3
578.012	24.33
578.208	24.25
578.404	24.21
578.6	24.22
578.796	24.24
578.993	24.33
579.189	24.38
579.384	24.3
579.58	24.28
579.776	24.18
579.972	24.02
580.168	23.86
580.364	23.96
580.56	23.86
580.756	23.84
580.952	23.91
581.148	23.95
581.343	23.91
581.539	24.01
581.735	24.01
581.931	23.97
582.127	23.97
582.322	24.01
582.518	24.02
582.714	24.05
582.909	24.03
583.105	24.06
583.301	23.99
583.496	23.99
583.692	23.89
583.888	23.9
584.083	23.93
584.279	23.93
584.474	23.84
584.67	23.93
584.866	23.95
585.061	23.77
585.257	23.8
585.452	23.78
585.648	23.7
585.843	23.65
586.039	23.77
586.234	23.73
586.429	23.68
586.625	23.81
586.82	23.77
587.015	23.73
587.211	23.61
587.406	23.68
587.601	23.58
587.797	23.56
587.992	23.59
588.187	23.73
588.383	23.68
588.578	23.76
588.773	23.83
588.968	23.83
589.163	23.89
589.359	23.93
589.554	23.86
589.749	23.91
589.944	23.97
590.139	23.89
590.334	24
590.529	24.02
590.724	24.05
590.919	24.03
591.114	24.01
591.309	24.12
591.504	24.2
591.699	24.21
591.894	24.37
592.089	24.43
592.284	24.31
592.479	24.35
592.674	24.32
592.869	24.37
593.064	24.49
593.259	24.64
593.454	24.72
593.648	24.77
593.843	24.67
594.038	24.71
594.233	24.64
594.428	24.7
594.622	24.87
594.817	25.06
595.012	25.16
595.206	25.35
595.401	25.37
595.596	25.39
595.79	25.46
595.985	25.5
596.18	25.61
596.374	25.74
596.569	25.86
596.763	25.83
596.958	25.89
597.153	25.92
597.347	25.92
597.542	26.03
597.736	26.16
597.931	26.28
598.125	26.39
598.319	26.58
598.514	26.69
598.708	26.8
598.903	26.81
599.097	26.8
599.291	26.8
599.486	26.73
599.68	26.75
599.874	26.86
600.069	26.95
600.263	26.93
600.457	27.08
600.651	27.14
600.846	27.18
601.04	27.21
601.234	27.38
601.428	27.39
601.622	27.35
601.817	27.5
602.011	27.54
602.205	27.51
602.399	27.57
602.593	27.59
602.787	27.54
602.981	27.54
603.175	27.58
603.369	27.48
603.563	27.65
603.757	27.65
603.951	27.65
604.145	27.64
604.339	27.66
604.533	27.49
604.727	27.42
604.921	27.46
605.115	27.44
605.309	27.47
605.502	27.56
605.696	27.48
605.89	27.34
606.084	27.31
606.278	27.28
606.471	27.15
606.665	27.18
606.859	27.1
607.053	27
607.246	26.92
607.44	26.92
607.634	26.8
607.827	26.83
608.021	26.72
608.214	26.63
608.408	26.48
608.602	26.47
608.795	26.37
608.989	26.4
609.182	26.35
609.376	26.28
609.569	26.08
609.763	25.9
609.956	25.74
610.15	25.59
610.343	25.52
610.537	25.46
610.73	25.48
610.923	25.45
611.117	25.39
611.31	25.32
611.504	25.26
611.697	25.09
611.89	24.88
612.083	24.84
612.277	24.72
612.47	24.63
612.663	24.61
612.856	24.58
613.05	24.32
613.243	24.22
613.436	24.05
613.629	23.88
613.822	23.81
614.015	23.81
614.209	23.72
614.402	23.77
614.595	23.77
614.788	23.68
614.981	23.63
615.174	23.49
615.367	23.32
615.56	23.17
615.753	23.16
615.946	22.99
616.139	23.07
616.332	23.18
616.525	23.14
616.718	23.06
616.911	23.1
617.103	22.92
617.296	22.78
617.489	22.72
617.682	22.58
617.875	22.52
618.067	22.53
618.26	22.34
618.453	22.26
618.646	22.26
618.838	22.18
619.031	22.17
619.224	22.18
619.417	22.27
619.609	22.34
619.802	22.23
619.994	22.18
620.187	22.22
620.38	22.09
620.572	21.87
620.765	21.99
620.957	21.76
621.15	21.65
621.342	21.65
621.535	21.67
621.727	21.56
621.92	21.57
622.112	21.5
622.305	21.49
622.497	21.44
622.69	21.42
622.882	21.5
623.074	21.45
623.267	21.34
623.459	21.21
623.651	21.08
623.844	21.04
624.036	21.18
624.228	21.15
624.42	21.23
624.613	21.36
624.805	21.32
624.997	21.21
625.189	21.15
625.381	21.11
625.574	20.9
625.766	20.86
625.958	20.81
626.15	20.89
626.342	20.9
626.534	20.96
626.726	20.92
626.918	20.96
627.11	20.87
627.302	20.8
627.494	20.75
627.686	20.75
627.878	20.58
628.07	20.57
628.262	20.56
628.454	20.56
628.646	20.55
628.838	20.59
629.029	20.5
629.221	20.49
629.413	20.32
629.605	20.2
629.797	20.07
629.989	20.07
630.18	19.99
630.372	20
630.564	19.93
630.755	19.99
630.947	20
631.139	19.85
631.33	19.77
631.522	19.91
631.714	19.96
631.905	19.86
632.097	19.87
632.289	19.91
632.48	19.71
632.672	19.53
632.863	19.45
633.055	19.44
633.246	19.38
633.438	19.39
633.629	19.31
633.821	19.3
634.012	19.29
634.203	19.19
634.395	19.12
634.586	19.23
634.777	19.15
634.969	19.17
635.16	19.3
635.351	19.35
635.543	19.31
635.734	19.36
635.925	19.33
636.117	19.33
636.308	19.29
636.499	19.24
636.69	19.14
636.881	19.1
637.073	19.04
637.264	19
637.455	19.03
637.646	19.19
637.837	19.21
638.028	19.13
638.219	19.2
638.41	19.14
638.601	18.99
638.792	18.98
638.983	19.03
639.174	19
639.365	19
639.556	18.98
639.747	18.95
639.938	19
640.129	18.89
640.32	18.84
640.511	18.91
640.701	19.04
640.892	18.97
641.083	19.08
641.274	19.16
641.465	19.12
641.655	18.95
641.846	18.96
642.037	18.87
642.228	18.74
642.418	18.83
642.609	18.81
642.8	18.81
642.99	18.73
643.181	18.77
643.372	18.67
643.562	18.73
643.753	18.61
643.943	18.6
644.134	18.55
644.324	18.55
644.515	18.44
644.705	18.47
644.896	18.53
645.086	18.56
645.277	18.54
645.467	18.57
645.658	18.54
645.848	18.53
646.038	18.43
646.229	18.38
646.419	18.23
646.61	18.24
646.8	18.17
646.99	18.19
647.18	18.11
647.371	18.21
647.561	18.12
647.751	18.15
647.941	18.08
648.132	18.21
648.322	18.12
648.512	18.19
648.702	18.14
648.892	18.14
649.082	18.02
649.272	17.9
649.462	17.71
649.653	17.61
649.843	17.51
650.033	17.51
650.223	17.44
650.413	17.47
650.603	17.49
650.793	17.55
650.983	17.45
651.172	17.51
651.362	17.48
651.552	17.3
651.742	17.18
651.932	17.15
652.122	17.05
652.312	17.03
652.502	17.06
652.691	16.98
652.881	16.85
653.071	16.8
653.261	16.66
653.45	16.52
653.64	16.57
653.83	16.46
654.019	16.44
654.209	16.34
654.399	16.3
654.588	16.14
654.778	15.96
654.968	15.84
655.157	15.7
655.347	15.54
655.536	15.38
655.726	15.29
655.915	15.02
656.105	14.89
656.294	14.78
656.484	14.53
656.673	14.45
656.863	14.39
657.052	14.17
657.241	13.93
657.431	13.74
657.62	13.57
657.809	13.25
657.999	13.14
658.188	12.99
658.377	12.87
658.567	12.67
658.756	12.61
658.945	12.38
659.134	12.23
659.324	12.11
659.513	11.94
659.702	11.68
659.891	11.49
660.08	11.29
660.269	11.17
660.458	10.94
660.648	10.89
660.837	10.81
661.026	10.77
661.215	10.56
661.404	10.44
661.593	10.37
661.782	10.13
661.971	10
662.16	9.88
662.349	9.89
662.538	9.6
662.726	9.62
662.915	9.49
663.104	9.47
663.293	9.38
663.482	9.47
663.671	9.41
663.86	9.25
664.048	9.13
664.237	9.06
664.426	8.86
664.615	8.79
664.803	8.78
664.992	8.62
665.181	8.51
665.369	8.41
665.558	8.27
665.747	8.17
665.935	8.27
666.124	8.32
666.312	8.34
666.501	8.36
666.69	8.29
666.878	8.2
667.067	8.03
667.255	8.12
667.444	8.34
667.632	8.43
667.82	8.44
668.009	8.38
668.197	8.31
668.386	8.15
668.574	8.23
668.762	8.26
668.951	8.39
669.139	8.35
669.327	8.21
669.516	8.26
669.704	8.29
669.892	8.43
670.08	8.52
670.269	8.57
670.457	8.43
670.645	8.29
670.833	8.31
671.021	8.31
671.21	8.43
671.398	8.74
671.586	8.9
671.774	8.82
671.962	8.84
672.15	8.89
672.338	8.65
672.526	8.73
672.714	8.73
672.902	8.8
673.09	8.96
673.278	9.23
673.466	9.34
673.654	9.56
673.842	9.55
674.03	9.55
674.218	9.44
674.405	9.36
674.593	9.3
674.781	9.48
674.969	9.53
675.157	9.75
675.344	9.97
675.532	10.12
675.72	10.19
675.908	10.3
676.095	10.21
676.283	10.24
676.471	10.43
676.658	10.54
676.846	10.59
677.033	10.79
677.221	10.96
677.409	10.84
677.596	10.9
677.784	10.97
677.971	11.07
678.159	11.14
678.346	11.31
678.534	11.33
678.721	11.53
678.909	11.56
679.096	11.56
679.283	11.74
679.471	11.98
679.658	12.08
679.846	12.36
680.033	12.66
680.22	12.65
680.408	12.55
680.595	12.57
680.782	12.39
680.969	12.45
681.157	12.53
681.344	12.75
681.531	12.9
681.718	13.02
681.905	13.14
682.093	13.33
682.28	13.43
682.467	13.82
682.654	14.08
682.841	14.19
683.028	14.48
683.215	14.84
683.402	14.75
683.589	14.87
683.776	15.24
683.963	15.33
684.15	15.46
684.337	15.75
684.524	16.07
684.711	16.26
684.898	16.29
685.085	16.45
685.271	16.68
685.458	16.96
685.645	16.98
685.832	17.47
686.019	17.92
686.205	18.29
686.392	18.56
686.579	18.92
686.766	19.36
686.952	19.56
687.139	20
687.326	20.12
687.512	20.57
687.699	20.75
687.886	21.32
688.072	21.54
688.259	22.15
688.445	22.63
688.632	23.22
688.818	23.61
689.005	24.23
689.191	24.9
689.378	25.63
689.564	26.23
689.751	26.83
689.937	27.15
690.124	27.68
690.31	28.04
690.496	28.54
690.683	29.23
690.869	30.17
691.055	30.78
691.242	31.45
691.428	32.22
691.614	32.68
691.8	33.42
691.987	34.2
692.173	35.02
692.359	35.67
692.545	36.59
692.731	37.32
692.918	37.91
693.104	38.57
693.29	39.37
693.476	40.24
693.662	40.82
693.848	41.45
694.034	42.1
694.22	42.66
694.406	43.12
694.592	43.85
694.778	44.82
694.964	45.47
695.15	46.11
695.336	47.03
695.522	47.97
695.708	48.53
695.894	49.44
696.08	50.45
696.265	51.19
696.451	51.75
696.637	52.69
696.823	53.32
697.009	53.8
697.194	54.24
697.38	54.76
697.566	55.22
697.751	55.96
697.937	56.65
698.123	57.46
698.308	58.06
698.494	58.92
698.68	59.52
698.865	60.28
699.051	60.75
699.236	61.2
699.422	61.57
699.607	61.99
699.793	62.65
699.978	63.2
700.164	64.02
700.349	64.68
700.535	65.24
700.72	65.5
700.906	66.39
701.091	67.1
701.276	67.65
701.462	68.54
701.647	69.53
701.832	69.97
702.018	70.26
702.203	70.61
702.388	71
702.573	71.11
702.759	71.64
702.944	71.98
703.129	72.2
703.314	72.47
703.499	72.81
703.684	72.92
703.87	73.98
704.055	74.82
704.24	75.11
704.425	75.78
704.61	76.5
704.795	76.33
704.98	76.71
705.165	77.07
705.35	77.28
705.535	77.52
705.72	77.88
705.905	78.21
706.09	78.68
706.275	78.89
706.459	78.94
706.644	79.16
706.829	79.12
707.014	79.09
707.199	79.69
707.384	80.27
707.568	80.63
707.753	81.19
707.938	81.65
708.123	81.49
708.307	81.09
708.492	81.27
708.677	81.33
708.861	81.49
709.046	81.68
709.231	82.56
709.415	83.09
709.6	83.08
709.784	83.14
709.969	83.37
710.153	83.35
710.338	83.1
710.522	83.56
710.707	84.15
710.891	84.34
711.076	84.46
711.26	84.64
711.445	84.7
711.629	85.04
711.813	85.41
711.998	85.81
712.182	85.97
712.366	86.54
712.551	86.82
712.735	86.76
712.919	86.65
713.103	86.99
713.288	86.94
713.472	86.55
713.656	87.25
713.84	87.46
714.024	87.84
714.208	87.68
714.393	88.07
714.577	87.95
714.761	87.95
714.945	88.12
715.129	88.05
715.313	88.28
715.497	88.3
715.681	89.35
715.865	89.21
716.049	89.91
716.233	89.51
716.417	89.88
716.601	88.98
716.785	89.18
716.968	89.18
717.152	89.71
717.336	89.49
717.52	89.64
717.704	89.78
717.888	90.06
718.071	90.02
718.255	90.41
718.439	90.14
718.622	89.96
718.806	90.34
718.99	89.81
719.174	89.54
719.357	90.03
719.541	90.28
719.724	89.87
719.908	90.78
720.092	91.28
720.275	91.75
720.459	91.77
720.642	91.79
720.826	91.23
721.009	90.79
721.193	90.32
721.376	90.76
721.559	91.23
721.743	91.91
721.926	92.39
722.11	92.65
722.293	91.94
722.476	91.52
722.66	91.43
722.843	91.33
723.026	91.29
723.21	91.94
723.393	92.88
723.576	92.6
723.759	92.23
723.942	92.21
724.126	92.18
724.309	91.4
724.492	91.65
724.675	91.78
724.858	92.73
725.041	93.03
725.224	93.62
725.407	94.4
725.59	94.94
725.774	94.15
725.957	93.66
726.14	92.98
726.322	92.7
726.505	92.13
726.688	93.32
726.871	93.18
727.054	93.87
727.237	93.71
727.42	94.48
727.603	93.89
727.786	94.2
727.968	94.17
728.151	94.28
728.334	94.1
728.517	93.92
728.699	94.69
728.882	94.88
729.065	95.8
729.248	96.6
729.43	97.36
729.613	98.05
729.796	98.73
729.978	97.65
730.161	97.56
730.343	96.7
730.526	96.73
730.708	95.76
730.891	96.51
731.073	96.08
731.256	96.28
731.438	96.03
731.621	97.04
731.803	96.57
731.986	96.7
732.168	96.22
732.35	96.71
732.533	96.31
732.715	97.12
732.898	97.71
733.08	97.92
733.262	97.92
733.444	97.76
733.627	97.69
733.809	97.87
733.991	99.1
734.173	97.92
734.355	98.01
734.538	98.37
734.72	97.69
734.902	97.52
735.084	98.32
735.266	98.63
735.448	99.08
735.63	99.09
735.812	99.38
735.994	99.95
736.176	100.24
736.358	99.09
736.54	100.26
736.722	99.69
736.904	98.98
737.086	98.77
737.268	99.71
737.45	99.73
737.632	100.22
737.814	100.63
737.995	100.84
738.177	100.46
738.359	99.57
738.541	99.84
738.723	99.99
738.904	100.67
739.086	101.03
739.268	101.19
739.449	101.35
739.631	100.75
739.813	100.5
739.994	100.63
740.176	101.42
740.358	100.95
740.539	102.17
740.721	102.06
740.902	102.65
741.084	101.93
741.265	101.65
741.447	102.05
741.628	102.45
741.81	101.1
741.991	101.77
742.172	102.85
742.354	102.66
742.535	101.99
742.717	103.18
742.898	103.14
743.079	103.34
743.261	102.72
743.442	102.91
743.623	103.42
743.804	103.42
743.986	102.99
744.167	101.29
744.348	100.73
744.529	99.99
744.71	99.06
744.891	99.02
745.073	100.44
745.254	99.27
745.435	98.56
745.616	98.23
745.797	98.43
745.978	97.09
746.159	97.95
746.34	97.75
746.521	100.66
746.702	99.12
746.883	99.27
747.064	99.49
747.245	99.45
747.426	97.67
747.606	99.01
747.787	100.22
747.968	101.32
748.149	101.53
748.33	101.54
748.51	100.9
748.691	100.69
748.872	100.99
749.053	100.87
749.233	100.53
749.414	99.92
749.595	98.12
749.775	96.18
749.956	95.57
750.137	95.08
750.317	96.47
750.498	99.79
750.678	100.46
750.859	102.09
751.04	102.97
751.22	101.64
751.4	99.49
751.581	98.43
751.761	98.22
751.942	98.01
752.122	97.58
752.303	97.5
752.483	98.5
752.663	97.32
752.844	96.31
753.024	98.41
753.204	99.5
753.385	99.72
753.565	101.24
753.745	101.91
753.925	100.1
754.106	98.16
754.286	97.05
754.466	96.52
754.646	97.32
754.826	97.44
755.006	98.35
755.187	100.82
755.367	101.08
755.547	100.68
755.727	102.04
755.907	101.65
756.087	99.46
756.267	98.1
756.447	97.75
756.627	95.79
756.807	96.38
756.987	96.57
757.167	97.44
757.346	96.92
757.526	96.5
757.706	97.04
757.886	98.35
758.066	98.72
758.246	101.37
758.425	101.13
758.605	99.26
758.785	98.02
758.965	97.59
759.144	93.94
759.324	94.95
759.504	95.58
759.683	95.07
759.863	93.35
760.043	93.33
760.222	93.73
760.402	93.51
760.581	94.37
760.761	97.09
760.94	95.75
761.12	97.89
761.299	99.27
761.479	98.85
761.658	95.06
761.838	96.27
762.017	94.45
762.197	94.31
762.376	94.29
762.555	97.55
762.735	99.94
762.914	97.24
763.093	97.01
763.273	95.93
763.452	95.22
763.631	93.36
763.81	94.35
763.99	93.65
764.169	94.31
764.348	91.58
764.527	91.55
764.706	94.39
764.885	95.68
765.064	93.42
765.243	95.92
765.423	96.37
765.602	94.32
765.781	92.06
765.96	93.19
766.139	92.04
766.318	92.9
766.497	91.02
766.676	92.44
766.854	95.04
767.033	94.55
767.212	93.35
767.391	94.1
767.57	94.82
767.749	92.69
767.928	95.37
768.106	94.36
768.285	92.95
768.464	91.79
768.643	90.55
768.821	89.11
769	90.63
769.179	91.65
769.357	90.23
769.536	91.23
769.715	91.06
769.893	91.89
770.072	91.85
770.25	92.49
770.429	92.46
770.607	92.15
770.786	90.41
770.964	92.67
771.143	92.86
771.321	94.8
771.5	95.01
771.678	93.54
771.857	91.38
772.035	89.93
772.213	86.93
772.392	85.78
772.57	88.52
772.748	89.16
772.927	88.25
773.105	89.39
773.283	89.86
773.461	90.17
773.64	90.63
773.818	92.23
773.996	92.26
774.174	91.93
774.352	88.37
774.531	84.61
774.709	85.88
774.887	85.04
775.065	84.2
775.243	86.06
775.421	88.75
775.599	90.33
775.777	88
775.955	89.29
776.133	85.99
776.311	84.56
776.489	80.8
776.667	84.22
776.844	83.81
777.022	84.55
777.2	84.31
777.378	85.68
777.556	83.92
777.734	86.49
777.911	90.71
778.089	91.53
778.267	90.31
778.445	89.51
778.622	87.44
778.8	85.55
778.978	86.65
779.155	87.31
779.333	87.55
779.511	86.08
779.688	88.56
779.866	84.43
780.043	82.16
780.221	85.9
780.398	83.85
780.576	84.15
780.753	86.92
780.931	87.08
781.108	85.39
781.286	87.58
781.463	83.05
781.64	81.9
781.818	83.71
781.995	83.21
782.172	84.04
782.35	86.02
782.527	88.9
782.704	86.28
782.882	86.61
783.059	84.88
783.236	86.1
783.413	86.66
783.59	88.49
783.768	85.61
783.945	87.9
784.122	87.38
784.299	85.26
784.476	85.71
784.653	85.48
784.83	82.34
785.007	79.63
785.184	81.65
785.361	79.8
785.538	84.5
785.715	88.33
785.892	89.51
786.069	87.56
786.246	88
786.423	86.89
786.6	82.58
786.776	82.33
786.953	80.76
787.13	82.86
787.307	80.75
787.484	80.12
787.66	76.85
787.837	78.18
788.014	76.26
788.191	76.03
788.367	74.03
788.544	77.87
788.721	78.64
788.897	83.26
789.074	87.53
789.25	89.75
789.427	91.82
789.603	90.49
789.78	87.28
789.956	80.42
790.133	80.53
790.309	78.39
790.486	82.51
790.662	79.99
790.839	82.85
791.015	84.94
791.192	82.11
791.368	82.18
791.544	81.56
791.721	81.93
791.897	82.79
792.073	80.46
792.249	71.9
792.426	76.18
792.602	76.96
792.778	72.58
792.954	74.63
793.13	80.73
793.307	71.96
793.483	67.04
793.659	69.44
793.835	73.22
794.011	67.43
794.187	69.94
794.363	68.56
794.539	74.67
794.715	72.06
794.891	73.81
795.067	74.06
795.243	80.47
795.419	74.22
795.595	74.8
795.771	78.29
795.947	78.94
796.122	75.04
796.298	78.85
796.474	78.99
796.65	77
796.826	75.26
797.001	78.2
797.177	73.16
797.353	75.8
797.529	74.34
797.704	76.17
797.88	73
798.056	73.11
798.231	69.85
798.407	78.73
798.582	78.85
798.758	86.79
798.934	90.97
799.109	89.1
799.285	82.31
799.46	87.58
799.636	84.35
799.811	82.9
799.986	90.52
800.162	91.7
800.337	92.63
800.513	86.05
800.688	82.82
800.863	89.14
801.039	85.3
801.214	77.83
801.389	87.04
801.565	88.01
801.74	70.54
801.915	77.4
802.09	81.2
802.265	78.34
802.441	74.91
802.616	75.5
802.791	73.28
802.966	70.88
803.141	65.54
803.316	66.29
803.491	74.16
803.666	75.56
803.841	69.76
804.016	71.23
804.191	71.68
804.366	64.14
804.541	58.3
804.716	60.39
804.891	56.77
805.066	61.72
805.241	64.45
805.416	68.54
805.591	69.88
805.765	72.05
805.94	75.47
806.115	75.99
806.29	68.35
806.464	70.67
806.639	71.19
806.814	65.75
806.989	59.18
807.163	70.48
807.338	77.47
807.512	78.76
807.687	69.26
807.862	79.97
808.036	78.75
808.211	76.55
808.385	79.49
808.56	95.86
808.734	100.88
808.909	93.38
809.083	85.34
809.258	95.36
809.432	89.02
809.606	75.18
809.781	77.04
809.955	79.68
810.13	77.14
810.304	66.39
810.478	62.04
810.652	65.01
810.827	63.94
811.001	55.3
811.175	55.25
811.349	58.74
811.524	55.54
811.698	50.14
811.872	50.98
812.046	70.3
812.22	81.96
812.394	80.61
812.568	91.59
812.742	96.62
812.916	80.35
813.09	68.58
813.264	66.81
813.438	65.12
813.612	58.72
813.786	56.34
813.96	63.81
814.134	65.19
814.308	75.86
814.482	88.09
814.656	88.44
814.83	90.16
815.003	93.07
815.177	75.27
815.351	62.09
815.525	62.72
815.698	57.23
815.872	51.71
816.046	55.42
816.219	60.6
816.393	74.94
816.567	71.41
816.74	69.37
816.914	67.53
817.088	73.57
817.261	62.02
817.435	66.74
817.608	70.76
817.782	67.17
817.955	62.92
818.129	52.26
818.302	53.4
818.475	63.4
818.649	68.73
818.822	56.45
818.996	79.19
819.169	81.56
819.342	66.06
819.516	72.51
819.689	77.72
819.862	61.62
820.035	52.84
820.209	53.69
820.382	49.99
820.555	57.09
820.728	50.19
820.901	44.9
821.075	39.09
821.248	42.73
821.421	22.25
821.594	22.38
821.767	55.13
821.94	68.67
822.113	46.07
822.286	54.74
822.459	70.54
822.632	54.59
822.805	49.98
822.978	53.7
823.151	47.96
823.324	24.37
823.496	10.46
823.669	13.2
823.842	12.05
824.015	6.13
824.188	15.85
824.361	17.8
824.533	7.55
824.706	30.99
824.879	34.68
825.051	46.36
825.224	48.67
825.397	55.55
825.569	41.02
825.742	42.55
825.915	50.85
826.087	61.02
826.26	48.33
826.432	55.95
826.605	60.04
826.777	47.87
826.95	48.31
827.122	48.31
827.295	40.11
827.467	49.06
827.64	16.38
827.812	10.51
827.984	16.39
828.157	8.19
828.329	-33.2
828.501	-18.75
828.674	11.41
828.846	3.67
829.018	39.53
829.19	18.1
829.363	61.07
829.535	58.49
829.707	57.79
829.879	25.26
830.051	37.83
830.223	9.45
830.395	-30.12
830.568	-29.22
830.74	-19.71
830.912	28.61
831.084	17.25
831.256	20.76
831.428	11.26
831.6	-0.68
831.772	-56.61
831.943	-51.1
832.115	-18.44
832.287	0.31
832.459	13.38
832.631	32.94
832.803	43.8
832.975	58.46
833.146	64.72
833.318	60.95
833.49	69.82
833.662	57.18
833.833	33.11
834.005	32.51
834.177	43.11
834.348	39.5
834.52	31.13
834.692	16.26
834.863	1.25
835.035	7.67
835.206	-63.22
835.378	-25.67
835.549	-11.15
835.721	-3.59
835.892	-6.16
836.064	25.89
836.235	6.41
836.407	23.75
836.578	7.76
836.749	5.44
836.921	-14.57
837.092	-44.6
837.264	-44.73
837.435	-50.22
837.606	-7.72
837.777	9.64
837.949	39.75
838.12	31.3
838.291	49.91
838.462	30.39
838.633	10.71
838.805	17.33
838.976	38.15
839.147	-20.15
839.318	-31.84
839.489	-59.77
839.66	-69.08
839.831	-34.4
840.002	-11.79
840.173	-23.76
840.344	60.86
840.515	81.09
840.686	-27.39
840.857	-44.79
841.028	-33.22
841.199	-71.14
841.369	-52.88
841.54	-48.33
841.711	-17.63
841.882	2.36
842.053	-2.26
842.223	-25.1
842.394	9.01
842.565	26.56
842.736	35.62
842.906	24.14
843.077	45.56
843.248	71.78
843.418	83.6
843.589	75.16
843.759	230.29
843.93	188.64
844.101	79.58
844.271	52.58
844.442	64.54
844.612	48.33
844.783	27.6
844.953	4.06
845.123	14.51
845.294	-14.6
845.464	-103.28
845.635	32.72
845.805	89.1
845.975	47.38
846.146	-1.6
846.316	-24.48
846.486	-10.99
846.656	14.17
846.827	5.06
846.997	22.24
847.167	62.02
847.337	27.67
847.507	-17.38
847.677	-2.04
847.848	35.2
848.018	36.73
848.188	51.18
848.358	46.16
848.528	29.58
848.698	-5.26
848.868	-85.79
849.038	-214.5
849.208	-85.47
849.378	-29.4
849.548	-4.57
849.718	1.2
849.887	27.99
850.057	-9.17
850.227	-28.57
850.397	-71.82
850.567	-177.01
850.737	-463.48
850.906	-927.5
851.076	-722.66
851.246	-215.71
851.415	38.4
851.585	24.41
851.755	-4.73
851.924	27.93
852.094	22.3
852.264	-40.04
852.433	-502.88
852.603	-35.89
852.772	-9.56
852.942	-32.63
853.111	-53.2
853.281	-23.65
853.45	-2.67
853.62	-48.66
853.789	-51.27
853.959	7.25
854.128	-18.2
854.297	-46.34
854.467	-56.23
854.636	-61.83
854.805	-12.34
854.975	-24.85
855.144	-101.37
855.313	-107.69
855.482	-219.71
855.652	-236.97
855.821	-184.3
855.99	10.67
856.159	18.43
856.328	3.92
856.497	-16.98
856.667	-8.68
856.836	-36.11
857.005	-45.36
857.174	-46.56
857.343	-29.14
857.512	11.13
857.681	-38.74
857.85	-97.17
858.019	-42.68
858.188	-43.6
858.356	-66.47
858.525	-102
858.694	-74.67
858.863	-198.75
859.032	-130.45
859.201	-169.1
859.369	-115.82
859.538	-72.98
859.707	-56
859.876	-43.12
860.044	-4.08
860.213	32.12
860.382	25.33
860.55	33.18
860.719	47.44
860.888	60.27
861.056	32.73
861.225	-2.29
861.393	28.91
861.562	-5
861.73	-127.34
861.899	-382.2
862.067	-1896.55
862.236	-84.83
862.404	-179.25
862.572	-87.2
862.741	-9.84
862.909	-29.53
863.078	-137.84
863.246	-87.25
863.414	-70.08
863.582	-25.07
863.751	-20
863.919	-5.24
864.087	11.7
864.255	-0.15
864.424	-307.57
864.592	-45.31
864.76	-108.95
864.928	-320
865.096	-157.01
865.264	-39.08
865.432	-786.36
865.6	158.5
865.768	-5.6
865.936	-49.76
866.104	-55.01
866.272	-118.44
866.44	-243.7
866.608	523.91
866.776	220.16
866.944	2653.49
867.112	-555.93
867.28	-268.87
867.448	-105.05
867.615	-46.21
867.783	-27.19
867.951	-25.18
868.119	5.66
868.286	-21.95
868.454	-86.39
868.622	-47.49
868.789	0.75
868.957	-1078.57
869.125	-1628.95
869.292	-157.99
869.46	-262.81
869.627	4.62
869.795	4.95
869.963	23.13
870.13	55.94
870.298	57.6
870.465	-57.06
870.632	-51.79
870.8	-12.79
870.967	-63.21
871.135	-128.15
871.302	-97.76
871.469	-160.84
871.637	-225.62
871.804	-131.89
871.971	-147.23
872.139	-473.49
872.306	-66.28
872.473	-95.16
872.64	-355.79
872.807	-126.95
872.975	30.49
873.142	-133.45
873.309	1518.92
873.476	47.95
873.643	118.38
873.81	53.21
873.977	72.33
874.144	93.3
874.311	-18.59
874.478	-124.75
874.645	-153.29
874.812	-88.13
874.979	-70.5
875.146	-68.21
875.313	-73.3
875.48	31.86
875.647	3.38
875.813	-17.81
875.98	4.79
876.147	-0.09
876.314	-81.07
876.481	997.52
876.647	-1325.84
876.814	578.76
876.981	-135.38
877.147	-82.27
877.314	-1.94
877.481	26.94
877.647	35.22
877.814	-2.5
877.98	-35.59
878.147	7.4
878.314	43.38
878.48	22.42
878.647	42.37
878.813	96.54
878.979	70.25
879.146	32.87
879.312	-0.1
879.479	-46.51
879.645	-143.83
879.811	-325.87
879.978	-854.96
880.144	-214.33
880.31	-118.56
880.477	-378.72
880.643	-445.07
880.809	-171.46
880.975	-150.77
881.142	-958.18
881.308	-108.01
881.474	-7.42
881.64	-38.06
881.806	-78.89
881.972	-7.87
882.138	15.72
882.304	1.44
882.47	-139.52
882.636	-465.57
882.802	-130.25
882.968	-16.46
883.134	3.54
883.3	24.49
883.466	43.55
883.632	56.6
883.798	16.12
883.964	-24.17
884.129	-12.92
884.295	-19.37
884.461	-23.09
884.627	-12.17
884.793	-21.42
884.958	-4.83
885.124	-69.9
885.29	-179.71
885.455	-333.98
885.621	-50.7
885.787	-140.62
885.952	-61.87
886.118	-63.44
886.283	-42.4
886.449	-138.47
886.614	-135.18
886.78	-218.46
886.945	744.26
887.111	-526.01
887.276	-341.48
887.442	-666.36
887.607	-344.34
887.773	-246.82
887.938	-211.75
888.103	-316.1
888.269	-153.01
888.434	-320
888.599	-121.8
888.764	2.15
888.93	58.95
889.095	16.8
889.26	-16.4
889.425	75.86
889.59	44.71
889.756	-23.75
889.921	-9.71
890.086	57.62
890.251	-0.89
890.416	-91.53
890.581	-1032.26
890.746	134.29
890.911	277.71
891.076	167.67
891.241	-408.21
891.406	8.72
891.571	-30.09
891.736	-205.5
891.901	-497.35
892.065	676.92
892.23	171.24
892.395	270.84
892.56	408.67
892.725	-403.91
892.889	-375.61
893.054	-125.24
893.219	-22.97
893.384	9.63
893.548	-51.41
893.713	-87.79
893.878	-30.37
