Data from Ofra_PS_T2_2A_2GT10_Reflection_1.txt Node
Date: Wed Jul 21 17:00:41 EDT 2021
User: Adam
Spectrometer: FLMT01687
Trigger mode: 0
Integration Time (sec): 1.100000E0
Scans to average: 2
Electric dark correction enabled: true
Nonlinearity correction enabled: false
Boxcar width: 2
XAxis mode: Wavelengths
Number of Pixels in Spectrum: 3648
>>>>>Begin Spectral Data<<<<<
179.494	494.8
179.716	528.47
179.937	454.13
180.158	374.12
180.38	391.56
180.601	-26.8
180.823	-25.45
181.044	-27.25
181.265	251.1
181.486	158.31
181.708	124.6
181.929	1003.06
182.15	-100.7
182.372	114.7
182.593	70.21
182.814	53.27
183.035	131.57
183.257	101.52
183.478	63.94
183.699	108.56
183.92	47.53
184.141	8.99
184.363	-35.14
184.584	29.99
184.805	31.47
185.026	81.49
185.247	87.82
185.468	80.3
185.689	73.64
185.91	70.07
186.132	40.85
186.353	37.86
186.574	61.01
186.795	80.73
187.016	76.44
187.237	73.22
187.458	82.7
187.679	52.96
187.9	31.08
188.121	32.3
188.342	65.34
188.563	107.35
188.784	163.76
189.005	159.74
189.226	186.78
189.447	147.2
189.667	59.95
189.888	-58.87
190.109	-373.38
190.33	-249.35
190.551	-360.62
190.772	-75.42
190.993	-46.42
191.214	-0.55
191.434	-0.38
191.655	48.65
191.876	72.02
192.097	16.87
192.318	-57.07
192.538	-75.51
192.759	-110.67
192.98	-3.96
193.201	45.98
193.421	71.66
193.642	76.18
193.863	94.98
194.083	66.55
194.304	37.53
194.525	21.19
194.745	2.65
194.966	-2.66
195.187	1.69
195.407	36.34
195.628	24.89
195.848	-21.61
196.069	12.43
196.29	32.64
196.51	-16.96
196.731	13.88
196.951	39.89
197.172	-2.51
197.392	-35.38
197.613	-29.41
197.833	-82.09
198.054	-67.67
198.274	-34.92
198.495	-44.14
198.715	-1.79
198.936	2.53
199.156	7.78
199.377	-68.2
199.597	-72.23
199.817	-101.44
200.038	-47.29
200.258	-90.53
200.479	1.27
200.699	65.81
200.919	95.55
201.14	59.3
201.36	37.69
201.58	46.88
201.801	53.94
202.021	15.98
202.241	19.08
202.461	21.82
202.682	-50
202.902	-119.22
203.122	-55.81
203.342	-41.73
203.563	-4.7
203.783	26.95
204.003	12.15
204.223	10.93
204.443	37.57
204.663	43.42
204.884	33.32
205.104	68
205.324	119.11
205.544	105.86
205.764	91.68
205.984	84.9
206.204	84.96
206.424	60.89
206.644	63.47
206.864	49.96
207.084	38.35
207.304	23.62
207.525	1.09
207.745	21.48
207.964	67.92
208.184	36.85
208.404	12.6
208.624	12.14
208.844	19.5
209.064	-190.67
209.284	-185.62
209.504	-47.75
209.724	18.26
209.944	14.2
210.164	59.11
210.384	63.41
210.604	51.37
210.823	15.98
211.043	9.42
211.263	-6.68
211.483	2.51
211.703	-26.13
211.922	-9.3
212.142	36.35
212.362	73.02
212.582	40.08
212.801	37.09
213.021	22.92
213.241	12.59
213.461	-11.91
213.68	-9.36
213.9	26.03
214.12	29.37
214.339	-26.57
214.559	-23.8
214.779	5.37
214.998	-13.2
215.218	-25.5
215.438	8.82
215.657	14.74
215.877	5.36
216.096	17.45
216.316	14.73
216.535	-0.2
216.755	5.72
216.974	-43.03
217.194	-68.3
217.413	-81.12
217.633	-54.48
217.852	-128.31
218.072	-24.08
218.291	-1.78
218.511	31.11
218.73	4.28
218.95	-8.56
219.169	-31.41
219.389	-62.94
219.608	-45.88
219.827	-32.05
220.047	-6.96
220.266	12.27
220.485	29.64
220.705	39.23
220.924	10.48
221.143	31.65
221.363	15.06
221.582	21.81
221.801	16.96
222.021	34.51
222.24	-17.95
222.459	11.96
222.678	-15.44
222.897	-89.64
223.117	-107.24
223.336	-76.34
223.555	-44.08
223.774	1.48
223.993	64.04
224.213	102.45
224.432	76.49
224.651	96.66
224.87	60.42
225.089	55.21
225.308	38.76
225.527	62.31
225.746	60.03
225.965	50.54
226.184	32.67
226.404	30.16
226.623	0.8
226.842	-5.89
227.061	9.42
227.28	20.9
227.499	22.57
227.718	34.85
227.936	36.77
228.155	64.06
228.374	71.7
228.593	70.12
228.812	71.98
229.031	63.96
229.25	11.78
229.469	-2.38
229.688	-10.77
229.907	24.49
230.125	22.41
230.344	34.89
230.563	37.65
230.782	59.04
231.001	-7.8
231.22	-1.59
231.438	23.39
231.657	32.76
231.876	2.09
232.095	50.39
232.313	63.78
232.532	62.57
232.751	33.21
232.969	28.65
233.188	-2.92
233.407	29.71
233.625	21.32
233.844	3.74
234.063	21.49
234.281	26.35
234.5	7.7
234.719	11.95
234.937	39.08
235.156	39.03
235.374	43.54
235.593	38.38
235.811	44.41
236.03	56.98
236.249	19.75
236.467	26.74
236.686	30.63
236.904	29.87
237.123	4.45
237.341	18.77
237.559	11.11
237.778	2
237.996	11.22
238.215	35.93
238.433	34.14
238.652	45.58
238.87	25.59
239.088	24.14
239.307	21.65
239.525	15.06
239.743	-20.59
239.962	-10.82
240.18	-32.59
240.398	-66.39
240.617	-61.87
240.835	-35.55
241.053	-6.24
241.271	39.25
241.49	41.59
241.708	17.46
241.926	16.62
242.144	-0.55
242.363	-53.3
242.581	-85.56
242.799	-26.19
243.017	5.45
243.235	-8.85
243.453	-4.72
243.672	9
243.89	3.23
244.108	-16.26
244.326	2.93
244.544	10.49
244.762	9.85
244.98	7.52
245.198	29.1
245.416	16.68
245.634	23.8
245.852	17.08
246.07	29.84
246.288	7.09
246.506	-9.33
246.724	3.56
246.942	20.61
247.16	43.34
247.378	56.3
247.596	70.29
247.814	61.54
248.032	23.54
248.25	16.27
248.468	10.34
248.685	7.97
248.903	32.78
249.121	40.27
249.339	7.83
249.557	3.62
249.775	8.11
249.992	-53.13
250.21	-39.52
250.428	-12.73
250.646	-37.98
250.863	-48.2
251.081	-26.47
251.299	-22.69
251.517	-5.86
251.734	14.69
251.952	16.68
252.17	19.71
252.387	28.57
252.605	6.46
252.823	-0.56
253.04	12.46
253.258	36.31
253.475	19.38
253.693	50.07
253.911	65.61
254.128	58.71
254.346	48.23
254.563	44.09
254.781	38.6
254.998	16.68
255.216	30.44
255.433	25.42
255.651	56.52
255.868	54.54
256.086	77.98
256.303	64.69
256.521	54.43
256.738	27.48
256.956	15.32
257.173	10.29
257.39	-13.55
257.608	-28.41
257.825	23.01
258.043	43.24
258.26	41.09
258.477	82.04
258.695	79.23
258.912	44.31
259.129	43.07
259.346	14.13
259.564	-25.35
259.781	6.11
259.998	27.87
260.216	39.98
260.433	70.74
260.65	70.82
260.867	51.11
261.084	24.47
261.302	11.9
261.519	-14.52
261.736	-35.98
261.953	-52.21
262.17	-5.16
262.387	-23.71
262.604	-47.8
262.822	-24.91
263.039	18.36
263.256	-29.85
263.473	4.52
263.69	25.83
263.907	30.91
264.124	21.18
264.341	29.58
264.558	9.01
264.775	20.17
264.992	30.14
265.209	34.34
265.426	42.78
265.643	54.53
265.86	57.13
266.077	57.24
266.294	50.8
266.51	30.54
266.727	26.15
266.944	34.59
267.161	12.23
267.378	18.11
267.595	44.75
267.812	13.1
268.028	-6.42
268.245	4.96
268.462	-17.64
268.679	-18.57
268.896	33.38
269.112	23.39
269.329	17.81
269.546	27.59
269.763	16.55
269.979	4.18
270.196	14.18
270.413	14.81
270.629	-4.61
270.846	-16.17
271.063	-32.57
271.279	-42.34
271.496	-48.5
271.712	0.24
271.929	17.21
272.146	24.53
272.362	27.32
272.579	62.69
272.795	37.09
273.012	48.12
273.228	48.94
273.445	43.13
273.661	7.61
273.878	-5.76
274.094	-15.43
274.311	-32.48
274.527	16.03
274.744	16.58
274.96	32.06
275.177	33.87
275.393	51.51
275.609	42.89
275.826	63.23
276.042	56.57
276.259	63.21
276.475	62.04
276.691	68.53
276.908	47.71
277.124	55
277.34	43.47
277.557	27.86
277.773	17.41
277.989	11.33
278.205	5.79
278.422	33.47
278.638	35.36
278.854	49.2
279.07	64.21
279.286	79.77
279.503	38.46
279.719	44.16
279.935	30.66
280.151	29.65
280.367	17.83
280.583	8.38
280.799	-1.83
281.016	-32.96
281.232	-15.8
281.448	-15.42
281.664	17.05
281.88	-8.48
282.096	26.84
282.312	30.08
282.528	32.83
282.744	29.45
282.96	38.52
283.176	10.08
283.392	18.93
283.608	3.51
283.824	-11.19
284.04	-1.31
284.256	10.09
284.471	0.86
284.687	4.69
284.903	25.05
285.119	54.82
285.335	41
285.551	48.01
285.767	26.65
285.982	37.1
286.198	-17.98
286.414	32.18
286.63	39.82
286.846	59.41
287.061	31.46
287.277	64.67
287.493	27.6
287.709	34.92
287.924	21.91
288.14	51.45
288.356	32.32
288.571	45.99
288.787	27.75
289.003	34.75
289.218	23.7
289.434	-1.06
289.65	20.3
289.865	30.6
290.081	44.24
290.296	60.81
290.512	65.39
290.727	31.63
290.943	15.41
291.159	9.59
291.374	-0.91
291.59	-20.68
291.805	1.17
292.021	12.49
292.236	9.31
292.451	22.74
292.667	33.89
292.882	32.69
293.098	26.5
293.313	17.22
293.529	-5.79
293.744	-3.95
293.959	-4.69
294.175	-1.25
294.39	21.51
294.605	33.48
294.821	41.2
295.036	48.77
295.251	51.37
295.467	39.84
295.682	36.42
295.897	27.92
296.112	15.91
296.328	15.43
296.543	-5.92
296.758	-4.41
296.973	20.94
297.188	47.19
297.404	22.71
297.619	8.47
297.834	-6.29
298.049	-25.66
298.264	-70.63
298.479	-2.08
298.694	8.74
298.909	21.25
299.125	17.61
299.34	20.79
299.555	-14.69
299.77	-5.97
299.985	-36.71
300.2	-70.96
300.415	-80.61
300.63	-51.8
300.845	-47.05
301.06	-41.24
301.275	-7.69
301.49	5.58
301.704	-6.95
301.919	-38.42
302.134	-39.68
302.349	-46.45
302.564	-87.97
302.779	-88.33
302.994	-38.01
303.209	-35.04
303.423	9.03
303.638	58.11
303.853	29.15
304.068	31.53
304.283	39.22
304.497	21
304.712	-8.28
304.927	-4.49
305.142	-3
305.356	-4.31
305.571	-0.62
305.786	0.86
306	8.37
306.215	8.03
306.43	5.9
306.644	41.81
306.859	63.31
307.074	47.73
307.288	14.14
307.503	8.21
307.717	-12.31
307.932	2.34
308.147	-2.95
308.361	27.48
308.576	10.26
308.79	-12.47
309.005	-26.01
309.219	-12.38
309.434	-40.19
309.648	-27.56
309.863	-10.36
310.077	-10.01
310.292	-16.38
310.506	9.19
310.72	33.33
310.935	33.75
311.149	30.02
311.364	45.52
311.578	51.78
311.792	29.5
312.007	37.07
312.221	21.44
312.435	18.04
312.649	-4.73
312.864	-18.93
313.078	-16.45
313.292	49.27
313.507	18.4
313.721	35.89
313.935	62.57
314.149	50.06
314.363	31.08
314.578	45.66
314.792	46.43
315.006	28.1
315.22	40.71
315.434	33.56
315.648	33.93
315.862	38.45
316.077	43.44
316.291	35.16
316.505	61.11
316.719	58.23
316.933	30.55
317.147	40.3
317.361	-9.91
317.575	-34.31
317.789	-51.82
318.003	-106.94
318.217	-110.66
318.431	-24.41
318.645	17.87
318.859	17.35
319.073	43.43
319.287	39.46
319.5	14.39
319.714	-24.94
319.928	-50.11
320.142	-76.98
320.356	-27.18
320.57	-0.48
320.784	2.85
320.997	14.02
321.211	6.44
321.425	-34.58
321.639	-37.26
321.853	9.23
322.066	17.7
322.28	26.44
322.494	18.31
322.707	17.35
322.921	-3.29
323.135	0.97
323.349	-2.61
323.562	-5.78
323.776	-8.19
323.989	-6.25
324.203	-18.39
324.417	-22.09
324.63	-22.53
324.844	-18.18
325.057	-6.04
325.271	7.79
325.485	27.11
325.698	53.29
325.912	60.31
326.125	33.01
326.339	39.23
326.552	29.62
326.766	12.35
326.979	14.94
327.193	40.93
327.406	25.48
327.619	23.91
327.833	38.5
328.046	12.38
328.26	-7.17
328.473	12.31
328.686	0.47
328.9	-5.07
329.113	32.45
329.326	25.37
329.54	18.36
329.753	-2.39
329.966	-13.88
330.179	-9.75
330.393	12.13
330.606	17.17
330.819	32.89
331.032	41.93
331.246	34.52
331.459	55.09
331.672	38.86
331.885	35.73
332.098	0.03
332.311	-7.77
332.525	-58.59
332.738	-32.46
332.951	-16.75
333.164	32.33
333.377	33.06
333.59	46.41
333.803	45.34
334.016	48.04
334.229	22.37
334.442	36.17
334.655	31.68
334.868	39.9
335.081	28.95
335.294	27.09
335.507	27
335.72	25.81
335.933	14.88
336.146	8.02
336.359	14.84
336.572	-26.81
336.785	-37.65
336.997	-34.18
337.21	-3.31
337.423	-8.16
337.636	10.23
337.849	31.1
338.062	27.41
338.274	18.08
338.487	14.49
338.7	12.92
338.913	-32.43
339.125	-49.78
339.338	-69
339.551	-36.43
339.763	-11.79
339.976	12.62
340.189	39.58
340.402	42.56
340.614	35.97
340.827	27.84
341.039	18.12
341.252	14.08
341.465	10.69
341.677	10.21
341.89	-14.23
342.102	13.75
342.315	0.97
342.527	-16.48
342.74	-0.37
342.952	28.89
343.165	28.59
343.377	43.3
343.59	47.92
343.802	44.21
344.015	46.93
344.227	46.93
344.44	38.51
344.652	32.42
344.864	18.56
345.077	23.78
345.289	27.71
345.502	29.32
345.714	24.13
345.926	37.19
346.139	36.78
346.351	39.46
346.563	45.66
346.775	55.56
346.988	39.05
347.2	21.84
347.412	-16.58
347.624	-27.39
347.837	-39.86
348.049	-10.18
348.261	10.9
348.473	22.2
348.685	22.59
348.897	17.14
349.11	-3.57
349.322	-14.49
349.534	14.04
349.746	11.2
349.958	4.04
350.17	16.72
350.382	33.96
350.594	15.64
350.806	17.97
351.018	33.04
351.23	25.05
351.442	-13.32
351.654	-18.52
351.866	-8.3
352.078	0.04
352.29	19.97
352.502	30.24
352.714	48.19
352.926	29.56
353.138	20.65
353.35	7.57
353.561	6.5
353.773	-17.2
353.985	2.85
354.197	-5.83
354.409	-10.89
354.621	-14.82
354.832	-1.46
355.044	-8.04
355.256	-2.46
355.468	17.57
355.679	25.7
355.891	34.19
356.103	26.97
356.314	39.98
356.526	30.3
356.738	20.8
356.949	12.81
357.161	18.87
357.373	16.14
357.584	16.78
357.796	16.47
358.008	14.64
358.219	29.77
358.431	18.9
358.642	20.28
358.854	17.78
359.065	9.84
359.277	-10.71
359.488	-15.22
359.7	-28.8
359.911	-38.22
360.123	-20.05
360.334	-39.54
360.546	-48.99
360.757	-44.73
360.969	-20.57
361.18	-35.02
361.391	-4.98
361.603	-12.37
361.814	4.99
362.025	-8.38
362.237	-1.34
362.448	15.94
362.659	26.19
362.871	18.82
363.082	26.1
363.293	24.05
363.504	10.75
363.716	4.32
363.927	1.63
364.138	-18.67
364.349	-28.11
364.56	-32.05
364.772	-27.49
364.983	-18.87
365.194	-11.7
365.405	9.11
365.616	27.81
365.827	41.17
366.038	30.72
366.25	31.59
366.461	-1.19
366.672	-1.51
366.883	-11.51
367.094	2.35
367.305	-4.46
367.516	0.6
367.727	-16.13
367.938	-11.82
368.149	-6.61
368.36	14.73
368.571	23.8
368.781	5.38
368.992	-8.27
369.203	-25.37
369.414	-52.37
369.625	-61.3
369.836	-43.25
370.047	-58.88
370.258	-41.72
370.468	-43.75
370.679	-47.78
370.89	-38.07
371.101	-18.95
371.312	-22.76
371.522	-6.98
371.733	1.39
371.944	3.77
372.155	-0.78
372.365	-3.08
372.576	-6.68
372.787	-12.4
372.997	-30.44
373.208	-19.26
373.419	11.01
373.629	-20.89
373.84	-24.67
374.05	-29.82
374.261	-13.32
374.472	-38.82
374.682	14.55
374.893	25.25
375.103	51.5
375.314	38.65
375.524	36.25
375.735	38.91
375.945	49.04
376.156	26.7
376.366	34.51
376.577	37.59
376.787	21.51
376.997	13.86
377.208	20.7
377.418	3.04
377.629	3.45
377.839	3.75
378.049	7.42
378.26	17.37
378.47	20.88
378.68	11.46
378.89	11.25
379.101	2.93
379.311	-18.63
379.521	-31.37
379.732	-10.86
379.942	-8.98
380.152	-19.33
380.362	9
380.572	14.25
380.783	23.74
380.993	20.82
381.203	30.16
381.413	25.69
381.623	26.31
381.833	20.61
382.043	18.08
382.253	16.19
382.463	10.64
382.674	0.22
382.884	-15.27
383.094	-12.52
383.304	-8.97
383.514	-1.37
383.724	15.19
383.934	10.02
384.144	5.45
384.353	0.83
384.563	-3.41
384.773	0.81
384.983	0.46
385.193	14.08
385.403	13.07
385.613	13.82
385.823	-0.69
386.033	8.71
386.242	0.22
386.452	2.07
386.662	-7.99
386.872	0.42
387.082	-7.07
387.291	-15.96
387.501	-20.04
387.711	-5.84
387.921	-6.47
388.13	1.52
388.34	15.49
388.55	8.28
388.759	5.13
388.969	8.71
389.179	1.69
389.388	-1.51
389.598	6.61
389.807	0.39
390.017	-6.8
390.227	-3.52
390.436	-6.46
390.646	-4.97
390.855	-1.22
391.065	-0.87
391.274	-1.47
391.484	-0.99
391.693	0.99
391.903	2.18
392.112	8.24
392.322	11.03
392.531	12.44
392.74	11.23
392.95	7.71
393.159	4.99
393.369	1.9
393.578	2.01
393.787	1.38
393.997	1.57
394.206	-1
394.415	-0.57
394.625	-0.7
394.834	-2.95
395.043	-1.39
395.252	1.63
395.462	4.09
395.671	4.94
395.88	6.04
396.089	7
396.298	4.82
396.508	3.86
396.717	2.79
396.926	2.93
397.135	1.92
397.344	2.41
397.553	2.79
397.762	4.42
397.971	4.81
398.181	5.45
398.39	5.11
398.599	4.64
398.808	4.2
399.017	4.26
399.226	5.01
399.435	5.89
399.644	5.81
399.853	5.35
400.062	5.3
400.27	4.75
400.479	4.63
400.688	4.11
400.897	4.12
401.106	3.78
401.315	3.34
401.524	3.23
401.733	3.58
401.941	4.01
402.15	4.22
402.359	4.35
402.568	4.62
402.777	5.04
402.985	4.58
403.194	4.61
403.403	4.86
403.612	4.59
403.82	4.19
404.029	4.39
404.238	4.15
404.446	4.05
404.655	3.85
404.864	3.96
405.072	3.71
405.281	3.94
405.489	3.74
405.698	3.78
405.906	3.63
406.115	3.65
406.324	3.47
406.532	3.64
406.741	3.73
406.949	3.8
407.158	3.74
407.366	3.78
407.574	3.57
407.783	3.56
407.991	3.38
408.2	3.5
408.408	3.35
408.617	3.28
408.825	3.11
409.033	3.22
409.242	3.25
409.45	3.45
409.658	3.52
409.867	3.68
410.075	3.58
410.283	3.46
410.491	3.31
410.7	3.28
410.908	3.24
411.116	3.48
411.324	3.4
411.533	3.3
411.741	3.39
411.949	3.3
412.157	3.12
412.365	3.33
412.573	3.5
412.781	3.51
412.99	3.42
413.198	3.53
413.406	3.45
413.614	3.41
413.822	3.21
414.03	3.32
414.238	3.11
414.446	3.14
414.654	3.07
414.862	3.15
415.07	3.15
415.278	3.36
415.486	3.1
415.694	3.15
415.902	3.11
416.109	3.06
416.317	3
416.525	2.97
416.733	2.85
416.941	3.07
417.149	3.06
417.357	3.02
417.564	3.23
417.772	3.47
417.98	3.41
418.188	3.38
418.395	3.35
418.603	3.36
418.811	3.11
419.019	2.92
419.226	3.09
419.434	3.22
419.642	3.02
419.849	3.16
420.057	3.2
420.265	3.11
420.472	2.81
420.68	2.91
420.887	2.7
421.095	2.82
421.302	2.76
421.51	2.93
421.717	2.93
421.925	3.16
422.132	3.1
422.34	2.88
422.547	2.97
422.755	2.92
422.962	2.7
423.17	2.49
423.377	2.65
423.585	2.66
423.792	2.63
423.999	2.75
424.207	2.83
424.414	2.98
424.621	2.94
424.829	2.93
425.036	2.95
425.243	3.04
425.451	2.81
425.658	2.64
425.865	2.72
426.072	2.67
426.28	2.84
426.487	2.84
426.694	2.88
426.901	2.75
427.108	2.69
427.315	2.51
427.523	2.78
427.73	2.74
427.937	2.84
428.144	2.8
428.351	2.75
428.558	2.71
428.765	2.65
428.972	2.53
429.179	2.61
429.386	2.89
429.593	2.6
429.8	2.58
430.007	2.74
430.214	2.82
430.421	2.51
430.628	2.52
430.835	2.43
431.042	2.55
431.249	2.65
431.456	2.86
431.662	2.96
431.869	3.18
432.076	3.11
432.283	2.99
432.49	2.84
432.697	2.82
432.903	2.64
433.11	2.65
433.317	2.65
433.524	2.89
433.73	2.9
433.937	3.14
434.144	3
434.35	2.96
434.557	2.75
434.764	2.77
434.97	2.63
435.177	2.76
435.384	2.81
435.59	2.95
435.797	3.17
436.003	3.28
436.21	3.28
436.416	3.24
436.623	3.17
436.829	3.11
437.036	3.12
437.242	3.16
437.449	3.12
437.655	3.12
437.862	3.11
438.068	3.1
438.275	3.21
438.481	3.5
438.687	3.61
438.894	3.53
439.1	3.49
439.307	3.53
439.513	3.42
439.719	3.3
439.926	3.38
440.132	3.4
440.338	3.23
440.544	3.3
440.751	3.37
440.957	3.44
441.163	3.34
441.369	3.4
441.575	3.28
441.782	3.22
441.988	3.11
442.194	3.13
442.4	3.17
442.606	3.45
442.812	3.52
443.018	3.66
443.224	3.83
443.431	3.89
443.637	3.67
443.843	3.56
444.049	3.52
444.255	3.42
444.461	3.43
444.667	3.48
444.873	3.59
445.079	3.57
445.284	3.67
445.49	3.48
445.696	3.3
445.902	3.21
446.108	3.15
446.314	3.08
446.52	3.21
446.726	3.47
446.931	3.56
447.137	3.57
447.343	3.6
447.549	3.47
447.755	3.33
447.96	3.35
448.166	3.39
448.372	3.31
448.578	3.42
448.783	3.37
448.989	3.44
449.195	3.6
449.4	3.71
449.606	3.71
449.812	3.74
450.017	3.78
450.223	3.62
450.428	3.49
450.634	3.59
450.84	3.77
451.045	3.67
451.251	3.62
451.456	3.94
451.662	3.93
451.867	3.82
452.073	3.81
452.278	3.94
452.483	3.85
452.689	3.81
452.894	3.86
453.1	3.89
453.305	3.76
453.51	3.74
453.716	3.64
453.921	3.68
454.127	3.63
454.332	3.58
454.537	3.51
454.742	3.54
454.948	3.51
455.153	3.6
455.358	3.77
455.563	3.96
455.769	4.09
455.974	4.06
456.179	3.95
456.384	3.89
456.589	3.75
456.795	3.51
457	3.5
457.205	3.7
457.41	3.69
457.615	3.66
457.82	3.78
458.025	3.72
458.23	3.56
458.435	3.53
458.64	3.43
458.845	3.51
459.05	3.54
459.255	3.58
459.46	3.61
459.665	3.74
459.87	3.79
460.075	3.75
460.28	3.86
460.485	3.91
460.69	3.89
460.895	3.7
461.099	3.74
461.304	3.8
461.509	3.83
461.714	3.78
461.919	4.05
462.123	3.95
462.328	3.84
462.533	3.76
462.738	3.84
462.942	3.68
463.147	3.8
463.352	3.85
463.556	3.88
463.761	3.88
463.966	3.89
464.17	3.85
464.375	3.78
464.58	3.79
464.784	3.73
464.989	3.71
465.193	3.78
465.398	3.83
465.602	4.01
465.807	4.01
466.011	4.1
466.216	4.11
466.42	4.07
466.625	4.04
466.829	4.17
467.034	4.18
467.238	4.3
467.443	4.34
467.647	4.23
467.851	4.28
468.056	4.31
468.26	4.21
468.464	4.27
468.669	4.36
468.873	4.41
469.077	4.44
469.282	4.53
469.486	4.44
469.69	4.37
469.894	4.27
470.099	4.2
470.303	4.27
470.507	4.28
470.711	4.27
470.915	4.32
471.119	4.32
471.324	4.27
471.528	4.3
471.732	4.41
471.936	4.36
472.14	4.38
472.344	4.35
472.548	4.4
472.752	4.48
472.956	4.68
473.16	4.71
473.364	4.68
473.568	4.64
473.772	4.61
473.976	4.52
474.18	4.51
474.384	4.6
474.588	4.55
474.792	4.47
474.995	4.57
475.199	4.64
475.403	4.67
475.607	4.73
475.811	4.75
476.015	4.68
476.218	4.71
476.422	4.64
476.626	4.75
476.83	4.81
477.033	4.81
477.237	4.73
477.441	4.76
477.644	4.74
477.848	4.78
478.052	4.78
478.255	4.84
478.459	4.86
478.663	4.95
478.866	4.93
479.07	4.94
479.273	5.05
479.477	5.05
479.681	5.03
479.884	4.95
480.088	4.92
480.291	4.93
480.495	4.91
480.698	4.92
480.901	4.97
481.105	5.13
481.308	5.09
481.512	5.09
481.715	5.16
481.919	5.26
482.122	5.21
482.325	5.21
482.529	5.26
482.732	5.21
482.935	5.16
483.138	5.12
483.342	5.2
483.545	5.26
483.748	5.31
483.952	5.32
484.155	5.54
484.358	5.51
484.561	5.5
484.764	5.47
484.967	5.59
485.171	5.54
485.374	5.51
485.577	5.6
485.78	5.61
485.983	5.58
486.186	5.46
486.389	5.44
486.592	5.43
486.795	5.48
486.998	5.39
487.201	5.45
487.404	5.52
487.607	5.53
487.81	5.5
488.013	5.61
488.216	5.65
488.419	5.61
488.622	5.52
488.825	5.48
489.028	5.4
489.231	5.4
489.433	5.38
489.636	5.35
489.839	5.39
490.042	5.4
490.245	5.36
490.447	5.42
490.65	5.48
490.853	5.46
491.056	5.52
491.258	5.55
491.461	5.6
491.664	5.66
491.866	5.66
492.069	5.72
492.272	5.66
492.474	5.7
492.677	5.64
492.879	5.73
493.082	5.74
493.285	5.84
493.487	5.76
493.69	5.76
493.892	5.67
494.095	5.65
494.297	5.62
494.5	5.68
494.702	5.76
494.905	5.81
495.107	5.8
495.309	5.8
495.512	5.81
495.714	5.77
495.917	5.84
496.119	5.82
496.321	5.92
496.524	5.96
496.726	5.99
496.928	6.02
497.13	6.08
497.333	6.02
497.535	6.05
497.737	6.09
497.939	6.07
498.142	6.07
498.344	6.06
498.546	6
498.748	6.01
498.95	6.15
499.152	6.15
499.355	6.21
499.557	6.33
499.759	6.42
499.961	6.32
500.163	6.37
500.365	6.35
500.567	6.36
500.769	6.29
500.971	6.32
501.173	6.32
501.375	6.4
501.577	6.35
501.779	6.34
501.981	6.35
502.183	6.35
502.385	6.33
502.587	6.31
502.788	6.34
502.99	6.38
503.192	6.49
503.394	6.48
503.596	6.56
503.798	6.68
503.999	6.69
504.201	6.64
504.403	6.7
504.605	6.73
504.806	6.66
505.008	6.66
505.21	6.75
505.411	6.79
505.613	6.82
505.815	6.83
506.016	6.95
506.218	6.96
506.42	6.88
506.621	6.91
506.823	6.98
507.024	6.9
507.226	6.88
507.427	6.98
507.629	7.04
507.83	7.08
508.032	7.12
508.233	7.22
508.435	7.28
508.636	7.26
508.838	7.25
509.039	7.27
509.24	7.3
509.442	7.24
509.643	7.22
509.845	7.27
510.046	7.36
510.247	7.37
510.448	7.4
510.65	7.51
510.851	7.64
511.052	7.6
511.254	7.58
511.455	7.73
511.656	7.75
511.857	7.72
512.058	7.74
512.26	7.79
512.461	7.75
512.662	7.79
512.863	7.74
513.064	7.78
513.265	7.84
513.466	7.95
513.667	7.94
513.868	7.96
514.069	8.01
514.27	8
514.471	7.96
514.672	7.93
514.873	7.94
515.074	7.98
515.275	7.93
515.476	7.93
515.677	8.03
515.878	8.14
516.079	8.13
516.28	8.21
516.481	8.31
516.682	8.34
516.882	8.32
517.083	8.35
517.284	8.35
517.485	8.31
517.686	8.3
517.886	8.3
518.087	8.35
518.288	8.4
518.488	8.39
518.689	8.42
518.89	8.4
519.091	8.42
519.291	8.45
519.492	8.48
519.692	8.54
519.893	8.63
520.094	8.6
520.294	8.58
520.495	8.59
520.695	8.58
520.896	8.62
521.096	8.73
521.297	8.86
521.497	8.91
521.698	8.93
521.898	8.91
522.099	8.9
522.299	8.91
522.499	8.9
522.7	8.92
522.9	8.92
523.101	9.04
523.301	9.05
523.501	9.1
523.702	9.1
523.902	9.2
524.102	9.19
524.302	9.17
524.503	9.28
524.703	9.33
524.903	9.29
525.103	9.27
525.304	9.38
525.504	9.37
525.704	9.43
525.904	9.44
526.104	9.43
526.304	9.39
526.504	9.41
526.705	9.45
526.905	9.56
527.105	9.62
527.305	9.59
527.505	9.55
527.705	9.54
527.905	9.54
528.105	9.5
528.305	9.51
528.505	9.62
528.705	9.7
528.905	9.63
529.105	9.66
529.304	9.75
529.504	9.79
529.704	9.76
529.904	9.87
530.104	9.94
530.304	9.97
530.503	9.92
530.703	9.85
530.903	9.8
531.103	9.87
531.303	9.86
531.502	9.84
531.702	9.98
531.902	10.03
532.101	9.99
532.301	10.05
532.501	10.12
532.7	10.09
532.9	10.14
533.1	10.19
533.299	10.19
533.499	10.22
533.698	10.22
533.898	10.2
534.097	10.17
534.297	10.22
534.496	10.22
534.696	10.3
534.895	10.4
535.095	10.5
535.294	10.49
535.494	10.48
535.693	10.51
535.892	10.48
536.092	10.44
536.291	10.44
536.491	10.62
536.69	10.66
536.889	10.68
537.088	10.69
537.288	10.77
537.487	10.73
537.686	10.73
537.886	10.8
538.085	10.82
538.284	10.92
538.483	10.92
538.682	11.06
538.882	11.08
539.081	11.19
539.28	11.15
539.479	11.15
539.678	11.09
539.877	11.13
540.076	11.16
540.275	11.2
540.474	11.27
540.673	11.35
540.872	11.39
541.071	11.49
541.27	11.55
541.469	11.6
541.668	11.65
541.867	11.72
542.066	11.74
542.265	11.77
542.464	11.76
542.663	11.74
542.862	11.75
543.06	11.76
543.259	11.81
543.458	11.86
543.657	11.95
543.856	11.98
544.054	11.95
544.253	12
544.452	12.1
544.651	12.15
544.849	12.18
545.048	12.33
545.247	12.34
545.445	12.41
545.644	12.47
545.843	12.49
546.041	12.57
546.24	12.69
546.438	12.79
546.637	12.82
546.836	13.03
547.034	13.01
547.233	13.04
547.431	12.99
547.63	13.05
547.828	13
548.027	13.08
548.225	13.1
548.423	13.2
548.622	13.23
548.82	13.31
549.019	13.39
549.217	13.46
549.415	13.53
549.614	13.71
549.812	13.71
550.01	13.79
550.209	13.87
550.407	13.97
550.605	13.96
550.803	14.1
551.002	14.12
551.2	14.2
551.398	14.22
551.596	14.39
551.794	14.41
551.993	14.51
552.191	14.59
552.389	14.77
552.587	14.75
552.785	14.87
552.983	14.99
553.181	15.12
553.379	15.17
553.577	15.3
553.775	15.39
553.973	15.44
554.171	15.51
554.369	15.52
554.567	15.55
554.765	15.65
554.963	15.72
555.161	15.78
555.359	15.9
555.557	16.06
555.755	16.21
555.952	16.36
556.15	16.39
556.348	16.45
556.546	16.56
556.744	16.51
556.941	16.56
557.139	16.7
557.337	16.77
557.535	16.76
557.732	16.91
557.93	16.98
558.128	17.04
558.325	17.14
558.523	17.24
558.721	17.34
558.918	17.44
559.116	17.53
559.313	17.63
559.511	17.82
559.708	17.88
559.906	17.9
560.104	18.02
560.301	18.15
560.498	18.2
560.696	18.27
560.893	18.43
561.091	18.5
561.288	18.64
561.486	18.72
561.683	18.74
561.88	18.85
562.078	19.01
562.275	19.06
562.473	19.18
562.67	19.42
562.867	19.48
563.064	19.49
563.262	19.51
563.459	19.59
563.656	19.69
563.853	19.76
564.051	19.81
564.248	19.94
564.445	20.01
564.642	20.05
564.839	20.22
565.036	20.44
565.234	20.67
565.431	20.81
565.628	20.91
565.825	20.98
566.022	21.05
566.219	21.04
566.416	21.04
566.613	21.16
566.81	21.22
567.007	21.21
567.204	21.23
567.401	21.22
567.598	21.3
567.795	21.34
567.991	21.45
568.188	21.58
568.385	21.83
568.582	21.87
568.779	22
568.976	22.06
569.172	22.2
569.369	22.19
569.566	22.24
569.763	22.32
569.96	22.36
570.156	22.3
570.353	22.32
570.55	22.39
570.746	22.38
570.943	22.44
571.14	22.54
571.336	22.6
571.533	22.67
571.729	22.72
571.926	22.76
572.123	22.81
572.319	22.88
572.516	22.78
572.712	22.8
572.909	22.87
573.105	22.91
573.302	22.9
573.498	23.05
573.695	23.08
573.891	23.13
574.087	23.06
574.284	23.12
574.48	23.11
574.677	23.12
574.873	23.08
575.069	23.22
575.266	23.24
575.462	23.13
575.658	23.24
575.854	23.4
576.051	23.37
576.247	23.39
576.443	23.49
576.639	23.42
576.835	23.31
577.032	23.28
577.228	23.37
577.424	23.39
577.62	23.39
577.816	23.42
578.012	23.47
578.208	23.27
578.404	23.3
578.6	23.31
578.796	23.27
578.993	23.29
579.189	23.27
579.384	23.19
579.58	23.08
579.776	23.14
579.972	23.1
580.168	23.15
580.364	23.21
580.56	23.24
580.756	23.18
580.952	23.22
581.148	23.19
581.343	23.24
581.539	23.29
581.735	23.28
581.931	23.26
582.127	23.29
582.322	23.25
582.518	23.18
582.714	23.22
582.909	23.16
583.105	23.14
583.301	23.1
583.496	23.2
583.692	23.14
583.888	23.14
584.083	23.15
584.279	23.18
584.474	23.17
584.67	23.18
584.866	23.16
585.061	23.01
585.257	22.98
585.452	22.85
585.648	22.81
585.843	22.85
586.039	22.98
586.234	22.92
586.429	22.89
586.625	22.96
586.82	22.93
587.015	22.95
587.211	22.91
587.406	23
587.601	22.98
587.797	22.97
587.992	22.98
588.187	23.13
588.383	23.07
588.578	23.07
588.773	23.03
588.968	22.94
589.163	22.97
589.359	22.98
589.554	23.03
589.749	23.03
589.944	23.24
590.139	23.18
590.334	23.23
590.529	23.15
590.724	23.26
590.919	23.25
591.114	23.22
591.309	23.43
591.504	23.5
591.699	23.47
591.894	23.44
592.089	23.49
592.284	23.36
592.479	23.41
592.674	23.44
592.869	23.55
593.064	23.66
593.259	23.77
593.454	23.9
593.648	23.97
593.843	23.89
594.038	23.85
594.233	23.73
594.428	23.79
594.622	23.83
594.817	23.99
595.012	24.08
595.206	24.2
595.401	24.22
595.596	24.19
595.79	24.23
595.985	24.32
596.18	24.41
596.374	24.54
596.569	24.66
596.763	24.72
596.958	24.73
597.153	24.79
597.347	24.7
597.542	24.91
597.736	24.88
597.931	24.98
598.125	25.03
598.319	25.1
598.514	24.93
598.708	25.04
598.903	25.03
599.097	25.12
599.291	25.15
599.486	25.23
599.68	25.26
599.874	25.46
600.069	25.35
600.263	25.37
600.457	25.41
600.651	25.46
600.846	25.32
601.04	25.44
601.234	25.52
601.428	25.59
601.622	25.57
601.817	25.62
602.011	25.68
602.205	25.67
602.399	25.68
602.593	25.67
602.787	25.75
602.981	25.74
603.175	25.81
603.369	25.7
603.563	25.75
603.757	25.75
603.951	25.78
604.145	25.8
604.339	25.9
604.533	25.85
604.727	25.83
604.921	25.74
605.115	25.71
605.309	25.78
605.502	25.77
605.696	25.77
605.89	25.79
606.084	25.75
606.278	25.6
606.471	25.56
606.665	25.48
606.859	25.38
607.053	25.27
607.246	25.34
607.44	25.27
607.634	25.17
607.827	25.13
608.021	25.04
608.214	24.9
608.408	24.81
608.602	24.88
608.795	24.84
608.989	24.81
609.182	24.84
609.376	24.89
609.569	24.67
609.763	24.53
609.956	24.38
610.15	24.18
610.343	24.11
610.537	24.07
610.73	24.13
610.923	24.13
611.117	24.13
611.31	24
611.504	23.98
611.697	23.88
611.89	23.85
612.083	23.71
612.277	23.7
612.47	23.59
612.663	23.51
612.856	23.46
613.05	23.47
613.243	23.37
613.436	23.25
613.629	23.22
613.822	23.13
614.015	23.07
614.209	22.94
614.402	23.05
614.595	22.97
614.788	22.87
614.981	22.75
615.174	22.74
615.367	22.56
615.56	22.48
615.753	22.39
615.946	22.33
616.139	22.33
616.332	22.43
616.525	22.41
616.718	22.46
616.911	22.5
617.103	22.45
617.296	22.27
617.489	22.15
617.682	22.02
617.875	21.98
618.067	21.94
618.26	21.89
618.453	21.88
618.646	21.88
618.838	21.87
619.031	21.81
619.224	21.76
619.417	21.77
619.609	21.76
619.802	21.69
619.994	21.67
620.187	21.69
620.38	21.69
620.572	21.69
620.765	21.74
620.957	21.69
621.15	21.55
621.342	21.48
621.535	21.45
621.727	21.35
621.92	21.3
622.112	21.32
622.305	21.38
622.497	21.21
622.69	21.2
622.882	21.11
623.074	21.22
623.267	21.17
623.459	21.19
623.651	21.04
623.844	21.07
624.036	21.03
624.228	20.93
624.42	20.99
624.613	21.17
624.805	21.18
624.997	21.1
625.189	21.08
625.381	21.08
625.574	20.92
625.766	20.86
625.958	20.82
626.15	20.86
626.342	20.81
626.534	20.83
626.726	20.86
626.918	20.92
627.11	20.82
627.302	20.8
627.494	20.75
627.686	20.75
627.878	20.65
628.07	20.67
628.262	20.62
628.454	20.65
628.646	20.6
628.838	20.6
629.029	20.52
629.221	20.56
629.413	20.44
629.605	20.33
629.797	20.28
629.989	20.29
630.18	20.15
630.372	20.16
630.564	20.15
630.755	20.08
630.947	20.07
631.139	20
631.33	19.9
631.522	19.95
631.714	19.98
631.905	19.92
632.097	19.98
632.289	20.01
632.48	19.95
632.672	19.83
632.863	19.74
633.055	19.64
633.246	19.61
633.438	19.5
633.629	19.5
633.821	19.54
634.012	19.49
634.203	19.38
634.395	19.38
634.586	19.38
634.777	19.31
634.969	19.35
635.16	19.38
635.351	19.34
635.543	19.34
635.734	19.31
635.925	19.21
636.117	19.23
636.308	19.26
636.499	19.2
636.69	19.11
636.881	19.08
637.073	19.04
637.264	18.98
637.455	19
637.646	19.12
637.837	19.13
638.028	19.09
638.219	19.06
638.41	19.01
638.601	18.88
638.792	18.9
638.983	18.83
639.174	18.76
639.365	18.66
639.556	18.62
639.747	18.47
639.938	18.43
640.129	18.4
640.32	18.37
640.511	18.37
640.701	18.55
640.892	18.54
641.083	18.59
641.274	18.65
641.465	18.63
641.655	18.36
641.846	18.32
642.037	18.25
642.228	18.12
642.418	18.08
642.609	18.15
642.8	18.19
642.99	18.05
643.181	18.06
643.372	18.02
643.562	17.96
643.753	17.79
643.943	17.76
644.134	17.62
644.324	17.56
644.515	17.5
644.705	17.58
644.896	17.62
645.086	17.73
645.277	17.65
645.467	17.57
645.658	17.52
645.848	17.51
646.038	17.35
646.229	17.36
646.419	17.37
646.61	17.3
646.8	17.22
646.99	17.33
647.18	17.29
647.371	17.21
647.561	17.07
647.751	17.06
647.941	16.93
648.132	16.87
648.322	16.94
648.512	17.05
648.702	17.06
648.892	16.99
649.082	16.93
649.272	16.69
649.462	16.48
649.653	16.31
649.843	16.35
650.033	16.43
650.223	16.52
650.413	16.54
650.603	16.65
650.793	16.57
650.983	16.46
651.172	16.41
651.362	16.51
651.552	16.46
651.742	16.38
651.932	16.35
652.122	16.44
652.312	16.33
652.502	16.22
652.691	16.23
652.881	16.15
653.071	15.95
653.261	15.8
653.45	15.64
653.64	15.55
653.83	15.47
654.019	15.42
654.209	15.4
654.399	15.34
654.588	15.2
654.778	15.1
654.968	15.01
655.157	14.84
655.347	14.86
655.536	14.78
655.726	14.7
655.915	14.62
656.105	14.64
656.294	14.46
656.484	14.35
656.673	14.22
656.863	14.14
657.052	13.95
657.241	13.76
657.431	13.59
657.62	13.45
657.809	13.09
657.999	12.94
658.188	12.78
658.377	12.67
658.567	12.53
658.756	12.48
658.945	12.32
659.134	12.17
659.324	12.04
659.513	11.96
659.702	11.85
659.891	11.73
660.08	11.61
660.269	11.53
660.458	11.31
660.648	11.14
660.837	10.98
661.026	10.91
661.215	10.67
661.404	10.49
661.593	10.4
661.782	10.25
661.971	10.12
662.16	10.07
662.349	10.01
662.538	9.8
662.726	9.71
662.915	9.54
663.104	9.41
663.293	9.32
663.482	9.33
663.671	9.22
663.86	9.11
664.048	8.98
664.237	8.92
664.426	8.76
664.615	8.77
664.803	8.7
664.992	8.53
665.181	8.38
665.369	8.24
665.558	8.05
665.747	7.95
665.935	8.01
666.124	7.98
666.312	8.01
666.501	7.93
666.69	7.91
666.878	7.82
667.067	7.68
667.255	7.69
667.444	7.82
667.632	7.76
667.82	7.86
668.009	7.92
668.197	7.75
668.386	7.64
668.574	7.75
668.762	7.59
668.951	7.49
669.139	7.53
669.327	7.36
669.516	7.29
669.704	7.15
669.892	7.22
670.08	7.24
670.269	7.19
670.457	7.03
670.645	6.96
670.833	6.95
671.021	6.9
671.21	7
671.398	7.17
671.586	7.26
671.774	7.16
671.962	7.13
672.15	7.18
672.338	7.03
672.526	7.1
672.714	7.08
672.902	7.18
673.09	7.18
673.278	7.41
673.466	7.48
673.654	7.71
673.842	7.67
674.03	7.73
674.218	7.62
674.405	7.61
674.593	7.45
674.781	7.58
674.969	7.61
675.157	7.73
675.344	7.82
675.532	8
675.72	8.08
675.908	8.04
676.095	8.06
676.283	8.03
676.471	8.16
676.658	8.1
676.846	8.23
677.033	8.26
677.221	8.39
677.409	8.23
677.596	8.3
677.784	8.32
677.971	8.33
678.159	8.38
678.346	8.45
678.534	8.54
678.721	8.84
678.909	8.9
679.096	8.93
679.283	9.17
679.471	9.29
679.658	9.23
679.846	9.5
680.033	9.69
680.22	9.77
680.408	9.74
680.595	9.85
680.782	9.68
680.969	9.73
681.157	9.81
681.344	10
681.531	10.03
681.718	10.27
681.905	10.52
682.093	10.77
682.28	10.99
682.467	11.18
682.654	11.24
682.841	11.3
683.028	11.37
683.215	11.45
683.402	11.65
683.589	12.04
683.776	12.27
683.963	12.42
684.15	12.62
684.337	12.81
684.524	12.89
684.711	13.13
684.898	13.28
685.085	13.6
685.271	13.99
685.458	14.3
685.645	14.52
685.832	14.9
686.019	15.1
686.205	15.18
686.392	15.4
686.579	15.68
686.766	15.97
686.952	16.37
687.139	16.85
687.326	17.1
687.512	17.45
687.699	17.9
687.886	18.22
688.072	18.48
688.259	19.14
688.445	19.63
688.632	19.77
688.818	20.39
689.005	20.97
689.191	21.27
689.378	21.83
689.564	22.51
689.751	22.74
689.937	23
690.124	23.47
690.31	23.77
690.496	24.16
690.683	24.76
690.869	25.42
691.055	25.85
691.242	26.49
691.428	27.15
691.614	27.51
691.8	28.09
691.987	28.76
692.173	29.19
692.359	29.65
692.545	30.44
692.731	30.91
692.918	31.6
693.104	32.23
693.29	32.92
693.476	33.43
693.662	34.14
693.848	34.5
694.034	35.06
694.22	35.47
694.406	36.17
694.592	36.84
694.778	37.53
694.964	38.1
695.15	38.63
695.336	39.06
695.522	39.74
695.708	40.25
695.894	40.82
696.08	41.58
696.265	42.12
696.451	42.46
696.637	43.26
696.823	43.7
697.009	44.12
697.194	44.56
697.38	44.84
697.566	45.19
697.751	45.77
697.937	46.52
698.123	47.07
698.308	48.03
698.494	48.57
698.68	48.92
698.865	49.38
699.051	50.19
699.236	50.54
699.422	50.92
699.607	51.64
699.793	52.03
699.978	52.27
700.164	52.59
700.349	53.22
700.535	53.57
700.72	53.75
700.906	54.37
701.091	54.77
701.276	55.41
701.462	55.96
701.647	56.91
701.832	57.18
702.018	57.43
702.203	57.25
702.388	57.4
702.573	57.63
702.759	58.5
702.944	59.01
703.129	59.45
703.314	60
703.499	59.87
703.684	59.39
703.87	60.36
704.055	61.09
704.24	61.38
704.425	62.17
704.61	62.93
704.795	62.77
704.98	62.78
705.165	62.98
705.35	63.16
705.535	63.31
705.72	63.67
705.905	64.33
706.09	64.87
706.275	65.15
706.459	65
706.644	65.02
706.829	65.08
707.014	64.87
707.199	65.29
707.384	65.88
707.568	66.12
707.753	66.47
707.938	67.01
708.123	67.02
708.307	67.2
708.492	67.39
708.677	67.35
708.861	67.3
709.046	67.46
709.231	68.24
709.415	68.57
709.6	68.85
709.784	69.17
709.969	69.4
710.153	69.19
710.338	69.34
710.522	69.68
710.707	69.93
710.891	69.88
711.076	70.05
711.26	69.84
711.445	70.1
711.629	70.06
711.813	70.54
711.998	70.88
712.182	71.1
712.366	71.08
712.551	72
712.735	72
712.919	71.47
713.103	72.01
713.288	71.7
713.472	70.96
713.656	71.6
713.84	71.96
714.024	71.88
714.208	72.35
714.393	73.17
714.577	73.22
714.761	73.42
714.945	73.51
715.129	73.51
715.313	73.71
715.497	73.53
715.681	74.36
715.865	74.57
716.049	74.76
716.233	74.62
716.417	74.89
716.601	74.34
716.785	74.44
716.968	74.64
717.152	74.55
717.336	74.23
717.52	74.31
717.704	74.14
717.888	74.39
718.071	74.46
718.255	75.1
718.439	75.2
718.622	75.57
718.806	75.71
718.99	75.63
719.174	75.32
719.357	75.51
719.541	75.89
719.724	75.83
719.908	76.42
720.092	76.98
720.275	77.33
720.459	76.78
720.642	76.69
720.826	76.25
721.009	75.59
721.193	74.89
721.376	75.45
721.559	75.83
721.743	76.11
721.926	76.74
722.11	77.43
722.293	76.57
722.476	76.36
722.66	76.45
722.843	76.3
723.026	75.59
723.21	76.32
723.393	76.8
723.576	76.67
723.759	76.38
723.942	76.83
724.126	76.78
724.309	76.85
724.492	77.11
724.675	77.41
724.858	77.7
725.041	78.12
725.224	77.76
725.407	77.75
725.59	78.01
725.774	77.87
725.957	77.3
726.14	77
726.322	77.28
726.505	77.44
726.688	78.09
726.871	78.26
727.054	78.81
727.237	78.39
727.42	78.26
727.603	77.91
727.786	77.93
727.968	78.07
728.151	78.45
728.334	78.54
728.517	78.4
728.699	78.75
728.882	78.46
729.065	78.67
729.248	78.18
729.43	78.48
729.613	79.12
729.796	79.58
729.978	79.01
730.161	79.64
730.343	79.34
730.526	79.59
730.708	79.64
730.891	80.19
731.073	79.82
731.256	80
731.438	79.99
731.621	80.13
731.803	80.06
731.986	79.9
732.168	79.5
732.35	79.34
732.533	79.19
732.715	80.12
732.898	80.76
733.08	80.95
733.262	81.14
733.444	80.66
733.627	80.1
733.809	80.13
733.991	81.08
734.173	80.35
734.355	80.61
734.538	80.58
734.72	80.17
734.902	80.13
735.084	80.28
735.266	80.48
735.448	80.45
735.63	80.99
735.812	81.36
735.994	82.28
736.176	82.49
736.358	82.2
736.54	83.06
736.722	82.52
736.904	81.58
737.086	81.64
737.268	82.5
737.45	81.76
737.632	81.74
737.814	81.51
737.995	81.98
738.177	81.48
738.359	81.15
738.541	81.62
738.723	82.42
738.904	82.83
739.086	83
739.268	82.99
739.449	82.95
739.631	82.41
739.813	82.57
739.994	82.58
740.176	82.92
740.358	82.52
740.539	83.36
740.721	82.69
740.902	83.38
741.084	82.94
741.265	82.36
741.447	82.82
741.628	82.78
741.81	81.77
741.991	83.07
742.172	84.71
742.354	84.67
742.535	84.59
742.717	84.48
742.898	84.75
743.079	84.55
743.261	84.06
743.442	83.64
743.623	84.84
743.804	84.43
743.986	83.94
744.167	82.41
744.348	81.9
744.529	81.62
744.71	80.42
744.891	80.78
745.073	82.08
745.254	81.87
745.435	80.98
745.616	81.69
745.797	82.13
745.978	81.23
746.159	83.06
746.34	83.27
746.521	84.99
746.702	83.22
746.883	83.77
747.064	82.95
747.245	83.84
747.426	82.71
747.606	83.81
747.787	84.73
747.968	84.76
748.149	84.91
748.33	85.39
748.51	85.28
748.691	84.46
748.872	84.37
749.053	83.97
749.233	82.4
749.414	81.26
749.595	80.67
749.775	79.86
749.956	79.27
750.137	80.11
750.317	82.35
750.498	83.66
750.678	84.96
750.859	85.75
751.04	85.49
751.22	83.55
751.4	82.82
751.581	82.3
751.761	81.64
751.942	81.91
752.122	82.01
752.303	81.87
752.483	82.16
752.663	82.52
752.844	81.85
753.024	83.31
753.204	84.66
753.385	83.94
753.565	83.83
753.745	83.87
753.925	83.8
754.106	82.1
754.286	82.37
754.466	82.29
754.646	83.19
754.826	81.72
755.006	81.36
755.187	82.24
755.367	83.04
755.547	82.09
755.727	82.88
755.907	84.33
756.087	84.91
756.267	85.35
756.447	85.51
756.627	84.6
756.807	84.11
756.987	82.04
757.167	80.53
757.346	80.56
757.526	79.4
757.706	79.22
757.886	81.32
758.066	82.09
758.246	83.72
758.425	85.72
758.605	86.08
758.785	84.65
758.965	84.01
759.144	81.58
759.324	82.03
759.504	82.38
759.683	81.43
759.863	81.13
760.043	81.64
760.222	80.89
760.402	80.15
760.581	81.26
760.761	81.93
760.94	80.42
761.12	80.86
761.299	81.56
761.479	81.37
761.658	79.98
761.838	79.74
762.017	79.05
762.197	78.21
762.376	78.37
762.555	80.85
762.735	83.13
762.914	83.93
763.093	83.73
763.273	83.12
763.452	81.15
763.631	80.07
763.81	79.39
763.99	80.02
764.169	80.13
764.348	78.84
764.527	77.87
764.706	78.87
764.885	79.12
765.064	78.68
765.243	81
765.423	83.52
765.602	81.75
765.781	79.98
765.96	78.97
766.139	76.82
766.318	77.46
766.497	76.88
766.676	78.72
766.854	81.18
767.033	82.49
767.212	80.94
767.391	82.88
767.57	83.81
767.749	83.39
767.928	84.13
768.106	83.08
768.285	80.7
768.464	78.34
768.643	77.85
768.821	76.99
769	79.66
769.179	81.35
769.357	80.71
769.536	79.76
769.715	80.09
769.893	80.79
770.072	80.12
770.25	81.99
770.429	83.36
770.607	82.1
770.786	80.48
770.964	82.09
771.143	81.04
771.321	81.49
771.5	83.57
771.678	81.43
771.857	78.25
772.035	77.82
772.213	76.28
772.392	74.67
772.57	75.68
772.748	77.9
772.927	78.22
773.105	78.84
773.283	78.43
773.461	78.63
773.64	78.32
773.818	78.95
773.996	79.26
774.174	79.84
774.352	78.25
774.531	75.62
774.709	77.6
774.887	76.01
775.065	77.07
775.243	78.35
775.421	79.8
775.599	78.52
775.777	76.14
775.955	73.67
776.133	71.54
776.311	71.43
776.489	68.79
776.667	70.91
776.844	70.95
777.022	71.44
777.2	71.86
777.378	72.92
777.556	74.12
777.734	77.51
777.911	82.74
778.089	82.78
778.267	83.08
778.445	81.09
778.622	79.33
778.8	76.17
778.978	77.4
779.155	76.16
779.333	77.79
779.511	78.44
779.688	80.07
779.866	77.55
780.043	75.1
780.221	74.47
780.398	71.9
780.576	71.68
780.753	74.37
780.931	76.79
781.108	76.41
781.286	78.02
781.463	74.56
781.64	72.37
781.818	72.94
781.995	72.95
782.172	73.46
782.35	76.48
782.527	78.31
782.704	76.65
782.882	78.64
783.059	75.37
783.236	75.51
783.413	75.54
783.59	75.26
783.768	72.52
783.945	77.03
784.122	76.33
784.299	75.88
784.476	77.11
784.653	76.42
784.83	73.77
785.007	71.5
785.184	70.84
785.361	71.77
785.538	77.49
785.715	79.93
785.892	81.35
786.069	84.37
786.246	86.2
786.423	85.06
786.6	82.56
786.776	82.38
786.953	79.78
787.13	79.86
787.307	77.41
787.484	76.6
787.66	76.16
787.837	77.9
788.014	73.94
788.191	74.2
788.367	76.92
788.544	78.05
788.721	75.61
788.897	77.32
789.074	77.39
789.25	74.51
789.427	76.63
789.603	78.05
789.78	81.01
789.956	79.25
790.133	81.17
790.309	79.38
790.486	79.42
790.662	77.04
790.839	80.12
791.015	77.09
791.192	74.69
791.368	74.41
791.544	72.14
791.721	74.19
791.897	75.81
792.073	75.44
792.249	70.78
792.426	74.37
792.602	72.98
792.778	74.88
792.954	72.25
793.13	75.45
793.307	68.59
793.483	64.01
793.659	61.39
793.835	69.1
794.011	65.43
794.187	68.17
794.363	66.7
794.539	68.1
794.715	57.96
794.891	59.96
795.067	60.33
795.243	64.25
795.419	66.83
795.595	71.41
795.771	70.93
795.947	69.67
796.122	64.69
796.298	64.18
796.474	63.38
796.65	62.46
796.826	61.71
797.001	62.27
797.177	59.62
797.353	63.92
797.529	66.49
797.704	65.85
797.88	68.69
798.056	70.7
798.231	67.38
798.407	71.29
798.582	78.11
798.758	79.06
798.934	81.25
799.109	82.08
799.285	75.53
799.46	70.61
799.636	72.72
799.811	70.75
799.986	73.67
800.162	76.67
800.337	79.69
800.513	73.22
800.688	71.21
800.863	73.95
801.039	66.19
801.214	62.39
801.389	67.07
801.565	69.73
801.74	60
801.915	71.78
802.09	76.52
802.265	77.02
802.441	68.84
802.616	69.51
802.791	66.63
802.966	63.39
803.141	63.68
803.316	64.49
803.491	70.8
803.666	74.32
803.841	73.18
804.016	71.77
804.191	73.81
804.366	68.21
804.541	67.09
804.716	68.44
804.891	63.42
805.066	67.04
805.241	65.45
805.416	57.84
805.591	53.66
805.765	54.31
805.94	56.42
806.115	62.53
806.29	62.09
806.464	69.64
806.639	73.4
806.814	64.93
806.989	60.89
807.163	73.81
807.338	70.82
807.512	67.49
807.687	62.88
807.862	68.95
808.036	67.37
808.211	75.51
808.385	84.22
808.56	93.94
808.734	103.03
808.909	94.15
809.083	86.32
809.258	81.41
809.432	81.74
809.606	62.77
809.781	63.35
809.955	67.16
810.13	65.9
810.304	57.4
810.478	54.99
810.652	63.67
810.827	63.67
811.001	61.3
811.175	68.41
811.349	69.85
811.524	59.26
811.698	48.89
811.872	55.13
812.046	61.65
812.22	67.61
812.394	70.79
812.568	74.65
812.742	68.86
812.916	62.88
813.09	53.09
813.264	52.13
813.438	52.42
813.612	55.73
813.786	50.4
813.96	63.13
814.134	61.94
814.308	70.71
814.482	67.4
814.656	68.63
814.83	70.03
815.003	75.35
815.177	65.36
815.351	66.75
815.525	65.67
815.698	57.1
815.872	53.39
816.046	49.31
816.219	50.3
816.393	61.42
816.567	64.82
816.74	62.94
816.914	74.9
817.088	83.22
817.261	79.86
817.435	75.12
817.608	71.74
817.782	67.63
817.955	58.48
818.129	49.21
818.302	62.02
818.475	77.07
818.649	76.23
818.822	72
818.996	90.71
819.169	93.99
819.342	71.6
819.516	78.02
819.689	75.68
819.862	64.73
820.035	50.43
820.209	53.55
820.382	53.23
820.555	62.57
820.728	56.48
820.901	63.38
821.075	64.25
821.248	61.91
821.421	45.87
821.594	50.04
821.767	64.07
821.94	75.75
822.113	55.61
822.286	60.7
822.459	63.21
822.632	63.18
822.805	52.45
822.978	65.83
823.151	73.91
823.324	66.1
823.496	31.4
823.669	29.95
823.842	39.72
824.015	24.61
824.188	22.3
824.361	48.76
824.533	49.29
824.706	43.95
824.879	46.27
825.051	57.15
825.224	49.52
825.397	44.65
825.569	44.88
825.742	47.35
825.915	51.29
826.087	58.87
826.26	55.26
826.432	53.88
826.605	54.34
826.777	47.16
826.95	46.77
827.122	36.01
827.295	39.76
827.467	48.01
827.64	29.15
827.812	18.1
827.984	26.51
828.157	15.74
828.329	-25.53
828.501	-8.98
828.674	30.38
828.846	33.25
829.018	47
829.19	35.83
829.363	54.01
829.535	42.21
829.707	53.18
829.879	35.6
830.051	58.28
830.223	51.2
830.395	27.27
830.568	5.62
830.74	11.08
830.912	38.32
831.084	24.76
831.256	33.77
831.428	37.04
831.6	42.28
831.772	3.66
831.943	-11.23
832.115	11.56
832.287	31.58
832.459	36.53
832.631	38.15
832.803	74.59
832.975	76.36
833.146	56.16
833.318	37.98
833.49	69.05
833.662	41.96
833.833	23.25
834.005	36.37
834.177	56.02
834.348	39.01
834.52	45.28
834.692	75.36
834.863	77.36
835.035	56.68
835.206	38.71
835.378	30.07
835.549	35.03
835.721	42.46
835.892	24.15
836.064	9.54
836.235	25.75
836.407	16.13
836.578	-28.91
836.749	-16.63
836.921	-7.99
837.092	-46.35
837.264	-36.76
837.435	-19.32
837.606	11.25
837.777	45.61
837.949	66.93
838.12	64.62
838.291	68.93
838.462	62.4
838.633	44.5
838.805	33.74
838.976	36.08
839.147	-16.63
839.318	-13.97
839.489	-67.14
839.66	-47.2
839.831	2.3
840.002	31.76
840.173	32.13
840.344	89.69
840.515	128.88
840.686	40.08
840.857	5.89
841.028	-0.43
841.199	-2.73
841.369	-23.29
841.54	-0.51
841.711	5.51
841.882	0.59
842.053	-10.6
842.223	-28.05
842.394	-19.2
842.565	14.92
842.736	35.53
842.906	43.2
843.077	64.3
843.248	110.32
843.418	71.78
843.589	50.89
843.759	104.11
843.93	46.24
844.101	4.08
844.271	32.63
844.442	39.14
844.612	52.52
844.783	36.72
844.953	16.64
845.123	20.47
845.294	17.31
845.464	-131.49
845.635	41.99
845.805	95.59
845.975	49.95
846.146	24.93
846.316	8.91
846.486	5.68
846.656	27.18
846.827	22.7
846.997	28.93
847.167	71.59
847.337	53.71
847.507	44.14
847.677	46.89
847.848	66.17
848.018	49.06
848.188	61.27
848.358	47.33
848.528	36.14
848.698	19.27
848.868	-63.24
849.038	-159.98
849.208	-24.07
849.378	33.18
849.548	19.27
849.718	47
849.887	59.21
850.057	35.52
850.227	4.04
850.397	3.18
850.567	-60.61
850.737	-97.61
850.906	-415.63
851.076	-316.02
851.246	-51.57
851.415	41.93
851.585	25.15
851.755	21.36
851.924	48.67
852.094	22.95
852.264	14.05
852.433	-334.13
852.603	-61.51
852.772	52.39
852.942	33.01
853.111	3.45
853.281	19.38
853.45	39.02
853.62	-35.86
853.789	-45.28
853.959	-8.49
854.128	-7.04
854.297	-28.82
854.467	-12.4
854.636	45.23
854.805	52.2
854.975	49.49
855.144	123.42
855.313	474.48
855.482	142.7
855.652	-7.22
855.821	36.77
855.99	60.73
856.159	30.72
856.328	37.76
856.497	29.16
856.667	35.11
856.836	38.61
857.005	19.2
857.174	-8.2
857.343	13.69
857.512	62.76
857.681	-4.52
857.85	-20.58
858.019	13.68
858.188	14.55
858.356	-22
858.525	-64.68
858.694	-35.02
858.863	-65.03
859.032	-96.45
859.201	-143.84
859.369	-34.31
859.538	-1.17
859.707	-7.31
859.876	14.95
860.044	66.88
860.213	67.18
860.382	56.44
860.55	73.19
860.719	89.56
860.888	75.84
861.056	51.31
861.225	36.89
861.393	70.49
861.562	82.13
861.73	57.52
861.899	152.62
862.067	1139.66
862.236	76.18
862.404	-31.84
862.572	-6.5
862.741	44.36
862.909	27.88
863.078	-13.78
863.246	11.1
863.414	40.23
863.582	9.56
863.751	4.49
863.919	12.24
864.087	54.47
864.255	54.29
864.424	-3.39
864.592	51.94
864.76	42.69
864.928	274
865.096	75.64
865.264	99.6
865.432	123.86
865.6	259.75
865.768	68.32
865.936	49.19
866.104	86.97
866.272	194.22
866.44	9.65
866.608	198.64
866.776	168.26
866.944	2419.77
867.112	-419.28
867.28	-152.78
867.448	-80.48
867.615	-9.29
867.783	38.83
867.951	11.92
868.119	42.71
868.286	39.95
868.454	-25.87
868.622	-6.32
868.789	10.34
868.957	46.43
869.125	-1261.84
869.292	-73.59
869.46	-160.16
869.627	-22.04
869.795	-4.68
869.963	24.1
870.13	47.67
870.298	74.64
870.465	56.99
870.632	8.31
870.8	27.42
870.967	-12.44
871.135	-86.45
871.302	-70.14
871.469	-54.98
871.637	-112.99
871.804	-61.82
871.971	-100.69
872.139	-361.16
872.306	-59.62
872.473	-50.59
872.64	-232.83
872.807	-131.33
872.975	32.55
873.142	-16.18
873.309	687.84
873.476	115.95
873.643	240.81
873.81	172.94
873.977	141.07
874.144	127.29
874.311	36.82
874.478	-74.15
874.645	-130.71
874.812	-68.92
874.979	-31.01
875.146	-6.27
875.313	20.1
875.48	80.79
875.647	30.01
875.813	7.6
875.98	5.56
876.147	-39.51
876.314	-70.57
876.481	654.13
876.647	-828.65
876.814	279.53
876.981	170.96
877.147	55.85
877.314	64.03
877.481	100.51
877.647	92.43
877.814	77.7
877.98	70.94
878.147	100.21
878.314	129.86
878.48	153.27
878.647	134.95
878.813	149.9
878.979	118.75
879.146	74.98
879.312	51.16
879.479	13.04
879.645	-100.11
879.811	-238.33
879.978	-505.73
880.144	-140.59
880.31	-26.6
880.477	-171.28
880.643	-151.94
880.809	-78.54
880.975	-45.66
881.142	-662.27
881.308	-38.57
881.474	-11.05
881.64	4.17
881.806	-4.76
881.972	15.54
882.138	33.1
882.304	-14.55
882.47	-174.93
882.636	-823.36
882.802	-227.23
882.968	-52.56
883.134	-15.42
883.3	15.22
883.466	51.09
883.632	84.82
883.798	48.87
883.964	74.81
884.129	79.49
884.295	109.61
884.461	56.15
884.627	45.92
884.793	27.1
884.958	13.54
885.124	-46.15
885.29	-152.36
885.455	-123.54
885.621	-39.84
885.787	-23.78
885.952	-11.15
886.118	-15.4
886.283	-10.85
886.449	-64.49
886.614	-54.02
886.78	-138.27
886.945	338.52
887.111	-381.21
887.276	-180.4
887.442	-635
887.607	-282.78
887.773	-143.15
887.938	-89.95
888.103	-94.58
888.269	9.19
888.434	130
888.599	16.47
888.764	45.21
888.93	26.53
889.095	10.33
889.26	-27.31
889.425	-12.2
889.59	29.11
889.756	8.12
889.921	34.37
890.086	54.5
890.251	46.13
890.416	-92.56
890.581	-976.61
890.746	234.46
890.911	339.81
891.076	162.31
891.241	-57.84
891.406	110.3
891.571	157.94
891.736	220.41
891.901	361.5
892.065	-155.49
892.23	86.71
892.395	170.74
892.56	307.66
892.725	-173.05
892.889	-86.59
893.054	41.8
893.219	95.49
893.384	136.02
893.548	104.64
893.713	82.14
893.878	78.27
