Data from Ofra_2a_PS_9CX6_Reflection_1.txt Node
Date: Tue Jul 20 09:59:06 EDT 2021
User: Adam
Spectrometer: FLMT01687
Trigger mode: 0
Integration Time (sec): 9.450000E-1
Scans to average: 3
Electric dark correction enabled: true
Nonlinearity correction enabled: false
Boxcar width: 3
XAxis mode: Wavelengths
Number of Pixels in Spectrum: 3648
>>>>>Begin Spectral Data<<<<<
179.494	1116.57
179.716	690.05
179.937	697.25
180.158	2773.83
180.38	-1209.59
180.601	-308.64
180.823	-162.53
181.044	-80.98
181.265	-193.42
181.486	-65.01
181.708	-1340.22
181.929	-66.63
182.15	-236.93
182.372	-37.09
182.593	-12.59
182.814	322.01
183.035	291.63
183.257	87.11
183.478	44.63
183.699	40.22
183.92	40.98
184.141	50.49
184.363	44.45
184.584	23.32
184.805	31.07
185.026	0.25
185.247	-12.07
185.468	-30.15
185.689	-29.89
185.91	-33.05
186.132	-21.55
186.353	-40.27
186.574	-12.29
186.795	-16.64
187.016	-7.37
187.237	-5.25
187.458	-5.98
187.679	-11.55
187.9	-1.44
188.121	-8.42
188.342	25.73
188.563	38.35
188.784	38.22
189.005	37.13
189.226	40.74
189.447	34.22
189.667	36.41
189.888	32.96
190.109	14.58
190.33	1.46
190.551	4.26
190.772	7.24
190.993	20.84
191.214	12.88
191.434	10.63
191.655	22.99
191.876	23.84
192.097	18.92
192.318	10.25
192.538	3.33
192.759	13.09
192.98	-0.77
193.201	-2.62
193.421	10.35
193.642	11.05
193.863	7.36
194.083	0.82
194.304	-7.1
194.525	32.09
194.745	9.61
194.966	6.35
195.187	19.19
195.407	17.58
195.628	19.46
195.848	16.66
196.069	-8.31
196.29	2.47
196.51	-12.51
196.731	-7.83
196.951	-14.58
197.172	-18.35
197.392	0.03
197.613	-4
197.833	-14.68
198.054	-13.56
198.274	-42.88
198.495	-41.55
198.715	-47.42
198.936	-72.16
199.156	-36.24
199.377	0.38
199.597	-1.14
199.817	3.72
200.038	8.85
200.258	1.03
200.479	1.66
200.699	-1.29
200.919	-31.68
201.14	-20.21
201.36	0.32
201.58	5.82
201.801	24.81
202.021	21
202.241	9.43
202.461	30.07
202.682	37.2
202.902	21.36
203.122	9.28
203.342	10.8
203.563	13.78
203.783	16.92
204.003	5.89
204.223	6.69
204.443	8.78
204.663	11.94
204.884	-1.98
205.104	6.51
205.324	17.45
205.544	25.54
205.764	19.52
205.984	30.7
206.204	31.25
206.424	34.09
206.644	24.84
206.864	18.96
207.084	27.59
207.304	25.37
207.525	14.29
207.745	25.6
207.964	22.71
208.184	5.45
208.404	0.37
208.624	-26.38
208.844	-29.53
209.064	-21.93
209.284	-20.8
209.504	-25.81
209.724	-21.99
209.944	-33.26
210.164	-10.05
210.384	-1.69
210.604	-18.79
210.823	-36.54
211.043	-35.88
211.263	-11.45
211.483	7.92
211.703	6.44
211.922	8.18
212.142	24.46
212.362	34.62
212.582	33.87
212.801	15.45
213.021	13.42
213.241	10.28
213.461	5.15
213.68	5.13
213.9	-4.96
214.12	-7.41
214.339	6.64
214.559	8.06
214.779	7.58
214.998	2
215.218	-3.05
215.438	14.37
215.657	16.16
215.877	13.08
216.096	14.7
216.316	13.16
216.535	23.82
216.755	12.97
216.974	11.74
217.194	8.8
217.413	29.67
217.633	16
217.852	13.11
218.072	-3.8
218.291	21.27
218.511	8.22
218.73	2.92
218.95	-13.19
219.169	-13.96
219.389	-14.66
219.608	9.39
219.827	-0.82
220.047	6.34
220.266	23.47
220.485	23.6
220.705	21.08
220.924	31.63
221.143	14.89
221.363	11.9
221.582	7.48
221.801	5.93
222.021	1.01
222.24	4.86
222.459	3.07
222.678	-3.87
222.897	-16.77
223.117	-16.11
223.336	-11.73
223.555	-20.72
223.774	-17.77
223.993	-14.38
224.213	-1.68
224.432	19.06
224.651	15.72
224.87	7.79
225.089	11.46
225.308	5.79
225.527	-0.89
225.746	-1.33
225.965	-23.49
226.184	-14.87
226.404	-22.07
226.623	-0.88
226.842	-4.89
227.061	-1.02
227.28	1.9
227.499	29.87
227.718	23.34
227.936	23.16
228.155	19.13
228.374	33.02
228.593	28.96
228.812	18.11
229.031	-3.71
229.25	11.39
229.469	25.31
229.688	18.55
229.907	-1.55
230.125	8.83
230.344	20.65
230.563	34.01
230.782	21.26
231.001	19.77
231.22	19.86
231.438	36.69
231.657	38.63
231.876	31.44
232.095	28.74
232.313	40.94
232.532	35.72
232.751	39.45
232.969	39.6
233.188	37.29
233.407	40.46
233.625	35.16
233.844	35.49
234.063	40.02
234.281	38.17
234.5	31.1
234.719	28.08
234.937	30.65
235.156	25.87
235.374	20.93
235.593	4
235.811	-7.2
236.03	-16.83
236.249	-6.39
236.467	3.05
236.686	16.31
236.904	-3.77
237.123	12.04
237.341	7.92
237.559	7.73
237.778	4.09
237.996	5.04
238.215	1.93
238.433	18.74
238.652	14.01
238.87	11.49
239.088	0.9
239.307	4.12
239.525	-13.01
239.743	-20.91
239.962	-33.79
240.18	-32.11
240.398	-18.63
240.617	1.04
240.835	0.37
241.053	11.32
241.271	20.29
241.49	15.6
241.708	6.18
241.926	-6.25
242.144	-16.89
242.363	-27.5
242.581	-19.58
242.799	-26.01
243.017	-8.25
243.235	-6.93
243.453	4.58
243.672	5.68
243.89	12.56
244.108	9.32
244.326	-2.2
244.544	-2.13
244.762	10.81
244.98	5.69
245.198	4.49
245.416	7.23
245.634	24.14
245.852	30.45
246.07	28.5
246.288	17.39
246.506	24.18
246.724	21.7
246.942	20.89
247.16	2.3
247.378	3.32
247.596	6.87
247.814	-3.03
248.032	-5.42
248.25	-1
248.468	6.87
248.685	7.13
248.903	-6.09
249.121	-11.9
249.339	8.47
249.557	13.46
249.775	-1.36
249.992	-8.75
250.21	-16.07
250.428	-3.74
250.646	4.66
250.863	-5.31
251.081	-12.96
251.299	7.86
251.517	11.48
251.734	19.35
251.952	19.65
252.17	-19.43
252.387	-6.09
252.605	-4
252.823	-18.56
253.04	-21
253.258	-18.74
253.475	-11.81
253.693	15.58
253.911	14.1
254.128	4.12
254.346	5.84
254.563	0.44
254.781	1.25
254.998	-0.68
255.216	-2.37
255.433	-8.93
255.651	-7
255.868	-0.23
256.086	-0.98
256.303	-0.61
256.521	-10.45
256.738	-18.65
256.956	-23.42
257.173	-15.85
257.39	-17.78
257.608	-8.96
257.825	-11.61
258.043	1.36
258.26	4.6
258.477	22.03
258.695	22.5
258.912	29.51
259.129	19.37
259.346	23.55
259.564	6.32
259.781	12.19
259.998	-2.64
260.216	7.8
260.433	3.47
260.65	15.69
260.867	-5.47
261.084	8.84
261.302	-4.2
261.519	-13.96
261.736	-27.45
261.953	-20.94
262.17	-25.76
262.387	-8.91
262.604	-26.6
262.822	-13.15
263.039	-4.54
263.256	1.71
263.473	-9.57
263.69	-12.3
263.907	-10.89
264.124	-7.3
264.341	-9.05
264.558	-9.9
264.775	-7.96
264.992	-6.39
265.209	0.02
265.426	-6.36
265.643	-0.76
265.86	-3.52
266.077	-0.45
266.294	-1.48
266.51	0.15
266.727	-4.18
266.944	-3.49
267.161	-4.96
267.378	3.78
267.595	-10.92
267.812	-16.12
268.028	-12.88
268.245	-7.51
268.462	-1.34
268.679	-6.88
268.896	-17.4
269.112	2.78
269.329	8.06
269.546	3.09
269.763	3.4
269.979	4.71
270.196	11.72
270.413	16.08
270.629	8.26
270.846	5.43
271.063	8.89
271.279	2.19
271.496	-12.51
271.712	-19.82
271.929	-15.2
272.146	-14.46
272.362	-30.45
272.579	-28.52
272.795	-25.65
273.012	-7.38
273.228	-5.36
273.445	-7.01
273.661	-9.86
273.878	7.58
274.094	10.6
274.311	8.33
274.527	5.74
274.744	7.97
274.96	9.71
275.177	21.5
275.393	19.22
275.609	16.44
275.826	21.06
276.042	31.75
276.259	30.68
276.475	21.75
276.691	17.92
276.908	15.03
277.124	19.96
277.34	11.26
277.557	3.61
277.773	-5.05
277.989	0.5
278.205	-10.94
278.422	-0.58
278.638	0.5
278.854	8.39
279.07	2.5
279.286	4.65
279.503	5.81
279.719	23.55
279.935	5.82
280.151	5.63
280.367	2.82
280.583	4.74
280.799	17.47
281.016	17.66
281.232	1.89
281.448	4.82
281.664	-2.28
281.88	5.7
282.096	4.91
282.312	-15.99
282.528	-40.64
282.744	-29.78
282.96	-17.73
283.176	-11.28
283.392	-9.81
283.608	-4.64
283.824	3.36
284.04	19.14
284.256	22.08
284.471	13.68
284.687	8.18
284.903	-3.61
285.119	-13.87
285.335	-11.72
285.551	-5.15
285.767	3.45
285.982	2.62
286.198	-2.43
286.414	16.06
286.63	27.8
286.846	21.22
287.061	20.93
287.277	16.94
287.493	15.86
287.709	24.36
287.924	27.78
288.14	29.61
288.356	47.32
288.571	38.73
288.787	34.2
289.003	41.79
289.218	36.6
289.434	26.67
289.65	25.95
289.865	24.79
290.081	23.08
290.296	24.51
290.512	23.66
290.727	32.32
290.943	26.38
291.159	14.72
291.374	11.65
291.59	3.18
291.805	-6.74
292.021	-11.54
292.236	-15.5
292.451	-6.63
292.667	-1.1
292.882	1.93
293.098	3.29
293.313	3.19
293.529	9.64
293.744	6.9
293.959	3.74
294.175	0.38
294.39	0.44
294.605	11.87
294.821	10.15
295.036	7.47
295.251	8.85
295.467	-1.32
295.682	-1.98
295.897	-7.14
296.112	-9.9
296.328	-2.61
296.543	-8.13
296.758	-11.57
296.973	-2.03
297.188	4.47
297.404	6.13
297.619	-5.99
297.834	-1.09
298.049	-2.2
298.264	0.09
298.479	-7.14
298.694	-9.47
298.909	-19.47
299.125	-4.77
299.34	-16.32
299.555	-3.33
299.77	-1.7
299.985	-7.29
300.2	-7.69
300.415	-0.4
300.63	-6.78
300.845	4.19
301.06	-5.61
301.275	-0.92
301.49	7.9
301.704	10.34
301.919	4.52
302.134	-4.44
302.349	-21.76
302.564	-29.54
302.779	-43.43
302.994	-44.69
303.209	-58.27
303.423	-41.12
303.638	-23.86
303.853	-2.87
304.068	6.55
304.283	8.01
304.497	2.3
304.712	14.79
304.927	7.93
305.142	2.5
305.356	-0.26
305.571	5.6
305.786	7.39
306	13.68
306.215	6.28
306.43	19.03
306.644	26.03
306.859	27.3
307.074	21.46
307.288	18.46
307.503	16.86
307.717	18.93
307.932	12.61
308.147	5.43
308.361	1.67
308.576	5.11
308.79	6.65
309.005	6.91
309.219	5.92
309.434	0.92
309.648	-3.59
309.863	3.76
310.077	-3.68
310.292	-0.41
310.506	14.81
310.72	20.01
310.935	24.25
311.149	32.37
311.364	28.91
311.578	29.51
311.792	24.35
312.007	13.17
312.221	8.39
312.435	6.67
312.649	0.34
312.864	-1.91
313.078	4.24
313.292	10.24
313.507	17.51
313.721	24.58
313.935	43.67
314.149	31.21
314.363	31.1
314.578	45.04
314.792	48.74
315.006	42.64
315.22	42.7
315.434	21.57
315.648	23.36
315.862	18.68
316.077	4.39
316.291	-0.59
316.505	2.94
316.719	-17.75
316.933	-1.71
317.147	-13.12
317.361	-3.13
317.575	-3.94
317.789	3.77
318.003	0.02
318.217	9.7
318.431	12.93
318.645	17.15
318.859	6.84
319.073	4.67
319.287	6.78
319.5	6.78
319.714	7.3
319.928	5.66
320.142	9.55
320.356	18.7
320.57	14.83
320.784	15.29
320.997	22.89
321.211	23.17
321.425	13.56
321.639	18.47
321.853	11.95
322.066	11.32
322.28	8.29
322.494	-5.71
322.707	-8.36
322.921	-5.7
323.135	-6.32
323.349	0.56
323.562	7.89
323.776	5.41
323.989	7.14
324.203	15.63
324.417	10.54
324.63	2.03
324.844	-2.14
325.057	-3.03
325.271	-14.31
325.485	-8.09
325.698	-14.44
325.912	2.96
326.125	10.3
326.339	9.58
326.552	20.61
326.766	30.62
326.979	29.98
327.193	34.36
327.406	28.85
327.619	10.07
327.833	4.22
328.046	-11.85
328.26	-17.39
328.473	-14.05
328.686	-13.69
328.9	-23.95
329.113	-4.35
329.326	11.21
329.54	12.13
329.753	11.43
329.966	9.43
330.179	10.39
330.393	17.26
330.606	16.21
330.819	18.95
331.032	29.83
331.246	35.38
331.459	35.97
331.672	32.43
331.885	29.72
332.098	32.33
332.311	19.83
332.525	13.78
332.738	9.39
332.951	9.52
333.164	3.39
333.377	-7.48
333.59	-6.26
333.803	-2.53
334.016	-18.32
334.229	-12.08
334.442	8.91
334.655	24.98
334.868	43.35
335.081	43.77
335.294	45.48
335.507	50.59
335.72	44.69
335.933	41.9
336.146	43.78
336.359	27.74
336.572	26.9
336.785	27.26
336.997	26.47
337.21	26.77
337.423	20.93
337.636	10.57
337.849	16.77
338.062	15.38
338.274	9.8
338.487	5.03
338.7	11.95
338.913	4.03
339.125	4.29
339.338	8.57
339.551	10.67
339.763	10.69
339.976	8.63
340.189	5.55
340.402	12.64
340.614	12.42
340.827	-1.77
341.039	1.3
341.252	7.8
341.465	4.7
341.677	-7.9
341.89	-9.39
342.102	-4.17
342.315	9.2
342.527	-5.59
342.74	-10.66
342.952	-3.93
343.165	5.49
343.377	3.85
343.59	1.76
343.802	10.34
344.015	17.23
344.227	7.88
344.44	12.15
344.652	12.16
344.864	17.72
345.077	16.16
345.289	-0.98
345.502	2.86
345.714	6.76
345.926	-0.24
346.139	1.62
346.351	-21.76
346.563	-10.96
346.775	-9.87
346.988	-19.47
347.2	-10.6
347.412	-2.04
347.624	0.28
347.837	10.35
348.049	9.2
348.261	11.97
348.473	12
348.685	13.86
348.897	3.28
349.11	0.94
349.322	-7.21
349.534	-16.51
349.746	-6.26
349.958	7.11
350.17	2.31
350.382	7.37
350.594	11.43
350.806	20.78
351.018	25.86
351.23	22.54
351.442	22.82
351.654	24.96
351.866	27.98
352.078	22.77
352.29	20.32
352.502	16.9
352.714	7.29
352.926	-1.14
353.138	2.65
353.35	-3.87
353.561	-8.52
353.773	0.14
353.985	2.74
354.197	0.57
354.409	9.28
354.621	4.53
354.832	0.47
355.044	12.1
355.256	5.78
355.468	-0.28
355.679	7.19
355.891	4.03
356.103	5.59
356.314	8.03
356.526	1.75
356.738	-4.39
356.949	0.46
357.161	5.36
357.373	8.68
357.584	14.64
357.796	16.04
358.008	21.94
358.219	30.81
358.431	25.78
358.642	18.41
358.854	5.56
359.065	0.62
359.277	-8.17
359.488	-21.19
359.7	-21.9
359.911	-17.35
360.123	-10.87
360.334	-1.86
360.546	-9.91
360.757	5.81
360.969	21.22
361.18	13.59
361.391	8.78
361.603	5.36
361.814	6.68
362.025	14.13
362.237	17.58
362.448	15.55
362.659	12.79
362.871	22.03
363.082	29.8
363.293	34.77
363.504	31.19
363.716	22.02
363.927	17.54
364.138	25.92
364.349	23.99
364.56	17.04
364.772	9.88
364.983	7.26
365.194	11.93
365.405	8.2
365.616	2.05
365.827	-0.3
366.038	12.67
366.25	7.96
366.461	16.56
366.672	9.95
366.883	11.73
367.094	13.17
367.305	13.92
367.516	0.22
367.727	3.84
367.938	1.48
368.149	-1.46
368.36	3.1
368.571	-0.51
368.781	0.74
368.992	3.83
369.203	6.33
369.414	3.67
369.625	6.19
369.836	3.94
370.047	8.25
370.258	0.86
370.468	-4.27
370.679	-12.33
370.89	-4.75
371.101	-7.96
371.312	-9.93
371.522	-7.29
371.733	-10.02
371.944	0.42
372.155	-7.44
372.365	-17.07
372.576	-14.08
372.787	-16.62
372.997	-17.38
373.208	-7.34
373.419	-16.6
373.629	-0.64
373.84	-1.17
374.05	1.88
374.261	-3.7
374.472	-10.35
374.682	-14.98
374.893	-17.68
375.103	-19.55
375.314	-16.22
375.524	-13.94
375.735	-5.1
375.945	-4.85
376.156	1.36
376.366	6.03
376.577	11.07
376.787	19.55
376.997	23.84
377.208	17.86
377.418	20.46
377.629	15.38
377.839	20.35
378.049	21.98
378.26	19.58
378.47	15
378.68	18.42
378.89	19.35
379.101	15.15
379.311	5.62
379.521	3.57
379.732	-8.27
379.942	-10.98
380.152	-5.22
380.362	-3.35
380.572	6.55
380.783	10.3
380.993	8.43
381.203	16.1
381.413	19.48
381.623	21.7
381.833	15.25
382.043	6.6
382.253	12.62
382.463	17.29
382.674	11.95
382.884	8.88
383.094	3.07
383.304	3.25
383.514	9.82
383.724	3.52
383.934	-4.72
384.144	-0.69
384.353	0.76
384.563	-0.48
384.773	2.8
384.983	2.9
385.193	7.28
385.403	12.29
385.613	7.84
385.823	6.43
386.033	6.28
386.242	4.72
386.452	1.77
386.662	-3.51
386.872	-6.55
387.082	-6.46
387.291	-2.1
387.501	-1.16
387.711	-1.85
387.921	-1.63
388.13	0.01
388.34	1.8
388.55	7.2
388.759	4.94
388.969	2.9
389.179	6.38
389.388	7.04
389.598	4.97
389.807	4.54
390.017	2.61
390.227	1.83
390.436	4.1
390.646	3.99
390.855	3.97
391.065	4.06
391.274	1.79
391.484	3.01
391.693	4.36
391.903	4.5
392.112	4.28
392.322	5.15
392.531	6.36
392.74	5.77
392.95	4.62
393.159	4.86
393.369	3.94
393.578	3.39
393.787	2.8
393.997	3.19
394.206	4.94
394.415	5.14
394.625	3.14
394.834	2.19
395.043	2.17
395.252	3.46
395.462	3.02
395.671	2.87
395.88	2.24
396.089	3.27
396.298	4.1
396.508	4.24
396.717	2.97
396.926	2.47
397.135	1.97
397.344	1.91
397.553	2.21
397.762	1.86
397.971	1.73
398.181	1.5
398.39	1.97
398.599	2.41
398.808	2.91
399.017	2.77
399.226	3.15
399.435	3.02
399.644	3.28
399.853	3.45
400.062	3.36
400.27	3.18
400.479	3.03
400.688	2.96
400.897	3.16
401.106	3.2
401.315	2.83
401.524	2.91
401.733	3.04
401.941	3.14
402.15	2.97
402.359	2.93
402.568	2.8
402.777	2.88
402.985	2.81
403.194	2.7
403.403	2.45
403.612	2.58
403.82	2.53
404.029	2.61
404.238	2.63
404.446	2.5
404.655	2.32
404.864	2.31
405.072	2.27
405.281	2.16
405.489	2.09
405.698	2.05
405.906	2.08
406.115	2.31
406.324	2.34
406.532	2.39
406.741	2.47
406.949	2.46
407.158	2.57
407.366	2.64
407.574	2.58
407.783	2.58
407.991	2.45
408.2	2.37
408.408	2.37
408.617	2.26
408.825	2.22
409.033	2.15
409.242	2.11
409.45	2.13
409.658	2.17
409.867	2.18
410.075	2.16
410.283	2.05
410.491	1.99
410.7	2.04
410.908	2.08
411.116	2.03
411.324	2.05
411.533	1.98
411.741	1.97
411.949	2.09
412.157	2.12
412.365	2.01
412.573	2.02
412.781	1.97
412.99	2.14
413.198	2.15
413.406	2.08
413.614	2.1
413.822	2.16
414.03	2.03
414.238	2.1
414.446	1.97
414.654	1.99
414.862	2.06
415.07	1.98
415.278	1.95
415.486	2.12
415.694	2.04
415.902	1.96
416.109	1.93
416.317	1.79
416.525	1.9
416.733	1.95
416.941	1.87
417.149	1.94
417.357	2.01
417.564	2.05
417.772	2.15
417.98	2.08
418.188	1.9
418.395	1.86
418.603	1.66
418.811	1.63
419.019	1.65
419.226	1.73
419.434	1.64
419.642	1.72
419.849	1.83
420.057	2
420.265	2.04
420.472	1.99
420.68	1.8
420.887	1.82
421.095	1.85
421.302	1.81
421.51	1.78
421.717	1.8
421.925	1.78
422.132	1.85
422.34	1.86
422.547	1.89
422.755	1.86
422.962	1.77
423.17	1.73
423.377	1.87
423.585	1.85
423.792	1.77
423.999	1.76
424.207	1.64
424.414	1.74
424.621	1.73
424.829	1.56
425.036	1.5
425.243	1.58
425.451	1.59
425.658	1.66
425.865	1.58
426.072	1.6
426.28	1.64
426.487	1.71
426.694	1.75
426.901	1.68
427.108	1.72
427.315	1.7
427.523	1.68
427.73	1.69
427.937	1.62
428.144	1.58
428.351	1.69
428.558	1.65
428.765	1.63
428.972	1.61
429.179	1.53
429.386	1.64
429.593	1.6
429.8	1.64
430.007	1.76
430.214	1.85
430.421	1.92
430.628	1.87
430.835	1.8
431.042	1.82
431.249	1.72
431.456	1.7
431.662	1.63
431.869	1.65
432.076	1.71
432.283	1.68
432.49	1.73
432.697	1.73
432.903	1.67
433.11	1.73
433.317	1.74
433.524	1.71
433.73	1.73
433.937	1.66
434.144	1.77
434.35	1.76
434.557	1.7
434.764	1.65
434.97	1.76
435.177	1.77
435.384	1.85
435.59	1.75
435.797	1.74
436.003	1.78
436.21	1.75
436.416	1.67
436.623	1.72
436.829	1.72
437.036	1.74
437.242	1.72
437.449	1.76
437.655	1.8
437.862	1.84
438.068	1.82
438.275	1.71
438.481	1.73
438.687	1.8
438.894	1.82
439.1	1.83
439.307	1.8
439.513	1.75
439.719	1.86
439.926	1.91
440.132	1.9
440.338	1.91
440.544	1.87
440.751	1.93
440.957	1.89
441.163	1.9
441.369	1.83
441.575	1.79
441.782	1.7
441.988	1.74
442.194	1.78
442.4	1.92
442.606	1.92
442.812	1.96
443.018	1.97
443.224	2.02
443.431	2.04
443.637	1.98
443.843	1.95
444.049	1.91
444.255	1.82
444.461	1.78
444.667	1.82
444.873	1.78
445.079	1.82
445.284	1.75
445.49	1.69
445.696	1.79
445.902	1.93
446.108	1.88
446.314	1.95
446.52	1.91
446.726	1.96
446.931	2.07
447.137	2.05
447.343	1.96
447.549	1.95
447.755	1.88
447.96	1.91
448.166	1.96
448.372	1.96
448.578	1.98
448.783	2
448.989	2.04
449.195	2.03
449.4	2.02
449.606	1.98
449.812	2.02
450.017	1.99
450.223	1.97
450.428	2.03
450.634	2.09
450.84	2.1
451.045	2.09
451.251	2.04
451.456	2.03
451.662	2.02
451.867	1.98
452.073	1.93
452.278	1.92
452.483	1.93
452.689	1.93
452.894	1.96
453.1	1.93
453.305	1.94
453.51	1.96
453.716	1.97
453.921	1.94
454.127	1.92
454.332	1.91
454.537	2.01
454.742	1.99
454.948	2.01
455.153	2.03
455.358	2.08
455.563	2.11
455.769	2.11
455.974	2.03
456.179	2.01
456.384	2.02
456.589	2.06
456.795	2.02
457	1.99
457.205	1.96
457.41	2.01
457.615	2.07
457.82	2.12
458.025	2.08
458.23	2.07
458.435	2.04
458.64	2.12
458.845	2.06
459.05	2.03
459.255	1.97
459.46	1.99
459.665	2.04
459.87	2.08
460.075	2.04
460.28	2.13
460.485	2.17
460.69	2.12
460.895	2.15
461.099	2.18
461.304	2.16
461.509	2.06
461.714	2.04
461.919	1.98
462.123	2.03
462.328	2
462.533	1.97
462.738	2.01
462.942	2.12
463.147	2.13
463.352	2.18
463.556	2.21
463.761	2.21
463.966	2.23
464.17	2.23
464.375	2.22
464.58	2.16
464.784	2.14
464.989	2.12
465.193	2.1
465.398	2.08
465.602	2.04
465.807	2.05
466.011	2.16
466.216	2.18
466.42	2.25
466.625	2.24
466.829	2.27
467.034	2.36
467.238	2.4
467.443	2.36
467.647	2.39
467.851	2.38
468.056	2.39
468.26	2.36
468.464	2.31
468.669	2.28
468.873	2.26
469.077	2.25
469.282	2.27
469.486	2.29
469.69	2.29
469.894	2.36
470.099	2.44
470.303	2.44
470.507	2.44
470.711	2.42
470.915	2.44
471.119	2.48
471.324	2.39
471.528	2.41
471.732	2.44
471.936	2.47
472.14	2.45
472.344	2.47
472.548	2.48
472.752	2.54
472.956	2.57
473.16	2.58
473.364	2.53
473.568	2.57
473.772	2.61
473.976	2.6
474.18	2.6
474.384	2.55
474.588	2.56
474.792	2.59
474.995	2.61
475.199	2.63
475.403	2.66
475.607	2.68
475.811	2.69
476.015	2.71
476.218	2.72
476.422	2.73
476.626	2.72
476.83	2.72
477.033	2.72
477.237	2.73
477.441	2.72
477.644	2.74
477.848	2.74
478.052	2.74
478.255	2.73
478.459	2.78
478.663	2.8
478.866	2.83
479.07	2.88
479.273	2.88
479.477	2.91
479.681	2.95
479.884	2.88
480.088	2.88
480.291	2.91
480.495	2.89
480.698	2.9
480.901	2.89
481.105	2.92
481.308	2.95
481.512	2.97
481.715	2.96
481.919	2.98
482.122	2.98
482.325	3
482.529	3.02
482.732	3.05
482.935	3.07
483.138	3.12
483.342	3.11
483.545	3.12
483.748	3.14
483.952	3.16
484.155	3.22
484.358	3.2
484.561	3.16
484.764	3.18
484.967	3.24
485.171	3.24
485.374	3.22
485.577	3.22
485.78	3.25
485.983	3.26
486.186	3.24
486.389	3.17
486.592	3.18
486.795	3.15
486.998	3.13
487.201	3.14
487.404	3.18
487.607	3.18
487.81	3.21
488.013	3.2
488.216	3.23
488.419	3.22
488.622	3.21
488.825	3.17
489.028	3.19
489.231	3.19
489.433	3.16
489.636	3.12
489.839	3.12
490.042	3.12
490.245	3.15
490.447	3.13
490.65	3.14
490.853	3.18
491.056	3.21
491.258	3.23
491.461	3.23
491.664	3.19
491.866	3.22
492.069	3.24
492.272	3.23
492.474	3.22
492.677	3.19
492.879	3.22
493.082	3.33
493.285	3.32
493.487	3.3
493.69	3.31
493.892	3.36
494.095	3.36
494.297	3.38
494.5	3.36
494.702	3.39
494.905	3.42
495.107	3.44
495.309	3.42
495.512	3.45
495.714	3.43
495.917	3.43
496.119	3.47
496.321	3.49
496.524	3.49
496.726	3.5
496.928	3.54
497.13	3.59
497.333	3.62
497.535	3.59
497.737	3.58
497.939	3.59
498.142	3.58
498.344	3.57
498.546	3.6
498.748	3.59
498.95	3.6
499.152	3.58
499.355	3.61
499.557	3.69
499.759	3.74
499.961	3.73
500.163	3.8
500.365	3.83
500.567	3.88
500.769	3.91
500.971	3.9
501.173	3.89
501.375	3.88
501.577	3.85
501.779	3.86
501.981	3.9
502.183	3.88
502.385	3.87
502.587	3.87
502.788	3.89
502.99	3.91
503.192	3.94
503.394	3.95
503.596	3.98
503.798	4.09
503.999	4.1
504.201	4.13
504.403	4.16
504.605	4.19
504.806	4.19
505.008	4.21
505.21	4.17
505.411	4.22
505.613	4.25
505.815	4.27
506.016	4.31
506.218	4.33
506.42	4.39
506.621	4.43
506.823	4.48
507.024	4.47
507.226	4.46
507.427	4.4
507.629	4.46
507.83	4.42
508.032	4.45
508.233	4.42
508.435	4.47
508.636	4.49
508.838	4.57
509.039	4.56
509.24	4.61
509.442	4.6
509.643	4.61
509.845	4.62
510.046	4.64
510.247	4.69
510.448	4.73
510.65	4.72
510.851	4.77
511.052	4.83
511.254	4.85
511.455	4.85
511.656	4.83
511.857	4.83
512.058	4.88
512.26	4.87
512.461	4.86
512.662	4.86
512.863	4.91
513.064	4.9
513.265	4.91
513.466	4.94
513.667	4.97
513.868	5
514.069	5.02
514.27	5.02
514.471	5.05
514.672	5.11
514.873	5.13
515.074	5.14
515.275	5.14
515.476	5.17
515.677	5.21
515.878	5.26
516.079	5.25
516.28	5.22
516.481	5.25
516.682	5.32
516.882	5.3
517.083	5.3
517.284	5.27
517.485	5.29
517.686	5.3
517.886	5.26
518.087	5.25
518.288	5.26
518.488	5.27
518.689	5.3
518.89	5.32
519.091	5.35
519.291	5.42
519.492	5.41
519.692	5.47
519.893	5.5
520.094	5.53
520.294	5.54
520.495	5.57
520.695	5.58
520.896	5.62
521.096	5.61
521.297	5.62
521.497	5.63
521.698	5.65
521.898	5.66
522.099	5.66
522.299	5.66
522.499	5.66
522.7	5.69
522.9	5.67
523.101	5.67
523.301	5.68
523.501	5.71
523.702	5.71
523.902	5.73
524.102	5.75
524.302	5.76
524.503	5.79
524.703	5.83
524.903	5.82
525.103	5.86
525.304	5.89
525.504	5.88
525.704	5.93
525.904	5.92
526.104	5.94
526.304	6
526.504	6.02
526.705	6.03
526.905	6.06
527.105	6.07
527.305	6.07
527.505	6.11
527.705	6.06
527.905	6.01
528.105	6.01
528.305	6
528.505	6.03
528.705	6.06
528.905	6.05
529.105	6.11
529.304	6.16
529.504	6.18
529.704	6.22
529.904	6.22
530.104	6.24
530.304	6.26
530.503	6.24
530.703	6.26
530.903	6.28
531.103	6.28
531.303	6.3
531.502	6.3
531.702	6.33
531.902	6.37
532.101	6.4
532.301	6.4
532.501	6.42
532.7	6.43
532.9	6.45
533.1	6.45
533.299	6.49
533.499	6.49
533.698	6.52
533.898	6.53
534.097	6.56
534.297	6.61
534.496	6.63
534.696	6.64
534.895	6.71
535.095	6.74
535.294	6.75
535.494	6.78
535.693	6.82
535.892	6.82
536.092	6.83
536.291	6.83
536.491	6.83
536.69	6.87
536.889	6.89
537.088	6.9
537.288	6.99
537.487	7.04
537.686	7.05
537.886	7.08
538.085	7.13
538.284	7.16
538.483	7.17
538.682	7.19
538.882	7.2
539.081	7.24
539.28	7.26
539.479	7.27
539.678	7.32
539.877	7.35
540.076	7.38
540.275	7.4
540.474	7.42
540.673	7.48
540.872	7.54
541.071	7.57
541.27	7.62
541.469	7.67
541.668	7.75
541.867	7.83
542.066	7.86
542.265	7.9
542.464	7.93
542.663	8
542.862	8.03
543.06	8.09
543.259	8.08
543.458	8.13
543.657	8.17
543.856	8.19
544.054	8.22
544.253	8.22
544.452	8.2
544.651	8.29
544.849	8.34
545.048	8.35
545.247	8.4
545.445	8.4
545.644	8.46
545.843	8.55
546.041	8.61
546.24	8.68
546.438	8.77
546.637	8.83
546.836	8.89
547.034	8.94
547.233	9.02
547.431	9.04
547.63	9.11
547.828	9.16
548.027	9.19
548.225	9.27
548.423	9.36
548.622	9.38
548.82	9.45
549.019	9.45
549.217	9.52
549.415	9.64
549.614	9.7
549.812	9.76
550.01	9.85
550.209	9.96
550.407	10.07
550.605	10.14
550.803	10.19
551.002	10.26
551.2	10.37
551.398	10.38
551.596	10.43
551.794	10.49
551.993	10.52
552.191	10.62
552.389	10.72
552.587	10.75
552.785	10.89
552.983	10.97
553.181	10.99
553.379	11.11
553.577	11.23
553.775	11.3
553.973	11.43
554.171	11.5
554.369	11.57
554.567	11.67
554.765	11.73
554.963	11.76
555.161	11.81
555.359	11.85
555.557	11.98
555.755	12.09
555.952	12.24
556.15	12.35
556.348	12.5
556.546	12.58
556.744	12.73
556.941	12.81
557.139	12.92
557.337	12.96
557.535	13.06
557.732	13.16
557.93	13.28
558.128	13.34
558.325	13.41
558.523	13.51
558.721	13.68
558.918	13.75
559.116	13.81
559.313	13.96
559.511	14.05
559.708	14.17
559.906	14.27
560.104	14.38
560.301	14.5
560.498	14.62
560.696	14.68
560.893	14.84
561.091	14.93
561.288	15.02
561.486	15.08
561.683	15.21
561.88	15.31
562.078	15.38
562.275	15.49
562.473	15.61
562.67	15.71
562.867	15.84
563.064	15.93
563.262	16.06
563.459	16.23
563.656	16.34
563.853	16.43
564.051	16.56
564.248	16.68
564.445	16.77
564.642	16.87
564.839	17
565.036	17.12
565.234	17.26
565.431	17.37
565.628	17.46
565.825	17.61
566.022	17.68
566.219	17.72
566.416	17.84
566.613	17.9
566.81	17.96
567.007	18.06
567.204	18.11
567.401	18.19
567.598	18.29
567.795	18.35
567.991	18.43
568.188	18.52
568.385	18.6
568.582	18.73
568.779	18.85
568.976	18.96
569.172	19.04
569.369	19.07
569.566	19.14
569.763	19.2
569.96	19.22
570.156	19.22
570.353	19.26
570.55	19.3
570.746	19.37
570.943	19.47
571.14	19.54
571.336	19.59
571.533	19.68
571.729	19.75
571.926	19.8
572.123	19.86
572.319	19.9
572.516	19.9
572.712	19.96
572.909	20.01
573.105	20.05
573.302	20.04
573.498	20.06
573.695	20.07
573.891	20.12
574.087	20.11
574.284	20.12
574.48	20.09
574.677	20.19
574.873	20.23
575.069	20.3
575.266	20.35
575.462	20.42
575.658	20.48
575.854	20.51
576.051	20.46
576.247	20.47
576.443	20.45
576.639	20.42
576.835	20.41
577.032	20.39
577.228	20.47
577.424	20.53
577.62	20.55
577.816	20.56
578.012	20.6
578.208	20.62
578.404	20.68
578.6	20.66
578.796	20.66
578.993	20.69
579.189	20.68
579.384	20.64
579.58	20.63
579.776	20.56
579.972	20.5
580.168	20.47
580.364	20.43
580.56	20.46
580.756	20.44
580.952	20.4
581.148	20.43
581.343	20.46
581.539	20.44
581.735	20.42
581.931	20.37
582.127	20.4
582.322	20.43
582.518	20.38
582.714	20.35
582.909	20.36
583.105	20.34
583.301	20.32
583.496	20.24
583.692	20.16
583.888	20.17
584.083	20.18
584.279	20.23
584.474	20.22
584.67	20.25
584.866	20.32
585.061	20.34
585.257	20.32
585.452	20.28
585.648	20.19
585.843	20.17
586.039	20.11
586.234	20.05
586.429	20.02
586.625	20.01
586.82	19.97
587.015	19.95
587.211	19.98
587.406	20.07
587.601	20.11
587.797	20.12
587.992	20.12
588.187	20.24
588.383	20.28
588.578	20.22
588.773	20.19
588.968	20.24
589.163	20.34
589.359	20.37
589.554	20.34
589.749	20.38
589.944	20.42
590.139	20.46
590.334	20.43
590.529	20.44
590.724	20.43
590.919	20.52
591.114	20.57
591.309	20.65
591.504	20.67
591.699	20.73
591.894	20.72
592.089	20.82
592.284	20.79
592.479	20.78
592.674	20.76
592.869	20.83
593.064	20.92
593.259	20.96
593.454	20.96
593.648	21.03
593.843	21.09
594.038	21.17
594.233	21.27
594.428	21.33
594.622	21.43
594.817	21.53
595.012	21.58
595.206	21.71
595.401	21.77
595.596	21.84
595.79	21.88
595.985	21.93
596.18	22.01
596.374	22.11
596.569	22.16
596.763	22.27
596.958	22.31
597.153	22.41
597.347	22.47
597.542	22.57
597.736	22.67
597.931	22.75
598.125	22.84
598.319	22.89
598.514	22.91
598.708	23.03
598.903	23.09
599.097	23.11
599.291	23.15
599.486	23.18
599.68	23.19
599.874	23.31
600.069	23.36
600.263	23.34
600.457	23.43
600.651	23.47
600.846	23.57
601.04	23.66
601.234	23.72
601.428	23.73
601.622	23.77
601.817	23.78
602.011	23.87
602.205	23.89
602.399	23.9
602.593	23.87
602.787	23.91
602.981	23.98
603.175	23.97
603.369	23.95
603.563	23.95
603.757	23.93
603.951	23.88
604.145	23.87
604.339	23.85
604.533	23.85
604.727	23.81
604.921	23.69
605.115	23.71
605.309	23.76
605.502	23.74
605.696	23.69
605.89	23.7
606.084	23.69
606.278	23.7
606.471	23.63
606.665	23.53
606.859	23.42
607.053	23.33
607.246	23.27
607.44	23.19
607.634	23.15
607.827	23.05
608.021	23.02
608.214	22.98
608.408	22.94
608.602	22.85
608.795	22.78
608.989	22.73
609.182	22.77
609.376	22.68
609.569	22.61
609.763	22.59
609.956	22.48
610.15	22.43
610.343	22.27
610.537	22.14
610.73	22.16
610.923	22.07
611.117	21.93
611.31	21.87
611.504	21.78
611.697	21.79
611.89	21.71
612.083	21.54
612.277	21.44
612.47	21.35
612.663	21.3
612.856	21.15
613.05	21.01
613.243	20.88
613.436	20.8
613.629	20.73
613.822	20.66
614.015	20.53
614.209	20.47
614.402	20.4
614.595	20.35
614.788	20.27
614.981	20.21
615.174	20.16
615.367	20.12
615.56	20.06
615.753	20
615.946	19.92
616.139	19.92
616.332	19.79
616.525	19.72
616.718	19.62
616.911	19.61
617.103	19.55
617.296	19.51
617.489	19.45
617.682	19.47
617.875	19.39
618.067	19.34
618.26	19.25
618.453	19.16
618.646	19.08
618.838	18.98
619.031	18.92
619.224	18.91
619.417	18.89
619.609	18.88
619.802	18.83
619.994	18.79
620.187	18.73
620.38	18.73
620.572	18.69
620.765	18.62
620.957	18.53
621.15	18.54
621.342	18.54
621.535	18.52
621.727	18.42
621.92	18.41
622.112	18.42
622.305	18.34
622.497	18.27
622.69	18.24
622.882	18.24
623.074	18.28
623.267	18.23
623.459	18.18
623.651	18.26
623.844	18.22
624.036	18.18
624.228	18.16
624.42	18.08
624.613	18.03
624.805	18.06
624.997	18.03
625.189	18.1
625.381	18.07
625.574	17.99
625.766	17.98
625.958	17.98
626.15	17.96
626.342	17.94
626.534	17.82
626.726	17.85
626.918	17.85
627.11	17.85
627.302	17.85
627.494	17.75
627.686	17.68
627.878	17.62
628.07	17.51
628.262	17.5
628.454	17.44
628.646	17.37
628.838	17.38
629.029	17.33
629.221	17.3
629.413	17.29
629.605	17.19
629.797	17.14
629.989	17.12
630.18	17.04
630.372	17.07
630.564	17.13
630.755	17.11
630.947	17.11
631.139	17.05
631.33	17.06
631.522	17.06
631.714	16.99
631.905	16.91
632.097	16.91
632.289	16.85
632.48	16.83
632.672	16.74
632.863	16.69
633.055	16.66
633.246	16.67
633.438	16.67
633.629	16.72
633.821	16.73
634.012	16.75
634.203	16.86
634.395	16.9
634.586	16.84
634.777	16.76
634.969	16.71
635.16	16.66
635.351	16.64
635.543	16.5
635.734	16.4
635.925	16.43
636.117	16.45
636.308	16.43
636.499	16.44
636.69	16.47
636.881	16.57
637.073	16.6
637.264	16.58
637.455	16.62
637.646	16.62
637.837	16.62
638.028	16.61
638.219	16.57
638.41	16.57
638.601	16.57
638.792	16.48
638.983	16.4
639.174	16.43
639.365	16.34
639.556	16.33
639.747	16.31
639.938	16.32
640.129	16.32
640.32	16.34
640.511	16.33
640.701	16.31
640.892	16.29
641.083	16.24
641.274	16.16
641.465	16.12
641.655	16.16
641.846	16.05
642.037	16.04
642.228	16
642.418	15.97
642.609	15.93
642.8	15.91
642.99	15.86
643.181	15.88
643.372	15.87
643.562	15.88
643.753	15.82
643.943	15.79
644.134	15.77
644.324	15.76
644.515	15.76
644.705	15.79
644.896	15.74
645.086	15.77
645.277	15.85
645.467	15.83
645.658	15.82
645.848	15.77
646.038	15.72
646.229	15.67
646.419	15.67
646.61	15.6
646.8	15.56
646.99	15.49
647.18	15.52
647.371	15.46
647.561	15.44
647.751	15.34
647.941	15.27
648.132	15.26
648.322	15.3
648.512	15.24
648.702	15.2
648.892	15.23
649.082	15.21
649.272	15.18
649.462	15.15
649.653	15.15
649.843	15.07
650.033	15.04
650.223	15.05
650.413	15.05
650.603	15.03
650.793	14.99
650.983	14.93
651.172	14.92
651.362	14.89
651.552	14.75
651.742	14.73
651.932	14.7
652.122	14.62
652.312	14.46
652.502	14.38
652.691	14.32
652.881	14.28
653.071	14.13
653.261	14.01
653.45	13.94
653.64	13.94
653.83	13.85
654.019	13.66
654.209	13.57
654.399	13.44
654.588	13.35
654.778	13.24
654.968	13.12
655.157	12.96
655.347	12.88
655.536	12.68
655.726	12.58
655.915	12.4
656.105	12.26
656.294	12.06
656.484	11.93
656.673	11.85
656.863	11.73
657.052	11.54
657.241	11.43
657.431	11.25
657.62	11.05
657.809	10.87
657.999	10.68
658.188	10.55
658.377	10.45
658.567	10.28
658.756	10.14
658.945	10.05
659.134	9.87
659.324	9.69
659.513	9.44
659.702	9.23
659.891	9.06
660.08	8.96
660.269	8.83
660.458	8.72
660.648	8.58
660.837	8.49
661.026	8.39
661.215	8.24
661.404	8.08
661.593	7.91
661.782	7.76
661.971	7.63
662.16	7.53
662.349	7.41
662.538	7.34
662.726	7.2
662.915	7.1
663.104	6.93
663.293	6.87
663.482	6.75
663.671	6.64
663.86	6.53
664.048	6.47
664.237	6.39
664.426	6.4
664.615	6.25
664.803	6.14
664.992	6.13
665.181	6.01
665.369	5.94
665.558	5.9
665.747	5.85
665.935	5.85
666.124	5.89
666.312	5.77
666.501	5.75
666.69	5.74
666.878	5.67
667.067	5.66
667.255	5.65
667.444	5.6
667.632	5.57
667.82	5.55
668.009	5.52
668.197	5.54
668.386	5.49
668.574	5.47
668.762	5.44
668.951	5.46
669.139	5.49
669.327	5.5
669.516	5.54
669.704	5.55
669.892	5.57
670.08	5.57
670.269	5.62
670.457	5.58
670.645	5.61
670.833	5.58
671.021	5.61
671.21	5.67
671.398	5.69
671.586	5.75
671.774	5.78
671.962	5.77
672.15	5.79
672.338	5.85
672.526	5.82
672.714	5.87
672.902	5.86
673.09	5.93
673.278	5.99
673.466	6.09
673.654	6.11
673.842	6.22
674.03	6.33
674.218	6.41
674.405	6.52
674.593	6.6
674.781	6.64
674.969	6.74
675.157	6.8
675.344	6.8
675.532	6.89
675.72	6.88
675.908	6.94
676.095	7.01
676.283	7.08
676.471	7.14
676.658	7.24
676.846	7.34
677.033	7.45
677.221	7.56
677.409	7.66
677.596	7.78
677.784	7.89
677.971	7.98
678.159	8.1
678.346	8.15
678.534	8.19
678.721	8.2
678.909	8.24
679.096	8.25
679.283	8.38
679.471	8.43
679.658	8.61
679.846	8.8
680.033	9.03
680.22	9.15
680.408	9.25
680.595	9.29
680.782	9.39
680.969	9.43
681.157	9.41
681.344	9.51
681.531	9.56
681.718	9.74
681.905	9.89
682.093	10.08
682.28	10.36
682.467	10.5
682.654	10.6
682.841	10.88
683.028	11.07
683.215	11.28
683.402	11.33
683.589	11.45
683.776	11.71
683.963	11.94
684.15	12.05
684.337	12.25
684.524	12.43
684.711	12.71
684.898	12.91
685.085	13.16
685.271	13.44
685.458	13.72
685.645	13.95
685.832	14.22
686.019	14.52
686.205	14.76
686.392	15.02
686.579	15.29
686.766	15.67
686.952	16.08
687.139	16.46
687.326	16.92
687.512	17.31
687.699	17.69
687.886	18
688.072	18.4
688.259	18.82
688.445	19.21
688.632	19.71
688.818	20.23
689.005	20.84
689.191	21.33
689.378	21.76
689.564	22.21
689.751	22.85
689.937	23.28
690.124	23.88
690.31	24.4
690.496	25.01
690.683	25.66
690.869	26.3
691.055	26.94
691.242	27.49
691.428	28.12
691.614	28.74
691.8	29.48
691.987	30.2
692.173	30.96
692.359	31.64
692.545	32.48
692.731	33.22
692.918	34.03
693.104	34.74
693.29	35.51
693.476	36.1
693.662	36.79
693.848	37.38
694.034	38
694.22	38.74
694.406	39.54
694.592	40.12
694.778	40.88
694.964	41.66
695.15	42.61
695.336	43.59
695.522	44.26
695.708	45.04
695.894	45.95
696.08	46.78
696.265	47.4
696.451	48.08
696.637	48.8
696.823	49.48
697.009	50.18
697.194	50.82
697.38	51.48
697.566	52.26
697.751	53.03
697.937	53.45
698.123	54.18
698.308	54.64
698.494	55.23
698.68	55.94
698.865	56.57
699.051	57.05
699.236	57.87
699.422	58.53
699.607	59.26
699.793	59.87
699.978	60.31
700.164	61.07
700.349	61.53
700.535	62.12
700.72	62.7
700.906	63.29
701.091	63.84
701.276	64.32
701.462	64.75
701.647	65.27
701.832	65.62
702.018	65.96
702.203	66.31
702.388	66.55
702.573	67.2
702.759	67.58
702.944	68.2
703.129	68.67
703.314	69.13
703.499	69.51
703.684	70.18
703.87	70.49
704.055	70.75
704.24	71.06
704.425	71.59
704.61	71.8
704.795	72.21
704.98	72.47
705.165	72.7
705.35	73.03
705.535	73.44
705.72	73.41
705.905	73.83
706.09	74.14
706.275	74.3
706.459	74.78
706.644	75.07
706.829	75.26
707.014	75.87
707.199	76.03
707.384	76.33
707.568	76.75
707.753	77.12
707.938	77.53
708.123	77.59
708.307	77.86
708.492	78.1
708.677	78.41
708.861	78.61
709.046	78.43
709.231	78.53
709.415	78.92
709.6	79.03
709.784	79.51
709.969	79.78
710.153	80.24
710.338	80.61
710.522	80.62
710.707	80.34
710.891	80.47
711.076	80.46
711.26	80.69
711.445	80.6
711.629	80.91
711.813	81.22
711.998	81.67
712.182	81.88
712.366	82.13
712.551	82.22
712.735	82.31
712.919	82.5
713.103	82.57
713.288	83.05
713.472	83.08
713.656	82.82
713.84	82.81
714.024	83.07
714.208	83.05
714.393	83.18
714.577	83.05
714.761	83.13
714.945	83.53
715.129	83.72
715.313	83.81
715.497	84.04
715.681	84.41
715.865	84.55
716.049	84.75
716.233	85.07
716.417	85.33
716.601	85.29
716.785	85.24
716.968	85.18
717.152	85.36
717.336	85.2
717.52	85.22
717.704	85.22
717.888	85.54
718.071	85.82
718.255	85.65
718.439	85.47
718.622	85.8
718.806	85.69
718.99	85.77
719.174	85.71
719.357	85.73
719.541	86.33
719.724	86.62
719.908	86.76
720.092	87.12
720.275	87.2
720.459	87.28
720.642	87.33
720.826	87.22
721.009	87.18
721.193	86.97
721.376	86.81
721.559	86.82
721.743	86.8
721.926	86.9
722.11	87.03
722.293	86.76
722.476	86.69
722.66	86.65
722.843	86.7
723.026	87.07
723.21	86.99
723.393	87.02
723.576	87.23
723.759	87.97
723.942	88.19
724.126	88.09
724.309	88.09
724.492	88.24
724.675	88.31
724.858	88.74
725.041	88.63
725.224	88.95
725.407	88.93
725.59	88.94
725.774	89.19
725.957	89.43
726.14	89.17
726.322	89.12
726.505	89.36
726.688	89.59
726.871	90.03
727.054	89.93
727.237	89.67
727.42	90.48
727.603	90.54
727.786	90.29
727.968	90.75
728.151	90.58
728.334	90.49
728.517	90.89
728.699	90.84
728.882	91.18
729.065	91.12
729.248	90.9
729.43	91.08
729.613	91.49
729.796	91.37
729.978	91.12
730.161	91.21
730.343	91.64
730.526	92.01
730.708	91.98
730.891	92.14
731.073	92.04
731.256	92.29
731.438	92.25
731.621	92.46
731.803	92.28
731.986	92.37
732.168	92.18
732.35	92.39
732.533	92.59
732.715	92.83
732.898	92.68
733.08	92.82
733.262	92.71
733.444	92.96
733.627	92.97
733.809	92.92
733.991	92.73
734.173	92.42
734.355	92.89
734.538	92.73
734.72	92.78
734.902	93.18
735.084	93.35
735.266	93.27
735.448	93.48
735.63	93.12
735.812	93.77
735.994	93.5
736.176	93.64
736.358	93.71
736.54	94.07
736.722	94.21
736.904	94.37
737.086	94.23
737.268	94.49
737.45	94.36
737.632	93.57
737.814	93.65
737.995	93.77
738.177	93.83
738.359	93.85
738.541	93.95
738.723	94.25
738.904	94.57
739.086	94.18
739.268	94.67
739.449	95.15
739.631	95.07
739.813	95.17
739.994	95.34
740.176	95.64
740.358	95.95
740.539	95.62
740.721	94.84
740.902	94.67
741.084	94.68
741.265	94.46
741.447	94.39
741.628	94.11
741.81	94.28
741.991	94.88
742.172	95.19
742.354	95.23
742.535	94.96
742.717	94.5
742.898	95.2
743.079	94.87
743.261	95.08
743.442	95.07
743.623	94.92
743.804	95.37
743.986	95.89
744.167	94.99
744.348	95.24
744.529	94.48
744.71	93.9
744.891	93.75
745.073	93.63
745.254	93.42
745.435	93.8
745.616	93.77
745.797	93.47
745.978	94.22
746.159	94.17
746.34	93.96
746.521	94.07
746.702	93.61
746.883	93.59
747.064	93.74
747.245	94.46
747.426	94.69
747.606	94.46
747.787	94.99
747.968	95.69
748.149	95.57
748.33	96.4
748.51	95.64
748.691	95.85
748.872	95.83
749.053	95.35
749.233	95.15
749.414	94.78
749.595	93.32
749.775	93.02
749.956	91.95
750.137	91.96
750.317	91.51
750.498	91.43
750.678	91.37
750.859	91.89
751.04	91.6
751.22	91.9
751.4	92.26
751.581	92.96
751.761	93.39
751.942	93.97
752.122	94.46
752.303	94.58
752.483	94.94
752.663	95.34
752.844	95.31
753.024	94.84
753.204	94.24
753.385	93.45
753.565	93.18
753.745	93.33
753.925	92.02
754.106	91.46
754.286	91.12
754.466	91.14
754.646	91.25
754.826	91.68
755.006	91.11
755.187	91.74
755.367	91.93
755.547	92.1
755.727	91.81
755.907	92.66
756.087	92.89
756.267	93.52
756.447	93.31
756.627	92.85
756.807	93.13
756.987	94.17
757.167	93.76
757.346	92.98
757.526	93.37
757.706	92.82
757.886	93.12
758.066	91.87
758.246	91
758.425	90.69
758.605	90.57
758.785	89.85
758.965	89.9
759.144	90.34
759.324	91.28
759.504	92.01
759.683	91.68
759.863	92.13
760.043	91.97
760.222	91.94
760.402	92.47
760.581	91.94
760.761	90.6
760.94	90.5
761.12	90.13
761.299	89.55
761.479	90.59
761.658	88.99
761.838	89.62
762.017	90.62
762.197	91.38
762.376	90.78
762.555	92
762.735	90.81
762.914	91.71
763.093	91.65
763.273	91.01
763.452	90.41
763.631	90.44
763.81	90.32
763.99	90.48
764.169	89.84
764.348	89.83
764.527	89.34
764.706	89.5
764.885	90.21
765.064	89.31
765.243	88.62
765.423	88.79
765.602	88.06
765.781	88.58
765.96	88.45
766.139	87.79
766.318	88.39
766.497	89.44
766.676	90.12
766.854	89.51
767.033	89.59
767.212	89.43
767.391	89.24
767.57	88.73
767.749	88.15
767.928	86.39
768.106	87.17
768.285	87.48
768.464	87.97
768.643	88.39
768.821	88.92
769	89.11
769.179	88.47
769.357	88.37
769.536	86.68
769.715	86.46
769.893	86.24
770.072	85.83
770.25	85.95
770.429	87.35
770.607	87.7
770.786	89.67
770.964	88.68
771.143	88.98
771.321	88.36
771.5	88.18
771.678	87.75
771.857	86.88
772.035	85.66
772.213	85.09
772.392	85.49
772.57	85.57
772.748	84.03
772.927	84.44
773.105	84.73
773.283	84.23
773.461	85.19
773.64	83.86
773.818	83.08
773.996	84.18
774.174	83.85
774.352	84.06
774.531	84.04
774.709	84.55
774.887	84.43
775.065	84.48
775.243	85.35
775.421	85.49
775.599	83.16
775.777	83.55
775.955	82.4
776.133	82.53
776.311	82.68
776.489	81.66
776.667	81.93
776.844	82.69
777.022	81.94
777.2	81.81
777.378	82.14
777.556	82.25
777.734	82.67
777.911	83.79
778.089	83.98
778.267	84.32
778.445	83.86
778.622	83.23
778.8	82.57
778.978	82.09
779.155	79.16
779.333	78.1
779.511	79.18
779.688	78.62
779.866	78.55
780.043	80.21
780.221	79.7
780.398	81.08
780.576	81.57
780.753	78.88
780.931	80.55
781.108	80.93
781.286	77.92
781.463	78.51
781.64	77.99
781.818	78.23
781.995	80.31
782.172	80.04
782.35	78.93
782.527	82.98
782.704	81.9
782.882	81.84
783.059	81.51
783.236	81.85
783.413	81.28
783.59	80.55
783.768	78.32
783.945	79.47
784.122	80.38
784.299	80.38
784.476	79.35
784.653	77.97
784.83	78.01
785.007	77.38
785.184	76.7
785.361	75.47
785.538	76.78
785.715	76.25
785.892	77.28
786.069	78.31
786.246	76.58
786.423	78.27
786.6	78.95
786.776	78.45
786.953	79.16
787.13	80.9
787.307	81.84
787.484	84.99
787.66	82.46
787.837	82.76
788.014	81.23
788.191	79.33
788.367	77.95
788.544	77.13
788.721	76.89
788.897	78.91
789.074	76.92
789.25	79.8
789.427	80.86
789.603	83.03
789.78	85.88
789.956	83.66
790.133	83.69
790.309	85.37
790.486	86.45
790.662	86.4
790.839	83.47
791.015	82.85
791.192	83.7
791.368	85.13
791.544	84.61
791.721	79.43
791.897	80.08
792.073	80.29
792.249	80.64
792.426	81.07
792.602	75.9
792.778	76.46
792.954	79.59
793.13	81.75
793.307	78.9
793.483	76.28
793.659	76.47
793.835	76.97
794.011	73.57
794.187	70.12
794.363	67.03
794.539	68.69
794.715	67.26
794.891	64.03
795.067	66.43
795.243	67.06
795.419	69.85
795.595	69.16
795.771	72.55
795.947	71.26
796.122	74.82
796.298	74.22
796.474	76.7
796.65	77.16
796.826	79.45
797.001	76.81
797.177	80.16
797.353	83.22
797.529	82.54
797.704	79.94
797.88	79.92
798.056	81.97
798.231	82.11
798.407	80.94
798.582	77.63
798.758	77.93
798.934	79.4
799.109	74.44
799.285	72.89
799.46	70.99
799.636	72.21
799.811	71.99
799.986	69.22
800.162	69.73
800.337	71.28
800.513	70.76
800.688	73.96
800.863	74.78
801.039	71.66
801.214	72.97
801.389	73.15
801.565	76.02
801.74	73.22
801.915	73.06
802.09	72.05
802.265	74.83
802.441	75.64
802.616	72.84
802.791	73.75
802.966	75.21
803.141	71.72
803.316	73.27
803.491	67.94
803.666	66.71
803.841	69.09
804.016	67.95
804.191	70.13
804.366	73.8
804.541	68.93
804.716	68.63
804.891	73.22
805.066	72.67
805.241	70.12
805.416	66.85
805.591	64.4
805.765	66.93
805.94	77.1
806.115	72.08
806.29	74.54
806.464	75
806.639	77.07
806.814	71.19
806.989	71.59
807.163	65.96
807.338	67.43
807.512	60.86
807.687	59.03
807.862	58.83
808.036	62.73
808.211	63.33
808.385	62.76
808.56	66.4
808.734	68.85
808.909	67.31
809.083	68.61
809.258	73.32
809.432	67.24
809.606	67.61
809.781	61.89
809.955	67.66
810.13	69.48
810.304	63.84
810.478	61.73
810.652	68.89
810.827	69.83
811.001	69.17
811.175	60.27
811.349	63.4
811.524	62.57
811.698	64.54
811.872	62.26
812.046	61.67
812.22	64.44
812.394	68.26
812.568	70.64
812.742	73.79
812.916	65.93
813.09	63.98
813.264	60.78
813.438	64.57
813.612	64.65
813.786	62.61
813.96	64.1
814.134	68.24
814.308	66.47
814.482	68.16
814.656	70.9
814.83	70.9
815.003	69.83
815.177	70.62
815.351	77.73
815.525	75.32
815.698	74.69
815.872	64.16
816.046	61.16
816.219	59.75
816.393	53.57
816.567	44.39
816.74	49.17
816.914	51.43
817.088	53.98
817.261	57.06
817.435	53.52
817.608	56.6
817.782	66.29
817.955	67.65
818.129	68.28
818.302	71.6
818.475	72.95
818.649	73.53
818.822	79.71
818.996	71.85
819.169	71.02
819.342	72.41
819.516	70.76
819.689	69.83
819.862	66.8
820.035	59.9
820.209	61.26
820.382	58.65
820.555	55.29
820.728	49
820.901	50.45
821.075	62.8
821.248	63.23
821.421	57.65
821.594	62.83
821.767	57.91
821.94	55.92
822.113	58.03
822.286	55.11
822.459	62.7
822.632	69.24
822.805	66.18
822.978	66.66
823.151	74.09
823.324	63.53
823.496	50.27
823.669	45.42
823.842	45.03
824.015	40.92
824.188	40.12
824.361	40.29
824.533	44.16
824.706	58.64
824.879	59.11
825.051	64.13
825.224	61.93
825.397	61.76
825.569	65.74
825.742	69.88
825.915	67.21
826.087	64.88
826.26	60.64
826.432	64.15
826.605	63.77
826.777	60.28
826.95	50.09
827.122	55.88
827.295	56.6
827.467	49.37
827.64	44.14
827.812	47.29
827.984	53.01
828.157	62.02
828.329	54.47
828.501	53.64
828.674	58.43
828.846	60.71
829.018	58.64
829.19	54.09
829.363	57.05
829.535	61.91
829.707	62.1
829.879	61.25
830.051	61.15
830.223	53.5
830.395	50.68
830.568	50.72
830.74	52.19
830.912	55.66
831.084	57.82
831.256	56.09
831.428	58.63
831.6	57.39
831.772	46.61
831.943	39.91
832.115	39.42
832.287	34.97
832.459	41.46
832.631	54
832.803	60.86
832.975	67.45
833.146	67.04
833.318	68.02
833.49	73.6
833.662	75.42
833.833	74.44
834.005	75.43
834.177	76.84
834.348	73.65
834.52	71.63
834.692	73.32
834.863	65.93
835.035	62.75
835.206	55.17
835.378	47.95
835.549	52.72
835.721	52.01
835.892	45.93
836.064	52.54
836.235	56
836.407	50.55
836.578	62.61
836.749	58.56
836.921	60.7
837.092	60.44
837.264	43.16
837.435	39.89
837.606	40.29
837.777	32.35
837.949	30.27
838.12	31.56
838.291	42.15
838.462	54.07
838.633	48.64
838.805	54.52
838.976	51.34
839.147	59.54
839.318	48.74
839.489	33.09
839.66	35.4
839.831	32.55
840.002	21.88
840.173	20.01
840.344	23.4
840.515	35.62
840.686	51.71
840.857	40.79
841.028	42.82
841.199	46.57
841.369	38.03
841.54	35.23
841.711	37.02
841.882	16.36
842.053	8.85
842.223	-1.66
842.394	19.22
842.565	42.22
842.736	35.78
842.906	23.97
843.077	46.59
843.248	54.46
843.418	58.77
843.589	62.09
843.759	51.28
843.93	62.13
844.101	66.71
844.271	65.93
844.442	58.52
844.612	47.46
844.783	32.57
844.953	27.34
845.123	20.96
845.294	16.51
845.464	25.71
845.635	36.88
845.805	57.24
845.975	55.85
846.146	59.43
846.316	59.35
846.486	70.33
846.656	72.79
846.827	67.92
846.997	71.4
847.167	67.24
847.337	74.17
847.507	75.4
847.677	78.72
847.848	75.76
848.018	71.21
848.188	52.67
848.358	64.11
848.528	58.94
848.698	31.03
848.868	-12.95
849.038	-1.1
849.208	10.24
849.378	4.3
849.548	1.49
849.718	-22.34
849.887	-18.81
850.057	5.8
850.227	0.16
850.397	-6.84
850.567	-3.88
850.737	-2
850.906	4.38
851.076	13.6
851.246	33.19
851.415	25.27
851.585	25.7
851.755	28.17
851.924	29.89
852.094	41.76
852.264	40.06
852.433	29.21
852.603	46.96
852.772	46.82
852.942	41.67
853.111	49.05
853.281	40.53
853.45	37.76
853.62	30.73
853.789	20.69
853.959	14.34
854.128	8.74
854.297	-2.54
854.467	2.65
854.636	2.79
854.805	1.87
854.975	9.96
855.144	18.24
855.313	28.76
855.482	28.05
855.652	29.38
855.821	36.34
855.99	52.26
856.159	36.57
856.328	30.44
856.497	24.55
856.667	38.26
856.836	37.67
857.005	42.61
857.174	37.75
857.343	26.59
857.512	18.7
857.681	21.1
857.85	7.54
858.019	17.11
858.188	-0.73
858.356	-24.97
858.525	4.47
858.694	18.77
858.863	7.91
859.032	6.02
859.201	-22.37
859.369	-0.21
859.538	4.49
859.707	9.95
859.876	23.44
860.044	34.64
860.213	29.29
860.382	41.5
860.55	54.88
860.719	61.56
860.888	58
861.056	52.14
861.225	56.95
861.393	70.55
861.562	55.54
861.73	33.39
861.899	8.38
862.067	21.34
862.236	17.05
862.404	8.39
862.572	-3.26
862.741	-2.79
862.909	-7.25
863.078	3.16
863.246	-17.74
863.414	-13.51
863.582	0.36
863.751	-1.25
863.919	1.19
864.087	13.22
864.255	16
864.424	17.88
864.592	23.52
864.76	22.23
864.928	35.34
865.096	21.6
865.264	10.9
865.432	6.96
865.6	-8.48
865.768	-34.41
865.936	-67.38
866.104	-94.89
866.272	-74.94
866.44	-120.3
866.608	-123.7
866.776	-46.09
866.944	-33.22
867.112	-48.66
867.28	-100.02
867.448	-65.12
867.615	-4.94
867.783	-39.18
867.951	-63.99
868.119	-27.51
868.286	4.1
868.454	21.85
868.622	10.05
868.789	17.76
868.957	41
869.125	38.59
869.292	29.47
869.46	33.71
869.627	30.6
869.795	30.9
869.963	9.57
870.13	26.7
870.298	8.83
870.465	-5.44
870.632	-10
870.8	-5.66
870.967	3.22
871.135	9.04
871.302	11.28
871.469	13.39
871.637	13.96
871.804	15.7
871.971	13.53
872.139	22.64
872.306	24.03
872.473	7.17
872.64	3.69
872.807	0.65
872.975	29.12
873.142	28.82
873.309	74.08
873.476	148.66
873.643	181.34
873.81	204.17
873.977	153.64
874.144	109.25
874.311	35.05
874.478	-54.47
874.645	-61.13
874.812	-20.52
874.979	-66.31
875.146	-132.7
875.313	-186.99
875.48	-70.95
875.647	-57.76
875.813	-121.43
875.98	-122.59
876.147	20.66
876.314	13.83
876.481	15.33
876.647	28.24
876.814	33
876.981	33.82
877.147	12.1
877.314	-16.39
877.481	19.65
877.647	42.45
877.814	19.34
877.98	27.19
878.147	50.08
878.314	61.47
878.48	56.88
878.647	77.5
878.813	50.19
878.979	70.15
879.146	32.66
879.312	53.72
879.479	42.77
879.645	8.3
879.811	-25.97
879.978	-22
880.144	-44.17
880.31	-72.12
880.477	-122.92
880.643	-317.9
880.809	-116.34
880.975	-109.53
881.142	-102.31
881.308	-95.82
881.474	-42.72
881.64	-69
881.806	-0.37
881.972	51.68
882.138	48.79
882.304	49.12
882.47	19.39
882.636	-20.82
882.802	-8.68
882.968	-78.53
883.134	-355.9
883.3	-170.54
883.466	-48.89
883.632	-50.1
883.798	-44.64
883.964	-68.34
884.129	-40.15
884.295	-24.89
884.461	-66.5
884.627	-119.12
884.793	-39.03
884.958	-32.11
885.124	-75.84
885.29	-61.77
885.455	-44.45
885.621	-40.07
885.787	-43.53
885.952	-65.64
886.118	-53.73
886.283	-12.21
886.449	-42.18
886.614	-34.83
886.78	25.8
886.945	5.16
887.111	1.19
887.276	-26.3
887.442	-21.1
887.607	-18.06
887.773	-28.92
887.938	-68.49
888.103	-16.93
888.269	-13.41
888.434	-38.36
888.599	-11.91
888.764	3.1
888.93	6.52
889.095	-33.17
889.26	-12.1
889.425	15.87
889.59	34.94
889.756	8.41
889.921	-15.49
890.086	-19.86
890.251	6.17
890.416	-49.98
890.581	-58.43
890.746	-34.96
890.911	-79.74
891.076	-100.47
891.241	-108.48
891.406	-21.15
891.571	-15.1
891.736	-50.44
891.901	-55.57
892.065	-26.88
892.23	-26.44
892.395	-45.81
892.56	-43.68
892.725	-32.47
892.889	-37.23
893.054	-121.03
893.219	-211.31
893.384	-353.85
893.548	-815.83
893.713	1592.82
893.878	935.87
