Data from Ofra_2a_PS_2CX12_Reflection_3.txt Node
Date: Tue Jul 20 09:38:22 EDT 2021
User: Adam
Spectrometer: FLMT01687
Trigger mode: 0
Integration Time (sec): 9.450000E-1
Scans to average: 3
Electric dark correction enabled: true
Nonlinearity correction enabled: false
Boxcar width: 3
XAxis mode: Wavelengths
Number of Pixels in Spectrum: 3648
>>>>>Begin Spectral Data<<<<<
179.494	492.31
179.716	316.29
179.937	364.29
180.158	1394.92
180.38	-661.34
180.601	-145.63
180.823	-81.85
181.044	-165.64
181.265	-290.79
181.486	-26.34
181.708	-738.04
181.929	-31.51
182.15	-38.07
182.372	-21.03
182.593	-129.88
182.814	724.7
183.035	343.9
183.257	97.06
183.478	51.55
183.699	37.81
183.92	37.83
184.141	29.16
184.363	1.05
184.584	-2.37
184.805	16.57
185.026	-7.4
185.247	-13.14
185.468	-18.51
185.689	-12.56
185.91	5.59
186.132	13.02
186.353	-16.97
186.574	5.57
186.795	-11.15
187.016	-15.68
187.237	-14.73
187.458	-43.37
187.679	-71.28
187.9	-28.14
188.121	-57.65
188.342	-13.29
188.563	-8.8
188.784	-10.56
189.005	-2.79
189.226	19.58
189.447	-1.59
189.667	10.13
189.888	16.45
190.109	15.21
190.33	-0.08
190.551	0.92
190.772	-10.42
190.993	11.09
191.214	9.66
191.434	7.59
191.655	2.64
191.876	19.39
192.097	23.26
192.318	32.77
192.538	24.26
192.759	31.1
192.98	20.88
193.201	42.6
193.421	42.61
193.642	41.13
193.863	20.81
194.083	27.81
194.304	11.86
194.525	24.86
194.745	-4.66
194.966	2.43
195.187	8.45
195.407	13.26
195.628	18.25
195.848	11.31
196.069	3.12
196.29	5.16
196.51	-1.65
196.731	-16.75
196.951	-13.36
197.172	-28.78
197.392	7.91
197.613	10.06
197.833	10.7
198.054	11.28
198.274	-5.31
198.495	-3.57
198.715	-13.54
198.936	-24.47
199.156	-8.05
199.377	-14.56
199.597	-26.46
199.817	-0.67
200.038	3.48
200.258	3.05
200.479	-7.33
200.699	-25.69
200.919	-33.43
201.14	-25.34
201.36	-25.09
201.58	-16.21
201.801	-5.23
202.021	3.02
202.241	11.72
202.461	27.85
202.682	27.9
202.902	18.09
203.122	9.59
203.342	25.53
203.563	24.02
203.783	24.15
204.003	19.94
204.223	21.49
204.443	29.77
204.663	31.56
204.884	11.99
205.104	22.31
205.324	33.09
205.544	25.21
205.764	23.44
205.984	29.92
206.204	35.37
206.424	44.95
206.644	33.86
206.864	22.88
207.084	43.14
207.304	40.78
207.525	35.47
207.745	26.69
207.964	21.85
208.184	18.9
208.404	17.17
208.624	0.2
208.844	-11.31
209.064	-7.72
209.284	-3.86
209.504	-16.31
209.724	-35.06
209.944	-31.96
210.164	-27
210.384	-8.29
210.604	-14.96
210.823	-10.31
211.043	12.31
211.263	26.31
211.483	29.51
211.703	38.2
211.922	39.37
212.142	40.97
212.362	39.94
212.582	38.81
212.801	36.85
213.021	34.66
213.241	24.85
213.461	24.18
213.68	32.85
213.9	29.88
214.12	14.38
214.339	25.6
214.559	30.02
214.779	32.12
214.998	25.22
215.218	25.94
215.438	42.4
215.657	47.22
215.877	40.14
216.096	43.3
216.316	41.98
216.535	42.36
216.755	28.13
216.974	21.33
217.194	15.4
217.413	27.37
217.633	13.74
217.852	13.14
218.072	21.39
218.291	34.38
218.511	26.55
218.73	34.05
218.95	18.08
219.169	30.66
219.389	24.62
219.608	23.75
219.827	22.64
220.047	32.61
220.266	22.9
220.485	29.57
220.705	18.52
220.924	26.35
221.143	23.57
221.363	3.09
221.582	-2.23
221.801	-5.56
222.021	-12.51
222.24	-13.44
222.459	-15.16
222.678	-26.98
222.897	-7.85
223.117	-1.01
223.336	10.21
223.555	14.72
223.774	23.37
223.993	29.69
224.213	24.25
224.432	39.62
224.651	41.85
224.87	32.25
225.089	40.57
225.308	25.11
225.527	27.49
225.746	32.61
225.965	16.17
226.184	10.59
226.404	1.46
226.623	5.55
226.842	9.27
227.061	8.42
227.28	18.66
227.499	28.32
227.718	19.57
227.936	16.68
228.155	12.33
228.374	21.1
228.593	18.27
228.812	8.2
229.031	-1.42
229.25	11.76
229.469	25.88
229.688	35.48
229.907	25.84
230.125	24.98
230.344	30.12
230.563	43.3
230.782	34.11
231.001	29.75
231.22	28.55
231.438	29.67
231.657	36.09
231.876	31.61
232.095	24.13
232.313	36.86
232.532	35.33
232.751	34.11
232.969	40.28
233.188	31.33
233.407	32.23
233.625	25.35
233.844	22.33
234.063	24.86
234.281	17.81
234.5	20.14
234.719	12.82
234.937	24.64
235.156	22.77
235.374	13.2
235.593	3.92
235.811	-6.1
236.03	-21.24
236.249	0.42
236.467	1.05
236.686	11.34
236.904	18.08
237.123	32.9
237.341	30.31
237.559	26.75
237.778	19.95
237.996	8.72
238.215	4.36
238.433	3.96
238.652	-3.15
238.87	3
239.088	-7.43
239.307	-0.04
239.525	-0.98
239.743	-6.58
239.962	1.2
240.18	11.6
240.398	16.62
240.617	35.1
240.835	43.1
241.053	48.72
241.271	47.02
241.49	31.7
241.708	22.77
241.926	11.29
242.144	10.93
242.363	2.93
242.581	0.42
242.799	-4.06
243.017	16.49
243.235	13.47
243.453	15.84
243.672	3.68
243.89	2.51
244.108	15.83
244.326	15.7
244.544	-4.91
244.762	2.85
244.98	-1.49
245.198	-3.47
245.416	-11
245.634	-16.5
245.852	-6.51
246.07	1.04
246.288	-8.36
246.506	9.66
246.724	24.28
246.942	32.11
247.16	17.47
247.378	4.5
247.596	15.69
247.814	9.65
248.032	6.94
248.25	0.66
248.468	2.83
248.685	16.68
248.903	19.04
249.121	9.27
249.339	19.64
249.557	15.17
249.775	2.02
249.992	0.68
250.21	-13.88
250.428	-9.36
250.646	-0.77
250.863	-3.83
251.081	-9.7
251.299	10.04
251.517	7.89
251.734	14.36
251.952	16.87
252.17	3.17
252.387	12.92
252.605	22.66
252.823	-2.32
253.04	-2.24
253.258	-4.61
253.475	6.84
253.693	18.6
253.911	14.95
254.128	7.18
254.346	13.84
254.563	13.74
254.781	18.49
254.998	12.45
255.216	9.82
255.433	1.2
255.651	5.22
255.868	18.78
256.086	16.16
256.303	5.52
256.521	-8.85
256.738	-21.2
256.956	-9.68
257.173	-3.97
257.39	-11.06
257.608	-5.28
257.825	-3.34
258.043	14.89
258.26	19.22
258.477	16.88
258.695	17.09
258.912	36.34
259.129	35.52
259.346	38.24
259.564	30.58
259.781	36.53
259.998	30.75
260.216	33.77
260.433	10.39
260.65	13.18
260.867	5.12
261.084	16.71
261.302	10.57
261.519	8.82
261.736	8.57
261.953	9.3
262.17	0.32
262.387	7.27
262.604	-8.72
262.822	-8.15
263.039	-2.19
263.256	-15.8
263.473	-19.49
263.69	-12.96
263.907	-11.07
264.124	-12.08
264.341	-11.15
264.558	-5.08
264.775	3.52
264.992	8.96
265.209	13.63
265.426	11.52
265.643	23.71
265.86	19.88
266.077	16.84
266.294	17.88
266.51	17.38
266.727	4.24
266.944	-41.54
267.161	-54.86
267.378	-69.06
267.595	-68.17
267.812	-83.39
268.028	-80.42
268.245	-61.1
268.462	-21.99
268.679	-22.71
268.896	-21.42
269.112	-5.64
269.329	7.6
269.546	15.05
269.763	13.4
269.979	10.86
270.196	20.27
270.413	28.32
270.629	23.03
270.846	26.81
271.063	34.4
271.279	33.39
271.496	33.75
271.712	32.82
271.929	28.7
272.146	29.65
272.362	6.29
272.579	-5.91
272.795	-6.92
273.012	4.77
273.228	-5.18
273.445	-3.73
273.661	-13.03
273.878	0.18
274.094	-0.95
274.311	2.99
274.527	-3.92
274.744	-3.4
274.96	0.03
275.177	13.73
275.393	14.33
275.609	20.96
275.826	23.08
276.042	42.58
276.259	44.78
276.475	44.78
276.691	41.21
276.908	42.47
277.124	39.78
277.34	32.52
277.557	13.4
277.773	4.04
277.989	0.03
278.205	-15.6
278.422	-13.34
278.638	-5.9
278.854	-10.85
279.07	-11.44
279.286	0.54
279.503	-5.22
279.719	18.11
279.935	-1.58
280.151	-2.45
280.367	10.26
280.583	22.96
280.799	26.45
281.016	28.22
281.232	12.94
281.448	17.55
281.664	9.44
281.88	14.67
282.096	15.05
282.312	2.4
282.528	-5.25
282.744	7.08
282.96	5.68
283.176	9.18
283.392	21.61
283.608	30.91
283.824	25.46
284.04	35.36
284.256	35.93
284.471	44.79
284.687	41.12
284.903	26.85
285.119	4.38
285.335	5.9
285.551	9.67
285.767	9.76
285.982	9.36
286.198	18.04
286.414	16.56
286.63	29.17
286.846	33.75
287.061	29.62
287.277	18.25
287.493	14.92
287.709	9.58
287.924	17.19
288.14	14.75
288.356	19.28
288.571	5.05
288.787	19.44
289.003	33.18
289.218	26.74
289.434	16.98
289.65	16.24
289.865	21.41
290.081	23.16
290.296	17.18
290.512	11.69
290.727	15.6
290.943	10.91
291.159	2.55
291.374	-8.9
291.59	-2.87
291.805	5.04
292.021	2.91
292.236	3.52
292.451	16.44
292.667	25.9
292.882	28.77
293.098	28.67
293.313	16.47
293.529	13.23
293.744	12.6
293.959	11.52
294.175	7.77
294.39	1.92
294.605	6.71
294.821	11.18
295.036	17.35
295.251	21.91
295.467	8.5
295.682	7.96
295.897	11.89
296.112	9.39
296.328	11.41
296.543	4.82
296.758	6.74
296.973	14.17
297.188	9.39
297.404	11.65
297.619	5.67
297.834	15.94
298.049	17.05
298.264	18.81
298.479	5.42
298.694	14.99
298.909	7.46
299.125	16.18
299.34	4.55
299.555	11.61
299.77	1.68
299.985	6.45
300.2	2.15
300.415	11.58
300.63	1.53
300.845	11.54
301.06	3.49
301.275	12.36
301.49	17.79
301.704	19.68
301.919	15.76
302.134	21.54
302.349	10.29
302.564	14.34
302.779	2.75
302.994	10.08
303.209	-2.5
303.423	7.41
303.638	1.69
303.853	6.26
304.068	9.05
304.283	16.09
304.497	11.08
304.712	18.31
304.927	7.07
305.142	10.55
305.356	11.42
305.571	12.85
305.786	15.42
306	18.92
306.215	18.97
306.43	27.19
306.644	22.1
306.859	23.18
307.074	19.86
307.288	21.32
307.503	14.31
307.717	2.12
307.932	6.56
308.147	4.16
308.361	0.96
308.576	4.86
308.79	5.83
309.005	16.27
309.219	30.04
309.434	19.5
309.648	17.01
309.863	21.34
310.077	15.7
310.292	8.16
310.506	9.41
310.72	1.46
310.935	11.61
311.149	17.68
311.364	16.47
311.578	17.89
311.792	15.33
312.007	16.13
312.221	23.52
312.435	18
312.649	31.39
312.864	26.31
313.078	41.74
313.292	33.14
313.507	25.65
313.721	26.08
313.935	37.36
314.149	27.64
314.363	35.95
314.578	27.27
314.792	35.78
315.006	29.67
315.22	31.32
315.434	21.21
315.648	15.29
315.862	19.27
316.077	22.6
316.291	23.11
316.505	22.58
316.719	-0.6
316.933	2.9
317.147	-1.17
317.361	-6.45
317.575	-11.67
317.789	-14.47
318.003	-5.92
318.217	6.49
318.431	12.53
318.645	23.74
318.859	14.29
319.073	13.92
319.287	19.03
319.5	17.41
319.714	20.26
319.928	20.2
320.142	17.11
320.356	27.76
320.57	29.25
320.784	26.7
320.997	29.47
321.211	30.3
321.425	23.82
321.639	18.89
321.853	16.96
322.066	14.36
322.28	12.57
322.494	9.13
322.707	4.42
322.921	6.08
323.135	13.64
323.349	8.8
323.562	8.57
323.776	9.28
323.989	9.93
324.203	12.53
324.417	7.63
324.63	-4.21
324.844	-8.95
325.057	-1.25
325.271	-0.88
325.485	1.34
325.698	3
325.912	20.38
326.125	30.18
326.339	42.31
326.552	45.05
326.766	54.42
326.979	55.04
327.193	49.89
327.406	37.31
327.619	25.98
327.833	16.84
328.046	4.5
328.26	-8.86
328.473	-2.01
328.686	8.13
328.9	0.56
329.113	10.31
329.326	10.14
329.54	10.84
329.753	13.25
329.966	6.47
330.179	7.37
330.393	23.3
330.606	27.35
330.819	38.61
331.032	44.52
331.246	46
331.459	51.35
331.672	50.23
331.885	40.51
332.098	39.33
332.311	15.87
332.525	13.94
332.738	11.9
332.951	13.19
333.164	6.78
333.377	-4.24
333.59	0.7
333.803	20.97
334.016	10.06
334.229	10.23
334.442	16.97
334.655	34.54
334.868	44.35
335.081	42.63
335.294	29.83
335.507	39.11
335.72	28.94
335.933	25.35
336.146	18.02
336.359	11.45
336.572	5.53
336.785	8.91
336.997	3.09
337.21	8.34
337.423	1.59
337.636	0.9
337.849	0.18
338.062	10.96
338.274	10.13
338.487	10.7
338.7	18.52
338.913	11.09
339.125	8.15
339.338	15.93
339.551	12.18
339.763	10.88
339.976	11.71
340.189	2.92
340.402	12.82
340.614	17.13
340.827	7.45
341.039	4.9
341.252	6.74
341.465	5.47
341.677	4.05
341.89	0.38
342.102	1.64
342.315	8.5
342.527	3.09
342.74	2.83
342.952	2.11
343.165	15.53
343.377	18.18
343.59	16.49
343.802	20.9
344.015	24.48
344.227	18.64
344.44	13.08
344.652	5.39
344.864	6.48
345.077	0.75
345.289	-3.46
345.502	4.96
345.714	4.36
345.926	9.21
346.139	12
346.351	2.88
346.563	15.84
346.775	9.14
346.988	1.33
347.2	7.99
347.412	10.45
347.624	15.38
347.837	18.13
348.049	14.09
348.261	16.55
348.473	7.72
348.685	11.81
348.897	9.21
349.11	6.01
349.322	5.75
349.534	-4.99
349.746	-1.51
349.958	8.59
350.17	2.85
350.382	1.29
350.594	-1.22
350.806	4.81
351.018	10.52
351.23	16.91
351.442	17.6
351.654	24.91
351.866	31.75
352.078	26.92
352.29	28.48
352.502	31.53
352.714	21.99
352.926	20.67
353.138	15.17
353.35	12.76
353.561	11.51
353.773	6.62
353.985	8.37
354.197	10.84
354.409	15.51
354.621	12.25
354.832	4.64
355.044	19.93
355.256	14.19
355.468	6.13
355.679	7.56
355.891	7.18
356.103	4.5
356.314	11.57
356.526	1.23
356.738	-3.77
356.949	2.88
357.161	5.24
357.373	3.71
357.584	12.42
357.796	6.25
358.008	-0.04
358.219	18.26
358.431	14.35
358.642	7.59
358.854	10.46
359.065	6.04
359.277	3.06
359.488	10.02
359.7	6.98
359.911	3.54
360.123	10.4
360.334	6.23
360.546	0.95
360.757	10.89
360.969	17.51
361.18	13.15
361.391	14.65
361.603	19.49
361.814	23.9
362.025	27.14
362.237	29.24
362.448	22.91
362.659	16.21
362.871	21.52
363.082	22.25
363.293	20.05
363.504	18.92
363.716	12.87
363.927	13.49
364.138	23.72
364.349	22.49
364.56	10.86
364.772	2.92
364.983	-0.59
365.194	6.28
365.405	4.75
365.616	-7.4
365.827	-8.39
366.038	10.08
366.25	22.27
366.461	25.41
366.672	19.59
366.883	15.23
367.094	18.55
367.305	13.93
367.516	3.91
367.727	-0.63
367.938	1.81
368.149	0.58
368.36	8.6
368.571	8.9
368.781	13.25
368.992	15.08
369.203	15.85
369.414	11.79
369.625	14.24
369.836	7.52
370.047	6.42
370.258	5.55
370.468	0.87
370.679	2.07
370.89	15.08
371.101	6.22
371.312	6.75
371.522	10.83
371.733	-2.79
371.944	3.44
372.155	-7.12
372.365	-16.35
372.576	-8.32
372.787	-7.19
372.997	-11.67
373.208	6.16
373.419	0.86
373.629	12.3
373.84	5.47
374.05	7.08
374.261	1.47
374.472	-3.6
374.682	-7.95
374.893	-4.68
375.103	-6.37
375.314	1.39
375.524	1.56
375.735	10.26
375.945	20.28
376.156	19.19
376.366	17.58
376.577	20.39
376.787	25.43
376.997	26.27
377.208	20.65
377.418	17.98
377.629	18.86
377.839	20.98
378.049	24.73
378.26	12.33
378.47	15.45
378.68	13.93
378.89	6.48
379.101	-3.04
379.311	-14.15
379.521	-17.47
379.732	-16.27
379.942	-22.36
380.152	-15.11
380.362	-2.88
380.572	4.7
380.783	6.16
380.993	7.2
381.203	11.72
381.413	13
381.623	12.86
381.833	4.5
382.043	-0.96
382.253	4.07
382.463	4.6
382.674	9.83
382.884	10.37
383.094	7.89
383.304	7.29
383.514	14.13
383.724	11.23
383.934	5.57
384.144	2.94
384.353	2.24
384.563	-0.84
384.773	2.09
384.983	2.37
385.193	5.82
385.403	9.94
385.613	7.22
385.823	5.86
386.033	6.8
386.242	5.45
386.452	4.48
386.662	6.37
386.872	0.79
387.082	3.18
387.291	2.18
387.501	5.92
387.711	7.22
387.921	8.28
388.13	5.48
388.34	7.18
388.55	6.07
388.759	6.21
388.969	3.73
389.179	4.93
389.388	3.67
389.598	2
389.807	2.13
390.017	2.5
390.227	3.03
390.436	3.74
390.646	4.11
390.855	3.87
391.065	5.41
391.274	5.58
391.484	5.04
391.693	5.87
391.903	4.44
392.112	2.12
392.322	3.4
392.531	3.08
392.74	2.19
392.95	2.47
393.159	1.87
393.369	2.52
393.578	2.9
393.787	2.05
393.997	3.26
394.206	4.57
394.415	4.29
394.625	3.15
394.834	2.33
395.043	2.39
395.252	3.14
395.462	2.31
395.671	2.18
395.88	2.26
396.089	2.92
396.298	3.63
396.508	4.08
396.717	3.59
396.926	3.78
397.135	3
397.344	2.82
397.553	3.16
397.762	2.99
397.971	2.9
398.181	2.44
398.39	2.45
398.599	2.8
398.808	3.1
399.017	3.29
399.226	3.68
399.435	3.39
399.644	3.62
399.853	3.7
400.062	3.66
400.27	3.4
400.479	3.15
400.688	2.96
400.897	3.2
401.106	3.37
401.315	3.31
401.524	3.67
401.733	4.06
401.941	3.94
402.15	3.88
402.359	3.92
402.568	3.77
402.777	3.52
402.985	3.08
403.194	2.85
403.403	2.78
403.612	2.79
403.82	2.81
404.029	2.78
404.238	2.97
404.446	3.02
404.655	2.92
404.864	2.93
405.072	2.91
405.281	2.69
405.489	2.74
405.698	2.64
405.906	2.68
406.115	2.71
406.324	2.67
406.532	2.72
406.741	2.85
406.949	2.77
407.158	2.83
407.366	2.89
407.574	2.96
407.783	2.96
407.991	2.86
408.2	2.79
408.408	2.76
408.617	2.69
408.825	2.66
409.033	2.53
409.242	2.59
409.45	2.58
409.658	2.54
409.867	2.58
410.075	2.62
410.283	2.53
410.491	2.56
410.7	2.57
410.908	2.63
411.116	2.56
411.324	2.56
411.533	2.46
411.741	2.44
411.949	2.44
412.157	2.45
412.365	2.4
412.573	2.51
412.781	2.55
412.99	2.63
413.198	2.72
413.406	2.71
413.614	2.68
413.822	2.66
414.03	2.56
414.238	2.6
414.446	2.55
414.654	2.51
414.862	2.5
415.07	2.46
415.278	2.44
415.486	2.53
415.694	2.37
415.902	2.36
416.109	2.42
416.317	2.38
416.525	2.48
416.733	2.57
416.941	2.53
417.149	2.67
417.357	2.67
417.564	2.57
417.772	2.63
417.98	2.52
418.188	2.31
418.395	2.25
418.603	2.14
418.811	2.11
419.019	2.18
419.226	2.21
419.434	2.24
419.642	2.35
419.849	2.38
420.057	2.43
420.265	2.47
420.472	2.32
420.68	2.23
420.887	2.26
421.095	2.26
421.302	2.33
421.51	2.34
421.717	2.39
421.925	2.4
422.132	2.38
422.34	2.3
422.547	2.28
422.755	2.2
422.962	2.19
423.17	2.12
423.377	2.21
423.585	2.29
423.792	2.29
423.999	2.28
424.207	2.21
424.414	2.33
424.621	2.38
424.829	2.31
425.036	2.23
425.243	2.29
425.451	2.37
425.658	2.36
425.865	2.1
426.072	2.11
426.28	2.15
426.487	2.22
426.694	2.15
426.901	2.03
427.108	2.1
427.315	2.12
427.523	2.03
427.73	2.1
427.937	2.05
428.144	2.09
428.351	2.23
428.558	2.16
428.765	2.22
428.972	2.26
429.179	2.17
429.386	2.18
429.593	2.21
429.8	2.12
430.007	2.21
430.214	2.21
430.421	2.21
430.628	2.12
430.835	2.07
431.042	2.12
431.249	2.09
431.456	2.1
431.662	2.14
431.869	2.23
432.076	2.34
432.283	2.31
432.49	2.28
432.697	2.33
432.903	2.34
433.11	2.34
433.317	2.29
433.524	2.2
433.73	2.28
433.937	2.25
434.144	2.3
434.35	2.22
434.557	2.21
434.764	2.17
434.97	2.27
435.177	2.25
435.384	2.33
435.59	2.29
435.797	2.35
436.003	2.35
436.21	2.35
436.416	2.28
436.623	2.32
436.829	2.27
437.036	2.28
437.242	2.2
437.449	2.23
437.655	2.22
437.862	2.24
438.068	2.27
438.275	2.23
438.481	2.27
438.687	2.39
438.894	2.35
439.1	2.42
439.307	2.38
439.513	2.3
439.719	2.39
439.926	2.35
440.132	2.28
440.338	2.31
440.544	2.26
440.751	2.39
440.957	2.39
441.163	2.42
441.369	2.45
441.575	2.45
441.782	2.47
441.988	2.46
442.194	2.49
442.4	2.54
442.606	2.51
442.812	2.55
443.018	2.6
443.224	2.65
443.431	2.63
443.637	2.56
443.843	2.55
444.049	2.51
444.255	2.44
444.461	2.43
444.667	2.38
444.873	2.41
445.079	2.46
445.284	2.43
445.49	2.43
445.696	2.48
445.902	2.48
446.108	2.5
446.314	2.59
446.52	2.57
446.726	2.57
446.931	2.59
447.137	2.57
447.343	2.58
447.549	2.5
447.755	2.43
447.96	2.39
448.166	2.44
448.372	2.42
448.578	2.48
448.783	2.48
448.989	2.54
449.195	2.58
449.4	2.61
449.606	2.58
449.812	2.64
450.017	2.6
450.223	2.59
450.428	2.61
450.634	2.59
450.84	2.59
451.045	2.59
451.251	2.59
451.456	2.56
451.662	2.52
451.867	2.55
452.073	2.5
452.278	2.49
452.483	2.52
452.689	2.55
452.894	2.54
453.1	2.55
453.305	2.51
453.51	2.59
453.716	2.61
453.921	2.57
454.127	2.51
454.332	2.56
454.537	2.62
454.742	2.65
454.948	2.64
455.153	2.63
455.358	2.7
455.563	2.7
455.769	2.68
455.974	2.61
456.179	2.57
456.384	2.54
456.589	2.56
456.795	2.47
457	2.53
457.205	2.51
457.41	2.51
457.615	2.54
457.82	2.61
458.025	2.56
458.23	2.63
458.435	2.53
458.64	2.57
458.845	2.6
459.05	2.56
459.255	2.5
459.46	2.46
459.665	2.46
459.87	2.52
460.075	2.49
460.28	2.46
460.485	2.55
460.69	2.49
460.895	2.59
461.099	2.52
461.304	2.51
461.509	2.48
461.714	2.5
461.919	2.43
462.123	2.53
462.328	2.49
462.533	2.58
462.738	2.57
462.942	2.62
463.147	2.63
463.352	2.66
463.556	2.68
463.761	2.67
463.966	2.65
464.17	2.71
464.375	2.72
464.58	2.72
464.784	2.69
464.989	2.63
465.193	2.66
465.398	2.66
465.602	2.59
465.807	2.6
466.011	2.64
466.216	2.64
466.42	2.69
466.625	2.71
466.829	2.75
467.034	2.84
467.238	2.85
467.443	2.83
467.647	2.94
467.851	2.95
468.056	2.93
468.26	2.89
468.464	2.84
468.669	2.85
468.873	2.88
469.077	2.88
469.282	2.93
469.486	2.99
469.69	3.02
469.894	3.06
470.099	3.09
470.303	3.07
470.507	3.02
470.711	2.99
470.915	3.01
471.119	3.02
471.324	2.99
471.528	3
471.732	3
471.936	3.04
472.14	3.03
472.344	3.01
472.548	3.06
472.752	3.13
472.956	3.18
473.16	3.24
473.364	3.21
473.568	3.24
473.772	3.3
473.976	3.29
474.18	3.22
474.384	3.16
474.588	3.17
474.792	3.19
474.995	3.19
475.199	3.16
475.403	3.19
475.607	3.24
475.811	3.27
476.015	3.29
476.218	3.31
476.422	3.35
476.626	3.35
476.83	3.34
477.033	3.38
477.237	3.41
477.441	3.42
477.644	3.43
477.848	3.43
478.052	3.46
478.255	3.46
478.459	3.48
478.663	3.48
478.866	3.47
479.07	3.48
479.273	3.42
479.477	3.47
479.681	3.45
479.884	3.41
480.088	3.43
480.291	3.44
480.495	3.45
480.698	3.46
480.901	3.47
481.105	3.55
481.308	3.6
481.512	3.57
481.715	3.59
481.919	3.63
482.122	3.67
482.325	3.7
482.529	3.72
482.732	3.74
482.935	3.77
483.138	3.79
483.342	3.8
483.545	3.82
483.748	3.81
483.952	3.78
484.155	3.79
484.358	3.8
484.561	3.79
484.764	3.79
484.967	3.82
485.171	3.8
485.374	3.84
485.577	3.87
485.78	3.91
485.983	3.93
486.186	3.92
486.389	3.9
486.592	3.92
486.795	3.92
486.998	3.91
487.201	3.88
487.404	3.92
487.607	3.95
487.81	3.97
488.013	4.02
488.216	3.98
488.419	3.96
488.622	3.95
488.825	3.96
489.028	3.98
489.231	4
489.433	3.98
489.636	4
489.839	4.05
490.042	4.08
490.245	4.07
490.447	4.06
490.65	4.09
490.853	4.1
491.056	4.15
491.258	4.18
491.461	4.2
491.664	4.24
491.866	4.32
492.069	4.34
492.272	4.37
492.474	4.38
492.677	4.39
492.879	4.43
493.082	4.46
493.285	4.48
493.487	4.51
493.69	4.53
493.892	4.63
494.095	4.66
494.297	4.72
494.5	4.77
494.702	4.79
494.905	4.82
495.107	4.87
495.309	4.83
495.512	4.89
495.714	4.93
495.917	4.97
496.119	5.04
496.321	5.12
496.524	5.17
496.726	5.24
496.928	5.28
497.13	5.34
497.333	5.35
497.535	5.35
497.737	5.32
497.939	5.35
498.142	5.36
498.344	5.39
498.546	5.44
498.748	5.47
498.95	5.54
499.152	5.57
499.355	5.6
499.557	5.7
499.759	5.77
499.961	5.8
500.163	5.88
500.365	5.9
500.567	5.96
500.769	6.03
500.971	6.02
501.173	6.04
501.375	6.03
501.577	6.05
501.779	6.08
501.981	6.11
502.183	6.09
502.385	6.08
502.587	6.1
502.788	6.12
502.99	6.14
503.192	6.16
503.394	6.19
503.596	6.22
503.798	6.31
503.999	6.35
504.201	6.4
504.403	6.42
504.605	6.48
504.806	6.51
505.008	6.55
505.21	6.56
505.411	6.59
505.613	6.6
505.815	6.58
506.016	6.58
506.218	6.56
506.42	6.61
506.621	6.59
506.823	6.57
507.024	6.57
507.226	6.62
507.427	6.59
507.629	6.61
507.83	6.55
508.032	6.61
508.233	6.61
508.435	6.6
508.636	6.57
508.838	6.6
509.039	6.61
509.24	6.62
509.442	6.55
509.643	6.56
509.845	6.57
510.046	6.58
510.247	6.59
510.448	6.6
510.65	6.63
510.851	6.67
511.052	6.68
511.254	6.66
511.455	6.65
511.656	6.67
511.857	6.65
512.058	6.68
512.26	6.66
512.461	6.71
512.662	6.72
512.863	6.74
513.064	6.72
513.265	6.74
513.466	6.76
513.667	6.77
513.868	6.73
514.069	6.77
514.27	6.78
514.471	6.78
514.672	6.8
514.873	6.81
515.074	6.82
515.275	6.84
515.476	6.83
515.677	6.84
515.878	6.89
516.079	6.9
516.28	6.85
516.481	6.84
516.682	6.84
516.882	6.85
517.083	6.85
517.284	6.83
517.485	6.83
517.686	6.83
517.886	6.82
518.087	6.85
518.288	6.86
518.488	6.86
518.689	6.85
518.89	6.86
519.091	6.88
519.291	6.89
519.492	6.87
519.692	6.87
519.893	6.86
520.094	6.91
520.294	6.88
520.495	6.91
520.695	6.93
520.896	6.89
521.096	6.92
521.297	6.94
521.497	6.92
521.698	6.94
521.898	6.93
522.099	6.94
522.299	6.97
522.499	6.96
522.7	6.98
522.9	6.97
523.101	7.01
523.301	7.01
523.501	7.02
523.702	7.02
523.902	7.03
524.102	7.04
524.302	7.06
524.503	7.03
524.703	7.06
524.903	7.08
525.103	7.11
525.304	7.1
525.504	7.09
525.704	7.08
525.904	7.09
526.104	7.11
526.304	7.12
526.504	7.1
526.705	7.13
526.905	7.16
527.105	7.21
527.305	7.21
527.505	7.21
527.705	7.18
527.905	7.2
528.105	7.2
528.305	7.21
528.505	7.19
528.705	7.24
528.905	7.25
529.105	7.31
529.304	7.32
529.504	7.33
529.704	7.34
529.904	7.34
530.104	7.31
530.304	7.32
530.503	7.31
530.703	7.35
530.903	7.38
531.103	7.35
531.303	7.42
531.502	7.41
531.702	7.41
531.902	7.41
532.101	7.43
532.301	7.43
532.501	7.46
532.7	7.42
532.9	7.49
533.1	7.53
533.299	7.6
533.499	7.62
533.698	7.65
533.898	7.68
534.097	7.69
534.297	7.72
534.496	7.72
534.696	7.69
534.895	7.69
535.095	7.72
535.294	7.73
535.494	7.78
535.693	7.8
535.892	7.83
536.092	7.85
536.291	7.86
536.491	7.88
536.69	7.9
536.889	7.91
537.088	7.9
537.288	7.94
537.487	7.98
537.686	8.02
537.886	8.02
538.085	8.08
538.284	8.11
538.483	8.15
538.682	8.16
538.882	8.17
539.081	8.19
539.28	8.23
539.479	8.24
539.678	8.3
539.877	8.3
540.076	8.31
540.275	8.33
540.474	8.34
540.673	8.37
540.872	8.42
541.071	8.44
541.27	8.48
541.469	8.52
541.668	8.58
541.867	8.63
542.066	8.69
542.265	8.69
542.464	8.7
542.663	8.76
542.862	8.8
543.06	8.83
543.259	8.84
543.458	8.84
543.657	8.9
543.856	8.95
544.054	8.96
544.253	8.98
544.452	8.99
544.651	9.03
544.849	9.03
545.048	9.04
545.247	9.07
545.445	9.08
545.644	9.12
545.843	9.16
546.041	9.21
546.24	9.31
546.438	9.35
546.637	9.42
546.836	9.49
547.034	9.52
547.233	9.59
547.431	9.62
547.63	9.66
547.828	9.67
548.027	9.68
548.225	9.76
548.423	9.82
548.622	9.87
548.82	9.91
549.019	9.96
549.217	10.07
549.415	10.16
549.614	10.16
549.812	10.22
550.01	10.3
550.209	10.42
550.407	10.53
550.605	10.59
550.803	10.63
551.002	10.72
551.2	10.77
551.398	10.8
551.596	10.84
551.794	10.86
551.993	10.89
552.191	10.98
552.389	11.08
552.587	11.16
552.785	11.24
552.983	11.3
553.181	11.35
553.379	11.45
553.577	11.51
553.775	11.55
553.973	11.64
554.171	11.74
554.369	11.81
554.567	11.88
554.765	11.9
554.963	12
555.161	12.1
555.359	12.14
555.557	12.24
555.755	12.32
555.952	12.42
556.15	12.53
556.348	12.59
556.546	12.69
556.744	12.79
556.941	12.87
557.139	12.98
557.337	13.08
557.535	13.2
557.732	13.3
557.93	13.38
558.128	13.45
558.325	13.54
558.523	13.63
558.721	13.72
558.918	13.78
559.116	13.85
559.313	13.98
559.511	14.09
559.708	14.2
559.906	14.28
560.104	14.4
560.301	14.5
560.498	14.62
560.696	14.69
560.893	14.78
561.091	14.88
561.288	15.01
561.486	15.11
561.683	15.22
561.88	15.33
562.078	15.43
562.275	15.55
562.473	15.68
562.67	15.77
562.867	15.86
563.064	16
563.262	16.14
563.459	16.24
563.656	16.36
563.853	16.46
564.051	16.55
564.248	16.63
564.445	16.73
564.642	16.83
564.839	16.98
565.036	17.07
565.234	17.16
565.431	17.28
565.628	17.44
565.825	17.52
566.022	17.62
566.219	17.66
566.416	17.78
566.613	17.9
566.81	18
567.007	18.08
567.204	18.17
567.401	18.28
567.598	18.38
567.795	18.45
567.991	18.56
568.188	18.66
568.385	18.78
568.582	18.89
568.779	18.95
568.976	19.04
569.172	19.1
569.369	19.15
569.566	19.19
569.763	19.25
569.96	19.32
570.156	19.34
570.353	19.43
570.55	19.57
570.746	19.63
570.943	19.72
571.14	19.76
571.336	19.76
571.533	19.85
571.729	19.88
571.926	19.92
572.123	19.95
572.319	20.03
572.516	20.08
572.712	20.14
572.909	20.22
573.105	20.3
573.302	20.33
573.498	20.36
573.695	20.4
573.891	20.42
574.087	20.46
574.284	20.48
574.48	20.47
574.677	20.47
574.873	20.55
575.069	20.58
575.266	20.61
575.462	20.69
575.658	20.75
575.854	20.83
576.051	20.89
576.247	20.87
576.443	20.93
576.639	20.96
576.835	20.91
577.032	20.9
577.228	20.87
577.424	20.86
577.62	20.92
577.816	20.87
578.012	20.91
578.208	21
578.404	21.04
578.6	21.12
578.796	21.13
578.993	21.11
579.189	21.07
579.384	21.02
579.58	21
579.776	20.94
579.972	20.91
580.168	20.86
580.364	20.88
580.56	20.93
580.756	20.95
580.952	20.94
581.148	20.92
581.343	20.9
581.539	20.89
581.735	20.85
581.931	20.87
582.127	20.84
582.322	20.82
582.518	20.86
582.714	20.84
582.909	20.84
583.105	20.81
583.301	20.78
583.496	20.76
583.692	20.73
583.888	20.67
584.083	20.69
584.279	20.75
584.474	20.76
584.67	20.71
584.866	20.75
585.061	20.79
585.257	20.81
585.452	20.81
585.648	20.78
585.843	20.82
586.039	20.85
586.234	20.81
586.429	20.79
586.625	20.74
586.82	20.71
587.015	20.68
587.211	20.72
587.406	20.76
587.601	20.81
587.797	20.85
587.992	20.93
588.187	20.97
588.383	21.02
588.578	20.95
588.773	20.91
588.968	20.96
589.163	20.97
589.359	20.97
589.554	20.98
589.749	20.99
589.944	21.06
590.139	21.13
590.334	21.07
590.529	21.15
590.724	21.16
590.919	21.2
591.114	21.2
591.309	21.21
591.504	21.21
591.699	21.26
591.894	21.26
592.089	21.32
592.284	21.36
592.479	21.41
592.674	21.47
592.869	21.54
593.064	21.59
593.259	21.64
593.454	21.67
593.648	21.71
593.843	21.82
594.038	21.88
594.233	22
594.428	22.13
594.622	22.17
594.817	22.26
595.012	22.35
595.206	22.4
595.401	22.46
595.596	22.5
595.79	22.55
595.985	22.68
596.18	22.79
596.374	22.88
596.569	22.96
596.763	23.05
596.958	23.09
597.153	23.15
597.347	23.19
597.542	23.24
597.736	23.27
597.931	23.36
598.125	23.41
598.319	23.5
598.514	23.59
598.708	23.7
598.903	23.78
599.097	23.88
599.291	23.92
599.486	23.99
599.68	24.02
599.874	24.08
600.069	24.09
600.263	24.08
600.457	24.12
600.651	24.2
600.846	24.21
601.04	24.25
601.234	24.28
601.428	24.31
601.622	24.34
601.817	24.38
602.011	24.41
602.205	24.47
602.399	24.54
602.593	24.53
602.787	24.53
602.981	24.55
603.175	24.52
603.369	24.5
603.563	24.53
603.757	24.47
603.951	24.43
604.145	24.45
604.339	24.5
604.533	24.47
604.727	24.45
604.921	24.39
605.115	24.38
605.309	24.42
605.502	24.4
605.696	24.33
605.89	24.37
606.084	24.37
606.278	24.37
606.471	24.33
606.665	24.3
606.859	24.28
607.053	24.24
607.246	24.16
607.44	24.11
607.634	24.06
607.827	23.94
608.021	23.85
608.214	23.78
608.408	23.69
608.602	23.62
608.795	23.58
608.989	23.52
609.182	23.54
609.376	23.47
609.569	23.4
609.763	23.41
609.956	23.33
610.15	23.2
610.343	23.14
610.537	23.03
610.73	22.99
610.923	22.94
611.117	22.84
611.31	22.77
611.504	22.73
611.697	22.63
611.89	22.56
612.083	22.45
612.277	22.32
612.47	22.21
612.663	22.16
612.856	22.06
613.05	21.98
613.243	21.94
613.436	21.87
613.629	21.86
613.822	21.82
614.015	21.72
614.209	21.69
614.402	21.64
614.595	21.5
614.788	21.43
614.981	21.34
615.174	21.28
615.367	21.23
615.56	21.14
615.753	21.1
615.946	21.12
616.139	21.1
616.332	21
616.525	20.98
616.718	20.96
616.911	20.93
617.103	20.87
617.296	20.78
617.489	20.72
617.682	20.75
617.875	20.65
618.067	20.57
618.26	20.5
618.453	20.44
618.646	20.37
618.838	20.36
619.031	20.3
619.224	20.28
619.417	20.28
619.609	20.26
619.802	20.22
619.994	20.22
620.187	20.17
620.38	20.15
620.572	20.08
620.765	20.05
620.957	20
621.15	19.97
621.342	19.94
621.535	19.86
621.727	19.78
621.92	19.82
622.112	19.75
622.305	19.73
622.497	19.66
622.69	19.64
622.882	19.69
623.074	19.67
623.267	19.58
623.459	19.59
623.651	19.55
623.844	19.59
624.036	19.59
624.228	19.52
624.42	19.55
624.613	19.56
624.805	19.54
624.997	19.53
625.189	19.5
625.381	19.4
625.574	19.38
625.766	19.33
625.958	19.27
626.15	19.29
626.342	19.27
626.534	19.27
626.726	19.32
626.918	19.3
627.11	19.25
627.302	19.25
627.494	19.21
627.686	19.16
627.878	19.09
628.07	19.01
628.262	19
628.454	19.03
628.646	18.97
628.838	18.86
629.029	18.75
629.221	18.71
629.413	18.66
629.605	18.54
629.797	18.44
629.989	18.42
630.18	18.34
630.372	18.4
630.564	18.38
630.755	18.34
630.947	18.37
631.139	18.3
631.33	18.26
631.522	18.32
631.714	18.24
631.905	18.18
632.097	18.19
632.289	18.12
632.48	18.11
632.672	18.07
632.863	17.97
633.055	17.95
633.246	17.96
633.438	17.92
633.629	17.9
633.821	17.89
634.012	17.86
634.203	17.91
634.395	17.92
634.586	17.88
634.777	17.83
634.969	17.84
635.16	17.84
635.351	17.87
635.543	17.84
635.734	17.79
635.925	17.85
636.117	17.87
636.308	17.84
636.499	17.79
636.69	17.8
636.881	17.78
637.073	17.79
637.264	17.74
637.455	17.76
637.646	17.78
637.837	17.78
638.028	17.78
638.219	17.78
638.41	17.76
638.601	17.75
638.792	17.67
638.983	17.59
639.174	17.61
639.365	17.54
639.556	17.52
639.747	17.53
639.938	17.52
640.129	17.52
640.32	17.52
640.511	17.52
640.701	17.47
640.892	17.46
641.083	17.41
641.274	17.36
641.465	17.32
641.655	17.33
641.846	17.27
642.037	17.32
642.228	17.27
642.418	17.23
642.609	17.24
642.8	17.24
642.99	17.24
643.181	17.21
643.372	17.15
643.562	17.19
643.753	17.16
643.943	17.1
644.134	17.05
644.324	17.01
644.515	17.04
644.705	17.07
644.896	17
645.086	16.94
645.277	16.99
645.467	17.01
645.658	16.99
645.848	16.93
646.038	16.83
646.229	16.83
646.419	16.94
646.61	16.85
646.8	16.84
646.99	16.82
647.18	16.8
647.371	16.79
647.561	16.76
647.751	16.71
647.941	16.71
648.132	16.7
648.322	16.69
648.512	16.72
648.702	16.75
648.892	16.75
649.082	16.67
649.272	16.68
649.462	16.64
649.653	16.61
649.843	16.47
650.033	16.38
650.223	16.37
650.413	16.37
650.603	16.27
650.793	16.21
650.983	16.2
651.172	16.2
651.362	16.17
651.552	16.07
651.742	15.99
651.932	15.99
652.122	15.91
652.312	15.76
652.502	15.72
652.691	15.71
652.881	15.69
653.071	15.61
653.261	15.51
653.45	15.5
653.64	15.52
653.83	15.41
654.019	15.25
654.209	15.12
654.399	15.03
654.588	14.92
654.778	14.81
654.968	14.62
655.157	14.44
655.347	14.3
655.536	14.15
655.726	14.03
655.915	13.89
656.105	13.74
656.294	13.66
656.484	13.61
656.673	13.51
656.863	13.36
657.052	13.21
657.241	13.02
657.431	12.84
657.62	12.62
657.809	12.46
657.999	12.27
658.188	12.11
658.377	11.98
658.567	11.82
658.756	11.66
658.945	11.51
659.134	11.29
659.324	11.11
659.513	10.96
659.702	10.77
659.891	10.61
660.08	10.5
660.269	10.4
660.458	10.32
660.648	10.2
660.837	10.1
661.026	9.97
661.215	9.87
661.404	9.66
661.593	9.45
661.782	9.23
661.971	9.05
662.16	8.87
662.349	8.73
662.538	8.66
662.726	8.51
662.915	8.41
663.104	8.29
663.293	8.18
663.482	8.1
663.671	8.01
663.86	7.86
664.048	7.81
664.237	7.72
664.426	7.67
664.615	7.58
664.803	7.4
664.992	7.36
665.181	7.26
665.369	7.17
665.558	7.1
665.747	7.05
665.935	7.02
666.124	7.02
666.312	6.85
666.501	6.74
666.69	6.67
666.878	6.56
667.067	6.48
667.255	6.44
667.444	6.39
667.632	6.42
667.82	6.41
668.009	6.41
668.197	6.43
668.386	6.4
668.574	6.38
668.762	6.34
668.951	6.3
669.139	6.31
669.327	6.3
669.516	6.28
669.704	6.31
669.892	6.21
670.08	6.19
670.269	6.22
670.457	6.17
670.645	6.17
670.833	6.21
671.021	6.17
671.21	6.27
671.398	6.31
671.586	6.34
671.774	6.44
671.962	6.45
672.15	6.46
672.338	6.55
672.526	6.52
672.714	6.58
672.902	6.58
673.09	6.57
673.278	6.54
673.466	6.62
673.654	6.63
673.842	6.69
674.03	6.7
674.218	6.71
674.405	6.8
674.593	6.88
674.781	6.89
674.969	6.88
675.157	6.94
675.344	7.03
675.532	7.1
675.72	7.13
675.908	7.21
676.095	7.34
676.283	7.4
676.471	7.48
676.658	7.53
676.846	7.61
677.033	7.68
677.221	7.75
677.409	7.79
677.596	7.99
677.784	8.03
677.971	8.09
678.159	8.15
678.346	8.22
678.534	8.33
678.721	8.38
678.909	8.42
679.096	8.55
679.283	8.64
679.471	8.78
679.658	8.96
679.846	9.04
680.033	9.24
680.22	9.28
680.408	9.39
680.595	9.49
680.782	9.55
680.969	9.57
681.157	9.66
681.344	9.73
681.531	9.88
681.718	9.98
681.905	10.16
682.093	10.37
682.28	10.63
682.467	10.77
682.654	10.88
682.841	11
683.028	11.27
683.215	11.48
683.402	11.63
683.589	11.79
683.776	11.99
683.963	12.22
684.15	12.44
684.337	12.58
684.524	12.74
684.711	12.95
684.898	13.14
685.085	13.48
685.271	13.74
685.458	14.06
685.645	14.33
685.832	14.65
686.019	15.01
686.205	15.28
686.392	15.52
686.579	15.84
686.766	16.17
686.952	16.62
687.139	16.99
687.326	17.4
687.512	17.86
687.699	18.2
687.886	18.57
688.072	19.04
688.259	19.43
688.445	19.82
688.632	20.28
688.818	20.69
689.005	21.26
689.191	21.79
689.378	22.2
689.564	22.67
689.751	23.2
689.937	23.6
690.124	24.19
690.31	24.72
690.496	25.28
690.683	25.91
690.869	26.57
691.055	27.29
691.242	27.94
691.428	28.51
691.614	29.26
691.8	29.92
691.987	30.61
692.173	31.26
692.359	31.87
692.545	32.57
692.731	33.34
692.918	33.98
693.104	34.61
693.29	35.39
693.476	35.96
693.662	36.66
693.848	37.19
694.034	37.61
694.22	38.3
694.406	39.02
694.592	39.51
694.778	40.17
694.964	40.75
695.15	41.45
695.336	42.24
695.522	42.81
695.708	43.45
695.894	44.13
696.08	44.56
696.265	45.17
696.451	45.86
696.637	46.46
696.823	47.08
697.009	47.6
697.194	48.26
697.38	48.96
697.566	49.49
697.751	50.16
697.937	50.79
698.123	51.41
698.308	51.84
698.494	52.28
698.68	52.84
698.865	53.48
699.051	53.89
699.236	54.37
699.422	54.89
699.607	55.39
699.793	55.85
699.978	56.25
700.164	56.54
700.349	57.04
700.535	57.46
700.72	57.79
700.906	58.29
701.091	58.65
701.276	59.22
701.462	59.68
701.647	60.01
701.832	60.32
702.018	60.57
702.203	60.76
702.388	61.21
702.573	61.62
702.759	61.92
702.944	62.34
703.129	62.55
703.314	62.96
703.499	63.54
703.684	63.89
703.87	64.07
704.055	64.44
704.24	64.67
704.425	65.32
704.61	65.52
704.795	65.76
704.98	65.98
705.165	66.25
705.35	66.4
705.535	66.85
705.72	66.82
705.905	67.2
706.09	67.36
706.275	67.54
706.459	67.95
706.644	68.26
706.829	68.23
707.014	68.59
707.199	68.67
707.384	68.89
707.568	69.24
707.753	69.34
707.938	69.54
708.123	69.64
708.307	69.92
708.492	70.21
708.677	70.61
708.861	70.66
709.046	70.63
709.231	70.92
709.415	71.3
709.6	71.35
709.784	71.45
709.969	71.54
710.153	71.9
710.338	72.23
710.522	72.3
710.707	72.1
710.891	72.39
711.076	72.41
711.26	72.42
711.445	72.32
711.629	72.59
711.813	72.76
711.998	73.04
712.182	73.17
712.366	73.53
712.551	73.7
712.735	73.76
712.919	73.74
713.103	73.82
713.288	74.17
713.472	74.11
713.656	73.76
713.84	73.73
714.024	73.99
714.208	73.93
714.393	73.91
714.577	73.77
714.761	73.82
714.945	74.43
715.129	74.75
715.313	74.89
715.497	75.15
715.681	75.33
715.865	75.51
716.049	75.72
716.233	75.83
716.417	76.01
716.601	76.07
716.785	76.23
716.968	76.16
717.152	76.31
717.336	76.13
717.52	76.12
717.704	76.11
717.888	76.44
718.071	76.37
718.255	76.57
718.439	76.54
718.622	76.93
718.806	76.7
718.99	76.82
719.174	76.48
719.357	76.6
719.541	76.55
719.724	76.75
719.908	76.64
720.092	76.94
720.275	77
720.459	76.95
720.642	77.1
720.826	77.28
721.009	77.06
721.193	77.23
721.376	77.07
721.559	77
721.743	77.12
721.926	76.8
722.11	76.86
722.293	76.67
722.476	76.38
722.66	76.58
722.843	76.58
723.026	76.88
723.21	77.14
723.393	77.25
723.576	77.63
723.759	78.17
723.942	78.09
724.126	78.2
724.309	78.35
724.492	78.51
724.675	78.71
724.858	79.13
725.041	79.04
725.224	79.28
725.407	79.27
725.59	79.09
725.774	79.12
725.957	79.1
726.14	78.66
726.322	78.65
726.505	78.76
726.688	79.13
726.871	78.89
727.054	78.87
727.237	78.57
727.42	78.94
727.603	79.11
727.786	79.42
727.968	79.4
728.151	80.03
728.334	80.13
728.517	80.64
728.699	80.66
728.882	80.9
729.065	80.45
729.248	80.4
729.43	79.99
729.613	79.93
729.796	79.69
729.978	79.79
730.161	80.04
730.343	80.41
730.526	80.47
730.708	80.87
730.891	81.28
731.073	81.58
731.256	81.48
731.438	81.33
731.621	81.99
731.803	82.37
731.986	82.4
732.168	82.25
732.35	82.53
732.533	82.89
732.715	82.98
732.898	82.24
733.08	82.3
733.262	82.6
733.444	82.75
733.627	82.68
733.809	82.74
733.991	82.93
734.173	82.75
734.355	82.76
734.538	82.54
734.72	82.53
734.902	82.46
735.084	82.59
735.266	81.95
735.448	82.58
735.63	82.58
735.812	82.69
735.994	82.58
736.176	82.77
736.358	82.97
736.54	83.19
736.722	82.83
736.904	82.69
737.086	82.27
737.268	82.52
737.45	82.1
737.632	81.75
737.814	81.8
737.995	82.02
738.177	82.38
738.359	82.58
738.541	82.41
738.723	82.85
738.904	82.79
739.086	83.09
739.268	83.2
739.449	83.04
739.631	83.57
739.813	83.82
739.994	83.94
740.176	83.86
740.358	83.82
740.539	83.98
740.721	84.17
740.902	83.81
741.084	83.89
741.265	83.9
741.447	83.96
741.628	83.79
741.81	83.71
741.991	83.75
742.172	83.69
742.354	83.91
742.535	84.08
742.717	84.17
742.898	84.61
743.079	84.48
743.261	84.54
743.442	85.01
743.623	84.71
743.804	84.62
743.986	84.43
744.167	83.56
744.348	84.03
744.529	83.52
744.71	83.03
744.891	83.07
745.073	83.18
745.254	83.55
745.435	84.11
745.616	83.6
745.797	83.73
745.978	84.39
746.159	84.09
746.34	84.11
746.521	83.73
746.702	83.49
746.883	83.46
747.064	83.52
747.245	84.07
747.426	85.06
747.606	85.08
747.787	85.25
747.968	85.77
748.149	85.75
748.33	85.76
748.51	84.8
748.691	84.06
748.872	83.34
749.053	83.33
749.233	83.3
749.414	83.35
749.595	82.98
749.775	83.27
749.956	83.15
750.137	83.68
750.317	83.85
750.498	83.66
750.678	84.1
750.859	84.21
751.04	83.87
751.22	83.74
751.4	83.17
751.581	82.75
751.761	82.96
751.942	83.38
752.122	83.09
752.303	82.83
752.483	83.56
752.663	84.59
752.844	84.36
753.024	84
753.204	82.92
753.385	83.33
753.565	83.23
753.745	82.04
753.925	81.52
754.106	82.09
754.286	82.12
754.466	82.57
754.646	81.85
754.826	82.87
755.006	83.27
755.187	83.07
755.367	82.69
755.547	82.49
755.727	81.73
755.907	83.35
756.087	82.8
756.267	82.09
756.447	82.35
756.627	82.6
756.807	82.72
756.987	84.03
757.167	82.66
757.346	81.79
757.526	82.47
757.706	82.5
757.886	83.19
758.066	82.85
758.246	81.89
758.425	82.3
758.605	82.63
758.785	82.34
758.965	80.4
759.144	79.71
759.324	80.34
759.504	81.06
759.683	80.55
759.863	80.14
760.043	80.5
760.222	81.43
760.402	81.93
760.581	81.27
760.761	79.79
760.94	79.77
761.12	80.17
761.299	80.52
761.479	81.2
761.658	79.94
761.838	80.9
762.017	82
762.197	82.57
762.376	82.69
762.555	82.33
762.735	81.9
762.914	83.25
763.093	82.64
763.273	82.02
763.452	82.27
763.631	81.59
763.81	82.32
763.99	83.21
764.169	83.02
764.348	82.85
764.527	82.4
764.706	82.33
764.885	83.15
765.064	82.71
765.243	81.48
765.423	81.57
765.602	81.19
765.781	82.27
765.96	81.52
766.139	81.63
766.318	81.57
766.497	82.36
766.676	82.06
766.854	81.67
767.033	81.57
767.212	81.34
767.391	81.28
767.57	81.1
767.749	80.65
767.928	79.09
768.106	80.14
768.285	79.2
768.464	79.43
768.643	79.5
768.821	78.9
769	79.52
769.179	80.31
769.357	79.35
769.536	79.96
769.715	79.98
769.893	78.88
770.072	79.39
770.25	78.36
770.429	78.43
770.607	79.4
770.786	79.32
770.964	78.85
771.143	79.68
771.321	78.04
771.5	77.6
771.678	77.81
771.857	76.66
772.035	76.14
772.213	76.4
772.392	76.15
772.57	77.29
772.748	77.82
772.927	78.15
773.105	79.41
773.283	78.81
773.461	78.78
773.64	77.83
773.818	77
773.996	76.98
774.174	77.03
774.352	76.08
774.531	76.17
774.709	77.46
774.887	77.47
775.065	78.01
775.243	79.03
775.421	77.85
775.599	77.84
775.777	78.91
775.955	76.58
776.133	76.9
776.311	76.55
776.489	74.97
776.667	75.31
776.844	75.22
777.022	74.51
777.2	74.51
777.378	74.42
777.556	75.38
777.734	76.09
777.911	76.41
778.089	75.64
778.267	75.98
778.445	75.92
778.622	75.57
778.8	75.51
778.978	75.71
779.155	74.92
779.333	74.85
779.511	74.22
779.688	74
779.866	74.36
780.043	74.1
780.221	74.25
780.398	75.62
780.576	76.02
780.753	75.6
780.931	77.47
781.108	78.16
781.286	76.5
781.463	76.83
781.64	76.61
781.818	75.93
781.995	77.97
782.172	77.61
782.35	76.81
782.527	79.23
782.704	78.8
782.882	78.1
783.059	77.29
783.236	77.04
783.413	76.49
783.59	74.79
783.768	74.04
783.945	74.15
784.122	73.4
784.299	75.53
784.476	74.29
784.653	73.77
784.83	75.1
785.007	73.96
785.184	73.18
785.361	73.97
785.538	73.99
785.715	74.51
785.892	74.39
786.069	74.56
786.246	74.17
786.423	76.13
786.6	77.32
786.776	76.71
786.953	75.04
787.13	75.84
787.307	76.14
787.484	77.87
787.66	73.8
787.837	73.35
788.014	72.64
788.191	72.81
788.367	71.81
788.544	71.41
788.721	69.5
788.897	72.64
789.074	71.56
789.25	72.86
789.427	73.65
789.603	75.61
789.78	76.33
789.956	76.13
790.133	74.85
790.309	73.39
790.486	74.65
790.662	75.85
790.839	77.11
791.015	77.89
791.192	80.17
791.368	83.15
791.544	84.13
791.721	81.2
791.897	81.13
792.073	78.43
792.249	77.64
792.426	77.94
792.602	74.78
792.778	73.44
792.954	72.49
793.13	72.12
793.307	71.76
793.483	72.46
793.659	74.19
793.835	72.47
794.011	73.1
794.187	73.19
794.363	73.67
794.539	72.23
794.715	72.49
794.891	67.48
795.067	68.35
795.243	69.08
795.419	71.97
795.595	69.2
795.771	72.57
795.947	70.43
796.122	71.79
796.298	71.01
796.474	71.55
796.65	71.8
796.826	76.79
797.001	76.19
797.177	75.85
797.353	77.93
797.529	81.86
797.704	79.8
797.88	78.97
798.056	77.14
798.231	75.38
798.407	75.68
798.582	76.6
798.758	74.15
798.934	75.66
799.109	73.77
799.285	72.15
799.46	70.59
799.636	73.12
799.811	73.61
799.986	76.21
800.162	74.91
800.337	73.15
800.513	73.08
800.688	77.11
800.863	75.55
801.039	70.51
801.214	66.81
801.389	66.83
801.565	71
801.74	70.41
801.915	67.14
802.09	64.99
802.265	67.33
802.441	69.22
802.616	71.38
802.791	69.98
802.966	70.17
803.141	69.01
803.316	71.45
803.491	71.49
803.666	73.29
803.841	72.22
804.016	72.73
804.191	71.83
804.366	71.05
804.541	70.39
804.716	68.38
804.891	67.37
805.066	67.42
805.241	62.79
805.416	64.57
805.591	68.06
805.765	68.4
805.94	69.03
806.115	63.51
806.29	60.55
806.464	62.18
806.639	60.36
806.814	59.3
806.989	57.83
807.163	55.78
807.338	59.93
807.512	57.75
807.687	58.87
807.862	59.45
808.036	57.88
808.211	61.7
808.385	60.95
808.56	61.17
808.734	64.76
808.909	64.73
809.083	64.45
809.258	70.54
809.432	66.49
809.606	67.91
809.781	68.7
809.955	72.07
810.13	74.46
810.304	74.42
810.478	73.3
810.652	74.12
810.827	74.06
811.001	74.64
811.175	68.56
811.349	67.2
811.524	67.98
811.698	67.2
811.872	72.19
812.046	74.27
812.22	72.62
812.394	75.17
812.568	74.72
812.742	73.79
812.916	71.11
813.09	65.49
813.264	63.18
813.438	66.69
813.612	68.38
813.786	71.26
813.96	69.93
814.134	73.07
814.308	73.81
814.482	77.26
814.656	73.27
814.83	70.39
815.003	71.4
815.177	74.19
815.351	72.5
815.525	68.82
815.698	64.91
815.872	64.35
816.046	63.02
816.219	60.56
816.393	58.32
816.567	56.19
816.74	60.95
816.914	62.41
817.088	61.78
817.261	61.84
817.435	58.21
817.608	55.29
817.782	56.48
817.955	53.3
818.129	48.49
818.302	48.8
818.475	55.3
818.649	58.68
818.822	63.32
818.996	60.59
819.169	65.12
819.342	68.28
819.516	68.05
819.689	69.12
819.862	68.65
820.035	67.15
820.209	65.53
820.382	58.31
820.555	61.6
820.728	55.24
820.901	54.68
821.075	58.82
821.248	62.39
821.421	64.9
821.594	69.57
821.767	69.03
821.94	73.2
822.113	72.52
822.286	69.99
822.459	71.58
822.632	73.15
822.805	69.21
822.978	66.67
823.151	69.8
823.324	65.37
823.496	57.49
823.669	59.07
823.842	55.42
824.015	59.86
824.188	58.36
824.361	57.96
824.533	60.08
824.706	76.88
824.879	70.66
825.051	75.79
825.224	73.14
825.397	68.97
825.569	68.8
825.742	66.31
825.915	65.3
826.087	60.62
826.26	59.63
826.432	64.09
826.605	65.96
826.777	60.76
826.95	60.97
827.122	59.52
827.295	66.9
827.467	63.26
827.64	54.23
827.812	53.5
827.984	61.79
828.157	65.58
828.329	61.92
828.501	57.96
828.674	58.12
828.846	55.84
829.018	53.49
829.19	51.28
829.363	49.44
829.535	51.19
829.707	51.68
829.879	55.82
830.051	55.23
830.223	52.79
830.395	42.07
830.568	47.76
830.74	50.69
830.912	50.87
831.084	53.5
831.256	55.51
831.428	56.06
831.6	53.82
831.772	50.53
831.943	53.49
832.115	54.86
832.287	49.47
832.459	53.37
832.631	60.09
832.803	72.84
832.975	79.37
833.146	72.97
833.318	70.63
833.49	75.51
833.662	68.15
833.833	72.29
834.005	71.98
834.177	63.41
834.348	61.76
834.52	60.51
834.692	60.51
834.863	57.44
835.035	53.76
835.206	53.61
835.378	51.47
835.549	46.56
835.721	50.24
835.892	46.46
836.064	52.94
836.235	53.62
836.407	47.37
836.578	48.42
836.749	50.34
836.921	45.39
837.092	50.6
837.264	46.61
837.435	43.15
837.606	41.61
837.777	42.3
837.949	40.11
838.12	36.66
838.291	35.26
838.462	37.85
838.633	32.23
838.805	32.45
838.976	31.71
839.147	33.43
839.318	32.88
839.489	27.54
839.66	28.28
839.831	29.11
840.002	33.82
840.173	34
840.344	48.12
840.515	50.59
840.686	62.88
840.857	68.6
841.028	74.95
841.199	68.32
841.369	70.35
841.54	62.53
841.711	68.74
841.882	55.53
842.053	45.28
842.223	38.36
842.394	51.87
842.565	60.27
842.736	62.9
842.906	58.22
843.077	61.95
843.248	75.94
843.418	76.33
843.589	73.21
843.759	71.73
843.93	68.34
844.101	66.1
844.271	53.24
844.442	37.08
844.612	31.85
844.783	23.38
844.953	16.13
845.123	20.44
845.294	10.23
845.464	38.79
845.635	46.18
845.805	40.44
845.975	38.44
846.146	39.25
846.316	45.98
846.486	52.14
846.656	59.28
846.827	49.44
846.997	67.33
847.167	69.39
847.337	74.1
847.507	66.37
847.677	69.7
847.848	52.42
848.018	65.45
848.188	45.51
848.358	54.86
848.528	61.07
848.698	42.54
848.868	29.54
849.038	30.84
849.208	36.76
849.378	50.08
849.548	46.76
849.718	29.85
849.887	43.58
850.057	48.54
850.227	47.96
850.397	26.45
850.567	23.15
850.737	25.64
850.906	34.96
851.076	35.91
851.246	39.18
851.415	39.52
851.585	47.58
851.755	42.06
851.924	50.51
852.094	45.99
852.264	44.87
852.433	43.33
852.603	61.74
852.772	58.09
852.942	53.53
853.111	44.46
853.281	43.21
853.45	42.2
853.62	38.15
853.789	21.56
853.959	17.1
854.128	12.61
854.297	10.2
854.467	3.5
854.636	-3.36
854.805	8.91
854.975	18.68
855.144	31.53
855.313	39.79
855.482	36.39
855.652	41.71
855.821	52.4
855.99	51.76
856.159	56.41
856.328	44.32
856.497	40.66
856.667	40.92
856.836	33.04
857.005	39.36
857.174	44.21
857.343	29.23
857.512	9.16
857.681	6.61
857.85	16.42
858.019	24.9
858.188	-7.27
858.356	-37.13
858.525	-9.09
858.694	15.26
858.863	27.2
859.032	12.15
859.201	2.24
859.369	15.96
859.538	26.54
859.707	39.33
859.876	40.47
860.044	32.91
860.213	31.07
860.382	36.5
860.55	60.14
860.719	67.03
860.888	47.99
861.056	49.13
861.225	64.2
861.393	79.63
861.562	72.6
861.73	64.08
861.899	38.42
862.067	45.23
862.236	36.15
862.404	21.15
862.572	6.52
862.741	9.9
862.909	2.28
863.078	10.02
863.246	14.47
863.414	28.8
863.582	31.48
863.751	48.16
863.919	56.95
864.087	52.67
864.255	52.07
864.424	46.06
864.592	28.7
864.76	48.74
864.928	55.78
865.096	36.31
865.264	48
865.432	56.21
865.6	46.72
865.768	45.57
865.936	27.77
866.104	18.26
866.272	46.8
866.44	12.59
866.608	11.95
866.776	27.97
866.944	25.52
867.112	34.26
867.28	4.25
867.448	6.68
867.615	24.05
867.783	7.81
867.951	4.92
868.119	28.74
868.286	8.61
868.454	35.63
868.622	19.22
868.789	22.67
868.957	36.57
869.125	37.88
869.292	44.04
869.46	50.45
869.627	36.21
869.795	35.19
869.963	38.35
870.13	46.98
870.298	25.72
870.465	6.28
870.632	36.82
870.8	34.89
870.967	26.55
871.135	29.81
871.302	29.45
871.469	43.4
871.637	39.44
871.804	34.18
871.971	39.41
872.139	40.2
872.306	40.09
872.473	13.74
872.64	21.98
872.807	32.5
872.975	58.46
873.142	57.34
873.309	128.25
873.476	185.14
873.643	254.24
873.81	222.72
873.977	111.49
874.144	55.94
874.311	25.35
874.478	-13.34
874.645	-22.18
874.812	-4.63
874.979	-24.46
875.146	-41.66
875.313	-49.89
875.48	0.59
875.647	-55.66
875.813	-66.27
875.98	-65.93
876.147	-8.74
876.314	16.45
876.481	4.08
876.647	12.7
876.814	36.5
876.981	32.72
877.147	13.56
877.314	17.32
877.481	16.68
877.647	30.19
877.814	14.37
877.98	7.47
878.147	32.02
878.314	67.2
878.48	52.31
878.647	92.04
878.813	100.16
878.979	118.04
879.146	80.31
879.312	77.91
879.479	63.49
879.645	48.66
879.811	39.95
879.978	25.05
880.144	33.96
880.31	33.49
880.477	-6.04
880.643	-3.45
880.809	70.07
880.975	-3.79
881.142	7.25
881.308	30.26
881.474	67.46
881.64	69.61
881.806	44.89
881.972	52.86
882.138	47.37
882.304	46.65
882.47	10.11
882.636	-27.31
882.802	-32.95
882.968	-171.26
883.134	-408.21
883.3	-130.59
883.466	-55.66
883.632	-32.18
883.798	-34.42
883.964	-26.78
884.129	-7.28
884.295	21.53
884.461	20.17
884.627	31.48
884.793	7.41
884.958	12.73
885.124	-20.99
885.29	36.27
885.455	29.93
885.621	3.91
885.787	0.33
885.952	5.26
886.118	15.26
886.283	48.46
886.449	7.89
886.614	-5.3
886.78	27.13
886.945	9.52
887.111	4.4
887.276	-1.15
887.442	-1.88
887.607	28.62
887.773	15.18
887.938	26.13
888.103	46.04
888.269	52.88
888.434	65.87
888.599	70.59
888.764	53.69
888.93	75.35
889.095	66.53
889.26	91.76
889.425	102.3
889.59	74.85
889.756	61.8
889.921	62.26
890.086	90.58
890.251	69.15
890.416	29.5
890.581	20.77
890.746	28.29
890.911	-4.44
891.076	-55.07
891.241	-121.57
891.406	-11.64
891.571	3.9
891.736	21.57
891.901	32.19
892.065	51.55
892.23	54.62
892.395	41.29
892.56	-6.02
892.725	4.88
892.889	-69.66
893.054	-109.07
893.219	-148.48
893.384	-165.35
893.548	-470.83
893.713	310.15
893.878	271.2
