Data from Ofra_1a_PS_1GT43_Reflection_2.txt Node
Date: Tue Jul 20 10:45:59 EDT 2021
User: Adam
Spectrometer: FLMT01687
Trigger mode: 0
Integration Time (sec): 1.004000E0
Scans to average: 2
Electric dark correction enabled: true
Nonlinearity correction enabled: false
Boxcar width: 2
XAxis mode: Wavelengths
Number of Pixels in Spectrum: 3648
>>>>>Begin Spectral Data<<<<<
179.494	-447.21
179.716	-585.5
179.937	1003.68
180.158	-1238.85
180.38	153.4
180.601	-24.57
180.823	-65.56
181.044	-218.03
181.265	-372.08
181.486	302.06
181.708	119.01
181.929	-10790.91
182.15	-62.76
182.372	550.25
182.593	605.29
182.814	-344.48
183.035	-66.5
183.257	-17.83
183.478	-10.2
183.699	-31.19
183.92	-83.57
184.141	-88.7
184.363	-72.54
184.584	-92.54
184.805	-33.44
185.026	18.07
185.247	21.14
185.468	19.43
185.689	34.62
185.91	46.42
186.132	44.47
186.353	16.26
186.574	3.85
186.795	5.25
187.016	11.82
187.237	-4.82
187.458	28.54
187.679	60.72
187.9	53.2
188.121	28.88
188.342	19.63
188.563	-3.95
188.784	2.97
189.005	-21.06
189.226	-7.02
189.447	0.35
189.667	-10.47
189.888	-29.4
190.109	-30.66
190.33	-12.25
190.551	-12.46
190.772	-12.2
190.993	-34.69
191.214	-64.42
191.434	-81.13
191.655	-166.21
191.876	-112.82
192.097	-40.38
192.318	16.2
192.538	-33.16
192.759	-14.2
192.98	11.5
193.201	5.68
193.421	-5.24
193.642	8.4
193.863	5.93
194.083	-10.59
194.304	-3.27
194.525	-25.84
194.745	-9.53
194.966	-0.02
195.187	-1.17
195.407	-19.68
195.628	0.88
195.848	-4.02
196.069	-17.87
196.29	-12.83
196.51	-18.71
196.731	-27.05
196.951	-47.39
197.172	-29.08
197.392	-20.64
197.613	1.07
197.833	-0.85
198.054	1.18
198.274	3.9
198.495	-5.68
198.715	-8.84
198.936	2.78
199.156	-1.45
199.377	-11.46
199.597	12.11
199.817	3.61
200.038	-28.87
200.258	5.01
200.479	7.58
200.699	-8.24
200.919	-19.92
201.14	0.2
201.36	-2.12
201.58	-25.79
201.801	-55.81
202.021	-25.34
202.241	-38.04
202.461	-53.19
202.682	-25.4
202.902	-14.48
203.122	-23.95
203.342	-17.57
203.563	-36.04
203.783	-56.29
204.003	-66.91
204.223	-53.14
204.443	-73.21
204.663	-93.22
204.884	-83.39
205.104	-71.25
205.324	-64.54
205.544	-75.87
205.764	-20.34
205.984	-23.67
206.204	-12.49
206.424	-48.47
206.644	-23.33
206.864	-87.33
207.084	-45.82
207.304	-51.49
207.525	-26.6
207.745	-36.75
207.964	-19.2
208.184	-12.29
208.404	-10.33
208.624	-10.78
208.844	-15.99
209.064	-10.35
209.284	-28.61
209.504	-43.67
209.724	-39.76
209.944	-36.74
210.164	-29.93
210.384	-26.35
210.604	-71.88
210.823	-87.21
211.043	-59.22
211.263	-110.05
211.483	-64.89
211.703	-19.97
211.922	-10.69
212.142	-4.82
212.362	2.19
212.582	-12.16
212.801	-22.71
213.021	-28.32
213.241	-49.36
213.461	-47.91
213.68	-26.87
213.9	-29.79
214.12	-24.55
214.339	-18.81
214.559	-12.18
214.779	-19.08
214.998	0.48
215.218	-1.51
215.438	9.61
215.657	1.49
215.877	-13.8
216.096	-3.54
216.316	-3.07
216.535	-22.02
216.755	-24.61
216.974	-21.23
217.194	-58.2
217.413	-51.42
217.633	-38.05
217.852	-22.36
218.072	-12.89
218.291	-5.22
218.511	1.14
218.73	-20.31
218.95	-42.59
219.169	-48.37
219.389	-20.27
219.608	-36.4
219.827	-8.59
220.047	9.42
220.266	-0.82
220.485	-24.25
220.705	-12.03
220.924	-34.16
221.143	-23.66
221.363	-1.11
221.582	-0.02
221.801	4.26
222.021	16.77
222.24	19.53
222.459	51.02
222.678	51.64
222.897	45.79
223.117	39.9
223.336	56.32
223.555	24.15
223.774	17.1
223.993	32.45
224.213	40.31
224.432	15.54
224.651	9.26
224.87	2.75
225.089	2.18
225.308	10.09
225.527	0.71
225.746	2.56
225.965	14.7
226.184	-8.24
226.404	-28.03
226.623	-6.01
226.842	-14.4
227.061	-12.34
227.28	15.16
227.499	20.1
227.718	8.15
227.936	24.88
228.155	24.66
228.374	14.83
228.593	19.92
228.812	21.77
229.031	17.37
229.25	-3.25
229.469	-11.23
229.688	-7.16
229.907	4.07
230.125	-6.86
230.344	3.22
230.563	5.69
230.782	11.77
231.001	2.36
231.22	19.21
231.438	33.31
231.657	39.75
231.876	12.27
232.095	19.17
232.313	6.25
232.532	-8.3
232.751	-30.4
232.969	4.47
233.188	0.57
233.407	2.5
233.625	20.12
233.844	25.02
234.063	8.39
234.281	11.45
234.5	14.75
234.719	-6.52
234.937	-30.65
235.156	-36.45
235.374	-44.25
235.593	-40.22
235.811	-16.55
236.03	5.5
236.249	2
236.467	3.63
236.686	-9.93
236.904	-13.73
237.123	-16.84
237.341	-14.64
237.559	-27.99
237.778	-8.72
237.996	-42.58
238.215	-66.54
238.433	-113.2
238.652	-47.14
238.87	-39.16
239.088	-10.23
239.307	-3.45
239.525	26
239.743	13.52
239.962	-6.67
240.18	-5.66
240.398	-1.78
240.617	-30.93
240.835	-22.72
241.053	-14.42
241.271	-9.89
241.49	-10.26
241.708	-8.07
241.926	-12.89
242.144	8.17
242.363	11.76
242.581	56.95
242.799	41.15
243.017	28.34
243.235	19.69
243.453	0.97
243.672	-10.71
243.89	-13.03
244.108	0.54
244.326	3.33
244.544	21.3
244.762	1.38
244.98	11.72
245.198	-0.01
245.416	-7.54
245.634	-22.49
245.852	-18.11
246.07	-6.08
246.288	-2.64
246.506	-6.17
246.724	-2.42
246.942	-6.73
247.16	-21.04
247.378	-23.99
247.596	7.93
247.814	20.6
248.032	26.65
248.25	54.7
248.468	32.1
248.685	17.52
248.903	7.4
249.121	17.77
249.339	5.41
249.557	-0.68
249.775	-1.15
249.992	4.03
250.21	-5.22
250.428	6.68
250.646	0.98
250.863	-7.06
251.081	-4.89
251.299	6.56
251.517	-2.12
251.734	6.44
251.952	22.29
252.17	11.56
252.387	-11.74
252.605	-22.34
252.823	-17.21
253.04	-18.61
253.258	1.75
253.475	12.46
253.693	13.68
253.911	-0.01
254.128	-7.51
254.346	6.57
254.563	13.97
254.781	20.31
254.998	19.54
255.216	-3.67
255.433	-64.24
255.651	-38.86
255.868	-58.88
256.086	-33.75
256.303	-18.12
256.521	4.36
256.738	-10.56
256.956	-2
257.173	-17.25
257.39	-16.28
257.608	-2.83
257.825	-7.76
258.043	3.59
258.26	5.75
258.477	24.92
258.695	17.74
258.912	15.73
259.129	15.01
259.346	13.79
259.564	1.12
259.781	-8.64
259.998	3.5
260.216	19.49
260.433	12.17
260.65	8.11
260.867	2.41
261.084	13.83
261.302	-6.98
261.519	-2.26
261.736	-0.84
261.953	-2.62
262.17	-1.35
262.387	-3.98
262.604	-6.59
262.822	-3.05
263.039	7.11
263.256	3.12
263.473	-0.62
263.69	16.17
263.907	7.79
264.124	-3.45
264.341	1.28
264.558	9.24
264.775	-6.11
264.992	4.91
265.209	-3.46
265.426	-22.06
265.643	-21.36
265.86	-49.31
266.077	-64.89
266.294	-27.46
266.51	-7.62
266.727	-7.8
266.944	8.77
267.161	19.55
267.378	19.99
267.595	4.76
267.812	-8.96
268.028	-34.39
268.245	-35.64
268.462	-32.23
268.679	-10.91
268.896	17.27
269.112	13.09
269.329	-1.03
269.546	26.58
269.763	12
269.979	-12.97
270.196	6.73
270.413	0.92
270.629	-31
270.846	-28.53
271.063	-13.07
271.279	-5.98
271.496	0.8
271.712	20.2
271.929	9.59
272.146	-7.37
272.362	-11.1
272.579	-8.75
272.795	-18.2
273.012	-4.63
273.228	13.17
273.445	13.89
273.661	7.78
273.878	-11.88
274.094	-29.87
274.311	-20.29
274.527	-53.87
274.744	-41.26
274.96	-10.48
275.177	4.98
275.393	8.12
275.609	22.8
275.826	23.02
276.042	11.02
276.259	5.11
276.475	-5.03
276.691	-9.77
276.908	-2.22
277.124	7.38
277.34	23.3
277.557	12.79
277.773	12.97
277.989	1.08
278.205	12.48
278.422	-0.68
278.638	15.09
278.854	-0.33
279.07	18.58
279.286	-0.33
279.503	2.45
279.719	-9.71
279.935	-7.55
280.151	-30.11
280.367	-17.41
280.583	-23.78
280.799	-19.4
281.016	-46.6
281.232	-19.69
281.448	-22.71
281.664	-8.14
281.88	1.33
282.096	17
282.312	5.7
282.528	10.26
282.744	1.27
282.96	-28.39
283.176	-25.47
283.392	-60.08
283.608	-63.98
283.824	-61.96
284.04	-51.54
284.256	-41.54
284.471	-10.15
284.687	0.96
284.903	6.77
285.119	34.33
285.335	41.88
285.551	45.17
285.767	43.74
285.982	35.87
286.198	-0.31
286.414	-16.74
286.63	-35.82
286.846	-35.61
287.061	-21.06
287.277	-22.88
287.493	-33.1
287.709	-16.85
287.924	-6.66
288.14	10.58
288.356	13.43
288.571	21.62
288.787	2.47
289.003	12.59
289.218	-0.83
289.434	-10.29
289.65	14.86
289.865	29.16
290.081	24.95
290.296	17.25
290.512	19.78
290.727	7.43
290.943	4.5
291.159	-0.77
291.374	-23.23
291.59	-10.52
291.805	-16.46
292.021	-15.96
292.236	-27.23
292.451	6.64
292.667	-3.71
292.882	-0.01
293.098	-3.03
293.313	-0.17
293.529	-2.22
293.744	3.72
293.959	6.34
294.175	-1.74
294.39	-11.98
294.605	-2.64
294.821	-9.53
295.036	-17.05
295.251	-10.02
295.467	-17.24
295.682	-19.46
295.897	-14.3
296.112	-14.57
296.328	-4.51
296.543	-1.65
296.758	6.06
296.973	-2.84
297.188	-1.63
297.404	-31.36
297.619	-16.42
297.834	-74.59
298.049	-52.92
298.264	-41.02
298.479	-56.46
298.694	-18.84
298.909	-2.27
299.125	-3.53
299.34	-0.61
299.555	17.27
299.77	27.44
299.985	20.51
300.2	15.17
300.415	9.61
300.63	18.48
300.845	2.09
301.06	6.58
301.275	10.98
301.49	12.9
301.704	-2.22
301.919	-16.18
302.134	-18.15
302.349	-12.91
302.564	-9.34
302.779	-0.4
302.994	25.1
303.209	12.01
303.423	11.19
303.638	12.2
303.853	-16.27
304.068	-43.19
304.283	-34.04
304.497	-68.34
304.712	-45.19
304.927	-26.68
305.142	-16.97
305.356	0.68
305.571	7.02
305.786	-1.83
306	-0.56
306.215	-15.83
306.43	-34.62
306.644	-30.21
306.859	-34.86
307.074	-15.87
307.288	1.45
307.503	24.01
307.717	13.4
307.932	12.1
308.147	-5.92
308.361	-5.62
308.576	-35.78
308.79	-29.51
309.005	-47.4
309.219	-12.76
309.434	-7.24
309.648	-4.7
309.863	-3.66
310.077	-7.13
310.292	1.51
310.506	-32.42
310.72	-24.08
310.935	5.92
311.149	16.62
311.364	13.3
311.578	30.24
311.792	33.62
312.007	6.74
312.221	-22.32
312.435	-31.42
312.649	-30.1
312.864	-32.11
313.078	-29.36
313.292	-5.88
313.507	-1.55
313.721	10.18
313.935	10.37
314.149	18.79
314.363	23.29
314.578	31.63
314.792	9.14
315.006	12.51
315.22	-0.02
315.434	-12.75
315.648	-23.93
315.862	-7.98
316.077	-20.86
316.291	-23.07
316.505	-50.12
316.719	-25.54
316.933	-27.2
317.147	-10.84
317.361	3.92
317.575	16.84
317.789	9.99
318.003	2.79
318.217	-0.52
318.431	-21.77
318.645	-20.11
318.859	-12.96
319.073	-0.55
319.287	0.35
319.5	6.22
319.714	2.46
319.928	-18.18
320.142	-25.97
320.356	-18.88
320.57	-37.49
320.784	-33.68
320.997	-36.72
321.211	-24.79
321.425	-41.17
321.639	3.59
321.853	5.84
322.066	-3.86
322.28	2.64
322.494	-2.44
322.707	-23
322.921	-27.9
323.135	-10.6
323.349	-17.06
323.562	-9.01
323.776	-4.74
323.989	6.3
324.203	-3.93
324.417	-3.48
324.63	-4.26
324.844	-26.05
325.057	-44.84
325.271	-28.07
325.485	-31.08
325.698	-15.34
325.912	16.39
326.125	7.88
326.339	3.61
326.552	3.33
326.766	-15.7
326.979	-16.77
327.193	-2.93
327.406	-13.81
327.619	-12.04
327.833	-16.54
328.046	-28.79
328.26	-27.01
328.473	-16.2
328.686	-10.56
328.9	2.8
329.113	3.76
329.326	2.57
329.54	4.2
329.753	10.9
329.966	11.81
330.179	14.73
330.393	10.23
330.606	5.07
330.819	4.46
331.032	5.03
331.246	20.27
331.459	41.93
331.672	50.48
331.885	27.64
332.098	37.36
332.311	12.06
332.525	-0.8
332.738	0.57
332.951	6.25
333.164	2.86
333.377	5.11
333.59	-0.32
333.803	-0.69
334.016	6.2
334.229	3.72
334.442	-3.1
334.655	-8.29
334.868	-19.39
335.081	-22.71
335.294	-36.22
335.507	-24.97
335.72	-3.05
335.933	3.7
336.146	12.64
336.359	22.61
336.572	16.77
336.785	10.46
336.997	9.75
337.21	-1.98
337.423	-27.22
337.636	-19.35
337.849	-40.43
338.062	-18.14
338.274	-12.92
338.487	-20.1
338.7	-42.31
338.913	-14.25
339.125	-31.56
339.338	-30.27
339.551	-16.9
339.763	6.3
339.976	-5.42
340.189	-9.83
340.402	-14.17
340.614	-18.54
340.827	-14.59
341.039	-10.68
341.252	-7.1
341.465	-13.3
341.677	-3.48
341.89	-23
342.102	-19.39
342.315	-9.5
342.527	-5.39
342.74	-29.78
342.952	-15.52
343.165	-13.88
343.377	-11.09
343.59	10.44
343.802	35.29
344.015	28.56
344.227	24.52
344.44	18.35
344.652	0.13
344.864	-0.95
345.077	2.88
345.289	8.66
345.502	18.39
345.714	19.83
345.926	13.58
346.139	-2.68
346.351	-18.47
346.563	-11.58
346.775	-13.1
346.988	-2.25
347.2	-9.77
347.412	5.92
347.624	0.68
347.837	15.25
348.049	5.33
348.261	1.48
348.473	-6.01
348.685	-12.31
348.897	-46.75
349.11	-32.97
349.322	-14
349.534	-10.71
349.746	-5.28
349.958	-16.37
350.17	-40.6
350.382	-22.66
350.594	-1.03
350.806	-2.11
351.018	13.85
351.23	33.2
351.442	24.93
351.654	15.31
351.866	12.69
352.078	19.14
352.29	6.48
352.502	8.7
352.714	-1.34
352.926	-6.53
353.138	-6.35
353.35	-19.12
353.561	-26.24
353.773	-18.93
353.985	-6.45
354.197	-1.81
354.409	12.53
354.621	8.67
354.832	11.37
355.044	-8.02
355.256	-18.18
355.468	-26.56
355.679	4.86
355.891	7.31
356.103	9.23
356.314	7.01
356.526	-5.26
356.738	-9.57
356.949	-22.01
357.161	-3.81
357.373	6.37
357.584	10.29
357.796	3.29
358.008	15.18
358.219	12.19
358.431	8.41
358.642	16.25
358.854	21.93
359.065	4.32
359.277	-0.45
359.488	-9.35
359.7	-21.18
359.911	-37.19
360.123	-16.14
360.334	-22.98
360.546	-23.13
360.757	-16.08
360.969	-17.54
361.18	-20.01
361.391	-12.46
361.603	2.58
361.814	3.3
362.025	10.53
362.237	7.88
362.448	19.77
362.659	13.29
362.871	6.29
363.082	8.45
363.293	0.89
363.504	-29.29
363.716	-29.09
363.927	-0.16
364.138	-16.9
364.349	-25.8
364.56	-23.85
364.772	-15.52
364.983	-15.65
365.194	-4.68
365.405	3.3
365.616	0.42
365.827	-5.63
366.038	1.85
366.25	9.93
366.461	19.89
366.672	29.55
366.883	22.11
367.094	13.34
367.305	-4.21
367.516	-17.56
367.727	-30.64
367.938	-17.27
368.149	-24.14
368.36	-23.71
368.571	-34.45
368.781	-32.86
368.992	-39.5
369.203	-33.44
369.414	-28.07
369.625	-16.2
369.836	3.95
370.047	10.13
370.258	17.27
370.468	4.27
370.679	-0.15
370.89	-17.04
371.101	-7.98
371.312	-10.26
371.522	2.26
371.733	6.39
371.944	-9.42
372.155	-11.56
372.365	-14.14
372.576	-6.14
372.787	-8.27
372.997	5.15
373.208	5.29
373.419	6.93
373.629	-5.65
373.84	-14.3
374.05	-17.6
374.261	-36.94
374.472	-32.12
374.682	-19.25
374.893	-18.15
375.103	-0.92
375.314	9.77
375.524	-5.48
375.735	4.46
375.945	11.88
376.156	-1.62
376.366	2.3
376.577	17.58
376.787	10.64
376.997	14.02
377.208	20.09
377.418	14.55
377.629	17.6
377.839	20.25
378.049	23.36
378.26	16.74
378.47	16.16
378.68	8.11
378.89	-1.34
379.101	8.92
379.311	11.93
379.521	10.47
379.732	7.67
379.942	7
380.152	-16.27
380.362	-10.88
380.572	2.12
380.783	6.8
380.993	13.66
381.203	16.38
381.413	22.82
381.623	18.53
381.833	15
382.043	4.39
382.253	2.93
382.463	8.93
382.674	10.76
382.884	21.39
383.094	27.45
383.304	27.53
383.514	19.46
383.724	13.65
383.934	0.9
384.144	-2.54
384.353	-0.01
384.563	3.91
384.773	8.25
384.983	8.35
385.193	10.67
385.403	12.01
385.613	0.49
385.823	-0.89
386.033	-0.15
386.242	-4.26
386.452	-10.72
386.662	-5.06
386.872	-0.49
387.082	-0.93
387.291	-2.39
387.501	0.29
387.711	2.99
387.921	-1.69
388.13	-0.33
388.34	7.41
388.55	6.52
388.759	-0.11
388.969	0.21
389.179	3.61
389.388	0.76
389.598	-2.81
389.807	-4.4
390.017	-3.08
390.227	-8.08
390.436	-8.22
390.646	-4.55
390.855	-2.96
391.065	-2.54
391.274	-0.56
391.484	-1.98
391.693	-3.32
391.903	-4
392.112	-4.41
392.322	-3.61
392.531	-2.63
392.74	-2.68
392.95	1.25
393.159	1.68
393.369	0.84
393.578	1.97
393.787	3.05
393.997	3.11
394.206	1.38
394.415	2.76
394.625	2.55
394.834	1.23
395.043	1.29
395.252	4.21
395.462	3.8
395.671	3.33
395.88	5.29
396.089	5.5
396.298	3.71
396.508	4.39
396.717	4.73
396.926	4.2
397.135	4.05
397.344	4.11
397.553	3.45
397.762	4.78
397.971	5.22
398.181	4.85
398.39	5.14
398.599	5.46
398.808	4.53
399.017	5.07
399.226	5.28
399.435	5.1
399.644	5.47
399.853	5.7
400.062	5
400.27	4.58
400.479	5
400.688	4.7
400.897	4.2
401.106	4.41
401.315	4.73
401.524	4.53
401.733	4.39
401.941	4.79
402.15	4.68
402.359	4.81
402.568	5.01
402.777	5.25
402.985	4.91
403.194	4.8
403.403	4.84
403.612	4.77
403.82	4.53
404.029	4.75
404.238	4.82
404.446	4.81
404.655	4.76
404.864	4.8
405.072	4.76
405.281	4.61
405.489	4.5
405.698	4.5
405.906	4.78
406.115	4.51
406.324	4.67
406.532	4.62
406.741	4.53
406.949	4.36
407.158	4.67
407.366	4.52
407.574	4.66
407.783	4.77
407.991	4.69
408.2	4.65
408.408	4.75
408.617	4.69
408.825	4.63
409.033	4.53
409.242	4.55
409.45	4.51
409.658	4.38
409.867	4.34
410.075	4.48
410.283	4.38
410.491	4.25
410.7	4.27
410.908	4.41
411.116	4.5
411.324	4.46
411.533	4.48
411.741	4.47
411.949	4.4
412.157	4.23
412.365	4.37
412.573	4.37
412.781	4.3
412.99	4.32
413.198	4.34
413.406	4.23
413.614	4.3
413.822	4.49
414.03	4.45
414.238	4.43
414.446	4.55
414.654	4.44
414.862	4.27
415.07	4.1
415.278	4.22
415.486	3.86
415.694	3.82
415.902	3.85
416.109	3.9
416.317	3.71
416.525	3.85
416.733	3.89
416.941	3.84
417.149	3.77
417.357	3.86
417.564	3.76
417.772	3.89
417.98	3.8
418.188	3.7
418.395	3.38
418.603	3.48
418.811	3.29
419.019	3.4
419.226	3.66
419.434	3.85
419.642	3.69
419.849	3.68
420.057	3.52
420.265	3.41
420.472	3.41
420.68	3.57
420.887	3.62
421.095	3.76
421.302	3.73
421.51	3.56
421.717	3.68
421.925	3.68
422.132	3.77
422.34	3.65
422.547	3.74
422.755	3.58
422.962	3.73
423.17	3.55
423.377	3.59
423.585	3.85
423.792	3.89
423.999	3.79
424.207	3.83
424.414	3.81
424.621	3.69
424.829	3.68
425.036	3.66
425.243	3.68
425.451	3.74
425.658	3.51
425.865	3.54
426.072	3.49
426.28	3.63
426.487	3.65
426.694	3.8
426.901	3.79
427.108	3.72
427.315	3.54
427.523	3.49
427.73	3.51
427.937	3.38
428.144	3.48
428.351	3.52
428.558	3.52
428.765	3.52
428.972	3.56
429.179	3.47
429.386	3.46
429.593	3.53
429.8	3.54
430.007	3.5
430.214	3.43
430.421	3.48
430.628	3.53
430.835	3.48
431.042	3.47
431.249	3.75
431.456	3.78
431.662	3.91
431.869	4.08
432.076	4.23
432.283	4.21
432.49	4.25
432.697	4.1
432.903	4.04
433.11	4
433.317	3.96
433.524	3.96
433.73	3.89
433.937	4.02
434.144	3.98
434.35	4.02
434.557	4.06
434.764	4.14
434.97	3.99
435.177	4.22
435.384	4.25
435.59	4.24
435.797	4.35
436.003	4.44
436.21	4.33
436.416	4.34
436.623	4.33
436.829	4.29
437.036	4.08
437.242	4.19
437.449	4.04
437.655	4.19
437.862	4.25
438.068	4.44
438.275	4.39
438.481	4.58
438.687	4.37
438.894	4.49
439.1	4.44
439.307	4.49
439.513	4.47
439.719	4.64
439.926	4.51
440.132	4.67
440.338	4.7
440.544	4.67
440.751	4.56
440.957	4.57
441.163	4.47
441.369	4.47
441.575	4.49
441.782	4.62
441.988	4.66
442.194	4.77
442.4	4.79
442.606	4.9
442.812	4.84
443.018	4.91
443.224	4.95
443.431	4.91
443.637	4.85
443.843	4.94
444.049	4.96
444.255	4.9
444.461	4.87
444.667	4.91
444.873	4.89
445.079	4.78
445.284	4.82
445.49	4.85
445.696	4.8
445.902	4.76
446.108	4.91
446.314	4.91
446.52	4.93
446.726	5.03
446.931	5.04
447.137	5
447.343	5.13
447.549	5.19
447.755	5.14
447.96	5.25
448.166	5.2
448.372	5.07
448.578	4.97
448.783	5
448.989	5.09
449.195	5.03
449.4	5.11
449.606	5.18
449.812	5.17
450.017	5.08
450.223	5.08
450.428	5.03
450.634	5.01
450.84	5.04
451.045	5.05
451.251	5.18
451.456	5.18
451.662	5.31
451.867	5.38
452.073	5.34
452.278	5.32
452.483	5.4
452.689	5.32
452.894	5.27
453.1	5.31
453.305	5.34
453.51	5.33
453.716	5.31
453.921	5.35
454.127	5.34
454.332	5.35
454.537	5.31
454.742	5.38
454.948	5.3
455.153	5.34
455.358	5.32
455.563	5.33
455.769	5.25
455.974	5.28
456.179	5.23
456.384	5.16
456.589	5.16
456.795	5.28
457	5.31
457.205	5.28
457.41	5.31
457.615	5.32
457.82	5.35
458.025	5.41
458.23	5.48
458.435	5.53
458.64	5.68
458.845	5.67
459.05	5.6
459.255	5.54
459.46	5.57
459.665	5.43
459.87	5.4
460.075	5.48
460.28	5.57
460.485	5.64
460.69	5.68
460.895	5.64
461.099	5.52
461.304	5.44
461.509	5.41
461.714	5.5
461.919	5.56
462.123	5.6
462.328	5.55
462.533	5.47
462.738	5.41
462.942	5.32
463.147	5.32
463.352	5.45
463.556	5.57
463.761	5.55
463.966	5.58
464.17	5.69
464.375	5.7
464.58	5.58
464.784	5.64
464.989	5.66
465.193	5.61
465.398	5.6
465.602	5.8
465.807	5.8
466.011	5.88
466.216	5.89
466.42	5.9
466.625	5.94
466.829	5.87
467.034	5.93
467.238	6.02
467.443	5.99
467.647	5.93
467.851	6
468.056	6.05
468.26	6.05
468.464	6.1
468.669	6.1
468.873	6.22
469.077	6.09
469.282	6.06
469.486	6.1
469.69	6.14
469.894	6.12
470.099	6.19
470.303	6.27
470.507	6.32
470.711	6.35
470.915	6.39
471.119	6.39
471.324	6.44
471.528	6.5
471.732	6.55
471.936	6.57
472.14	6.64
472.344	6.73
472.548	6.67
472.752	6.62
472.956	6.62
473.16	6.62
473.364	6.61
473.568	6.61
473.772	6.63
473.976	6.7
474.18	6.77
474.384	6.73
474.588	6.77
474.792	6.79
474.995	6.75
475.199	6.74
475.403	6.81
475.607	6.86
475.811	6.9
476.015	6.84
476.218	6.78
476.422	6.8
476.626	6.76
476.83	6.85
477.033	7
477.237	7.11
477.441	7.04
477.644	7.08
477.848	7.13
478.052	7.14
478.255	7.16
478.459	7.19
478.663	7.35
478.866	7.36
479.07	7.27
479.273	7.27
479.477	7.35
479.681	7.32
479.884	7.25
480.088	7.36
480.291	7.42
480.495	7.51
480.698	7.48
480.901	7.52
481.105	7.52
481.308	7.52
481.512	7.47
481.715	7.63
481.919	7.7
482.122	7.73
482.325	7.79
482.529	7.82
482.732	7.71
482.935	7.71
483.138	7.65
483.342	7.59
483.545	7.66
483.748	7.66
483.952	7.66
484.155	7.82
484.358	7.86
484.561	7.81
484.764	7.84
484.967	7.84
485.171	7.82
485.374	7.76
485.577	7.73
485.78	7.74
485.983	7.72
486.186	7.63
486.389	7.72
486.592	7.76
486.795	7.82
486.998	7.86
487.201	7.91
487.404	8.02
487.607	8.06
487.81	8.02
488.013	8.03
488.216	8.06
488.419	7.95
488.622	7.94
488.825	8.01
489.028	8.05
489.231	8.03
489.433	8.07
489.636	8.03
489.839	7.98
490.042	7.97
490.245	7.99
490.447	7.98
490.65	7.97
490.853	8.01
491.056	7.99
491.258	7.99
491.461	7.92
491.664	7.94
491.866	7.88
492.069	7.96
492.272	7.94
492.474	8.08
492.677	8.12
492.879	8.14
493.082	8.13
493.285	8.2
493.487	8.19
493.69	8.18
493.892	8.23
494.095	8.2
494.297	8.22
494.5	8.15
494.702	8.15
494.905	8.21
495.107	8.22
495.309	8.25
495.512	8.27
495.714	8.32
495.917	8.37
496.119	8.4
496.321	8.34
496.524	8.37
496.726	8.34
496.928	8.3
497.13	8.22
497.333	8.18
497.535	8.26
497.737	8.3
497.939	8.29
498.142	8.42
498.344	8.53
498.546	8.53
498.748	8.65
498.95	8.72
499.152	8.71
499.355	8.7
499.557	8.71
499.759	8.7
499.961	8.7
500.163	8.77
500.365	8.89
500.567	8.87
500.769	8.89
500.971	8.95
501.173	8.9
501.375	8.91
501.577	8.98
501.779	8.93
501.981	8.99
502.183	9
502.385	9
502.587	9.05
502.788	9.15
502.99	9.19
503.192	9.25
503.394	9.29
503.596	9.27
503.798	9.31
503.999	9.31
504.201	9.34
504.403	9.36
504.605	9.44
504.806	9.47
505.008	9.49
505.21	9.53
505.411	9.56
505.613	9.6
505.815	9.59
506.016	9.67
506.218	9.73
506.42	9.83
506.621	9.85
506.823	9.89
507.024	9.83
507.226	9.84
507.427	9.89
507.629	9.89
507.83	9.98
508.032	9.99
508.233	10.04
508.435	10.04
508.636	10.19
508.838	10.23
509.039	10.35
509.24	10.36
509.442	10.42
509.643	10.36
509.845	10.36
510.046	10.37
510.247	10.48
510.448	10.5
510.65	10.58
510.851	10.69
511.052	10.77
511.254	10.81
511.455	10.78
511.656	10.76
511.857	10.76
512.058	10.73
512.26	10.67
512.461	10.72
512.662	10.73
512.863	10.64
513.064	10.7
513.265	10.76
513.466	10.83
513.667	10.92
513.868	10.95
514.069	10.94
514.27	10.96
514.471	10.95
514.672	10.95
514.873	10.96
515.074	10.96
515.275	10.99
515.476	11.04
515.677	11.04
515.878	11.17
516.079	11.25
516.28	11.3
516.481	11.28
516.682	11.26
516.882	11.24
517.083	11.22
517.284	11.21
517.485	11.18
517.686	11.32
517.886	11.34
518.087	11.39
518.288	11.42
518.488	11.46
518.689	11.42
518.89	11.48
519.091	11.61
519.291	11.57
519.492	11.66
519.692	11.7
519.893	11.69
520.094	11.65
520.294	11.75
520.495	11.71
520.695	11.73
520.896	11.73
521.096	11.74
521.297	11.75
521.497	11.75
521.698	11.81
521.898	11.83
522.099	11.89
522.299	11.93
522.499	12
522.7	11.98
522.9	12.06
523.101	11.96
523.301	11.95
523.501	11.97
523.702	11.99
523.902	12.02
524.102	12.18
524.302	12.21
524.503	12.25
524.703	12.27
524.903	12.22
525.103	12.15
525.304	12.17
525.504	12.25
525.704	12.33
525.904	12.36
526.104	12.42
526.304	12.45
526.504	12.41
526.705	12.33
526.905	12.37
527.105	12.38
527.305	12.39
527.505	12.38
527.705	12.43
527.905	12.46
528.105	12.5
528.305	12.54
528.505	12.61
528.705	12.69
528.905	12.76
529.105	12.77
529.304	12.73
529.504	12.75
529.704	12.72
529.904	12.69
530.104	12.69
530.304	12.7
530.503	12.72
530.703	12.77
530.903	12.82
531.103	12.91
531.303	12.99
531.502	13
531.702	13.02
531.902	13.11
532.101	13.13
532.301	13.15
532.501	13.24
532.7	13.31
532.9	13.31
533.1	13.36
533.299	13.43
533.499	13.39
533.698	13.42
533.898	13.46
534.097	13.44
534.297	13.39
534.496	13.43
534.696	13.45
534.895	13.45
535.095	13.53
535.294	13.62
535.494	13.64
535.693	13.66
535.892	13.72
536.092	13.74
536.291	13.79
536.491	13.82
536.69	13.89
536.889	13.86
537.088	13.9
537.288	13.86
537.487	13.9
537.686	13.86
537.886	13.95
538.085	14
538.284	14.12
538.483	14.2
538.682	14.27
538.882	14.22
539.081	14.22
539.28	14.21
539.479	14.22
539.678	14.21
539.877	14.34
540.076	14.37
540.275	14.42
540.474	14.43
540.673	14.48
540.872	14.5
541.071	14.62
541.27	14.72
541.469	14.78
541.668	14.82
541.867	14.86
542.066	14.84
542.265	14.95
542.464	15.06
542.663	15.17
542.862	15.32
543.06	15.42
543.259	15.48
543.458	15.5
543.657	15.53
543.856	15.56
544.054	15.59
544.253	15.56
544.452	15.63
544.651	15.68
544.849	15.71
545.048	15.81
545.247	15.9
545.445	15.95
545.644	16.05
545.843	16.05
546.041	16.05
546.24	16.02
546.438	16.13
546.637	16.15
546.836	16.24
547.034	16.38
547.233	16.49
547.431	16.48
547.63	16.5
547.828	16.58
548.027	16.55
548.225	16.62
548.423	16.77
548.622	16.9
548.82	16.93
549.019	17.04
549.217	17.14
549.415	17.12
549.614	17.27
549.812	17.38
550.01	17.52
550.209	17.69
550.407	17.84
550.605	17.77
550.803	17.88
551.002	18.03
551.2	18.04
551.398	18.13
551.596	18.33
551.794	18.42
551.993	18.41
552.191	18.58
552.389	18.67
552.587	18.8
552.785	18.85
552.983	18.99
553.181	19.03
553.379	19.06
553.577	19.08
553.775	19.29
553.973	19.37
554.171	19.44
554.369	19.63
554.567	19.77
554.765	19.74
554.963	19.87
555.161	20.01
555.359	20.09
555.557	20.16
555.755	20.3
555.952	20.46
556.15	20.63
556.348	20.77
556.546	20.92
556.744	21.06
556.941	20.99
557.139	21
557.337	21.16
557.535	21.26
557.732	21.34
557.93	21.58
558.128	21.71
558.325	21.83
558.523	21.91
558.721	22.09
558.918	22.25
559.116	22.41
559.313	22.49
559.511	22.66
559.708	22.79
559.906	22.92
560.104	23
560.301	23.11
560.498	23.23
560.696	23.32
560.893	23.42
561.091	23.61
561.288	23.77
561.486	23.81
561.683	23.92
561.88	24.05
562.078	24.07
562.275	24.2
562.473	24.38
562.67	24.48
562.867	24.52
563.064	24.69
563.262	24.75
563.459	24.84
563.656	25.06
563.853	25.1
564.051	25.27
564.248	25.4
564.445	25.57
564.642	25.62
564.839	25.88
565.036	26.07
565.234	26.16
565.431	26.28
565.628	26.47
565.825	26.55
566.022	26.58
566.219	26.72
566.416	26.78
566.613	26.86
566.81	26.95
567.007	27
567.204	27.15
567.401	27.3
567.598	27.41
567.795	27.54
567.991	27.59
568.188	27.62
568.385	27.66
568.582	27.72
568.779	27.75
568.976	27.92
569.172	28.06
569.369	28.19
569.566	28.2
569.763	28.17
569.96	28.16
570.156	28.12
570.353	28.16
570.55	28.27
570.746	28.46
570.943	28.56
571.14	28.62
571.336	28.61
571.533	28.66
571.729	28.66
571.926	28.79
572.123	28.93
572.319	29.04
572.516	29.13
572.712	29.08
572.909	28.99
573.105	28.97
573.302	29
573.498	28.92
573.695	29.07
573.891	29.18
574.087	29.17
574.284	29.23
574.48	29.33
574.677	29.4
574.873	29.42
575.069	29.61
575.266	29.66
575.462	29.65
575.658	29.71
575.854	29.7
576.051	29.6
576.247	29.45
576.443	29.49
576.639	29.41
576.835	29.4
577.032	29.37
577.228	29.5
577.424	29.46
577.62	29.42
577.816	29.41
578.012	29.44
578.208	29.42
578.404	29.38
578.6	29.43
578.796	29.51
578.993	29.44
579.189	29.39
579.384	29.41
579.58	29.45
579.776	29.35
579.972	29.46
580.168	29.46
580.364	29.6
580.56	29.4
580.756	29.49
580.952	29.41
581.148	29.43
581.343	29.32
581.539	29.56
581.735	29.55
581.931	29.52
582.127	29.47
582.322	29.42
582.518	29.29
582.714	29.24
582.909	29.28
583.105	29.26
583.301	29.36
583.496	29.36
583.692	29.23
583.888	29.2
584.083	29.16
584.279	29.02
584.474	29.01
584.67	29.11
584.866	29.05
585.061	29.06
585.257	29.15
585.452	29.11
585.648	29.06
585.843	29.11
586.039	29.11
586.234	29.14
586.429	29.11
586.625	29.22
586.82	29.34
587.015	29.39
587.211	29.36
587.406	29.34
587.601	29.34
587.797	29.21
587.992	29.1
588.187	29
588.383	29.08
588.578	29.07
588.773	29.13
588.968	29.36
589.163	29.47
589.359	29.43
589.554	29.36
589.749	29.37
589.944	29.41
590.139	29.38
590.334	29.54
590.529	29.63
590.724	29.71
590.919	29.66
591.114	29.78
591.309	29.67
591.504	29.64
591.699	29.65
591.894	29.63
592.089	29.62
592.284	29.77
592.479	29.91
592.674	30
592.869	30.13
593.064	30.26
593.259	30.28
593.454	30.36
593.648	30.33
593.843	30.33
594.038	30.36
594.233	30.45
594.428	30.52
594.622	30.63
594.817	30.86
595.012	30.86
595.206	30.95
595.401	31.1
595.596	31.19
595.79	31.14
595.985	31.31
596.18	31.47
596.374	31.52
596.569	31.62
596.763	31.72
596.958	31.78
597.153	31.81
597.347	31.77
597.542	31.83
597.736	31.93
597.931	31.95
598.125	31.98
598.319	32.13
598.514	32.12
598.708	32.15
598.903	32.32
599.097	32.38
599.291	32.43
599.486	32.59
599.68	32.69
599.874	32.7
600.069	32.83
600.263	32.97
600.457	33.02
600.651	33.08
600.846	33.2
601.04	33.15
601.234	33.1
601.428	33.13
601.622	33.2
601.817	33.13
602.011	33.24
602.205	33.44
602.399	33.44
602.593	33.55
602.787	33.61
602.981	33.59
603.175	33.45
603.369	33.49
603.563	33.44
603.757	33.49
603.951	33.58
604.145	33.53
604.339	33.5
604.533	33.44
604.727	33.39
604.921	33.33
605.115	33.36
605.309	33.34
605.502	33.34
605.696	33.34
605.89	33.4
606.084	33.43
606.278	33.47
606.471	33.4
606.665	33.31
606.859	33.22
607.053	33.08
607.246	32.95
607.44	32.87
607.634	32.82
607.827	32.79
608.021	32.8
608.214	32.83
608.408	32.7
608.602	32.56
608.795	32.48
608.989	32.38
609.182	32.29
609.376	32.34
609.569	32.38
609.763	32.32
609.956	32.23
610.15	32.14
610.343	32.13
610.537	32.05
610.73	31.84
610.923	31.76
611.117	31.66
611.31	31.46
611.504	31.43
611.697	31.37
611.89	31.34
612.083	31.12
612.277	31.12
612.47	30.99
612.663	31
612.856	30.86
613.05	30.94
613.243	30.79
613.436	30.76
613.629	30.57
613.822	30.59
614.015	30.44
614.209	30.39
614.402	30.28
614.595	30.29
614.788	30.18
614.981	30.1
615.174	29.91
615.367	29.79
615.56	29.58
615.753	29.53
615.946	29.51
616.139	29.52
616.332	29.52
616.525	29.55
616.718	29.4
616.911	29.26
617.103	29.28
617.296	29.11
617.489	29.06
617.682	29.1
617.875	29.16
618.067	28.98
618.26	28.96
618.453	28.96
618.646	28.88
618.838	28.77
619.031	28.7
619.224	28.67
619.417	28.62
619.609	28.61
619.802	28.58
619.994	28.56
620.187	28.46
620.38	28.41
620.572	28.32
620.765	28.25
620.957	28.27
621.15	28.39
621.342	28.33
621.535	28.31
621.727	28.2
621.92	28.15
622.112	28.04
622.305	28.07
622.497	28.02
622.69	28.05
622.882	28.06
623.074	28.11
623.267	28.01
623.459	27.93
623.651	28
623.844	27.96
624.036	27.94
624.228	27.9
624.42	27.91
624.613	27.79
624.805	27.72
624.997	27.6
625.189	27.67
625.381	27.62
625.574	27.59
625.766	27.52
625.958	27.53
626.15	27.46
626.342	27.46
626.534	27.42
626.726	27.36
626.918	27.29
627.11	27.13
627.302	27.01
627.494	27.06
627.686	27.05
627.878	27.03
628.07	27.07
628.262	27.1
628.454	26.98
628.646	26.91
628.838	26.93
629.029	26.86
629.221	26.7
629.413	26.6
629.605	26.56
629.797	26.49
629.989	26.51
630.18	26.6
630.372	26.65
630.564	26.68
630.755	26.57
630.947	26.53
631.139	26.35
631.33	26.29
631.522	26.21
631.714	26.26
631.905	26.26
632.097	26.28
632.289	26.28
632.48	26.28
632.672	26.27
632.863	26.11
633.055	26.21
633.246	26.19
633.438	26.17
633.629	26.08
633.821	26.15
634.012	26.08
634.203	26.1
634.395	26.11
634.586	26.12
634.777	26.03
634.969	25.99
635.16	25.85
635.351	25.71
635.543	25.6
635.734	25.55
635.925	25.51
636.117	25.55
636.308	25.67
636.499	25.69
636.69	25.75
636.881	25.72
637.073	25.72
637.264	25.6
637.455	25.61
637.646	25.49
637.837	25.52
638.028	25.46
638.219	25.58
638.41	25.63
638.601	25.76
638.792	25.74
638.983	25.74
639.174	25.55
639.365	25.53
639.556	25.36
639.747	25.31
639.938	25.33
640.129	25.33
640.32	25.24
640.511	25.29
640.701	25.26
640.892	25.14
641.083	25.15
641.274	25.12
641.465	25.08
641.655	25.02
641.846	25.05
642.037	25.04
642.228	24.95
642.418	24.83
642.609	24.92
642.8	24.87
642.99	24.78
643.181	24.84
643.372	24.95
643.562	24.84
643.753	24.75
643.943	24.64
644.134	24.47
644.324	24.4
644.515	24.38
644.705	24.4
644.896	24.55
645.086	24.58
645.277	24.51
645.467	24.51
645.658	24.41
645.848	24.31
646.038	24.29
646.229	24.24
646.419	24.08
646.61	24.15
646.8	24.09
646.99	24.1
647.18	24
647.371	24.05
647.561	23.93
647.751	23.98
647.941	23.82
648.132	23.82
648.322	23.75
648.512	23.77
648.702	23.77
648.892	23.84
649.082	23.99
649.272	23.97
649.462	24.01
649.653	23.92
649.843	23.82
650.033	23.7
650.223	23.66
650.413	23.52
650.603	23.47
650.793	23.56
650.983	23.49
651.172	23.46
651.362	23.44
651.552	23.4
651.742	23.18
651.932	23.16
652.122	23.09
652.312	23
652.502	22.82
652.691	22.84
652.881	22.77
653.071	22.68
653.261	22.49
653.45	22.42
653.64	22.3
653.83	22.21
654.019	22.05
654.209	22.16
654.399	22.08
654.588	21.94
654.778	21.69
654.968	21.63
655.157	21.41
655.347	21.14
655.536	21.01
655.726	20.87
655.915	20.75
656.105	20.45
656.294	20.38
656.484	20.28
656.673	20.18
656.863	19.94
657.052	19.84
657.241	19.76
657.431	19.59
657.62	19.38
657.809	19.07
657.999	18.97
658.188	18.64
658.377	18.39
658.567	18.26
658.756	18.12
658.945	17.87
659.134	17.64
659.324	17.35
659.513	16.96
659.702	16.77
659.891	16.58
660.08	16.49
660.269	16.29
660.458	16.17
660.648	15.94
660.837	15.71
661.026	15.44
661.215	15.29
661.404	15.07
661.593	14.96
661.782	14.77
661.971	14.61
662.16	14.34
662.349	14.14
662.538	13.93
662.726	13.72
662.915	13.56
663.104	13.43
663.293	13.36
663.482	13.11
663.671	12.97
663.86	12.81
664.048	12.72
664.237	12.57
664.426	12.44
664.615	12.38
664.803	12.25
664.992	12.14
665.181	12
665.369	11.88
665.558	11.7
665.747	11.64
665.935	11.53
666.124	11.53
666.312	11.54
666.501	11.57
666.69	11.49
666.878	11.38
667.067	11.11
667.255	11.04
667.444	10.95
667.632	10.94
667.82	10.9
668.009	10.91
668.197	10.84
668.386	10.67
668.574	10.5
668.762	10.42
668.951	10.42
669.139	10.33
669.327	10.29
669.516	10.37
669.704	10.33
669.892	10.32
670.08	10.37
670.269	10.43
670.457	10.38
670.645	10.18
670.833	10.24
671.021	10.28
671.21	10.29
671.398	10.21
671.586	10.41
671.774	10.43
671.962	10.42
672.15	10.52
672.338	10.66
672.526	10.68
672.714	10.64
672.902	10.57
673.09	10.66
673.278	10.67
673.466	10.74
673.654	10.86
673.842	11.1
674.03	11.08
674.218	11.06
674.405	11.13
674.593	11.05
674.781	11.08
674.969	11.2
675.157	11.42
675.344	11.48
675.532	11.55
675.72	11.52
675.908	11.44
676.095	11.39
676.283	11.6
676.471	11.68
676.658	11.88
676.846	12.03
677.033	12.01
677.221	12.03
677.409	12.16
677.596	12.08
677.784	12.28
677.971	12.35
678.159	12.5
678.346	12.59
678.534	12.73
678.721	12.79
678.909	13.12
679.096	13.12
679.283	13.36
679.471	13.56
679.658	13.63
679.846	13.65
680.033	13.97
680.22	14.09
680.408	14.2
680.595	14.32
680.782	14.49
680.969	14.62
681.157	14.72
681.344	14.81
681.531	15.1
681.718	15.41
681.905	15.48
682.093	15.75
682.28	16.17
682.467	16.4
682.654	16.59
682.841	16.93
683.028	17.03
683.215	17.18
683.402	17.29
683.589	17.48
683.776	17.73
683.963	18.12
684.15	18.44
684.337	18.89
684.524	19.3
684.711	19.72
684.898	19.94
685.085	20.18
685.271	20.52
685.458	20.88
685.645	21.2
685.832	21.7
686.019	22.05
686.205	22.44
686.392	22.72
686.579	23.05
686.766	23.5
686.952	24.13
687.139	24.53
687.326	25.08
687.512	25.59
687.699	26.04
687.886	26.39
688.072	26.9
688.259	27.34
688.445	27.99
688.632	28.51
688.818	29.13
689.005	29.69
689.191	30.43
689.378	30.9
689.564	31.49
689.751	32.16
689.937	33
690.124	33.64
690.31	34.33
690.496	35.14
690.683	35.79
690.869	36.43
691.055	37.21
691.242	37.72
691.428	38.38
691.614	39.23
691.8	39.64
691.987	40.15
692.173	40.92
692.359	41.54
692.545	42.19
692.731	43.11
692.918	43.85
693.104	44.52
693.29	45.33
693.476	45.93
693.662	46.48
693.848	47.17
694.034	48.12
694.22	48.78
694.406	49.51
694.592	50.31
694.778	50.86
694.964	51.38
695.15	51.87
695.336	52.52
695.522	53.22
695.708	54.28
695.894	54.98
696.08	55.84
696.265	56.66
696.451	57.04
696.637	57.85
696.823	58.47
697.009	59.06
697.194	59.67
697.38	60.77
697.566	60.97
697.751	61.69
697.937	62.44
698.123	62.81
698.308	62.96
698.494	63.79
698.68	64.42
698.865	64.79
699.051	65.48
699.236	66.22
699.422	66.54
699.607	67.02
699.793	67.64
699.978	67.89
700.164	68.31
700.349	68.84
700.535	68.99
700.72	69.34
700.906	70.24
701.091	70.61
701.276	70.96
701.462	71.48
701.647	71.81
701.832	72.11
702.018	72.8
702.203	73.24
702.388	73.53
702.573	73.9
702.759	74.15
702.944	73.95
703.129	74.23
703.314	74.37
703.499	74.41
703.684	74.76
703.87	75.45
704.055	75.78
704.24	76.51
704.425	77.21
704.61	77.5
704.795	77.83
704.98	77.96
705.165	78.27
705.35	78.76
705.535	79.08
705.72	79.28
705.905	79.9
706.09	80.06
706.275	80.34
706.459	80.42
706.644	80.62
706.829	80.56
707.014	80.74
707.199	80.93
707.384	81.2
707.568	81.57
707.753	81.79
707.938	82.16
708.123	82.24
708.307	82.48
708.492	82.85
708.677	83.27
708.861	83.23
709.046	83.02
709.231	82.83
709.415	82.57
709.6	82.59
709.784	82.93
709.969	83.47
710.153	83.73
710.338	84.26
710.522	84.64
710.707	84.68
710.891	84.81
711.076	85.09
711.26	85.11
711.445	85.07
711.629	85.26
711.813	85.41
711.998	85.47
712.182	85.11
712.366	85.77
712.551	86.08
712.735	85.95
712.919	86.93
713.103	87.82
713.288	87.68
713.472	87.79
713.656	87.95
713.84	87.33
714.024	87.18
714.208	86.85
714.393	86.75
714.577	87.23
714.761	87.59
714.945	87.83
715.129	87.67
715.313	87.91
715.497	87.65
715.681	87.43
715.865	87
716.049	87.49
716.233	87.47
716.417	87.55
716.601	87.95
716.785	88.16
716.968	88.37
717.152	88.3
717.336	88.73
717.52	88.81
717.704	88.9
717.888	89.18
718.071	89.26
718.255	89.15
718.439	89.03
718.622	90.06
718.806	89.76
718.99	89.68
719.174	89.87
719.357	89.96
719.541	89.68
719.724	89.83
719.908	89.86
720.092	89.47
720.275	89.73
720.459	89.49
720.642	89.52
720.826	90.26
721.009	90.64
721.193	89.8
721.376	89.78
721.559	89.52
721.743	89.37
721.926	89.05
722.11	89.97
722.293	90.6
722.476	90.59
722.66	90.97
722.843	91.15
723.026	91.27
723.21	90.62
723.393	90.9
723.576	90.55
723.759	90.88
723.942	90.9
724.126	91.1
724.309	90.94
724.492	90.53
724.675	90.71
724.858	90.86
725.041	90.49
725.224	91.68
725.407	92.06
725.59	92.06
725.774	92.25
725.957	92.84
726.14	92.05
726.322	92.4
726.505	92.7
726.688	92.58
726.871	93.1
727.054	93.23
727.237	93.49
727.42	93.05
727.603	92.82
727.786	92.37
727.968	92.04
728.151	91.41
728.334	91.63
728.517	91.85
728.699	91.71
728.882	92.28
729.065	92.09
729.248	92.14
729.43	92.44
729.613	92.57
729.796	93.17
729.978	93.47
730.161	93.5
730.343	93.67
730.526	93.99
730.708	93.47
730.891	93.99
731.073	93.76
731.256	93.91
731.438	94.26
731.621	94.54
731.803	94.61
731.986	94.9
732.168	94.49
732.35	94.7
732.533	94.68
732.715	94.59
732.898	94.33
733.08	94.27
733.262	93.51
733.444	94.09
733.627	94.26
733.809	94.72
733.991	95.13
734.173	95.45
734.355	94.64
734.538	95.12
734.72	95.34
734.902	95.46
735.084	95.37
735.266	95.86
735.448	95.54
735.63	96.23
735.812	96.48
735.994	96.67
736.176	96.63
736.358	96.87
736.54	97.21
736.722	95.94
736.904	96.47
737.086	95.75
737.268	96.41
737.45	96.01
737.632	97.04
737.814	97.33
737.995	98.5
738.177	97.92
738.359	97.68
738.541	97.42
738.723	96.71
738.904	96.61
739.086	97.02
739.268	97.47
739.449	97.63
739.631	97.89
739.813	97.48
739.994	96.24
740.176	95.94
740.358	95.88
740.539	95.59
740.721	96.29
740.902	96.94
741.084	96.9
741.265	97.48
741.447	97.77
741.628	97.13
741.81	97.56
741.991	97.81
742.172	97.4
742.354	97.99
742.535	97.99
742.717	97.42
742.898	97.44
743.079	98.42
743.261	97.07
743.442	96.34
743.623	96.61
743.804	95.64
743.986	95.1
744.167	94.98
744.348	95.63
744.529	95.45
744.71	96.14
744.891	95.32
745.073	95.58
745.254	95.8
745.435	96.31
745.616	95.13
745.797	94.59
745.978	94.92
746.159	94.19
746.34	93.46
746.521	94.31
746.702	95.64
746.883	95.39
747.064	96.23
747.245	96.79
747.426	97.41
747.606	97.27
747.787	97.06
747.968	96.05
748.149	95.3
748.33	94.27
748.51	92.71
748.691	93.5
748.872	95.09
749.053	95.19
749.233	95.45
749.414	97.3
749.595	96.92
749.775	95.31
749.956	95.79
750.137	96.21
750.317	94.17
750.498	93.9
750.678	93.99
750.859	93.61
751.04	94.14
751.22	93.99
751.4	94.73
751.581	95.46
751.761	95.69
751.942	95.18
752.122	96.47
752.303	95.34
752.483	94.63
752.663	94.18
752.844	93.56
753.024	94.62
753.204	96.19
753.385	95.9
753.565	95.97
753.745	95.57
753.925	93.73
754.106	93.45
754.286	93.27
754.466	91.78
754.646	92.29
754.826	94.23
755.006	93.08
755.187	94.65
755.367	95.94
755.547	95.48
755.727	94.84
755.907	94.99
756.087	94.95
756.267	94.32
756.447	95.09
756.627	94.98
756.807	96.06
756.987	95.09
757.167	96.33
757.346	94.92
757.526	95.23
757.706	94.5
757.886	93.93
758.066	94.25
758.246	94.72
758.425	92.6
758.605	91.44
758.785	92.75
758.965	91.79
759.144	91.65
759.324	93.33
759.504	95.36
759.683	93.49
759.863	94.56
760.043	94.31
760.222	94.1
760.402	92.79
760.581	93.44
760.761	92.77
760.94	93.14
761.12	91.65
761.299	93.27
761.479	93.68
761.658	93.32
761.838	94.43
762.017	95.98
762.197	92.6
762.376	93.1
762.555	92.11
762.735	91.98
762.914	91.15
763.093	92.5
763.273	90.68
763.452	90.67
763.631	88.95
763.81	89.85
763.99	89.35
764.169	90.96
764.348	91.84
764.527	90.92
764.706	88.4
764.885	89.36
765.064	89.87
765.243	90.1
765.423	91.02
765.602	93.04
765.781	91.73
765.96	90.94
766.139	90.12
766.318	92.44
766.497	91.78
766.676	91.56
766.854	90.55
767.033	91.71
767.212	91.26
767.391	91.7
767.57	93.97
767.749	93.79
767.928	93.36
768.106	91.91
768.285	91.61
768.464	90.54
768.643	90.19
768.821	89.28
769	89.66
769.179	89.69
769.357	89.35
769.536	89.47
769.715	88.28
769.893	87.4
770.072	85.68
770.25	85.55
770.429	86.02
770.607	87.84
770.786	87.75
770.964	89.72
771.143	90.03
771.321	88.72
771.5	89.16
771.678	89.51
771.857	87.99
772.035	88.26
772.213	88.04
772.392	86.52
772.57	85.6
772.748	85.64
772.927	84.8
773.105	87.41
773.283	87.25
773.461	90.12
773.64	91.4
773.818	92.49
773.996	90.55
774.174	90.78
774.352	86.77
774.531	84.94
774.709	83.72
774.887	83.93
775.065	84.13
775.243	85.51
775.421	85.32
775.599	84.54
775.777	84.91
775.955	84.38
776.133	85.59
776.311	85.08
776.489	86.32
776.667	84.16
776.844	83.79
777.022	82.52
777.2	84.25
777.378	82.58
777.556	84.91
777.734	86.57
777.911	87.26
778.089	86.18
778.267	87.33
778.445	89.11
778.622	86.04
778.8	84.55
778.978	85.74
779.155	86.93
779.333	86.49
779.511	88.09
779.688	89.73
779.866	90.25
780.043	91.19
780.221	90.97
780.398	91.1
780.576	89.26
780.753	87.53
780.931	85.65
781.108	84.03
781.286	84.72
781.463	85.56
781.64	85.52
781.818	85.94
781.995	86.39
782.172	84.57
782.35	84.19
782.527	85.06
782.704	83.48
782.882	80.41
783.059	81.89
783.236	83.91
783.413	83.81
783.59	83.63
783.768	85.58
783.945	83.8
784.122	81.03
784.299	79.53
784.476	77.1
784.653	76.58
784.83	74.66
785.007	79.03
785.184	77.36
785.361	81.04
785.538	78.93
785.715	81.19
785.892	76.3
786.069	81.42
786.246	82.44
786.423	86.59
786.6	88.44
786.776	88.76
786.953	85.29
787.13	83.79
787.307	83.28
787.484	80.16
787.66	80.65
787.837	80.21
788.014	79.03
788.191	77.97
788.367	78.51
788.544	77.94
788.721	75.34
788.897	77.06
789.074	77.85
789.25	76.59
789.427	78.32
789.603	78.22
789.78	78.04
789.956	76.63
790.133	76.49
790.309	77.2
790.486	79.39
790.662	80.46
790.839	81.37
791.015	82.71
791.192	78.32
791.368	78.86
791.544	75.85
791.721	71.87
791.897	69.16
792.073	69.86
792.249	70.57
792.426	73.82
792.602	79.24
792.778	80.49
792.954	82.54
793.13	80.98
793.307	79.96
793.483	75.58
793.659	78.3
793.835	78.7
794.011	81.06
794.187	77.48
794.363	79.64
794.539	77.21
794.715	78.16
794.891	77.03
795.067	76.16
795.243	77.8
795.419	77.97
795.595	79.5
795.771	78.37
795.947	75.61
796.122	68.87
796.298	71.62
796.474	73.74
796.65	73.99
796.826	77.75
797.001	80.17
797.177	69.2
797.353	65.59
797.529	63.3
797.704	66.37
797.88	67.2
798.056	77.17
798.231	74.77
798.407	77.56
798.582	76.06
798.758	82.75
798.934	85.28
799.109	86.3
799.285	84.63
799.46	82.12
799.636	72.54
799.811	65.8
799.986	60
800.162	56.81
800.337	57.3
800.513	60.58
800.688	59.62
800.863	68.91
801.039	74.49
801.214	70.5
801.389	72.07
801.565	77.05
801.74	72.44
801.915	71.3
802.09	74.66
802.265	72.06
802.441	72.38
802.616	72.12
802.791	73.13
802.966	72.01
803.141	75.84
803.316	75.22
803.491	76.42
803.666	74.54
803.841	74.02
804.016	70.58
804.191	70.44
804.366	68.26
804.541	74.52
804.716	73.46
804.891	74.96
805.066	71.66
805.241	74.24
805.416	74.94
805.591	78.02
805.765	80.45
805.94	78.17
806.115	77.9
806.29	71.59
806.464	68.63
806.639	64
806.814	63.67
806.989	62.33
807.163	68.61
807.338	68.18
807.512	70.15
807.687	77.18
807.862	82.37
808.036	76.09
808.211	80.38
808.385	77.4
808.56	74.97
808.734	68.58
808.909	68.88
809.083	71.72
809.258	77.48
809.432	76.83
809.606	78.17
809.781	74.13
809.955	68.7
810.13	60.81
810.304	58.58
810.478	58.04
810.652	61.6
810.827	61.99
811.001	65.99
811.175	67.95
811.349	71.14
811.524	70.06
811.698	67.68
811.872	74.01
812.046	69.82
812.22	65.28
812.394	71
812.568	68.96
812.742	61.3
812.916	70.12
813.09	69.44
813.264	61.35
813.438	63.32
813.612	67.18
813.786	59.96
813.96	63.54
814.134	66.22
814.308	63.04
814.482	58.92
814.656	58.79
814.83	58.3
815.003	60.76
815.177	71.1
815.351	73.37
815.525	80.51
815.698	77.14
815.872	71.14
816.046	63.73
816.219	65.64
816.393	61.4
816.567	67.78
816.74	76.85
816.914	79.46
817.088	74.58
817.261	73.93
817.435	66.58
817.608	51.09
817.782	36.37
817.955	42.22
818.129	45.46
818.302	54.18
818.475	62.32
818.649	68.07
818.822	65.69
818.996	81.53
819.169	78.73
819.342	80.76
819.516	89.84
819.689	83.35
819.862	67.35
820.035	65.08
820.209	58.24
820.382	49.14
820.555	48.73
820.728	47.17
820.901	41.77
821.075	30.95
821.248	45.81
821.421	41.84
821.594	47.82
821.767	61.32
821.94	59.13
822.113	60.79
822.286	72.6
822.459	73.04
822.632	69.89
822.805	74.84
822.978	69.15
823.151	61.92
823.324	49.93
823.496	46.64
823.669	55.68
823.842	56.09
824.015	52.11
824.188	55.64
824.361	52.56
824.533	45.51
824.706	35.82
824.879	41.05
825.051	45.69
825.224	50.34
825.397	52.08
825.569	52.79
825.742	55.83
825.915	57.74
826.087	45
826.26	38.56
826.432	40.9
826.605	46.65
826.777	50.32
826.95	64.14
827.122	75.99
827.295	77.02
827.467	51.85
827.64	37.7
827.812	22.58
827.984	17.12
828.157	16.26
828.329	46.04
828.501	44.09
828.674	41.32
828.846	31.85
829.018	36.39
829.19	18.25
829.363	27.66
829.535	37.28
829.707	47.58
829.879	47.29
830.051	55.72
830.223	44.64
830.395	43.37
830.568	37.47
830.74	34.94
830.912	36.66
831.084	41.01
831.256	26.49
831.428	31.24
831.6	22.03
831.772	19.61
831.943	14.29
832.115	23.98
832.287	25.44
832.459	39.42
832.631	54.54
832.803	59.35
832.975	58.65
833.146	51.41
833.318	43.24
833.49	39.31
833.662	45.44
833.833	39.88
834.005	54.17
834.177	68.22
834.348	52.99
834.52	47.84
834.692	38.14
834.863	35.08
835.035	42.8
835.206	45.19
835.378	38.9
835.549	46.76
835.721	44.96
835.892	41.61
836.064	53.34
836.235	61.95
836.407	67.69
836.578	79.13
836.749	63.74
836.921	52.38
837.092	37.22
837.264	25.11
837.435	0.75
837.606	15.04
837.777	32.35
837.949	47.8
838.12	51.21
838.291	60.62
838.462	62.51
838.633	45.32
838.805	35.58
838.976	40.21
839.147	31.79
839.318	33.85
839.489	32.43
839.66	45.85
839.831	41.21
840.002	45.7
840.173	51.32
840.344	51.14
840.515	34.18
840.686	28.71
840.857	34.38
841.028	28.6
841.199	32.15
841.369	26.16
841.54	40.46
841.711	49.62
841.882	49.82
842.053	46.52
842.223	58.74
842.394	50.07
842.565	44.19
842.736	49.34
842.906	33.25
843.077	36.86
843.248	58.51
843.418	37.8
843.589	26.6
843.759	46.59
843.93	51.86
844.101	29.69
844.271	66.09
844.442	67.53
844.612	62.62
844.783	56.29
844.953	50.85
845.123	37.75
845.294	34.36
845.464	31.7
845.635	6.21
845.805	14.48
845.975	38.87
846.146	47.35
846.316	39.29
846.486	67.45
846.656	38.36
846.827	13.4
846.997	19.05
847.167	12.75
847.337	5.84
847.507	18.74
847.677	28.99
847.848	23.49
848.018	34.69
848.188	41.84
848.358	30
848.528	25.64
848.698	2.41
848.868	19.1
849.038	5.99
849.208	25.79
849.378	31.73
849.548	39.58
849.718	27.39
849.887	48.81
850.057	15.49
850.227	20.04
850.397	27.1
850.567	-14.14
850.737	2.89
850.906	-14.74
851.076	-6.61
851.246	6.22
851.415	7.78
851.585	-0.46
851.755	40.02
851.924	37.64
852.094	32.62
852.264	30.29
852.433	30.57
852.603	15.43
852.772	15.74
852.942	49.5
853.111	61.52
853.281	53.56
853.45	37.61
853.62	28.44
853.789	-8.29
853.959	11.18
854.128	12.1
854.297	24.83
854.467	25.48
854.636	32.12
854.805	18.11
854.975	4.37
855.144	-4.73
855.313	-5.46
855.482	-6.84
855.652	-12.72
855.821	-15.2
855.99	-18.62
856.159	-10.1
856.328	-13.69
856.497	15.95
856.667	27.07
856.836	34.11
857.005	35.07
857.174	44.94
857.343	54.92
857.512	62.62
857.681	73.72
857.85	55.24
858.019	33.84
858.188	9.61
858.356	-0.92
858.525	-6.91
858.694	-5.37
858.863	14.7
859.032	17.44
859.201	-41.91
859.369	-25.39
859.538	10.63
859.707	14.47
859.876	24.86
860.044	68.67
860.213	77.01
860.382	60.1
860.55	31.34
860.719	35.89
860.888	19.63
861.056	-9.52
861.225	-13.92
861.393	17.62
861.562	-0.37
861.73	-6.08
861.899	-4.35
862.067	-10.28
862.236	-4.51
862.404	14.09
862.572	-5.52
862.741	-29.32
862.909	-2.22
863.078	-23.3
863.246	-45.34
863.414	10.44
863.582	6.96
863.751	17.94
863.919	47.07
864.087	56.34
864.255	36.28
864.424	67.13
864.592	45.84
864.76	6.72
864.928	33.51
865.096	23.37
865.264	14.8
865.432	1.01
865.6	44.18
865.768	-9.8
865.936	-16.08
866.104	-13.72
866.272	-79.03
866.44	-40.76
866.608	5.36
866.776	25.66
866.944	51.16
867.112	41.55
867.28	19.15
867.448	20.15
867.615	21.67
867.783	-23.76
867.951	-11.44
868.119	-11.68
868.286	1.45
868.454	1.83
868.622	10.9
868.789	18.42
868.957	29.51
869.125	18.88
869.292	14.62
869.46	38.98
869.627	41.71
869.795	-10.27
869.963	-5.87
870.13	-32.07
870.298	-56.39
870.465	-67.75
870.632	-57.63
870.8	-69.62
870.967	-63.01
871.135	-61.1
871.302	-35.47
871.469	0.88
871.637	9.46
871.804	31.78
871.971	31.36
872.139	28.3
872.306	-7.15
872.473	2.07
872.64	-79.7
872.807	-121.31
872.975	-89.57
873.142	-26.29
873.309	-23.43
873.476	35.23
873.643	65.21
873.81	5.94
873.977	-47.53
874.144	-23.8
874.311	-97.65
874.478	-96.18
874.645	-104.02
874.812	9.67
874.979	-40.02
875.146	-39.91
875.313	-41.46
875.48	-5.91
875.647	-25.84
875.813	-44.18
875.98	-39.44
876.147	-142.73
876.314	-89.57
876.481	-79.1
876.647	-15.64
876.814	-18.5
876.981	19.11
877.147	22.4
877.314	12.89
877.481	24.35
877.647	49.8
877.814	42.37
877.98	36.48
878.147	38.58
878.314	33.97
878.48	29.37
878.647	42.78
878.813	87.57
878.979	104.97
879.146	90.45
879.312	93.6
879.479	21.25
879.645	-12.77
879.811	-49.67
879.978	-16.01
880.144	-26.61
880.31	12.73
880.477	22.16
880.643	30.61
880.809	12.73
880.975	3.67
881.142	-139.97
881.308	489.5
881.474	886.72
881.64	-158.69
881.806	-104.58
881.972	23.92
882.138	42.52
882.304	62.77
882.47	19.6
882.636	-39.28
882.802	-57.16
882.968	-44.71
883.134	-26.36
883.3	8.58
883.466	99.32
883.632	144.81
883.798	98.05
883.964	126.12
884.129	-430.13
884.295	-38.31
884.461	-71.45
884.627	-33.08
884.793	-32.22
884.958	28.62
885.124	-7.32
885.29	-46.11
885.455	-113.98
885.621	-56.49
885.787	-73.37
885.952	-80.64
886.118	-10.66
886.283	8.04
886.449	-13.97
886.614	-0.03
886.78	10.91
886.945	-22.2
887.111	-54.07
887.276	-88.75
887.442	-129.1
887.607	-97.75
887.773	-69.24
887.938	-40.36
888.103	-31.3
888.269	-1.71
888.434	15.26
888.599	7.92
888.764	14.75
888.93	31.42
889.095	7.35
889.26	-34.61
889.425	-23.22
889.59	-17.88
889.756	-22.08
889.921	-4.42
890.086	47.26
890.251	43.01
890.416	-0.5
890.581	-2.43
890.746	46.45
890.911	41.77
891.076	31.42
891.241	37.66
891.406	22.78
891.571	10.57
891.736	-33.76
891.901	48.31
892.065	19.62
892.23	47.65
892.395	20.32
892.56	-12.58
892.725	-112.89
892.889	-181.06
893.054	-88.81
893.219	-208.14
893.384	-260.36
893.548	-314.92
893.713	-419.69
893.878	-702.23
