Data from Ofra_1a_PS_OCX5_Reflection_4.txt Node
Date: Tue Jul 20 10:40:36 EDT 2021
User: Adam
Spectrometer: FLMT01687
Trigger mode: 0
Integration Time (sec): 1.004000E0
Scans to average: 2
Electric dark correction enabled: true
Nonlinearity correction enabled: false
Boxcar width: 2
XAxis mode: Wavelengths
Number of Pixels in Spectrum: 3648
>>>>>Begin Spectral Data<<<<<
179.494	-135.03
179.716	-239.69
179.937	380.6
180.158	-281.53
180.38	143.08
180.601	99.17
180.823	7.35
181.044	8.64
181.265	73.99
181.486	190.13
181.708	190.92
181.929	-13981.82
182.15	-16.64
182.372	22.66
182.593	163.23
182.814	-138.2
183.035	-43.46
183.257	37.77
183.478	21.6
183.699	-20.24
183.92	-75.26
184.141	-91.08
184.363	-59.94
184.584	-73.42
184.805	-1.3
185.026	48.67
185.247	46.46
185.468	14.91
185.689	22.15
185.91	-23.63
186.132	-26.71
186.353	-5.31
186.574	18.92
186.795	17.63
187.016	42.13
187.237	42.13
187.458	26.09
187.679	0.05
187.9	13.97
188.121	12.98
188.342	30.81
188.563	71.03
188.784	76.73
189.005	45.58
189.226	31.14
189.447	29.99
189.667	0.98
189.888	-8.33
190.109	-9.82
190.33	8.51
190.551	-22.08
190.772	-36.74
190.993	-71.14
191.214	-67.18
191.434	-129.96
191.655	-112.57
191.876	-7.19
192.097	44.77
192.318	61.77
192.538	69.75
192.759	56.54
192.98	46.29
193.201	27.31
193.421	12.1
193.642	22.5
193.863	20.47
194.083	28.16
194.304	27.07
194.525	12.95
194.745	-2.05
194.966	3.12
195.187	-1.46
195.407	-3.52
195.628	21.85
195.848	27.23
196.069	25.22
196.29	16.05
196.51	16.78
196.731	1.62
196.951	-15.93
197.172	-8.33
197.392	-1.76
197.613	14.55
197.833	13.42
198.054	21.14
198.274	33.58
198.495	27.92
198.715	16.66
198.936	30.14
199.156	47.17
199.377	23.15
199.597	47.34
199.817	58.76
200.038	44.61
200.258	31.1
200.479	66.94
200.699	46.98
200.919	30.26
201.14	20.89
201.36	36.71
201.58	-1.25
201.801	-14.05
202.021	-12.44
202.241	-21.99
202.461	-34.05
202.682	4.19
202.902	14.92
203.122	32.08
203.342	35.15
203.563	30.39
203.783	5.42
204.003	-15.58
204.223	-4.08
204.443	16.3
204.663	8.87
204.884	1.72
205.104	16.39
205.324	1.57
205.544	-42.45
205.764	-5.84
205.984	5.18
206.204	23.35
206.424	0.89
206.644	16.34
206.864	2.17
207.084	17.67
207.304	3.53
207.525	28.57
207.745	36.35
207.964	53.9
208.184	48.57
208.404	40.36
208.624	32.87
208.844	40.48
209.064	29.78
209.284	24.27
209.504	24.21
209.724	11.45
209.944	-1.73
210.164	-12.67
210.384	-5.81
210.604	-41.33
210.823	-27.83
211.043	-20.01
211.263	-72.75
211.483	-43.65
211.703	8.74
211.922	-8.94
212.142	16.98
212.362	32.63
212.582	23.29
212.801	18.25
213.021	11.09
213.241	-29.45
213.461	-21.45
213.68	15.46
213.9	-3.02
214.12	19.08
214.339	32.97
214.559	45.18
214.779	39.14
214.998	40.28
215.218	27.32
215.438	24.84
215.657	-19.79
215.877	-34.73
216.096	-6.19
216.316	-7.78
216.535	-20.59
216.755	-1.77
216.974	10.64
217.194	-16.82
217.413	-20.13
217.633	-10.4
217.852	7.11
218.072	8.15
218.291	20.31
218.511	19.26
218.73	10.5
218.95	7.47
219.169	-1.44
219.389	8.29
219.608	13.13
219.827	22.42
220.047	24.37
220.266	0.58
220.485	-10.07
220.705	-2.65
220.924	5.29
221.143	10.87
221.363	35.48
221.582	27.2
221.801	43.5
222.021	34.74
222.24	47.36
222.459	51.9
222.678	47.7
222.897	41.74
223.117	43.27
223.336	45.62
223.555	35.24
223.774	44.99
223.993	63.57
224.213	55.72
224.432	58.99
224.651	47.45
224.87	40.61
225.089	30.06
225.308	46.23
225.527	12.69
225.746	5.84
225.965	10.05
226.184	-22.96
226.404	-27.77
226.623	-7.06
226.842	6.92
227.061	19.04
227.28	42.86
227.499	31.84
227.718	31.14
227.936	28.71
228.155	18.71
228.374	9.19
228.593	16.36
228.812	14.85
229.031	18.57
229.25	1.16
229.469	-10.45
229.688	-0.32
229.907	7.31
230.125	13.72
230.344	34.62
230.563	41.67
230.782	36.69
231.001	48.1
231.22	32.81
231.438	41.24
231.657	33.47
231.876	19.62
232.095	3.12
232.313	-6.05
232.532	-22.47
232.751	-35.35
232.969	-22.97
233.188	-21.48
233.407	-6.34
233.625	-2.42
233.844	14.48
234.063	17.67
234.281	29.69
234.5	33.56
234.719	30.56
234.937	12.25
235.156	6.98
235.374	5.45
235.593	0.25
235.811	9.51
236.03	7.94
236.249	22.67
236.467	27.47
236.686	17.38
236.904	14.62
237.123	30.79
237.341	21.18
237.559	5.4
237.778	35.45
237.996	18.12
238.215	-21.38
238.433	-62.16
238.652	-20.5
238.87	-27.66
239.088	-11.96
239.307	14.58
239.525	33.81
239.743	32.89
239.962	22.07
240.18	28.26
240.398	24.69
240.617	-8.16
240.835	10.1
241.053	12.79
241.271	21.22
241.49	27.98
241.708	25.86
241.926	-0.72
242.144	5.34
242.363	-13.65
242.581	-60.18
242.799	-48.41
243.017	-24.39
243.235	-10.13
243.453	-31.05
243.672	0.71
243.89	13.05
244.108	31.21
244.326	49.22
244.544	59.67
244.762	52.67
244.98	65.88
245.198	71.34
245.416	54.09
245.634	51.43
245.852	38.34
246.07	29.03
246.288	20.42
246.506	16.33
246.724	21.69
246.942	30.49
247.16	31.82
247.378	30.71
247.596	50.89
247.814	39.55
248.032	25.05
248.25	19.48
248.468	22.55
248.685	25.97
248.903	24.55
249.121	28.52
249.339	26.31
249.557	16.19
249.775	0.51
249.992	5.11
250.21	3.97
250.428	12.08
250.646	23.43
250.863	28.66
251.081	33.51
251.299	42.3
251.517	48.78
251.734	39.99
251.952	24.05
252.17	17.22
252.387	-1.56
252.605	-7.41
252.823	-18.44
253.04	20.61
253.258	22.01
253.475	26.79
253.693	18.84
253.911	5.7
254.128	-13.54
254.346	-2.28
254.563	9.29
254.781	4.28
254.998	14.55
255.216	1.61
255.433	-40.42
255.651	-49.57
255.868	-41.95
256.086	-48.94
256.303	-25.22
256.521	-13.75
256.738	-28.69
256.956	-9.52
257.173	1.24
257.39	10.39
257.608	9.24
257.825	21.22
258.043	16.64
258.26	17.85
258.477	9.91
258.695	11.81
258.912	13.26
259.129	5.25
259.346	19.22
259.564	42.49
259.781	45.15
259.998	38.93
260.216	35.13
260.433	19.04
260.65	8.15
260.867	11.81
261.084	0.39
261.302	-6.92
261.519	-6.46
261.736	-5.92
261.953	3.2
262.17	29.24
262.387	24.98
262.604	29.85
262.822	42.98
263.039	37.06
263.256	27.49
263.473	29.9
263.69	31.06
263.907	20.64
264.124	20.28
264.341	20.09
264.558	31.1
264.775	29.77
264.992	37.11
265.209	23.93
265.426	29.52
265.643	9.96
265.86	8.51
266.077	-3.96
266.294	0.84
266.51	12.17
266.727	13.07
266.944	11.44
267.161	19.84
267.378	30.76
267.595	28.37
267.812	22.66
268.028	29.61
268.245	23.48
268.462	17.32
268.679	26.56
268.896	49.58
269.112	41.92
269.329	25.94
269.546	56.52
269.763	41.74
269.979	24.44
270.196	37.1
270.413	39.12
270.629	-3.07
270.846	-9.78
271.063	5.07
271.279	-5.38
271.496	7.19
271.712	21.53
271.929	25.43
272.146	2.82
272.362	7.43
272.579	4.56
272.795	11.44
273.012	23.77
273.228	47.29
273.445	48.51
273.661	46.23
273.878	48.16
274.094	40.52
274.311	24.24
274.527	28.46
274.744	27.45
274.96	18.46
275.177	20.99
275.393	28.35
275.609	37.95
275.826	43.56
276.042	38.92
276.259	38.99
276.475	24.77
276.691	0.54
276.908	-3.87
277.124	6.87
277.34	7.6
277.557	13.24
277.773	15.23
277.989	8.61
278.205	5.52
278.422	-17.11
278.638	-22.19
278.854	-16.43
279.07	-2.41
279.286	1.77
279.503	22.16
279.719	37.97
279.935	36.33
280.151	31.89
280.367	29.3
280.583	19.04
280.799	10.63
281.016	-13.22
281.232	-4.88
281.448	-12.85
281.664	-12.41
281.88	1.54
282.096	22.83
282.312	18.13
282.528	22.78
282.744	39.8
282.96	22.81
283.176	4.93
283.392	-25.53
283.608	-21.99
283.824	-79.72
284.04	-139.97
284.256	-73.96
284.471	-34.76
284.687	-35.52
284.903	-7.89
285.119	14.59
285.335	16.36
285.551	14.69
285.767	15.86
285.982	12.62
286.198	6.52
286.414	0.38
286.63	5.12
286.846	31.23
287.061	23.96
287.277	24.16
287.493	32.13
287.709	39.73
287.924	42.77
288.14	49.49
288.356	57.46
288.571	62.2
288.787	42.01
289.003	50.45
289.218	18.08
289.434	10.11
289.65	18.1
289.865	16.71
290.081	-1.49
290.296	13.36
290.512	-7.95
290.727	-23.65
290.943	-9.48
291.159	-5.27
291.374	-23.96
291.59	6.18
291.805	0.03
292.021	5
292.236	-2.19
292.451	14.83
292.667	17.98
292.882	26.16
293.098	35.31
293.313	28.59
293.529	36.36
293.744	16.49
293.959	24.16
294.175	15.23
294.39	6.02
294.605	6.2
294.821	3.39
295.036	-9.47
295.251	-5.18
295.467	-5.23
295.682	-5.08
295.897	2.3
296.112	11.84
296.328	8.87
296.543	9.86
296.758	7.76
296.973	3.18
297.188	3.05
297.404	-16.19
297.619	-17.31
297.834	-35.58
298.049	-14.14
298.264	-18.47
298.479	7.82
298.694	25.58
298.909	39.78
299.125	24.03
299.34	33.65
299.555	36.43
299.77	41.49
299.985	39.44
300.2	47.31
300.415	42.04
300.63	23.22
300.845	6.34
301.06	-11.1
301.275	-11.3
301.49	-10.02
301.704	14.73
301.919	9.38
302.134	23.44
302.349	20.76
302.564	13.69
302.779	-10.56
302.994	7.11
303.209	0.72
303.423	-0.14
303.638	11.48
303.853	10.19
304.068	2.76
304.283	23.06
304.497	16.75
304.712	21.14
304.927	30.71
305.142	32.86
305.356	23.91
305.571	24.41
305.786	13.81
306	20.17
306.215	15.46
306.43	5.49
306.644	6.11
306.859	-20.96
307.074	-25.96
307.288	-15.75
307.503	3.75
307.717	2.92
307.932	27.74
308.147	28.25
308.361	32.56
308.576	25.41
308.79	30.65
309.005	22.32
309.219	27.89
309.434	33.87
309.648	37.48
309.863	32.79
310.077	30.68
310.292	30.75
310.506	1.42
310.72	-3.71
310.935	-3.43
311.149	1.47
311.364	3.68
311.578	21.73
311.792	28.15
312.007	26.85
312.221	13.89
312.435	-4.59
312.649	-3.56
312.864	-44.76
313.078	-34.94
313.292	-17.15
313.507	-15.53
313.721	-16.71
313.935	27.67
314.149	19
314.363	19.39
314.578	13.05
314.792	-7.81
315.006	-5.87
315.22	9.35
315.434	0.9
315.648	-2.49
315.862	3.08
316.077	-10.97
316.291	-18.98
316.505	-43.72
316.719	-19.58
316.933	-8.72
317.147	10.69
317.361	12.91
317.575	12.11
317.789	7.8
318.003	16.87
318.217	21.48
318.431	21.4
318.645	24.74
318.859	31.65
319.073	29.28
319.287	22.99
319.5	24.17
319.714	22.16
319.928	17.58
320.142	21.87
320.356	22.23
320.57	22.55
320.784	37.36
320.997	21.55
321.211	16.08
321.425	13.46
321.639	20.44
321.853	15.79
322.066	13.57
322.28	10.82
322.494	11
322.707	-0.53
322.921	-8.45
323.135	4.42
323.349	4.28
323.562	8.73
323.776	13.57
323.989	24.58
324.203	9.5
324.417	15.58
324.63	11.95
324.844	0.35
325.057	-27.44
325.271	-12.79
325.485	-12
325.698	-3.89
325.912	8.15
326.125	22.78
326.339	32.29
326.552	17.58
326.766	11.92
326.979	10.71
327.193	15.51
327.406	6.65
327.619	17.82
327.833	4.16
328.046	19.5
328.26	7.62
328.473	18.93
328.686	26.62
328.9	50.34
329.113	40.74
329.326	44.94
329.54	30.17
329.753	21.04
329.966	10.27
330.179	-1.84
330.393	-2.76
330.606	3.67
330.819	-15.05
331.032	5.22
331.246	24.54
331.459	35.29
331.672	39.58
331.885	53.97
332.098	52.73
332.311	31.23
332.525	17.96
332.738	22.82
332.951	21.09
333.164	16.52
333.377	28.53
333.59	32.02
333.803	23.92
334.016	30.92
334.229	17.62
334.442	7.02
334.655	16.44
334.868	0.56
335.081	0.67
335.294	-5.77
335.507	10.21
335.72	4.88
335.933	18.9
336.146	27.12
336.359	31.59
336.572	21.32
336.785	18.59
336.997	-1.12
337.21	-8.7
337.423	-33.89
337.636	-18.63
337.849	-5.33
338.062	15.32
338.274	8.52
338.487	5.92
338.7	-3.86
338.913	-4.57
339.125	-15.26
339.338	-9.36
339.551	5.76
339.763	14.54
339.976	19.62
340.189	23.38
340.402	41.78
340.614	48.27
340.827	42.4
341.039	41.07
341.252	30.94
341.465	5.43
341.677	-5.91
341.89	-4.41
342.102	-11.85
342.315	-5.92
342.527	19.64
342.74	12.03
342.952	18.25
343.165	21.74
343.377	28.27
343.59	31.37
343.802	35.49
344.015	36.4
344.227	39.54
344.44	34.62
344.652	21.16
344.864	31.93
345.077	36.76
345.289	38.17
345.502	47.98
345.714	43.03
345.926	40.1
346.139	16.6
346.351	20.56
346.563	18.13
346.775	26
346.988	16.2
347.2	20.48
347.412	12.04
347.624	8.95
347.837	16.51
348.049	13.77
348.261	7.77
348.473	3.02
348.685	-8.5
348.897	-4.5
349.11	4.33
349.322	8.57
349.534	9.91
349.746	24.36
349.958	-2.42
350.17	-10.36
350.382	-6.18
350.594	4.1
350.806	1.98
351.018	14.29
351.23	24.45
351.442	29.95
351.654	27.19
351.866	33.05
352.078	34.31
352.29	29.85
352.502	25.84
352.714	33.04
352.926	15.01
353.138	28.53
353.35	24.15
353.561	33.61
353.773	28.81
353.985	36.73
354.197	29.49
354.409	24.44
354.621	8.71
354.832	7
355.044	-11.41
355.256	-16.48
355.468	-5.31
355.679	17.94
355.891	19.08
356.103	33.55
356.314	35
356.526	28.45
356.738	11.56
356.949	19.99
357.161	13.95
357.373	10.13
357.584	16.45
357.796	19.48
358.008	12.15
358.219	15.48
358.431	12.46
358.642	9.03
358.854	20.52
359.065	19.94
359.277	13.16
359.488	13.37
359.7	25.67
359.911	19.24
360.123	27.16
360.334	30.36
360.546	13.1
360.757	4.45
360.969	7.77
361.18	4.29
361.391	10.71
361.603	28.83
361.814	32.4
362.025	28.62
362.237	24.59
362.448	27.86
362.659	22.15
362.871	1.74
363.082	-7.51
363.293	-21.63
363.504	-57.28
363.716	-62.09
363.927	-21.19
364.138	-38.61
364.349	-33.52
364.56	-23.22
364.772	-10.66
364.983	-4.53
365.194	15.93
365.405	22.3
365.616	42.63
365.827	39.93
366.038	41.08
366.25	33.62
366.461	41.45
366.672	20.81
366.883	23.41
367.094	15.16
367.305	-2
367.516	-15.71
367.727	-6.64
367.938	-16.05
368.149	-15.66
368.36	-9.71
368.571	-6.08
368.781	-16.03
368.992	-6.47
369.203	-18.06
369.414	-19.09
369.625	-20.81
369.836	0.4
370.047	8.05
370.258	20.85
370.468	20.74
370.679	35.53
370.89	27.96
371.101	15.97
371.312	12.76
371.522	19.29
371.733	8.24
371.944	-8.37
372.155	15.69
372.365	15.9
372.576	11.66
372.787	17.12
372.997	17.43
373.208	-1.7
373.419	-2
373.629	-7.13
373.84	-29.44
374.05	-17.43
374.261	-30.13
374.472	-14.89
374.682	-19.21
374.893	-10.7
375.103	-9.53
375.314	-2.12
375.524	-13
375.735	-5.69
375.945	-5.42
376.156	3.47
376.366	3.07
376.577	4.55
376.787	10.01
376.997	16.61
377.208	7.98
377.418	12.92
377.629	15.23
377.839	20.36
378.049	20.75
378.26	16.98
378.47	7.67
378.68	11.36
378.89	1.45
379.101	1.74
379.311	3.54
379.521	2.74
379.732	3.47
379.942	5.07
380.152	-5
380.362	-5.85
380.572	1.76
380.783	5.85
380.993	11.12
381.203	15.96
381.413	19.74
381.623	22.08
381.833	19.63
382.043	16.9
382.253	21.41
382.463	27.18
382.674	28.52
382.884	32.27
383.094	31.04
383.304	30.74
383.514	25.95
383.724	18.92
383.934	2.4
384.144	9.86
384.353	4.79
384.563	3.77
384.773	12.59
384.983	15.54
385.193	8.22
385.403	9.89
385.613	11.36
385.823	5.1
386.033	4.28
386.242	0.78
386.452	-2.45
386.662	-4.05
386.872	2.01
387.082	7.49
387.291	10.67
387.501	9.5
387.711	10.43
387.921	7.16
388.13	8.6
388.34	7.53
388.55	8.01
388.759	2.06
388.969	1.22
389.179	-0.45
389.388	0.77
389.598	-2.51
389.807	-4.71
390.017	-4.61
390.227	-8.07
390.436	-7.18
390.646	-5.65
390.855	-3.85
391.065	-3.27
391.274	0.5
391.484	-0.76
391.693	1.2
391.903	3.12
392.112	2.79
392.322	1.29
392.531	0.14
392.74	-1.27
392.95	-0.31
393.159	-0.8
393.369	-0.44
393.578	0.33
393.787	1.14
393.997	0.94
394.206	2.25
394.415	2.41
394.625	2.25
394.834	2.12
395.043	2.3
395.252	3.26
395.462	3.21
395.671	3.02
395.88	4.03
396.089	4.24
396.298	2.81
396.508	2.79
396.717	3.1
396.926	2.31
397.135	2.44
397.344	2.08
397.553	1.26
397.762	2.31
397.971	1.54
398.181	1.17
398.39	1.26
398.599	2.15
398.808	0.96
399.017	2.73
399.226	2.9
399.435	3.12
399.644	3.37
399.853	4.15
400.062	3.23
400.27	2.96
400.479	3.08
400.688	2.78
400.897	2.22
401.106	2.55
401.315	2.65
401.524	2.84
401.733	2.56
401.941	2.9
402.15	2.79
402.359	2.62
402.568	2.16
402.777	2.41
402.985	2.03
403.194	1.85
403.403	2.14
403.612	2.17
403.82	1.66
404.029	1.95
404.238	1.91
404.446	1.9
404.655	1.97
404.864	2.32
405.072	2.29
405.281	2.28
405.489	2.1
405.698	2.14
405.906	2.23
406.115	2.15
406.324	2.16
406.532	2.25
406.741	2.35
406.949	2.36
407.158	2.48
407.366	2.44
407.574	2.4
407.783	2.38
407.991	2.24
408.2	2.28
408.408	2.31
408.617	2.24
408.825	2.13
409.033	2.19
409.242	2.15
409.45	2.15
409.658	2.18
409.867	2.29
410.075	2.33
410.283	2.18
410.491	2.14
410.7	2.02
410.908	2.02
411.116	2.03
411.324	2.07
411.533	1.93
411.741	2.08
411.949	2.07
412.157	1.91
412.365	1.94
412.573	2.11
412.781	1.98
412.99	2.06
413.198	2.18
413.406	2.26
413.614	2.23
413.822	2.4
414.03	2.3
414.238	2.32
414.446	2.28
414.654	2.25
414.862	2.01
415.07	1.86
415.278	1.85
415.486	1.69
415.694	1.82
415.902	1.95
416.109	1.94
416.317	1.91
416.525	1.92
416.733	1.81
416.941	1.86
417.149	1.88
417.357	1.96
417.564	1.99
417.772	2.04
417.98	1.94
418.188	1.88
418.395	1.6
418.603	1.55
418.811	1.43
419.019	1.43
419.226	1.51
419.434	1.73
419.642	1.7
419.849	1.55
420.057	1.53
420.265	1.54
420.472	1.4
420.68	1.43
420.887	1.71
421.095	1.93
421.302	1.98
421.51	1.94
421.717	2.05
421.925	2.03
422.132	1.78
422.34	1.6
422.547	1.68
422.755	1.56
422.962	1.57
423.17	1.53
423.377	1.57
423.585	1.76
423.792	1.84
423.999	1.78
424.207	1.79
424.414	1.81
424.621	1.56
424.829	1.62
425.036	1.67
425.243	1.72
425.451	1.73
425.658	1.76
425.865	1.91
426.072	1.92
426.28	2.07
426.487	2.05
426.694	2.07
426.901	1.72
427.108	1.62
427.315	1.47
427.523	1.48
427.73	1.48
427.937	1.43
428.144	1.46
428.351	1.5
428.558	1.53
428.765	1.64
428.972	1.75
429.179	1.68
429.386	1.71
429.593	1.64
429.8	1.51
430.007	1.49
430.214	1.46
430.421	1.47
430.628	1.51
430.835	1.53
431.042	1.47
431.249	1.45
431.456	1.41
431.662	1.52
431.869	1.64
432.076	1.7
432.283	1.87
432.49	1.88
432.697	1.82
432.903	1.72
433.11	1.89
433.317	1.88
433.524	1.88
433.73	1.8
433.937	1.92
434.144	1.74
434.35	1.48
434.557	1.52
434.764	1.68
434.97	1.48
435.177	1.56
435.384	1.74
435.59	1.77
435.797	1.82
436.003	1.99
436.21	1.94
436.416	2.1
436.623	2.11
436.829	1.89
437.036	1.8
437.242	1.83
437.449	1.72
437.655	1.79
437.862	1.89
438.068	1.84
438.275	1.86
438.481	1.9
438.687	1.81
438.894	1.99
439.1	2.06
439.307	2.12
439.513	2.1
439.719	2.1
439.926	1.92
440.132	1.98
440.338	1.84
440.544	1.79
440.751	1.8
440.957	1.87
441.163	1.72
441.369	1.87
441.575	1.91
441.782	1.93
441.988	1.83
442.194	1.8
442.4	1.78
442.606	1.85
442.812	1.82
443.018	1.84
443.224	2.03
443.431	1.98
443.637	1.94
443.843	2.02
444.049	2.11
444.255	2.16
444.461	2.13
444.667	2.14
444.873	2.14
445.079	2.13
445.284	2.04
445.49	2.16
445.696	2.13
445.902	2.16
446.108	2.13
446.314	2.1
446.52	2.13
446.726	2.22
446.931	2.17
447.137	2.19
447.343	2.27
447.549	2.29
447.755	2.21
447.96	2.27
448.166	2.26
448.372	2.21
448.578	2.09
448.783	2.19
448.989	2.19
449.195	2.21
449.4	2.3
449.606	2.33
449.812	2.17
450.017	2.21
450.223	2.21
450.428	2.14
450.634	2.09
450.84	2.21
451.045	2.19
451.251	2.19
451.456	2.25
451.662	2.35
451.867	2.34
452.073	2.28
452.278	2.27
452.483	2.21
452.689	2.21
452.894	2.29
453.1	2.29
453.305	2.35
453.51	2.38
453.716	2.39
453.921	2.37
454.127	2.4
454.332	2.33
454.537	2.37
454.742	2.26
454.948	2.28
455.153	2.3
455.358	2.31
455.563	2.39
455.769	2.48
455.974	2.48
456.179	2.45
456.384	2.42
456.589	2.28
456.795	2.25
457	2.21
457.205	2.15
457.41	2.16
457.615	2.16
457.82	2.24
458.025	2.26
458.23	2.28
458.435	2.33
458.64	2.37
458.845	2.29
459.05	2.28
459.255	2.39
459.46	2.4
459.665	2.3
459.87	2.27
460.075	2.34
460.28	2.31
460.485	2.37
460.69	2.45
460.895	2.54
461.099	2.36
461.304	2.27
461.509	2.26
461.714	2.37
461.919	2.37
462.123	2.49
462.328	2.44
462.533	2.33
462.738	2.19
462.942	2.11
463.147	2.12
463.352	2.24
463.556	2.25
463.761	2.3
463.966	2.36
464.17	2.49
464.375	2.53
464.58	2.52
464.784	2.5
464.989	2.53
465.193	2.42
465.398	2.45
465.602	2.62
465.807	2.69
466.011	2.58
466.216	2.51
466.42	2.5
466.625	2.44
466.829	2.41
467.034	2.62
467.238	2.73
467.443	2.71
467.647	2.69
467.851	2.74
468.056	2.7
468.26	2.73
468.464	2.81
468.669	2.89
468.873	2.94
469.077	2.84
469.282	2.88
469.486	2.88
469.69	2.82
469.894	2.71
470.099	2.79
470.303	2.73
470.507	2.65
470.711	2.68
470.915	2.83
471.119	2.85
471.324	2.94
471.528	3.07
471.732	3.14
471.936	3.11
472.14	3.07
472.344	3.08
472.548	3.06
472.752	3.01
472.956	3.06
473.16	3.06
473.364	3.06
473.568	2.99
473.772	2.91
473.976	2.9
474.18	2.97
474.384	2.89
474.588	2.95
474.792	3.03
474.995	3.04
475.199	3.01
475.403	3.12
475.607	3.12
475.811	3.22
476.015	3.15
476.218	3.15
476.422	3.12
476.626	3.15
476.83	3.19
477.033	3.32
477.237	3.34
477.441	3.33
477.644	3.3
477.848	3.26
478.052	3.24
478.255	3.27
478.459	3.23
478.663	3.32
478.866	3.31
479.07	3.24
479.273	3.29
479.477	3.41
479.681	3.4
479.884	3.44
480.088	3.5
480.291	3.49
480.495	3.47
480.698	3.45
480.901	3.39
481.105	3.42
481.308	3.42
481.512	3.34
481.715	3.43
481.919	3.49
482.122	3.48
482.325	3.52
482.529	3.62
482.732	3.51
482.935	3.45
483.138	3.45
483.342	3.45
483.545	3.49
483.748	3.58
483.952	3.63
484.155	3.68
484.358	3.7
484.561	3.68
484.764	3.65
484.967	3.68
485.171	3.68
485.374	3.63
485.577	3.62
485.78	3.6
485.983	3.53
486.186	3.5
486.389	3.54
486.592	3.54
486.795	3.6
486.998	3.63
487.201	3.69
487.404	3.79
487.607	3.81
487.81	3.78
488.013	3.79
488.216	3.76
488.419	3.66
488.622	3.65
488.825	3.68
489.028	3.72
489.231	3.68
489.433	3.72
489.636	3.74
489.839	3.76
490.042	3.76
490.245	3.78
490.447	3.76
490.65	3.76
490.853	3.78
491.056	3.77
491.258	3.82
491.461	3.85
491.664	3.82
491.866	3.75
492.069	3.79
492.272	3.76
492.474	3.69
492.677	3.71
492.879	3.69
493.082	3.7
493.285	3.76
493.487	3.84
493.69	3.86
493.892	3.89
494.095	3.83
494.297	3.84
494.5	3.83
494.702	3.81
494.905	3.87
495.107	3.93
495.309	3.96
495.512	3.94
495.714	3.95
495.917	4
496.119	3.98
496.321	3.87
496.524	3.88
496.726	3.87
496.928	3.85
497.13	3.82
497.333	3.87
497.535	3.94
497.737	3.96
497.939	3.94
498.142	4
498.344	4.09
498.546	4.08
498.748	4.12
498.95	4.18
499.152	4.17
499.355	4.1
499.557	4.12
499.759	4.18
499.961	4.19
500.163	4.22
500.365	4.29
500.567	4.32
500.769	4.28
500.971	4.3
501.173	4.26
501.375	4.35
501.577	4.34
501.779	4.32
501.981	4.33
502.183	4.4
502.385	4.31
502.587	4.34
502.788	4.41
502.99	4.42
503.192	4.43
503.394	4.5
503.596	4.46
503.798	4.46
503.999	4.45
504.201	4.46
504.403	4.46
504.605	4.54
504.806	4.57
505.008	4.62
505.21	4.59
505.411	4.59
505.613	4.59
505.815	4.59
506.016	4.63
506.218	4.72
506.42	4.75
506.621	4.78
506.823	4.82
507.024	4.86
507.226	4.87
507.427	4.91
507.629	4.91
507.83	4.95
508.032	4.93
508.233	4.96
508.435	4.91
508.636	4.96
508.838	4.93
509.039	4.95
509.24	4.93
509.442	5
509.643	5.02
509.845	5.05
510.046	5.09
510.247	5.1
510.448	5.11
510.65	5.1
510.851	5.16
511.052	5.16
511.254	5.26
511.455	5.29
511.656	5.3
511.857	5.26
512.058	5.29
512.26	5.21
512.461	5.24
512.662	5.24
512.863	5.25
513.064	5.25
513.265	5.29
513.466	5.3
513.667	5.34
513.868	5.35
514.069	5.33
514.27	5.4
514.471	5.35
514.672	5.35
514.873	5.37
515.074	5.44
515.275	5.37
515.476	5.47
515.677	5.54
515.878	5.62
516.079	5.6
516.28	5.69
516.481	5.68
516.682	5.62
516.882	5.6
517.083	5.65
517.284	5.66
517.485	5.7
517.686	5.79
517.886	5.8
518.087	5.8
518.288	5.8
518.488	5.75
518.689	5.73
518.89	5.77
519.091	5.8
519.291	5.78
519.492	5.84
519.692	5.82
519.893	5.83
520.094	5.81
520.294	5.88
520.495	5.86
520.695	5.9
520.896	5.88
521.096	5.94
521.297	5.94
521.497	5.99
521.698	6
521.898	6.02
522.099	6.02
522.299	5.96
522.499	5.95
522.7	6.03
522.9	6.07
523.101	6.04
523.301	6.13
523.501	6.14
523.702	6.09
523.902	6.08
524.102	6.14
524.302	6.19
524.503	6.23
524.703	6.23
524.903	6.27
525.103	6.23
525.304	6.23
525.504	6.24
525.704	6.3
525.904	6.31
526.104	6.34
526.304	6.35
526.504	6.38
526.705	6.33
526.905	6.29
527.105	6.33
527.305	6.32
527.505	6.28
527.705	6.31
527.905	6.41
528.105	6.4
528.305	6.45
528.505	6.52
528.705	6.56
528.905	6.53
529.105	6.55
529.304	6.53
529.504	6.57
529.704	6.57
529.904	6.6
530.104	6.65
530.304	6.67
530.503	6.64
530.703	6.66
530.903	6.65
531.103	6.69
531.303	6.71
531.502	6.83
531.702	6.86
531.902	6.92
532.101	6.91
532.301	6.96
532.501	6.95
532.7	6.98
532.9	6.99
533.1	6.98
533.299	6.97
533.499	6.94
533.698	6.94
533.898	6.94
534.097	6.99
534.297	7
534.496	7.04
534.696	7.11
534.895	7.14
535.095	7.22
535.294	7.27
535.494	7.32
535.693	7.34
535.892	7.38
536.092	7.38
536.291	7.41
536.491	7.39
536.69	7.4
536.889	7.39
537.088	7.41
537.288	7.38
537.487	7.42
537.686	7.39
537.886	7.4
538.085	7.41
538.284	7.48
538.483	7.52
538.682	7.57
538.882	7.62
539.081	7.68
539.28	7.68
539.479	7.71
539.678	7.76
539.877	7.86
540.076	7.94
540.275	7.97
540.474	7.97
540.673	7.99
540.872	7.92
541.071	7.91
541.27	8
541.469	8.09
541.668	8.1
541.867	8.2
542.066	8.17
542.265	8.17
542.464	8.19
542.663	8.26
542.862	8.37
543.06	8.52
543.259	8.56
543.458	8.62
543.657	8.71
543.856	8.7
544.054	8.68
544.253	8.72
544.452	8.76
544.651	8.77
544.849	8.82
545.048	8.9
545.247	8.95
545.445	9.03
545.644	9.07
545.843	9.11
546.041	9.11
546.24	9.16
546.438	9.21
546.637	9.25
546.836	9.3
547.034	9.4
547.233	9.48
547.431	9.52
547.63	9.62
547.828	9.67
548.027	9.77
548.225	9.8
548.423	9.84
548.622	9.92
548.82	9.98
549.019	10
549.217	10.09
549.415	10.15
549.614	10.25
549.812	10.34
550.01	10.42
550.209	10.48
550.407	10.59
550.605	10.49
550.803	10.57
551.002	10.62
551.2	10.65
551.398	10.78
551.596	10.96
551.794	11.01
551.993	11.14
552.191	11.23
552.389	11.27
552.587	11.33
552.785	11.4
552.983	11.45
553.181	11.55
553.379	11.59
553.577	11.67
553.775	11.82
553.973	11.97
554.171	12.03
554.369	12.16
554.567	12.29
554.765	12.32
554.963	12.31
555.161	12.39
555.359	12.46
555.557	12.49
555.755	12.62
555.952	12.75
556.15	12.86
556.348	12.95
556.546	13.05
556.744	13.1
556.941	13.1
557.139	13.29
557.337	13.41
557.535	13.47
557.732	13.58
557.93	13.78
558.128	13.84
558.325	13.95
558.523	14.14
558.721	14.23
558.918	14.38
559.116	14.44
559.313	14.52
559.511	14.56
559.708	14.69
559.906	14.75
560.104	14.86
560.301	14.98
560.498	15.19
560.696	15.28
560.893	15.38
561.091	15.5
561.288	15.62
561.486	15.64
561.683	15.73
561.88	15.87
562.078	15.93
562.275	16.06
562.473	16.17
562.67	16.23
562.867	16.32
563.064	16.46
563.262	16.51
563.459	16.65
563.656	16.84
563.853	16.93
564.051	17.11
564.248	17.22
564.445	17.34
564.642	17.43
564.839	17.54
565.036	17.63
565.234	17.77
565.431	17.8
565.628	17.89
565.825	17.93
566.022	18
566.219	17.97
566.416	18.06
566.613	18.17
566.81	18.3
567.007	18.35
567.204	18.47
567.401	18.59
567.598	18.61
567.795	18.71
567.991	18.73
568.188	18.81
568.385	18.75
568.582	18.79
568.779	18.85
568.976	18.93
569.172	19.03
569.369	19.19
569.566	19.32
569.763	19.25
569.96	19.4
570.156	19.42
570.353	19.42
570.55	19.44
570.746	19.63
570.943	19.61
571.14	19.66
571.336	19.76
571.533	19.8
571.729	19.78
571.926	19.87
572.123	19.9
572.319	19.94
572.516	19.96
572.712	20.07
572.909	20.05
573.105	20.22
573.302	20.3
573.498	20.4
573.695	20.37
573.891	20.41
574.087	20.28
574.284	20.35
574.48	20.28
574.677	20.32
574.873	20.31
575.069	20.41
575.266	20.44
575.462	20.49
575.658	20.62
575.854	20.69
576.051	20.66
576.247	20.55
576.443	20.57
576.639	20.48
576.835	20.4
577.032	20.41
577.228	20.45
577.424	20.49
577.62	20.43
577.816	20.48
578.012	20.52
578.208	20.55
578.404	20.54
578.6	20.64
578.796	20.72
578.993	20.73
579.189	20.73
579.384	20.71
579.58	20.73
579.776	20.62
579.972	20.6
580.168	20.64
580.364	20.7
580.56	20.6
580.756	20.67
580.952	20.67
581.148	20.62
581.343	20.55
581.539	20.59
581.735	20.57
581.931	20.52
582.127	20.46
582.322	20.49
582.518	20.4
582.714	20.4
582.909	20.43
583.105	20.43
583.301	20.45
583.496	20.56
583.692	20.51
583.888	20.5
584.083	20.47
584.279	20.38
584.474	20.24
584.67	20.23
584.866	20.26
585.061	20.25
585.257	20.2
585.452	20.36
585.648	20.33
585.843	20.18
586.039	20.18
586.234	20.29
586.429	20.13
586.625	20.23
586.82	20.32
587.015	20.31
587.211	20.21
587.406	20.31
587.601	20.33
587.797	20.34
587.992	20.37
588.187	20.32
588.383	20.32
588.578	20.27
588.773	20.3
588.968	20.37
589.163	20.52
589.359	20.47
589.554	20.45
589.749	20.47
589.944	20.43
590.139	20.4
590.334	20.51
590.529	20.61
590.724	20.76
590.919	20.84
591.114	20.96
591.309	20.99
591.504	20.99
591.699	20.94
591.894	20.85
592.089	20.76
592.284	20.88
592.479	20.87
592.674	20.91
592.869	21
593.064	21.13
593.259	21.07
593.454	21.17
593.648	21.18
593.843	21.18
594.038	21.23
594.233	21.31
594.428	21.42
594.622	21.55
594.817	21.79
595.012	21.81
595.206	21.86
595.401	22.02
595.596	22.06
595.79	22.08
595.985	22.1
596.18	22.25
596.374	22.2
596.569	22.3
596.763	22.27
596.958	22.48
597.153	22.52
597.347	22.54
597.542	22.54
597.736	22.65
597.931	22.72
598.125	22.8
598.319	22.86
598.514	23
598.708	23.09
598.903	23.09
599.097	23.12
599.291	23.18
599.486	23.23
599.68	23.26
599.874	23.29
600.069	23.38
600.263	23.47
600.457	23.46
600.651	23.51
600.846	23.61
601.04	23.6
601.234	23.62
601.428	23.73
601.622	23.79
601.817	23.83
602.011	23.88
602.205	23.96
602.399	23.99
602.593	24.12
602.787	24.07
602.981	24.06
603.175	24.11
603.369	24.09
603.563	24.03
603.757	24.06
603.951	24.01
604.145	23.88
604.339	23.87
604.533	23.8
604.727	23.84
604.921	23.88
605.115	23.91
605.309	23.9
605.502	23.94
605.696	23.88
605.89	23.87
606.084	23.81
606.278	23.76
606.471	23.75
606.665	23.76
606.859	23.72
607.053	23.64
607.246	23.58
607.44	23.41
607.634	23.35
607.827	23.29
608.021	23.24
608.214	23.2
608.408	23.14
608.602	23.03
608.795	23.05
608.989	23.03
609.182	23.02
609.376	23.05
609.569	22.99
609.763	22.85
609.956	22.83
610.15	22.68
610.343	22.65
610.537	22.59
610.73	22.48
610.923	22.37
611.117	22.35
611.31	22.11
611.504	22.05
611.697	21.98
611.89	21.83
612.083	21.65
612.277	21.71
612.47	21.59
612.663	21.57
612.856	21.49
613.05	21.5
613.243	21.36
613.436	21.33
613.629	21.22
613.822	21.28
614.015	21.17
614.209	21.15
614.402	21.09
614.595	21.1
614.788	20.95
614.981	20.89
615.174	20.74
615.367	20.65
615.56	20.49
615.753	20.47
615.946	20.41
616.139	20.47
616.332	20.48
616.525	20.41
616.718	20.27
616.911	20.24
617.103	20.15
617.296	20.04
617.489	20.04
617.682	20.08
617.875	20.04
618.067	19.91
618.26	19.89
618.453	19.77
618.646	19.7
618.838	19.7
619.031	19.75
619.224	19.68
619.417	19.72
619.609	19.65
619.802	19.59
619.994	19.51
620.187	19.45
620.38	19.4
620.572	19.41
620.765	19.4
620.957	19.39
621.15	19.32
621.342	19.32
621.535	19.34
621.727	19.21
621.92	19.14
622.112	19.17
622.305	19.14
622.497	19.13
622.69	19.14
622.882	19.18
623.074	19.2
623.267	19.23
623.459	19.09
623.651	19.08
623.844	19.08
624.036	19.07
624.228	19
624.42	18.93
624.613	18.87
624.805	18.82
624.997	18.76
625.189	18.79
625.381	18.77
625.574	18.76
625.766	18.71
625.958	18.7
626.15	18.66
626.342	18.64
626.534	18.58
626.726	18.54
626.918	18.53
627.11	18.45
627.302	18.45
627.494	18.41
627.686	18.36
627.878	18.24
628.07	18.19
628.262	18.23
628.454	18.21
628.646	18.24
628.838	18.23
629.029	18.16
629.221	18.08
629.413	18.11
629.605	17.98
629.797	17.93
629.989	17.93
630.18	17.89
630.372	17.8
630.564	17.81
630.755	17.79
630.947	17.78
631.139	17.74
631.33	17.7
631.522	17.71
631.714	17.64
631.905	17.58
632.097	17.55
632.289	17.58
632.48	17.5
632.672	17.54
632.863	17.42
633.055	17.42
633.246	17.39
633.438	17.42
633.629	17.43
633.821	17.46
634.012	17.38
634.203	17.36
634.395	17.32
634.586	17.25
634.777	17.23
634.969	17.22
635.16	17.14
635.351	17.08
635.543	17.03
635.734	17.01
635.925	16.99
636.117	17.09
636.308	17.14
636.499	17.11
636.69	17.13
636.881	17.13
637.073	17.09
637.264	17.01
637.455	16.99
637.646	16.98
637.837	16.96
638.028	16.9
638.219	16.97
638.41	16.96
638.601	16.92
638.792	16.91
638.983	16.85
639.174	16.74
639.365	16.74
639.556	16.64
639.747	16.59
639.938	16.67
640.129	16.64
640.32	16.58
640.511	16.66
640.701	16.62
640.892	16.55
641.083	16.55
641.274	16.46
641.465	16.39
641.655	16.42
641.846	16.37
642.037	16.25
642.228	16.25
642.418	16.21
642.609	16.18
642.8	16.15
642.99	16.23
643.181	16.31
643.372	16.29
643.562	16.19
643.753	16.19
643.943	16.08
644.134	15.88
644.324	15.87
644.515	15.95
644.705	15.9
644.896	16.01
645.086	16.08
645.277	16
645.467	15.91
645.658	15.77
645.848	15.7
646.038	15.64
646.229	15.75
646.419	15.64
646.61	15.78
646.8	15.75
646.99	15.77
647.18	15.69
647.371	15.75
647.561	15.63
647.751	15.56
647.941	15.51
648.132	15.42
648.322	15.4
648.512	15.43
648.702	15.53
648.892	15.52
649.082	15.67
649.272	15.66
649.462	15.68
649.653	15.66
649.843	15.64
650.033	15.5
650.223	15.44
650.413	15.38
650.603	15.36
650.793	15.33
650.983	15.24
651.172	15.31
651.362	15.27
651.552	15.1
651.742	15.06
651.932	15.02
652.122	14.97
652.312	14.85
652.502	14.82
652.691	14.79
652.881	14.77
653.071	14.65
653.261	14.61
653.45	14.59
653.64	14.49
653.83	14.38
654.019	14.24
654.209	14.07
654.399	13.87
654.588	13.67
654.778	13.51
654.968	13.42
655.157	13.36
655.347	13.21
655.536	13.11
655.726	12.94
655.915	12.83
656.105	12.71
656.294	12.6
656.484	12.5
656.673	12.44
656.863	12.33
657.052	12.15
657.241	12.07
657.431	11.98
657.62	11.91
657.809	11.68
657.999	11.62
658.188	11.43
658.377	11.16
658.567	11.03
658.756	10.88
658.945	10.61
659.134	10.5
659.324	10.45
659.513	10.15
659.702	9.89
659.891	9.86
660.08	9.68
660.269	9.51
660.458	9.29
660.648	9.17
660.837	9.06
661.026	8.87
661.215	8.67
661.404	8.66
661.593	8.63
661.782	8.35
661.971	8.11
662.16	8.01
662.349	7.82
662.538	7.67
662.726	7.56
662.915	7.6
663.104	7.49
663.293	7.43
663.482	7.33
663.671	7.18
663.86	7.06
664.048	7.03
664.237	6.86
664.426	6.68
664.615	6.56
664.803	6.41
664.992	6.19
665.181	6.1
665.369	6.02
665.558	6.02
665.747	5.98
665.935	5.93
666.124	5.95
666.312	5.89
666.501	5.86
666.69	5.84
666.878	5.8
667.067	5.7
667.255	5.71
667.444	5.68
667.632	5.7
667.82	5.7
668.009	5.74
668.197	5.71
668.386	5.62
668.574	5.51
668.762	5.33
668.951	5.2
669.139	5.06
669.327	5
669.516	5.07
669.704	5.12
669.892	5.15
670.08	5.22
670.269	5.29
670.457	5.16
670.645	5.19
670.833	5.21
671.021	5.29
671.21	5.27
671.398	5.35
671.586	5.37
671.774	5.41
671.962	5.32
672.15	5.41
672.338	5.45
672.526	5.48
672.714	5.54
672.902	5.62
673.09	5.63
673.278	5.68
673.466	5.77
673.654	5.76
673.842	5.82
674.03	5.89
674.218	5.91
674.405	5.94
674.593	6.1
674.781	6.1
674.969	6.2
675.157	6.28
675.344	6.35
675.532	6.34
675.72	6.39
675.908	6.41
676.095	6.39
676.283	6.49
676.471	6.49
676.658	6.6
676.846	6.59
677.033	6.67
677.221	6.63
677.409	6.72
677.596	6.76
677.784	6.81
677.971	6.86
678.159	6.88
678.346	6.89
678.534	6.91
678.721	7.13
678.909	7.26
679.096	7.4
679.283	7.47
679.471	7.64
679.658	7.7
679.846	7.74
680.033	7.96
680.22	8.2
680.408	8.11
680.595	8.13
680.782	8.32
680.969	8.41
681.157	8.49
681.344	8.72
681.531	8.79
681.718	8.81
681.905	8.87
682.093	9.07
682.28	9.3
682.467	9.54
682.654	9.66
682.841	9.93
683.028	9.91
683.215	10.13
683.402	10.19
683.589	10.49
683.776	10.47
683.963	10.81
684.15	10.98
684.337	11.37
684.524	11.51
684.711	11.82
684.898	12.09
685.085	12.24
685.271	12.46
685.458	12.83
685.645	13.14
685.832	13.27
686.019	13.56
686.205	13.81
686.392	14.1
686.579	14.39
686.766	14.83
686.952	15.33
687.139	15.63
687.326	16.06
687.512	16.34
687.699	16.73
687.886	17.07
688.072	17.53
688.259	17.96
688.445	18.68
688.632	19.1
688.818	19.67
689.005	20.21
689.191	20.71
689.378	21.06
689.564	21.74
689.751	22.28
689.937	22.85
690.124	23.43
690.31	23.85
690.496	24.43
690.683	25.09
690.869	25.67
691.055	26.37
691.242	27.04
691.428	27.64
691.614	28.19
691.8	28.84
691.987	29.44
692.173	30.14
692.359	30.75
692.545	31.58
692.731	32.18
692.918	32.53
693.104	33.31
693.29	33.84
693.476	34.32
693.662	34.98
693.848	35.81
694.034	36.63
694.22	37.51
694.406	38.15
694.592	38.98
694.778	39.6
694.964	40.17
695.15	40.89
695.336	41.59
695.522	42.26
695.708	43.02
695.894	43.64
696.08	44.33
696.265	45.05
696.451	45.82
696.637	46.92
696.823	47.64
697.009	48.41
697.194	49.03
697.38	49.66
697.566	49.92
697.751	50.53
697.937	51.15
698.123	51.74
698.308	52.03
698.494	52.86
698.68	53.51
698.865	53.83
699.051	54.59
699.236	55.41
699.422	55.75
699.607	56.34
699.793	57.19
699.978	57.57
700.164	58.03
700.349	58.78
700.535	59.13
700.72	59.43
700.906	59.67
701.091	60.14
701.276	60.34
701.462	60.86
701.647	61.42
701.832	62.46
702.018	63.05
702.203	63.61
702.388	64.02
702.573	64.18
702.759	64.42
702.944	64.63
703.129	65.03
703.314	65.35
703.499	65.79
703.684	66.24
703.87	66.83
704.055	67.44
704.24	68.09
704.425	68.61
704.61	68.84
704.795	69.47
704.98	69.61
705.165	69.89
705.35	70.26
705.535	70.66
705.72	70.61
705.905	70.9
706.09	71.55
706.275	71.8
706.459	72.09
706.644	72.36
706.829	72.76
707.014	72.6
707.199	72.81
707.384	73.18
707.568	73.63
707.753	73.96
707.938	74.29
708.123	75.07
708.307	75.18
708.492	75.61
708.677	75.78
708.861	76.05
709.046	75.69
709.231	75.65
709.415	75.76
709.6	76.04
709.784	76.39
709.969	76.74
710.153	77.36
710.338	77.71
710.522	77.81
710.707	77.99
710.891	78.18
711.076	78.22
711.26	78.26
711.445	78.29
711.629	78.63
711.813	79.24
711.998	79.35
712.182	79.57
712.366	80.31
712.551	80.22
712.735	80.02
712.919	80.54
713.103	80.69
713.288	80.94
713.472	81.3
713.656	81.29
713.84	81.28
714.024	81.57
714.208	81.49
714.393	81.37
714.577	82.01
714.761	82.25
714.945	82.36
715.129	82.62
715.313	82.8
715.497	82.6
715.681	82.45
715.865	82.35
716.049	82.37
716.233	82.69
716.417	82.86
716.601	83.32
716.785	83.6
716.968	83.58
717.152	83.42
717.336	83.53
717.52	83.99
717.704	84.25
717.888	84.64
718.071	84.98
718.255	85.43
718.439	85.01
718.622	85.04
718.806	85.05
718.99	84.67
719.174	84.4
719.357	84.63
719.541	84.65
719.724	84.24
719.908	84.88
720.092	84.91
720.275	85.07
720.459	85.14
720.642	85.8
720.826	85.66
721.009	85.55
721.193	85.44
721.376	85.43
721.559	85.09
721.743	85.67
721.926	86.24
722.11	86.6
722.293	87.06
722.476	87.47
722.66	87.76
722.843	87.75
723.026	88.26
723.21	88.24
723.393	88.37
723.576	87.82
723.759	88.24
723.942	88.15
724.126	88.12
724.309	88.06
724.492	88.41
724.675	87.86
724.858	87.85
725.041	87.75
725.224	88.13
725.407	88.47
725.59	88.62
725.774	88.04
725.957	88.78
726.14	88.91
726.322	89.01
726.505	89.62
726.688	89.83
726.871	89.62
727.054	90.01
727.237	89.83
727.42	89.62
727.603	89.87
727.786	89.67
727.968	89.07
728.151	89.5
728.334	90.02
728.517	90.58
728.699	91.18
728.882	91.62
729.065	91.41
729.248	91.04
729.43	90.7
729.613	90.16
729.796	90.19
729.978	90.45
730.161	91.07
730.343	91.55
730.526	91.97
730.708	91.77
730.891	91.89
731.073	91.82
731.256	91.85
731.438	92.29
731.621	92.68
731.803	92.55
731.986	92.67
732.168	92.73
732.35	92.85
732.533	93.15
732.715	93.46
732.898	93.13
733.08	93.44
733.262	92.91
733.444	93.37
733.627	93.59
733.809	94.24
733.991	93.24
734.173	93.98
734.355	93.09
734.538	92.77
734.72	92.67
734.902	93.55
735.084	93.38
735.266	93.89
735.448	94.27
735.63	94.12
735.812	93.84
735.994	93.97
736.176	94.98
736.358	95.27
736.54	96.23
736.722	96.03
736.904	96.25
737.086	94.89
737.268	95.28
737.45	95.37
737.632	96.32
737.814	96.46
737.995	97.11
738.177	95.77
738.359	95.92
738.541	95.68
738.723	95.13
738.904	95.12
739.086	96.2
739.268	95.09
739.449	94.85
739.631	95.06
739.813	94.93
739.994	95.23
740.176	96.01
740.358	96.94
740.539	96.63
740.721	96.26
740.902	95.33
741.084	96.28
741.265	95.33
741.447	95.95
741.628	97.17
741.81	98.22
741.991	97.66
742.172	97.78
742.354	97.83
742.535	97.29
742.717	95.92
742.898	96.21
743.079	97.4
743.261	97.43
743.442	96.82
743.623	97.77
743.804	97.76
743.986	97.09
744.167	96.65
744.348	96.42
744.529	96.47
744.71	95.49
744.891	95.52
745.073	95.87
745.254	97.13
745.435	97.42
745.616	98.08
745.797	97.77
745.978	99.07
746.159	98.24
746.34	98.22
746.521	98.51
746.702	99.85
746.883	98.09
747.064	99.23
747.245	99.02
747.426	97.55
747.606	96.87
747.787	98.35
747.968	96.46
748.149	96.61
748.33	97
748.51	95.92
748.691	95.41
748.872	96.95
749.053	95.86
749.233	96.12
749.414	97.54
749.595	97.32
749.775	96.73
749.956	97.39
750.137	97.03
750.317	95.62
750.498	95.58
750.678	95.57
750.859	96.3
751.04	97.03
751.22	96.7
751.4	97.25
751.581	98.12
751.761	99.29
751.942	98.68
752.122	98.74
752.303	98.45
752.483	97.98
752.663	95.61
752.844	94.76
753.024	95.95
753.204	95.61
753.385	95.69
753.565	96.2
753.745	96.99
753.925	95.64
754.106	95.47
754.286	94.74
754.466	95.02
754.646	94.37
754.826	96.14
755.006	96.69
755.187	98.52
755.367	97.3
755.547	98.79
755.727	97.72
755.907	97.47
756.087	96.15
756.267	96.72
756.447	96.47
756.627	96.71
756.807	97.98
756.987	97.69
757.167	98.03
757.346	97.23
757.526	98.01
757.706	95.81
757.886	95.97
758.066	96.43
758.246	96.17
758.425	94.62
758.605	94.96
758.785	94.64
758.965	95.73
759.144	94.76
759.324	97.21
759.504	98.45
759.683	98.15
759.863	96.23
760.043	96.71
760.222	95.6
760.402	94.18
760.581	95.36
760.761	95.4
760.94	95.88
761.12	94.62
761.299	96.08
761.479	94.99
761.658	94.55
761.838	95.48
762.017	97.46
762.197	94.74
762.376	96.37
762.555	97.18
762.735	97.58
762.914	96.43
763.093	97.78
763.273	96.83
763.452	95.5
763.631	93.94
763.81	94.15
763.99	92.75
764.169	91.68
764.348	91.56
764.527	92.06
764.706	90.96
764.885	93.65
765.064	96.96
765.243	98.51
765.423	98.59
765.602	100.19
765.781	97.77
765.96	94.53
766.139	93.36
766.318	95.2
766.497	94.65
766.676	94.11
766.854	95.26
767.033	97.11
767.212	95.81
767.391	96.24
767.57	100.52
767.749	99.51
767.928	98.32
768.106	97.72
768.285	96.61
768.464	94.6
768.643	94.78
768.821	95.11
769	95.82
769.179	97
769.357	97.19
769.536	97.22
769.715	94.62
769.893	94.23
770.072	91.78
770.25	90.71
770.429	92.16
770.607	94.37
770.786	94.31
770.964	95.99
771.143	97.06
771.321	94.44
771.5	94.84
771.678	94.63
771.857	93.93
772.035	95.15
772.213	96.24
772.392	94.77
772.57	94.05
772.748	93.04
772.927	92.46
773.105	95.71
773.283	97.26
773.461	98.83
773.64	100.21
773.818	99.91
773.996	96.18
774.174	95.77
774.352	94.71
774.531	93.8
774.709	92.94
774.887	91.2
775.065	92.94
775.243	92.42
775.421	91.59
775.599	91.71
775.777	93.13
775.955	92.25
776.133	93.25
776.311	95.88
776.489	95.79
776.667	95.39
776.844	93.76
777.022	91.84
777.2	89.38
777.378	88.44
777.556	90.86
777.734	92.01
777.911	95.09
778.089	98.32
778.267	100.16
778.445	101.87
778.622	102.29
778.8	95.79
778.978	95.09
779.155	95.88
779.333	93.09
779.511	92.27
779.688	95.48
779.866	96.79
780.043	96.57
780.221	96.56
780.398	96.74
780.576	98.31
780.753	95.77
780.931	94.5
781.108	95.7
781.286	97.97
781.463	97.64
781.64	98.95
781.818	100.19
781.995	99.64
782.172	96.81
782.35	95.04
782.527	93.19
782.704	90.05
782.882	87.17
783.059	88.53
783.236	90.68
783.413	91.65
783.59	93.71
783.768	94.31
783.945	91.8
784.122	87.99
784.299	88.12
784.476	84.97
784.653	87.18
784.83	85.03
785.007	88.07
785.184	85.61
785.361	89.62
785.538	88.11
785.715	92.8
785.892	92.35
786.069	96.02
786.246	92.57
786.423	92.97
786.6	91.81
786.776	92.67
786.953	88.23
787.13	90.59
787.307	89.54
787.484	87.32
787.66	86.24
787.837	89.01
788.014	89.92
788.191	87.03
788.367	87.28
788.544	92.95
788.721	93.34
788.897	90.64
789.074	94.3
789.25	95.83
789.427	87.75
789.603	84.67
789.78	84.54
789.956	83.61
790.133	80.94
790.309	81.74
790.486	83.34
790.662	83.33
790.839	86.14
791.015	88.89
791.192	89.24
791.368	86.61
791.544	89.79
791.721	86.1
791.897	82.29
792.073	81.42
792.249	82.95
792.426	79.64
792.602	82.46
792.778	83.71
792.954	85.27
793.13	86.42
793.307	91.15
793.483	87.37
793.659	89.95
793.835	94.27
794.011	98.9
794.187	92.51
794.363	93.24
794.539	94.18
794.715	93.71
794.891	91.62
795.067	98.38
795.243	96.91
795.419	96.7
795.595	99.15
795.771	95.25
795.947	87.92
796.122	87.16
796.298	82.63
796.474	85.69
796.65	89.31
796.826	91.88
797.001	93.13
797.177	89.21
797.353	82.69
797.529	82.39
797.704	84.23
797.88	85.72
798.056	92.68
798.231	88.51
798.407	89.06
798.582	89.04
798.758	89.48
798.934	90.36
799.109	91.1
799.285	88.89
799.46	86.3
799.636	86.57
799.811	85.85
799.986	84.9
800.162	79.95
800.337	86.43
800.513	81.51
800.688	77.69
800.863	87.32
801.039	91.52
801.214	83.14
801.389	88.44
801.565	90.37
801.74	79.76
801.915	79.58
802.09	76.14
802.265	77.24
802.441	74.89
802.616	76.92
802.791	79.74
802.966	85.58
803.141	85.45
803.316	94.05
803.491	95.36
803.666	95.6
803.841	96.53
804.016	97.65
804.191	94.73
804.366	92.15
804.541	93.78
804.716	90.62
804.891	86.59
805.066	88.12
805.241	91.51
805.416	90.5
805.591	98.86
805.765	114.41
805.94	111.67
806.115	108.1
806.29	105.85
806.464	96.82
806.639	87.43
806.814	85.15
806.989	90.12
807.163	94.14
807.338	94.86
807.512	90.97
807.687	97.08
807.862	91.43
808.036	88.21
808.211	93.26
808.385	102.95
808.56	92.76
808.734	88.13
808.909	90.81
809.083	92.34
809.258	87.48
809.432	89.33
809.606	100.88
809.781	93.61
809.955	93.78
810.13	86.67
810.304	92.96
810.478	89.6
810.652	87.77
810.827	84.59
811.001	85.95
811.175	81.81
811.349	80.93
811.524	85.46
811.698	88.37
811.872	90.36
812.046	87.63
812.22	89.01
812.394	86.51
812.568	83.25
812.742	83.5
812.916	91.67
813.09	86.5
813.264	82.59
813.438	82.5
813.612	78.11
813.786	74.05
813.96	77.66
814.134	76.61
814.308	72.59
814.482	74.32
814.656	65.07
814.83	69.31
815.003	78.74
815.177	74.25
815.351	85.46
815.525	93.24
815.698	87.65
815.872	77.84
816.046	79.19
816.219	72.84
816.393	69.66
816.567	66.79
816.74	75.69
816.914	75.91
817.088	73.75
817.261	86.33
817.435	95.6
817.608	88.36
817.782	89.84
817.955	94.38
818.129	80.78
818.302	73.46
818.475	67.44
818.649	70
818.822	62.34
818.996	66.81
819.169	70.69
819.342	78.18
819.516	77.3
819.689	81.29
819.862	75.83
820.035	82.79
820.209	84.1
820.382	79.19
820.555	73.84
820.728	83.59
820.901	69.3
821.075	73.52
821.248	83.19
821.421	83.22
821.594	71.93
821.767	75.08
821.94	59.16
822.113	61.6
822.286	71.78
822.459	78.89
822.632	84.66
822.805	93.28
822.978	89.37
823.151	76.27
823.324	58.62
823.496	48.58
823.669	60.38
823.842	67.68
824.015	68.85
824.188	76.62
824.361	81.81
824.533	64.49
824.706	61.72
824.879	71.97
825.051	88.35
825.224	90.34
825.397	101.37
825.569	90
825.742	88.56
825.915	92.66
826.087	80.64
826.26	77.42
826.432	85.65
826.605	87.48
826.777	88.01
826.95	94.78
827.122	83.11
827.295	100.01
827.467	96.08
827.64	93.63
827.812	102.53
827.984	98.35
828.157	86.88
828.329	94.1
828.501	81.5
828.674	81.88
828.846	96.22
829.018	90.8
829.19	82.9
829.363	73.64
829.535	67.32
829.707	68.85
829.879	57.05
830.051	64.55
830.223	73.74
830.395	85.01
830.568	75.93
830.74	87.55
830.912	77.45
831.084	75.8
831.256	63.83
831.428	66.21
831.6	64.9
831.772	59.41
831.943	51.68
832.115	57.62
832.287	69.58
832.459	71.3
832.631	75.52
832.803	77.18
832.975	77.48
833.146	68.04
833.318	72.64
833.49	71.24
833.662	91.71
833.833	98.67
834.005	88.99
834.177	84.06
834.348	83.27
834.52	71.67
834.692	65.87
834.863	75.11
835.035	76.69
835.206	69.79
835.378	69.53
835.549	63.22
835.721	52.25
835.892	46.24
836.064	54.26
836.235	44.75
836.407	38.42
836.578	51.12
836.749	50.28
836.921	49.62
837.092	50.02
837.264	66.45
837.435	65.09
837.606	68.88
837.777	73.22
837.949	82.26
838.12	73.94
838.291	73.73
838.462	78.67
838.633	76.96
838.805	72.87
838.976	71.19
839.147	69.48
839.318	70.99
839.489	58.75
839.66	68.55
839.831	77.29
840.002	71.17
840.173	69.48
840.344	70.07
840.515	54.64
840.686	53.83
840.857	63.24
841.028	60.78
841.199	66.26
841.369	71.47
841.54	83.77
841.711	115.67
841.882	92.24
842.053	81.98
842.223	77.24
842.394	58.64
842.565	41.82
842.736	52.27
842.906	56.93
843.077	68.08
843.248	84.05
843.418	77.07
843.589	75.44
843.759	76.71
843.93	84.68
844.101	81.8
844.271	106.25
844.442	97.56
844.612	89.38
844.783	79.98
844.953	78.69
845.123	62.07
845.294	74.68
845.464	62.43
845.635	75.7
845.805	71.82
845.975	75.92
846.146	75.52
846.316	96.98
846.486	87.08
846.656	85.54
846.827	83.46
846.997	72.09
847.167	54.99
847.337	54.65
847.507	63.2
847.677	65.58
847.848	81.9
848.018	90.92
848.188	98.41
848.358	86.56
848.528	104.09
848.698	80.22
848.868	87.15
849.038	70.15
849.208	78.58
849.378	60.77
849.548	67.62
849.718	73.26
849.887	78.78
850.057	35.66
850.227	35.53
850.397	33.17
850.567	-5.95
850.737	21.47
850.906	37.03
851.076	52.73
851.246	62.87
851.415	65.67
851.585	60.39
851.755	76.73
851.924	56.54
852.094	49.31
852.264	55.09
852.433	50.03
852.603	22.73
852.772	43.67
852.942	62.88
853.111	84.15
853.281	53.38
853.45	35
853.62	32.09
853.789	22.42
853.959	33.64
854.128	54.36
854.297	77.73
854.467	73.2
854.636	71.28
854.805	74.48
854.975	80.9
855.144	84.89
855.313	105.78
855.482	86.11
855.652	68.61
855.821	55.99
855.99	47.29
856.159	23.65
856.328	41.04
856.497	24.34
856.667	32.55
856.836	49.02
857.005	57.35
857.174	60.88
857.343	91.81
857.512	78.97
857.681	72.49
857.85	74.75
858.019	77.73
858.188	55.32
858.356	50.04
858.525	48.92
858.694	61.53
858.863	47.27
859.032	59.35
859.201	63.21
859.369	82.39
859.538	80.17
859.707	94.7
859.876	89.26
860.044	93.72
860.213	89.28
860.382	82.54
860.55	70.42
860.719	58.77
860.888	51.89
861.056	33.27
861.225	5.48
861.393	13.45
861.562	8.01
861.73	11.34
861.899	16.47
862.067	21.52
862.236	42.55
862.404	54.15
862.572	73.66
862.741	94.18
862.909	96.75
863.078	76.43
863.246	81.61
863.414	68.17
863.582	69.62
863.751	80.03
863.919	63.71
864.087	45.14
864.255	59.42
864.424	25.84
864.592	32.8
864.76	34.94
864.928	61.48
865.096	53.23
865.264	58.46
865.432	54.56
865.6	74.94
865.768	80.98
865.936	66.3
866.104	61.87
866.272	72.8
866.44	46.82
866.608	5.14
866.776	41.71
866.944	72.55
867.112	58.19
867.28	51.88
867.448	73.84
867.615	58.46
867.783	30.01
867.951	48.51
868.119	64.7
868.286	86.12
868.454	65.98
868.622	66.14
868.789	48.45
868.957	63.56
869.125	60.9
869.292	25.84
869.46	22.01
869.627	33.72
869.795	8.33
869.963	-0.67
870.13	24.77
870.298	28.87
870.465	15.11
870.632	10.47
870.8	18.02
870.967	24.51
871.135	30.02
871.302	34.89
871.469	52.75
871.637	68.83
871.804	82.2
871.971	71.54
872.139	73.04
872.306	58.54
872.473	18.13
872.64	-69.36
872.807	-66.75
872.975	-144.35
873.142	-23.64
873.309	3.96
873.476	41.09
873.643	54.43
873.81	45.49
873.977	24.05
874.144	19.8
874.311	-3.43
874.478	8.28
874.645	2.39
874.812	67.58
874.979	124.03
875.146	107.41
875.313	75.27
875.48	105.18
875.647	79.96
875.813	28.2
875.98	46.94
876.147	42.85
876.314	-1.01
876.481	32.12
876.647	86.96
876.814	65.79
876.981	83.7
877.147	82.58
877.314	60.96
877.481	47.26
877.647	64.93
877.814	67.28
877.98	80.95
878.147	93.91
878.314	106.65
878.48	117.3
878.647	99.44
878.813	112.72
878.979	111.54
879.146	104.34
879.312	107.21
879.479	74.56
879.645	35.45
879.811	18.67
879.978	37.71
880.144	23.98
880.31	25.26
880.477	63.35
880.643	58.25
880.809	-9.35
880.975	28.66
881.142	15.96
881.308	222.61
881.474	413.28
881.64	83.41
881.806	32.24
881.972	74.33
882.138	52.12
882.304	79.22
882.47	53.18
882.636	17.46
882.802	-16.53
882.968	-52.55
883.134	-32.67
883.3	-43.74
883.466	-4.58
883.632	26.04
883.798	58.66
883.964	66.43
884.129	121.4
884.295	6.23
884.461	-16.66
884.627	21.82
884.793	43.97
884.958	50.04
885.124	67.75
885.29	67
885.455	63.72
885.621	88.29
885.787	58
885.952	49.61
886.118	51.1
886.283	56.81
886.449	24.54
886.614	38.51
886.78	15.55
886.945	-13.12
887.111	-20.39
887.276	-0.36
887.442	-31.52
887.607	8.52
887.773	38.14
887.938	31.77
888.103	16.89
888.269	27.81
888.434	36.37
888.599	38.81
888.764	73.27
888.93	83.46
889.095	68.65
889.26	51.8
889.425	37.3
889.59	-9.44
889.756	-31.7
889.921	-22.73
890.086	3.65
890.251	45.99
890.416	23.57
890.581	20.33
890.746	87.02
890.911	37.74
891.076	31.22
891.241	40.94
891.406	29.91
891.571	-18.64
891.736	74.03
891.901	51.69
892.065	21.09
892.23	64.48
892.395	20.88
892.56	0.46
892.725	-29.68
892.889	8.93
893.054	-25.45
893.219	-2.11
893.384	-48.68
893.548	-50.19
893.713	-101.87
893.878	-161.34
