Data from Ofra_PS_T2_2A_4CX12_Reflection_1.txt Node
Date: Wed Jul 21 17:11:24 EDT 2021
User: Adam
Spectrometer: FLMT01687
Trigger mode: 0
Integration Time (sec): 1.100000E0
Scans to average: 2
Electric dark correction enabled: true
Nonlinearity correction enabled: false
Boxcar width: 2
XAxis mode: Wavelengths
Number of Pixels in Spectrum: 3648
>>>>>Begin Spectral Data<<<<<
179.494	518.8
179.716	589.18
179.937	549.09
180.158	507.62
180.38	790.94
180.601	377.62
180.823	89.64
181.044	46.68
181.265	341.54
181.486	83.51
181.708	56
181.929	592.86
182.15	13.38
182.372	183.61
182.593	52.44
182.814	43.98
183.035	84.61
183.257	72.35
183.478	56.28
183.699	96.11
183.92	71.04
184.141	55.95
184.363	5.11
184.584	19.63
184.805	0.98
185.026	19.79
185.247	22.71
185.468	6.99
185.689	3.1
185.91	12.46
186.132	-0.51
186.353	3.38
186.574	39.22
186.795	34.44
187.016	-35.7
187.237	-43.41
187.458	-103.32
187.679	-84.79
187.9	-71.59
188.121	-25.81
188.342	-27.5
188.563	28.88
188.784	38.79
189.005	49.57
189.226	88.76
189.447	58.07
189.667	-43.45
189.888	-283.5
190.109	-1269.48
190.33	-690.65
190.551	-1180.97
190.772	-357.99
190.993	-254.77
191.214	-197.05
191.434	-156.33
191.655	-48.53
191.876	-43.07
192.097	-101.14
192.318	-154.82
192.538	-237.39
192.759	-164.61
192.98	-59.87
193.201	-12.43
193.421	13.56
193.642	35.89
193.863	39.84
194.083	10.18
194.304	2.36
194.525	-12.58
194.745	-57.15
194.966	-78.71
195.187	-58.09
195.407	-73.22
195.628	-116.03
195.848	-110.52
196.069	-107.74
196.29	-79.56
196.51	-117.07
196.731	-85.62
196.951	-105.91
197.172	-116.93
197.392	-164.37
197.613	-151.07
197.833	-193.95
198.054	-154.11
198.274	-88.07
198.495	-97.36
198.715	-55.61
198.936	-72.2
199.156	-60.54
199.377	-146.71
199.597	-118.38
199.817	-121.12
200.038	-66.4
200.258	-129.87
200.479	-79.16
200.699	-84.19
200.919	-57.93
201.14	-34.93
201.36	-24.11
201.58	8.21
201.801	23.02
202.021	-6.23
202.241	-31.65
202.461	-27.54
202.682	-128.82
202.902	-165.89
203.122	-92.52
203.342	-61.57
203.563	-34.35
203.783	-7.57
204.003	-64.97
204.223	-59.12
204.443	3.75
204.663	-32.88
204.884	-14.65
205.104	46.01
205.324	67.95
205.544	63.73
205.764	83.91
205.984	84.27
206.204	64.74
206.424	48.32
206.644	14.76
206.864	0.57
207.084	-18.62
207.304	-16.44
207.525	-135.78
207.745	-56.75
207.964	22.68
208.184	-27.08
208.404	-57.15
208.624	-68.28
208.844	-69.13
209.064	-364.17
209.284	-372.93
209.504	-177.2
209.724	-35.37
209.944	-2.36
210.164	32.44
210.384	45.17
210.604	25.05
210.823	-4.4
211.043	-21.24
211.263	-17.51
211.483	-26.66
211.703	-58.21
211.922	-31.03
212.142	4.93
212.362	-0.55
212.582	-9.08
212.801	14.23
213.021	5.38
213.241	-6.36
213.461	-26.1
213.68	-51.57
213.9	-22.93
214.12	-38.55
214.339	-92.24
214.559	-65.11
214.779	-2.85
214.998	-21.28
215.218	-28.76
215.438	0.79
215.657	-24.08
215.877	-38.54
216.096	-4.81
216.316	1.98
216.535	-5.12
216.755	-2.46
216.974	-63.06
217.194	-99.12
217.413	-112.82
217.633	-105.36
217.852	-180.71
218.072	-89.03
218.291	-40.67
218.511	-11.77
218.73	-43.94
218.95	-24.79
219.169	-18.64
219.389	-67.22
219.608	-42.65
219.827	-21.54
220.047	-15.91
220.266	-11.04
220.485	-19.51
220.705	-24.05
220.924	-46.81
221.143	-0.95
221.363	-17.51
221.582	10.92
221.801	19.88
222.021	33.25
222.24	-45.18
222.459	2.67
222.678	-52.66
222.897	-111
223.117	-103.66
223.336	-47.39
223.555	-34.75
223.774	28.56
223.993	67.22
224.213	72.03
224.432	53.13
224.651	57.32
224.87	25.64
225.089	29.26
225.308	16.68
225.527	37.49
225.746	38.43
225.965	29.73
226.184	-0.94
226.404	34.06
226.623	5.2
226.842	5.27
227.061	29.1
227.28	38.92
227.499	16.85
227.718	27.62
227.936	17.8
228.155	20.97
228.374	23.2
228.593	29.83
228.812	32.3
229.031	15.49
229.25	-23.46
229.469	-37.99
229.688	-23.7
229.907	2.78
230.125	39.93
230.344	63.4
230.563	62.67
230.782	64.72
231.001	-8.58
231.22	-10.23
231.438	14.49
231.657	10.19
231.876	-6.13
232.095	43.8
232.313	42.59
232.532	-0.79
232.751	-44.89
232.969	-45.23
233.188	-124.12
233.407	-45.29
233.625	-21.47
233.844	-5.5
234.063	17.43
234.281	36.99
234.5	14.56
234.719	19.51
234.937	43.75
235.156	42.96
235.374	40.19
235.593	27.31
235.811	3.18
236.03	-8.99
236.249	-53.88
236.467	-58.56
236.686	-12.08
236.904	4.93
237.123	-23.88
237.341	-21.8
237.559	-12.13
237.778	-30.04
237.996	-52.11
238.215	-5.7
238.433	6.52
238.652	10.06
238.87	-10.11
239.088	1.12
239.307	0.03
239.525	12.29
239.743	-19.93
239.962	10.39
240.18	-12.13
240.398	-68.71
240.617	-91.01
240.835	-88.38
241.053	-62.58
241.271	-4.77
241.49	30.71
241.708	14.66
241.926	23.56
242.144	7.89
242.363	-40.97
242.581	-58.98
242.799	-25.92
243.017	3.24
243.235	-22.66
243.453	-7.77
243.672	-12.81
243.89	-8.97
244.108	-16.43
244.326	21.01
244.544	13.19
244.762	-3.43
244.98	-2.53
245.198	6.26
245.416	-35.94
245.634	-20.4
245.852	6.52
246.07	9.58
246.288	-6.99
246.506	-45.31
246.724	-35.65
246.942	-32.72
247.16	10.86
247.378	17.16
247.596	51.11
247.814	47.21
248.032	23.99
248.25	9.05
248.468	14.47
248.685	19.46
248.903	30.5
249.121	31.06
249.339	-12.63
249.557	-30.07
249.775	-20.77
249.992	-91.17
250.21	-67.33
250.428	-27.37
250.646	-44.76
250.863	-65.34
251.081	-30.38
251.299	-39.94
251.517	-50.28
251.734	-40.73
251.952	-43.28
252.17	-29.32
252.387	-9.59
252.605	-11.47
252.823	1.63
253.04	19.5
253.258	37.3
253.475	9.6
253.693	30.42
253.911	24.73
254.128	30.01
254.346	27.02
254.563	16.92
254.781	-14.98
254.998	-28.83
255.216	-31.66
255.433	-35.77
255.651	0.05
255.868	57.98
256.086	68.29
256.303	64.23
256.521	56.61
256.738	36.92
256.956	-10.16
257.173	-38.52
257.39	-66.39
257.608	-109.09
257.825	-6.1
258.043	33.16
258.26	56.77
258.477	83.35
258.695	99.71
258.912	21.94
259.129	19.4
259.346	-24.98
259.564	-45.36
259.781	-67.45
259.998	-27.36
260.216	-10.98
260.433	30.99
260.65	21.84
260.867	46.37
261.084	16.18
261.302	2.28
261.519	-14.25
261.736	-37.8
261.953	-72.64
262.17	-23.36
262.387	-84.56
262.604	-83.49
262.822	-82.66
263.039	-66.51
263.256	-104.77
263.473	-36.86
263.69	-42.68
263.907	3.11
264.124	5.72
264.341	-3.53
264.558	-6.22
264.775	17.88
264.992	9.59
265.209	26.39
265.426	43.52
265.643	53.89
265.86	58.06
266.077	48.87
266.294	30.45
266.51	-7.52
266.727	-20.75
266.944	-16.88
267.161	-26.02
267.378	-15.48
267.595	17.28
267.812	-11.76
268.028	-48.39
268.245	-0.99
268.462	-29.14
268.679	-36.32
268.896	6.77
269.112	26.13
269.329	7.45
269.546	9.32
269.763	11.25
269.979	8.7
270.196	0.54
270.413	-23.01
270.629	-28.04
270.846	-44.46
271.063	-45.28
271.279	-61.72
271.496	-54.7
271.712	-29.58
271.929	-14.68
272.146	-23.91
272.362	-14.14
272.579	4.78
272.795	11.56
273.012	18.01
273.228	15.66
273.445	-12.21
273.661	-48.84
273.878	-69.35
274.094	-53.63
274.311	-72.56
274.527	-3.63
274.744	9.73
274.96	8.39
275.177	11.25
275.393	26.38
275.609	13.63
275.826	44.02
276.042	31.21
276.259	-9.78
276.475	9.78
276.691	11.66
276.908	-18.58
277.124	-5.15
277.34	23.78
277.557	7.66
277.773	-3.77
277.989	-7.56
278.205	-4.91
278.422	14.66
278.638	16.46
278.854	45.95
279.07	53.28
279.286	30.42
279.503	-25.36
279.719	-7.47
279.935	-31.92
280.151	-32.75
280.367	7.57
280.583	8.14
280.799	-7.21
281.016	-22.68
281.232	2.72
281.448	-0.34
281.664	28.91
281.88	7.83
282.096	11.9
282.312	23.98
282.528	12.61
282.744	9.33
282.96	10.64
283.176	9.58
283.392	-1.08
283.608	10.06
283.824	1.41
284.04	13.47
284.256	17.37
284.471	7.49
284.687	0.03
284.903	42.1
285.119	51.47
285.335	29.04
285.551	40.9
285.767	32.02
285.982	-23.87
286.198	-51.58
286.414	-1.38
286.63	15.68
286.846	40.83
287.061	21.62
287.277	53.62
287.493	25.29
287.709	17.94
287.924	-7.82
288.14	30.49
288.356	4.09
288.571	44.68
288.787	25.4
289.003	31.62
289.218	19.86
289.434	-9.59
289.65	-18.97
289.865	-0.37
290.081	16.07
290.296	24.3
290.512	27.64
290.727	-5.04
290.943	-11.55
291.159	-35.79
291.374	-51.95
291.59	-87.57
291.805	-64.67
292.021	-60.42
292.236	-52.41
292.451	-22.38
292.667	0.59
292.882	12.13
293.098	9.79
293.313	-16.22
293.529	-50.35
293.744	-48.36
293.959	-59.06
294.175	-46.08
294.39	-4.07
294.605	9.87
294.821	33.64
295.036	42.05
295.251	42.71
295.467	29.77
295.682	31.4
295.897	-19.3
296.112	-32.59
296.328	-18.69
296.543	-47.86
296.758	-45.2
296.973	-1.14
297.188	28.97
297.404	-2.64
297.619	-7.42
297.834	-8.82
298.049	-25.24
298.264	-56.88
298.479	-8.25
298.694	-2.74
298.909	2.5
299.125	1.89
299.34	19.22
299.555	-10.48
299.77	18.61
299.985	-20.48
300.2	-64.63
300.415	-101.8
300.63	-59.74
300.845	-69.19
301.06	-54.48
301.275	-11.11
301.49	11.13
301.704	1.16
301.919	-23.66
302.134	-22.56
302.349	-22.15
302.564	-81.35
302.779	-82.09
302.994	-51.65
303.209	-23.95
303.423	-4.78
303.638	55.54
303.853	10.64
304.068	16.71
304.283	11.6
304.497	-2.89
304.712	-15.4
304.927	-4.93
305.142	-10.71
305.356	-4.62
305.571	-19.08
305.786	-28.56
306	-35.46
306.215	-27.7
306.43	-70.74
306.644	-37.56
306.859	2.2
307.074	10.17
307.288	-17.82
307.503	-0.72
307.717	-21.99
307.932	-35.81
308.147	-27.13
308.361	-22.37
308.576	-34.81
308.79	-79.4
309.005	-69.53
309.219	-73.35
309.434	-74.02
309.648	-59.38
309.863	-19.64
310.077	-23.58
310.292	-18.54
310.506	-4.64
310.72	9.12
310.935	22.83
311.149	23.18
311.364	41.13
311.578	43.99
311.792	36.02
312.007	36
312.221	23.4
312.435	9.45
312.649	-11.67
312.864	-31.58
313.078	-26.84
313.292	22.04
313.507	-1.56
313.721	33.85
313.935	54.54
314.149	43.35
314.363	23.55
314.578	24.18
314.792	29.62
315.006	9.96
315.22	21.93
315.434	24.04
315.648	32.51
315.862	21.63
316.077	18.95
316.291	-13.44
316.505	-11.59
316.719	-21.72
316.933	-40.71
317.147	-43.2
317.361	-71.22
317.575	-78.29
317.789	-103.69
318.003	-147.83
318.217	-66.57
318.431	13.4
318.645	39.79
318.859	26.31
319.073	60.67
319.287	37.54
319.5	7.45
319.714	-45.17
319.928	-66.07
320.142	-94.4
320.356	-14.37
320.57	27.86
320.784	45.44
320.997	61.69
321.211	43.86
321.425	-63.8
321.639	-92.43
321.853	-34.23
322.066	-18.86
322.28	-14.9
322.494	10.16
322.707	29.02
322.921	23.25
323.135	18.9
323.349	22.24
323.562	-9.14
323.776	-23.17
323.989	-37.12
324.203	-54.46
324.417	-55.38
324.63	-50.1
324.844	-56.4
325.057	-34.09
325.271	-18.97
325.485	1.74
325.698	28.4
325.912	40.5
326.125	5.92
326.339	5.17
326.552	-21.61
326.766	-35.34
326.979	-19.71
327.193	30.28
327.406	25.13
327.619	20.56
327.833	38.5
328.046	4.35
328.26	-42.45
328.473	-24.71
328.686	-53.67
328.9	-72.67
329.113	-39.59
329.326	-49.63
329.54	-50.8
329.753	-49.88
329.966	-58.27
330.179	-54.08
330.393	-18.3
330.606	-9.15
330.819	13.58
331.032	21.94
331.246	32.9
331.459	44.19
331.672	34.35
331.885	30.15
332.098	7.17
332.311	-30.41
332.525	-88.59
332.738	-76.66
332.951	-43.57
333.164	0.91
333.377	32.74
333.59	54.94
333.803	61.94
334.016	35.51
334.229	27.25
334.442	6.64
334.655	23.13
334.868	30.03
335.081	22.48
335.294	7.48
335.507	18.4
335.72	-6.06
335.933	-24.56
336.146	-22.42
336.359	-9.77
336.572	-43.9
336.785	-70.1
336.997	-33.59
337.21	-1.64
337.423	-1.02
337.636	4.78
337.849	35.61
338.062	9.28
338.274	-1.37
338.487	-18.37
338.7	-17.08
338.913	-56.16
339.125	-74.8
339.338	-128.48
339.551	-108.53
339.763	-71.65
339.976	-34.96
340.189	1.03
340.402	21.49
340.614	15.93
340.827	12.01
341.039	-1.1
341.252	-6.9
341.465	10.69
341.677	13.14
341.89	-18.01
342.102	16.36
342.315	5.64
342.527	-23.33
342.74	-24.06
342.952	14.72
343.165	0.37
343.377	22.52
343.59	17.31
343.802	39.82
344.015	31.35
344.227	49.3
344.44	37.88
344.652	38.6
344.864	8.61
345.077	31.82
345.289	22.64
345.502	25.63
345.714	18.49
345.926	33.55
346.139	15.78
346.351	27.56
346.563	21.47
346.775	24.52
346.988	8.46
347.2	-2.5
347.412	-56.16
347.624	-67.7
347.837	-71.19
348.049	-23.26
348.261	10.49
348.473	26.3
348.685	36.86
348.897	37.22
349.11	11.68
349.322	1.42
349.534	11.29
349.746	-2.81
349.958	-14.2
350.17	-29.21
350.382	5.22
350.594	-3.79
350.806	-3.84
351.018	7.9
351.23	6.29
351.442	-48.54
351.654	-44.89
351.866	-36.6
352.078	-29.75
352.29	1.32
352.502	14.51
352.714	27.43
352.926	15.68
353.138	5.74
353.35	-10.45
353.561	-19.93
353.773	-43.44
353.985	-17.46
354.197	-14.54
354.409	-22.08
354.621	-21.17
354.832	-10.57
355.044	-17.42
355.256	-16.95
355.468	8.49
355.679	11.02
355.891	20
356.103	6.49
356.314	12.74
356.526	0.57
356.738	-1.05
356.949	-8.13
357.161	15.49
357.373	9.05
357.584	-0.13
357.796	10.8
358.008	22.48
358.219	28.82
358.431	27.66
358.642	39.3
358.854	33.7
359.065	0.5
359.277	-29.29
359.488	-49.58
359.7	-76.16
359.911	-82.32
360.123	-44.79
360.334	-52.29
360.546	-65.6
360.757	-64.86
360.969	-54.12
361.18	-40.76
361.391	-19.63
361.603	-6.8
361.814	18.57
362.025	10.84
362.237	-5.94
362.448	12.69
362.659	26.76
362.871	10.86
363.082	13.42
363.293	6.67
363.504	-15.78
363.716	-45.38
363.927	-52.13
364.138	-67.16
364.349	-66
364.56	-54.29
364.772	-44.86
364.983	-5.68
365.194	-6.39
365.405	1.37
365.616	11.02
365.827	8.69
366.038	-30.98
366.25	-25.52
366.461	-37.13
366.672	-18.75
366.883	11.41
367.094	17.13
367.305	5.83
367.516	8.47
367.727	-14.07
367.938	-43.49
368.149	-39.91
368.36	-15.92
368.571	-9.33
368.781	-24.3
368.992	-25.12
369.203	-46.65
369.414	-75.67
369.625	-83.53
369.836	-60.43
370.047	-91.99
370.258	-61.26
370.468	-56.55
370.679	-74.72
370.89	-71.56
371.101	-20.72
371.312	-23.89
371.522	-18.02
371.733	-7.24
371.944	11.94
372.155	3.76
372.365	-5.41
372.576	-0.11
372.787	0.97
372.997	-40.8
373.208	-47.68
373.419	-16.04
373.629	-46.36
373.84	-47.11
374.05	-41.86
374.261	-30.39
374.472	-39.34
374.682	8.49
374.893	11.19
375.103	45.02
375.314	34.84
375.524	30.19
375.735	25.57
375.945	37.84
376.156	7.17
376.366	8.96
376.577	4.24
376.787	0.6
376.997	-2.75
377.208	4.06
377.418	-4.01
377.629	4.63
377.839	-4.99
378.049	-10.47
378.26	6.75
378.47	17.27
378.68	9
378.89	4.14
379.101	-4.84
379.311	-42.73
379.521	-79.96
379.732	-78.88
379.942	-65.83
380.152	-69.88
380.362	-28.17
380.572	-17.32
380.783	-5.78
380.993	-0.2
381.203	14.11
381.413	12.04
381.623	11.44
381.833	7.61
382.043	4.82
382.253	-8.54
382.463	-8.76
382.674	-12.74
382.884	-30.03
383.094	-30.6
383.304	-21.05
383.514	-13.54
383.724	-2.3
383.934	-2.94
384.144	-16.31
384.353	-19.92
384.563	-30.24
384.773	-25.37
384.983	-33.3
385.193	-6.28
385.403	2.32
385.613	11.62
385.823	3.94
386.033	9.72
386.242	-3.37
386.452	-10.86
386.662	-16.21
386.872	-5.18
387.082	-7.64
387.291	-9.35
387.501	-7.07
387.711	-5.98
387.921	-12.89
388.13	-8.99
388.34	2.09
388.55	-3.05
388.759	-1.12
388.969	7.96
389.179	8.27
389.388	7.29
389.598	12.01
389.807	6.27
390.017	-0.99
390.227	-0.04
390.436	-4.77
390.646	-3.91
390.855	-1.78
391.065	-3.92
391.274	-6.3
391.484	-4.83
391.693	-1.41
391.903	0.57
392.112	7.2
392.322	10.6
392.531	12.15
392.74	12.58
392.95	10.2
393.159	8.14
393.369	10.25
393.578	9.43
393.787	6.07
393.997	7.35
394.206	6.46
394.415	5.91
394.625	5.99
394.834	5.31
395.043	7.2
395.252	9.69
395.462	10.05
395.671	11.76
395.88	12.69
396.089	12.69
396.298	10.2
396.508	9.66
396.717	8.51
396.926	9.46
397.135	8.92
397.344	9.33
397.553	10.35
397.762	12.28
397.971	11.54
398.181	12.06
398.39	11.85
398.599	11.59
398.808	10.63
399.017	11.7
399.226	12.19
399.435	13.34
399.644	13.1
399.853	12.65
400.062	12.28
400.27	11.44
400.479	10.75
400.688	10.22
400.897	10.65
401.106	10.7
401.315	10.63
401.524	10.8
401.733	11.32
401.941	11.62
402.15	11.64
402.359	11.72
402.568	12.02
402.777	12.16
402.985	11.77
403.194	11.52
403.403	11.74
403.612	11.3
403.82	11.02
404.029	11.15
404.238	11.02
404.446	11.03
404.655	10.84
404.864	10.88
405.072	10.63
405.281	10.94
405.489	10.65
405.698	10.59
405.906	10.36
406.115	10.36
406.324	10.14
406.532	10.29
406.741	10.66
406.949	10.64
407.158	10.71
407.366	10.75
407.574	10.69
407.783	10.42
407.991	10.33
408.2	10.47
408.408	10.47
408.617	10.45
408.825	10.43
409.033	10.68
409.242	10.61
409.45	10.73
409.658	10.61
409.867	10.76
410.075	10.54
410.283	10.35
410.491	10.15
410.7	10.05
410.908	9.97
411.116	10.25
411.324	10.29
411.533	10.24
411.741	10.39
411.949	10.49
412.157	10.21
412.365	10.2
412.573	10.16
412.781	10.19
412.99	9.98
413.198	10.07
413.406	10
413.614	10.07
413.822	9.94
414.03	9.81
414.238	9.49
414.446	9.52
414.654	9.17
414.862	9.22
415.07	9.29
415.278	9.47
415.486	9.24
415.694	9.46
415.902	9.26
416.109	9.17
416.317	9.2
416.525	9.06
416.733	9
416.941	9.13
417.149	9.25
417.357	9.3
417.564	9.68
417.772	9.97
417.98	9.91
418.188	9.83
418.395	9.69
418.603	9.69
418.811	9.19
419.019	9.05
419.226	9.19
419.434	9.41
419.642	9
419.849	9.05
420.057	9.13
420.265	9.05
420.472	8.64
420.68	8.77
420.887	8.71
421.095	8.69
421.302	8.65
421.51	8.87
421.717	8.97
421.925	9.17
422.132	8.92
422.34	8.64
422.547	8.61
422.755	8.46
422.962	8.4
423.17	8.44
423.377	8.6
423.585	8.75
423.792	8.78
423.999	8.8
424.207	8.91
424.414	9
424.621	8.82
424.829	8.96
425.036	9.09
425.243	9.11
425.451	8.92
425.658	8.71
425.865	8.82
426.072	8.62
426.28	8.92
426.487	9.06
426.694	9.23
426.901	8.93
427.108	8.92
427.315	8.64
427.523	8.82
427.73	8.71
427.937	8.65
428.144	8.54
428.351	8.56
428.558	8.58
428.765	8.64
428.972	8.76
429.179	8.99
429.386	9.23
429.593	8.92
429.8	8.71
430.007	8.77
430.214	8.72
430.421	8.51
430.628	8.42
430.835	8.47
431.042	8.69
431.249	8.88
431.456	8.79
431.662	9.01
431.869	9.29
432.076	9.13
432.283	9.1
432.49	9.23
432.697	9.23
432.903	9.06
433.11	9.1
433.317	9.22
433.524	9.34
433.73	9.29
433.937	9.65
434.144	9.5
434.35	9.35
434.557	9.26
434.764	9.33
434.97	9.03
435.177	9.3
435.384	9.27
435.59	9.24
435.797	9.44
436.003	9.59
436.21	9.52
436.416	9.72
436.623	9.82
436.829	9.91
437.036	9.98
437.242	10.01
437.449	9.83
437.655	9.89
437.862	9.85
438.068	9.72
438.275	9.83
438.481	10.26
438.687	10.18
438.894	10.06
439.1	10.19
439.307	10.32
439.513	10.02
439.719	10.04
439.926	10.17
440.132	10.09
440.338	9.84
440.544	10.07
440.751	10.04
440.957	10.22
441.163	10.15
441.369	10.32
441.575	10.01
441.782	10.08
441.988	9.89
442.194	9.98
442.4	10.06
442.606	10.37
442.812	10.43
443.018	10.5
443.224	10.57
443.431	10.68
443.637	10.41
443.843	10.23
444.049	10.25
444.255	10.14
444.461	9.97
444.667	10.05
444.873	10.34
445.079	10.31
445.284	10.52
445.49	10.38
445.696	10.31
445.902	10.25
446.108	10.22
446.314	10.13
446.52	10.26
446.726	10.51
446.931	10.51
447.137	10.57
447.343	10.58
447.549	10.46
447.755	10.36
447.96	10.41
448.166	10.33
448.372	10.26
448.578	10.37
448.783	10.41
448.989	10.41
449.195	10.69
449.4	10.9
449.606	10.87
449.812	10.77
450.017	10.75
450.223	10.56
450.428	10.37
450.634	10.48
450.84	10.58
451.045	10.54
451.251	10.48
451.456	10.77
451.662	10.92
451.867	10.97
452.073	11
452.278	11.2
452.483	11.13
452.689	10.87
452.894	10.78
453.1	10.81
453.305	10.69
453.51	10.69
453.716	10.8
453.921	10.88
454.127	10.87
454.332	10.79
454.537	10.74
454.742	10.67
454.948	10.66
455.153	10.75
455.358	10.93
455.563	11
455.769	11.11
455.974	11.1
456.179	10.92
456.384	10.83
456.589	10.85
456.795	10.77
457	10.87
457.205	11.13
457.41	11.1
457.615	10.98
457.82	11.06
458.025	11.04
458.23	10.91
458.435	11.04
458.64	10.93
458.845	11.01
459.05	10.96
459.255	11.05
459.46	10.91
459.665	11.05
459.87	11
460.075	10.98
460.28	10.85
460.485	11.01
460.69	11
460.895	10.87
461.099	10.85
461.304	11.02
461.509	10.98
461.714	11
461.919	11.16
462.123	11.13
462.328	11.17
462.533	11.19
462.738	11.25
462.942	11.13
463.147	11.33
463.352	11.3
463.556	11.23
463.761	11.28
463.966	11.41
464.17	11.32
464.375	11.27
464.58	11.3
464.784	11.23
464.989	11.14
465.193	11.21
465.398	11.21
465.602	11.28
465.807	11.29
466.011	11.39
466.216	11.43
466.42	11.6
466.625	11.67
466.829	11.83
467.034	11.86
467.238	12
467.443	11.89
467.647	11.84
467.851	11.78
468.056	11.84
468.26	11.75
468.464	11.77
468.669	11.89
468.873	12.03
469.077	11.98
469.282	12.06
469.486	12.13
469.69	12.16
469.894	12.01
470.099	12.12
470.303	12.12
470.507	12.03
470.711	11.87
470.915	11.97
471.119	11.83
471.324	11.79
471.528	11.86
471.732	12.08
471.936	12.07
472.14	12.24
472.344	12.33
472.548	12.43
472.752	12.55
472.956	12.8
473.16	12.76
473.364	12.71
473.568	12.67
473.772	12.66
473.976	12.51
474.18	12.56
474.384	12.6
474.588	12.68
474.792	12.56
474.995	12.71
475.199	12.86
475.403	12.95
475.607	12.94
475.811	13.02
476.015	13.02
476.218	13
476.422	12.89
476.626	12.91
476.83	13
477.033	12.92
477.237	12.86
477.441	13
477.644	13.11
477.848	13.09
478.052	13.08
478.255	13.14
478.459	13.11
478.663	13.18
478.866	13.28
479.07	13.38
479.273	13.44
479.477	13.55
479.681	13.55
479.884	13.52
480.088	13.45
480.291	13.48
480.495	13.43
480.698	13.42
480.901	13.51
481.105	13.65
481.308	13.61
481.512	13.68
481.715	13.67
481.919	13.71
482.122	13.74
482.325	13.82
482.529	13.78
482.732	13.88
482.935	13.75
483.138	13.65
483.342	13.7
483.545	13.81
483.748	13.79
483.952	13.88
484.155	14.04
484.358	14.13
484.561	14.12
484.764	14.15
484.967	14.21
485.171	14.26
485.374	14.13
485.577	14.18
485.78	14.19
485.983	14.15
486.186	13.95
486.389	13.97
486.592	14
486.795	14.01
486.998	13.93
487.201	14.1
487.404	14.12
487.607	14.17
487.81	14.13
488.013	14.24
488.216	14.23
488.419	14.2
488.622	14.17
488.825	14.14
489.028	14.13
489.231	14.1
489.433	14.02
489.636	13.99
489.839	13.96
490.042	13.9
490.245	13.84
490.447	13.95
490.65	13.95
490.853	14
491.056	14.07
491.258	14.21
491.461	14.3
491.664	14.35
491.866	14.28
492.069	14.34
492.272	14.23
492.474	14.13
492.677	14.16
492.879	14.31
493.082	14.38
493.285	14.55
493.487	14.53
493.69	14.43
493.892	14.34
494.095	14.35
494.297	14.34
494.5	14.42
494.702	14.51
494.905	14.52
495.107	14.46
495.309	14.41
495.512	14.49
495.714	14.55
495.917	14.63
496.119	14.63
496.321	14.69
496.524	14.71
496.726	14.64
496.928	14.6
497.13	14.61
497.333	14.61
497.535	14.66
497.737	14.67
497.939	14.73
498.142	14.77
498.344	14.77
498.546	14.65
498.748	14.77
498.95	14.86
499.152	14.83
499.355	14.85
499.557	15.01
499.759	15.09
499.961	15.06
500.163	15.09
500.365	15.2
500.567	15.25
500.769	15.07
500.971	15.1
501.173	15.09
501.375	15.04
501.577	14.94
501.779	15.03
501.981	15.09
502.183	15.16
502.385	15.11
502.587	15.15
502.788	15.28
502.99	15.24
503.192	15.34
503.394	15.41
503.596	15.42
503.798	15.44
503.999	15.57
504.201	15.58
504.403	15.64
504.605	15.72
504.806	15.6
505.008	15.55
505.21	15.59
505.411	15.63
505.613	15.66
505.815	15.79
506.016	15.91
506.218	16.03
506.42	15.98
506.621	16.02
506.823	16.03
507.024	16.04
507.226	16
507.427	16.06
507.629	16.16
507.83	16.26
508.032	16.22
508.233	16.29
508.435	16.3
508.636	16.32
508.838	16.29
509.039	16.38
509.24	16.39
509.442	16.56
509.643	16.46
509.845	16.53
510.046	16.58
510.247	16.6
510.448	16.5
510.65	16.6
510.851	16.69
511.052	16.66
511.254	16.68
511.455	16.81
511.656	16.9
511.857	16.93
512.058	16.95
512.26	16.9
512.461	16.92
512.662	16.88
512.863	16.76
513.064	16.82
513.265	16.94
513.466	16.95
513.667	16.98
513.868	17.06
514.069	17.12
514.27	17.14
514.471	17.15
514.672	17.21
514.873	17.18
515.074	17.25
515.275	17.22
515.476	17.16
515.677	17.16
515.878	17.36
516.079	17.33
516.28	17.33
516.481	17.42
516.682	17.51
516.882	17.37
517.083	17.35
517.284	17.35
517.485	17.37
517.686	17.3
517.886	17.37
518.087	17.4
518.288	17.46
518.488	17.43
518.689	17.43
518.89	17.35
519.091	17.39
519.291	17.41
519.492	17.49
519.692	17.53
519.893	17.65
520.094	17.56
520.294	17.54
520.495	17.55
520.695	17.61
520.896	17.5
521.096	17.62
521.297	17.71
521.497	17.68
521.698	17.65
521.898	17.75
522.099	17.73
522.299	17.82
522.499	17.85
522.7	17.9
522.9	17.87
523.101	18
523.301	17.92
523.501	17.93
523.702	17.98
523.902	18.06
524.102	18
524.302	17.95
524.503	18
524.703	17.97
524.903	18.04
525.103	18.02
525.304	18.15
525.504	18.2
525.704	18.22
525.904	18.14
526.104	18.16
526.304	18.17
526.504	18.18
526.705	18.22
526.905	18.35
527.105	18.38
527.305	18.38
527.505	18.35
527.705	18.36
527.905	18.3
528.105	18.38
528.305	18.31
528.505	18.38
528.705	18.38
528.905	18.38
529.105	18.34
529.304	18.38
529.504	18.42
529.704	18.41
529.904	18.44
530.104	18.48
530.304	18.63
530.503	18.64
530.703	18.61
530.903	18.63
531.103	18.61
531.303	18.54
531.502	18.57
531.702	18.7
531.902	18.72
532.101	18.72
532.301	18.75
532.501	18.74
532.7	18.7
532.9	18.69
533.1	18.73
533.299	18.75
533.499	18.76
533.698	18.76
533.898	18.76
534.097	18.77
534.297	18.88
534.496	18.92
534.696	18.95
534.895	19.11
535.095	19.19
535.294	19.09
535.494	19.06
535.693	19.1
535.892	19.07
536.092	19
536.291	19.04
536.491	19.09
536.69	19.19
536.889	19.13
537.088	19.15
537.288	19.25
537.487	19.3
537.686	19.31
537.886	19.38
538.085	19.5
538.284	19.59
538.483	19.54
538.682	19.49
538.882	19.56
539.081	19.59
539.28	19.47
539.479	19.53
539.678	19.64
539.877	19.78
540.076	19.82
540.275	19.89
540.474	19.97
540.673	19.96
540.872	19.87
541.071	19.89
541.27	19.94
541.469	19.99
541.668	20
541.867	20.02
542.066	20.05
542.265	20.11
542.464	20.14
542.663	20.22
542.862	20.42
543.06	20.47
543.259	20.54
543.458	20.62
543.657	20.63
543.856	20.59
544.054	20.57
544.253	20.6
544.452	20.59
544.651	20.67
544.849	20.66
545.048	20.77
545.247	20.84
545.445	20.91
545.644	20.94
545.843	21
546.041	21.05
546.24	21.09
546.438	21.19
546.637	21.31
546.836	21.45
547.034	21.56
547.233	21.59
547.431	21.61
547.63	21.72
547.828	21.76
548.027	21.81
548.225	21.91
548.423	21.97
548.622	22
548.82	22.06
549.019	22.14
549.217	22.26
549.415	22.3
549.614	22.37
549.812	22.38
550.01	22.34
550.209	22.36
550.407	22.49
550.605	22.53
550.803	22.71
551.002	22.82
551.2	22.93
551.398	23.03
551.596	23.14
551.794	23.14
551.993	23.3
552.191	23.34
552.389	23.42
552.587	23.5
552.785	23.57
552.983	23.65
553.181	23.79
553.379	23.87
553.577	23.94
553.775	24.08
553.973	24.12
554.171	24.2
554.369	24.13
554.567	24.22
554.765	24.3
554.963	24.4
555.161	24.44
555.359	24.75
555.557	24.89
555.755	24.93
555.952	25.03
556.15	25.14
556.348	25.11
556.546	25.18
556.744	25.3
556.941	25.34
557.139	25.45
557.337	25.58
557.535	25.66
557.732	25.8
557.93	25.99
558.128	26.15
558.325	26.3
558.523	26.33
558.721	26.45
558.918	26.53
559.116	26.59
559.313	26.64
559.511	26.77
559.708	26.85
559.906	26.89
560.104	26.92
560.301	27.11
560.498	27.25
560.696	27.3
560.893	27.46
561.091	27.68
561.288	27.79
561.486	27.9
561.683	27.97
561.88	28.08
562.078	28.13
562.275	28.13
562.473	28.31
562.67	28.61
562.867	28.74
563.064	28.92
563.262	29.09
563.459	29.18
563.656	29.33
563.853	29.38
564.051	29.49
564.248	29.64
564.445	29.75
564.642	29.75
564.839	29.97
565.036	30.15
565.234	30.33
565.431	30.48
565.628	30.61
565.825	30.75
566.022	30.93
566.219	30.9
566.416	30.89
566.613	31
566.81	31.09
567.007	30.95
567.204	31.09
567.401	31.24
567.598	31.27
567.795	31.23
567.991	31.41
568.188	31.48
568.385	31.61
568.582	31.69
568.779	31.92
568.976	32.03
569.172	32.2
569.369	32.18
569.566	32.25
569.763	32.27
569.96	32.32
570.156	32.33
570.353	32.41
570.55	32.58
570.746	32.6
570.943	32.63
571.14	32.65
571.336	32.79
571.533	32.8
571.729	32.76
571.926	32.83
572.123	32.95
572.319	33
572.516	33.11
572.712	33.23
572.909	33.27
573.105	33.37
573.302	33.35
573.498	33.48
573.695	33.54
573.891	33.59
574.087	33.55
574.284	33.59
574.48	33.54
574.677	33.55
574.873	33.63
575.069	33.64
575.266	33.63
575.462	33.56
575.658	33.7
575.854	33.79
576.051	33.88
576.247	33.91
576.443	33.94
576.639	33.87
576.835	33.81
577.032	33.72
577.228	33.88
577.424	34.01
577.62	33.95
577.816	33.96
578.012	34.05
578.208	33.97
578.404	33.92
578.6	34.07
578.796	34.06
578.993	33.97
579.189	33.8
579.384	33.64
579.58	33.45
579.776	33.39
579.972	33.34
580.168	33.39
580.364	33.6
580.56	33.7
580.756	33.64
580.952	33.7
581.148	33.81
581.343	33.74
581.539	33.83
581.735	33.91
581.931	33.88
582.127	33.89
582.322	33.83
582.518	33.82
582.714	33.81
582.909	33.84
583.105	33.74
583.301	33.7
583.496	33.68
583.692	33.62
583.888	33.57
584.083	33.68
584.279	33.68
584.474	33.6
584.67	33.68
584.866	33.75
585.061	33.58
585.257	33.66
585.452	33.67
585.648	33.64
585.843	33.53
586.039	33.68
586.234	33.64
586.429	33.57
586.625	33.61
586.82	33.64
587.015	33.61
587.211	33.56
587.406	33.71
587.601	33.62
587.797	33.6
587.992	33.59
588.187	33.7
588.383	33.53
588.578	33.54
588.773	33.65
588.968	33.58
589.163	33.62
589.359	33.64
589.554	33.69
589.749	33.76
589.944	33.95
590.139	33.9
590.334	34.02
590.529	34.09
590.724	34.21
590.919	34.2
591.114	34.3
591.309	34.49
591.504	34.56
591.699	34.39
591.894	34.48
592.089	34.46
592.284	34.33
592.479	34.37
592.674	34.46
592.869	34.55
593.064	34.66
593.259	34.77
593.454	34.85
593.648	34.94
593.843	34.92
594.038	35.03
594.233	34.98
594.428	35.01
594.622	35.15
594.817	35.26
595.012	35.26
595.206	35.48
595.401	35.51
595.596	35.47
595.79	35.52
595.985	35.62
596.18	35.61
596.374	35.75
596.569	35.81
596.763	35.89
596.958	35.98
597.153	36.06
597.347	36.02
597.542	36.11
597.736	36.14
597.931	36.13
598.125	36.22
598.319	36.49
598.514	36.46
598.708	36.62
598.903	36.7
599.097	36.74
599.291	36.74
599.486	36.89
599.68	36.87
599.874	37.01
600.069	37.04
600.263	36.95
600.457	37.05
600.651	37.19
600.846	37.16
601.04	37.26
601.234	37.38
601.428	37.44
601.622	37.36
601.817	37.41
602.011	37.52
602.205	37.61
602.399	37.52
602.593	37.6
602.787	37.61
602.981	37.53
603.175	37.55
603.369	37.59
603.563	37.6
603.757	37.72
603.951	37.72
604.145	37.68
604.339	37.83
604.533	37.74
604.727	37.63
604.921	37.59
605.115	37.66
605.309	37.62
605.502	37.69
605.696	37.68
605.89	37.79
606.084	37.67
606.278	37.49
606.471	37.38
606.665	37.3
606.859	37.17
607.053	37.13
607.246	37.15
607.44	37.1
607.634	37.07
607.827	37.04
608.021	36.95
608.214	37.01
608.408	36.91
608.602	36.91
608.795	36.89
608.989	36.91
609.182	36.76
609.376	36.84
609.569	36.62
609.763	36.48
609.956	36.35
610.15	36.32
610.343	36.28
610.537	36.29
610.73	36.22
610.923	36.14
611.117	36.09
611.31	35.97
611.504	35.96
611.697	35.83
611.89	35.83
612.083	35.63
612.277	35.57
612.47	35.4
612.663	35.43
612.856	35.3
613.05	35.26
613.243	35.18
613.436	35.08
613.629	34.99
613.822	34.89
614.015	34.8
614.209	34.69
614.402	34.8
614.595	34.69
614.788	34.64
614.981	34.54
615.174	34.34
615.367	34.12
615.56	34.09
615.753	33.95
615.946	33.91
616.139	34
616.332	34.15
616.525	34.1
616.718	34.2
616.911	34.23
617.103	34.24
617.296	34.09
617.489	33.98
617.682	33.92
617.875	33.83
618.067	33.67
618.26	33.47
618.453	33.58
618.646	33.51
618.838	33.49
619.031	33.59
619.224	33.69
619.417	33.63
619.609	33.69
619.802	33.57
619.994	33.48
620.187	33.41
620.38	33.29
620.572	33.1
620.765	33.18
620.957	33.05
621.15	32.93
621.342	32.92
621.535	33.05
621.727	32.92
621.92	32.81
622.112	32.8
622.305	32.89
622.497	32.71
622.69	32.72
622.882	32.78
623.074	32.85
623.267	32.73
623.459	32.72
623.651	32.66
623.844	32.7
624.036	32.49
624.228	32.36
624.42	32.33
624.613	32.45
624.805	32.4
624.997	32.43
625.189	32.48
625.381	32.52
625.574	32.37
625.766	32.34
625.958	32.28
626.15	32.31
626.342	32.28
626.534	32.26
626.726	32.15
626.918	32.2
627.11	32.12
627.302	32.01
627.494	32.01
627.686	32.14
627.878	32.05
628.07	32.04
628.262	32
628.454	32
628.646	31.92
628.838	31.96
629.029	31.83
629.221	31.88
629.413	31.77
629.605	31.61
629.797	31.47
629.989	31.52
630.18	31.48
630.372	31.43
630.564	31.44
630.755	31.53
630.947	31.54
631.139	31.37
631.33	31.25
631.522	31.36
631.714	31.26
631.905	31.22
632.097	31.19
632.289	31.23
632.48	31.08
632.672	31.09
632.863	30.85
633.055	30.88
633.246	30.93
633.438	30.91
633.629	30.85
633.821	31.02
634.012	30.93
634.203	30.81
634.395	30.81
634.586	30.81
634.777	30.68
634.969	30.6
635.16	30.65
635.351	30.53
635.543	30.57
635.734	30.61
635.925	30.73
636.117	30.7
636.308	30.77
636.499	30.64
636.69	30.52
636.881	30.45
637.073	30.55
637.264	30.39
637.455	30.47
637.646	30.65
637.837	30.72
638.028	30.56
638.219	30.72
638.41	30.56
638.601	30.39
638.792	30.39
638.983	30.35
639.174	30.25
639.365	30.34
639.556	30.35
639.747	30.25
639.938	30.32
640.129	30.18
640.32	30.03
640.511	30.01
640.701	30.14
640.892	30.1
641.083	30.23
641.274	30.43
641.465	30.36
641.655	30.14
641.846	30.12
642.037	30.1
642.228	29.97
642.418	30.18
642.609	30.26
642.8	30.22
642.99	30.07
643.181	30.09
643.372	30.02
643.562	29.86
643.753	29.78
643.943	29.78
644.134	29.58
644.324	29.43
644.515	29.54
644.705	29.57
644.896	29.56
645.086	29.71
645.277	29.68
645.467	29.64
645.658	29.52
645.848	29.57
646.038	29.6
646.229	29.54
646.419	29.5
646.61	29.57
646.8	29.52
646.99	29.4
647.18	29.42
647.371	29.33
647.561	29.41
647.751	29.37
647.941	29.25
648.132	29.28
648.322	29.25
648.512	29.13
648.702	29.09
648.892	29.25
649.082	29.17
649.272	29.15
649.462	28.99
649.653	28.84
649.843	28.6
650.033	28.53
650.223	28.51
650.413	28.43
650.603	28.45
650.793	28.56
650.983	28.59
651.172	28.5
651.362	28.48
651.552	28.44
651.742	28.28
651.932	28.19
652.122	28.21
652.312	28.44
652.502	28.47
652.691	28.36
652.881	28.24
653.071	28.08
653.261	27.83
653.45	27.69
653.64	27.77
653.83	27.67
654.019	27.66
654.209	27.52
654.399	27.36
654.588	27.12
654.778	26.97
654.968	26.71
655.157	26.64
655.347	26.52
655.536	26.45
655.726	26.34
655.915	26.26
656.105	26.11
656.294	26.02
656.484	25.74
656.673	25.6
656.863	25.54
657.052	25.24
657.241	24.91
657.431	24.75
657.62	24.53
657.809	24.05
657.999	23.91
658.188	23.73
658.377	23.5
658.567	23.34
658.756	23.29
658.945	23.04
659.134	22.94
659.324	22.85
659.513	22.59
659.702	22.38
659.891	22.17
660.08	21.92
660.269	21.79
660.458	21.63
660.648	21.39
660.837	21.3
661.026	21.07
661.215	20.81
661.404	20.63
661.593	20.5
661.782	20.19
661.971	20.1
662.16	19.94
662.349	19.81
662.538	19.6
662.726	19.49
662.915	19.29
663.104	19.1
663.293	18.97
663.482	18.95
663.671	18.83
663.86	18.52
664.048	18.43
664.237	18.2
664.426	17.86
664.615	17.71
664.803	17.75
664.992	17.58
665.181	17.43
665.369	17.33
665.558	17.2
665.747	17.08
665.935	17.06
666.124	17.12
666.312	17.17
666.501	17.06
666.69	16.89
666.878	16.71
667.067	16.49
667.255	16.39
667.444	16.54
667.632	16.6
667.82	16.62
668.009	16.58
668.197	16.57
668.386	16.4
668.574	16.38
668.762	16.2
668.951	16.04
669.139	15.9
669.327	15.7
669.516	15.62
669.704	15.59
669.892	15.88
670.08	15.94
670.269	15.95
670.457	15.94
670.645	15.92
670.833	15.95
671.021	15.84
671.21	15.95
671.398	16.17
671.586	16.15
671.774	15.95
671.962	16.08
672.15	16.06
672.338	15.81
672.526	15.99
672.714	15.98
672.902	15.95
673.09	16.09
673.278	16.39
673.466	16.28
673.654	16.46
673.842	16.51
674.03	16.62
674.218	16.49
674.405	16.67
674.593	16.68
674.781	16.78
674.969	16.79
675.157	16.98
675.344	17.23
675.532	17.35
675.72	17.69
675.908	17.77
676.095	17.73
676.283	17.77
676.471	17.98
676.658	17.83
676.846	17.89
677.033	18.07
677.221	18.15
677.409	17.92
677.596	18.03
677.784	18.21
677.971	18.29
678.159	18.36
678.346	18.67
678.534	18.84
678.721	19.12
678.909	19.38
679.096	19.49
679.283	19.86
679.471	20.03
679.658	20.08
679.846	20.3
680.033	20.58
680.22	20.51
680.408	20.61
680.595	20.86
680.782	20.85
680.969	21.08
681.157	21.26
681.344	21.44
681.531	21.47
681.718	21.61
681.905	21.83
682.093	22.18
682.28	22.61
682.467	22.9
682.654	23.44
682.841	23.49
683.028	23.71
683.215	23.95
683.402	24.09
683.589	24.09
683.776	24.4
683.963	24.6
684.15	24.74
684.337	25.2
684.524	25.47
684.711	25.79
684.898	26.03
685.085	26.54
685.271	27.04
685.458	27.45
685.645	27.77
685.832	28.41
686.019	28.8
686.205	28.97
686.392	29.37
686.579	29.73
686.766	30
686.952	30.4
687.139	30.98
687.326	31.43
687.512	32.04
687.699	32.46
687.886	32.81
688.072	33.16
688.259	33.61
688.445	34.12
688.632	34.64
688.818	35.27
689.005	35.82
689.191	36.41
689.378	37.07
689.564	37.62
689.751	38.15
689.937	38.49
690.124	39.15
690.31	39.45
690.496	39.9
690.683	40.3
690.869	41.11
691.055	41.51
691.242	42.36
691.428	43.01
691.614	43.65
691.8	44.23
691.987	45.01
692.173	45.35
692.359	45.92
692.545	46.64
692.731	47.08
692.918	47.57
693.104	48
693.29	48.76
693.476	49.23
693.662	49.77
693.848	50.28
694.034	50.96
694.22	51.36
694.406	51.81
694.592	52.79
694.778	53.4
694.964	53.86
695.15	54.38
695.336	55.02
695.522	55.57
695.708	56.01
695.894	56.73
696.08	57.53
696.265	58.12
696.451	58.44
696.637	59.11
696.823	59.62
697.009	59.72
697.194	60.12
697.38	60.31
697.566	60.7
697.751	61.39
697.937	62.31
698.123	62.71
698.308	63.45
698.494	63.96
698.68	64.17
698.865	64.34
699.051	64.93
699.236	65.27
699.422	65.71
699.607	65.93
699.793	66.55
699.978	66.62
700.164	66.95
700.349	67.22
700.535	67.76
700.72	67.72
700.906	68.44
701.091	68.7
701.276	68.74
701.462	69.29
701.647	69.75
701.832	69.86
702.018	69.98
702.203	70.38
702.388	70.12
702.573	70.24
702.759	71.09
702.944	71.44
703.129	71.62
703.314	72.18
703.499	72.27
703.684	71.99
703.87	72.73
704.055	73.54
704.24	73.8
704.425	74.75
704.61	75.26
704.795	75.18
704.98	75.27
705.165	74.9
705.35	74.91
705.535	74.72
705.72	75.01
705.905	75.41
706.09	76.3
706.275	76.32
706.459	76.4
706.644	76.04
706.829	75.8
707.014	75.55
707.199	75.95
707.384	76.43
707.568	77
707.753	77.45
707.938	77.75
708.123	77.41
708.307	77.38
708.492	77.41
708.677	77.34
708.861	77.36
709.046	77.36
709.231	77.8
709.415	78.22
709.6	78.02
709.784	78.15
709.969	78.6
710.153	78.37
710.338	78.32
710.522	78.87
710.707	79.12
710.891	79.07
711.076	79.47
711.26	79.41
711.445	79.58
711.629	79.87
711.813	80.19
711.998	80.39
712.182	80.74
712.366	81.19
712.551	81.64
712.735	81.56
712.919	80.98
713.103	81.04
713.288	80.5
713.472	80
713.656	80.48
713.84	81.07
714.024	81.32
714.208	81.54
714.393	82.02
714.577	81.9
714.761	82.07
714.945	81.83
715.129	81.97
715.313	81.91
715.497	81.93
715.681	82.48
715.865	82.45
716.049	82.34
716.233	82
716.417	82.23
716.601	81.77
716.785	82.17
716.968	82.55
717.152	82.93
717.336	82.64
717.52	82.74
717.704	82.5
717.888	82.61
718.071	82.74
718.255	83.56
718.439	83.47
718.622	83.83
718.806	84.14
718.99	83.53
719.174	83.02
719.357	83
719.541	83.23
719.724	82.58
719.908	83.7
720.092	84.13
720.275	84.31
720.459	84.04
720.642	84.17
720.826	83.71
721.009	83.66
721.193	83.17
721.376	83.34
721.559	83.32
721.743	83.76
721.926	83.73
722.11	84.39
722.293	83.85
722.476	83.98
722.66	83.89
722.843	83.95
723.026	83.62
723.21	84.14
723.393	84.84
723.576	84.55
723.759	84.02
723.942	84.45
724.126	84.31
724.309	84.49
724.492	84.59
724.675	84.99
724.858	85.36
725.041	86.13
725.224	86
725.407	86.47
725.59	86.62
725.774	85.82
725.957	85
726.14	84.47
726.322	84.22
726.505	84.19
726.688	85.09
726.871	85.08
727.054	85.5
727.237	85.3
727.42	85.82
727.603	85.76
727.786	85.88
727.968	86.2
728.151	86.48
728.334	86.19
728.517	86.26
728.699	86.84
728.882	86.54
729.065	87.38
729.248	87.42
729.43	87.23
729.613	87.65
729.796	88.27
729.978	86.96
730.161	86.84
730.343	86.87
730.526	87.69
730.708	86.5
730.891	87.18
731.073	87.81
731.256	87.4
731.438	86.33
731.621	87.33
731.803	87.58
731.986	87.27
732.168	86.94
732.35	87.13
732.533	86.96
732.715	86.98
732.898	87
733.08	87.73
733.262	88.67
733.444	88.6
733.627	88.09
733.809	88.68
733.991	89.63
734.173	88.18
734.355	88.37
734.538	89.61
734.72	89.22
734.902	89.17
735.084	90.52
735.266	90.58
735.448	90.13
735.63	90.11
735.812	89.88
735.994	90.61
736.176	91
736.358	90.94
736.54	91.74
736.722	91.28
736.904	90
737.086	89.75
737.268	90.95
737.45	90.97
737.632	91.39
737.814	90.48
737.995	90.86
738.177	90.02
738.359	89.28
738.541	89.57
738.723	90.78
738.904	90.54
739.086	90.27
739.268	90.4
739.449	90.59
739.631	89.87
739.813	90.79
739.994	91.4
740.176	92.02
740.358	91.84
740.539	93.7
740.721	93.12
740.902	93.94
741.084	93.33
741.265	93.16
741.447	92.15
741.628	92.6
741.81	91.28
741.991	91.89
742.172	92.6
742.354	92.8
742.535	92.6
742.717	93.31
742.898	93.12
743.079	93.36
743.261	93.13
743.442	92.32
743.623	93.2
743.804	93.85
743.986	93.8
744.167	93.27
744.348	93.23
744.529	92.53
744.71	91.8
744.891	90.5
745.073	90.54
745.254	90.65
745.435	89.76
745.616	89.64
745.797	89.97
745.978	89.32
746.159	90.15
746.34	89.66
746.521	91.87
746.702	91.26
746.883	91.61
747.064	90.18
747.245	90.13
747.426	88.23
747.606	88.99
747.787	90.12
747.968	90.5
748.149	91.05
748.33	91.43
748.51	92.03
748.691	91.66
748.872	93
749.053	92.64
749.233	91.43
749.414	89.91
749.595	88.61
749.775	87.27
749.956	87.26
750.137	88.12
750.317	90.33
750.498	90.23
750.678	90.69
750.859	90.3
751.04	89.14
751.22	87.26
751.4	88.03
751.581	86.81
751.761	88.22
751.942	88.99
752.122	89.31
752.303	88.49
752.483	88.96
752.663	88.54
752.844	87.41
753.024	87.64
753.204	88.09
753.385	87.49
753.565	87.74
753.745	89.08
753.925	88.25
754.106	87.42
754.286	88.31
754.466	87.55
754.646	87.7
754.826	87.02
755.006	87.25
755.187	88.31
755.367	88.64
755.547	88.99
755.727	91.1
755.907	91.95
756.087	92.91
756.267	92.2
756.447	92.05
756.627	89.95
756.807	89.55
756.987	87.81
757.167	88.93
757.346	88.09
757.526	88.5
757.706	88.73
757.886	89.16
758.066	89.58
758.246	91.61
758.425	90.15
758.605	89.37
758.785	89.42
758.965	88.79
759.144	86.6
759.324	88.46
759.504	89.87
759.683	89
759.863	87.52
760.043	86.03
760.222	85.76
760.402	83.81
760.581	83.81
760.761	85.74
760.94	86.23
761.12	87.57
761.299	89.58
761.479	89.32
761.658	87.98
761.838	88.23
762.017	87.16
762.197	87.71
762.376	88.27
762.555	89.16
762.735	90.61
762.914	89.32
763.093	89.33
763.273	88.68
763.452	87.4
763.631	86.75
763.81	87.43
763.99	86.6
764.169	86.2
764.348	83.63
764.527	82.83
764.706	84.86
764.885	84.57
765.064	82.49
765.243	85.27
765.423	86.9
765.602	85.99
765.781	84.96
765.96	85.51
766.139	84.56
766.318	84.14
766.497	82.26
766.676	83.4
766.854	85.8
767.033	86.29
767.212	85.47
767.391	87.02
767.57	88.34
767.749	88.08
767.928	89.77
768.106	88.89
768.285	87.47
768.464	84.26
768.643	83.64
768.821	82.32
769	82.56
769.179	81.87
769.357	81.79
769.536	80.44
769.715	80.49
769.893	82.21
770.072	80.82
770.25	81.45
770.429	83.55
770.607	83.45
770.786	81.02
770.964	84.5
771.143	83.19
771.321	83.28
771.5	83.51
771.678	83.15
771.857	80.17
772.035	81.85
772.213	79.11
772.392	77.6
772.57	80.79
772.748	82.89
772.927	81.91
773.105	82.5
773.283	84.34
773.461	83.52
773.64	84.01
773.818	83.78
773.996	86.51
774.174	83.38
774.352	79.76
774.531	76.35
774.709	79.19
774.887	77.22
775.065	78.85
775.243	80.66
775.421	83.1
775.599	82.34
775.777	79.81
775.955	76.8
776.133	74.54
776.311	75.19
776.489	72.54
776.667	74.56
776.844	79.21
777.022	78.82
777.2	77.81
777.378	78.71
777.556	79.33
777.734	77.62
777.911	82.41
778.089	81.96
778.267	81.83
778.445	81.65
778.622	80.79
778.8	78.4
778.978	79.77
779.155	79
779.333	78.35
779.511	76.49
779.688	79.21
779.866	75.54
780.043	73.65
780.221	73.7
780.398	73.5
780.576	72.57
780.753	74.25
780.931	75.48
781.108	75.92
781.286	78.09
781.463	74.51
781.64	72.64
781.818	74.5
781.995	73.57
782.172	73.28
782.35	73.84
782.527	77.7
782.704	75.56
782.882	77.44
783.059	77.24
783.236	79.81
783.413	79.48
783.59	81.21
783.768	76.96
783.945	80.44
784.122	79.14
784.299	79.79
784.476	77.19
784.653	76.7
784.83	72.85
785.007	68.03
785.184	66.65
785.361	65.51
785.538	72.28
785.715	76.17
785.892	79.94
786.069	81.25
786.246	84.55
786.423	80.37
786.6	78.7
786.776	82.5
786.953	79.24
787.13	79.7
787.307	78.89
787.484	77.74
787.66	73.52
787.837	74.27
788.014	70.58
788.191	70.99
788.367	66.72
788.544	72.12
788.721	71.28
788.897	73.67
789.074	76
789.25	77.63
789.427	75.11
789.603	75.34
789.78	78.15
789.956	75.88
790.133	72.9
790.309	70.6
790.486	75.75
790.662	70.6
790.839	68.87
791.015	73.82
791.192	70.49
791.368	70.35
791.544	72.28
791.721	71.91
791.897	71.43
792.073	72.51
792.249	61.22
792.426	61.25
792.602	66.63
792.778	66.03
792.954	66.64
793.13	70.44
793.307	66.97
793.483	57.44
793.659	55.9
793.835	58.87
794.011	62.72
794.187	66.87
794.363	69.36
794.539	73.25
794.715	68.67
794.891	66.9
795.067	65.51
795.243	67.9
795.419	67.27
795.595	66.79
795.771	67.24
795.947	68
796.122	67.26
796.298	68.59
796.474	70.67
796.65	70.41
796.826	67.5
797.001	71.19
797.177	65.07
797.353	67.95
797.529	67.54
797.704	65.66
797.88	58.79
798.056	61.53
798.231	55.2
798.407	62.14
798.582	69.16
798.758	75.69
798.934	78.67
799.109	80.41
799.285	69.49
799.46	70.36
799.636	60.07
799.811	59.49
799.986	63.51
800.162	67.8
800.337	67.89
800.513	73.01
800.688	67.39
800.863	71.63
801.039	66.54
801.214	57.37
801.389	63.99
801.565	65.43
801.74	50.43
801.915	58.21
802.09	68.91
802.265	69.68
802.441	69.35
802.616	79.25
802.791	78.94
802.966	77.66
803.141	71.03
803.316	66.71
803.491	69.87
803.666	72.49
803.841	66.02
804.016	64.41
804.191	67.73
804.366	55.52
804.541	49.71
804.716	51.82
804.891	48.21
805.066	51.86
805.241	53.67
805.416	55.41
805.591	48.99
805.765	59.52
805.94	63.45
806.115	66.46
806.29	63.72
806.464	65.92
806.639	57.98
806.814	53.06
806.989	45.31
807.163	57.95
807.338	58.69
807.512	61.42
807.687	43.28
807.862	64.46
808.036	55.66
808.211	61.37
808.385	70.2
808.56	89.65
808.734	84.66
808.909	87.35
809.083	85.1
809.258	86.31
809.432	84.67
809.606	70.88
809.781	67.85
809.955	67.75
810.13	60.15
810.304	53.99
810.478	47.35
810.652	50.43
810.827	55.65
811.001	51.96
811.175	54.67
811.349	62.42
811.524	53.01
811.698	36.05
811.872	35.71
812.046	38.65
812.22	42.17
812.394	49.41
812.568	63.38
812.742	65.84
812.916	65.53
813.09	58.33
813.264	58.84
813.438	60.12
813.612	57.25
813.786	46.14
813.96	57.35
814.134	52.31
814.308	56.35
814.482	64.94
814.656	68.99
814.83	69.07
815.003	72.56
815.177	58.22
815.351	47.43
815.525	47.88
815.698	34.95
815.872	27.04
816.046	23.03
816.219	31.05
816.393	46.14
816.567	58.86
816.74	62.94
816.914	72.37
817.088	76.51
817.261	60.14
817.435	56.12
817.608	54.93
817.782	40.25
817.955	40.84
818.129	42.37
818.302	41.7
818.475	58.46
818.649	68.88
818.822	53.72
818.996	62.67
819.169	61.19
819.342	37.3
819.516	39.64
819.689	55.5
819.862	39.01
820.035	31.98
820.209	33.39
820.382	33.57
820.555	28.15
820.728	26.53
820.901	30.41
821.075	34.4
821.248	30.36
821.421	18
821.594	19.66
821.767	42.93
821.94	52.88
822.113	33.92
822.286	42.22
822.459	57.2
822.632	49.07
822.805	40.58
822.978	49.7
823.151	41.63
823.324	34.65
823.496	12.89
823.669	20.87
823.842	19.36
824.015	18.43
824.188	16.29
824.361	17.72
824.533	8.69
824.706	35.31
824.879	36.12
825.051	37.57
825.224	43.22
825.397	37.55
825.569	7.95
825.742	25
825.915	31.1
826.087	30.76
826.26	29.28
826.432	34.41
826.605	36.33
826.777	35.89
826.95	39.62
827.122	32.68
827.295	47.28
827.467	50.54
827.64	36.3
827.812	23.21
827.984	17.86
828.157	-7.62
828.329	-62.05
828.501	-50.21
828.674	-24.98
828.846	-23.22
829.018	-5.19
829.19	-8.7
829.363	14.45
829.535	32.93
829.707	38.59
829.879	12.86
830.051	3.2
830.223	-13.28
830.395	-72.8
830.568	-54.55
830.74	-48.67
830.912	-3.67
831.084	-21.66
831.256	-4.67
831.428	-11.49
831.6	-24.57
831.772	-62.7
831.943	-78.17
832.115	-53.52
832.287	-38.05
832.459	-11.42
832.631	7.49
832.803	51.95
832.975	74.32
833.146	56.98
833.318	41.09
833.49	34.43
833.662	-1.99
833.833	-27.06
834.005	-9.88
834.177	5.99
834.348	8.95
834.52	2.49
834.692	-1.49
834.863	-21.4
835.035	-21.42
835.206	-52.15
835.378	-11.35
835.549	-7.42
835.721	2.38
835.892	-11.91
836.064	3.01
836.235	6.06
836.407	40.8
836.578	4.77
836.749	29.36
836.921	14.92
837.092	-36.81
837.264	-69.75
837.435	-60.67
837.606	-19.38
837.777	7.3
837.949	34.87
838.12	45.43
838.291	56.6
838.462	48.08
838.633	14.97
838.805	-0.15
838.976	8.56
839.147	-63.35
839.318	-81.46
839.489	-110.69
839.66	-110.91
839.831	-57.59
840.002	-30.89
840.173	-27.48
840.344	14.09
840.515	35.86
840.686	-115.2
840.857	-82.14
841.028	-89.24
841.199	-60.57
841.369	-67.75
841.54	-34.25
841.711	-20.02
841.882	13.68
842.053	5.6
842.223	-18.37
842.394	-1.48
842.565	4.12
842.736	5.12
842.906	0.39
843.077	29.37
843.248	57.8
843.418	66.5
843.589	53.95
843.759	144.07
843.93	86.63
844.101	26.01
844.271	30.95
844.442	54.28
844.612	42.02
844.783	20.05
844.953	-10.85
845.123	-37.29
845.294	-60.02
845.464	-195.97
845.635	-66.48
845.805	-0.43
845.975	5.19
846.146	-34.72
846.316	-18.82
846.486	15.67
846.656	43.35
846.827	39.4
846.997	30.28
847.167	47.74
847.337	8
847.507	-52.68
847.677	-27.56
847.848	37.2
848.018	31.02
848.188	37.42
848.358	22.43
848.528	-4.46
848.698	-43.34
848.868	-116.62
849.038	-171.32
849.208	-31.63
849.378	32.03
849.548	-0.22
849.718	14.21
849.887	12.65
850.057	-20.66
850.227	-59.32
850.397	-84.82
850.567	-232.71
850.737	-539.78
850.906	-1668.13
851.076	-1009.77
851.246	-505.5
851.415	-69.51
851.585	-48.67
851.755	-75.92
851.924	-25.98
852.094	-57.77
852.264	-165.82
852.433	-1124.52
852.603	-178.84
852.772	-145.22
852.942	-35.56
853.111	-50.38
853.281	-11.18
853.45	43.02
853.62	-57.26
853.789	-109.13
853.959	-113.84
854.128	-84.41
854.297	-141.27
854.467	-130.06
854.636	-121.56
854.805	-20.87
854.975	-65.66
855.144	-95.21
855.313	19.23
855.482	-181.39
855.652	-143.49
855.821	-52.18
855.99	22.77
856.159	26.34
856.328	31.55
856.497	30.98
856.667	12.52
856.836	14.79
857.005	-3.14
857.174	-29.53
857.343	-104.9
857.512	-26.63
857.681	-79.86
857.85	-188.07
858.019	-96.99
858.188	-60.24
858.356	-88.13
858.525	-143.93
858.694	-100.06
858.863	-207.83
859.032	-145.76
859.201	-285.55
859.369	-155.23
859.538	-77.77
859.707	-76.08
859.876	-80.83
860.044	-19.39
860.213	-3.67
860.382	-31.47
860.55	-17.83
860.719	10.83
860.888	12.71
861.056	-22.74
861.225	-7.1
861.393	43.42
861.562	10.22
861.73	-56.15
861.899	-29.58
862.067	-1591.38
862.236	-138.51
862.404	-301.59
862.572	-158.9
862.741	-86.01
862.909	-70.31
863.078	-189.98
863.246	-112.68
863.414	-77.97
863.582	-37.53
863.751	-59.04
863.919	-37.24
864.087	9.92
864.255	-21.52
864.424	-280.68
864.592	-12.89
864.76	-48.36
864.928	-148.4
865.096	-75.32
865.264	-104.99
865.432	-1982.95
865.6	-199.25
865.768	-143.95
865.936	-163.29
866.104	-136.86
866.272	-136.72
866.44	-308.07
866.608	694.29
866.776	344.82
866.944	3319.77
867.112	-676.06
867.28	-311.91
867.448	-125.18
867.615	-62.69
867.783	-33.89
867.951	-38.26
868.119	-15.48
868.286	-4.1
868.454	-105.32
868.622	-154.53
868.789	-172.37
868.957	-2289.29
869.125	-2572.37
869.292	-145.09
869.46	-225.78
869.627	-7.73
869.795	-46.37
869.963	-0.23
870.13	0.04
870.298	35.47
870.465	-47.71
870.632	-39.41
870.8	-30.31
870.967	-56.03
871.135	-163.55
871.302	-158.95
871.469	-177.77
871.637	-260.32
871.804	-188.46
871.971	-175.99
872.139	-517.44
872.306	-13.73
872.473	-60.01
872.64	-200.64
872.807	-47.56
872.975	59.98
873.142	-214.73
873.309	1547.3
873.476	52.15
873.643	82.51
873.81	-2.66
873.977	22.91
874.144	45.93
874.311	-98
874.478	-139.24
874.645	-158.22
874.812	-115.12
874.979	-88.85
875.146	-81.46
875.313	-77.18
875.48	-6.4
875.647	-15.06
875.813	-61.47
875.98	-36.63
876.147	-68.03
876.314	-109.02
876.481	936.78
876.647	-1047.75
876.814	447.41
876.981	17.5
877.147	-21.08
877.314	4.64
877.481	18.66
877.647	21.28
877.814	-32.97
877.98	-100.55
878.147	-59.85
878.314	3.16
878.48	-15.14
878.647	-15.05
878.813	46.64
878.979	51.81
879.146	17.73
879.312	-1.46
879.479	-44.77
879.645	-160.11
879.811	-327.29
879.978	-890.46
880.144	-241.71
880.31	-85.57
880.477	-263.37
880.643	-344.19
880.809	-114.69
880.975	-58.98
881.142	-602.27
881.308	-40.92
881.474	25.73
881.64	28.64
881.806	-69.49
881.972	-44.3
882.138	-48.82
882.304	-57.78
882.47	-235.41
882.636	-902.05
882.802	-314.17
882.968	-100.54
883.134	-78.21
883.3	-61.63
883.466	11.28
883.632	42.32
883.798	8.98
883.964	-12.78
884.129	3.45
884.295	-11.55
884.461	-46.24
884.627	-63.13
884.793	-44.24
884.958	-10.06
885.124	-112.91
885.29	-167.73
885.455	-254.61
885.621	-66.47
885.787	-151.8
885.952	-42.23
886.118	-73.56
886.283	-67.68
886.449	-198.73
886.614	-213.66
886.78	-401.35
886.945	1459.84
887.111	-618.79
887.276	-444.6
887.442	-929.55
887.607	-507.78
887.773	-343.79
887.938	-313.19
888.103	-393.65
888.269	-261.9
888.434	-406.76
888.599	-177.61
888.764	-122.36
888.93	-45.2
889.095	-56.96
889.26	-112.18
889.425	-79.49
889.59	1.19
889.756	-53.48
889.921	-45.81
890.086	32.48
890.251	7.68
890.416	-253.89
890.581	-1823.39
890.746	313.75
890.911	504.14
891.076	205.73
891.241	-292.91
891.406	27.92
891.571	-1.3
891.736	-280.5
891.901	-480.09
892.065	639.01
892.23	184.03
892.395	320.45
892.56	561.71
892.725	-967.58
892.889	-2589.02
893.054	-334.86
893.219	-86.31
893.384	13.5
893.548	-40.31
893.713	-66.26
893.878	-29.67
