Data from Ofra_PS_T2_2A_9CX06_Reflection_2.txt Node
Date: Wed Jul 21 17:26:26 EDT 2021
User: Adam
Spectrometer: FLMT01687
Trigger mode: 0
Integration Time (sec): 1.100000E0
Scans to average: 2
Electric dark correction enabled: true
Nonlinearity correction enabled: false
Boxcar width: 2
XAxis mode: Wavelengths
Number of Pixels in Spectrum: 3648
>>>>>Begin Spectral Data<<<<<
179.494	705.6
179.716	808.24
179.937	742.14
180.158	732
180.38	1239.37
180.601	319.89
180.823	55.24
181.044	-139.34
181.265	-209.56
181.486	-54.69
181.708	90.07
181.929	673.47
182.15	-371.83
182.372	8.11
182.593	-48.08
182.814	-8.78
183.035	67.3
183.257	53.56
183.478	-26.17
183.699	-15.57
183.92	-20.46
184.141	-33.38
184.363	-107.47
184.584	-30.69
184.805	18.48
185.026	61.15
185.247	72.35
185.468	51.62
185.689	58.32
185.91	30.05
186.132	11.03
186.353	-6.67
186.574	37.46
186.795	8.02
187.016	-30.55
187.237	-56.07
187.458	-105.02
187.679	-85.56
187.9	-68.12
188.121	-38.65
188.342	-26.76
188.563	48.52
188.784	67.97
189.005	97.15
189.226	153.18
189.447	131.79
189.667	8.74
189.888	-316.26
190.109	-1270.13
190.33	-841.94
190.551	-1529.2
190.772	-339.23
190.993	-262.77
191.214	-228.6
191.434	-162.35
191.655	-65.15
191.876	-170.52
192.097	-207.69
192.318	-242.83
192.538	-324.63
192.759	-190.21
192.98	-94.64
193.201	-18.43
193.421	-17.08
193.642	8.71
193.863	12.96
194.083	-1.17
194.304	-37.89
194.525	-31.12
194.745	-65.98
194.966	-108.52
195.187	-100.09
195.407	-118.26
195.628	-235.3
195.848	-230.88
196.069	-198.15
196.29	-152.01
196.51	-134.15
196.731	-87.47
196.951	-97.56
197.172	-104.16
197.392	-135.57
197.613	-149.24
197.833	-170.9
198.054	-134.85
198.274	-79.73
198.495	-86.41
198.715	-36.64
198.936	-44.12
199.156	-44.84
199.377	-153.98
199.597	-138.8
199.817	-147.76
200.038	-76.43
200.258	-140.26
200.479	-47.45
200.699	-48.23
200.919	-18.94
201.14	-48.85
201.36	-44.19
201.58	-5.58
201.801	20.45
202.021	-27.72
202.241	-17.25
202.461	-10.03
202.682	-114.32
202.902	-196.68
203.122	-112.34
203.342	-117.84
203.563	-73.04
203.783	-34.73
204.003	-79.84
204.223	-74.84
204.443	12.28
204.663	-49.57
204.884	-13.86
205.104	38.91
205.324	79.58
205.544	54.8
205.764	79.88
205.984	58.9
206.204	48.36
206.424	21
206.644	-49.24
206.864	-41.73
207.084	-137.09
207.304	-119.7
207.525	-303.75
207.745	-121.01
207.964	-49.69
208.184	-70.48
208.404	-129.86
208.624	-127.37
208.844	-137.09
209.064	-476.96
209.284	-491.19
209.504	-274.67
209.724	-85.16
209.944	-59.28
210.164	-25.13
210.384	-7.49
210.604	9.06
210.823	-30.57
211.043	-57.26
211.263	-56.97
211.483	-52.73
211.703	-121.9
211.922	-91.57
212.142	-10.94
212.362	25.33
212.582	-9.38
212.801	2.17
213.021	-41.91
213.241	-63.52
213.461	-120.25
213.68	-132.32
213.9	-98.72
214.12	-62.52
214.339	-148.7
214.559	-115.9
214.779	-48.26
214.998	-60.58
215.218	-106.04
215.438	-48.41
215.657	-39.65
215.877	-42.22
216.096	-31.96
216.316	-22.48
216.535	-38.67
216.755	-40.03
216.974	-148.91
217.194	-153.61
217.413	-165.46
217.633	-175.03
217.852	-327.06
218.072	-151.04
218.291	-97.35
218.511	-52.21
218.73	-62.25
218.95	-35.63
219.169	-46.6
219.389	-90.29
219.608	-66.59
219.827	-52.93
220.047	-40.86
220.266	-24.87
220.485	-12.43
220.705	-14.45
220.924	-43.35
221.143	-0.14
221.363	-18.04
221.582	-4.59
221.801	7.94
222.021	35.1
222.24	-38.55
222.459	7.23
222.678	-51.85
222.897	-125.79
223.117	-182.96
223.336	-146.2
223.555	-99.76
223.774	-42.04
223.993	-7.95
224.213	87.02
224.432	52.78
224.651	48.31
224.87	14.08
225.089	20.63
225.308	0.88
225.527	16.2
225.746	22.15
225.965	18.92
226.184	-29.93
226.404	-15.74
226.623	-36.93
226.842	-44.62
227.061	-4.32
227.28	16.16
227.499	5.38
227.718	22.58
227.936	17.6
228.155	7.05
228.374	-10.27
228.593	-5.08
228.812	-12.65
229.031	-0
229.25	-44.73
229.469	-32.91
229.688	-33.07
229.907	-7.77
230.125	-12.22
230.344	7.59
230.563	2.33
230.782	7.51
231.001	-86.5
231.22	-72.08
231.438	-50.48
231.657	-25.2
231.876	-43.41
232.095	27.89
232.313	26.67
232.532	-8.41
232.751	-71.9
232.969	-67.33
233.188	-192.32
233.407	-80.93
233.625	-37.81
233.844	-33.01
234.063	-7.63
234.281	7.84
234.5	5.65
234.719	3.78
234.937	24.02
235.156	22.41
235.374	19.73
235.593	-15.17
235.811	-30.39
236.03	-57.44
236.249	-133.69
236.467	-110.54
236.686	-46.24
236.904	-17.94
237.123	-30.62
237.341	-26.07
237.559	-27.11
237.778	-52.09
237.996	-102.81
238.215	-46.98
238.433	-25.83
238.652	-34.05
238.87	-51.11
239.088	-32.45
239.307	-44.16
239.525	-59.17
239.743	-90.52
239.962	-84.57
240.18	-112.99
240.398	-180.17
240.617	-178.25
240.835	-142.7
241.053	-114.39
241.271	-56.98
241.49	-1.31
241.708	-13.68
241.926	-48.52
242.144	-27.44
242.363	-91.49
242.581	-160.87
242.799	-109.29
243.017	-45.12
243.235	-81.32
243.453	-45.85
243.672	-29.19
243.89	-32.33
244.108	-54.52
244.326	-31.31
244.544	-43.27
244.762	-42.21
244.98	-23.52
245.198	-12.04
245.416	-28.34
245.634	-13.55
245.852	-29.04
246.07	-61.37
246.288	-95.82
246.506	-110.74
246.724	-103.61
246.942	-63.46
247.16	0.22
247.378	10.67
247.596	33.15
247.814	20.72
248.032	-25.07
248.25	-54.32
248.468	-35.24
248.685	-28.41
248.903	7.66
249.121	27.16
249.339	9.71
249.557	12.76
249.775	5.5
249.992	-54.9
250.21	-50.13
250.428	-31.48
250.646	-63.9
250.863	-81.66
251.081	-48.08
251.299	-50.44
251.517	-54.26
251.734	-36.64
251.952	-37.77
252.17	-31.18
252.387	-16.11
252.605	-23.95
252.823	-5.53
253.04	10.18
253.258	27.33
253.475	12.45
253.693	44.97
253.911	36.79
254.128	32
254.346	20.06
254.563	10.28
254.781	-23.77
254.998	-38.17
255.216	-42.71
255.433	-36.76
255.651	11.74
255.868	57.07
256.086	68.26
256.303	71.55
256.521	49.12
256.738	13.81
256.956	-28.32
257.173	-59.29
257.39	-92.31
257.608	-126.98
257.825	-67.78
258.043	-24.48
258.26	-7.84
258.477	41
258.695	47.59
258.912	4.15
259.129	7.35
259.346	-27.2
259.564	-79.09
259.781	-111.63
259.998	-43.08
260.216	-36.5
260.433	14.78
260.65	16.07
260.867	38.09
261.084	7.44
261.302	-10.97
261.519	-16.95
261.736	-28.5
261.953	-51.55
262.17	-21.66
262.387	-50.98
262.604	-86.38
262.822	-104.86
263.039	-68.36
263.256	-137.88
263.473	-101.21
263.69	-75.52
263.907	-19.92
264.124	-30.04
264.341	-9.26
264.558	-11.57
264.775	-0.98
264.992	-13.22
265.209	4.56
265.426	19.45
265.643	30.05
265.86	43.71
266.077	44.85
266.294	11.73
266.51	-22.42
266.727	-45.21
266.944	-54.33
267.161	-68.23
267.378	-59.31
267.595	-18.45
267.812	-34.55
268.028	-65.07
268.245	-37.24
268.462	-49.11
268.679	-75.05
268.896	-14.34
269.112	-14.5
269.329	-14.69
269.546	-6.66
269.763	-17.3
269.979	-48.43
270.196	-31.88
270.413	-71.11
270.629	-93.31
270.846	-85.3
271.063	-79.36
271.279	-99.4
271.496	-78.69
271.712	-25.94
271.929	7.36
272.146	8.78
272.362	29.45
272.579	44.93
272.795	42.02
273.012	22.96
273.228	21.51
273.445	-35.56
273.661	-73.62
273.878	-133
274.094	-114.38
274.311	-141.68
274.527	-41.45
274.744	-39.95
274.96	-35.81
275.177	-16.84
275.393	-2.3
275.609	-7.64
275.826	14.93
276.042	9.77
276.259	-10.99
276.475	9.27
276.691	14.5
276.908	-2.97
277.124	19.34
277.34	17.9
277.557	0.57
277.773	-14.23
277.989	-24.13
278.205	-41.63
278.422	-18.67
278.638	-15.12
278.854	-0.86
279.07	0.59
279.286	-0
279.503	-36.9
279.719	-46.85
279.935	-72.12
280.151	-86.38
280.367	-49.62
280.583	-77.2
280.799	-60.89
281.016	-92.36
281.232	-34.83
281.448	-49.66
281.664	-9.11
281.88	-42.61
282.096	-16.58
282.312	-18.98
282.528	-11.59
282.744	-11.09
282.96	-2.91
283.176	-1.84
283.392	-2.99
283.608	-9.89
283.824	-13.84
284.04	-12.71
284.256	-3.29
284.471	-12.11
284.687	-18.47
284.903	-13.46
285.119	26.6
285.335	1.23
285.551	-6.66
285.767	-1.65
285.982	-18.64
286.198	-60.88
286.414	-17.79
286.63	1.5
286.846	22.8
287.061	2.79
287.277	39.73
287.493	10.11
287.709	24.09
287.924	18.04
288.14	56
288.356	31.06
288.571	51.18
288.787	18.34
289.003	13.24
289.218	1.04
289.434	-36.76
289.65	-43.79
289.865	-33.02
290.081	-16.49
290.296	-5.58
290.512	10.35
290.727	-21.26
290.943	-20.22
291.159	-47.27
291.374	-62.9
291.59	-82.28
291.805	-55.57
292.021	-61.7
292.236	-52.09
292.451	-29.41
292.667	-10.49
292.882	4.46
293.098	3
293.313	-0.7
293.529	-29.63
293.744	-70.24
293.959	-65.7
294.175	-56.67
294.39	-14.97
294.605	0.12
294.821	39.67
295.036	35.18
295.251	48.26
295.467	15.24
295.682	12.44
295.897	-46.1
296.112	-52.9
296.328	-54.09
296.543	-89.83
296.758	-83.44
296.973	-28.14
297.188	6.12
297.404	-20.18
297.619	-17.85
297.834	-33.05
298.049	-69.57
298.264	-80.18
298.479	-14.89
298.694	-4.57
298.909	21.75
299.125	35.68
299.34	41.36
299.555	-3.33
299.77	-0.19
299.985	-46.02
300.2	-93.34
300.415	-117.92
300.63	-70.37
300.845	-65.45
301.06	-42.63
301.275	-13.29
301.49	11.1
301.704	-2.59
301.919	-25.92
302.134	-54.88
302.349	-56.59
302.564	-130.36
302.779	-181.91
302.994	-157.05
303.209	-93.1
303.423	-69.04
303.638	11.14
303.853	-10.99
304.068	-16.68
304.283	-13.23
304.497	-23.16
304.712	-39.51
304.927	-13.54
305.142	-17.06
305.356	-8.36
305.571	-5.67
305.786	-19.94
306	-59.34
306.215	-66.79
306.43	-97.27
306.644	-103.95
306.859	-55.58
307.074	-13.59
307.288	-44.53
307.503	-55.91
307.717	-63.61
307.932	-72.21
308.147	-82.71
308.361	-54.55
308.576	-61.92
308.79	-99.24
309.005	-82.95
309.219	-68.19
309.434	-70.65
309.648	-48.74
309.863	-20.61
310.077	-16.03
310.292	-8.65
310.506	2.07
310.72	8.51
310.935	15.42
311.149	-1.02
311.364	15.03
311.578	25.88
311.792	20.97
312.007	17.79
312.221	13.84
312.435	13.86
312.649	-6.39
312.864	22.89
313.078	49.47
313.292	104.49
313.507	41.85
313.721	52.1
313.935	6.53
314.149	-25.11
314.363	-26.19
314.578	-19.6
314.792	-8.06
315.006	-19.72
315.22	4.38
315.434	6.11
315.648	23.21
315.862	18.12
316.077	30.2
316.291	13.07
316.505	-3.15
316.719	-32.5
316.933	-59.33
317.147	-77.79
317.361	-125.24
317.575	-143.57
317.789	-162.34
318.003	-222.8
318.217	-174.7
318.431	-83.45
318.645	-11.44
318.859	-15.31
319.073	8.47
319.287	-3.53
319.5	-33.73
319.714	-88.94
319.928	-124.92
320.142	-157.24
320.356	-94.22
320.57	-45.23
320.784	-56.58
320.997	-59.93
321.211	-44.42
321.425	-117.13
321.639	-136.08
321.853	-59.54
322.066	-29.04
322.28	-41.17
322.494	-24.79
322.707	4.07
322.921	-19.21
323.135	-28.95
323.349	-6.91
323.562	-34.83
323.776	-70.25
323.989	-71.16
324.203	-94.72
324.417	-113.87
324.63	-114.9
324.844	-99.27
325.057	-76.41
325.271	-48.48
325.485	-8.74
325.698	12.22
325.912	23.94
326.125	-18.96
326.339	-10.9
326.552	-55.79
326.766	-49.45
326.979	-22.65
327.193	30.41
327.406	14.37
327.619	10.92
327.833	18.44
328.046	-34.74
328.26	-88.82
328.473	-60
328.686	-92.95
328.9	-88.63
329.113	-42.63
329.326	-52.4
329.54	-51.76
329.753	-64.29
329.966	-81.24
330.179	-73.16
330.393	-36.28
330.606	-16.96
330.819	10.38
331.032	25.56
331.246	23.04
331.459	51.4
331.672	29.45
331.885	18.95
332.098	-18.85
332.311	-38.43
332.525	-128.93
332.738	-94.93
332.951	-69.99
333.164	-24.75
333.377	1.27
333.59	25.15
333.803	16.6
334.016	24.45
334.229	25.91
334.442	12.63
334.655	53.67
334.868	53.63
335.081	22.83
335.294	9.81
335.507	2.15
335.72	-27.03
335.933	-42.17
336.146	-45.28
336.359	-43.63
336.572	-74.03
336.785	-104.26
336.997	-88.79
337.21	-57.55
337.423	-70.42
337.636	-48.71
337.849	-27.06
338.062	-37.38
338.274	-48.89
338.487	-54.07
338.7	-49.93
338.913	-88.66
339.125	-103.95
339.338	-137.23
339.551	-94.16
339.763	-71.21
339.976	-36.91
340.189	-3.2
340.402	8.16
340.614	-15.73
340.827	-29.57
341.039	-35.62
341.252	-42.54
341.465	-19.45
341.677	-25.01
341.89	-59.58
342.102	-25.71
342.315	-29.55
342.527	-70.81
342.74	-45.34
342.952	-9.1
343.165	-27.72
343.377	-7.45
343.59	-18
343.802	9.06
344.015	8.46
344.227	24.47
344.44	7.07
344.652	16.27
344.864	-19.46
345.077	14.71
345.289	15.42
345.502	26.88
345.714	24.33
345.926	35.96
346.139	16.41
346.351	22.69
346.563	16.87
346.775	22.83
346.988	3.18
347.2	-4.43
347.412	-62.35
347.624	-88.81
347.837	-114.05
348.049	-87.48
348.261	-36.71
348.473	-12.67
348.685	-19.09
348.897	-17.46
349.11	-25.87
349.322	-74.48
349.534	-73.45
349.746	-63.28
349.958	-46.26
350.17	-58.95
350.382	-31.51
350.594	-31.21
350.806	-31.3
351.018	-35.23
351.23	-39.74
351.442	-99.35
351.654	-101.43
351.866	-69
352.078	-75.3
352.29	-42.28
352.502	-4.97
352.714	12.3
352.926	-15.11
353.138	-8.45
353.35	-15.46
353.561	-27.62
353.773	-58.44
353.985	-28.35
354.197	-42.74
354.409	-58.49
354.621	-52.33
354.832	-41.4
355.044	-51.94
355.256	-50.51
355.468	-21.36
355.679	-28.08
355.891	-12.89
356.103	-29.78
356.314	-21.34
356.526	-26.83
356.738	-10.3
356.949	-29.31
357.161	-11.91
357.373	-11.28
357.584	-35.7
357.796	-30.4
358.008	-27.77
358.219	-5.41
358.431	-5.53
358.642	11.09
358.854	17.61
359.065	3.64
359.277	-26.76
359.488	-37.88
359.7	-71.23
359.911	-96.67
360.123	-55.08
360.334	-72.75
360.546	-85.69
360.757	-76.55
360.969	-67.69
361.18	-75.42
361.391	-28.92
361.603	-12.4
361.814	-0.55
362.025	-4.63
362.237	-5.11
362.448	-11.12
362.659	-7.33
362.871	-3.84
363.082	7.84
363.293	2.26
363.504	-3.33
363.716	-21.13
363.927	-26.26
364.138	-65.56
364.349	-71.37
364.56	-72.74
364.772	-59.19
364.983	-38.73
365.194	-27.63
365.405	-15.38
365.616	5.91
365.827	2.2
366.038	-21.14
366.25	-23.75
366.461	-62.49
366.672	-54.47
366.883	-34
367.094	-28.77
367.305	-31.94
367.516	-20.38
367.727	-44.34
367.938	-53.43
368.149	-49.66
368.36	-35.87
368.571	-25.99
368.781	-35.05
368.992	-50.55
369.203	-49.27
369.414	-80.08
369.625	-95.04
369.836	-90.77
370.047	-109.04
370.258	-102.71
370.468	-88.14
370.679	-103.31
370.89	-93.49
371.101	-57.05
371.312	-71.04
371.522	-60.22
371.733	-32.07
371.944	-17.81
372.155	-22.81
372.365	-12.94
372.576	-20.11
372.787	-32.81
372.997	-61.08
373.208	-61.91
373.419	-35.93
373.629	-58.36
373.84	-45.86
374.05	-58.85
374.261	-38.87
374.472	-53.41
374.682	-8.61
374.893	-13.34
375.103	31.27
375.314	12.52
375.524	1.98
375.735	3.78
375.945	4.95
376.156	-29.42
376.366	-15.13
376.577	-6.05
376.787	-18.82
376.997	-12.58
377.208	-3.23
377.418	-22.9
377.629	-16.91
377.839	-12.11
378.049	-9.46
378.26	7.02
378.47	16.29
378.68	8.98
378.89	7.97
379.101	-1.94
379.311	-34.76
379.521	-63.64
379.732	-71.02
379.942	-67.68
380.152	-72.9
380.362	-33.93
380.572	-25.68
380.783	-13.45
380.993	-3.98
381.203	5.84
381.413	9.39
381.623	11.03
381.833	15.08
382.043	8.98
382.253	0.73
382.463	-2.03
382.674	-11.05
382.884	-37.8
383.094	-47.1
383.304	-40.54
383.514	-35.64
383.724	-13.29
383.934	-14.84
384.144	-20.09
384.353	-24.58
384.563	-29.53
384.773	-34.54
384.983	-36.1
385.193	-14.89
385.403	-14.67
385.613	-11.08
385.823	-22.79
386.033	-11.45
386.242	-20.29
386.452	-20.33
386.662	-30.04
386.872	-12.77
387.082	-18.8
387.291	-26.75
387.501	-28.35
387.711	-17.62
387.921	-26.93
388.13	-24.91
388.34	-6.93
388.55	-5.67
388.759	-8.71
388.969	-1.27
389.179	-0.54
389.388	-3.79
389.598	-0.57
389.807	-6.26
390.017	-10.31
390.227	-7.48
390.436	-11.68
390.646	-13.16
390.855	-7.65
391.065	-5.75
391.274	-6.41
391.484	-7.91
391.693	-5.63
391.903	-4
392.112	1.3
392.322	2.86
392.531	9.2
392.74	8.44
392.95	2.79
393.159	0.75
393.369	0.36
393.578	-1.59
393.787	-1.9
393.997	1.1
394.206	-1.54
394.415	-1.52
394.625	-3.05
394.834	-5.1
395.043	-3.79
395.252	-0.06
395.462	2.84
395.671	4.48
395.88	6.04
396.089	6.55
396.298	4.67
396.508	3.19
396.717	2.22
396.926	3.52
397.135	3.76
397.344	3.8
397.553	4.44
397.762	6.06
397.971	5.13
398.181	4.66
398.39	4.42
398.599	3.77
398.808	3.82
399.017	4.89
399.226	6.31
399.435	7.57
399.644	7.98
399.853	6.88
400.062	6.2
400.27	5.51
400.479	4.77
400.688	4.28
400.897	4.99
401.106	4.99
401.315	4.69
401.524	4.88
401.733	5.52
401.941	5.92
402.15	6.46
402.359	6.23
402.568	6.29
402.777	6.21
402.985	5.69
403.194	5.46
403.403	5.73
403.612	5.49
403.82	5.14
404.029	5.49
404.238	5.36
404.446	5.72
404.655	5.54
404.864	5.76
405.072	5.48
405.281	5.65
405.489	5.03
405.698	5.15
405.906	5.07
406.115	5.15
406.324	4.95
406.532	5.39
406.741	5.55
406.949	5.44
407.158	5.22
407.366	5.34
407.574	5.22
407.783	4.98
407.991	4.91
408.2	5.23
408.408	5.03
408.617	4.95
408.825	4.95
409.033	4.98
409.242	4.9
409.45	5.22
409.658	5.03
409.867	5.07
410.075	5.1
410.283	4.82
410.491	4.58
410.7	4.66
410.908	4.78
411.116	5.09
411.324	5.33
411.533	5.4
411.741	5.55
411.949	5.44
412.157	4.98
412.365	4.85
412.573	4.77
412.781	4.72
412.99	4.75
413.198	5.08
413.406	5.12
413.614	5.15
413.822	5.06
414.03	4.87
414.238	4.54
414.446	4.68
414.654	4.43
414.862	4.44
415.07	4.54
415.278	4.77
415.486	4.53
415.694	4.6
415.902	4.44
416.109	4.27
416.317	4.13
416.525	3.88
416.733	3.99
416.941	4.15
417.149	4.16
417.357	4.21
417.564	4.51
417.772	4.72
417.98	4.58
418.188	4.67
418.395	4.68
418.603	4.84
418.811	4.38
419.019	4.44
419.226	4.57
419.434	4.66
419.642	4.36
419.849	4.55
420.057	4.5
420.265	4.36
420.472	4.03
420.68	4.08
420.887	3.96
421.095	4
421.302	3.94
421.51	4.25
421.717	4.29
421.925	4.42
422.132	4.34
422.34	4.13
422.547	4.16
422.755	4.06
422.962	3.9
423.17	3.93
423.377	4
423.585	3.92
423.792	3.85
423.999	4.03
424.207	3.96
424.414	4.24
424.621	4.26
424.829	4.3
425.036	4.23
425.243	4.39
425.451	4.14
425.658	3.81
425.865	4.06
426.072	4.04
426.28	4.16
426.487	4.19
426.694	4.55
426.901	4.36
427.108	4.38
427.315	4.2
427.523	4.53
427.73	4.41
427.937	4.31
428.144	4.21
428.351	4.17
428.558	4.15
428.765	4.09
428.972	4.05
429.179	4.2
429.386	4.42
429.593	4.18
429.8	4.05
430.007	4.21
430.214	4.38
430.421	4.13
430.628	3.95
430.835	3.88
431.042	4.17
431.249	4.11
431.456	4.26
431.662	4.7
431.869	4.99
432.076	4.85
432.283	4.88
432.49	4.86
432.697	4.73
432.903	4.49
433.11	4.46
433.317	4.59
433.524	4.82
433.73	4.74
433.937	5.09
434.144	5.02
434.35	5.02
434.557	4.73
434.764	4.94
434.97	4.82
435.177	4.95
435.384	4.73
435.59	4.85
435.797	4.9
436.003	5.01
436.21	5.05
436.416	5.28
436.623	5.26
436.829	5.31
437.036	5.27
437.242	5.28
437.449	5.16
437.655	5.19
437.862	5.14
438.068	5.16
438.275	5.24
438.481	5.47
438.687	5.42
438.894	5.44
439.1	5.51
439.307	5.65
439.513	5.54
439.719	5.63
439.926	5.71
440.132	5.7
440.338	5.53
440.544	5.65
440.751	5.57
440.957	5.64
441.163	5.54
441.369	5.69
441.575	5.48
441.782	5.57
441.988	5.38
442.194	5.46
442.4	5.42
442.606	5.77
442.812	5.83
443.018	6.03
443.224	6.06
443.431	6.19
443.637	5.94
443.843	5.87
444.049	5.82
444.255	5.74
444.461	5.69
444.667	5.66
444.873	5.91
445.079	5.9
445.284	6.09
445.49	5.94
445.696	5.83
445.902	5.65
446.108	5.58
446.314	5.36
446.52	5.35
446.726	5.67
446.931	5.66
447.137	5.74
447.343	5.94
447.549	5.97
447.755	5.81
447.96	5.91
448.166	5.84
448.372	5.75
448.578	5.88
448.783	5.91
448.989	5.99
449.195	6.2
449.4	6.18
449.606	6.09
449.812	6.03
450.017	6.01
450.223	5.9
450.428	5.93
450.634	6.14
450.84	6.28
451.045	6.15
451.251	6.09
451.456	6.29
451.662	6.28
451.867	6.32
452.073	6.4
452.278	6.62
452.483	6.7
452.689	6.48
452.894	6.47
453.1	6.48
453.305	6.24
453.51	6.17
453.716	6.2
453.921	6.2
454.127	6.1
454.332	6.17
454.537	6.07
454.742	6.1
454.948	6.11
455.153	6.15
455.358	6.28
455.563	6.47
455.769	6.56
455.974	6.49
456.179	6.49
456.384	6.35
456.589	6.22
456.795	6.07
457	6.11
457.205	6.33
457.41	6.32
457.615	6.28
457.82	6.34
458.025	6.38
458.23	6.15
458.435	6.23
458.64	6.15
458.845	6.29
459.05	6.25
459.255	6.31
459.46	6.3
459.665	6.42
459.87	6.39
460.075	6.32
460.28	6.31
460.485	6.47
460.69	6.37
460.895	6.3
461.099	6.31
461.304	6.48
461.509	6.44
461.714	6.44
461.919	6.63
462.123	6.59
462.328	6.6
462.533	6.47
462.738	6.6
462.942	6.44
463.147	6.53
463.352	6.46
463.556	6.49
463.761	6.49
463.966	6.54
464.17	6.5
464.375	6.48
464.58	6.46
464.784	6.42
464.989	6.39
465.193	6.39
465.398	6.44
465.602	6.61
465.807	6.61
466.011	6.63
466.216	6.7
466.42	6.74
466.625	6.76
466.829	6.87
467.034	6.93
467.238	7.11
467.443	7.05
467.647	6.91
467.851	6.93
468.056	7.01
468.26	6.89
468.464	6.86
468.669	7.02
468.873	7.14
469.077	7.09
469.282	7.18
469.486	7.3
469.69	7.29
469.894	7.01
470.099	7.09
470.303	7.21
470.507	7.08
470.711	7
470.915	7.14
471.119	7.07
471.324	6.92
471.528	7.01
471.732	7.11
471.936	7.05
472.14	7.09
472.344	7.15
472.548	7.2
472.752	7.31
472.956	7.65
473.16	7.67
473.364	7.63
473.568	7.57
473.772	7.53
473.976	7.32
474.18	7.29
474.384	7.38
474.588	7.44
474.792	7.39
474.995	7.51
475.199	7.58
475.403	7.63
475.607	7.6
475.811	7.58
476.015	7.62
476.218	7.7
476.422	7.59
476.626	7.78
476.83	7.83
477.033	7.73
477.237	7.59
477.441	7.71
477.644	7.64
477.848	7.68
478.052	7.64
478.255	7.71
478.459	7.67
478.663	7.74
478.866	7.77
479.07	7.85
479.273	8.04
479.477	8.11
479.681	8.09
479.884	8.09
480.088	8.06
480.291	7.93
480.495	8
480.698	7.98
480.901	8.02
481.105	8.16
481.308	8.14
481.512	8.04
481.715	8.13
481.919	8.15
482.122	8.08
482.325	8.09
482.529	8.16
482.732	8.12
482.935	8.05
483.138	7.97
483.342	8.05
483.545	8.16
483.748	8.24
483.952	8.38
484.155	8.52
484.358	8.53
484.561	8.39
484.764	8.32
484.967	8.32
485.171	8.44
485.374	8.37
485.577	8.54
485.78	8.58
485.983	8.59
486.186	8.42
486.389	8.37
486.592	8.31
486.795	8.35
486.998	8.31
487.201	8.36
487.404	8.52
487.607	8.6
487.81	8.57
488.013	8.65
488.216	8.68
488.419	8.62
488.622	8.53
488.825	8.52
489.028	8.45
489.231	8.4
489.433	8.37
489.636	8.36
489.839	8.38
490.042	8.32
490.245	8.31
490.447	8.4
490.65	8.38
490.853	8.41
491.056	8.5
491.258	8.48
491.461	8.51
491.664	8.67
491.866	8.64
492.069	8.73
492.272	8.78
492.474	8.76
492.677	8.7
492.879	8.77
493.082	8.84
493.285	9.01
493.487	9
493.69	8.98
493.892	8.89
494.095	8.81
494.297	8.77
494.5	8.87
494.702	8.88
494.905	8.96
495.107	8.98
495.309	8.96
495.512	9.01
495.714	9.15
495.917	9.23
496.119	9.23
496.321	9.32
496.524	9.27
496.726	9.25
496.928	9.3
497.13	9.34
497.333	9.38
497.535	9.45
497.737	9.47
497.939	9.47
498.142	9.57
498.344	9.58
498.546	9.52
498.748	9.57
498.95	9.73
499.152	9.69
499.355	9.72
499.557	9.92
499.759	9.99
499.961	9.9
500.163	9.94
500.365	9.99
500.567	10.01
500.769	9.94
500.971	9.97
501.173	9.89
501.375	9.87
501.577	9.75
501.779	9.8
501.981	9.82
502.183	9.95
502.385	9.94
502.587	9.96
502.788	10.05
502.99	10.13
503.192	10.13
503.394	10.18
503.596	10.24
503.798	10.29
503.999	10.31
504.201	10.36
504.403	10.44
504.605	10.5
504.806	10.42
505.008	10.39
505.21	10.43
505.411	10.38
505.613	10.39
505.815	10.4
506.016	10.49
506.218	10.61
506.42	10.6
506.621	10.62
506.823	10.7
507.024	10.56
507.226	10.44
507.427	10.44
507.629	10.45
507.83	10.49
508.032	10.6
508.233	10.65
508.435	10.77
508.636	10.84
508.838	10.78
509.039	10.81
509.24	10.8
509.442	10.81
509.643	10.76
509.845	10.73
510.046	10.8
510.247	10.84
510.448	10.81
510.65	10.88
510.851	11.03
511.052	10.94
511.254	11.01
511.455	11.14
511.656	11.24
511.857	11.23
512.058	11.34
512.26	11.34
512.461	11.27
512.662	11.21
512.863	11.11
513.064	11.1
513.265	11.1
513.466	11.14
513.667	11.11
513.868	11.21
514.069	11.25
514.27	11.28
514.471	11.28
514.672	11.29
514.873	11.27
515.074	11.3
515.275	11.2
515.476	11.2
515.677	11.23
515.878	11.32
516.079	11.28
516.28	11.35
516.481	11.51
516.682	11.56
516.882	11.51
517.083	11.52
517.284	11.45
517.485	11.34
517.686	11.35
517.886	11.29
518.087	11.34
518.288	11.45
518.488	11.38
518.689	11.35
518.89	11.4
519.091	11.38
519.291	11.34
519.492	11.41
519.692	11.42
519.893	11.48
520.094	11.48
520.294	11.54
520.495	11.57
520.695	11.66
520.896	11.64
521.096	11.62
521.297	11.7
521.497	11.64
521.698	11.53
521.898	11.53
522.099	11.55
522.299	11.55
522.499	11.61
522.7	11.7
522.9	11.7
523.101	11.79
523.301	11.77
523.501	11.7
523.702	11.7
523.902	11.77
524.102	11.81
524.302	11.79
524.503	11.95
524.703	11.95
524.903	11.91
525.103	11.83
525.304	11.91
525.504	11.87
525.704	11.89
525.904	11.87
526.104	11.89
526.304	11.82
526.504	11.84
526.705	11.86
526.905	11.96
527.105	12.05
527.305	12.07
527.505	12.03
527.705	12
527.905	12
528.105	11.99
528.305	11.98
528.505	12.03
528.705	12.19
528.905	12.19
529.105	12.15
529.304	12.22
529.504	12.31
529.704	12.24
529.904	12.24
530.104	12.24
530.304	12.31
530.503	12.25
530.703	12.15
530.903	12.2
531.103	12.26
531.303	12.24
531.502	12.25
531.702	12.43
531.902	12.45
532.101	12.43
532.301	12.43
532.501	12.48
532.7	12.47
532.9	12.48
533.1	12.53
533.299	12.51
533.499	12.51
533.698	12.42
533.898	12.43
534.097	12.42
534.297	12.56
534.496	12.56
534.696	12.64
534.895	12.73
535.095	12.83
535.294	12.74
535.494	12.65
535.693	12.66
535.892	12.64
536.092	12.53
536.291	12.59
536.491	12.75
536.69	12.85
536.889	12.82
537.088	12.91
537.288	12.95
537.487	13.04
537.686	13.05
537.886	13.09
538.085	13.11
538.284	13.21
538.483	13.13
538.682	13.15
538.882	13.23
539.081	13.38
539.28	13.26
539.479	13.29
539.678	13.29
539.877	13.36
540.076	13.28
540.275	13.35
540.474	13.49
540.673	13.53
540.872	13.5
541.071	13.52
541.27	13.55
541.469	13.58
541.668	13.66
541.867	13.67
542.066	13.75
542.265	13.86
542.464	13.8
542.663	13.87
542.862	14.02
543.06	14.1
543.259	14.15
543.458	14.23
543.657	14.16
543.856	14.19
544.054	14.12
544.253	14.06
544.452	14.04
544.651	14.21
544.849	14.16
545.048	14.26
545.247	14.34
545.445	14.43
545.644	14.45
545.843	14.47
546.041	14.51
546.24	14.6
546.438	14.69
546.637	14.72
546.836	14.93
547.034	15.01
547.233	15.06
547.431	15.02
547.63	15.08
547.828	15.06
548.027	15.11
548.225	15.13
548.423	15.18
548.622	15.25
548.82	15.24
549.019	15.28
549.217	15.42
549.415	15.58
549.614	15.63
549.812	15.72
550.01	15.74
550.209	15.74
550.407	15.82
550.605	15.85
550.803	15.92
551.002	15.98
551.2	16.04
551.398	16.11
551.596	16.3
551.794	16.43
551.993	16.55
552.191	16.55
552.389	16.62
552.587	16.55
552.785	16.61
552.983	16.66
553.181	16.9
553.379	17
553.577	17.1
553.775	17.16
553.973	17.27
554.171	17.29
554.369	17.28
554.567	17.4
554.765	17.41
554.963	17.5
555.161	17.48
555.359	17.54
555.557	17.63
555.755	17.75
555.952	17.87
556.15	18.01
556.348	18.16
556.546	18.23
556.744	18.29
556.941	18.32
557.139	18.44
557.337	18.49
557.535	18.52
557.732	18.64
557.93	18.82
558.128	18.86
558.325	18.99
558.523	19.05
558.721	19.14
558.918	19.14
559.116	19.31
559.313	19.36
559.511	19.49
559.708	19.52
559.906	19.58
560.104	19.59
560.301	19.69
560.498	19.82
560.696	19.95
560.893	20.18
561.091	20.32
561.288	20.43
561.486	20.52
561.683	20.65
561.88	20.72
562.078	20.83
562.275	20.91
562.473	21.05
562.67	21.27
562.867	21.37
563.064	21.49
563.262	21.54
563.459	21.6
563.656	21.64
563.853	21.73
564.051	21.86
564.248	22.06
564.445	22.16
564.642	22.22
564.839	22.36
565.036	22.5
565.234	22.72
565.431	22.8
565.628	22.94
565.825	23.11
566.022	23.24
566.219	23.19
566.416	23.38
566.613	23.56
566.81	23.59
567.007	23.63
567.204	23.75
567.401	23.76
567.598	23.76
567.795	23.82
567.991	23.83
568.188	24.02
568.385	24.18
568.582	24.31
568.779	24.42
568.976	24.61
569.172	24.68
569.369	24.72
569.566	24.78
569.763	24.86
569.96	24.83
570.156	24.86
570.353	24.9
570.55	25
570.746	25.12
570.943	25.2
571.14	25.21
571.336	25.27
571.533	25.37
571.729	25.35
571.926	25.48
572.123	25.63
572.319	25.71
572.516	25.68
572.712	25.81
572.909	25.78
573.105	25.85
573.302	25.89
573.498	26.03
573.695	25.94
573.891	26.09
574.087	26.11
574.284	26.12
574.48	25.99
574.677	26.09
574.873	26.03
575.069	26.08
575.266	26.14
575.462	26.21
575.658	26.26
575.854	26.33
576.051	26.34
576.247	26.31
576.443	26.36
576.639	26.34
576.835	26.35
577.032	26.28
577.228	26.48
577.424	26.63
577.62	26.54
577.816	26.55
578.012	26.56
578.208	26.42
578.404	26.35
578.6	26.51
578.796	26.56
578.993	26.61
579.189	26.58
579.384	26.51
579.58	26.36
579.776	26.3
579.972	26.26
580.168	26.31
580.364	26.27
580.56	26.34
580.756	26.3
580.952	26.23
581.148	26.18
581.343	26.29
581.539	26.25
581.735	26.33
581.931	26.5
582.127	26.63
582.322	26.57
582.518	26.69
582.714	26.66
582.909	26.56
583.105	26.41
583.301	26.35
583.496	26.29
583.692	26.23
583.888	26.18
584.083	26.28
584.279	26.32
584.474	26.23
584.67	26.35
584.866	26.38
585.061	26.2
585.257	26.25
585.452	26.24
585.648	26.13
585.843	26.17
586.039	26.25
586.234	26.2
586.429	26.19
586.625	26.25
586.82	26.15
587.015	26.23
587.211	26.06
587.406	26.12
587.601	26.02
587.797	26.07
587.992	25.95
588.187	26.16
588.383	26.1
588.578	26.08
588.773	26.12
588.968	26.22
589.163	26.2
589.359	26.23
589.554	26.27
589.749	26.24
589.944	26.28
590.139	26.3
590.334	26.34
590.529	26.38
590.724	26.47
590.919	26.49
591.114	26.56
591.309	26.64
591.504	26.71
591.699	26.7
591.894	26.74
592.089	26.66
592.284	26.65
592.479	26.71
592.674	26.71
592.869	26.7
593.064	26.8
593.259	26.92
593.454	27.06
593.648	27.16
593.843	27.26
594.038	27.29
594.233	27.33
594.428	27.27
594.622	27.28
594.817	27.45
595.012	27.51
595.206	27.5
595.401	27.58
595.596	27.61
595.79	27.58
595.985	27.73
596.18	27.85
596.374	27.98
596.569	28.09
596.763	28.15
596.958	28.22
597.153	28.31
597.347	28.3
597.542	28.39
597.736	28.41
597.931	28.43
598.125	28.55
598.319	28.78
598.514	28.82
598.708	28.95
598.903	28.98
599.097	29
599.291	28.96
599.486	29
599.68	29.06
599.874	29.11
600.069	29.06
600.263	29.07
600.457	29.16
600.651	29.17
600.846	29.27
601.04	29.35
601.234	29.42
601.428	29.49
601.622	29.56
601.817	29.58
602.011	29.64
602.205	29.66
602.399	29.64
602.593	29.65
602.787	29.62
602.981	29.62
603.175	29.76
603.369	29.75
603.563	29.8
603.757	29.86
603.951	29.92
604.145	29.69
604.339	29.78
604.533	29.66
604.727	29.56
604.921	29.49
605.115	29.57
605.309	29.55
605.502	29.55
605.696	29.57
605.89	29.52
606.084	29.47
606.278	29.41
606.471	29.26
606.665	29.19
606.859	29.05
607.053	28.97
607.246	28.84
607.44	28.9
607.634	28.95
607.827	28.96
608.021	28.87
608.214	28.74
608.408	28.61
608.602	28.41
608.795	28.26
608.989	28.14
609.182	28.17
609.376	28.2
609.569	28.2
609.763	28.16
609.956	28.12
610.15	27.99
610.343	27.85
610.537	27.72
610.73	27.73
610.923	27.76
611.117	27.76
611.31	27.74
611.504	27.7
611.697	27.59
611.89	27.43
612.083	27.26
612.277	27.21
612.47	27.17
612.663	27.09
612.856	27.07
613.05	27.02
613.243	26.81
613.436	26.74
613.629	26.6
613.822	26.41
614.015	26.33
614.209	26.2
614.402	26.18
614.595	26.21
614.788	26.26
614.981	26.17
615.174	26.12
615.367	25.93
615.56	25.81
615.753	25.73
615.946	25.78
616.139	25.84
616.332	25.95
616.525	25.85
616.718	25.83
616.911	25.73
617.103	25.62
617.296	25.44
617.489	25.39
617.682	25.22
617.875	25.27
618.067	25.2
618.26	25.13
618.453	25.14
618.646	25.16
618.838	25.03
619.031	25.03
619.224	25
619.417	24.99
619.609	25.1
619.802	25.02
619.994	25.01
620.187	25.05
620.38	24.92
620.572	24.73
620.765	24.78
620.957	24.63
621.15	24.47
621.342	24.49
621.535	24.51
621.727	24.38
621.92	24.36
622.112	24.28
622.305	24.29
622.497	24.19
622.69	24.14
622.882	24.09
623.074	24.19
623.267	24.08
623.459	24.1
623.651	24.09
623.844	24.18
624.036	24.21
624.228	24.14
624.42	24.13
624.613	24.27
624.805	24.17
624.997	24.14
625.189	24.2
625.381	24.09
625.574	23.87
625.766	23.82
625.958	23.8
626.15	23.82
626.342	23.8
626.534	23.84
626.726	23.86
626.918	23.79
627.11	23.7
627.302	23.7
627.494	23.66
627.686	23.65
627.878	23.61
628.07	23.57
628.262	23.54
628.454	23.6
628.646	23.63
628.838	23.66
629.029	23.59
629.221	23.59
629.413	23.42
629.605	23.18
629.797	23.07
629.989	23.12
630.18	23.12
630.372	23.13
630.564	23.13
630.755	23.14
630.947	23.14
631.139	22.96
631.33	22.86
631.522	23.05
631.714	23.03
631.905	22.98
632.097	22.99
632.289	23.03
632.48	22.93
632.672	22.81
632.863	22.64
633.055	22.68
633.246	22.73
633.438	22.66
633.629	22.75
633.821	22.8
634.012	22.77
634.203	22.61
634.395	22.66
634.586	22.63
634.777	22.62
634.969	22.68
635.16	22.77
635.351	22.66
635.543	22.65
635.734	22.69
635.925	22.66
636.117	22.71
636.308	22.72
636.499	22.67
636.69	22.53
636.881	22.44
637.073	22.39
637.264	22.39
637.455	22.44
637.646	22.56
637.837	22.55
638.028	22.5
638.219	22.56
638.41	22.48
638.601	22.45
638.792	22.55
638.983	22.54
639.174	22.47
639.365	22.48
639.556	22.44
639.747	22.29
639.938	22.32
640.129	22.36
640.32	22.24
640.511	22.29
640.701	22.47
640.892	22.34
641.083	22.37
641.274	22.48
641.465	22.39
641.655	22.25
641.846	22.32
642.037	22.17
642.228	22.08
642.418	22.16
642.609	22.11
642.8	22.2
642.99	22.19
643.181	22.3
643.372	22.29
643.562	22.28
643.753	22.16
643.943	22.16
644.134	21.99
644.324	21.87
644.515	21.88
644.705	21.85
644.896	21.9
645.086	21.87
645.277	21.89
645.467	21.79
645.658	21.68
645.848	21.59
646.038	21.67
646.229	21.59
646.419	21.58
646.61	21.68
646.8	21.63
646.99	21.5
647.18	21.43
647.371	21.5
647.561	21.37
647.751	21.36
647.941	21.41
648.132	21.43
648.322	21.32
648.512	21.4
648.702	21.4
648.892	21.33
649.082	21.32
649.272	21.2
649.462	21.01
649.653	20.88
649.843	20.8
650.033	20.78
650.223	20.8
650.413	20.77
650.603	20.77
650.793	20.72
650.983	20.57
651.172	20.43
651.362	20.4
651.552	20.25
651.742	20.24
651.932	20.12
652.122	20.13
652.312	20.06
652.502	20.04
652.691	19.94
652.881	19.93
653.071	19.88
653.261	19.73
653.45	19.57
653.64	19.49
653.83	19.31
654.019	19.11
654.209	18.99
654.399	18.94
654.588	18.77
654.778	18.72
654.968	18.61
655.157	18.59
655.347	18.44
655.536	18.31
655.726	18.19
655.915	18.01
656.105	17.86
656.294	17.74
656.484	17.52
656.673	17.29
656.863	17.2
657.052	16.93
657.241	16.69
657.431	16.42
657.62	16.25
657.809	15.96
657.999	15.84
658.188	15.68
658.377	15.58
658.567	15.46
658.756	15.34
658.945	15.18
659.134	15.03
659.324	14.91
659.513	14.67
659.702	14.48
659.891	14.32
660.08	14.16
660.269	14.09
660.458	14.01
660.648	13.87
660.837	13.71
661.026	13.57
661.215	13.4
661.404	13.16
661.593	13.05
661.782	12.84
661.971	12.76
662.16	12.56
662.349	12.45
662.538	12.24
662.726	12.13
662.915	11.86
663.104	11.79
663.293	11.77
663.482	11.82
663.671	11.74
663.86	11.66
664.048	11.49
664.237	11.37
664.426	11.07
664.615	11.04
664.803	10.9
664.992	10.81
665.181	10.62
665.369	10.57
665.558	10.44
665.747	10.39
665.935	10.4
666.124	10.36
666.312	10.35
666.501	10.27
666.69	10.16
666.878	10.05
667.067	9.96
667.255	9.97
667.444	10.17
667.632	10.18
667.82	10.21
668.009	10.26
668.197	10.2
668.386	9.88
668.574	10.01
668.762	9.91
668.951	9.71
669.139	9.7
669.327	9.63
669.516	9.59
669.704	9.55
669.892	9.77
670.08	9.72
670.269	9.7
670.457	9.58
670.645	9.43
670.833	9.42
671.021	9.43
671.21	9.49
671.398	9.62
671.586	9.78
671.774	9.67
671.962	9.62
672.15	9.61
672.338	9.34
672.526	9.29
672.714	9.21
672.902	9.27
673.09	9.48
673.278	9.7
673.466	9.87
673.654	10.11
673.842	10.09
674.03	9.95
674.218	9.83
674.405	9.76
674.593	9.59
674.781	9.65
674.969	9.73
675.157	9.95
675.344	10.1
675.532	10.2
675.72	10.3
675.908	10.42
676.095	10.41
676.283	10.39
676.471	10.57
676.658	10.6
676.846	10.57
677.033	10.65
677.221	10.66
677.409	10.59
677.596	10.59
677.784	10.7
677.971	10.77
678.159	10.85
678.346	10.96
678.534	11.04
678.721	11.26
678.909	11.27
679.096	11.34
679.283	11.47
679.471	11.71
679.658	11.71
679.846	11.99
680.033	12.3
680.22	12.37
680.408	12.26
680.595	12.37
680.782	12.27
680.969	12.25
681.157	12.47
681.344	12.8
681.531	12.79
681.718	12.97
681.905	13.2
682.093	13.31
682.28	13.47
682.467	13.79
682.654	14.13
682.841	14.1
683.028	14.3
683.215	14.45
683.402	14.4
683.589	14.61
683.776	14.89
683.963	14.96
684.15	15.23
684.337	15.45
684.524	15.51
684.711	15.89
684.898	15.98
685.085	16.2
685.271	16.7
685.458	17.06
685.645	17.18
685.832	17.69
686.019	18.11
686.205	18.32
686.392	18.59
686.579	18.93
686.766	19.25
686.952	19.49
687.139	20.15
687.326	20.38
687.512	20.74
687.699	21.16
687.886	21.52
688.072	21.65
688.259	22.2
688.445	22.68
688.632	23.01
688.818	23.67
689.005	24.13
689.191	24.55
689.378	25.28
689.564	26.12
689.751	26.43
689.937	26.96
690.124	27.56
690.31	27.79
690.496	28.15
690.683	28.84
690.869	29.54
691.055	30.11
691.242	31.13
691.428	31.92
691.614	32.51
691.8	33.15
691.987	33.78
692.173	34.31
692.359	34.79
692.545	35.41
692.731	35.83
692.918	36.71
693.104	37.11
693.29	37.92
693.476	38.77
693.662	39.67
693.848	40
694.034	40.78
694.22	41.19
694.406	41.93
694.592	42.6
694.778	43.6
694.964	44.17
695.15	45.06
695.336	45.43
695.522	46.13
695.708	46.7
695.894	47.58
696.08	48.44
696.265	49.19
696.451	49.85
696.637	50.65
696.823	51
697.009	51.34
697.194	51.92
697.38	52.45
697.566	52.85
697.751	53.82
697.937	54.58
698.123	55.42
698.308	56.26
698.494	56.96
698.68	57.39
698.865	57.96
699.051	58.75
699.236	59.09
699.422	59.78
699.607	60.19
699.793	60.7
699.978	60.65
700.164	61.19
700.349	61.79
700.535	62.35
700.72	62.65
700.906	63.44
701.091	63.88
701.276	64.14
701.462	64.8
701.647	65.58
701.832	65.99
702.018	66.48
702.203	66.87
702.388	67.19
702.573	67.61
702.759	68.23
702.944	68.6
703.129	68.96
703.314	69.36
703.499	69.45
703.684	69.63
703.87	70.76
704.055	71.54
704.24	71.87
704.425	72.67
704.61	72.96
704.795	72.8
704.98	72.82
705.165	72.7
705.35	72.64
705.535	73.04
705.72	73.32
705.905	73.83
706.09	74.89
706.275	75.23
706.459	74.96
706.644	74.71
706.829	74.74
707.014	74.45
707.199	75.08
707.384	75.97
707.568	76.47
707.753	77.13
707.938	77.54
708.123	77.31
708.307	77.18
708.492	77.63
708.677	77.52
708.861	77.79
709.046	77.85
709.231	78.43
709.415	78.62
709.6	78.52
709.784	78.38
709.969	78.69
710.153	78.56
710.338	78.61
710.522	79.08
710.707	79.56
710.891	79.6
711.076	79.84
711.26	79.61
711.445	80.03
711.629	80.22
711.813	80.52
711.998	80.52
712.182	80.74
712.366	81.03
712.551	81.69
712.735	82.15
712.919	82.34
713.103	83
713.288	82.46
713.472	81.77
713.656	81.96
713.84	81.89
714.024	81.92
714.208	81.86
714.393	82.38
714.577	82.62
714.761	82.64
714.945	82.71
715.129	83.08
715.313	83.03
715.497	82.88
715.681	83.84
715.865	83.82
716.049	83.7
716.233	83.55
716.417	83.2
716.601	82.43
716.785	82.58
716.968	83.24
717.152	83.64
717.336	84.03
717.52	84.37
717.704	84.36
717.888	84.48
718.071	84.64
718.255	85
718.439	84.5
718.622	84.73
718.806	85
718.99	84.7
719.174	84.27
719.357	84.51
719.541	84.54
719.724	84.08
719.908	84.85
720.092	85.24
720.275	86.04
720.459	85.49
720.642	85.28
720.826	84.43
721.009	84.41
721.193	83.82
721.376	84.45
721.559	85.02
721.743	85.63
721.926	86.15
722.11	86.38
722.293	85.99
722.476	85.8
722.66	85.66
722.843	85.15
723.026	85.07
723.21	85.42
723.393	86.59
723.576	86.7
723.759	86.22
723.942	86.16
724.126	86.08
724.309	85.1
724.492	85.65
724.675	86.06
724.858	86.59
725.041	87.26
725.224	87.57
725.407	87.32
725.59	87.81
725.774	87.24
725.957	86.24
726.14	85.92
726.322	86.06
726.505	85.75
726.688	86.83
726.871	87.01
727.054	87.43
727.237	87.17
727.42	87.58
727.603	87.17
727.786	87.82
727.968	87.95
728.151	87.41
728.334	86.67
728.517	87.08
728.699	87.4
728.882	86.67
729.065	88.3
729.248	89.3
729.43	89.12
729.613	89.21
729.796	90.12
729.978	88.68
730.161	87.87
730.343	88.01
730.526	87.78
730.708	86.77
730.891	87.57
731.073	87.92
731.256	87.35
731.438	87.1
731.621	88.14
731.803	87.6
731.986	87.93
732.168	88.27
732.35	88.45
732.533	88.17
732.715	88.72
732.898	88.98
733.08	88.83
733.262	88.93
733.444	88.7
733.627	88.75
733.809	88.54
733.991	89.93
734.173	90.06
734.355	89.97
734.538	90.62
734.72	90.61
734.902	89.88
735.084	89.96
735.266	90.26
735.448	89.86
735.63	89.64
735.812	89.53
735.994	90.7
736.176	90.95
736.358	90.19
736.54	90.91
736.722	90.4
736.904	89.55
737.086	89.09
737.268	90.5
737.45	90.16
737.632	90.27
737.814	89.85
737.995	90.41
738.177	89.71
738.359	89.32
738.541	89.82
738.723	90
738.904	90.39
739.086	91
739.268	91.37
739.449	92
739.631	92.09
739.813	92.06
739.994	91.89
740.176	92.1
740.358	91.41
740.539	92.12
740.721	91.76
740.902	91.85
741.084	90.67
741.265	90.73
741.447	90
741.628	90.33
741.81	89.59
741.991	91.43
742.172	92.19
742.354	92.73
742.535	92.83
742.717	92.69
742.898	92.07
743.079	91.59
743.261	91.35
743.442	90.63
743.623	92.19
743.804	92.12
743.986	93.48
744.167	92.37
744.348	92.72
744.529	91.83
744.71	91.7
744.891	90.08
745.073	89.79
745.254	89
745.435	88.7
745.616	88
745.797	88.31
745.978	88.24
746.159	89.6
746.34	88.65
746.521	90.06
746.702	87.87
746.883	89.11
747.064	88.08
747.245	88.78
747.426	88.29
747.606	90.27
747.787	89.99
747.968	90.1
748.149	91.08
748.33	91.34
748.51	90.61
748.691	90.16
748.872	90.72
749.053	89.24
749.233	88.07
749.414	88.5
749.595	87.26
749.775	85.82
749.956	86.2
750.137	85.29
750.317	86.84
750.498	89.47
750.678	89.13
750.859	89.61
751.04	90.83
751.22	88.25
751.4	87.72
751.581	88.09
751.761	87.76
751.942	88.83
752.122	88.51
752.303	87.11
752.483	87.82
752.663	87.1
752.844	84.84
753.024	86.61
753.204	87.41
753.385	86.51
753.565	86.85
753.745	87.54
753.925	86.25
754.106	86.94
754.286	87.66
754.466	88.13
754.646	88.98
754.826	88.57
755.006	87.2
755.187	87.98
755.367	88.22
755.547	89.55
755.727	89.91
755.907	90.37
756.087	90.34
756.267	88.86
756.447	87.08
756.627	86.48
756.807	86.87
756.987	86.12
757.167	87.51
757.346	87.8
757.526	87.07
757.706	87.52
757.886	88.07
758.066	88.14
758.246	89.99
758.425	90.54
758.605	89.72
758.785	89.01
758.965	88.54
759.144	85.78
759.324	86.9
759.504	86.91
759.683	86.89
759.863	84.92
760.043	84.77
760.222	83.7
760.402	83.06
760.581	83.88
760.761	86.88
760.94	85.4
761.12	88.51
761.299	90.63
761.479	89.26
761.658	86.12
761.838	87.32
762.017	86.02
762.197	83.92
762.376	84.25
762.555	86.34
762.735	86.97
762.914	84.91
763.093	86.04
763.273	85.06
763.452	85.17
763.631	84.42
763.81	84.83
763.99	84.05
764.169	85.09
764.348	83.42
764.527	82.39
764.706	84.33
764.885	85.03
765.064	84.4
765.243	85.23
765.423	88.24
765.602	86.77
765.781	83.71
765.96	81.56
766.139	80.14
766.318	78.93
766.497	79.19
766.676	81.4
766.854	85.03
767.033	86.15
767.212	84.28
767.391	84
767.57	83.86
767.749	82.58
767.928	82.5
768.106	83.28
768.285	79.93
768.464	80.2
768.643	79.66
768.821	79.37
769	80.58
769.179	82.6
769.357	79.29
769.536	78.96
769.715	79.91
769.893	80.32
770.072	79.91
770.25	82.27
770.429	81.81
770.607	80.51
770.786	80.08
770.964	81.11
771.143	80.95
771.321	82.14
771.5	84.13
771.678	81.62
771.857	78.48
772.035	79.56
772.213	78.41
772.392	74.46
772.57	77.08
772.748	80.32
772.927	78.23
773.105	78.72
773.283	81.77
773.461	81.28
773.64	81.74
773.818	81.81
773.996	82
774.174	79.84
774.352	77.78
774.531	74.7
774.709	75.61
774.887	75.06
775.065	74.68
775.243	75.33
775.421	76.56
775.599	77.36
775.777	77.42
775.955	76.4
776.133	74.82
776.311	75.84
776.489	73.75
776.667	72.61
776.844	76.1
777.022	76.44
777.2	75.56
777.378	76.77
777.556	79
777.734	79.24
777.911	82.41
778.089	81.49
778.267	80.09
778.445	77.14
778.622	75.57
778.8	73.51
778.978	75.77
779.155	75.24
779.333	75.61
779.511	74.66
779.688	78.01
779.866	72.94
780.043	73.29
780.221	73.56
780.398	70.54
780.576	69.29
780.753	72.42
780.931	70.82
781.108	70.37
781.286	74.81
781.463	70.15
781.64	66.73
781.818	69.12
781.995	72.07
782.172	72.11
782.35	74.66
782.527	80.45
782.704	80.12
782.882	79.65
783.059	76.71
783.236	76.34
783.413	74.52
783.59	73.81
783.768	68.38
783.945	70.56
784.122	72.1
784.299	72.03
784.476	70.84
784.653	71.47
784.83	69.59
785.007	62.74
785.184	62.54
785.361	61.35
785.538	64.78
785.715	66.7
785.892	71.67
786.069	74.96
786.246	76.48
786.423	75.43
786.6	70.64
786.776	72.72
786.953	70.14
787.13	73.22
787.307	73.96
787.484	75.47
787.66	71.52
787.837	70.62
788.014	68.86
788.191	66.68
788.367	65.46
788.544	71.46
788.721	69.07
788.897	69.22
789.074	71.16
789.25	71.58
789.427	67.89
789.603	68.92
789.78	70.99
789.956	66.86
790.133	66.88
790.309	68.62
790.486	73.28
790.662	68.13
790.839	70.51
791.015	70.96
791.192	68.61
791.368	67.55
791.544	68.83
791.721	69.06
791.897	69.82
792.073	66.26
792.249	58.14
792.426	65.35
792.602	68.9
792.778	68.84
792.954	69.94
793.13	71.7
793.307	57.82
793.483	49.33
793.659	44.86
793.835	48.94
794.011	48.47
794.187	49.46
794.363	51.92
794.539	62.12
794.715	56.7
794.891	56.69
795.067	58.8
795.243	64.07
795.419	60.38
795.595	56.91
795.771	57.51
795.947	59.98
796.122	53.93
796.298	54.76
796.474	59.29
796.65	60.64
796.826	58.46
797.001	58.45
797.177	52.21
797.353	55.41
797.529	55.56
797.704	54.91
797.88	53.7
798.056	52.69
798.231	49.83
798.407	56.49
798.582	56.68
798.758	65.89
798.934	75.46
799.109	76.59
799.285	68.49
799.46	71.1
799.636	65.45
799.811	61.32
799.986	62.92
800.162	65.99
800.337	69.87
800.513	68.42
800.688	67.22
800.863	76.61
801.039	67.74
801.214	60.92
801.389	66.68
801.565	61.19
801.74	41.04
801.915	54.56
802.09	58.91
802.265	62.98
802.441	63.81
802.616	74.71
802.791	76.52
802.966	74.51
803.141	63.88
803.316	66.03
803.491	65.6
803.666	62.48
803.841	60.55
804.016	58.95
804.191	58.28
804.366	53.3
804.541	51.08
804.716	46.68
804.891	44.76
805.066	51.04
805.241	52.32
805.416	47.88
805.591	47.3
805.765	59.87
805.94	56.22
806.115	54.54
806.29	51.13
806.464	54.93
806.639	44.93
806.814	44.33
806.989	41.8
807.163	54.87
807.338	59.07
807.512	58.46
807.687	47
807.862	59.44
808.036	57.67
808.211	56.74
808.385	65.12
808.56	73.46
808.734	66.63
808.909	63.75
809.083	52.21
809.258	57.96
809.432	57.9
809.606	43.91
809.781	40.46
809.955	53.85
810.13	49.48
810.304	45.65
810.478	50.09
810.652	57.81
810.827	53.48
811.001	44.13
811.175	46.06
811.349	45.57
811.524	41
811.698	28.93
811.872	36.01
812.046	47.32
812.22	57.87
812.394	52.84
812.568	63.36
812.742	60.05
812.916	49.29
813.09	38.96
813.264	38.13
813.438	39.57
813.612	39.84
813.786	36.11
813.96	43
814.134	44.78
814.308	52.52
814.482	55.38
814.656	54.53
814.83	62.58
815.003	68.83
815.177	61.57
815.351	57.41
815.525	61.86
815.698	48.74
815.872	36.93
816.046	19.54
816.219	32.11
816.393	38.34
816.567	46.84
816.74	53.11
816.914	64.31
817.088	57.5
817.261	45.24
817.435	35.64
817.608	32.23
817.782	27.77
817.955	27.68
818.129	31.9
818.302	36.01
818.475	54.28
818.649	52.3
818.822	46.23
818.996	61.7
819.169	67.12
819.342	46.33
819.516	63.52
819.689	66.4
819.862	52.06
820.035	42.72
820.209	41.17
820.382	33.19
820.555	29.37
820.728	25.27
820.901	29.19
821.075	31.56
821.248	42.32
821.421	29.4
821.594	29.19
821.767	54.65
821.94	64.6
822.113	30.82
822.286	41.65
822.459	45.17
822.632	9.64
822.805	-9.47
822.978	11.51
823.151	-1.11
823.324	-1.59
823.496	-20.35
823.669	-13.85
823.842	-7.97
824.015	-11.29
824.188	6.19
824.361	26.18
824.533	19.77
824.706	28.06
824.879	33.35
825.051	19.58
825.224	21.27
825.397	21.46
825.569	-0.75
825.742	19.03
825.915	27.03
826.087	40.85
826.26	32.68
826.432	26.01
826.605	30.11
826.777	23.7
826.95	16.41
827.122	-4.59
827.295	13.48
827.467	6.88
827.64	-29.3
827.812	-30.34
827.984	-1.38
828.157	-33.22
828.329	-69.4
828.501	-35.43
828.674	-5.33
828.846	-40.69
829.018	0.36
829.19	-1.05
829.363	25.13
829.535	24.13
829.707	35.26
829.879	-5.82
830.051	-10.08
830.223	-32.91
830.395	-79.54
830.568	-65.33
830.74	-58.12
830.912	-26.45
831.084	-48.32
831.256	-28.2
831.428	-43.23
831.6	-25.22
831.772	-59.96
831.943	-64.29
832.115	-25.6
832.287	-12.13
832.459	-20.74
832.631	-9.18
832.803	22.01
832.975	5.73
833.146	-2.48
833.318	1.11
833.49	17.97
833.662	-8.11
833.833	-25.25
834.005	-9.12
834.177	-4.7
834.348	-6.59
834.52	-12.7
834.692	-8.43
834.863	-51.76
835.035	-48.62
835.206	-114.98
835.378	-82.02
835.549	-84.65
835.721	-68.91
835.892	-64.91
836.064	-42.01
836.235	-40.31
836.407	-26.06
836.578	-21.41
836.749	-27.07
836.921	-64.92
837.092	-120.13
837.264	-91.32
837.435	-129.77
837.606	-78.34
837.777	-38.31
837.949	-6.81
838.12	-4.54
838.291	26.37
838.462	14.32
838.633	-10.08
838.805	-16.14
838.976	-45.54
839.147	-127.19
839.318	-112.39
839.489	-168
839.66	-150.18
839.831	-64.95
840.002	-35.88
840.173	-75.81
840.344	-14.94
840.515	-32.2
840.686	-189.2
840.857	-196.91
841.028	-113.6
841.199	-92.15
841.369	-114.5
841.54	-87.55
841.711	-36.93
841.882	-33.55
842.053	-36.74
842.223	-40.83
842.394	-32.64
842.565	-36.48
842.736	-16.99
842.906	-22.58
843.077	-0
843.248	30.05
843.418	12.79
843.589	-48.15
843.759	-16.42
843.93	-6.82
844.101	-22.94
844.271	-22.77
844.442	12.08
844.612	27.88
844.783	-13.93
844.953	-48.23
845.123	-36.2
845.294	-51.24
845.464	-292.84
845.635	-96.8
845.805	-45.67
845.975	-18.45
846.146	-50.95
846.316	-24.85
846.486	-12.63
846.656	21.98
846.827	10.91
846.997	10.28
847.167	30.91
847.337	-0.45
847.507	-38.43
847.677	-16.45
847.848	28.78
848.018	21.56
848.188	31.61
848.358	8.87
848.528	-12.57
848.698	-67.3
848.868	-187.86
849.038	-348.53
849.208	-131.45
849.378	-92.81
849.548	-54.78
849.718	-18.62
849.887	11.09
850.057	-7.73
850.227	-45.25
850.397	-71.36
850.567	-225.15
850.737	-435.65
850.906	-1443.75
851.076	-998.44
851.246	-565.45
851.415	-94.04
851.585	-96.56
851.755	-148.4
851.924	-76.36
852.094	-132.09
852.264	-258.19
852.433	-1370.19
852.603	-236.88
852.772	-187.37
852.942	-71.28
853.111	-34.25
853.281	3.86
853.45	26.58
853.62	-94.01
853.789	-120.44
853.959	-208.4
854.128	-178.01
854.297	-186.39
854.467	-165.19
854.636	-194.31
854.805	-53.43
854.975	-118.24
855.144	-244.11
855.313	-430.07
855.482	-744.53
855.652	-448.94
855.821	-272.97
855.99	-60.67
856.159	-25.81
856.328	-5.1
856.497	-37.95
856.667	-32.07
856.836	-43.1
857.005	-76.6
857.174	-102.18
857.343	-104.1
857.512	-141.27
857.681	-154.82
857.85	-187.1
858.019	-108.97
858.188	-104.08
858.356	-90.71
858.525	-159.91
858.694	-134.47
858.863	-266.81
859.032	-192.56
859.201	-263.82
859.369	-183.67
859.538	-137.87
859.707	-150.92
859.876	-202.02
860.044	-195.92
860.213	-53.26
860.382	-61.17
860.55	-26.67
860.719	14.23
860.888	18.9
861.056	-19.26
861.225	-38.22
861.393	-23.48
861.562	-82.06
861.73	-170.51
861.899	-576.44
862.067	-4520.69
862.236	-271.56
862.404	-421.9
862.572	-292.8
862.741	-113.45
862.909	-112.58
863.078	-270.21
863.246	-189.62
863.414	-170.98
863.582	-137.34
863.751	-127.94
863.919	-115.45
864.087	-73.32
864.255	-57.43
864.424	-448.21
864.592	-47.84
864.76	-87.77
864.928	-324
865.096	-267.52
865.264	-204.58
865.432	-2972.73
865.6	-322.5
865.768	-173.83
865.936	-163.86
866.104	-213.14
866.272	-334.69
866.44	-629.53
866.608	948.91
866.776	433.24
866.944	3697.67
867.112	-621.61
867.28	-271.83
867.448	-90.52
867.615	-50.49
867.783	-34.51
867.951	-45.59
868.119	-28.55
868.286	-87.64
868.454	-213.12
868.622	-163.25
868.789	-244.74
868.957	-3364.29
869.125	-2660.53
869.292	-168.8
869.46	-266.25
869.627	-22.11
869.795	-65.05
869.963	-27.1
870.13	-24.45
870.298	-7.25
870.465	-125.9
870.632	-107.3
870.8	-113.13
870.967	-189.64
871.135	-278.5
871.302	-205.51
871.469	-240.27
871.637	-326.69
871.804	-177.86
871.971	-226.48
872.139	-761.86
872.306	-137.66
872.473	-172.77
872.64	-708.15
872.807	-396.43
872.975	-125.3
873.142	-546.55
873.309	3308.11
873.476	-22.95
873.643	22.53
873.81	-66.61
873.977	-38.21
874.144	-11.05
874.311	-218.12
874.478	-243.05
874.645	-255.36
874.812	-232.65
874.979	-163.6
875.146	-188.79
875.313	-193.32
875.48	-52.96
875.647	-38.39
875.813	-98
875.98	-58.54
876.147	-90.4
876.314	-214.61
876.481	1522.31
876.647	-1867.42
876.814	760.1
876.981	-287.31
877.147	-119.28
877.314	-52.96
877.481	0.34
877.647	16.46
877.814	-9.19
877.98	-50.08
878.147	-14.66
878.314	-18.99
878.48	-102.62
878.647	-64.17
878.813	-24.24
878.979	-25.72
879.146	-45.25
879.312	-57.76
879.479	-182.89
879.645	-286.6
879.811	-505.36
879.978	-1259.54
880.144	-337.92
880.31	-145.09
880.477	-354.71
880.643	-476.41
880.809	-170.61
880.975	-187.64
881.142	-1112.73
881.308	-168.16
881.474	-46.45
881.64	-129.9
881.806	-196.98
881.972	-112.35
882.138	-169.16
882.304	-297.41
882.47	-410.61
882.636	-1450.82
882.802	-492.99
882.968	-166.77
883.134	-90.39
883.3	-47.19
883.466	10.12
883.632	43.85
883.798	5.8
883.964	-15.4
884.129	-15.43
884.295	7.15
884.461	-77.16
884.627	-108.16
884.793	-157.31
884.958	-150.34
885.124	-255.92
885.29	-392.83
885.455	-675.73
885.621	-221.5
885.787	-282.26
885.952	-174.82
886.118	-130.31
886.283	-145.7
886.449	-293.9
886.614	-270
886.78	-574.62
886.945	2360.66
887.111	-993.64
887.276	-819.89
887.442	-1500
887.607	-677.83
887.773	-414.65
887.938	-369.71
888.103	-459.75
888.269	-316.27
888.434	-569.19
888.599	-235.31
888.764	-61.52
888.93	-44.5
889.095	-57.68
889.26	-83.14
889.425	-52.64
889.59	-82.66
889.756	-90
889.921	-46.68
890.086	33.66
890.251	-9.14
890.416	-170.94
890.581	-1277.42
890.746	200.36
890.911	514.01
891.076	204.14
891.241	-573.13
891.406	-71.8
891.571	-106.64
891.736	-462.39
891.901	-886.73
892.065	1058.24
892.23	197.66
892.395	305.87
892.56	404.91
892.725	-677.34
892.889	-2070.73
893.054	-373.82
893.219	-210.42
893.384	-144.1
893.548	-195.83
893.713	-203.82
893.878	-130.37
