Data from Ofra_1a_PS_2HS17_Reflection_2.txt Node
Date: Tue Jul 20 10:52:55 EDT 2021
User: Adam
Spectrometer: FLMT01687
Trigger mode: 0
Integration Time (sec): 1.004000E0
Scans to average: 2
Electric dark correction enabled: true
Nonlinearity correction enabled: false
Boxcar width: 2
XAxis mode: Wavelengths
Number of Pixels in Spectrum: 3648
>>>>>Begin Spectral Data<<<<<
179.494	-213.71
179.716	-376.34
179.937	583.61
180.158	-553.5
180.38	95.87
180.601	44.96
180.823	-88.88
181.044	-172.73
181.265	-162.05
181.486	184.48
181.708	107.57
181.929	-3009.09
182.15	-70.1
182.372	108.87
182.593	402.51
182.814	-171.99
183.035	3.12
183.257	26.51
183.478	-9.1
183.699	-18.35
183.92	-60.4
184.141	-87.4
184.363	-89.65
184.584	-106.09
184.805	-51.04
185.026	7.4
185.247	-17.8
185.468	-13.62
185.689	-16.81
185.91	-31.81
186.132	-46.59
186.353	-11.02
186.574	-23.34
186.795	-17.94
187.016	-1.19
187.237	4.12
187.458	6.04
187.679	-8.67
187.9	34.22
188.121	50.52
188.342	67.1
188.563	68.13
188.784	89.42
189.005	69.96
189.226	57.7
189.447	39.26
189.667	25.77
189.888	11.75
190.109	6.12
190.33	10.49
190.551	-0.1
190.772	15.69
190.993	0.8
191.214	-14.02
191.434	-55.8
191.655	-55.01
191.876	-18.97
192.097	3.12
192.318	22.9
192.538	-17.26
192.759	-19.86
192.98	-3.92
193.201	-11.99
193.421	-26.02
193.642	7.89
193.863	16.83
194.083	-5.87
194.304	0.16
194.525	3.18
194.745	-14.48
194.966	-5.88
195.187	-12.79
195.407	-18.08
195.628	1.18
195.848	12.71
196.069	-27.72
196.29	-7
196.51	-18.3
196.731	-26.09
196.951	-41.43
197.172	5.07
197.392	-2.68
197.613	28.6
197.833	16.23
198.054	8.77
198.274	0.56
198.495	-0.31
198.715	-15.72
198.936	14.96
199.156	18.89
199.377	18.21
199.597	32.91
199.817	39.13
200.038	13.59
200.258	29.66
200.479	34.45
200.699	17.66
200.919	5.18
201.14	13.89
201.36	-0.8
201.58	-30.51
201.801	-48.39
202.021	-52.68
202.241	-58.58
202.461	-41.15
202.682	-0.37
202.902	18.57
203.122	24.05
203.342	29.67
203.563	4.98
203.783	-8.84
204.003	-22.94
204.223	-9.88
204.443	-10.15
204.663	-6.92
204.884	7.17
205.104	6.4
205.324	6.63
205.544	-8.97
205.764	11.38
205.984	9.66
206.204	31.32
206.424	22.01
206.644	24.88
206.864	0.91
207.084	-2.45
207.304	-46.75
207.525	-53.02
207.745	-42.93
207.964	-23.96
208.184	-34.77
208.404	2.17
208.624	12.33
208.844	-5.27
209.064	-1.99
209.284	-12.39
209.504	-42.81
209.724	-56.31
209.944	-56.72
210.164	-43.52
210.384	-56.22
210.604	-66.94
210.823	-43.56
211.043	0.85
211.263	-75.55
211.483	-52.82
211.703	-39.23
211.922	-58.79
212.142	-57.95
212.362	-2.06
212.582	12.55
212.801	7.93
213.021	14.17
213.241	0.94
213.461	-16.68
213.68	-11.7
213.9	1.79
214.12	-0.63
214.339	0.89
214.559	4.66
214.779	9.55
214.998	11.89
215.218	22.3
215.438	21.22
215.657	3.36
215.877	-11.61
216.096	2.45
216.316	-4.99
216.535	-9.9
216.755	6.03
216.974	15.06
217.194	-5.09
217.413	-2.04
217.633	0.78
217.852	-8.46
218.072	2.24
218.291	-1.15
218.511	-8.92
218.73	-12.69
218.95	-19.54
219.169	-37.13
219.389	-11.1
219.608	-10.05
219.827	8.91
220.047	19.54
220.266	13.18
220.485	-1.35
220.705	1.98
220.924	-46.74
221.143	-7.81
221.363	2.53
221.582	-9
221.801	-5.01
222.021	15.58
222.24	-5.2
222.459	31.99
222.678	32.48
222.897	37.34
223.117	52.36
223.336	70.22
223.555	51.54
223.774	57.35
223.993	77.36
224.213	59.24
224.432	37.63
224.651	18.26
224.87	30.91
225.089	14.94
225.308	17.79
225.527	18.91
225.746	28.72
225.965	14.43
226.184	1.81
226.404	-13.38
226.623	0.29
226.842	1.89
227.061	-1.48
227.28	17.67
227.499	22.12
227.718	10.87
227.936	12.04
228.155	16.91
228.374	11.31
228.593	21.82
228.812	12.25
229.031	28.9
229.25	14.52
229.469	19.22
229.688	10.2
229.907	34.05
230.125	23.63
230.344	32.15
230.563	29.79
230.782	36.75
231.001	35.38
231.22	42.59
231.438	49.4
231.657	50.51
231.876	30.26
232.095	29.68
232.313	6.18
232.532	-1.59
232.751	-11.81
232.969	-11
233.188	-32.44
233.407	-9.78
233.625	-16.88
233.844	-19.4
234.063	-4.78
234.281	15.84
234.5	5.47
234.719	18.85
234.937	-4.85
235.156	-13.97
235.374	-31.15
235.593	-6.9
235.811	-1.09
236.03	29.22
236.249	31.98
236.467	34.95
236.686	25.71
236.904	28.25
237.123	19.8
237.341	21.65
237.559	23.67
237.778	44.85
237.996	20.86
238.215	12.26
238.433	-2.08
238.652	32.21
238.87	1.59
239.088	31.1
239.307	27.59
239.525	21.89
239.743	2.91
239.962	-12.56
240.18	-2.73
240.398	-13.97
240.617	-0.33
240.835	-7.88
241.053	3.82
241.271	7.94
241.49	21.97
241.708	-1.58
241.926	17.08
242.144	57.24
242.363	37.69
242.581	10.08
242.799	-1.04
243.017	-23.43
243.235	-43.23
243.453	-63.27
243.672	-36.83
243.89	-12.7
244.108	15.6
244.326	39.1
244.544	45.38
244.762	36.02
244.98	46.61
245.198	32.35
245.416	14.51
245.634	18.01
245.852	10.12
246.07	20.84
246.288	22.63
246.506	18.4
246.724	2.33
246.942	10.77
247.16	-13.57
247.378	-38.76
247.596	-1.25
247.814	10.17
248.032	9.99
248.25	23.42
248.468	23.98
248.685	10.04
248.903	8.16
249.121	4.11
249.339	-6.32
249.557	-25.4
249.775	-13.98
249.992	-18.47
250.21	-8.9
250.428	12.29
250.646	23.77
250.863	8.97
251.081	20.53
251.299	22.3
251.517	10.82
251.734	12.32
251.952	23.18
252.17	25.71
252.387	18.4
252.605	17.09
252.823	21.76
253.04	46.63
253.258	27.92
253.475	31.3
253.693	13.61
253.911	7.19
254.128	-15.61
254.346	-0.61
254.563	5.3
254.781	16.56
254.998	12.41
255.216	-10.78
255.433	-45.27
255.651	-44.46
255.868	-41.21
256.086	-20
256.303	5.91
256.521	18.75
256.738	22.28
256.956	11.09
257.173	-4.9
257.39	-1.82
257.608	8.53
257.825	7.1
258.043	28.61
258.26	30.67
258.477	23.76
258.695	3.92
258.912	-8.28
259.129	-17.2
259.346	-2.66
259.564	9.28
259.781	24.87
259.998	38.14
260.216	30.24
260.433	11.97
260.65	7.28
260.867	16.04
261.084	13.95
261.302	11.04
261.519	26.13
261.736	18.39
261.953	7.37
262.17	9.95
262.387	1.26
262.604	-3.72
262.822	12.87
263.039	21.2
263.256	18.5
263.473	31.04
263.69	39.68
263.907	37.19
264.124	39.7
264.341	46.53
264.558	26.21
264.775	18.56
264.992	20.31
265.209	9.1
265.426	-15.26
265.643	-8.54
265.86	-5.07
266.077	-11.17
266.294	12.02
266.51	31.26
266.727	44.27
266.944	33.46
267.161	44.63
267.378	55.64
267.595	54.39
267.812	46.24
268.028	55.53
268.245	53.46
268.462	20.35
268.679	19.91
268.896	26.2
269.112	22.86
269.329	-17.49
269.546	11.46
269.763	24.33
269.979	15.04
270.196	15.82
270.413	35.76
270.629	18.53
270.846	11.03
271.063	34.62
271.279	34.8
271.496	29.97
271.712	38.7
271.929	47.16
272.146	34.31
272.362	30.5
272.579	25.01
272.795	21.97
273.012	6.28
273.228	25.87
273.445	23.45
273.661	14.31
273.878	-5.59
274.094	2.16
274.311	-24.68
274.527	-23.29
274.744	5.66
274.96	7.74
275.177	-1.07
275.393	15.79
275.609	13.51
275.826	1.97
276.042	-6.3
276.259	-9.87
276.475	-22.31
276.691	-26.27
276.908	-11.59
277.124	2.51
277.34	15.67
277.557	10.69
277.773	20.97
277.989	10.24
278.205	12.42
278.422	1.43
278.638	10.86
278.854	5.47
279.07	16.25
279.286	4.05
279.503	12.09
279.719	13.24
279.935	2.6
280.151	-11.81
280.367	7.01
280.583	-5.45
280.799	-16.73
281.016	-27.39
281.232	-10.94
281.448	-21.35
281.664	-4.88
281.88	16.51
282.096	25.97
282.312	23.64
282.528	18.41
282.744	17.97
282.96	-19.58
283.176	-45.08
283.392	-67.7
283.608	-45.15
283.824	-62.75
284.04	-38.7
284.256	-18.89
284.471	-9.36
284.687	-17.11
284.903	-11.36
285.119	4.26
285.335	6.66
285.551	5.27
285.767	2.16
285.982	2.47
286.198	-44.05
286.414	-57.5
286.63	-74.07
286.846	-52.33
287.061	-47.95
287.277	-18.44
287.493	-10.96
287.709	-3.12
287.924	-0.71
288.14	10.88
288.356	33.47
288.571	37.27
288.787	26.54
289.003	41.72
289.218	32.97
289.434	9.61
289.65	24.73
289.865	28.24
290.081	22.71
290.296	32.5
290.512	18.71
290.727	0.21
290.943	4.46
291.159	-2.95
291.374	-38.6
291.59	-23.78
291.805	-36.74
292.021	-35.23
292.236	-38.22
292.451	-13.71
292.667	1.69
292.882	18.51
293.098	8.6
293.313	0.89
293.529	5.87
293.744	-17.73
293.959	-21.49
294.175	-14.75
294.39	-11.85
294.605	8.89
294.821	22.48
295.036	32.76
295.251	30.52
295.467	28.47
295.682	26.97
295.897	17.95
296.112	7.86
296.328	15.39
296.543	14.36
296.758	-4.86
296.973	0.93
297.188	-21.21
297.404	-59.65
297.619	-71.5
297.834	-76.68
298.049	-76.89
298.264	-46.4
298.479	-36.59
298.694	1.73
298.909	5.96
299.125	6.23
299.34	10.1
299.555	22.58
299.77	34.91
299.985	43.12
300.2	45.12
300.415	44.65
300.63	48.24
300.845	38.28
301.06	20.43
301.275	27.43
301.49	33.26
301.704	17.58
301.919	12.77
302.134	23.34
302.349	17.45
302.564	10.38
302.779	14.75
302.994	20.7
303.209	15.39
303.423	12.49
303.638	13.47
303.853	0.52
304.068	-0.55
304.283	12.15
304.497	3.14
304.712	17.51
304.927	13.97
305.142	20.9
305.356	12.02
305.571	15.86
305.786	14.63
306	26.24
306.215	6.17
306.43	6.48
306.644	0.29
306.859	-9.17
307.074	-9.39
307.288	6.89
307.503	12.96
307.717	2.83
307.932	12.66
308.147	-1
308.361	2.19
308.576	-9.12
308.79	3.17
309.005	-33.81
309.219	-1.9
309.434	-10.53
309.648	-3.08
309.863	1.07
310.077	12.33
310.292	13.17
310.506	5.88
310.72	-0.48
310.935	15.58
311.149	21.85
311.364	15.8
311.578	23.52
311.792	34.11
312.007	12.46
312.221	9.63
312.435	2.42
312.649	2.49
312.864	8.07
313.078	4.4
313.292	-0.06
313.507	13.96
313.721	12.75
313.935	4.93
314.149	18.9
314.363	29.99
314.578	4.63
314.792	-31.78
315.006	-45.01
315.22	-33.09
315.434	-15.08
315.648	-18.6
315.862	5.86
316.077	1.08
316.291	0.45
316.505	-33.56
316.719	-20.55
316.933	-31.36
317.147	-16.48
317.361	-12.77
317.575	0.73
317.789	7.23
318.003	20.99
318.217	27.29
318.431	12.32
318.645	11.96
318.859	17.1
319.073	13.37
319.287	4.59
319.5	11.98
319.714	5.6
319.928	-6.15
320.142	1.4
320.356	20.11
320.57	7.83
320.784	11.43
320.997	3.71
321.211	2.37
321.425	-29.62
321.639	4.22
321.853	11.95
322.066	27.33
322.28	21.69
322.494	31.49
322.707	22.65
322.921	17.96
323.135	14.75
323.349	4.49
323.562	4.66
323.776	-1.17
323.989	6.12
324.203	-5.87
324.417	1.05
324.63	-13.96
324.844	-17.48
325.057	-41.61
325.271	-17.92
325.485	-30.72
325.698	-6.71
325.912	15.71
326.125	21.03
326.339	20.92
326.552	18.81
326.766	10.96
326.979	-2.65
327.193	-1.71
327.406	-1.21
327.619	19.04
327.833	15.8
328.046	9.82
328.26	4.58
328.473	3.21
328.686	-6
328.9	6.59
329.113	6.72
329.326	19.21
329.54	34.58
329.753	34.15
329.966	24.07
330.179	24.11
330.393	15.37
330.606	3.86
330.819	7.25
331.032	22.26
331.246	26.77
331.459	39.27
331.672	26.36
331.885	13.16
332.098	0.3
332.311	-8.12
332.525	-8.89
332.738	3.46
332.951	-2.06
333.164	9.45
333.377	8.35
333.59	8.7
333.803	0.1
334.016	7.85
334.229	4.76
334.442	3.83
334.655	-4.73
334.868	-9.81
335.081	-12.63
335.294	-36.42
335.507	-24.86
335.72	-19.79
335.933	-12.48
336.146	-10.41
336.359	12.27
336.572	8.12
336.785	8.56
336.997	-13.82
337.21	-19.74
337.423	-34.82
337.636	-26.09
337.849	-20.57
338.062	-4.87
338.274	29.67
338.487	9.75
338.7	-1.53
338.913	5.58
339.125	-0.65
339.338	-27.9
339.551	-21.21
339.763	-11.89
339.976	-17.8
340.189	-13.6
340.402	17.66
340.614	38.56
340.827	45.01
341.039	56.15
341.252	62.24
341.465	19.56
341.677	10.82
341.89	-11.56
342.102	-21.47
342.315	-17.75
342.527	2.31
342.74	-12.57
342.952	-3.37
343.165	1.75
343.377	8.12
343.59	7.65
343.802	10.29
344.015	18.63
344.227	23.68
344.44	11.77
344.652	9.23
344.864	22.24
345.077	30.73
345.289	28.55
345.502	40.96
345.714	36.62
345.926	31.05
346.139	0.49
346.351	15.55
346.563	1.23
346.775	-8.67
346.988	-10.11
347.2	5.74
347.412	-8.24
347.624	-7.34
347.837	0.35
348.049	3.55
348.261	0.62
348.473	-6.36
348.685	-1.71
348.897	-2.43
349.11	-0.07
349.322	-3.01
349.534	-8.82
349.746	-6.89
349.958	-22.84
350.17	-43.41
350.382	-51.38
350.594	-30.97
350.806	-14.33
351.018	-7.26
351.23	8.97
351.442	18.28
351.654	19.06
351.866	-8.69
352.078	7.83
352.29	3.12
352.502	3.05
352.714	4.85
352.926	25.66
353.138	21.5
353.35	4.82
353.561	7.44
353.773	-0.52
353.985	11.87
354.197	17.16
354.409	21.11
354.621	10.79
354.832	11.92
355.044	-29.15
355.256	-47.23
355.468	-51.11
355.679	-15.73
355.891	-17.35
356.103	-3.13
356.314	-13.32
356.526	-24.69
356.738	-37.08
356.949	-26.27
357.161	-17.15
357.373	-0.99
357.584	13.96
357.796	15.63
358.008	11.18
358.219	10.09
358.431	9.4
358.642	14.32
358.854	19.79
359.065	15.12
359.277	19.22
359.488	15.72
359.7	8.17
359.911	-5.07
360.123	18.51
360.334	4.8
360.546	-4.55
360.757	-4.61
360.969	-2.64
361.18	-14.82
361.391	-2.4
361.603	6.95
361.814	13.34
362.025	23.1
362.237	12.24
362.448	22.86
362.659	19.68
362.871	9.25
363.082	-0.99
363.293	14.36
363.504	-34.51
363.716	-42.97
363.927	-13.12
364.138	-22.03
364.349	-43.04
364.56	-40.19
364.772	-22.35
364.983	-19.77
365.194	-5.32
365.405	0.72
365.616	24.33
365.827	20.87
366.038	15.49
366.25	10.29
366.461	19.72
366.672	12.33
366.883	7.41
367.094	12.4
367.305	-3.02
367.516	-13.98
367.727	-18.32
367.938	-17.46
368.149	-31.43
368.36	-20.36
368.571	-25.26
368.781	-34.38
368.992	-26.9
369.203	-28.18
369.414	-33.29
369.625	-30.79
369.836	-5.54
370.047	-9.07
370.258	-1.39
370.468	-2.82
370.679	3.42
370.89	-8.17
371.101	4.84
371.312	3.31
371.522	8.43
371.733	2.59
371.944	-13.66
372.155	-12.88
372.365	-3.72
372.576	10.5
372.787	17.03
372.997	21.17
373.208	11.69
373.419	11.52
373.629	-3.63
373.84	-7.65
374.05	-1.17
374.261	-3.62
374.472	-3.41
374.682	13.27
374.893	14.13
375.103	19.81
375.314	28.23
375.524	19.21
375.735	14.23
375.945	17.17
376.156	12.48
376.366	16.51
376.577	25.95
376.787	13.83
376.997	12.8
377.208	12.09
377.418	6.3
377.629	8.77
377.839	20.4
378.049	16.36
378.26	16.09
378.47	9.95
378.68	-2.72
378.89	-3.8
379.101	10.18
379.311	10.83
379.521	6.41
379.732	23.45
379.942	17.17
380.152	-5.94
380.362	-2.6
380.572	6.63
380.783	8.23
380.993	3.54
381.203	10.45
381.413	15.85
381.623	19.73
381.833	13.7
382.043	16.54
382.253	24.2
382.463	20.82
382.674	21.05
382.884	17.66
383.094	26.12
383.304	25.08
383.514	19.59
383.724	11.56
383.934	3.76
384.144	4.59
384.353	3.61
384.563	3.02
384.773	10.83
384.983	10.25
385.193	2.04
385.403	3.58
385.613	3.59
385.823	1
386.033	1.46
386.242	-1.35
386.452	-5.61
386.662	-1.17
386.872	-1.34
387.082	-1.88
387.291	-2.97
387.501	-0.74
387.711	-5.77
387.921	-4.13
388.13	-1.05
388.34	-2.39
388.55	-7.67
388.759	-8.84
388.969	-12.03
389.179	-9.75
389.388	-8.22
389.598	-6.08
389.807	-5.77
390.017	-4.9
390.227	-6.14
390.436	-2.62
390.646	1.97
390.855	3.87
391.065	2.9
391.274	1.39
391.484	0.62
391.693	-3.49
391.903	-2.96
392.112	-2.83
392.322	-3.29
392.531	-3.64
392.74	-4.3
392.95	-5.54
393.159	-4.44
393.369	-2.97
393.578	-2.4
393.787	-1.09
393.997	1.18
394.206	0.85
394.415	0.09
394.625	-0.63
394.834	-1.51
395.043	-2.28
395.252	0.12
395.462	2.09
395.671	3.06
395.88	4.12
396.089	3.82
396.298	2.24
396.508	1.96
396.717	1.25
396.926	1.39
397.135	1.91
397.344	1.77
397.553	1.42
397.762	2.73
397.971	2.12
398.181	2.1
398.39	2.29
398.599	2.67
398.808	2.3
399.017	3.62
399.226	3.78
399.435	3.92
399.644	4.02
399.853	3.86
400.062	3.33
400.27	3.15
400.479	3.03
400.688	2.85
400.897	2.91
401.106	2.88
401.315	2.97
401.524	3.33
401.733	2.98
401.941	3.2
402.15	3.32
402.359	3.31
402.568	3.2
402.777	3.61
402.985	3.19
403.194	3.24
403.403	3.14
403.612	2.97
403.82	2.64
404.029	2.94
404.238	2.67
404.446	3.07
404.655	3.34
404.864	3.47
405.072	3.52
405.281	3.7
405.489	3.42
405.698	3.4
405.906	3.45
406.115	3.26
406.324	3.29
406.532	3.29
406.741	3.17
406.949	3.34
407.158	3.46
407.366	3.24
407.574	3.21
407.783	3.28
407.991	3.12
408.2	3.28
408.408	3.53
408.617	3.55
408.825	3.37
409.033	3.38
409.242	3.2
409.45	3
409.658	2.93
409.867	2.99
410.075	3.01
410.283	2.92
410.491	2.91
410.7	2.83
410.908	2.92
411.116	3.02
411.324	3.1
411.533	3.01
411.741	3.16
411.949	3.09
412.157	2.97
412.365	3
412.573	3.14
412.781	3.07
412.99	3.12
413.198	3.11
413.406	3.2
413.614	3.18
413.822	3.41
414.03	3.41
414.238	3.44
414.446	3.27
414.654	3.15
414.862	2.8
415.07	2.75
415.278	2.75
415.486	2.68
415.694	2.72
415.902	2.82
416.109	2.76
416.317	2.72
416.525	2.78
416.733	2.88
416.941	2.9
417.149	2.85
417.357	2.83
417.564	2.77
417.772	2.74
417.98	2.69
418.188	2.68
418.395	2.44
418.603	2.41
418.811	2.36
419.019	2.36
419.226	2.35
419.434	2.5
419.642	2.4
419.849	2.37
420.057	2.35
420.265	2.47
420.472	2.46
420.68	2.57
420.887	2.55
421.095	2.63
421.302	2.59
421.51	2.64
421.717	2.72
421.925	2.76
422.132	2.75
422.34	2.56
422.547	2.55
422.755	2.55
422.962	2.66
423.17	2.42
423.377	2.36
423.585	2.39
423.792	2.3
423.999	2.13
424.207	2.16
424.414	2.29
424.621	2.27
424.829	2.37
425.036	2.45
425.243	2.61
425.451	2.75
425.658	2.77
425.865	2.86
426.072	2.82
426.28	2.92
426.487	2.78
426.694	2.62
426.901	2.49
427.108	2.53
427.315	2.45
427.523	2.43
427.73	2.6
427.937	2.45
428.144	2.46
428.351	2.45
428.558	2.56
428.765	2.38
428.972	2.49
429.179	2.4
429.386	2.36
429.593	2.23
429.8	2.41
430.007	2.4
430.214	2.53
430.421	2.59
430.628	2.62
430.835	2.59
431.042	2.58
431.249	2.61
431.456	2.57
431.662	2.65
431.869	2.75
432.076	2.78
432.283	2.81
432.49	2.86
432.697	2.79
432.903	2.67
433.11	2.72
433.317	2.66
433.524	2.64
433.73	2.58
433.937	2.72
434.144	2.58
434.35	2.46
434.557	2.44
434.764	2.39
434.97	2.22
435.177	2.39
435.384	2.46
435.59	2.43
435.797	2.49
436.003	2.65
436.21	2.49
436.416	2.39
436.623	2.47
436.829	2.51
437.036	2.42
437.242	2.53
437.449	2.55
437.655	2.65
437.862	2.73
438.068	2.72
438.275	2.8
438.481	2.84
438.687	2.72
438.894	2.75
439.1	2.69
439.307	2.67
439.513	2.73
439.719	2.74
439.926	2.66
440.132	2.73
440.338	2.74
440.544	2.71
440.751	2.67
440.957	2.81
441.163	2.72
441.369	2.65
441.575	2.55
441.782	2.66
441.988	2.62
442.194	2.68
442.4	2.67
442.606	2.89
442.812	2.82
443.018	2.86
443.224	2.99
443.431	3
443.637	2.79
443.843	2.84
444.049	2.81
444.255	2.72
444.461	2.67
444.667	2.77
444.873	2.78
445.079	2.67
445.284	2.69
445.49	2.74
445.696	2.72
445.902	2.68
446.108	2.77
446.314	2.77
446.52	2.86
446.726	2.95
446.931	2.91
447.137	2.91
447.343	2.92
447.549	2.9
447.755	2.84
447.96	2.97
448.166	2.99
448.372	2.92
448.578	2.83
448.783	2.81
448.989	2.8
449.195	2.79
449.4	2.89
449.606	2.87
449.812	2.83
450.017	2.79
450.223	2.74
450.428	2.67
450.634	2.72
450.84	2.76
451.045	2.8
451.251	2.89
451.456	2.91
451.662	2.97
451.867	2.96
452.073	2.89
452.278	2.81
452.483	2.72
452.689	2.67
452.894	2.76
453.1	2.78
453.305	2.81
453.51	2.95
453.716	2.92
453.921	2.92
454.127	2.84
454.332	2.8
454.537	2.69
454.742	2.73
454.948	2.69
455.153	2.81
455.358	2.82
455.563	2.97
455.769	3.02
455.974	2.92
456.179	2.84
456.384	2.8
456.589	2.68
456.795	2.63
457	2.69
457.205	2.61
457.41	2.61
457.615	2.61
457.82	2.67
458.025	2.67
458.23	2.85
458.435	2.94
458.64	2.96
458.845	2.94
459.05	3.03
459.255	2.92
459.46	2.91
459.665	2.9
459.87	2.86
460.075	2.84
460.28	2.91
460.485	2.96
460.69	2.96
460.895	3.05
461.099	2.93
461.304	2.84
461.509	2.81
461.714	2.88
461.919	2.85
462.123	2.88
462.328	2.81
462.533	2.68
462.738	2.57
462.942	2.42
463.147	2.5
463.352	2.62
463.556	2.75
463.761	2.8
463.966	2.86
464.17	2.87
464.375	2.92
464.58	2.85
464.784	2.88
464.989	2.91
465.193	2.82
465.398	2.76
465.602	2.94
465.807	2.94
466.011	2.97
466.216	2.95
466.42	3
466.625	2.98
466.829	2.96
467.034	3.04
467.238	3.17
467.443	3.2
467.647	3.13
467.851	3.2
468.056	3.17
468.26	3.14
468.464	3.11
468.669	3.12
468.873	3
469.077	2.95
469.282	2.93
469.486	2.86
469.69	2.87
469.894	2.97
470.099	3.02
470.303	3.01
470.507	3.12
470.711	3.11
470.915	3.12
471.119	3.16
471.324	3.19
471.528	3.18
471.732	3.2
471.936	3.22
472.14	3.15
472.344	3.23
472.548	3.21
472.752	3.15
472.956	3.19
473.16	3.19
473.364	3.12
473.568	3.13
473.772	3.17
473.976	3.2
474.18	3.28
474.384	3.23
474.588	3.28
474.792	3.31
474.995	3.27
475.199	3.24
475.403	3.32
475.607	3.34
475.811	3.39
476.015	3.31
476.218	3.26
476.422	3.25
476.626	3.21
476.83	3.22
477.033	3.29
477.237	3.33
477.441	3.3
477.644	3.27
477.848	3.27
478.052	3.31
478.255	3.37
478.459	3.37
478.663	3.5
478.866	3.53
479.07	3.46
479.273	3.48
479.477	3.52
479.681	3.52
479.884	3.47
480.088	3.51
480.291	3.47
480.495	3.51
480.698	3.48
480.901	3.42
481.105	3.51
481.308	3.54
481.512	3.54
481.715	3.61
481.919	3.75
482.122	3.74
482.325	3.77
482.529	3.83
482.732	3.78
482.935	3.74
483.138	3.71
483.342	3.69
483.545	3.73
483.748	3.72
483.952	3.75
484.155	3.78
484.358	3.81
484.561	3.71
484.764	3.71
484.967	3.65
485.171	3.72
485.374	3.67
485.577	3.7
485.78	3.7
485.983	3.68
486.186	3.62
486.389	3.64
486.592	3.58
486.795	3.64
486.998	3.62
487.201	3.63
487.404	3.74
487.607	3.8
487.81	3.67
488.013	3.81
488.216	3.79
488.419	3.74
488.622	3.73
488.825	3.89
489.028	3.85
489.231	3.84
489.433	3.82
489.636	3.81
489.839	3.74
490.042	3.73
490.245	3.71
490.447	3.73
490.65	3.79
490.853	3.81
491.056	3.77
491.258	3.78
491.461	3.74
491.664	3.76
491.866	3.72
492.069	3.82
492.272	3.76
492.474	3.76
492.677	3.69
492.879	3.74
493.082	3.67
493.285	3.78
493.487	3.82
493.69	3.86
493.892	3.8
494.095	3.83
494.297	3.86
494.5	3.84
494.702	3.87
494.905	3.93
495.107	3.99
495.309	3.99
495.512	4.02
495.714	4.05
495.917	4.1
496.119	4.06
496.321	4.06
496.524	3.98
496.726	3.94
496.928	3.89
497.13	3.86
497.333	3.88
497.535	3.98
497.737	3.98
497.939	3.99
498.142	4.02
498.344	3.97
498.546	3.93
498.748	4.04
498.95	4.08
499.152	4.08
499.355	4.14
499.557	4.21
499.759	4.28
499.961	4.33
500.163	4.38
500.365	4.41
500.567	4.38
500.769	4.32
500.971	4.29
501.173	4.25
501.375	4.34
501.577	4.37
501.779	4.32
501.981	4.34
502.183	4.4
502.385	4.3
502.587	4.27
502.788	4.38
502.99	4.39
503.192	4.41
503.394	4.41
503.596	4.39
503.798	4.3
503.999	4.32
504.201	4.3
504.403	4.36
504.605	4.46
504.806	4.57
505.008	4.64
505.21	4.64
505.411	4.67
505.613	4.64
505.815	4.66
506.016	4.68
506.218	4.76
506.42	4.77
506.621	4.84
506.823	4.84
507.024	4.78
507.226	4.83
507.427	4.86
507.629	4.84
507.83	4.85
508.032	4.89
508.233	4.9
508.435	4.91
508.636	4.96
508.838	4.98
509.039	5.01
509.24	5.02
509.442	5.02
509.643	5.01
509.845	5.02
510.046	5.04
510.247	5.05
510.448	5.08
510.65	5.11
510.851	5.08
511.052	5.08
511.254	5.13
511.455	5.12
511.656	5.04
511.857	5.1
512.058	5.15
512.26	5.1
512.461	5.15
512.662	5.24
512.863	5.19
513.064	5.2
513.265	5.26
513.466	5.33
513.667	5.36
513.868	5.44
514.069	5.42
514.27	5.44
514.471	5.38
514.672	5.43
514.873	5.49
515.074	5.53
515.275	5.48
515.476	5.53
515.677	5.53
515.878	5.51
516.079	5.51
516.28	5.57
516.481	5.54
516.682	5.51
516.882	5.52
517.083	5.5
517.284	5.53
517.485	5.52
517.686	5.58
517.886	5.53
518.087	5.55
518.288	5.54
518.488	5.53
518.689	5.52
518.89	5.58
519.091	5.6
519.291	5.59
519.492	5.65
519.692	5.64
519.893	5.69
520.094	5.68
520.294	5.69
520.495	5.65
520.695	5.64
520.896	5.59
521.096	5.66
521.297	5.69
521.497	5.73
521.698	5.76
521.898	5.76
522.099	5.78
522.299	5.78
522.499	5.82
522.7	5.91
522.9	5.97
523.101	5.94
523.301	5.93
523.501	5.94
523.702	5.92
523.902	5.89
524.102	5.97
524.302	6
524.503	5.99
524.703	5.99
524.903	6.01
525.103	5.93
525.304	5.98
525.504	6.06
525.704	6.06
525.904	6.04
526.104	6.12
526.304	6.13
526.504	6.11
526.705	6.13
526.905	6.13
527.105	6.13
527.305	6.13
527.505	6.07
527.705	6.05
527.905	6.15
528.105	6.15
528.305	6.14
528.505	6.22
528.705	6.28
528.905	6.27
529.105	6.29
529.304	6.32
529.504	6.33
529.704	6.34
529.904	6.33
530.104	6.32
530.304	6.36
530.503	6.41
530.703	6.39
530.903	6.41
531.103	6.5
531.303	6.5
531.502	6.55
531.702	6.61
531.902	6.63
532.101	6.58
532.301	6.56
532.501	6.65
532.7	6.64
532.9	6.7
533.1	6.73
533.299	6.7
533.499	6.58
533.698	6.58
533.898	6.55
534.097	6.6
534.297	6.66
534.496	6.66
534.696	6.75
534.895	6.82
535.095	6.83
535.294	6.9
535.494	6.93
535.693	6.96
535.892	6.99
536.092	6.99
536.291	7.02
536.491	7.11
536.69	7.08
536.889	7.1
537.088	7.08
537.288	7.07
537.487	7.07
537.686	7.08
537.886	7.09
538.085	7.13
538.284	7.17
538.483	7.17
538.682	7.17
538.882	7.17
539.081	7.2
539.28	7.21
539.479	7.25
539.678	7.33
539.877	7.38
540.076	7.45
540.275	7.44
540.474	7.38
540.673	7.45
540.872	7.44
541.071	7.47
541.27	7.57
541.469	7.67
541.668	7.65
541.867	7.72
542.066	7.78
542.265	7.82
542.464	7.83
542.663	7.88
542.862	7.94
543.06	7.97
543.259	8.03
543.458	8.13
543.657	8.18
543.856	8.19
544.054	8.16
544.253	8.17
544.452	8.18
544.651	8.2
544.849	8.25
545.048	8.35
545.247	8.39
545.445	8.42
545.644	8.48
545.843	8.48
546.041	8.44
546.24	8.45
546.438	8.48
546.637	8.48
546.836	8.59
547.034	8.66
547.233	8.72
547.431	8.72
547.63	8.78
547.828	8.73
548.027	8.73
548.225	8.73
548.423	8.81
548.622	8.81
548.82	8.89
549.019	8.99
549.217	9.1
549.415	9.13
549.614	9.33
549.812	9.36
550.01	9.41
550.209	9.46
550.407	9.55
550.605	9.45
550.803	9.59
551.002	9.69
551.2	9.69
551.398	9.81
551.596	9.93
551.794	9.98
551.993	10
552.191	10.12
552.389	10.13
552.587	10.15
552.785	10.18
552.983	10.25
553.181	10.25
553.379	10.33
553.577	10.43
553.775	10.5
553.973	10.61
554.171	10.71
554.369	10.79
554.567	10.93
554.765	10.95
554.963	10.93
555.161	11.01
555.359	11.07
555.557	11.07
555.755	11.2
555.952	11.32
556.15	11.45
556.348	11.51
556.546	11.65
556.744	11.69
556.941	11.77
557.139	11.83
557.337	11.97
557.535	11.98
557.732	12.04
557.93	12.16
558.128	12.29
558.325	12.34
558.523	12.46
558.721	12.58
558.918	12.66
559.116	12.68
559.313	12.78
559.511	12.88
559.708	12.96
559.906	13.02
560.104	13
560.301	13.09
560.498	13.16
560.696	13.29
560.893	13.43
561.091	13.56
561.288	13.67
561.486	13.75
561.683	13.83
561.88	13.94
562.078	14.11
562.275	14.14
562.473	14.17
562.67	14.23
562.867	14.26
563.064	14.27
563.262	14.35
563.459	14.54
563.656	14.72
563.853	14.7
564.051	14.82
564.248	14.97
564.445	15.05
564.642	15.03
564.839	15.24
565.036	15.34
565.234	15.39
565.431	15.46
565.628	15.58
565.825	15.62
566.022	15.69
566.219	15.69
566.416	15.75
566.613	15.82
566.81	15.9
567.007	15.93
567.204	16.07
567.401	16.14
567.598	16.24
567.795	16.26
567.991	16.39
568.188	16.46
568.385	16.41
568.582	16.49
568.779	16.6
568.976	16.63
569.172	16.64
569.369	16.73
569.566	16.78
569.763	16.8
569.96	16.87
570.156	16.98
570.353	17.11
570.55	17.15
570.746	17.25
570.943	17.34
571.14	17.3
571.336	17.27
571.533	17.27
571.729	17.3
571.926	17.31
572.123	17.48
572.319	17.5
572.516	17.57
572.712	17.59
572.909	17.57
573.105	17.53
573.302	17.57
573.498	17.6
573.695	17.57
573.891	17.59
574.087	17.55
574.284	17.6
574.48	17.58
574.677	17.64
574.873	17.68
575.069	17.81
575.266	17.81
575.462	17.84
575.658	17.85
575.854	17.9
576.051	17.9
576.247	17.92
576.443	17.91
576.639	17.87
576.835	17.78
577.032	17.66
577.228	17.73
577.424	17.74
577.62	17.75
577.816	17.75
578.012	17.85
578.208	17.74
578.404	17.74
578.6	17.77
578.796	17.8
578.993	17.79
579.189	17.78
579.384	17.75
579.58	17.74
579.776	17.75
579.972	17.72
580.168	17.77
580.364	17.76
580.56	17.69
580.756	17.65
580.952	17.6
581.148	17.59
581.343	17.56
581.539	17.61
581.735	17.65
581.931	17.66
582.127	17.55
582.322	17.58
582.518	17.49
582.714	17.42
582.909	17.45
583.105	17.48
583.301	17.47
583.496	17.44
583.692	17.4
583.888	17.29
584.083	17.26
584.279	17.22
584.474	17.19
584.67	17.14
584.866	17.22
585.061	17.18
585.257	17.17
585.452	17.15
585.648	17.14
585.843	17.09
586.039	17.09
586.234	17.1
586.429	17.14
586.625	17.24
586.82	17.18
587.015	17.22
587.211	17.16
587.406	17.13
587.601	17.06
587.797	17.1
587.992	17.07
588.187	17.1
588.383	17.13
588.578	17.14
588.773	17.13
588.968	17.19
589.163	17.16
589.359	17.14
589.554	17.12
589.749	17.15
589.944	17.15
590.139	17.17
590.334	17.21
590.529	17.2
590.724	17.27
590.919	17.24
591.114	17.33
591.309	17.34
591.504	17.43
591.699	17.37
591.894	17.35
592.089	17.29
592.284	17.34
592.479	17.39
592.674	17.48
592.869	17.51
593.064	17.61
593.259	17.64
593.454	17.59
593.648	17.52
593.843	17.6
594.038	17.65
594.233	17.68
594.428	17.78
594.622	17.96
594.817	18.13
595.012	18.15
595.206	18.23
595.401	18.31
595.596	18.31
595.79	18.28
595.985	18.26
596.18	18.3
596.374	18.37
596.569	18.48
596.763	18.45
596.958	18.63
597.153	18.66
597.347	18.65
597.542	18.67
597.736	18.78
597.931	18.78
598.125	18.86
598.319	18.94
598.514	18.93
598.708	19.02
598.903	19.16
599.097	19.19
599.291	19.27
599.486	19.38
599.68	19.4
599.874	19.38
600.069	19.41
600.263	19.42
600.457	19.44
600.651	19.5
600.846	19.53
601.04	19.55
601.234	19.53
601.428	19.68
601.622	19.79
601.817	19.86
602.011	19.88
602.205	20.01
602.399	19.88
602.593	19.86
602.787	19.76
602.981	19.79
603.175	19.81
603.369	19.86
603.563	19.9
603.757	19.9
603.951	19.95
604.145	19.8
604.339	19.75
604.533	19.64
604.727	19.7
604.921	19.59
605.115	19.6
605.309	19.52
605.502	19.54
605.696	19.52
605.89	19.56
606.084	19.51
606.278	19.56
606.471	19.49
606.665	19.35
606.859	19.26
607.053	19.21
607.246	19.21
607.44	19.17
607.634	19.19
607.827	19.23
608.021	19.18
608.214	19.1
608.408	19.02
608.602	18.97
608.795	18.92
608.989	18.83
609.182	18.7
609.376	18.58
609.569	18.48
609.763	18.29
609.956	18.32
610.15	18.28
610.343	18.28
610.537	18.24
610.73	18.18
610.923	18.05
611.117	18.02
611.31	17.98
611.504	17.93
611.697	17.91
611.89	17.84
612.083	17.74
612.277	17.62
612.47	17.48
612.663	17.46
612.856	17.42
613.05	17.38
613.243	17.28
613.436	17.26
613.629	17.1
613.822	17.07
614.015	16.94
614.209	16.92
614.402	16.86
614.595	16.86
614.788	16.78
614.981	16.77
615.174	16.67
615.367	16.53
615.56	16.42
615.753	16.39
615.946	16.31
616.139	16.28
616.332	16.32
616.525	16.22
616.718	16.15
616.911	16.12
617.103	16.14
617.296	16.1
617.489	16.08
617.682	16.09
617.875	16
618.067	15.9
618.26	15.81
618.453	15.75
618.646	15.69
618.838	15.67
619.031	15.59
619.224	15.55
619.417	15.6
619.609	15.49
619.802	15.45
619.994	15.45
620.187	15.3
620.38	15.15
620.572	15.09
620.765	15.09
620.957	14.99
621.15	15.04
621.342	15.02
621.535	15.04
621.727	14.96
621.92	14.95
622.112	14.98
622.305	15.03
622.497	14.93
622.69	14.92
622.882	14.95
623.074	14.96
623.267	14.86
623.459	14.9
623.651	14.88
623.844	14.87
624.036	14.81
624.228	14.85
624.42	14.77
624.613	14.7
624.805	14.73
624.997	14.68
625.189	14.67
625.381	14.64
625.574	14.6
625.766	14.54
625.958	14.6
626.15	14.51
626.342	14.57
626.534	14.6
626.726	14.6
626.918	14.49
627.11	14.54
627.302	14.44
627.494	14.36
627.686	14.25
627.878	14.21
628.07	14.17
628.262	14.23
628.454	14.22
628.646	14.22
628.838	14.26
629.029	14.23
629.221	14.15
629.413	14.15
629.605	14.13
629.797	14.04
629.989	13.96
630.18	14
630.372	13.93
630.564	13.92
630.755	13.9
630.947	13.94
631.139	13.86
631.33	13.82
631.522	13.78
631.714	13.72
631.905	13.65
632.097	13.57
632.289	13.57
632.48	13.55
632.672	13.58
632.863	13.49
633.055	13.49
633.246	13.56
633.438	13.48
633.629	13.47
633.821	13.53
634.012	13.57
634.203	13.43
634.395	13.5
634.586	13.52
634.777	13.48
634.969	13.44
635.16	13.44
635.351	13.31
635.543	13.2
635.734	13.18
635.925	13.19
636.117	13.22
636.308	13.33
636.499	13.38
636.69	13.44
636.881	13.4
637.073	13.4
637.264	13.28
637.455	13.28
637.646	13.23
637.837	13.23
638.028	13.2
638.219	13.29
638.41	13.28
638.601	13.25
638.792	13.33
638.983	13.25
639.174	13.17
639.365	13.11
639.556	13.06
639.747	12.93
639.938	13.02
640.129	12.96
640.32	12.88
640.511	12.95
640.701	12.99
640.892	12.95
641.083	12.94
641.274	12.93
641.465	12.88
641.655	12.86
641.846	12.8
642.037	12.78
642.228	12.74
642.418	12.69
642.609	12.62
642.8	12.59
642.99	12.63
643.181	12.7
643.372	12.66
643.562	12.64
643.753	12.6
643.943	12.46
644.134	12.33
644.324	12.32
644.515	12.3
644.705	12.29
644.896	12.42
645.086	12.41
645.277	12.32
645.467	12.27
645.658	12.24
645.848	12.22
646.038	12.25
646.229	12.28
646.419	12.24
646.61	12.25
646.8	12.13
646.99	12.17
647.18	12.14
647.371	12.16
647.561	12.09
647.751	12.09
647.941	11.98
648.132	12.01
648.322	12
648.512	12.1
648.702	12.11
648.892	12.14
649.082	12.2
649.272	12.14
649.462	12.03
649.653	12
649.843	11.93
650.033	11.84
650.223	11.83
650.413	11.81
650.603	11.85
650.793	11.94
650.983	11.92
651.172	11.93
651.362	11.78
651.552	11.7
651.742	11.54
651.932	11.46
652.122	11.47
652.312	11.47
652.502	11.36
652.691	11.3
652.881	11.29
653.071	11.17
653.261	11.12
653.45	11.02
653.64	11.02
653.83	10.9
654.019	10.85
654.209	10.84
654.399	10.81
654.588	10.73
654.778	10.62
654.968	10.51
655.157	10.37
655.347	10.33
655.536	10.24
655.726	10.1
655.915	9.92
656.105	9.81
656.294	9.62
656.484	9.4
656.673	9.4
656.863	9.37
657.052	9.27
657.241	9.27
657.431	9.25
657.62	9.17
657.809	9.04
657.999	8.99
658.188	8.91
658.377	8.78
658.567	8.7
658.756	8.55
658.945	8.48
659.134	8.3
659.324	8.12
659.513	7.96
659.702	7.82
659.891	7.67
660.08	7.55
660.269	7.5
660.458	7.33
660.648	7.27
660.837	7.11
661.026	6.96
661.215	6.9
661.404	6.91
661.593	6.9
661.782	6.85
661.971	6.78
662.16	6.64
662.349	6.43
662.538	6.21
662.726	6.12
662.915	6.16
663.104	6.04
663.293	6.05
663.482	6
663.671	5.91
663.86	5.81
664.048	5.83
664.237	5.8
664.426	5.83
664.615	5.87
664.803	5.75
664.992	5.67
665.181	5.69
665.369	5.53
665.558	5.45
665.747	5.45
665.935	5.48
666.124	5.36
666.312	5.43
666.501	5.37
666.69	5.34
666.878	5.28
667.067	5.17
667.255	5.14
667.444	5.22
667.632	5.26
667.82	5.23
668.009	5.29
668.197	5.29
668.386	5.2
668.574	5.2
668.762	5.13
668.951	5.14
669.139	5.08
669.327	5.06
669.516	4.98
669.704	5.02
669.892	4.93
670.08	5.04
670.269	5.11
670.457	5.1
670.645	5.16
670.833	5.3
671.021	5.3
671.21	5.28
671.398	5.39
671.586	5.42
671.774	5.47
671.962	5.53
672.15	5.61
672.338	5.66
672.526	5.63
672.714	5.57
672.902	5.52
673.09	5.53
673.278	5.56
673.466	5.72
673.654	5.81
673.842	6
674.03	6.12
674.218	6.11
674.405	6.06
674.593	6.2
674.781	6.22
674.969	6.28
675.157	6.38
675.344	6.43
675.532	6.34
675.72	6.33
675.908	6.21
676.095	6.24
676.283	6.45
676.471	6.49
676.658	6.57
676.846	6.75
677.033	6.76
677.221	6.68
677.409	6.86
677.596	6.93
677.784	6.97
677.971	7.09
678.159	7.14
678.346	7.14
678.534	7.14
678.721	7.23
678.909	7.4
679.096	7.56
679.283	7.64
679.471	7.83
679.658	7.89
679.846	7.8
680.033	8.07
680.22	8.22
680.408	8.19
680.595	8.25
680.782	8.42
680.969	8.37
681.157	8.39
681.344	8.43
681.531	8.57
681.718	8.67
681.905	8.74
682.093	8.91
682.28	9.07
682.467	9.22
682.654	9.33
682.841	9.46
683.028	9.44
683.215	9.69
683.402	9.68
683.589	9.84
683.776	9.87
683.963	10.15
684.15	10.32
684.337	10.59
684.524	10.72
684.711	10.94
684.898	11.04
685.085	11.12
685.271	11.4
685.458	11.56
685.645	11.75
685.832	11.97
686.019	12.15
686.205	12.35
686.392	12.62
686.579	12.84
686.766	13.2
686.952	13.52
687.139	13.62
687.326	13.97
687.512	14.2
687.699	14.54
687.886	14.78
688.072	15.2
688.259	15.64
688.445	16.14
688.632	16.39
688.818	16.66
689.005	16.97
689.191	17.15
689.378	17.43
689.564	17.8
689.751	18.37
689.937	18.96
690.124	19.45
690.31	19.76
690.496	20.25
690.683	20.78
690.869	21.09
691.055	21.65
691.242	22.35
691.428	22.95
691.614	23.55
691.8	24.18
691.987	24.79
692.173	25.52
692.359	26.05
692.545	26.77
692.731	27.28
692.918	27.76
693.104	28.23
693.29	28.77
693.476	29.3
693.662	30.11
693.848	30.94
694.034	31.5
694.22	32.35
694.406	32.73
694.592	33.42
694.778	33.81
694.964	34.57
695.15	35.12
695.336	36.04
695.522	36.72
695.708	37.63
695.894	38.18
696.08	39
696.265	39.59
696.451	40.14
696.637	40.88
696.823	41.69
697.009	42.28
697.194	43
697.38	43.66
697.566	43.96
697.751	44.6
697.937	45.29
698.123	45.85
698.308	46.29
698.494	47.33
698.68	47.98
698.865	48.65
699.051	49.23
699.236	50.1
699.422	50.51
699.607	51.04
699.793	51.43
699.978	51.78
700.164	52.26
700.349	52.96
700.535	53.42
700.72	53.98
700.906	54.73
701.091	55.45
701.276	55.73
701.462	56.27
701.647	56.93
701.832	57.57
702.018	57.96
702.203	58.54
702.388	58.87
702.573	59.17
702.759	59.43
702.944	59.55
703.129	60.03
703.314	60.5
703.499	60.94
703.684	61.57
703.87	62.36
704.055	62.71
704.24	63.13
704.425	63.48
704.61	63.82
704.795	64.1
704.98	64.39
705.165	64.82
705.35	65.25
705.535	65.52
705.72	65.72
705.905	66.25
706.09	66.78
706.275	67.16
706.459	67.45
706.644	67.75
706.829	68.2
707.014	68.61
707.199	68.85
707.384	69.21
707.568	69.71
707.753	69.85
707.938	70.17
708.123	70.54
708.307	70.91
708.492	71.33
708.677	71.58
708.861	71.47
709.046	71
709.231	71
709.415	71.07
709.6	71.21
709.784	71.66
709.969	72.73
710.153	73.13
710.338	73.38
710.522	73.68
710.707	73.77
710.891	73.68
711.076	73.7
711.26	73.8
711.445	73.72
711.629	73.76
711.813	74.01
711.998	74.4
712.182	74.38
712.366	75.14
712.551	75.25
712.735	75.25
712.919	75.23
713.103	75.73
713.288	75.36
713.472	75.78
713.656	75.79
713.84	75.9
714.024	76.03
714.208	76.06
714.393	76.33
714.577	77.03
714.761	77.47
714.945	77.72
715.129	78.09
715.313	77.79
715.497	77.49
715.681	77.32
715.865	77.38
716.049	77.43
716.233	77.68
716.417	78
716.601	78.33
716.785	78.49
716.968	78.75
717.152	78.74
717.336	79.13
717.52	79.6
717.704	79.44
717.888	79.61
718.071	79.81
718.255	79.79
718.439	79.32
718.622	79.76
718.806	79.74
718.99	79.86
719.174	79.66
719.357	80.04
719.541	80.13
719.724	80.24
719.908	80.45
720.092	80.3
720.275	80.61
720.459	80.22
720.642	80.36
720.826	80.49
721.009	80.9
721.193	80.36
721.376	80.78
721.559	80.82
721.743	81.31
721.926	81.24
722.11	81.79
722.293	82.01
722.476	81.76
722.66	81.95
722.843	82.13
723.026	82.2
723.21	81.84
723.393	82.22
723.576	81.69
723.759	81.69
723.942	81.56
724.126	81.67
724.309	81.93
724.492	82.37
724.675	82.34
724.858	82.81
725.041	83.07
725.224	83.21
725.407	83.26
725.59	83.37
725.774	82.96
725.957	83.34
726.14	83.29
726.322	83.17
726.505	83.86
726.688	84.3
726.871	83.75
727.054	83.9
727.237	83.88
727.42	83.91
727.603	84.34
727.786	84.65
727.968	84.43
728.151	84.8
728.334	84.62
728.517	84.3
728.699	84.58
728.882	84.72
729.065	84.29
729.248	84.43
729.43	84.51
729.613	84.38
729.796	85.44
729.978	85.34
730.161	85.35
730.343	85.5
730.526	85.38
730.708	84.58
730.891	84.67
731.073	84.96
731.256	84.7
731.438	86.06
731.621	86.26
731.803	86.43
731.986	86.76
732.168	87.16
732.35	86.28
732.533	86.28
732.715	86.75
732.898	86.25
733.08	85.58
733.262	85.81
733.444	86.43
733.627	86.67
733.809	87.59
733.991	88.57
734.173	88.41
734.355	87.62
734.538	87.83
734.72	87.36
734.902	87.68
735.084	87.76
735.266	88.6
735.448	88.55
735.63	88.63
735.812	88.7
735.994	88.62
736.176	88.52
736.358	88.97
736.54	89.68
736.722	89.33
736.904	89.37
737.086	88.71
737.268	89.21
737.45	88.54
737.632	89.06
737.814	89.57
737.995	89.54
738.177	88.72
738.359	88.91
738.541	88.77
738.723	88.69
738.904	88.43
739.086	88.74
739.268	88.07
739.449	87.53
739.631	87.23
739.813	87.35
739.994	86.62
740.176	87.37
740.358	87.7
740.539	87.8
740.721	89.16
740.902	89.44
741.084	89.87
741.265	90.12
741.447	91
741.628	90.64
741.81	91.5
741.991	91.51
742.172	91.33
742.354	90.88
742.535	91.31
742.717	90.62
742.898	90.78
743.079	91.69
743.261	91.44
743.442	90.31
743.623	90.88
743.804	90.03
743.986	89.35
744.167	89.29
744.348	89.05
744.529	89
744.71	89.16
744.891	88.86
745.073	89.01
745.254	89.59
745.435	88.56
745.616	88.74
745.797	88.6
745.978	88.4
746.159	87.92
746.34	89.47
746.521	89.49
746.702	89.98
746.883	89.8
747.064	89.89
747.245	89.43
747.426	89.07
747.606	88.38
747.787	89.29
747.968	89.9
748.149	89.06
748.33	88.48
748.51	88.38
748.691	86.79
748.872	87.45
749.053	87.35
749.233	87.66
749.414	88.04
749.595	89.44
749.775	88.52
749.956	88.42
750.137	88.45
750.317	86.26
750.498	85.89
750.678	86.18
750.859	87.18
751.04	88.06
751.22	89.55
751.4	89.88
751.581	89.61
751.761	89.93
751.942	90.03
752.122	90.31
752.303	90.06
752.483	90.19
752.663	89
752.844	88.1
753.024	89.21
753.204	89.44
753.385	88.95
753.565	88.75
753.745	88.58
753.925	86.55
754.106	87.24
754.286	86.54
754.466	86.76
754.646	86.49
754.826	88.54
755.006	86.35
755.187	88.89
755.367	89.31
755.547	89.99
755.727	88.47
755.907	89.73
756.087	87.31
756.267	87.11
756.447	86.81
756.627	86.33
756.807	87.87
756.987	88.91
757.167	88.34
757.346	87.71
757.526	88.1
757.706	87.51
757.886	87.38
758.066	88.46
758.246	87.17
758.425	87.33
758.605	86.06
758.785	85.84
758.965	85.76
759.144	86.5
759.324	86.9
759.504	86.12
759.683	84.77
759.863	84.6
760.043	84.92
760.222	85.14
760.402	84.82
760.581	86.84
760.761	86.04
760.94	85.93
761.12	85.42
761.299	87.17
761.479	87.43
761.658	87.07
761.838	87.95
762.017	88.84
762.197	87.13
762.376	86.43
762.555	85.99
762.735	85.44
762.914	84.71
763.093	86
763.273	86.52
763.452	86.15
763.631	86.41
763.81	87.01
763.99	86.23
764.169	85.84
764.348	85.75
764.527	86.14
764.706	85.01
764.885	85.86
765.064	85.93
765.243	86.24
765.423	86.23
765.602	85.29
765.781	82.49
765.96	81.11
766.139	81.32
766.318	81.25
766.497	81.23
766.676	81.83
766.854	81.92
767.033	83.5
767.212	83.55
767.391	85.83
767.57	89.49
767.749	88.41
767.928	88.08
768.106	86.21
768.285	84.87
768.464	83.6
768.643	85.42
768.821	83.36
769	83.2
769.179	83.75
769.357	83.28
769.536	81.58
769.715	81.63
769.893	82.59
770.072	81.94
770.25	79.41
770.429	80.53
770.607	81.41
770.786	81.64
770.964	82.98
771.143	85.65
771.321	83.18
771.5	83.46
771.678	83.04
771.857	80.9
772.035	79.87
772.213	81.09
772.392	78.45
772.57	77.73
772.748	77.02
772.927	77.41
773.105	78.52
773.283	81.01
773.461	83.9
773.64	84.59
773.818	85.68
773.996	85.6
774.174	83.75
774.352	81.9
774.531	82.6
774.709	81.43
774.887	79.63
775.065	79.92
775.243	78.78
775.421	77.33
775.599	77.65
775.777	78.68
775.955	80.32
776.133	80.84
776.311	82.54
776.489	82.61
776.667	83.64
776.844	85.05
777.022	85.5
777.2	83.6
777.378	80.47
777.556	80.33
777.734	79.16
777.911	80.32
778.089	83.23
778.267	85.4
778.445	85.72
778.622	84.59
778.8	80.88
778.978	80.68
779.155	82.44
779.333	82.96
779.511	82.57
779.688	84.94
779.866	83.8
780.043	84.07
780.221	82.45
780.398	81.32
780.576	80.73
780.753	79.1
780.931	76.75
781.108	79.43
781.286	80.7
781.463	79.88
781.64	80.44
781.818	81.98
781.995	78.52
782.172	79.61
782.35	80.72
782.527	81.17
782.704	80.66
782.882	78.13
783.059	76.99
783.236	76.1
783.413	75.67
783.59	75.4
783.768	78.85
783.945	79.16
784.122	79.09
784.299	78.9
784.476	74.87
784.653	74.92
784.83	73.55
785.007	72.69
785.184	76.05
785.361	80.31
785.538	77
785.715	78.04
785.892	77.06
786.069	74.16
786.246	73.03
786.423	74.8
786.6	73.31
786.776	75.01
786.953	72.49
787.13	72.75
787.307	72.11
787.484	71.96
787.66	71.61
787.837	74.49
788.014	73.49
788.191	73.83
788.367	73.59
788.544	75.61
788.721	75.46
788.897	76.03
789.074	76.28
789.25	76.11
789.427	74.13
789.603	71.81
789.78	70.99
789.956	70.09
790.133	72.7
790.309	74.57
790.486	76.25
790.662	80.31
790.839	81.08
791.015	79.87
791.192	76.45
791.368	76.08
791.544	72.53
791.721	70.55
791.897	69.33
792.073	65.68
792.249	65.27
792.426	67.36
792.602	73.1
792.778	72.33
792.954	78.18
793.13	78.68
793.307	77.57
793.483	73.17
793.659	76.84
793.835	78.92
794.011	80.84
794.187	80.66
794.363	79.94
794.539	79.46
794.715	75.53
794.891	73.6
795.067	72.98
795.243	76.81
795.419	73.57
795.595	77.83
795.771	76.33
795.947	74.37
796.122	71.21
796.298	72.48
796.474	73.15
796.65	76.8
796.826	76.2
797.001	77.09
797.177	73.05
797.353	71.75
797.529	69.91
797.704	72.35
797.88	72
798.056	76.77
798.231	75.2
798.407	77.77
798.582	77.95
798.758	77.48
798.934	77.39
799.109	77.07
799.285	71.56
799.46	66.76
799.636	67.27
799.811	68.4
799.986	67.12
800.162	64.07
800.337	69.87
800.513	69.71
800.688	65.63
800.863	71.51
801.039	76.72
801.214	71.68
801.389	67.27
801.565	68.32
801.74	64.47
801.915	65.31
802.09	65.14
802.265	69.62
802.441	73.23
802.616	72.46
802.791	71.49
802.966	74.72
803.141	70.61
803.316	69.14
803.491	70.11
803.666	69.85
803.841	65.98
804.016	67
804.191	62.42
804.366	55.51
804.541	53.6
804.716	55.34
804.891	62.81
805.066	63.01
805.241	69.27
805.416	76.38
805.591	75.27
805.765	74.91
805.94	74.89
806.115	73.87
806.29	70.58
806.464	76.91
806.639	76.02
806.814	75.75
806.989	76.63
807.163	80.05
807.338	73.08
807.512	66.15
807.687	67.07
807.862	66.18
808.036	62.03
808.211	70.97
808.385	74.6
808.56	74.87
808.734	63.49
808.909	64.12
809.083	63.17
809.258	65.01
809.432	61.58
809.606	75.05
809.781	82.6
809.955	84.69
810.13	79.08
810.304	82.14
810.478	76.44
810.652	68.12
810.827	66.75
811.001	67.8
811.175	70.45
811.349	74.24
811.524	71.25
811.698	63.45
811.872	70.06
812.046	67.04
812.22	59.98
812.394	64.92
812.568	69.63
812.742	62.8
812.916	65.36
813.09	64.96
813.264	61.46
813.438	54.75
813.612	53.75
813.786	48.67
813.96	53.6
814.134	57.43
814.308	66.46
814.482	69.95
814.656	69.57
814.83	77.18
815.003	74.5
815.177	77.66
815.351	76.44
815.525	84.62
815.698	74.96
815.872	67.46
816.046	64.31
816.219	66.96
816.393	61.82
816.567	60.43
816.74	65.57
816.914	58.52
817.088	62.7
817.261	66.68
817.435	73.16
817.608	71.72
817.782	72.94
817.955	75.62
818.129	70.14
818.302	66.69
818.475	71.18
818.649	66.87
818.822	53.04
818.996	63.53
819.169	71.11
819.342	73.21
819.516	79.28
819.689	80.61
819.862	70.14
820.035	70.44
820.209	65.87
820.382	57.56
820.555	52.4
820.728	56.56
820.901	47.45
821.075	50.01
821.248	67.51
821.421	72.12
821.594	69.81
821.767	78.91
821.94	69.52
822.113	70.29
822.286	69.15
822.459	66.97
822.632	66.38
822.805	66.84
822.978	66.83
823.151	58.18
823.324	50.22
823.496	40.62
823.669	54.21
823.842	54.23
824.015	58.43
824.188	69.19
824.361	74.39
824.533	61.65
824.706	53.4
824.879	65.45
825.051	71.32
825.224	72.23
825.397	73.96
825.569	68.7
825.742	71.21
825.915	65.71
826.087	58.33
826.26	53.75
826.432	52.67
826.605	43.81
826.777	48.78
826.95	51.35
827.122	58.89
827.295	72.26
827.467	73.88
827.64	49.01
827.812	37.11
827.984	29.89
828.157	36.38
828.329	45.44
828.501	54.97
828.674	49.01
828.846	47.73
829.018	36.05
829.19	27.18
829.363	29.05
829.535	46.12
829.707	45.05
829.879	49.48
830.051	52.62
830.223	71.35
830.395	65.01
830.568	66.78
830.74	76.83
830.912	78.7
831.084	65.18
831.256	57.72
831.428	42.09
831.6	32.84
831.772	21.6
831.943	11.44
832.115	12.51
832.287	29.99
832.459	37.43
832.631	48.24
832.803	54.75
832.975	59.78
833.146	53.19
833.318	44.94
833.49	52.2
833.662	53.85
833.833	33.09
834.005	35.64
834.177	44.32
834.348	24.31
834.52	28.68
834.692	33.48
834.863	36.23
835.035	40.33
835.206	42.18
835.378	40.8
835.549	42.65
835.721	41.02
835.892	39.82
836.064	38.65
836.235	47
836.407	42
836.578	38.64
836.749	24.03
836.921	30.63
837.092	10.42
837.264	31.38
837.435	25.25
837.606	42.19
837.777	44.77
837.949	62.9
838.12	54.31
838.291	64
838.462	63.96
838.633	59.27
838.805	21.95
838.976	23.54
839.147	20.66
839.318	11.21
839.489	8.92
839.66	49.14
839.831	57.49
840.002	51.09
840.173	51.67
840.344	61.77
840.515	41.46
840.686	33.19
840.857	32.61
841.028	39.18
841.199	31.47
841.369	49.19
841.54	60.75
841.711	82.15
841.882	62.11
842.053	53.13
842.223	43.63
842.394	20.07
842.565	10.98
842.736	21.31
842.906	25.19
843.077	33.38
843.248	65.23
843.418	65.75
843.589	72.37
843.759	82.8
843.93	98.42
844.101	79.29
844.271	99.32
844.442	81.7
844.612	70.99
844.783	45.22
844.953	45.72
845.123	32.29
845.294	48.04
845.464	57.74
845.635	83.83
845.805	115.92
845.975	126.65
846.146	62.92
846.316	50.17
846.486	39.27
846.656	50.01
846.827	69.92
846.997	80.82
847.167	69.6
847.337	62.69
847.507	68.34
847.677	49.63
847.848	68.49
848.018	86.2
848.188	103.67
848.358	81.47
848.528	95.62
848.698	67.18
848.868	39.26
849.038	12.67
849.208	24.02
849.378	24.96
849.548	18.44
849.718	37.6
849.887	74.9
850.057	57.02
850.227	66.89
850.397	46.23
850.567	27.2
850.737	40.09
850.906	25.12
851.076	4.07
851.246	11.7
851.415	6.87
851.585	-16.2
851.755	10.39
851.924	33.39
852.094	69.83
852.264	61.05
852.433	67.9
852.603	63.07
852.772	88.43
852.942	74.19
853.111	78.7
853.281	69.98
853.45	51.12
853.62	34.58
853.789	16.93
853.959	38.91
854.128	33.45
854.297	65.39
854.467	51.41
854.636	66.93
854.805	49.23
854.975	50.51
855.144	46.79
855.313	81
855.482	54.7
855.652	49.7
855.821	57
855.99	57.48
856.159	31.18
856.328	31.19
856.497	36.01
856.667	37.57
856.836	41.07
857.005	43.57
857.174	38.38
857.343	13.48
857.512	6.16
857.681	-21.77
857.85	-26.22
858.019	-52.22
858.188	-29.56
858.356	-7.56
858.525	1.91
858.694	19.94
858.863	26.7
859.032	35.43
859.201	38.7
859.369	26.31
859.538	26.53
859.707	9.93
859.876	39.84
860.044	45.03
860.213	70.84
860.382	71.75
860.55	67.66
860.719	72.46
860.888	61.12
861.056	40.19
861.225	33.07
861.393	46.26
861.562	46.21
861.73	49.74
861.899	53.76
862.067	37.36
862.236	27.11
862.404	16.93
862.572	15.96
862.741	-2.51
862.909	18.82
863.078	23.14
863.246	-4.37
863.414	10.83
863.582	25.8
863.751	46.82
863.919	52.25
864.087	72.86
864.255	72.86
864.424	45.92
864.592	40.67
864.76	38.58
864.928	48.45
865.096	56.09
865.264	51.32
865.432	21.03
865.6	13.77
865.768	-20.19
865.936	-14.98
866.104	-17.18
866.272	6
866.44	10.45
866.608	26.81
866.776	26.58
866.944	69.6
867.112	67.99
867.28	52.19
867.448	50.76
867.615	49.31
867.783	22.68
867.951	-4.99
868.119	31.79
868.286	34.6
868.454	37.94
868.622	36.01
868.789	38.78
868.957	23.84
869.125	28.47
869.292	-0.77
869.46	12.73
869.627	5.58
869.795	-33.22
869.963	-36.64
870.13	-56.9
870.298	-48.3
870.465	-17.35
870.632	-31.37
870.8	-33.79
870.967	-12.05
871.135	-49.17
871.302	-54.96
871.469	-28.13
871.637	-1.09
871.804	29.57
871.971	27.49
872.139	45.18
872.306	-4.12
872.473	-39.24
872.64	-164.28
872.807	-62.77
872.975	-154.16
873.142	35.63
873.309	52.67
873.476	91.98
873.643	95.26
873.81	77.7
873.977	77.16
874.144	41.05
874.311	-16.12
874.478	-39.55
874.645	-58.26
874.812	13.27
874.979	44.77
875.146	72.1
875.313	74.56
875.48	112.31
875.647	67.84
875.813	17.13
875.98	3.56
876.147	-74.17
876.314	-97.99
876.481	-25.75
876.647	25.13
876.814	22.98
876.981	54.47
877.147	41.92
877.314	46.32
877.481	47.08
877.647	66.62
877.814	75.7
877.98	96.22
878.147	89.03
878.314	80.84
878.48	97.24
878.647	90.18
878.813	118.88
878.979	119.24
879.146	146.32
879.312	128.05
879.479	86.51
879.645	67.57
879.811	46.74
879.978	54.08
880.144	35.52
880.31	33.49
880.477	16.74
880.643	15.2
880.809	-45.21
880.975	-72.27
881.142	-112.77
881.308	410.9
881.474	558.67
881.64	-44.75
881.806	27.12
881.972	56.45
882.138	67.72
882.304	74.54
882.47	21.23
882.636	-4.97
882.802	-33.35
882.968	-46.48
883.134	-4.42
883.3	12.95
883.466	33.66
883.632	80.71
883.798	31.13
883.964	-36.2
884.129	-175.11
884.295	43.95
884.461	-34.78
884.627	6.94
884.793	13.45
884.958	50.45
885.124	28.67
885.29	28.07
885.455	54.22
885.621	95
885.787	19.42
885.952	29.98
886.118	37.86
886.283	28.57
886.449	6.32
886.614	40.05
886.78	47.58
886.945	70.06
887.111	19.52
887.276	-8.84
887.442	-81.23
887.607	-119.28
887.773	-47.39
887.938	-39.44
888.103	-8.93
888.269	17.77
888.434	38.09
888.599	-0.55
888.764	31.45
888.93	48.75
889.095	44.75
889.26	33.98
889.425	74.03
889.59	118.78
889.756	73.09
889.921	39.72
890.086	96.06
890.251	138.96
890.416	79.96
890.581	105.65
890.746	125.34
890.911	75.01
891.076	75.95
891.241	80.68
891.406	68.63
891.571	148.41
891.736	252.58
891.901	133.24
892.065	76.73
892.23	107.32
892.395	48.66
892.56	15.52
892.725	26.26
892.889	-2.05
893.054	-59.49
893.219	-43.57
893.384	15.17
893.548	-37.51
893.713	8.12
893.878	66.54
