Data from Ofra_PS_T2_1A_2HS09_Reflection_2.txt Node
Date: Wed Jul 21 18:03:56 EDT 2021
User: Adam
Spectrometer: FLMT01687
Trigger mode: 0
Integration Time (sec): 1.100000E0
Scans to average: 2
Electric dark correction enabled: true
Nonlinearity correction enabled: false
Boxcar width: 2
XAxis mode: Wavelengths
Number of Pixels in Spectrum: 3648
>>>>>Begin Spectral Data<<<<<
179.494	489.6
179.716	578.82
179.937	517.74
180.158	513
180.38	721.87
180.601	258.56
180.823	38.36
181.044	-25.59
181.265	88.24
181.486	130.29
181.708	100.46
181.929	526.53
182.15	-173.24
182.372	131.76
182.593	103.48
182.814	64.54
183.035	114.78
183.257	106.68
183.478	77.87
183.699	104.84
183.92	69.67
184.141	53.56
184.363	13.72
184.584	57.16
184.805	39.12
185.026	64.17
185.247	78.14
185.468	50.98
185.689	57.56
185.91	77.98
186.132	75.28
186.353	39.76
186.574	106.92
186.795	76.81
187.016	41.6
187.237	6.73
187.458	-15.47
187.679	-21.66
187.9	0.96
188.121	12.51
188.342	51.08
188.563	91.77
188.784	128.62
189.005	88.21
189.226	120.08
189.447	121.73
189.667	66.99
189.888	-214.29
190.109	-662.34
190.33	-510.97
190.551	-1075.22
190.772	-256.42
190.993	-173.27
191.214	-169
191.434	-86.43
191.655	-1.84
191.876	-40.5
192.097	-92.83
192.318	-132.79
192.538	-205.87
192.759	-185.87
192.98	-79.66
193.201	-31.19
193.421	7.83
193.642	9.9
193.863	24.83
194.083	7.22
194.304	-4.08
194.525	-9.76
194.745	-3.58
194.966	-41.78
195.187	-22.21
195.407	-46.07
195.628	-103.69
195.848	-93.77
196.069	-65.63
196.29	-44.64
196.51	-44.72
196.731	-32.16
196.951	-57.37
197.172	-56.48
197.392	-101.22
197.613	-84.63
197.833	-135.33
198.054	-109.01
198.274	-66.56
198.495	-77.87
198.715	-50.15
198.936	-47.7
199.156	-26.69
199.377	-97.47
199.597	-78.39
199.817	-87.34
200.038	3.42
200.258	-17.88
200.479	51.47
200.699	69.43
200.919	101.29
201.14	36.72
201.36	13.12
201.58	47.04
201.801	75.63
202.021	49.18
202.241	35.09
202.461	26.61
202.682	-73.85
202.902	-155.19
203.122	-95.71
203.342	-77.25
203.563	-28.7
203.783	6.58
204.003	-29.03
204.223	-29.74
204.443	46.1
204.663	47.61
204.884	44.36
205.104	91.64
205.324	110.53
205.544	103.91
205.764	83.88
205.984	84.66
206.204	72.1
206.424	64.66
206.644	26.23
206.864	37.5
207.084	15.13
207.304	24.04
207.525	-63.75
207.745	-3.94
207.964	25.22
208.184	-14.35
208.404	-33.56
208.624	-35.99
208.844	-30.61
209.064	-231.57
209.284	-203.63
209.504	-72.61
209.724	17.55
209.944	28.08
210.164	54.89
210.384	38.6
210.604	14.67
210.823	-14.63
211.043	-44.34
211.263	-45.92
211.483	-19.3
211.703	-46.45
211.922	-20.35
212.142	44.45
212.362	83.52
212.582	40.54
212.801	46.43
213.021	13.47
213.241	5.6
213.461	-40.08
213.68	-35.08
213.9	-24.34
214.12	-4.89
214.339	-82.16
214.559	-53.79
214.779	-4.89
214.998	-11.44
215.218	-54.06
215.438	-22.58
215.657	-30.5
215.877	-47.81
216.096	-5.51
216.316	16.64
216.535	8.2
216.755	16.15
216.974	-47.02
217.194	-89.09
217.413	-113.27
217.633	-69.61
217.852	-122.65
218.072	-19.66
218.291	2.05
218.511	37.09
218.73	8.29
218.95	-8.11
219.169	-20.43
219.389	-57.47
219.608	-36.21
219.827	-21.03
220.047	-8.08
220.266	-4.08
220.485	22.11
220.705	26.28
220.924	-15.1
221.143	20.34
221.363	8.52
221.582	8
221.801	7.94
222.021	47.84
222.24	38.13
222.459	101.2
222.678	63.37
222.897	3.8
223.117	-35.26
223.336	-7.12
223.555	-14.35
223.774	32.42
223.993	48.48
224.213	88.99
224.432	41.25
224.651	68.33
224.87	43.95
225.089	58.11
225.308	49.94
225.527	66.3
225.746	52.8
225.965	39.91
226.184	17.66
226.404	22.69
226.623	-9.76
226.842	-0.85
227.061	20.13
227.28	30.94
227.499	14.05
227.718	40.43
227.936	31.4
228.155	28.39
228.374	11.14
228.593	30.64
228.812	37.94
229.031	41.99
229.25	18.07
229.469	5.4
229.688	30.36
229.907	22.62
230.125	41.28
230.344	46.14
230.563	77.76
230.782	73.49
231.001	20.12
231.22	17.96
231.438	46.92
231.657	39.12
231.876	22.85
232.095	55.61
232.313	63.37
232.532	56.64
232.751	31.61
232.969	15.19
233.188	19.03
233.407	29.3
233.625	11.32
233.844	2.9
234.063	21.45
234.281	20.72
234.5	6.25
234.719	13.24
234.937	20.05
235.156	16.25
235.374	16.38
235.593	23.99
235.811	32.07
236.03	30.35
236.249	23.57
236.467	8.7
236.686	17.83
236.904	21.44
237.123	7.86
237.341	10.69
237.559	29.92
237.778	27.03
237.996	13.16
238.215	41.44
238.433	43.21
238.652	20.47
238.87	-16.97
239.088	3.26
239.307	1.3
239.525	-1.62
239.743	-19.1
239.962	8.53
240.18	-19.48
240.398	-45.26
240.617	-62.68
240.835	-37.06
241.053	-6.58
241.271	37.39
241.49	43.51
241.708	36.99
241.926	46.6
242.144	22.31
242.363	-37.28
242.581	-62.14
242.799	-12.17
243.017	-1.6
243.235	-19.34
243.453	-6.47
243.672	-12.84
243.89	-22.42
244.108	-35.24
244.326	-9.52
244.544	1.26
244.762	12.55
244.98	21.38
245.198	36.33
245.416	12.37
245.634	9.59
245.852	1.92
246.07	11.32
246.288	12.24
246.506	-23.46
246.724	-14.67
246.942	-6.85
247.16	13.25
247.378	8.9
247.596	38.78
247.814	26.67
248.032	7.84
248.25	8.56
248.468	12.03
248.685	11.28
248.903	47.42
249.121	45.1
249.339	22.37
249.557	24.72
249.775	22.69
249.992	-33.07
250.21	-33.09
250.428	-6.98
250.646	-31.64
250.863	-51.62
251.081	-29.79
251.299	-12.02
251.517	-23.9
251.734	0.92
251.952	19.2
252.17	17.18
252.387	35.04
252.605	16.42
252.823	13.98
253.04	34
253.258	65.93
253.475	59.6
253.693	93.18
253.911	107.7
254.128	95.65
254.346	84.86
254.563	50.67
254.781	18.14
254.998	-24.47
255.216	-33.01
255.433	-39.37
255.651	-1.12
255.868	15.77
256.086	55.57
256.303	55.21
256.521	48.39
256.738	21.06
256.956	6.23
257.173	-2.01
257.39	-24.8
257.608	-48.62
257.825	7.73
258.043	38.64
258.26	22.49
258.477	56.8
258.695	72.76
258.912	4.84
259.129	10.94
259.346	-10.92
259.564	-31.24
259.781	-41.83
259.998	17.89
260.216	33.51
260.433	69.71
260.65	60.08
260.867	56.17
261.084	23.16
261.302	-1.79
261.519	-37.86
261.736	-56.99
261.953	-71.05
262.17	-9.75
262.387	-25.62
262.604	-34.14
262.822	-25.51
263.039	-17.54
263.256	-69.57
263.473	-24.88
263.69	-7.63
263.907	22.54
264.124	57.76
264.341	58.75
264.558	34.57
264.775	55.51
264.992	57.97
265.209	24.17
265.426	40.08
265.643	49.39
265.86	37.01
266.077	40.47
266.294	16.28
266.51	-22.94
266.727	-35.54
266.944	-28.36
267.161	-39.49
267.378	-9.03
267.595	13.03
267.812	3.58
268.028	-18.87
268.245	-5.43
268.462	-30.82
268.679	-26.51
268.896	24.02
269.112	27.39
269.329	19.48
269.546	29.27
269.763	16.52
269.979	-23.18
270.196	-18.41
270.413	-43.93
270.629	-61.86
270.846	-53.73
271.063	-23.79
271.279	-29.75
271.496	-14.75
271.712	28.18
271.929	47.1
272.146	23.16
272.362	33
272.579	51.66
272.795	60.99
273.012	68.23
273.228	76.98
273.445	47.33
273.661	33.46
273.878	-29.03
274.094	-23.67
274.311	-60.25
274.527	19.47
274.744	20.55
274.96	24.27
275.177	19.48
275.393	47.65
275.609	42.3
275.826	59.71
276.042	69.22
276.259	52.98
276.475	51.62
276.691	44.45
276.908	20.17
277.124	21.62
277.34	32.86
277.557	27.06
277.773	17.23
277.989	18.56
278.205	12.18
278.422	27.63
278.638	28.21
278.854	38.89
279.07	48.96
279.286	53.23
279.503	21.71
279.719	9.55
279.935	-11.54
280.151	-20.55
280.367	-11.3
280.583	-7.39
280.799	2.23
281.016	-9
281.232	11.72
281.448	16.92
281.664	33.01
281.88	21.92
282.096	32.33
282.312	51.05
282.528	64.09
282.744	74.55
282.96	47.23
283.176	26.98
283.392	8.98
283.608	-0.58
283.824	-7.33
284.04	4.43
284.256	18.73
284.471	2.99
284.687	-7.89
284.903	7.77
285.119	32.24
285.335	12.31
285.551	44.3
285.767	30.74
285.982	11.75
286.198	-21.67
286.414	31.33
286.63	36.46
286.846	52.71
287.061	20.71
287.277	49.02
287.493	18.77
287.709	21.92
287.924	8.69
288.14	49.95
288.356	34.24
288.571	49.44
288.787	28.17
289.003	32.02
289.218	21.31
289.434	-10.08
289.65	0.72
289.865	5.3
290.081	38.24
290.296	32.43
290.512	47.29
290.727	-3.32
290.943	-4.67
291.159	-18.41
291.374	-20.6
291.59	-40.5
291.805	-15.48
292.021	-14.68
292.236	-19.6
292.451	-4.36
292.667	7.37
292.882	25.81
293.098	24.22
293.313	18.58
293.529	-0.93
293.744	-13.16
293.959	-34.36
294.175	-16.97
294.39	16.12
294.605	32.63
294.821	52.69
295.036	66.07
295.251	64.84
295.467	27.97
295.682	9.84
295.897	-20.46
296.112	-38.35
296.328	-35.16
296.543	-39.79
296.758	-26.25
296.973	13.29
297.188	40.35
297.404	10.67
297.619	-4.91
297.834	-29.26
298.049	-65.39
298.264	-83.99
298.479	-19.56
298.694	-0.69
298.909	23.84
299.125	26.57
299.34	30.28
299.555	10.86
299.77	25.35
299.985	-9.63
300.2	-66.25
300.415	-75.34
300.63	-52.96
300.845	-77.09
301.06	-84.3
301.275	-17.07
301.49	-12.95
301.704	-14.27
301.919	-14.07
302.134	-8.29
302.349	-17.39
302.564	-57.97
302.779	-66.01
302.994	-22.1
303.209	6.28
303.423	34.87
303.638	69.64
303.853	28.53
304.068	20.75
304.283	20.18
304.497	7.43
304.712	-4.92
304.927	20.68
305.142	7.98
305.356	13.16
305.571	8.74
305.786	-8.31
306	-34.91
306.215	-17.31
306.43	-29.06
306.644	-5.92
306.859	67.86
307.074	77.84
307.288	41
307.503	37.28
307.717	15.57
307.932	-2.31
308.147	-11.92
308.361	23.66
308.576	8.26
308.79	-27.1
309.005	-23.81
309.219	0
309.434	-13.61
309.648	-10.85
309.863	10.07
310.077	4.4
310.292	-12.44
310.506	-2.25
310.72	14.67
310.935	25.21
311.149	26.07
311.364	40.31
311.578	43.13
311.792	39.68
312.007	44
312.221	36.05
312.435	52.38
312.649	38.33
312.864	34.67
313.078	36.6
313.292	103.94
313.507	69.85
313.721	83.04
313.935	77.85
314.149	68.05
314.363	28.23
314.578	13.33
314.792	12.23
315.006	-3.89
315.22	9.77
315.434	25.3
315.648	40.87
315.862	40.45
316.077	43.87
316.291	16.75
316.505	15.51
316.719	-11.38
316.933	-21.9
317.147	-16.05
317.361	-52.4
317.575	-76.61
317.789	-105.14
318.003	-146.37
318.217	-99.12
318.431	-11.34
318.645	25.6
318.859	36.34
319.073	53.72
319.287	27.81
319.5	-0
319.714	-44.47
319.928	-95.29
320.142	-110.14
320.356	-54.72
320.57	-10.4
320.784	-15.23
320.997	6.13
321.211	-15.21
321.425	-69.25
321.639	-90.37
321.853	-32.59
322.066	-15.04
322.28	-16.4
322.494	4.89
322.707	26.87
322.921	11.53
323.135	4.25
323.349	15.8
323.562	-12.98
323.776	-25.94
323.989	-22.78
324.203	-43.2
324.417	-44.25
324.63	-45.96
324.844	-44.43
325.057	-37.26
325.271	-1.36
325.485	26.52
325.698	48.59
325.912	48.88
326.125	21.67
326.339	20.43
326.552	-7.35
326.766	-5.67
326.979	27.29
327.193	71.77
327.406	60.42
327.619	45.58
327.833	50.1
328.046	21.46
328.26	-29.84
328.473	-25.37
328.686	-39.04
328.9	-21.24
329.113	-10.81
329.326	-18.63
329.54	8.02
329.753	-11.93
329.966	-63.83
330.179	-48.41
330.393	-22.04
330.606	-12.29
330.819	12.97
331.032	32.22
331.246	31.38
331.459	57.36
331.672	39.99
331.885	35.17
332.098	22.05
332.311	11.6
332.525	-36.64
332.738	-17.54
332.951	5.67
333.164	20.19
333.377	36.69
333.59	50.16
333.803	61.91
334.016	57.11
334.229	61.58
334.442	54.79
334.655	73.13
334.868	77.26
335.081	63.35
335.294	43.58
335.507	30.29
335.72	8.59
335.933	-9.73
336.146	-27.58
336.359	-24.02
336.572	-41.9
336.785	-54.85
336.997	-40.15
337.21	-2.41
337.423	-4.71
337.636	6.33
337.849	33.74
338.062	14.92
338.274	9.46
338.487	8.26
338.7	9.46
338.913	-42.99
339.125	-56.72
339.338	-107.93
339.551	-87.94
339.763	-61.51
339.976	-11.74
340.189	17.98
340.402	24.3
340.614	20.39
340.827	10.07
341.039	-13
341.252	-14.99
341.465	5.33
341.677	16.56
341.89	-7.13
342.102	20.5
342.315	-0.75
342.527	-22.66
342.74	-39.82
342.952	-4.72
343.165	-16.73
343.377	20.01
343.59	22.53
343.802	45.01
344.015	37.7
344.227	49.94
344.44	34.55
344.652	38.87
344.864	14.71
345.077	39.49
345.289	35.91
345.502	38.79
345.714	22.08
345.926	23.93
346.139	16.02
346.351	23.25
346.563	26.29
346.775	42.97
346.988	37.5
347.2	34.93
347.412	-5.6
347.624	-9.82
347.837	-19.38
348.049	14.03
348.261	29.32
348.473	43.6
348.685	35.86
348.897	29.34
349.11	7.37
349.322	-21.91
349.534	-4.36
349.746	0.88
349.958	-14.01
350.17	-28.1
350.382	-2.08
350.594	-15.61
350.806	-18.82
351.018	-3.59
351.23	0.61
351.442	-43.72
351.654	-34.44
351.866	-19.46
352.078	-24.78
352.29	4.06
352.502	22.91
352.714	29.97
352.926	26.13
353.138	30.45
353.35	14.36
353.561	16.39
353.773	-12.99
353.985	-0.71
354.197	-11.16
354.409	-14.55
354.621	-25.23
354.832	-3.57
355.044	-17.58
355.256	-18.77
355.468	0.12
355.679	1.52
355.891	10.42
356.103	2.52
356.314	14.83
356.526	4.17
356.738	11.38
356.949	-13.19
357.161	0.71
357.373	-2.42
357.584	-7.99
357.796	2.21
358.008	-3.32
358.219	15.01
358.431	15.1
358.642	34.63
358.854	24.1
359.065	30.24
359.277	1.02
359.488	-10.06
359.7	-43.92
359.911	-40.33
360.123	-22.25
360.334	-31.39
360.546	-31.4
360.757	-26.33
360.969	-19.03
361.18	-15.3
361.391	3.08
361.603	0.72
361.814	16.52
362.025	18.36
362.237	23.69
362.448	29.59
362.659	31.19
362.871	27.31
363.082	24.66
363.293	15.97
363.504	3.91
363.716	-14.2
363.927	-20.58
364.138	-35.96
364.349	-44.14
364.56	-35.1
364.772	-21.95
364.983	0.59
365.194	-0.74
365.405	12.35
365.616	33.58
365.827	38.81
366.038	18.63
366.25	10.09
366.461	-12.05
366.672	-7.85
366.883	7.49
367.094	7
367.305	10.52
367.516	13.55
367.727	-16.01
367.938	-35.67
368.149	-27.26
368.36	-15.39
368.571	-5.72
368.781	-2.62
368.992	-16.45
369.203	-15.81
369.414	-38.38
369.625	-43.75
369.836	-41.71
370.047	-52.56
370.258	-65.93
370.468	-52.26
370.679	-66.9
370.89	-64.05
371.101	-37.94
371.312	-30.57
371.522	-26.61
371.733	-15.9
371.944	1.88
372.155	4.27
372.365	-13.98
372.576	-24.58
372.787	-29.3
372.997	-61.24
373.208	-57.42
373.419	-21.7
373.629	-33.96
373.84	-31.91
374.05	-36.97
374.261	-29.41
374.472	-49.42
374.682	7.66
374.893	6.81
375.103	52.88
375.314	47.46
375.524	50.7
375.735	42.53
375.945	47.96
376.156	14.41
376.366	11.12
376.577	10.39
376.787	-7.44
376.997	-5.66
377.208	-10.4
377.418	-19.13
377.629	-3.19
377.839	-3.49
378.049	-4.73
378.26	12.23
378.47	17.08
378.68	4.49
378.89	3.74
379.101	-0.87
379.311	-33.67
379.521	-58.77
379.732	-50.82
379.942	-50.66
380.152	-63.6
380.362	-27.32
380.572	-20.01
380.783	-11.59
380.993	0.22
381.203	9.28
381.413	13.02
381.623	14.75
381.833	15.18
382.043	8.04
382.253	4.49
382.463	-0.65
382.674	-1.31
382.884	-24.23
383.094	-24
383.304	-16.92
383.514	-7.16
383.724	-0.86
383.934	1.48
384.144	-5.44
384.353	-16.02
384.563	-17.02
384.773	-13.29
384.983	-14.73
385.193	6.46
385.403	15.75
385.613	7.59
385.823	-6.6
386.033	-0.94
386.242	-13.24
386.452	-20.05
386.662	-22.55
386.872	-6.35
387.082	-9.58
387.291	-14.19
387.501	-15.38
387.711	-10.02
387.921	-15.51
388.13	-12.27
388.34	-2.31
388.55	-2.2
388.759	2.77
388.969	3.8
389.179	-2.18
389.388	-3.95
389.598	-1.67
389.807	-11.13
390.017	-12.48
390.227	-9.9
390.436	-12.23
390.646	-9.05
390.855	-4.79
391.065	-2.22
391.274	-2.31
391.484	-2.12
391.693	-0.69
391.903	0.57
392.112	4.83
392.322	7.04
392.531	9.63
392.74	9.23
392.95	5.09
393.159	1.07
393.369	0.36
393.578	-0.65
393.787	-2.1
393.997	-0.24
394.206	-1.54
394.415	-0.21
394.625	-0.8
394.834	-1.98
395.043	-1.8
395.252	1.14
395.462	1.63
395.671	2.58
395.88	3.06
396.089	4.56
396.298	3.18
396.508	3.55
396.717	3.03
396.926	2.5
397.135	1.14
397.344	0.76
397.553	0.46
397.762	1.92
397.971	2.68
398.181	2.94
398.39	2.11
398.599	1.68
398.808	1.19
399.017	1.92
399.226	2.74
399.435	3.81
399.644	4.06
399.853	3.11
400.062	2.24
400.27	1.5
400.479	1.21
400.688	0.33
400.897	0.68
401.106	0.95
401.315	1.02
401.524	0.87
401.733	1.78
401.941	1.78
402.15	1.77
402.359	1.72
402.568	2.28
402.777	2.32
402.985	2.53
403.194	2.49
403.403	2.41
403.612	1.97
403.82	1.78
404.029	2.02
404.238	1.97
404.446	2.41
404.655	2.26
404.864	2.08
405.072	1.55
405.281	1.67
405.489	1.23
405.698	1.26
405.906	1.23
406.115	1.38
406.324	1.34
406.532	1.43
406.741	1.86
406.949	1.87
407.158	1.85
407.366	1.84
407.574	1.89
407.783	1.7
407.991	1.56
408.2	1.7
408.408	1.63
408.617	1.59
408.825	1.47
409.033	1.63
409.242	1.63
409.45	1.72
409.658	1.52
409.867	1.68
410.075	1.63
410.283	1.5
410.491	1.44
410.7	1.52
410.908	1.49
411.116	1.79
411.324	1.78
411.533	1.66
411.741	1.96
411.949	1.9
412.157	1.52
412.365	1.58
412.573	1.69
412.781	1.59
412.99	1.55
413.198	1.79
413.406	1.77
413.614	1.76
413.822	1.64
414.03	1.6
414.238	1.35
414.446	1.53
414.654	1.32
414.862	1.44
415.07	1.54
415.278	1.82
415.486	1.5
415.694	1.68
415.902	1.48
416.109	1.45
416.317	1.28
416.525	1.2
416.733	1.12
416.941	1.36
417.149	1.32
417.357	1.26
417.564	1.53
417.772	1.84
417.98	1.62
418.188	1.64
418.395	1.74
418.603	1.79
418.811	1.35
419.019	1.29
419.226	1.43
419.434	1.54
419.642	1.34
419.849	1.61
420.057	1.67
420.265	1.63
420.472	1.39
420.68	1.54
420.887	1.35
421.095	1.51
421.302	1.49
421.51	1.74
421.717	1.67
421.925	1.82
422.132	1.65
422.34	1.37
422.547	1.4
422.755	1.34
422.962	1.3
423.17	1.24
423.377	1.45
423.585	1.31
423.792	1.29
423.999	1.27
424.207	1.24
424.414	1.3
424.621	1.14
424.829	1.21
425.036	1.24
425.243	1.47
425.451	1.33
425.658	1.31
425.865	1.38
426.072	1.43
426.28	1.57
426.487	1.53
426.694	1.69
426.901	1.55
427.108	1.52
427.315	1.3
427.523	1.55
427.73	1.58
427.937	1.41
428.144	1.31
428.351	1.32
428.558	1.42
428.765	1.31
428.972	1.45
429.179	1.5
429.386	1.66
429.593	1.3
429.8	1.13
430.007	1.14
430.214	1.28
430.421	1.07
430.628	1.03
430.835	1.03
431.042	1.21
431.249	1.23
431.456	1.27
431.662	1.49
431.869	1.72
432.076	1.74
432.283	1.68
432.49	1.77
432.697	1.68
432.903	1.48
433.11	1.39
433.317	1.46
433.524	1.63
433.73	1.56
433.937	1.79
434.144	1.73
434.35	1.64
434.557	1.35
434.764	1.44
434.97	1.38
435.177	1.64
435.384	1.56
435.59	1.74
435.797	1.92
436.003	1.96
436.21	1.81
436.416	1.96
436.623	1.91
436.829	1.91
437.036	1.98
437.242	2.01
437.449	1.85
437.655	1.88
437.862	1.72
438.068	1.54
438.275	1.58
438.481	1.78
438.687	1.79
438.894	1.79
439.1	1.87
439.307	1.98
439.513	1.91
439.719	1.84
439.926	1.99
440.132	1.99
440.338	1.76
440.544	1.94
440.751	1.92
440.957	1.95
441.163	1.82
441.369	2.07
441.575	1.77
441.782	1.81
441.988	1.63
442.194	1.71
442.4	1.56
442.606	1.88
442.812	1.92
443.018	2.09
443.224	2.12
443.431	2.21
443.637	1.96
443.843	1.86
444.049	1.84
444.255	1.74
444.461	1.77
444.667	1.8
444.873	1.99
445.079	2.03
445.284	2.21
445.49	2.03
445.696	1.9
445.902	1.8
446.108	1.77
446.314	1.64
446.52	1.77
446.726	2.08
446.931	2.11
447.137	2.12
447.343	2.17
447.549	2.06
447.755	1.91
447.96	1.93
448.166	1.74
448.372	1.73
448.578	1.81
448.783	1.79
448.989	1.89
449.195	2.11
449.4	2.14
449.606	2.07
449.812	2.04
450.017	1.98
450.223	1.92
450.428	1.84
450.634	1.96
450.84	2.05
451.045	1.97
451.251	1.91
451.456	2.18
451.662	2.29
451.867	2.33
452.073	2.28
452.278	2.39
452.483	2.36
452.689	2.25
452.894	2.26
453.1	2.3
453.305	2.26
453.51	2.17
453.716	2.12
453.921	2.16
454.127	2.12
454.332	2.01
454.537	1.93
454.742	1.89
454.948	1.84
455.153	1.94
455.358	2.04
455.563	2.28
455.769	2.47
455.974	2.43
456.179	2.36
456.384	2.32
456.589	2.14
456.795	1.9
457	1.85
457.205	2.04
457.41	2.02
457.615	1.97
457.82	2.09
458.025	2.21
458.23	2.04
458.435	2.19
458.64	2.16
458.845	2.32
459.05	2.23
459.255	2.29
459.46	2.24
459.665	2.24
459.87	2.25
460.075	2.22
460.28	2.18
460.485	2.24
460.69	2.37
460.895	2.15
461.099	2.19
461.304	2.3
461.509	2.31
461.714	2.18
461.919	2.35
462.123	2.27
462.328	2.38
462.533	2.25
462.738	2.35
462.942	2.27
463.147	2.39
463.352	2.36
463.556	2.42
463.761	2.44
463.966	2.44
464.17	2.4
464.375	2.23
464.58	2.22
464.784	2.13
464.989	2.09
465.193	2.07
465.398	2.18
465.602	2.29
465.807	2.31
466.011	2.41
466.216	2.51
466.42	2.53
466.625	2.51
466.829	2.6
467.034	2.59
467.238	2.67
467.443	2.63
467.647	2.52
467.851	2.58
468.056	2.66
468.26	2.63
468.464	2.61
468.669	2.73
468.873	2.83
469.077	2.83
469.282	2.83
469.486	2.88
469.69	2.93
469.894	2.69
470.099	2.74
470.303	2.79
470.507	2.7
470.711	2.57
470.915	2.62
471.119	2.48
471.324	2.4
471.528	2.48
471.732	2.52
471.936	2.52
472.14	2.61
472.344	2.68
472.548	2.81
472.752	2.97
472.956	3.12
473.16	3.14
473.364	3.02
473.568	2.94
473.772	2.92
473.976	2.92
474.18	2.91
474.384	3.01
474.588	2.93
474.792	2.81
474.995	2.78
475.199	2.82
475.403	2.85
475.607	2.94
475.811	2.98
476.015	3.13
476.218	3.15
476.422	3.08
476.626	3.11
476.83	3.21
477.033	3.07
477.237	3
477.441	3.09
477.644	3.09
477.848	3.08
478.052	3.03
478.255	3.05
478.459	3.06
478.663	3.12
478.866	3.13
479.07	3.17
479.273	3.34
479.477	3.38
479.681	3.31
479.884	3.27
480.088	3.24
480.291	3.15
480.495	3.19
480.698	3.21
480.901	3.29
481.105	3.39
481.308	3.32
481.512	3.24
481.715	3.32
481.919	3.33
482.122	3.34
482.325	3.43
482.529	3.46
482.732	3.44
482.935	3.3
483.138	3.22
483.342	3.28
483.545	3.37
483.748	3.36
483.952	3.52
484.155	3.66
484.358	3.64
484.561	3.57
484.764	3.55
484.967	3.58
485.171	3.62
485.374	3.56
485.577	3.67
485.78	3.72
485.983	3.75
486.186	3.64
486.389	3.62
486.592	3.56
486.795	3.58
486.998	3.5
487.201	3.58
487.404	3.71
487.607	3.79
487.81	3.75
488.013	3.81
488.216	3.81
488.419	3.78
488.622	3.7
488.825	3.66
489.028	3.6
489.231	3.55
489.433	3.46
489.636	3.35
489.839	3.4
490.042	3.34
490.245	3.36
490.447	3.47
490.65	3.53
490.853	3.56
491.056	3.66
491.258	3.61
491.461	3.62
491.664	3.71
491.866	3.62
492.069	3.68
492.272	3.69
492.474	3.71
492.677	3.74
492.879	3.84
493.082	3.89
493.285	4.01
493.487	3.95
493.69	3.88
493.892	3.81
494.095	3.7
494.297	3.63
494.5	3.67
494.702	3.73
494.905	3.81
495.107	3.84
495.309	3.83
495.512	3.88
495.714	3.84
495.917	3.82
496.119	3.85
496.321	3.95
496.524	3.93
496.726	4
496.928	4.05
497.13	4
497.333	3.97
497.535	3.98
497.737	3.99
497.939	3.99
498.142	4.07
498.344	4.02
498.546	3.96
498.748	3.95
498.95	4.04
499.152	4
499.355	4.02
499.557	4.12
499.759	4.22
499.961	4.14
500.163	4.17
500.365	4.2
500.567	4.25
500.769	4.17
500.971	4.22
501.173	4.13
501.375	4.17
501.577	4.1
501.779	4.08
501.981	4.09
502.183	4.12
502.385	4.09
502.587	4.07
502.788	4.1
502.99	4.11
503.192	4.23
503.394	4.24
503.596	4.26
503.798	4.36
503.999	4.36
504.201	4.33
504.403	4.4
504.605	4.43
504.806	4.34
505.008	4.29
505.21	4.37
505.411	4.38
505.613	4.37
505.815	4.41
506.016	4.48
506.218	4.47
506.42	4.47
506.621	4.52
506.823	4.53
507.024	4.5
507.226	4.5
507.427	4.49
507.629	4.51
507.83	4.55
508.032	4.56
508.233	4.61
508.435	4.61
508.636	4.71
508.838	4.66
509.039	4.67
509.24	4.64
509.442	4.7
509.643	4.58
509.845	4.66
510.046	4.77
510.247	4.79
510.448	4.79
510.65	4.86
510.851	4.9
511.052	4.81
511.254	4.76
511.455	4.86
511.656	4.9
511.857	4.95
512.058	4.99
512.26	5.01
512.461	4.94
512.662	4.9
512.863	4.76
513.064	4.77
513.265	4.82
513.466	4.86
513.667	4.85
513.868	4.95
514.069	5.02
514.27	5.07
514.471	5.06
514.672	5.14
514.873	5.09
515.074	5.08
515.275	4.99
515.476	5.02
515.677	5.04
515.878	5.19
516.079	5.17
516.28	5.22
516.481	5.25
516.682	5.21
516.882	5.14
517.083	5.14
517.284	5.09
517.485	5.05
517.686	5.06
517.886	5.04
518.087	5.09
518.288	5.15
518.488	5.13
518.689	5.1
518.89	5.09
519.091	5.08
519.291	5.07
519.492	5.12
519.692	5.19
519.893	5.27
520.094	5.26
520.294	5.28
520.495	5.26
520.695	5.28
520.896	5.28
521.096	5.35
521.297	5.38
521.497	5.4
521.698	5.4
521.898	5.36
522.099	5.32
522.299	5.38
522.499	5.39
522.7	5.42
522.9	5.43
523.101	5.53
523.301	5.53
523.501	5.49
523.702	5.44
523.902	5.56
524.102	5.54
524.302	5.5
524.503	5.6
524.703	5.66
524.903	5.6
525.103	5.59
525.304	5.67
525.504	5.71
525.704	5.74
525.904	5.75
526.104	5.73
526.304	5.69
526.504	5.69
526.705	5.69
526.905	5.73
527.105	5.77
527.305	5.75
527.505	5.68
527.705	5.68
527.905	5.66
528.105	5.65
528.305	5.64
528.505	5.73
528.705	5.76
528.905	5.73
529.105	5.72
529.304	5.78
529.504	5.8
529.704	5.76
529.904	5.85
530.104	5.87
530.304	5.94
530.503	5.91
530.703	5.87
530.903	5.85
531.103	5.9
531.303	5.83
531.502	5.87
531.702	6.01
531.902	5.98
532.101	5.91
532.301	5.96
532.501	5.94
532.7	5.9
532.9	5.98
533.1	6.04
533.299	6.05
533.499	6.06
533.698	6.06
533.898	6.02
534.097	6.06
534.297	6.13
534.496	6.11
534.696	6.16
534.895	6.27
535.095	6.3
535.294	6.22
535.494	6.19
535.693	6.13
535.892	6.07
536.092	6.01
536.291	6.05
536.491	6.15
536.69	6.21
536.889	6.19
537.088	6.2
537.288	6.29
537.487	6.37
537.686	6.38
537.886	6.44
538.085	6.53
538.284	6.58
538.483	6.51
538.682	6.57
538.882	6.52
539.081	6.58
539.28	6.48
539.479	6.47
539.678	6.4
539.877	6.53
540.076	6.49
540.275	6.53
540.474	6.64
540.673	6.72
540.872	6.68
541.071	6.68
541.27	6.75
541.469	6.77
541.668	6.81
541.867	6.87
542.066	6.96
542.265	6.98
542.464	6.97
542.663	6.95
542.862	7.05
543.06	7.11
543.259	7.11
543.458	7.18
543.657	7.31
543.856	7.32
544.054	7.26
544.253	7.26
544.452	7.22
544.651	7.27
544.849	7.24
545.048	7.33
545.247	7.37
545.445	7.45
545.644	7.41
545.843	7.42
546.041	7.48
546.24	7.57
546.438	7.71
546.637	7.77
546.836	7.87
547.034	7.91
547.233	7.94
547.431	7.87
547.63	7.91
547.828	7.92
548.027	7.97
548.225	7.97
548.423	7.97
548.622	8.07
548.82	8.13
549.019	8.16
549.217	8.27
549.415	8.35
549.614	8.36
549.812	8.35
550.01	8.38
550.209	8.45
550.407	8.53
550.605	8.56
550.803	8.68
551.002	8.73
551.2	8.67
551.398	8.75
551.596	8.84
551.794	8.91
551.993	8.97
552.191	9.07
552.389	9.21
552.587	9.26
552.785	9.32
552.983	9.42
553.181	9.54
553.379	9.6
553.577	9.66
553.775	9.77
553.973	9.84
554.171	9.96
554.369	9.93
554.567	9.98
554.765	10.02
554.963	10.03
555.161	10.01
555.359	10.1
555.557	10.24
555.755	10.34
555.952	10.55
556.15	10.61
556.348	10.73
556.546	10.77
556.744	10.81
556.941	10.71
557.139	10.79
557.337	10.81
557.535	10.87
557.732	10.97
557.93	11.25
558.128	11.37
558.325	11.5
558.523	11.51
558.721	11.64
558.918	11.57
559.116	11.71
559.313	11.73
559.511	11.97
559.708	11.96
559.906	12.07
560.104	12.08
560.301	12.22
560.498	12.23
560.696	12.29
560.893	12.39
561.091	12.51
561.288	12.63
561.486	12.74
561.683	12.92
561.88	13.01
562.078	13.15
562.275	13.14
562.473	13.19
562.67	13.33
562.867	13.49
563.064	13.56
563.262	13.65
563.459	13.82
563.656	13.96
563.853	13.96
564.051	14.08
564.248	14.31
564.445	14.4
564.642	14.39
564.839	14.57
565.036	14.67
565.234	14.8
565.431	14.84
565.628	14.99
565.825	15.06
566.022	15.15
566.219	15.13
566.416	15.3
566.613	15.38
566.81	15.47
567.007	15.5
567.204	15.56
567.401	15.51
567.598	15.5
567.795	15.46
567.991	15.51
568.188	15.61
568.385	15.75
568.582	15.85
568.779	16.1
568.976	16.3
569.172	16.43
569.369	16.44
569.566	16.57
569.763	16.57
569.96	16.59
570.156	16.56
570.353	16.69
570.55	16.72
570.746	16.73
570.943	16.77
571.14	16.85
571.336	16.92
571.533	17
571.729	17
571.926	17.06
572.123	17.15
572.319	17.19
572.516	17.18
572.712	17.26
572.909	17.32
573.105	17.4
573.302	17.46
573.498	17.58
573.695	17.66
573.891	17.67
574.087	17.63
574.284	17.59
574.48	17.53
574.677	17.56
574.873	17.6
575.069	17.73
575.266	17.75
575.462	17.7
575.658	17.83
575.854	17.87
576.051	17.89
576.247	17.91
576.443	17.95
576.639	17.86
576.835	17.79
577.032	17.75
577.228	17.94
577.424	18.07
577.62	18.1
577.816	18.23
578.012	18.23
578.208	18.09
578.404	18.01
578.6	17.97
578.796	17.98
578.993	18.04
579.189	18.05
579.384	17.98
579.58	18.02
579.776	18.03
579.972	17.99
580.168	17.94
580.364	17.99
580.56	18
580.756	17.94
580.952	17.93
581.148	17.99
581.343	18.06
581.539	18.11
581.735	18.11
581.931	18.19
582.127	18.24
582.322	18.21
582.518	18.2
582.714	18.15
582.909	18.11
583.105	18.01
583.301	17.96
583.496	17.92
583.692	17.93
583.888	17.86
584.083	17.93
584.279	18.01
584.474	18.05
584.67	18.09
584.866	18.09
585.061	17.94
585.257	17.97
585.452	17.94
585.648	17.86
585.843	17.95
586.039	18.11
586.234	18.05
586.429	18.01
586.625	18.15
586.82	18.11
587.015	18.08
587.211	17.95
587.406	17.95
587.601	17.81
587.797	17.8
587.992	17.74
588.187	17.93
588.383	17.94
588.578	18.02
588.773	18.09
588.968	18.22
589.163	18.24
589.359	18.22
589.554	18.3
589.749	18.27
589.944	18.25
590.139	18.25
590.334	18.27
590.529	18.22
590.724	18.27
590.919	18.39
591.114	18.37
591.309	18.52
591.504	18.7
591.699	18.75
591.894	18.74
592.089	18.8
592.284	18.78
592.479	18.81
592.674	18.77
592.869	18.87
593.064	19.07
593.259	19.18
593.454	19.27
593.648	19.44
593.843	19.49
594.038	19.45
594.233	19.46
594.428	19.43
594.622	19.45
594.817	19.62
595.012	19.67
595.206	19.79
595.401	19.83
595.596	19.94
595.79	19.97
595.985	20.13
596.18	20.18
596.374	20.35
596.569	20.47
596.763	20.37
596.958	20.38
597.153	20.42
597.347	20.38
597.542	20.45
597.736	20.5
597.931	20.57
598.125	20.66
598.319	20.8
598.514	20.8
598.708	20.98
598.903	20.99
599.097	21.04
599.291	21.14
599.486	21.07
599.68	21.05
599.874	21.24
600.069	21.28
600.263	21.22
600.457	21.43
600.651	21.44
600.846	21.42
601.04	21.46
601.234	21.59
601.428	21.61
601.622	21.72
601.817	21.75
602.011	21.78
602.205	21.8
602.399	21.85
602.593	21.87
602.787	21.88
602.981	21.91
603.175	21.98
603.369	21.89
603.563	22
603.757	22.17
603.951	22.21
604.145	22.18
604.339	22.31
604.533	22.14
604.727	22.04
604.921	22
605.115	22.05
605.309	22.06
605.502	22.15
605.696	22.04
605.89	22.04
606.084	21.95
606.278	21.86
606.471	21.81
606.665	21.86
606.859	21.8
607.053	21.69
607.246	21.63
607.44	21.55
607.634	21.49
607.827	21.51
608.021	21.44
608.214	21.4
608.408	21.29
608.602	21.2
608.795	21.1
608.989	21.16
609.182	21.11
609.376	21.21
609.569	21.21
609.763	21.12
609.956	20.98
610.15	20.88
610.343	20.77
610.537	20.7
610.73	20.71
610.923	20.7
611.117	20.73
611.31	20.67
611.504	20.6
611.697	20.46
611.89	20.36
612.083	20.27
612.277	20.19
612.47	20.1
612.663	20.06
612.856	20.06
613.05	19.97
613.243	19.9
613.436	19.85
613.629	19.85
613.822	19.75
614.015	19.67
614.209	19.51
614.402	19.5
614.595	19.34
614.788	19.26
614.981	19.18
615.174	19.14
615.367	18.99
615.56	18.94
615.753	18.88
615.946	18.79
616.139	18.78
616.332	18.87
616.525	18.86
616.718	18.85
616.911	18.79
617.103	18.81
617.296	18.72
617.489	18.63
617.682	18.54
617.875	18.46
618.067	18.38
618.26	18.33
618.453	18.4
618.646	18.42
618.838	18.45
619.031	18.53
619.224	18.54
619.417	18.51
619.609	18.5
619.802	18.49
619.994	18.34
620.187	18.3
620.38	18.2
620.572	18.12
620.765	18.16
620.957	18.1
621.15	17.95
621.342	17.93
621.535	17.93
621.727	17.85
621.92	17.8
622.112	17.75
622.305	17.77
622.497	17.7
622.69	17.67
622.882	17.7
623.074	17.82
623.267	17.73
623.459	17.67
623.651	17.56
623.844	17.6
624.036	17.54
624.228	17.5
624.42	17.51
624.613	17.7
624.805	17.63
624.997	17.65
625.189	17.61
625.381	17.68
625.574	17.56
625.766	17.46
625.958	17.4
626.15	17.46
626.342	17.4
626.534	17.35
626.726	17.37
626.918	17.33
627.11	17.23
627.302	17.2
627.494	17.17
627.686	17.17
627.878	17.09
628.07	17.03
628.262	16.97
628.454	16.95
628.646	16.99
628.838	17.05
629.029	17.12
629.221	17.14
629.413	17
629.605	16.81
629.797	16.66
629.989	16.62
630.18	16.52
630.372	16.54
630.564	16.66
630.755	16.72
630.947	16.75
631.139	16.65
631.33	16.59
631.522	16.55
631.714	16.56
631.905	16.42
632.097	16.46
632.289	16.46
632.48	16.34
632.672	16.23
632.863	16.14
633.055	16.17
633.246	16.14
633.438	16.06
633.629	16.1
633.821	16.16
634.012	16.03
634.203	15.92
634.395	16
634.586	15.92
634.777	15.85
634.969	15.87
635.16	15.98
635.351	15.88
635.543	15.93
635.734	15.95
635.925	15.86
636.117	15.81
636.308	15.77
636.499	15.68
636.69	15.58
636.881	15.65
637.073	15.71
637.264	15.71
637.455	15.73
637.646	15.96
637.837	15.96
638.028	15.86
638.219	15.91
638.41	15.85
638.601	15.65
638.792	15.69
638.983	15.68
639.174	15.58
639.365	15.61
639.556	15.52
639.747	15.4
639.938	15.38
640.129	15.33
640.32	15.22
640.511	15.29
640.701	15.43
640.892	15.37
641.083	15.54
641.274	15.6
641.465	15.59
641.655	15.33
641.846	15.3
642.037	15.17
642.228	15.08
642.418	15.11
642.609	15.19
642.8	15.27
642.99	15.18
643.181	15.26
643.372	15.23
643.562	15.25
643.753	15.08
643.943	15.04
644.134	14.88
644.324	14.76
644.515	14.75
644.705	14.86
644.896	14.92
645.086	14.98
645.277	14.93
645.467	14.85
645.658	14.77
645.848	14.7
646.038	14.74
646.229	14.74
646.419	14.69
646.61	14.67
646.8	14.65
646.99	14.61
647.18	14.58
647.371	14.57
647.561	14.5
647.751	14.49
647.941	14.4
648.132	14.43
648.322	14.44
648.512	14.52
648.702	14.53
648.892	14.55
649.082	14.5
649.272	14.35
649.462	14.16
649.653	14.08
649.843	14.06
650.033	14.08
650.223	14.14
650.413	14.15
650.603	14.14
650.793	14.07
650.983	14.03
651.172	13.94
651.362	13.96
651.552	13.87
651.742	13.81
651.932	13.8
652.122	13.85
652.312	13.85
652.502	13.86
652.691	13.88
652.881	13.74
653.071	13.67
653.261	13.61
653.45	13.51
653.64	13.47
653.83	13.33
654.019	13.21
654.209	13.04
654.399	12.97
654.588	12.8
654.778	12.74
654.968	12.56
655.157	12.49
655.347	12.35
655.536	12.25
655.726	12.15
655.915	12.16
656.105	12.11
656.294	12.03
656.484	11.86
656.673	11.78
656.863	11.6
657.052	11.39
657.241	11.2
657.431	11.01
657.62	10.81
657.809	10.6
657.999	10.52
658.188	10.44
658.377	10.31
658.567	10.2
658.756	10.07
658.945	9.9
659.134	9.72
659.324	9.63
659.513	9.53
659.702	9.43
659.891	9.33
660.08	9.19
660.269	9.15
660.458	8.99
660.648	8.87
660.837	8.71
661.026	8.63
661.215	8.38
661.404	8.17
661.593	8.13
661.782	7.9
661.971	7.82
662.16	7.78
662.349	7.77
662.538	7.56
662.726	7.53
662.915	7.27
663.104	7.11
663.293	7.09
663.482	7.09
663.671	7.08
663.86	6.99
664.048	6.93
664.237	6.9
664.426	6.74
664.615	6.64
664.803	6.61
664.992	6.5
665.181	6.24
665.369	6.18
665.558	6.15
665.747	6.12
665.935	6.17
666.124	6.26
666.312	6.27
666.501	6.15
666.69	6.05
666.878	5.96
667.067	5.73
667.255	5.81
667.444	6.06
667.632	6.11
667.82	6.16
668.009	6.19
668.197	6.04
668.386	5.89
668.574	5.97
668.762	5.9
668.951	5.9
669.139	5.85
669.327	5.72
669.516	5.83
669.704	5.76
669.892	5.95
670.08	5.93
670.269	5.85
670.457	5.71
670.645	5.66
670.833	5.71
671.021	5.74
671.21	5.92
671.398	6.09
671.586	6.12
671.774	6.02
671.962	6.11
672.15	6.09
672.338	5.96
672.526	6.11
672.714	5.99
672.902	6.03
673.09	6.15
673.278	6.34
673.466	6.38
673.654	6.57
673.842	6.54
674.03	6.53
674.218	6.43
674.405	6.44
674.593	6.46
674.781	6.66
674.969	6.69
675.157	6.83
675.344	7.02
675.532	7.12
675.72	7.18
675.908	7.29
676.095	7.13
676.283	7.08
676.471	7.27
676.658	7.28
676.846	7.28
677.033	7.47
677.221	7.57
677.409	7.37
677.596	7.49
677.784	7.57
677.971	7.62
678.159	7.76
678.346	8.03
678.534	8.08
678.721	8.31
678.909	8.41
679.096	8.36
679.283	8.5
679.471	8.62
679.658	8.65
679.846	8.96
680.033	9.27
680.22	9.2
680.408	9.27
680.595	9.39
680.782	9.2
680.969	9.28
681.157	9.52
681.344	9.58
681.531	9.61
681.718	9.78
681.905	9.9
682.093	9.97
682.28	10.12
682.467	10.41
682.654	10.6
682.841	10.74
683.028	10.97
683.215	11.02
683.402	10.91
683.589	11.18
683.776	11.29
683.963	11.47
684.15	11.86
684.337	12.3
684.524	12.34
684.711	12.71
684.898	12.75
685.085	12.91
685.271	13.16
685.458	13.36
685.645	13.42
685.832	13.85
686.019	14.14
686.205	14.34
686.392	14.79
686.579	15.18
686.766	15.55
686.952	15.99
687.139	16.61
687.326	16.94
687.512	17.37
687.699	17.66
687.886	17.89
688.072	18.15
688.259	18.63
688.445	19.1
688.632	19.53
688.818	20.23
689.005	20.7
689.191	21.16
689.378	21.8
689.564	22.29
689.751	22.83
689.937	23.3
690.124	24
690.31	24.18
690.496	24.82
690.683	25.38
690.869	25.86
691.055	26.28
691.242	27.2
691.428	27.9
691.614	28.43
691.8	29.47
691.987	30.17
692.173	30.8
692.359	31.61
692.545	32.34
692.731	32.6
692.918	33.27
693.104	33.85
693.29	34.4
693.476	35.1
693.662	36.07
693.848	36.72
694.034	37.42
694.22	37.89
694.406	38.5
694.592	39.22
694.778	40.03
694.964	40.71
695.15	41.58
695.336	42.09
695.522	42.97
695.708	43.56
695.894	44.27
696.08	44.9
696.265	45.74
696.451	46.24
696.637	46.98
696.823	47.62
697.009	47.96
697.194	48.37
697.38	48.66
697.566	48.94
697.751	49.64
697.937	50.77
698.123	51.52
698.308	52.19
698.494	53.03
698.68	53.29
698.865	53.7
699.051	54.27
699.236	54.95
699.422	55.38
699.607	55.85
699.793	56.34
699.978	56.75
700.164	57.21
700.349	58.07
700.535	58.91
700.72	59.39
700.906	60.37
701.091	60.82
701.276	61.2
701.462	61.75
701.647	62.6
701.832	62.63
702.018	63.12
702.203	63.08
702.388	63.26
702.573	63.49
702.759	64.15
702.944	64.39
703.129	65.1
703.314	65.53
703.499	65.82
703.684	65.93
703.87	66.77
704.055	67.47
704.24	67.68
704.425	68.26
704.61	68.77
704.795	69
704.98	69.06
705.165	69.44
705.35	69.43
705.535	69.87
705.72	69.97
705.905	70.46
706.09	71.06
706.275	71.24
706.459	71.03
706.644	71.36
706.829	71.62
707.014	71.51
707.199	71.99
707.384	72.85
707.568	73.14
707.753	73.41
707.938	73.87
708.123	73.58
708.307	73.33
708.492	73.78
708.677	73.97
708.861	74.16
709.046	74.67
709.231	75.4
709.415	75.36
709.6	75.36
709.784	75.21
709.969	75.61
710.153	75.55
710.338	75.71
710.522	75.92
710.707	76.6
710.891	76.54
711.076	76.94
711.26	76.85
711.445	77.22
711.629	77.34
711.813	77.76
711.998	77.79
712.182	78.21
712.366	78.6
712.551	79.01
712.735	79.2
712.919	79.13
713.103	79.36
713.288	79.16
713.472	78.87
713.656	79.06
713.84	79.26
714.024	79.6
714.208	79.46
714.393	79.98
714.577	79.93
714.761	79.83
714.945	79.71
715.129	80.01
715.313	79.96
715.497	79.96
715.681	80.8
715.865	80.84
716.049	80.91
716.233	80.85
716.417	81.17
716.601	80.86
716.785	80.8
716.968	80.93
717.152	80.77
717.336	81.31
717.52	81.33
717.704	81.66
717.888	82.1
718.071	82.55
718.255	82.55
718.439	82.6
718.622	82.5
718.806	82.64
718.99	82.24
719.174	81.97
719.357	81.91
719.541	82.15
719.724	81.7
719.908	82.81
720.092	83.34
720.275	83.79
720.459	83.66
720.642	84.04
720.826	83.45
721.009	82.86
721.193	82.13
721.376	82.32
721.559	82.56
721.743	83.15
721.926	83.43
722.11	84.29
722.293	83.77
722.476	83.32
722.66	83.31
722.843	83.1
723.026	82.66
723.21	83.24
723.393	84.13
723.576	83.7
723.759	83.79
723.942	84.15
724.126	84
724.309	83.53
724.492	83.86
724.675	84.01
724.858	84.52
725.041	85.04
725.224	85.62
725.407	86.53
725.59	87.06
725.774	86.32
725.957	85.74
726.14	85.31
726.322	84.58
726.505	84.28
726.688	85.25
726.871	85.32
727.054	85.4
727.237	85.03
727.42	85.33
727.603	84.59
727.786	85.26
727.968	84.72
728.151	85.26
728.334	84.71
728.517	84.92
728.699	85.34
728.882	85.82
729.065	86.28
729.248	87.29
729.43	87.64
729.613	88.11
729.796	89.01
729.978	88.55
730.161	88.32
730.343	88.13
730.526	88.21
730.708	87.1
730.891	86.83
731.073	86.62
731.256	86.62
731.438	85.69
731.621	86.96
731.803	87.38
731.986	87.41
732.168	87.37
732.35	87.72
732.533	87
732.715	87.21
732.898	87.89
733.08	88.02
733.262	88.2
733.444	88.56
733.627	88.43
733.809	88.72
733.991	89.33
734.173	89.1
734.355	89.02
734.538	89.1
734.72	88.15
734.902	88.33
735.084	88.64
735.266	87.95
735.448	88.54
735.63	89.14
735.812	88.82
735.994	90.02
736.176	90.93
736.358	90.68
736.54	91.36
736.722	90.58
736.904	89.13
737.086	89.15
737.268	90.12
737.45	89.56
737.632	90.55
737.814	90.53
737.995	91.26
738.177	90.25
738.359	89.96
738.541	89.92
738.723	90.4
738.904	90.46
739.086	90.55
739.268	90.5
739.449	91.3
739.631	90.83
739.813	90.21
739.994	90.64
740.176	91.32
740.358	90.65
740.539	91.83
740.721	92.14
740.902	93
741.084	92.17
741.265	91.92
741.447	91.63
741.628	92.44
741.81	90.61
741.991	92.22
742.172	93.74
742.354	94.91
742.535	93.68
742.717	94.65
742.898	94.31
743.079	94.19
743.261	93.19
743.442	92.44
743.623	93.26
743.804	92.82
743.986	92.19
744.167	90.64
744.348	91.24
744.529	90.74
744.71	89.99
744.891	89.72
745.073	89.81
745.254	89.97
745.435	89.79
745.616	89.5
745.797	89.58
745.978	89.83
746.159	90.29
746.34	89.39
746.521	91.47
746.702	90.66
746.883	90.71
747.064	90.39
747.245	91.06
747.426	89.16
747.606	89.69
747.787	90.19
747.968	89.04
748.149	88.96
748.33	90.16
748.51	90.17
748.691	90.15
748.872	91.65
749.053	90.92
749.233	89.71
749.414	88.23
749.595	87.39
749.775	85.72
749.956	86.42
750.137	86.75
750.317	89.14
750.498	91.06
750.678	92.2
750.859	93.13
751.04	93.65
751.22	92.67
751.4	91.96
751.581	90.69
751.761	90.67
751.942	91.64
752.122	90.9
752.303	89.56
752.483	89.59
752.663	88.49
752.844	86.94
753.024	87.81
753.204	88.79
753.385	88.49
753.565	88.54
753.745	88.33
753.925	88.52
754.106	88.13
754.286	88.6
754.466	88.3
754.646	88.77
754.826	87.74
755.006	86.82
755.187	88.45
755.367	89.91
755.547	90.04
755.727	91.16
755.907	92.75
756.087	93.14
756.267	92.11
756.447	91.27
756.627	89.33
756.807	88.97
756.987	87.47
757.167	87.23
757.346	87.21
757.526	86.96
757.706	87.33
757.886	87.79
758.066	87.63
758.246	89.02
758.425	89.52
758.605	88.66
758.785	88.82
758.965	88.61
759.144	86.31
759.324	86.93
759.504	86.88
759.683	87.33
759.863	86.42
760.043	86.5
760.222	85.73
760.402	85.55
760.581	84.28
760.761	86.09
760.94	84.81
761.12	87.19
761.299	87.28
761.479	88.08
761.658	86.24
761.838	89.28
762.017	88.14
762.197	89.11
762.376	88.04
762.555	88.42
762.735	88.54
762.914	88.14
763.093	87.71
763.273	87.48
763.452	88.49
763.631	87.92
763.81	88.04
763.99	88.11
764.169	89.12
764.348	86.68
764.527	85.01
764.706	86.01
764.885	87.59
765.064	86.15
765.243	88
765.423	89.95
765.602	87.95
765.781	84.79
765.96	84.91
766.139	83.72
766.318	84.02
766.497	84.76
766.676	85.43
766.854	85.69
767.033	86.76
767.212	84.44
767.391	84.27
767.57	85.34
767.749	85.15
767.928	85.06
768.106	85.62
768.285	84.5
768.464	83.42
768.643	84.79
768.821	84
769	85.51
769.179	85.51
769.357	84.12
769.536	82.96
769.715	84.61
769.893	85.55
770.072	85.85
770.25	87.91
770.429	89.2
770.607	87.59
770.786	85.54
770.964	86.56
771.143	86.74
771.321	86.28
771.5	86.53
771.678	85.99
771.857	83.63
772.035	83.11
772.213	82.34
772.392	81.83
772.57	83.33
772.748	85.56
772.927	84.04
773.105	83.78
773.283	83.92
773.461	84.26
773.64	83.95
773.818	85.61
773.996	87.74
774.174	87.13
774.352	84.9
774.531	81.59
774.709	83.55
774.887	81.39
775.065	83.36
775.243	84.8
775.421	87.54
775.599	86.24
775.777	84.51
775.955	80.76
776.133	77.51
776.311	75.95
776.489	73.92
776.667	75.98
776.844	77.84
777.022	77.7
777.2	78.59
777.378	79.34
777.556	79.04
777.734	81.59
777.911	84.99
778.089	85.67
778.267	85.26
778.445	84.71
778.622	82.7
778.8	82.79
778.978	82.92
779.155	80.67
779.333	80.98
779.511	81.64
779.688	82.64
779.866	79.56
780.043	78.19
780.221	77.52
780.398	76.2
780.576	76.15
780.753	78.96
780.931	80.59
781.108	79.83
781.286	79.86
781.463	77.66
781.64	74.55
781.818	77.06
781.995	79
782.172	79.56
782.35	81.17
782.527	84.15
782.704	84.4
782.882	84.35
783.059	83.49
783.236	80.3
783.413	82.03
783.59	80.85
783.768	78.46
783.945	79.89
784.122	82.76
784.299	80.59
784.476	80.39
784.653	80.42
784.83	77.32
785.007	73.2
785.184	72.89
785.361	71.82
785.538	75.99
785.715	81.06
785.892	85.09
786.069	87.37
786.246	88.25
786.423	88.84
786.6	87.16
786.776	86.79
786.953	84.9
787.13	88.37
787.307	83.59
787.484	82.57
787.66	78.2
787.837	78.22
788.014	73.65
788.191	74.85
788.367	71.49
788.544	77.91
788.721	76.73
788.897	81.89
789.074	83.37
789.25	82.76
789.427	80.86
789.603	81.55
789.78	77.7
789.956	74.93
790.133	77.94
790.309	75.38
790.486	78.7
790.662	80.11
790.839	82.09
791.015	80.11
791.192	79.84
791.368	80.7
791.544	79.2
791.721	78.95
791.897	78.9
792.073	77.57
792.249	68.61
792.426	70.42
792.602	75.1
792.778	77.41
792.954	78.68
793.13	79.16
793.307	71.27
793.483	61.79
793.659	59.38
793.835	61.71
794.011	66.48
794.187	70.36
794.363	70.51
794.539	75.55
794.715	73
794.891	72.78
795.067	72.15
795.243	76.26
795.419	71.59
795.595	69.65
795.771	69.12
795.947	68.33
796.122	65.12
796.298	70.8
796.474	70.49
796.65	70.13
796.826	69.35
797.001	70.86
797.177	67.39
797.353	71.78
797.529	73.07
797.704	76.43
797.88	72.18
798.056	69.36
798.231	64.77
798.407	64.85
798.582	64.17
798.758	75.36
798.934	82.43
799.109	84.05
799.285	84.42
799.46	84.58
799.636	80.17
799.811	75.39
799.986	77.49
800.162	78.41
800.337	83.95
800.513	77.74
800.688	78.1
800.863	84.8
801.039	79.27
801.214	74.17
801.389	79.14
801.565	75.78
801.74	64.9
801.915	71.52
802.09	72.42
802.265	79.42
802.441	80.86
802.616	82.1
802.791	80.74
802.966	78.94
803.141	76.65
803.316	69.03
803.491	72.92
803.666	74.25
803.841	70.65
804.016	64.2
804.191	74.81
804.366	71.13
804.541	69.35
804.716	68.13
804.891	65.9
805.066	68.22
805.241	64.72
805.416	59.67
805.591	60.68
805.765	65.97
805.94	65.89
806.115	68.86
806.29	67.63
806.464	69.1
806.639	63.64
806.814	57.91
806.989	54.57
807.163	61.67
807.338	65.92
807.512	62.56
807.687	56.28
807.862	68.79
808.036	72.62
808.211	70.12
808.385	81.3
808.56	87.21
808.734	91.33
808.909	89.6
809.083	82
809.258	77.88
809.432	82.46
809.606	60.13
809.781	57.8
809.955	64.2
810.13	68.5
810.304	61.35
810.478	61.91
810.652	63.73
810.827	64.89
811.001	57.1
811.175	59.26
811.349	61.24
811.524	58.66
811.698	49.11
811.872	53.06
812.046	58.49
812.22	63.77
812.394	63.68
812.568	69.73
812.742	74
812.916	69.45
813.09	66.12
813.264	60.69
813.438	65.24
813.612	55.04
813.786	53.97
813.96	68.59
814.134	75.61
814.308	85.66
814.482	95.57
814.656	87.66
814.83	79.22
815.003	75.08
815.177	59.81
815.351	49.31
815.525	54.1
815.698	43.96
815.872	37.62
816.046	32.54
816.219	46.78
816.393	54.67
816.567	72.71
816.74	77.95
816.914	80.86
817.088	85.17
817.261	82.62
817.435	65.2
817.608	70.45
817.782	73.96
817.955	64.38
818.129	56.02
818.302	62.39
818.475	65.62
818.649	65.34
818.822	54.75
818.996	74.87
819.169	77.51
819.342	58.12
819.516	67.11
819.689	75.55
819.862	58.39
820.035	49.62
820.209	61.62
820.382	55.53
820.555	55.79
820.728	50.23
820.901	51.11
821.075	48
821.248	50.46
821.421	45.7
821.594	39.01
821.767	53.35
821.94	65.56
822.113	41.13
822.286	43.51
822.459	65.73
822.632	57.71
822.805	45.08
822.978	55.85
823.151	54.41
823.324	36.62
823.496	21.27
823.669	29.33
823.842	41.91
824.015	32.78
824.188	22.8
824.361	30.35
824.533	17.94
824.706	17.29
824.879	15.65
825.051	36.61
825.224	40.44
825.397	30.59
825.569	24.31
825.742	52.91
825.915	58.98
826.087	71.58
826.26	65.65
826.432	75.18
826.605	71.48
826.777	50.21
826.95	47.74
827.122	41.96
827.295	41.58
827.467	41.39
827.64	28.77
827.812	12.1
827.984	28.22
828.157	16.11
828.329	-25.57
828.501	4.29
828.674	35.68
828.846	23.67
829.018	41.21
829.19	39.12
829.363	60.03
829.535	61.42
829.707	71.57
829.879	45.15
830.051	50.03
830.223	40.33
830.395	10.16
830.568	-0.62
830.74	12.89
830.912	48.64
831.084	22.83
831.256	25.01
831.428	31.34
831.6	16.61
831.772	-22.83
831.943	-39.76
832.115	-5.67
832.287	-1.87
832.459	13.77
832.631	42.32
832.803	76.31
832.975	91.47
833.146	77.17
833.318	68.34
833.49	60.58
833.662	35.16
833.833	8.66
834.005	20.61
834.177	32.51
834.348	15.51
834.52	6.24
834.692	1.79
834.863	-16.35
835.035	-17.84
835.206	-69.38
835.378	-26.69
835.549	-13.64
835.721	8.67
835.892	9.24
836.064	30.52
836.235	12.51
836.407	43.81
836.578	16.05
836.749	50.8
836.921	6.36
837.092	-27.01
837.264	-54.08
837.435	-58.28
837.606	-15.67
837.777	30.87
837.949	51.88
838.12	56.25
838.291	65.72
838.462	48.38
838.633	20.67
838.805	22.35
838.976	18.99
839.147	-3.34
839.318	-29.46
839.489	-61.71
839.66	-79.11
839.831	-29.8
840.002	-27.56
840.173	-60.91
840.344	-6.57
840.515	30.66
840.686	-16.58
840.857	-44.59
841.028	23.24
841.199	13.16
841.369	-23.67
841.54	-13.66
841.711	29.41
841.882	34.09
842.053	8.22
842.223	-1.89
842.394	7.78
842.565	-10.32
842.736	8.32
842.906	16.07
843.077	39.01
843.248	68.73
843.418	81.19
843.589	47.39
843.759	153.83
843.93	136.89
844.101	43.11
844.271	46.17
844.442	64.98
844.612	63.64
844.783	28.65
844.953	4.15
845.123	-12.32
845.294	-20.96
845.464	-271.34
845.635	-79.63
845.805	26.99
845.975	35.08
846.146	4.2
846.316	5.77
846.486	22.61
846.656	47.52
846.827	37.16
846.997	45.57
847.167	101.86
847.337	49.81
847.507	-4.47
847.677	6.69
847.848	52.6
848.018	42.13
848.188	54.33
848.358	49.17
848.528	34.13
848.698	-16.76
848.868	-109.66
849.038	-209.24
849.208	-66.99
849.378	-7.32
849.548	1.05
849.718	3.39
849.887	25.45
850.057	3.87
850.227	-41.79
850.397	-82.1
850.567	-122
850.737	-349.57
850.906	-1158.75
851.076	-642.19
851.246	-108.38
851.415	-21.16
851.585	0.59
851.755	-14.56
851.924	24.59
852.094	15.11
852.264	-3.98
852.433	-559.62
852.603	-66.83
852.772	-11.26
852.942	-9.47
853.111	-3.39
853.281	27.75
853.45	71.72
853.62	-4.97
853.789	-18.86
853.959	32.06
854.128	38.45
854.297	-35.82
854.467	-24.94
854.636	48.99
854.805	45.06
854.975	29.12
855.144	68.22
855.313	367.13
855.482	24.09
855.652	-84.51
855.821	-20.93
855.99	64.02
856.159	54.3
856.328	56.8
856.497	65.51
856.667	70.16
856.836	80.53
857.005	36.85
857.174	12.04
857.343	25.04
857.512	24.66
857.681	-10.11
857.85	-40.81
858.019	6.13
858.188	-27.01
858.356	-39.27
858.525	-115.33
858.694	-70.52
858.863	-219.83
859.032	-134.95
859.201	-223.12
859.369	-85.71
859.538	-75.32
859.707	-82.15
859.876	-91.38
860.044	-30.61
860.213	28.49
860.382	14.3
860.55	48.67
860.719	50.96
860.888	60.13
861.056	18.44
861.225	22.55
861.393	67.83
861.562	95.74
861.73	20.51
861.899	21.99
862.067	-486.21
862.236	-17.77
862.404	-101.15
862.572	-22.2
862.741	28.45
862.909	43.5
863.078	-31.85
863.246	-43.76
863.414	-42.86
863.582	-22.56
863.751	-57.35
863.919	-32.2
864.087	47.7
864.255	37.21
864.424	-193.63
864.592	4.02
864.76	-5.24
864.928	-31.2
865.096	-42.99
865.264	4.85
865.432	-559.09
865.6	163.5
865.768	-24.37
865.936	-29.66
866.104	41.43
866.272	55.31
866.44	-147.64
866.608	342.39
866.776	176.57
866.944	2030.23
867.112	-358.47
867.28	-133.57
867.448	-31.77
867.615	18.09
867.783	21.96
867.951	10.25
868.119	29.28
868.286	7.88
868.454	-63.86
868.622	-37.23
868.789	-3.38
868.957	1007.14
869.125	-189.47
869.292	24.32
869.46	-28.13
869.627	73.7
869.795	11.37
869.963	19.63
870.13	37.44
870.298	31.4
870.465	-42.38
870.632	-30.5
870.8	-28.36
870.967	-97.84
871.135	-114.34
871.302	-108.95
871.469	-120.8
871.637	-58.72
871.804	-18.01
871.971	-36.17
872.139	-252.56
872.306	75.99
872.473	12.17
872.64	-51.5
872.807	34.09
872.975	97.41
873.142	-176.73
873.309	1629.73
873.476	78.36
873.643	143.48
873.81	108.99
873.977	119.47
874.144	113.17
874.311	-27.53
874.478	-109.32
874.645	-155.71
874.812	-136.92
874.979	-78.99
875.146	-75.99
875.313	-88.28
875.48	-10.98
875.647	-4.31
875.813	-35.19
875.98	-11.71
876.147	-16.95
876.314	-57.23
876.481	684.3
876.647	-1088.76
876.814	396.37
876.981	12.69
877.147	21.69
877.314	22.35
877.481	43.29
877.647	52.83
877.814	7.83
877.98	-75.59
878.147	1.68
878.314	59.72
878.48	21.6
878.647	51.91
878.813	133.79
878.979	110.64
879.146	70.13
879.312	47.48
879.479	30.9
879.645	-127.66
879.811	-289.59
879.978	-737.4
880.144	-155.06
880.31	-57.57
880.477	-244.38
880.643	-287.32
880.809	-129.39
880.975	-117.57
881.142	-1150.91
881.308	-127.73
881.474	-45.97
881.64	13.4
881.806	-26.45
881.972	41.11
882.138	83.1
882.304	140.06
882.47	-40.58
882.636	-226.23
882.802	-43.95
882.968	6.99
883.134	-8.49
883.3	-15.17
883.466	9.45
883.632	43.85
883.798	-2.18
883.964	-30.16
884.129	-25.22
884.295	22.8
884.461	-63.99
884.627	-67.66
884.793	-57.16
884.958	-21.91
885.124	-147.65
885.29	-218.85
885.455	-301.46
885.621	-60.98
885.787	-116.45
885.952	-12.52
886.118	-18.77
886.283	-13.22
886.449	-102.2
886.614	-110.89
886.78	-238.85
886.945	747.54
887.111	-527.17
887.276	-354.55
887.442	-728.18
887.607	-244.81
887.773	-195.86
887.938	-179.37
888.103	-205.26
888.269	-43.37
888.434	-196.22
888.599	-9.95
888.764	91.41
888.93	62.92
889.095	36.8
889.26	6.58
889.425	49.08
889.59	61.86
889.756	26.25
889.921	20.74
890.086	56.09
890.251	-1.9
890.416	-96.11
890.581	-832.26
890.746	96.43
890.911	194.9
891.076	90.23
891.241	-143.28
891.406	75.7
891.571	16.35
891.736	-50.92
891.901	-201.77
892.065	154.95
892.23	95.32
892.395	162.62
892.56	279.19
892.725	-210.94
892.889	-687.8
893.054	-158.04
893.219	-36.57
893.384	19.95
893.548	-27.86
893.713	-46.26
893.878	-11.21
