Data from Ofra_PS_T2_1A_2GT38_Reflection_2.txt Node
Date: Wed Jul 21 17:56:19 EDT 2021
User: Adam
Spectrometer: FLMT01687
Trigger mode: 0
Integration Time (sec): 1.100000E0
Scans to average: 2
Electric dark correction enabled: true
Nonlinearity correction enabled: false
Boxcar width: 2
XAxis mode: Wavelengths
Number of Pixels in Spectrum: 3648
>>>>>Begin Spectral Data<<<<<
179.494	609.4
179.716	667.53
179.937	629.39
180.158	619.94
180.38	874.84
180.601	357.32
180.823	94.82
181.044	-101.54
181.265	-20.77
181.486	100.2
181.708	107.1
181.929	744.39
182.15	-530.63
182.372	75.42
182.593	61.06
182.814	41.52
183.035	103.52
183.257	94.23
183.478	8.56
183.699	51.6
183.92	52.43
184.141	35.09
184.363	-34.11
184.584	25.48
184.805	8.44
185.026	40.97
185.247	32.9
185.468	20.52
185.689	20.22
185.91	40.34
186.132	24.66
186.353	24.3
186.574	93.44
186.795	68.13
187.016	12.81
187.237	-14.18
187.458	-52.75
187.679	-67.31
187.9	-48.48
188.121	-36.03
188.342	-28.61
188.563	36.99
188.784	47.66
189.005	31.79
189.226	73.16
189.447	68.25
189.667	-213.47
189.888	-448.65
190.109	-1213.96
190.33	-765.65
190.551	-1321.02
190.772	-278.63
190.993	-224.52
191.214	-238.16
191.434	-137
191.655	-39.6
191.876	-81.84
192.097	-112.54
192.318	-135.6
192.538	-234.53
192.759	-216.97
192.98	-117.51
193.201	-56.31
193.421	-48.04
193.642	4.85
193.863	23.45
194.083	3.79
194.304	-3.03
194.525	7.41
194.745	-31.07
194.966	-56.39
195.187	-42.94
195.407	-66.6
195.628	-119.46
195.848	-123.88
196.069	-125.96
196.29	-87.5
196.51	-96.64
196.731	-76.23
196.951	-81.33
197.172	-87.5
197.392	-126.64
197.613	-134.35
197.833	-171.85
198.054	-141.86
198.274	-90.4
198.495	-94.61
198.715	-45.02
198.936	-42.9
199.156	-21.77
199.377	-103.76
199.597	-108.8
199.817	-106.19
200.038	-58.91
200.258	-123.81
200.479	-41.66
200.699	-42.71
200.919	-24.58
201.14	-49.05
201.36	-63.38
201.58	-14.27
201.801	21.79
202.021	-15.68
202.241	-17.76
202.461	-17.46
202.682	-119.14
202.902	-194.91
203.122	-115.98
203.342	-101.18
203.563	-19.11
203.783	21.46
204.003	7.99
204.223	4.29
204.443	61.49
204.663	-5.08
204.884	-7.37
205.104	43.26
205.324	81.61
205.544	57.15
205.764	63.55
205.984	66.38
206.204	40.69
206.424	24.88
206.644	-15.14
206.864	12.52
207.084	-26.97
207.304	21.24
207.525	-56.8
207.745	-27.91
207.964	-24.69
208.184	-66.29
208.404	-107.27
208.624	-124.16
208.844	-111.13
209.064	-377.13
209.284	-403.04
209.504	-214.77
209.724	-57.07
209.944	-44.06
210.164	-11.81
210.384	7.57
210.604	8.5
210.823	-22.36
211.043	-30.55
211.263	-21.57
211.483	-10.9
211.703	-69.18
211.922	-49.66
212.142	-9.91
212.362	-15.55
212.582	-42.21
212.801	-16.02
213.021	-29.42
213.241	-24.98
213.461	-57.41
213.68	-63.76
213.9	-51.3
214.12	-36.69
214.339	-112.42
214.559	-75.3
214.779	-30.37
214.998	-38.05
215.218	-91.66
215.438	-42.29
215.657	-80.85
215.877	-74.25
216.096	-28.34
216.316	-6.61
216.535	-13.26
216.755	9.87
216.974	-66.87
217.194	-99.96
217.413	-112.73
217.633	-98.34
217.852	-234.69
218.072	-93.12
218.291	-49.49
218.511	-11.52
218.73	-48.78
218.95	-26.66
219.169	-38.71
219.389	-83.88
219.608	-63.29
219.827	-61.74
220.047	-43.83
220.266	-35.67
220.485	-35.84
220.705	-26.41
220.924	-32.82
221.143	1.03
221.363	-10.45
221.582	-6.74
221.801	-5.97
222.021	18.26
222.24	-81.53
222.459	-32.83
222.678	-38.81
222.897	-89.52
223.117	-132.67
223.336	-71.95
223.555	-44.71
223.774	-1.28
223.993	8.51
224.213	57.06
224.432	49.27
224.651	57.15
224.87	21.64
225.089	27.92
225.308	19.87
225.527	25.04
225.746	11.52
225.965	13.13
226.184	-0.39
226.404	9.89
226.623	-12.55
226.842	-7.7
227.061	30.63
227.28	31.24
227.499	11.34
227.718	28.1
227.936	18.01
228.155	8.14
228.374	-15.64
228.593	14.97
228.812	9.03
229.031	18.68
229.25	-43.28
229.469	-29.83
229.688	-13.4
229.907	29.34
230.125	27.54
230.344	36.38
230.563	55.54
230.782	41.49
231.001	-42.23
231.22	-47.03
231.438	-25.48
231.657	-45.82
231.876	-56.8
232.095	6.66
232.313	11.24
232.532	4.88
232.751	7.26
232.969	12.34
233.188	-23.83
233.407	42.01
233.625	25.68
233.844	-9.13
234.063	-22.3
234.281	-17.84
234.5	-43.9
234.719	-35.86
234.937	-1.31
235.156	12.39
235.374	7.47
235.593	-7.09
235.811	-22.33
236.03	-17.96
236.249	-67.36
236.467	-40.5
236.686	7.64
236.904	19.68
237.123	-17.78
237.341	-11.07
237.559	-8.49
237.778	-41.45
237.996	-67.2
238.215	-6.22
238.433	-1.56
238.652	1.13
238.87	-20.99
239.088	9.32
239.307	-6.07
239.525	-4.53
239.743	-50.71
239.962	-21.62
240.18	-89.02
240.398	-145.24
240.617	-134.29
240.835	-95.01
241.053	-60.51
241.271	-0.18
241.49	49.47
241.708	32.15
241.926	15.18
242.144	-15.25
242.363	-59.54
242.581	-99.63
242.799	-65.08
243.017	-23.78
243.235	-41.37
243.453	-25.79
243.672	-23.31
243.89	-16.56
244.108	-27.52
244.326	5.55
244.544	13.96
244.762	13.36
244.98	26.6
245.198	33.1
245.416	8.86
245.634	-18.26
245.852	-19.82
246.07	-21.92
246.288	-36.3
246.506	-90.28
246.724	-49.6
246.942	-60.65
247.16	-26.2
247.378	1.87
247.596	39.7
247.814	38.23
248.032	29.42
248.25	18.8
248.468	-0.96
248.685	-6.39
248.903	24.84
249.121	26.41
249.339	-11.37
249.557	-18.06
249.775	2.13
249.992	-67.78
250.21	-62.97
250.428	-28.86
250.646	-64.02
250.863	-98.29
251.081	-55.19
251.299	-49.54
251.517	-25.75
251.734	10.4
251.952	4.36
252.17	-1.93
252.387	10.52
252.605	-13.36
252.823	-9.99
253.04	17.29
253.258	32.37
253.475	21
253.693	57.41
253.911	64.59
254.128	68.68
254.346	81.5
254.563	49.1
254.781	25.1
254.998	-7.97
255.216	-29.76
255.433	-29.78
255.651	18.85
255.868	45.15
256.086	53.59
256.303	38.98
256.521	14.63
256.738	-0.94
256.956	-38.06
257.173	-58.08
257.39	-72.81
257.608	-97.39
257.825	-55.63
258.043	-7.34
258.26	1.94
258.477	47.1
258.695	42.99
258.912	-10.28
259.129	-6.74
259.346	-38.43
259.564	-81.18
259.781	-88.73
259.998	-15.15
260.216	4.69
260.433	51.22
260.65	47.34
260.867	70.64
261.084	35.78
261.302	9.72
261.519	-14.72
261.736	-35.24
261.953	-60.51
262.17	-14.64
262.387	-48.73
262.604	-68.17
262.822	-71.94
263.039	-66.44
263.256	-119.81
263.473	-64.47
263.69	-51.91
263.907	-5.19
264.124	8.96
264.341	0.43
264.558	-6.33
264.775	4.82
264.992	-3.37
265.209	-2.63
265.426	33.61
265.643	32.67
265.86	52.9
266.077	47.13
266.294	26.44
266.51	-27.78
266.727	-43.9
266.944	-50.89
267.161	-42.92
267.378	-26.08
267.595	7.9
267.812	-9.81
268.028	-27.46
268.245	-32.48
268.462	-57.04
268.679	-84.37
268.896	-14.96
269.112	-13.79
269.329	-16.95
269.546	-1.33
269.763	8.95
269.979	-11.98
270.196	-12.37
270.413	-47
270.629	-63.25
270.846	-81.12
271.063	-79.89
271.279	-78.12
271.496	-51.66
271.712	-20.75
271.929	4.76
272.146	1.97
272.362	-3.98
272.579	29.8
272.795	32.62
273.012	43.19
273.228	46.51
273.445	11.87
273.661	-15.88
273.878	-69.56
274.094	-81.23
274.311	-105.27
274.527	-4.74
274.744	-4.11
274.96	-2.7
275.177	2.71
275.393	1.6
275.609	-24.33
275.826	7.85
276.042	20.12
276.259	19.31
276.475	60.16
276.691	54.87
276.908	15.23
277.124	17.27
277.34	6.9
277.557	-44.33
277.773	-44.82
277.989	-47.85
278.205	-52.26
278.422	-13.38
278.638	-0.67
278.854	18.06
279.07	33.44
279.286	27.37
279.503	-24.87
279.719	-32.2
279.935	-56.93
280.151	-69.39
280.367	-39.48
280.583	-43.51
280.799	-37.61
281.016	-45.98
281.232	-19.41
281.448	-14.09
281.664	11.59
281.88	0.34
282.096	0.9
282.312	32.62
282.528	36.34
282.744	44.99
282.96	38.57
283.176	33.59
283.392	19.13
283.608	10.39
283.824	6.28
284.04	17.2
284.256	28.86
284.471	17.16
284.687	15.5
284.903	27.94
285.119	36.19
285.335	8.16
285.551	29.71
285.767	11.64
285.982	-9.64
286.198	-33.5
286.414	23.13
286.63	9.39
286.846	40.57
287.061	21.66
287.277	50.83
287.493	19.41
287.709	34.19
287.924	3.58
288.14	45.1
288.356	38.9
288.571	55.88
288.787	37.18
289.003	42.33
289.218	13.97
289.434	-26.62
289.65	-26.16
289.865	-26.41
290.081	-6.32
290.296	4.81
290.512	5.16
290.727	-25.67
290.943	-33.28
291.159	-44.6
291.374	-41.77
291.59	-58.38
291.805	-43.12
292.021	-19.5
292.236	-16.95
292.451	2.87
292.667	10.12
292.882	36.55
293.098	33.31
293.313	17.74
293.529	-32.56
293.744	-39.13
293.959	-50.33
294.175	-58.68
294.39	-18.11
294.605	10.26
294.821	32.39
295.036	31.61
295.251	46.86
295.467	7.17
295.682	-10.5
295.897	-52.31
296.112	-65.6
296.328	-53.17
296.543	-36.83
296.758	-34.12
296.973	8.29
297.188	46.95
297.404	4.24
297.619	-9.34
297.834	-13.83
298.049	-44.83
298.264	-84.33
298.479	-16.49
298.694	0.75
298.909	15.03
299.125	26.87
299.34	37.99
299.555	10.41
299.77	25.44
299.985	-20.08
300.2	-70.32
300.415	-93.31
300.63	-54.78
300.845	-73.09
301.06	-72.53
301.275	-29.75
301.49	-9.35
301.704	-27.5
301.919	-48.67
302.134	-59.04
302.349	-66.99
302.564	-140.91
302.779	-179.55
302.994	-150.74
303.209	-82.97
303.423	-65.45
303.638	19.37
303.853	-3.58
304.068	-1.03
304.283	7.01
304.497	6.18
304.712	0.07
304.927	12.73
305.142	-0.08
305.356	6.1
305.571	5.9
305.786	-11.07
306	-23.58
306.215	-9.23
306.43	-35.29
306.644	-52.59
306.859	-46.85
307.074	-38.45
307.288	-52.37
307.503	-66.02
307.717	-51.76
307.932	-41.62
308.147	-38.83
308.361	-18.89
308.576	-20.73
308.79	-54.12
309.005	-44.56
309.219	-36.43
309.434	-52.35
309.648	-53.82
309.863	-15.82
310.077	-20.18
310.292	-9.84
310.506	6.98
310.72	16.34
310.935	31.22
311.149	22.49
311.364	37.31
311.578	41.62
311.792	42.71
312.007	26.27
312.221	15.2
312.435	2.69
312.649	-14.49
312.864	-60.74
313.078	-24.3
313.292	42.19
313.507	7.86
313.721	-2.68
313.935	42.83
314.149	12.35
314.363	-18.6
314.578	-15.93
314.792	-4.53
315.006	-23.26
315.22	-8.84
315.434	-11.59
315.648	4.82
315.862	2.09
316.077	23.95
316.291	7.23
316.505	21.67
316.719	7.94
316.933	-14.58
317.147	-33.07
317.361	-74.56
317.575	-110.36
317.789	-142.59
318.003	-206.21
318.217	-149.36
318.431	-46.53
318.645	31.88
318.859	24.81
319.073	44.39
319.287	14.92
319.5	-18.49
319.714	-66.81
319.928	-99.53
320.142	-130.15
320.356	-67.95
320.57	-28.75
320.784	-41.22
320.997	-25.74
321.211	-6.87
321.425	-58.59
321.639	-94.99
321.853	-33.97
322.066	-14.8
322.28	-23.22
322.494	-8.43
322.707	17.93
322.921	-6.56
323.135	-21.64
323.349	6.98
323.562	-14.75
323.776	-35.54
323.989	-26.18
324.203	-42.92
324.417	-60.61
324.63	-68.02
324.844	-52.75
325.057	-68.58
325.271	-18.92
325.485	-0.8
325.698	22.55
325.912	32.55
326.125	18.23
326.339	10.66
326.552	-14.21
326.766	-24.93
326.979	0.85
327.193	52.98
327.406	41.62
327.619	37.34
327.833	56.26
328.046	24.61
328.26	-32.75
328.473	-5.84
328.686	-28.59
328.9	-26.46
329.113	-17.13
329.326	-17.53
329.54	-15.25
329.753	-2.58
329.966	-26.57
330.179	-15.66
330.393	-0.5
330.606	4.57
330.819	14.48
331.032	21.97
331.246	18.34
331.459	43.64
331.672	22.94
331.885	11.51
332.098	-8.76
332.311	-22.37
332.525	-90.36
332.738	-81.98
332.951	-55.51
333.164	-10.11
333.377	23.25
333.59	54.13
333.803	60.33
334.016	50.46
334.229	33.68
334.442	17.76
334.655	28.96
334.868	37.28
335.081	32.8
335.294	22.59
335.507	-0.31
335.72	-11.74
335.933	-23.15
336.146	-30.36
336.359	-22.53
336.572	-34.9
336.785	-75.7
336.997	-52.13
337.21	-27.95
337.423	-30.08
337.636	-18.39
337.849	4.25
338.062	-23.14
338.274	-25.16
338.487	-44.79
338.7	-38.57
338.913	-87.67
339.125	-88.34
339.338	-122.03
339.551	-76.79
339.763	-54.08
339.976	-10.37
340.189	10.27
340.402	16.03
340.614	-0.62
340.827	-8.88
341.039	-28
341.252	-30.65
341.465	-15.93
341.677	-13.56
341.89	-52.57
342.102	-18.86
342.315	-31.16
342.527	-69.3
342.74	-68.94
342.952	-31.94
343.165	-32.04
343.377	-10.64
343.59	2.89
343.802	21.6
344.015	34.65
344.227	43.94
344.44	28.81
344.652	27.79
344.864	10.64
345.077	18.27
345.289	13.94
345.502	23.76
345.714	9.17
345.926	22.33
346.139	15.28
346.351	20.54
346.563	23.72
346.775	34.81
346.988	15.56
347.2	7.81
347.412	-38.94
347.624	-57.21
347.837	-71.13
348.049	-25.34
348.261	0.29
348.473	12.56
348.685	0.08
348.897	-17.39
349.11	-45.16
349.322	-70.7
349.534	-48.34
349.746	-25.75
349.958	-11.69
350.17	-12.7
350.382	3.53
350.594	-7.38
350.806	-11.01
351.018	2.29
351.23	-6.17
351.442	-61.36
351.654	-70.38
351.866	-60.55
352.078	-47.56
352.29	-14.69
352.502	5.72
352.714	24.14
352.926	4
353.138	-2.06
353.35	-9.08
353.561	-17.79
353.773	-35.59
353.985	-16.13
354.197	-16.41
354.409	-27.65
354.621	-25.02
354.832	-15.84
355.044	-21.35
355.256	-28.65
355.468	-14.31
355.679	-19.8
355.891	-25.13
356.103	-40.59
356.314	-39.75
356.526	-32.37
356.738	-13.11
356.949	-13.73
357.161	10.56
357.373	8.12
357.584	-11.68
357.796	-3.54
358.008	-9.11
358.219	-0.48
358.431	-2.91
358.642	2.52
358.854	-10.09
359.065	-16.24
359.277	-53.96
359.488	-55.24
359.7	-79.74
359.911	-91.13
360.123	-61.55
360.334	-57.32
360.546	-68.38
360.757	-62.18
360.969	-43.08
361.18	-41.34
361.391	-18.24
361.603	-17.71
361.814	-9.1
362.025	-7.99
362.237	-1.46
362.448	-4.2
362.659	18.32
362.871	21.33
363.082	13.17
363.293	-6.02
363.504	-21.11
363.716	-63.17
363.927	-66.45
364.138	-77.29
364.349	-75.89
364.56	-65.52
364.772	-44.41
364.983	-24.78
365.194	-17.71
365.405	1.06
365.616	31.15
365.827	33.5
366.038	13.84
366.25	4.46
366.461	-40.96
366.672	-50.47
366.883	-28.39
367.094	-17.96
367.305	-17.85
367.516	0.51
367.727	-20.61
367.938	-40.79
368.149	-44.29
368.36	-28.94
368.571	-22.81
368.781	-36.82
368.992	-33.38
369.203	-52.24
369.414	-69.67
369.625	-85.64
369.836	-58.98
370.047	-92.5
370.258	-69.84
370.468	-79.59
370.679	-79.71
370.89	-79.76
371.101	-48.26
371.312	-54.56
371.522	-37.75
371.733	-32.56
371.944	-15.21
372.155	-6.61
372.365	-11.34
372.576	-14.14
372.787	-21.41
372.997	-44.47
373.208	-54.75
373.419	-18.68
373.629	-43.14
373.84	-42.26
374.05	-52.16
374.261	-36.44
374.472	-60.79
374.682	-4.38
374.893	-8.06
375.103	37.17
375.314	21.04
375.524	17.61
375.735	11
375.945	28.92
376.156	-8.64
376.366	7.38
376.577	11.7
376.787	6.9
376.997	5.34
377.208	11.14
377.418	-7.12
377.629	0.29
377.839	-9.73
378.049	-3.86
378.26	15.49
378.47	16.24
378.68	6.99
378.89	10.31
379.101	1.11
379.311	-39.8
379.521	-57.85
379.732	-54.69
379.942	-69.03
380.152	-84.84
380.362	-39.99
380.572	-32.97
380.783	-24.77
380.993	-7.15
381.203	5.43
381.413	8.82
381.623	16.47
381.833	15.23
382.043	1.51
382.253	-6.84
382.463	-9.01
382.674	-16.93
382.884	-30.21
383.094	-22.28
383.304	-13.98
383.514	-12.56
383.724	2.01
383.934	-8.49
384.144	-12.69
384.353	-25.45
384.563	-25.71
384.773	-30.05
384.983	-25.28
385.193	-17.14
385.403	-8.65
385.613	-14.24
385.823	-23.38
386.033	-15.99
386.242	-15.26
386.452	-16.68
386.662	-21.79
386.872	-3.52
387.082	-9.12
387.291	-22.04
387.501	-25.66
387.711	-12.69
387.921	-22.95
388.13	-17.4
388.34	0.31
388.55	-6.67
388.759	-10.08
388.969	-5.7
389.179	-11.06
389.388	-19.25
389.598	-7.35
389.807	-9.23
390.017	-13.1
390.227	-8.31
390.436	-8.06
390.646	-7.65
390.855	-4.25
391.065	-4.97
391.274	-5.56
391.484	-6.67
391.693	-5.15
391.903	-4.43
392.112	2.58
392.322	7
392.531	10.15
392.74	8.7
392.95	4.92
393.159	1.54
393.369	-0.44
393.578	-0.21
393.787	-1.71
393.997	-0.48
394.206	-2.17
394.415	-2.71
394.625	-3.68
394.834	-4.19
395.043	-4.27
395.252	-0.63
395.462	1.64
395.671	2.52
395.88	3.68
396.089	4.3
396.298	1.82
396.508	0.51
396.717	-0.37
396.926	-0.34
397.135	-0.52
397.344	-0.17
397.553	0.99
397.762	2.83
397.971	3.15
398.181	4.14
398.39	3.68
398.599	2.5
398.808	2.21
399.017	2.89
399.226	3.53
399.435	4.97
399.644	5.52
399.853	4.3
400.062	3.87
400.27	3.27
400.479	2.57
400.688	2.09
400.897	2.72
401.106	2.65
401.315	2.51
401.524	2.71
401.733	3.28
401.941	3.69
402.15	4.02
402.359	4.01
402.568	4.46
402.777	4.53
402.985	4.25
403.194	3.93
403.403	3.84
403.612	3.18
403.82	2.89
404.029	2.81
404.238	2.72
404.446	2.88
404.655	2.79
404.864	2.68
405.072	2.56
405.281	2.68
405.489	2.43
405.698	2.55
405.906	2.56
406.115	2.53
406.324	2.37
406.532	2.57
406.741	2.86
406.949	2.81
407.158	2.86
407.366	3.03
407.574	2.78
407.783	2.56
407.991	2.49
408.2	2.76
408.408	2.65
408.617	2.72
408.825	2.54
409.033	2.72
409.242	2.61
409.45	2.61
409.658	2.5
409.867	2.62
410.075	2.38
410.283	2.26
410.491	2.19
410.7	2.15
410.908	2.24
411.116	2.69
411.324	2.66
411.533	2.68
411.741	2.97
411.949	2.92
412.157	2.5
412.365	2.53
412.573	2.53
412.781	2.56
412.99	2.45
413.198	2.78
413.406	2.69
413.614	2.71
413.822	2.45
414.03	2.4
414.238	2.09
414.446	2.15
414.654	1.92
414.862	2.14
415.07	2.23
415.278	2.43
415.486	2.32
415.694	2.55
415.902	2.26
416.109	2.15
416.317	2.05
416.525	1.95
416.733	1.85
416.941	2.07
417.149	2.07
417.357	2.18
417.564	2.42
417.772	2.62
417.98	2.61
418.188	2.59
418.395	2.47
418.603	2.67
418.811	2.24
419.019	2.14
419.226	2.38
419.434	2.52
419.642	2.06
419.849	2.25
420.057	2.26
420.265	2.17
420.472	1.92
420.68	2.11
420.887	2.05
421.095	2.13
421.302	2.1
421.51	2.38
421.717	2.42
421.925	2.67
422.132	2.4
422.34	2.12
422.547	2.03
422.755	1.93
422.962	1.67
423.17	1.68
423.377	1.85
423.585	1.86
423.792	1.83
423.999	1.91
424.207	1.9
424.414	2.03
424.621	2
424.829	2
425.036	2.13
425.243	2.41
425.451	2.18
425.658	2.08
425.865	2.22
426.072	2.18
426.28	2.31
426.487	2.4
426.694	2.54
426.901	2.37
427.108	2.41
427.315	2.17
427.523	2.41
427.73	2.25
427.937	2.21
428.144	1.99
428.351	1.98
428.558	2.1
428.765	2
428.972	1.85
429.179	2.09
429.386	2.39
429.593	2.09
429.8	2
430.007	2.25
430.214	2.24
430.421	2
430.628	1.77
430.835	1.84
431.042	2.05
431.249	2.05
431.456	1.95
431.662	2.2
431.869	2.34
432.076	2.23
432.283	2.35
432.49	2.4
432.697	2.36
432.903	2.11
433.11	2.03
433.317	2
433.524	2.07
433.73	1.99
433.937	2.33
434.144	2.24
434.35	2.17
434.557	2.1
434.764	2.2
434.97	2.1
435.177	2.31
435.384	2.24
435.59	2.32
435.797	2.53
436.003	2.56
436.21	2.46
436.416	2.64
436.623	2.59
436.829	2.53
437.036	2.63
437.242	2.66
437.449	2.37
437.655	2.43
437.862	2.48
438.068	2.42
438.275	2.55
438.481	2.87
438.687	2.79
438.894	2.6
439.1	2.54
439.307	2.68
439.513	2.51
439.719	2.54
439.926	2.66
440.132	2.7
440.338	2.45
440.544	2.62
440.751	2.61
440.957	2.64
441.163	2.52
441.369	2.7
441.575	2.49
441.782	2.5
441.988	2.42
442.194	2.52
442.4	2.48
442.606	2.79
442.812	2.88
443.018	3
443.224	2.98
443.431	3.06
443.637	2.78
443.843	2.66
444.049	2.57
444.255	2.55
444.461	2.48
444.667	2.51
444.873	2.73
445.079	2.74
445.284	2.83
445.49	2.61
445.696	2.47
445.902	2.36
446.108	2.41
446.314	2.32
446.52	2.51
446.726	2.76
446.931	2.7
447.137	2.61
447.343	2.68
447.549	2.58
447.755	2.5
447.96	2.59
448.166	2.59
448.372	2.57
448.578	2.66
448.783	2.64
448.989	2.72
449.195	2.96
449.4	2.95
449.606	2.9
449.812	2.95
450.017	2.97
450.223	2.73
450.428	2.64
450.634	2.77
450.84	2.81
451.045	2.71
451.251	2.69
451.456	2.98
451.662	3.02
451.867	3.04
452.073	2.98
452.278	3.08
452.483	3.11
452.689	2.96
452.894	3.01
453.1	3.06
453.305	2.99
453.51	2.86
453.716	2.86
453.921	2.8
454.127	2.68
454.332	2.68
454.537	2.63
454.742	2.58
454.948	2.61
455.153	2.82
455.358	2.92
455.563	3.11
455.769	3.35
455.974	3.26
456.179	3.13
456.384	3.12
456.589	3.07
456.795	2.75
457	2.75
457.205	2.88
457.41	2.75
457.615	2.58
457.82	2.71
458.025	2.69
458.23	2.54
458.435	2.61
458.64	2.63
458.845	2.74
459.05	2.82
459.255	2.85
459.46	2.88
459.665	2.88
459.87	2.84
460.075	2.83
460.28	2.91
460.485	2.91
460.69	2.97
460.895	2.82
461.099	2.81
461.304	2.91
461.509	2.93
461.714	2.88
461.919	3.13
462.123	3.02
462.328	3.02
462.533	2.93
462.738	3.07
462.942	2.96
463.147	3.07
463.352	3.06
463.556	3.14
463.761	3.12
463.966	3.17
464.17	3.14
464.375	2.98
464.58	2.95
464.784	2.84
464.989	2.77
465.193	2.8
465.398	2.86
465.602	2.99
465.807	2.96
466.011	2.98
466.216	3.02
466.42	3.13
466.625	3.2
466.829	3.28
467.034	3.41
467.238	3.62
467.443	3.57
467.647	3.37
467.851	3.44
468.056	3.41
468.26	3.19
468.464	3.19
468.669	3.35
468.873	3.41
469.077	3.41
469.282	3.48
469.486	3.53
469.69	3.55
469.894	3.39
470.099	3.38
470.303	3.52
470.507	3.39
470.711	3.24
470.915	3.29
471.119	3.22
471.324	3.08
471.528	3.17
471.732	3.27
471.936	3.31
472.14	3.38
472.344	3.38
472.548	3.43
472.752	3.56
472.956	3.77
473.16	3.81
473.364	3.73
473.568	3.7
473.772	3.74
473.976	3.56
474.18	3.5
474.384	3.65
474.588	3.56
474.792	3.33
474.995	3.4
475.199	3.49
475.403	3.49
475.607	3.57
475.811	3.64
476.015	3.68
476.218	3.74
476.422	3.71
476.626	3.82
476.83	3.92
477.033	3.81
477.237	3.67
477.441	3.72
477.644	3.62
477.848	3.57
478.052	3.55
478.255	3.63
478.459	3.62
478.663	3.82
478.866	3.86
479.07	3.96
479.273	4.12
479.477	4.18
479.681	4.07
479.884	4.03
480.088	4
480.291	3.84
480.495	3.8
480.698	3.87
480.901	3.9
481.105	3.99
481.308	4.01
481.512	3.97
481.715	3.98
481.919	4.01
482.122	4
482.325	4.01
482.529	4.03
482.732	3.96
482.935	3.86
483.138	3.78
483.342	3.85
483.545	3.9
483.748	3.96
483.952	4.04
484.155	4.15
484.358	4.14
484.561	4.14
484.764	4.11
484.967	4.19
485.171	4.31
485.374	4.29
485.577	4.39
485.78	4.42
485.983	4.41
486.186	4.2
486.389	4.16
486.592	4.08
486.795	4.15
486.998	4.08
487.201	4.25
487.404	4.37
487.607	4.44
487.81	4.42
488.013	4.52
488.216	4.42
488.419	4.39
488.622	4.31
488.825	4.28
489.028	4.22
489.231	4.17
489.433	4.04
489.636	3.98
489.839	3.93
490.042	3.82
490.245	3.83
490.447	3.89
490.65	3.94
490.853	3.94
491.056	3.99
491.258	4.03
491.461	4.09
491.664	4.15
491.866	4.12
492.069	4.22
492.272	4.21
492.474	4.2
492.677	4.21
492.879	4.31
493.082	4.3
493.285	4.39
493.487	4.41
493.69	4.29
493.892	4.21
494.095	4.21
494.297	4.14
494.5	4.14
494.702	4.23
494.905	4.29
495.107	4.27
495.309	4.3
495.512	4.35
495.714	4.43
495.917	4.47
496.119	4.47
496.321	4.53
496.524	4.49
496.726	4.42
496.928	4.42
497.13	4.4
497.333	4.33
497.535	4.37
497.737	4.38
497.939	4.4
498.142	4.43
498.344	4.39
498.546	4.34
498.748	4.35
498.95	4.46
499.152	4.44
499.355	4.53
499.557	4.64
499.759	4.83
499.961	4.73
500.163	4.83
500.365	4.84
500.567	4.92
500.769	4.76
500.971	4.75
501.173	4.64
501.375	4.68
501.577	4.54
501.779	4.53
501.981	4.54
502.183	4.57
502.385	4.53
502.587	4.45
502.788	4.48
502.99	4.51
503.192	4.57
503.394	4.56
503.596	4.67
503.798	4.76
503.999	4.86
504.201	4.83
504.403	4.92
504.605	4.94
504.806	4.88
505.008	4.78
505.21	4.89
505.411	4.85
505.613	4.85
505.815	4.89
506.016	4.98
506.218	5.02
506.42	5.01
506.621	5.05
506.823	5.02
507.024	4.95
507.226	4.86
507.427	4.89
507.629	4.88
507.83	4.93
508.032	4.93
508.233	4.99
508.435	5.07
508.636	5.18
508.838	5.13
509.039	5.21
509.24	5.23
509.442	5.2
509.643	5.05
509.845	5.08
510.046	5.1
510.247	5.14
510.448	5.13
510.65	5.25
510.851	5.36
511.052	5.38
511.254	5.35
511.455	5.48
511.656	5.54
511.857	5.61
512.058	5.61
512.26	5.64
512.461	5.56
512.662	5.54
512.863	5.42
513.064	5.42
513.265	5.43
513.466	5.5
513.667	5.44
513.868	5.48
514.069	5.59
514.27	5.63
514.471	5.61
514.672	5.64
514.873	5.66
515.074	5.64
515.275	5.55
515.476	5.53
515.677	5.6
515.878	5.68
516.079	5.59
516.28	5.61
516.481	5.77
516.682	5.79
516.882	5.68
517.083	5.73
517.284	5.75
517.485	5.65
517.686	5.61
517.886	5.64
518.087	5.69
518.288	5.74
518.488	5.71
518.689	5.75
518.89	5.75
519.091	5.78
519.291	5.8
519.492	5.86
519.692	5.87
519.893	5.98
520.094	5.9
520.294	5.87
520.495	5.83
520.695	5.87
520.896	5.84
521.096	5.95
521.297	5.95
521.497	5.99
521.698	5.93
521.898	5.91
522.099	5.89
522.299	5.99
522.499	5.98
522.7	6.04
522.9	6.06
523.101	6.14
523.301	6.07
523.501	6.12
523.702	6.13
523.902	6.21
524.102	6.23
524.302	6.27
524.503	6.3
524.703	6.31
524.903	6.26
525.103	6.17
525.304	6.24
525.504	6.31
525.704	6.33
525.904	6.31
526.104	6.35
526.304	6.3
526.504	6.24
526.705	6.28
526.905	6.36
527.105	6.36
527.305	6.4
527.505	6.35
527.705	6.26
527.905	6.31
528.105	6.34
528.305	6.28
528.505	6.35
528.705	6.47
528.905	6.35
529.105	6.36
529.304	6.48
529.504	6.6
529.704	6.54
529.904	6.6
530.104	6.61
530.304	6.71
530.503	6.64
530.703	6.61
530.903	6.58
531.103	6.67
531.303	6.53
531.502	6.56
531.702	6.72
531.902	6.77
532.101	6.73
532.301	6.78
532.501	6.75
532.7	6.72
532.9	6.72
533.1	6.74
533.299	6.77
533.499	6.82
533.698	6.78
533.898	6.85
534.097	6.85
534.297	6.89
534.496	6.88
534.696	6.92
534.895	7.01
535.095	7.11
535.294	7.12
535.494	7.11
535.693	7.12
535.892	7.05
536.092	6.93
536.291	6.89
536.491	6.99
536.69	7.04
536.889	7.01
537.088	7.07
537.288	7.16
537.487	7.23
537.686	7.25
537.886	7.3
538.085	7.37
538.284	7.44
538.483	7.37
538.682	7.45
538.882	7.49
539.081	7.54
539.28	7.43
539.479	7.47
539.678	7.39
539.877	7.49
540.076	7.5
540.275	7.52
540.474	7.6
540.673	7.71
540.872	7.69
541.071	7.74
541.27	7.8
541.469	7.83
541.668	7.83
541.867	7.83
542.066	7.86
542.265	7.93
542.464	7.91
542.663	7.89
542.862	8.03
543.06	8.08
543.259	8.15
543.458	8.23
543.657	8.34
543.856	8.31
544.054	8.31
544.253	8.24
544.452	8.26
544.651	8.32
544.849	8.34
545.048	8.37
545.247	8.43
545.445	8.49
545.644	8.51
545.843	8.53
546.041	8.63
546.24	8.78
546.438	8.87
546.637	8.93
546.836	9.11
547.034	9.14
547.233	9.14
547.431	9.1
547.63	9.11
547.828	9.11
548.027	9.16
548.225	9.18
548.423	9.22
548.622	9.4
548.82	9.38
549.019	9.46
549.217	9.61
549.415	9.71
549.614	9.7
549.812	9.7
550.01	9.65
550.209	9.65
550.407	9.72
550.605	9.73
550.803	9.9
551.002	10.06
551.2	10.13
551.398	10.2
551.596	10.33
551.794	10.39
551.993	10.42
552.191	10.5
552.389	10.57
552.587	10.66
552.785	10.72
552.983	10.81
553.181	10.92
553.379	10.99
553.577	10.99
553.775	11.13
553.973	11.25
554.171	11.32
554.369	11.39
554.567	11.45
554.765	11.49
554.963	11.53
555.161	11.57
555.359	11.7
555.557	11.84
555.755	11.92
555.952	12.05
556.15	12.17
556.348	12.23
556.546	12.37
556.744	12.41
556.941	12.46
557.139	12.5
557.337	12.56
557.535	12.52
557.732	12.68
557.93	12.82
558.128	12.93
558.325	13.07
558.523	13.2
558.721	13.26
558.918	13.31
559.116	13.39
559.313	13.43
559.511	13.6
559.708	13.64
559.906	13.67
560.104	13.72
560.301	13.86
560.498	13.84
560.696	14
560.893	14.16
561.091	14.26
561.288	14.3
561.486	14.43
561.683	14.54
561.88	14.68
562.078	14.83
562.275	14.87
562.473	14.98
562.67	15.09
562.867	15.12
563.064	15.25
563.262	15.41
563.459	15.48
563.656	15.61
563.853	15.72
564.051	15.77
564.248	15.94
564.445	16.09
564.642	16.11
564.839	16.32
565.036	16.51
565.234	16.67
565.431	16.72
565.628	16.9
565.825	16.95
566.022	17.04
566.219	17
566.416	17.15
566.613	17.22
566.81	17.3
567.007	17.3
567.204	17.35
567.401	17.35
567.598	17.39
567.795	17.38
567.991	17.55
568.188	17.66
568.385	17.77
568.582	17.81
568.779	17.94
568.976	17.98
569.172	18.11
569.369	18.13
569.566	18.23
569.763	18.3
569.96	18.38
570.156	18.36
570.353	18.4
570.55	18.5
570.746	18.5
570.943	18.54
571.14	18.6
571.336	18.73
571.533	18.79
571.729	18.81
571.926	18.87
572.123	19.05
572.319	19.08
572.516	19.08
572.712	19.24
572.909	19.24
573.105	19.3
573.302	19.36
573.498	19.48
573.695	19.47
573.891	19.6
574.087	19.5
574.284	19.41
574.48	19.38
574.677	19.41
574.873	19.47
575.069	19.52
575.266	19.66
575.462	19.7
575.658	19.77
575.854	19.72
576.051	19.78
576.247	19.73
576.443	19.77
576.639	19.81
576.835	19.8
577.032	19.75
577.228	19.95
577.424	20.02
577.62	19.91
577.816	19.97
578.012	19.96
578.208	19.72
578.404	19.65
578.6	19.69
578.796	19.67
578.993	19.71
579.189	19.79
579.384	19.67
579.58	19.59
579.776	19.61
579.972	19.62
580.168	19.6
580.364	19.77
580.56	19.76
580.756	19.69
580.952	19.59
581.148	19.55
581.343	19.47
581.539	19.62
581.735	19.72
581.931	19.84
582.127	19.89
582.322	19.77
582.518	19.64
582.714	19.62
582.909	19.56
583.105	19.52
583.301	19.58
583.496	19.65
583.692	19.59
583.888	19.51
584.083	19.6
584.279	19.65
584.474	19.58
584.67	19.62
584.866	19.69
585.061	19.5
585.257	19.52
585.452	19.48
585.648	19.43
585.843	19.41
586.039	19.53
586.234	19.44
586.429	19.37
586.625	19.36
586.82	19.32
587.015	19.24
587.211	19.21
587.406	19.31
587.601	19.27
587.797	19.27
587.992	19.33
588.187	19.43
588.383	19.38
588.578	19.43
588.773	19.47
588.968	19.44
589.163	19.48
589.359	19.47
589.554	19.44
589.749	19.5
589.944	19.58
590.139	19.54
590.334	19.59
590.529	19.64
590.724	19.77
590.919	19.84
591.114	19.87
591.309	19.95
591.504	19.96
591.699	19.81
591.894	19.74
592.089	19.76
592.284	19.78
592.479	19.85
592.674	19.88
592.869	20
593.064	20.05
593.259	20.14
593.454	20.27
593.648	20.37
593.843	20.3
594.038	20.36
594.233	20.35
594.428	20.34
594.622	20.37
594.817	20.56
595.012	20.61
595.206	20.65
595.401	20.7
595.596	20.72
595.79	20.79
595.985	20.94
596.18	21.07
596.374	21.22
596.569	21.27
596.763	21.27
596.958	21.33
597.153	21.48
597.347	21.4
597.542	21.53
597.736	21.67
597.931	21.74
598.125	21.76
598.319	21.97
598.514	22.08
598.708	22.18
598.903	22.18
599.097	22.15
599.291	22.14
599.486	21.99
599.68	21.94
599.874	21.98
600.069	22.09
600.263	22.15
600.457	22.41
600.651	22.52
600.846	22.56
601.04	22.6
601.234	22.68
601.428	22.75
601.622	22.8
601.817	22.89
602.011	22.97
602.205	23.01
602.399	22.97
602.593	22.97
602.787	22.91
602.981	22.82
603.175	22.9
603.369	22.85
603.563	22.87
603.757	22.96
603.951	23.02
604.145	22.9
604.339	22.99
604.533	22.85
604.727	22.84
604.921	22.81
605.115	22.8
605.309	22.82
605.502	22.85
605.696	22.79
605.89	22.82
606.084	22.7
606.278	22.55
606.471	22.49
606.665	22.38
606.859	22.3
607.053	22.31
607.246	22.39
607.44	22.37
607.634	22.36
607.827	22.33
608.021	22.23
608.214	22.06
608.408	21.97
608.602	21.88
608.795	21.76
608.989	21.72
609.182	21.66
609.376	21.59
609.569	21.59
609.763	21.51
609.956	21.44
610.15	21.35
610.343	21.29
610.537	21.22
610.73	21.25
610.923	21.18
611.117	21.15
611.31	21.11
611.504	21.04
611.697	20.9
611.89	20.86
612.083	20.77
612.277	20.74
612.47	20.6
612.663	20.5
612.856	20.45
613.05	20.38
613.243	20.26
613.436	20.18
613.629	20.02
613.822	19.85
614.015	19.74
614.209	19.63
614.402	19.58
614.595	19.61
614.788	19.63
614.981	19.53
615.174	19.47
615.367	19.38
615.56	19.28
615.753	19.11
615.946	19.09
616.139	19.06
616.332	19.16
616.525	19.13
616.718	19.25
616.911	19.28
617.103	19.27
617.296	19.21
617.489	19.16
617.682	19.07
617.875	18.99
618.067	18.84
618.26	18.54
618.453	18.55
618.646	18.5
618.838	18.5
619.031	18.59
619.224	18.67
619.417	18.63
619.609	18.66
619.802	18.54
619.994	18.44
620.187	18.5
620.38	18.46
620.572	18.27
620.765	18.33
620.957	18.26
621.15	18.1
621.342	18.02
621.535	18.1
621.727	18
621.92	17.96
622.112	17.92
622.305	17.94
622.497	17.76
622.69	17.77
622.882	17.81
623.074	17.83
623.267	17.69
623.459	17.66
623.651	17.63
623.844	17.57
624.036	17.52
624.228	17.52
624.42	17.52
624.613	17.64
624.805	17.61
624.997	17.62
625.189	17.62
625.381	17.63
625.574	17.47
625.766	17.39
625.958	17.35
626.15	17.43
626.342	17.41
626.534	17.43
626.726	17.45
626.918	17.47
627.11	17.36
627.302	17.29
627.494	17.18
627.686	17.2
627.878	17.06
628.07	17.07
628.262	17.04
628.454	17.1
628.646	17.12
628.838	17.13
629.029	17.05
629.221	17.07
629.413	16.92
629.605	16.76
629.797	16.7
629.989	16.75
630.18	16.75
630.372	16.7
630.564	16.72
630.755	16.71
630.947	16.72
631.139	16.55
631.33	16.47
631.522	16.52
631.714	16.6
631.905	16.51
632.097	16.57
632.289	16.71
632.48	16.59
632.672	16.44
632.863	16.32
633.055	16.25
633.246	16.2
633.438	16.13
633.629	16.16
633.821	16.22
634.012	16.27
634.203	16.14
634.395	16.2
634.586	16.17
634.777	16.03
634.969	16
635.16	16.1
635.351	16.01
635.543	16
635.734	16.04
635.925	15.98
636.117	15.94
636.308	16
636.499	15.97
636.69	15.9
636.881	15.87
637.073	15.98
637.264	16.01
637.455	16.04
637.646	16.15
637.837	16.2
638.028	16.05
638.219	15.96
638.41	15.82
638.601	15.78
638.792	15.69
638.983	15.7
639.174	15.64
639.365	15.73
639.556	15.65
639.747	15.7
639.938	15.73
640.129	15.74
640.32	15.65
640.511	15.61
640.701	15.72
640.892	15.62
641.083	15.71
641.274	15.72
641.465	15.8
641.655	15.67
641.846	15.62
642.037	15.49
642.228	15.41
642.418	15.5
642.609	15.44
642.8	15.47
642.99	15.42
643.181	15.5
643.372	15.42
643.562	15.39
643.753	15.35
643.943	15.28
644.134	15.16
644.324	15.08
644.515	15.05
644.705	15.1
644.896	15.15
645.086	15.22
645.277	15.13
645.467	15.12
645.658	15.03
645.848	15.06
646.038	15.04
646.229	14.99
646.419	14.92
646.61	14.91
646.8	14.82
646.99	14.75
647.18	14.81
647.371	14.86
647.561	14.78
647.751	14.79
647.941	14.74
648.132	14.71
648.322	14.69
648.512	14.78
648.702	14.77
648.892	14.72
649.082	14.62
649.272	14.49
649.462	14.34
649.653	14.14
649.843	14.09
650.033	14.12
650.223	14.11
650.413	14.1
650.603	14.23
650.793	14.28
650.983	14.17
651.172	14.17
651.362	14.15
651.552	14.07
651.742	13.97
651.932	13.97
652.122	13.91
652.312	13.99
652.502	13.87
652.691	13.92
652.881	13.85
653.071	13.77
653.261	13.54
653.45	13.43
653.64	13.3
653.83	13.25
654.019	13.23
654.209	13.16
654.399	13.15
654.588	13.06
654.778	12.86
654.968	12.68
655.157	12.59
655.347	12.49
655.536	12.33
655.726	12.15
655.915	12.02
656.105	11.88
656.294	11.8
656.484	11.6
656.673	11.49
656.863	11.46
657.052	11.28
657.241	11.01
657.431	10.83
657.62	10.78
657.809	10.43
657.999	10.24
658.188	10.08
658.377	9.99
658.567	9.9
658.756	9.86
658.945	9.74
659.134	9.64
659.324	9.55
659.513	9.34
659.702	9.18
659.891	9.1
660.08	9.01
660.269	8.91
660.458	8.78
660.648	8.7
660.837	8.56
661.026	8.47
661.215	8.3
661.404	8.12
661.593	8.05
661.782	7.81
661.971	7.64
662.16	7.47
662.349	7.43
662.538	7.19
662.726	7.18
662.915	7.05
663.104	6.95
663.293	6.9
663.482	6.98
663.671	7
663.86	6.87
664.048	6.79
664.237	6.77
664.426	6.55
664.615	6.37
664.803	6.38
664.992	6.32
665.181	6.11
665.369	6.02
665.558	5.95
665.747	5.83
665.935	5.87
666.124	5.92
666.312	5.91
666.501	5.86
666.69	5.79
666.878	5.67
667.067	5.47
667.255	5.56
667.444	5.8
667.632	5.84
667.82	5.91
668.009	5.96
668.197	5.84
668.386	5.67
668.574	5.75
668.762	5.72
668.951	5.68
669.139	5.7
669.327	5.57
669.516	5.58
669.704	5.57
669.892	5.68
670.08	5.67
670.269	5.59
670.457	5.5
670.645	5.34
670.833	5.34
671.021	5.36
671.21	5.46
671.398	5.66
671.586	5.74
671.774	5.68
671.962	5.64
672.15	5.68
672.338	5.41
672.526	5.53
672.714	5.47
672.902	5.5
673.09	5.68
673.278	6.05
673.466	6.12
673.654	6.32
673.842	6.35
674.03	6.33
674.218	6.1
674.405	6.05
674.593	5.95
674.781	6.02
674.969	6.04
675.157	6.13
675.344	6.29
675.532	6.47
675.72	6.65
675.908	6.66
676.095	6.6
676.283	6.6
676.471	6.77
676.658	6.78
676.846	6.91
677.033	7.2
677.221	7.28
677.409	7.11
677.596	7.17
677.784	7.18
677.971	7.12
678.159	7.24
678.346	7.37
678.534	7.37
678.721	7.53
678.909	7.62
679.096	7.59
679.283	7.77
679.471	7.91
679.658	7.96
679.846	8.18
680.033	8.41
680.22	8.51
680.408	8.49
680.595	8.48
680.782	8.35
680.969	8.47
681.157	8.48
681.344	8.56
681.531	8.68
681.718	8.8
681.905	8.97
682.093	9.21
682.28	9.62
682.467	9.88
682.654	9.98
682.841	9.98
683.028	10.13
683.215	10.17
683.402	10.17
683.589	10.53
683.776	10.78
683.963	10.93
684.15	11.16
684.337	11.38
684.524	11.49
684.711	11.77
684.898	11.83
685.085	12.03
685.271	12.3
685.458	12.48
685.645	12.65
685.832	13.1
686.019	13.46
686.205	13.81
686.392	14.22
686.579	14.44
686.766	14.75
686.952	14.94
687.139	15.48
687.326	15.76
687.512	16.11
687.699	16.38
687.886	16.8
688.072	16.9
688.259	17.33
688.445	17.89
688.632	18.12
688.818	18.75
689.005	19.2
689.191	19.63
689.378	20.23
689.564	21.01
689.751	21.3
689.937	21.77
690.124	22.34
690.31	22.62
690.496	23.07
690.683	23.55
690.869	24.13
691.055	24.62
691.242	25.23
691.428	25.94
691.614	26.74
691.8	27.58
691.987	28.24
692.173	29
692.359	29.5
692.545	30.06
692.731	30.4
692.918	31.13
693.104	31.71
693.29	32.47
693.476	32.9
693.662	33.76
693.848	34.37
694.034	34.91
694.22	35.43
694.406	36.31
694.592	36.95
694.778	37.57
694.964	38.34
695.15	39.04
695.336	39.58
695.522	40.52
695.708	41.13
695.894	41.76
696.08	42.48
696.265	43.28
696.451	43.78
696.637	44.73
696.823	45.36
697.009	46.02
697.194	46.62
697.38	46.82
697.566	47.26
697.751	47.92
697.937	48.49
698.123	49.14
698.308	50.37
698.494	50.86
698.68	51.48
698.865	52.05
699.051	52.7
699.236	52.82
699.422	53.3
699.607	53.49
699.793	53.9
699.978	53.96
700.164	54.43
700.349	55.34
700.535	55.94
700.72	56.43
700.906	57.09
701.091	57.57
701.276	57.59
701.462	58.44
701.647	59.19
701.832	59.78
702.018	60.38
702.203	60.65
702.388	60.64
702.573	60.78
702.759	61.51
702.944	61.66
703.129	62.23
703.314	62.46
703.499	62.7
703.684	62.57
703.87	63.6
704.055	64.26
704.24	64.92
704.425	65.55
704.61	66.24
704.795	65.88
704.98	66.11
705.165	66.24
705.35	66.5
705.535	66.46
705.72	66.8
705.905	66.84
706.09	67.4
706.275	67.43
706.459	67.73
706.644	67.87
706.829	68.22
707.014	67.98
707.199	68.39
707.384	68.72
707.568	69.15
707.753	70.1
707.938	70.49
708.123	70.82
708.307	70.94
708.492	71.17
708.677	70.71
708.861	70.77
709.046	70.7
709.231	71.22
709.415	71.89
709.6	71.87
709.784	72.15
709.969	72.15
710.153	72.2
710.338	71.94
710.522	72.4
710.707	72.71
710.891	72.82
711.076	72.62
711.26	72.24
711.445	72.52
711.629	72.81
711.813	73.1
711.998	73.63
712.182	74.13
712.366	74.62
712.551	75.58
712.735	75.95
712.919	75.84
713.103	76.01
713.288	75.2
713.472	74.05
713.656	74.55
713.84	74.58
714.024	75.02
714.208	75.11
714.393	75.85
714.577	75.93
714.761	76.28
714.945	76.13
715.129	76.54
715.313	76.64
715.497	75.99
715.681	76.27
715.865	76
716.049	76.17
716.233	75.93
716.417	76.48
716.601	76.4
716.785	76.56
716.968	77.08
717.152	77.45
717.336	77.35
717.52	76.91
717.704	77.19
717.888	76.98
718.071	76.88
718.255	77.11
718.439	77.39
718.622	77.34
718.806	77.44
718.99	77.17
719.174	77.29
719.357	77.81
719.541	78.14
719.724	77.65
719.908	78.34
720.092	78.71
720.275	78.88
720.459	78.96
720.642	79.26
720.826	78.52
721.009	77.51
721.193	76.86
721.376	76.93
721.559	77.57
721.743	77.99
721.926	79.04
722.11	79.67
722.293	79.09
722.476	78.51
722.66	78.58
722.843	78.23
723.026	77.48
723.21	78.32
723.393	79.18
723.576	79.14
723.759	78.97
723.942	79.28
724.126	78.81
724.309	78.19
724.492	78.19
724.675	78.27
724.858	78.9
725.041	79.54
725.224	80.08
725.407	80.16
725.59	80.79
725.774	80.42
725.957	79.25
726.14	78.55
726.322	78.89
726.505	78.35
726.688	78.72
726.871	79.45
727.054	79.44
727.237	79.62
727.42	80.2
727.603	79.98
727.786	80.25
727.968	80.86
728.151	80.69
728.334	80.32
728.517	80.33
728.699	80.76
728.882	80.5
729.065	80.86
729.248	81.22
729.43	81.56
729.613	82.05
729.796	82.86
729.978	82
730.161	81.91
730.343	81.48
730.526	81.4
730.708	80.45
730.891	80.93
731.073	80.23
731.256	80.04
731.438	79.26
731.621	80.2
731.803	80.28
731.986	80.83
732.168	80.6
732.35	81.21
732.533	80.68
732.715	81.15
732.898	81.7
733.08	82.09
733.262	81.76
733.444	81.36
733.627	81.11
733.809	81.62
733.991	82.23
734.173	82.28
734.355	82.46
734.538	82.59
734.72	81.86
734.902	82.06
735.084	81.84
735.266	82.5
735.448	82.58
735.63	82.33
735.812	82.27
735.994	83.55
736.176	83.54
736.358	83.09
736.54	84.61
736.722	83.93
736.904	82.65
737.086	82.5
737.268	83.44
737.45	82.89
737.632	83.39
737.814	83.35
737.995	83.67
738.177	83.4
738.359	81.69
738.541	81.68
738.723	82.23
738.904	82.79
739.086	82.78
739.268	83.92
739.449	83.89
739.631	83.73
739.813	83.15
739.994	83.57
740.176	83.78
740.358	83.5
740.539	84.45
740.721	84.45
740.902	84.18
741.084	84.09
741.265	84.79
741.447	84.73
741.628	85.49
741.81	84.43
741.991	85.04
742.172	85.71
742.354	85.74
742.535	85.18
742.717	86.33
742.898	85.84
743.079	85.61
743.261	84.86
743.442	84.02
743.623	84.19
743.804	84.43
743.986	84.32
744.167	83.68
744.348	83.48
744.529	83.97
744.71	83.11
744.891	82.42
745.073	82.33
745.254	82.16
745.435	80.69
745.616	80.15
745.797	78.95
745.978	79.12
746.159	79.58
746.34	79.84
746.521	81.83
746.702	82.24
746.883	83.24
747.064	83.03
747.245	83.38
747.426	82.69
747.606	83.91
747.787	83.28
747.968	83.64
748.149	84.31
748.33	85.04
748.51	83.93
748.691	83.17
748.872	84.02
749.053	82.53
749.233	80.96
749.414	81.93
749.595	81.25
749.775	78.75
749.956	78.83
750.137	79.28
750.317	80.33
750.498	84.01
750.678	84.52
750.859	85.79
751.04	85.18
751.22	84.03
751.4	81.59
751.581	81.34
751.761	81.52
751.942	83.51
752.122	82.95
752.303	81.96
752.483	82.48
752.663	81.16
752.844	79.23
753.024	80.49
753.204	81.77
753.385	81.94
753.565	82.11
753.745	82.87
753.925	81.59
754.106	80.28
754.286	80.18
754.466	80.13
754.646	80.22
754.826	79.76
755.006	79.79
755.187	81.16
755.367	82.07
755.547	82.16
755.727	82.67
755.907	83.31
756.087	83.98
756.267	81.68
756.447	81.4
756.627	80.15
756.807	81.1
756.987	79.42
757.167	81.69
757.346	81.69
757.526	81.79
757.706	81.75
757.886	82.27
758.066	82.2
758.246	83.48
758.425	84.31
758.605	83.45
758.785	82.62
758.965	82.2
759.144	79.16
759.324	79.18
759.504	79.34
759.683	79.57
759.863	77.44
760.043	77.03
760.222	77.25
760.402	76.77
760.581	77.03
760.761	80.34
760.94	79.62
761.12	81.06
761.299	81.16
761.479	80.22
761.658	77.76
761.838	80.11
762.017	78.82
762.197	78.94
762.376	79.68
762.555	81.96
762.735	81.5
762.914	79.96
763.093	79.72
763.273	79.06
763.452	77.58
763.631	76.83
763.81	77.89
763.99	78.06
764.169	78.36
764.348	76.76
764.527	75.16
764.706	76.77
764.885	78.29
765.064	76.73
765.243	78.66
765.423	82.29
765.602	79.85
765.781	76.37
765.96	75.84
766.139	73.93
766.318	74.2
766.497	74.72
766.676	77.3
766.854	80.14
767.033	80.55
767.212	78.63
767.391	78.47
767.57	77.77
767.749	77.01
767.928	79.4
768.106	78.71
768.285	76.34
768.464	75.16
768.643	75.11
768.821	73.04
769	73.99
769.179	75.85
769.357	75.29
769.536	73.97
769.715	74.66
769.893	76.06
770.072	75.18
770.25	75.83
770.429	77.75
770.607	76.72
770.786	76.24
770.964	77.24
771.143	75.11
771.321	74.37
771.5	75.67
771.678	72.77
771.857	72.19
772.035	74.22
772.213	74.92
772.392	72.46
772.57	75.3
772.748	76.13
772.927	76.07
773.105	75.14
773.283	75.91
773.461	75.78
773.64	75.85
773.818	76.05
773.996	76.23
774.174	76.51
774.352	73.96
774.531	70.55
774.709	71.95
774.887	70.61
775.065	69.63
775.243	70.66
775.421	72.67
775.599	73.25
775.777	72.25
775.955	70.9
776.133	69.23
776.311	68.77
776.489	64.37
776.667	64.87
776.844	66.98
777.022	68.56
777.2	68.56
777.378	70.95
777.556	71.67
777.734	73.54
777.911	76.03
778.089	76.87
778.267	76.62
778.445	75.96
778.622	72.51
778.8	69.84
778.978	71.61
779.155	70.51
779.333	70.41
779.511	69.06
779.688	71.3
779.866	65.97
780.043	64.44
780.221	64.55
780.398	64.66
780.576	66.6
780.753	70.56
780.931	71.77
781.108	72.44
781.286	75.31
781.463	68.3
781.64	64.16
781.818	66.36
781.995	64.82
782.172	64.07
782.35	67.31
782.527	71.63
782.704	69.13
782.882	72.34
783.059	72.84
783.236	73.3
783.413	73.63
783.59	72.89
783.768	67.17
783.945	64.34
784.122	65.38
784.299	64.45
784.476	63.82
784.653	63.42
784.83	62.65
785.007	56.31
785.184	54.74
785.361	55.19
785.538	65.11
785.715	67.74
785.892	70.3
786.069	75.06
786.246	77.51
786.423	71.6
786.6	72.25
786.776	77.46
786.953	72.93
787.13	75.4
787.307	75.57
787.484	74.04
787.66	69.66
787.837	69.61
788.014	62.09
788.191	57.22
788.367	55.79
788.544	56.99
788.721	55.91
788.897	61.63
789.074	66.11
789.25	65.92
789.427	69.7
789.603	71.43
789.78	69.43
789.956	65.2
790.133	67.69
790.309	62.01
790.486	64.33
790.662	64.68
790.839	66.57
791.015	66.68
791.192	65.99
791.368	66.36
791.544	61.59
791.721	65.52
791.897	63.31
792.073	62.41
792.249	58.46
792.426	64.76
792.602	65.11
792.778	68.49
792.954	66.61
793.13	64.75
793.307	58.79
793.483	50.09
793.659	49.28
793.835	55.99
794.011	57.68
794.187	59.28
794.363	58.55
794.539	58.48
794.715	54.32
794.891	53.27
795.067	51.72
795.243	59.59
795.419	57.35
795.595	54.39
795.771	54.42
795.947	56.28
796.122	51.85
796.298	53.69
796.474	57.67
796.65	60.35
796.826	59.92
797.001	59.52
797.177	54.41
797.353	59.37
797.529	56.92
797.704	55.67
797.88	56.63
798.056	54.64
798.231	47.19
798.407	56.41
798.582	58.98
798.758	68.22
798.934	77.6
799.109	75.99
799.285	63.85
799.46	66.2
799.636	56.82
799.811	55.28
799.986	55.98
800.162	65.59
800.337	64.25
800.513	60.87
800.688	57.44
800.863	67.69
801.039	54.56
801.214	49.33
801.389	52.55
801.565	50.33
801.74	33.83
801.915	43.35
802.09	47.11
802.265	54.03
802.441	53.28
802.616	60.65
802.791	61.84
802.966	63.19
803.141	58.61
803.316	57.24
803.491	62.4
803.666	63.44
803.841	55.24
804.016	54.55
804.191	62.23
804.366	56.32
804.541	53
804.716	57.31
804.891	51.79
805.066	52.25
805.241	51.55
805.416	46.83
805.591	47.58
805.765	56.7
805.94	52.04
806.115	53.05
806.29	52.51
806.464	55.89
806.639	50.15
806.814	47.72
806.989	38.64
807.163	51.54
807.338	44.22
807.512	44.31
807.687	34.03
807.862	51.52
808.036	50.12
808.211	55
808.385	54.33
808.56	69.89
808.734	64.03
808.909	58.8
809.083	53.46
809.258	65.72
809.432	65.5
809.606	59.1
809.781	56.15
809.955	59.5
810.13	52.88
810.304	47.03
810.478	46.19
810.652	52.89
810.827	52.59
811.001	45.46
811.175	40.56
811.349	41.29
811.524	32.34
811.698	21.64
811.872	29.49
812.046	40.82
812.22	43.85
812.394	45.31
812.568	53.19
812.742	51.21
812.916	48.04
813.09	38.82
813.264	37.98
813.438	46.69
813.612	43.28
813.786	37.86
813.96	52.46
814.134	53.77
814.308	62.77
814.482	74.97
814.656	76.87
814.83	73.97
815.003	78.25
815.177	58.48
815.351	48.02
815.525	48.55
815.698	43.06
815.872	31.03
816.046	20.16
816.219	21.45
816.393	35.91
816.567	34.69
816.74	37.64
816.914	53.94
817.088	62.5
817.261	37.67
817.435	32.92
817.608	35.85
817.782	20.17
817.955	14.47
818.129	26.24
818.302	35.28
818.475	49.85
818.649	52.13
818.822	45.89
818.996	59.19
819.169	58.76
819.342	40.18
819.516	59.61
819.689	66.11
819.862	53.84
820.035	42.36
820.209	35.22
820.382	26.74
820.555	30.65
820.728	21.67
820.901	22.96
821.075	28.28
821.248	28.08
821.421	9.81
821.594	9.61
821.767	40.36
821.94	58.6
822.113	43.79
822.286	39.73
822.459	53.65
822.632	30.1
822.805	10.23
822.978	11.56
823.151	9.52
823.324	0.85
823.496	-17.01
823.669	-14.53
823.842	-2.59
824.015	3
824.188	-17.07
824.361	-5.82
824.533	-2.98
824.706	0.63
824.879	-5.84
825.051	19.5
825.224	23.42
825.397	5.82
825.569	-15.37
825.742	13.34
825.915	21.31
826.087	31.18
826.26	36.03
826.432	38.15
826.605	36.5
826.777	10.81
826.95	15.72
827.122	9.23
827.295	12.83
827.467	6.51
827.64	2.22
827.812	-15.44
827.984	-15.68
828.157	-18.84
828.329	-53.71
828.501	-50.81
828.674	-24.32
828.846	-24.2
829.018	2.23
829.19	-4.99
829.363	32.48
829.535	44.61
829.707	48.19
829.879	20.6
830.051	29.95
830.223	2.93
830.395	-43.79
830.568	-43.75
830.74	-30.82
830.912	6.18
831.084	-9.81
831.256	-4.8
831.428	-19.18
831.6	-41.54
831.772	-83.34
831.943	-87.39
832.115	-52.3
832.287	-27.55
832.459	-5.41
832.631	9.71
832.803	40.12
832.975	50.43
833.146	45.89
833.318	28.49
833.49	23.17
833.662	-9.6
833.833	-36.78
834.005	-26.68
834.177	-18.17
834.348	-23.58
834.52	-38.69
834.692	-17.26
834.863	-30.51
835.035	-28.86
835.206	-86.76
835.378	-45.2
835.549	-62.16
835.721	-43.03
835.892	-51.52
836.064	-46.48
836.235	-52.03
836.407	-28.72
836.578	-53.7
836.749	-33.59
836.921	-14.25
837.092	-53.58
837.264	-66.77
837.435	-75.35
837.606	-21.65
837.777	13.32
837.949	34.14
838.12	34.63
838.291	41.93
838.462	20.64
838.633	2.85
838.805	-4.18
838.976	2.78
839.147	-49.91
839.318	-55.36
839.489	-121.57
839.66	-102.07
839.831	-49.65
840.002	-20.95
840.173	-44.25
840.344	12.08
840.515	16.57
840.686	-102.2
840.857	-97.06
841.028	-89.11
841.199	-52.09
841.369	-64.15
841.54	-48.4
841.711	-18.83
841.882	6.11
842.053	-9.09
842.223	-23.27
842.394	0.95
842.565	2.5
842.736	-1.63
842.906	6.76
843.077	19.74
843.248	33.04
843.418	33.76
843.589	37.99
843.759	102.05
843.93	119.27
844.101	25.57
844.271	37.06
844.442	57.01
844.612	56.16
844.783	16.76
844.953	8.66
845.123	-7.16
845.294	-23.56
845.464	-255.75
845.635	-97.88
845.805	-10.16
845.975	-18.62
846.146	-72.4
846.316	-40.29
846.486	-2.75
846.656	19.95
846.827	17.8
846.997	21.02
847.167	56.65
847.337	4.87
847.507	-52.31
847.677	-18.84
847.848	38.58
848.018	24.15
848.188	38.72
848.358	37.25
848.528	13.01
848.698	-25.53
848.868	-95.41
849.038	-224.11
849.208	-89.53
849.378	-18.32
849.548	-27.02
849.718	2.63
849.887	31.64
850.057	24.66
850.227	-14
850.397	-20.29
850.567	-117.63
850.737	-287.72
850.906	-999.69
851.076	-741.99
851.246	-351.18
851.415	-58.11
851.585	-46.24
851.755	-95.36
851.924	-43.92
852.094	-71.91
852.264	-138.44
852.433	-973.8
852.603	-160.09
852.772	-52.82
852.942	0.64
853.111	-23.56
853.281	20.87
853.45	76.24
853.62	-9.39
853.789	-41.57
853.959	60.35
854.128	53.36
854.297	-48.36
854.467	-95.68
854.636	-69.13
854.805	-43.96
854.975	-76.14
855.144	-95.82
855.313	294.58
855.482	-110.77
855.652	-122.1
855.821	-125.22
855.99	14.3
856.159	33.22
856.328	33.6
856.497	18.05
856.667	26.56
856.836	16.85
857.005	-58.2
857.174	-88.62
857.343	-116.65
857.512	-129.24
857.681	-149.58
857.85	-133.88
858.019	-58.77
858.188	-45.66
858.356	-61.21
858.525	-99.97
858.694	-99.6
858.863	-234.6
859.032	-152.9
859.201	-243.91
859.369	-194.83
859.538	-140.16
859.707	-88.88
859.876	-149.5
860.044	-121.66
860.213	-38.79
860.382	-61.05
860.55	-60.93
860.719	-18.27
860.888	10.18
861.056	-14.81
861.225	-11.71
861.393	51.01
861.562	72.1
861.73	-37.84
861.899	-145.42
862.067	-1619.83
862.236	-107.76
862.404	-316.07
862.572	-145.55
862.741	-40.19
862.909	-32.81
863.078	-162.11
863.246	-106.67
863.414	-102.22
863.582	-68.3
863.751	-70.85
863.919	-31.25
864.087	31.31
864.255	8
864.424	-277.99
864.592	-62.41
864.76	-175.93
864.928	-673.4
865.096	-312.02
865.264	-203.44
865.432	-2042.61
865.6	-42.88
865.768	-91.83
865.936	-68.35
866.104	-87.25
866.272	-125.23
866.44	-448.33
866.608	750.95
866.776	430.45
866.944	4022.67
867.112	-825.74
867.28	-321.7
867.448	-121.03
867.615	-31.1
867.783	-11.29
867.951	-6.9
868.119	35.21
868.286	-40.15
868.454	-206.13
868.622	-152.92
868.789	-201.41
868.957	-4169.64
869.125	-2988.82
869.292	-244.41
869.46	-372.73
869.627	-76.55
869.795	-70.61
869.963	-4.31
870.13	36.01
870.298	70.95
870.465	5.57
870.632	-23.89
870.8	-12.21
870.967	-82.34
871.135	-199.61
871.302	-184.12
871.469	-226.05
871.637	-388.17
871.804	-195.64
871.971	-225.64
872.139	-632.91
872.306	-116.74
872.473	-116.07
872.64	-546.67
872.807	-300.57
872.975	-85.33
873.142	-391.18
873.309	2947.97
873.476	-12.08
873.643	90.37
873.81	18.94
873.977	28.29
874.144	30.61
874.311	-125.35
874.478	-193.52
874.645	-211.03
874.812	-164.52
874.979	-95.65
875.146	-109.47
875.313	-140.84
875.48	-13.11
875.647	-21.05
875.813	-64.53
875.98	-30.61
876.147	-49.13
876.314	-122.76
876.481	1010.54
876.647	-1330.06
876.814	605.57
876.981	-28.37
877.147	-30.25
877.314	3.49
877.481	61.02
877.647	75.51
877.814	26.36
877.98	-12.09
878.147	14.84
878.314	13.95
878.48	-70.5
878.647	-29.67
878.813	24.06
878.979	18.41
879.146	-28.95
879.312	-5.02
879.479	-82.02
879.645	-211.65
879.811	-363.96
879.978	-775.38
880.144	-276.9
880.31	-132.72
880.477	-365.27
880.643	-429.49
880.809	-192.55
880.975	-162.5
881.142	-1196.14
881.308	-183.15
881.474	-131.41
881.64	-146.55
881.806	-214.79
881.972	-62.92
882.138	-42.19
882.304	-18.66
882.47	-138.13
882.636	-542.42
882.802	-192.6
882.968	-18.91
883.134	-28.39
883.3	-44.69
883.466	7.74
883.632	45.52
883.798	-15.13
883.964	-24.57
884.129	-9.63
884.295	31.48
884.461	-54.05
884.627	-26.52
884.793	-49.45
884.958	-19.75
885.124	-138.91
885.29	-231.51
885.455	-453.76
885.621	-154.61
885.787	-244.92
885.952	-129.75
886.118	-90.03
886.283	-76.84
886.449	-202.16
886.614	-169.6
886.78	-293.75
886.945	1379.92
887.111	-691.18
887.276	-336.79
887.442	-795.23
887.607	-323.47
887.773	-278.58
887.938	-255.81
888.103	-351.63
888.269	-236.37
888.434	-602.57
888.599	-192.36
888.764	-96.44
888.93	-60.07
889.095	-75.11
889.26	-86.46
889.425	-77.01
889.59	-93.39
889.756	-129.42
889.921	-84.01
890.086	-24.34
890.251	-15.83
890.416	-186.44
890.581	-1435.08
890.746	190.27
890.911	471.18
891.076	223.64
891.241	-330.41
891.406	9.14
891.571	-81.46
891.736	-335.21
891.901	-551.11
892.065	964.56
892.23	160.33
892.395	231.65
892.56	335.19
892.725	-458.4
892.889	-823.78
893.054	-181.31
893.219	-73.98
893.384	-34.84
893.548	-102.79
893.713	-137.25
893.878	-119.04
