Data from Ofra_1a_PS_6GT17_Reflection_2.txt Node
Date: Tue Jul 20 11:00:23 EDT 2021
User: Adam
Spectrometer: FLMT01687
Trigger mode: 0
Integration Time (sec): 1.004000E0
Scans to average: 2
Electric dark correction enabled: true
Nonlinearity correction enabled: false
Boxcar width: 2
XAxis mode: Wavelengths
Number of Pixels in Spectrum: 3648
>>>>>Begin Spectral Data<<<<<
179.494	-336.04
179.716	-436.64
179.937	1135.12
180.158	-1443.31
180.38	223.87
180.601	157.67
180.823	155.87
181.044	69.45
181.265	39.62
181.486	118.6
181.708	135.41
181.929	-11363.64
182.15	78.14
182.372	265.02
182.593	83.01
182.814	-148.39
183.035	-42.9
183.257	19.13
183.478	3.64
183.699	-17.89
183.92	-50.27
184.141	-67.06
184.363	-77.54
184.584	-114.08
184.805	-65.44
185.026	-9.53
185.247	-32.36
185.468	-56.97
185.689	-27.47
185.91	-85.77
186.132	-80.22
186.353	-51.35
186.574	-42.81
186.795	-38.64
187.016	3.54
187.237	-1.37
187.458	12.65
187.679	2.9
187.9	20.93
188.121	22.5
188.342	25.4
188.563	55.02
188.784	66.26
189.005	51.65
189.226	38.48
189.447	7.2
189.667	-19.93
189.888	-41.18
190.109	-67.47
190.33	-64.89
190.551	-52.03
190.772	-36.48
190.993	-64.33
191.214	-101.33
191.434	-128.43
191.655	-102.39
191.876	-42.22
192.097	4.42
192.318	45.31
192.538	21.47
192.759	7.71
192.98	8.72
193.201	9.01
193.421	-1.77
193.642	18.07
193.863	21.4
194.083	9.89
194.304	-1.85
194.525	-25.02
194.745	-40.09
194.966	-32.45
195.187	-31.21
195.407	-48.49
195.628	-16.25
195.848	-25.56
196.069	-38.83
196.29	-31.23
196.51	-37.57
196.731	-52.44
196.951	-63.3
197.172	-44.28
197.392	-71.08
197.613	-34.99
197.833	-53.51
198.054	-75.48
198.274	-65.53
198.495	-63.79
198.715	-74.75
198.936	-49.2
199.156	-13.23
199.377	-26.5
199.597	-7.52
199.817	5.48
200.038	-27.95
200.258	-2.81
200.479	1.02
200.699	-19.85
200.919	-60.65
201.14	-33.51
201.36	-47.38
201.58	-74.43
201.801	-59.18
202.021	-51.54
202.241	-31.25
202.461	-34.91
202.682	-9.28
202.902	-20.72
203.122	-11.07
203.342	-24.16
203.563	-37.21
203.783	-52.42
204.003	-48.9
204.223	-34.67
204.443	-21.25
204.663	-37.56
204.884	-11.24
205.104	1.03
205.324	22.7
205.544	-40.92
205.764	6.99
205.984	1.07
206.204	4.92
206.424	-21.8
206.644	-19.89
206.864	-55.56
207.084	-27.27
207.304	-57.32
207.525	-61.17
207.745	-23.84
207.964	-16.49
208.184	-41.81
208.404	-11.79
208.624	24.84
208.844	0.24
209.064	5.31
209.284	-8.11
209.504	-30.71
209.724	-54.71
209.944	-46.86
210.164	-56.72
210.384	-33.72
210.604	-65.93
210.823	-89.05
211.043	-69.33
211.263	-131.52
211.483	-128.58
211.703	-75.64
211.922	-95.58
212.142	-74.37
212.362	-42.84
212.582	-24.76
212.801	-18.15
213.021	-2.11
213.241	-21.88
213.461	-16.55
213.68	-7.97
213.9	-28.73
214.12	-37.14
214.339	-40.27
214.559	-35.84
214.779	-53.66
214.998	-34.95
215.218	-18.3
215.438	-2.38
215.657	-6.64
215.877	-18.48
216.096	7.25
216.316	1.22
216.535	-6.06
216.755	-11.28
216.974	-17.28
217.194	-66.22
217.413	-58.74
217.633	-54.74
217.852	-50.43
218.072	-45.37
218.291	-45.92
218.511	-46.88
218.73	-68.33
218.95	-103.36
219.169	-82.32
219.389	-42.45
219.608	-58.06
219.827	-45.56
220.047	-31.28
220.266	-59.52
220.485	-78.15
220.705	-59.39
220.924	-94.68
221.143	-17.61
221.363	-6.75
221.582	-2.24
221.801	-1.89
222.021	8.33
222.24	-19.96
222.459	8.37
222.678	11.65
222.897	4.52
223.117	37.99
223.336	54
223.555	50.26
223.774	59.97
223.993	71.26
224.213	57.99
224.432	35.41
224.651	22.3
224.87	-2.55
225.089	-6.2
225.308	-1.59
225.527	-8.65
225.746	-26.2
225.965	-14.89
226.184	-33.08
226.404	-59.67
226.623	-32.87
226.842	-20.51
227.061	-4.2
227.28	17.75
227.499	32.25
227.718	19.25
227.936	23.65
228.155	8.72
228.374	-8.98
228.593	-9.12
228.812	-6.93
229.031	-0.63
229.25	-10.34
229.469	3.34
229.688	-1.71
229.907	11.1
230.125	2.2
230.344	7.62
230.563	3.82
230.782	9.74
231.001	2.04
231.22	14.31
231.438	26.29
231.657	36.96
231.876	16.82
232.095	13.03
232.313	-6.41
232.532	-17.74
232.751	-50.92
232.969	-43.43
233.188	-54.61
233.407	-45.19
233.625	-46.55
233.844	-24.67
234.063	-28.88
234.281	-21.53
234.5	-19.66
234.719	-10.52
234.937	-53.99
235.156	-66.33
235.374	-66.3
235.593	-36.34
235.811	-26.37
236.03	5.68
236.249	24.15
236.467	22.29
236.686	5.32
236.904	9.46
237.123	4.35
237.341	-6.09
237.559	-0.19
237.778	27.15
237.996	-13.07
238.215	-33.82
238.433	-67.35
238.652	-32
238.87	-49.08
239.088	-36.88
239.307	0.64
239.525	3.74
239.743	-7.35
239.962	-40.71
240.18	-23.22
240.398	-41.84
240.617	-53.11
240.835	-53.96
241.053	-15.4
241.271	-8.19
241.49	1.42
241.708	-6.68
241.926	-5.94
242.144	-12.73
242.363	-27.62
242.581	-68.59
242.799	-71.15
243.017	-57.8
243.235	-40
243.453	-64.62
243.672	-58.97
243.89	-24.42
244.108	-5.87
244.326	12.76
244.544	27.77
244.762	21.92
244.98	15.49
245.198	6.95
245.416	-17.68
245.634	-29.22
245.852	-42.32
246.07	-23.41
246.288	-12.14
246.506	-11.02
246.724	2.25
246.942	17.75
247.16	16.95
247.378	0.3
247.596	31.01
247.814	-15.24
248.032	-22.91
248.25	-33.71
248.468	-10.48
248.685	-13.86
248.903	-12.64
249.121	-11.71
249.339	-3.18
249.557	-11.47
249.775	-7.74
249.992	1.67
250.21	-6.6
250.428	-8.31
250.646	-2.67
250.863	-14.06
251.081	13.23
251.299	16.37
251.517	9.4
251.734	7.18
251.952	15.62
252.17	-16.63
252.387	-19.45
252.605	-26.3
252.823	-54.89
253.04	-52.62
253.258	-19.65
253.475	9.89
253.693	3.71
253.911	14.57
254.128	15.38
254.346	6.61
254.563	9.29
254.781	20.36
254.998	16.76
255.216	-19.22
255.433	-43.81
255.651	-55.08
255.868	-50.6
256.086	-34.72
256.303	-16.75
256.521	-6.86
256.738	-18.15
256.956	-15.82
257.173	-29.79
257.39	-25.17
257.608	-28.72
257.825	-13.28
258.043	-7.73
258.26	5.23
258.477	11.86
258.695	9.97
258.912	-1.81
259.129	-16.04
259.346	-59.54
259.564	-97.37
259.781	-88.44
259.998	-59.95
260.216	-26.92
260.433	-7.55
260.65	7.21
260.867	16.49
261.084	5.68
261.302	-14.58
261.519	2.05
261.736	-1.4
261.953	15.3
262.17	27.4
262.387	27.04
262.604	21.37
262.822	34.49
263.039	28.71
263.256	28.69
263.473	31.97
263.69	33.95
263.907	25.94
264.124	16.12
264.341	10.22
264.558	-2.12
264.775	-0.33
264.992	0.03
265.209	2.13
265.426	-15.1
265.643	-8.64
265.86	-49.93
266.077	-52.44
266.294	-50.6
266.51	-4.68
266.727	8.01
266.944	32.08
267.161	25.28
267.378	25.52
267.595	2.26
267.812	-29.09
268.028	-69.95
268.245	-55.58
268.462	-47.7
268.679	-13.43
268.896	13.25
269.112	0.72
269.329	-22.43
269.546	2.71
269.763	-14.72
269.979	-27.88
270.196	-1.1
270.413	10.77
270.629	-13.18
270.846	-22.56
271.063	-17.32
271.279	-23.85
271.496	-44.54
271.712	-33.97
271.929	-12.84
272.146	-23.22
272.362	-19.47
272.579	-4.99
272.795	-0.35
273.012	-18.86
273.228	0.64
273.445	-9.95
273.661	-23.36
273.878	-42.81
274.094	-42.7
274.311	-53.11
274.527	-56.56
274.744	-20.46
274.96	-7.61
275.177	-1.97
275.393	3.53
275.609	9.5
275.826	-6.56
276.042	-11.44
276.259	-20.74
276.475	-28.4
276.691	-38.84
276.908	-35.05
277.124	-42.11
277.34	-42.39
277.557	-51.38
277.773	-75.19
277.989	-81.27
278.205	-51.48
278.422	-40.07
278.638	-26.36
278.854	-6.78
279.07	16.64
279.286	2.56
279.503	15.65
279.719	21.9
279.935	17.76
280.151	1.49
280.367	20.53
280.583	9.85
280.799	-8.76
281.016	-41.12
281.232	-11.85
281.448	-20.41
281.664	-3.12
281.88	9.07
282.096	14.84
282.312	6.47
282.528	-1.67
282.744	-12.53
282.96	-23.71
283.176	-11.78
283.392	-18.37
283.608	-8.95
283.824	-6.68
284.04	-21.3
284.256	-9.94
284.471	-5.55
284.687	-2.41
284.903	4.26
285.119	13.58
285.335	14.12
285.551	-0.27
285.767	-16.73
285.982	-34.92
286.198	-60.22
286.414	-87.13
286.63	-72.29
286.846	-44.34
287.061	-42.3
287.277	-32.87
287.493	-37.73
287.709	-42.41
287.924	-27.55
288.14	-7.39
288.356	9.84
288.571	16.05
288.787	15.56
289.003	13.15
289.218	-14.37
289.434	-27.29
289.65	-4.29
289.865	-3.46
290.081	3.59
290.296	12.01
290.512	10.95
290.727	-6.76
290.943	0.49
291.159	-9.55
291.374	-28.14
291.59	-22.04
291.805	-29.74
292.021	-34.1
292.236	-32.56
292.451	-25.59
292.667	-30.95
292.882	-18.4
293.098	-30.72
293.313	-26.8
293.529	-15.93
293.744	-18.98
293.959	-17.57
294.175	-14.65
294.39	-13.29
294.605	14.07
294.821	14.22
295.036	9.38
295.251	14.84
295.467	-8.46
295.682	-20.11
295.897	-27.08
296.112	-26.34
296.328	-17.81
296.543	-9.32
296.758	-26.67
296.973	-18.08
297.188	-12.24
297.404	-74.29
297.619	-118.56
297.834	-136.87
298.049	-137.01
298.264	-132.47
298.479	-98.97
298.694	-15.52
298.909	-4.34
299.125	-4.81
299.34	5.7
299.555	11.77
299.77	11.01
299.985	3.27
300.2	16.25
300.415	17.68
300.63	18.63
300.845	2.43
301.06	6.03
301.275	-0.97
301.49	4.17
301.704	5.02
301.919	9.85
302.134	11.65
302.349	-4.27
302.564	-33.41
302.779	-60.46
302.994	-42.48
303.209	-44.98
303.423	-31.04
303.638	-21.72
303.853	-23.13
304.068	-39.5
304.283	-36.68
304.497	-44.59
304.712	-12.56
304.927	-2.75
305.142	-0.65
305.356	3.08
305.571	-0.84
305.786	-21.49
306	-18.84
306.215	-27.31
306.43	-24.56
306.644	-46.74
306.859	-53.89
307.074	-40.97
307.288	-16.11
307.503	-0.9
307.717	14.96
307.932	25.44
308.147	14.94
308.361	12.64
308.576	-23.04
308.79	-18.93
309.005	-58.79
309.219	-35.85
309.434	-44.07
309.648	-26.89
309.863	-49.39
310.077	-33.54
310.292	-27.47
310.506	-49.46
310.72	-50.06
310.935	1.67
311.149	15.86
311.364	14.26
311.578	32.5
311.792	46.9
312.007	25.64
312.221	-4.06
312.435	-0.74
312.649	3.79
312.864	-3.26
313.078	-2.85
313.292	5.05
313.507	-0.28
313.721	-5.36
313.935	8.01
314.149	8.06
314.363	5.29
314.578	18.65
314.792	-14.61
315.006	-28.56
315.22	-11.81
315.434	7.01
315.648	-28.38
315.862	-0.99
316.077	-13.44
316.291	-26.73
316.505	-81.79
316.719	-31.18
316.933	-29.76
317.147	-13
317.361	-7.48
317.575	18.94
317.789	13.36
318.003	4.08
318.217	-11.96
318.431	-23.06
318.645	-25.18
318.859	-19.1
319.073	-6.55
319.287	-1.88
319.5	-5.56
319.714	-15.88
319.928	-21.44
320.142	-28.05
320.356	-20.15
320.57	-20.98
320.784	-13.64
320.997	-30.34
321.211	-1.37
321.425	-16.51
321.639	1.74
321.853	14.29
322.066	4.3
322.28	-24.39
322.494	-9.56
322.707	-12.72
322.921	-19.69
323.135	-8.93
323.349	2.72
323.562	2.09
323.776	-6.59
323.989	3.38
324.203	-5.04
324.417	-12.75
324.63	-28.07
324.844	-39.74
325.057	-79.29
325.271	-64.28
325.485	-69.97
325.698	-35.23
325.912	-18.88
326.125	-11.81
326.339	-6.05
326.552	0.46
326.766	-13.07
326.979	-10.46
327.193	-9.44
327.406	-25.67
327.619	-11.67
327.833	-5.59
328.046	0.75
328.26	-12.35
328.473	-12.9
328.686	-26.72
328.9	-14.54
329.113	-16.56
329.326	-0.43
329.54	19.52
329.753	27.97
329.966	15.58
330.179	11.3
330.393	11.02
330.606	5.5
330.819	-1.47
331.032	2.62
331.246	-4.86
331.459	3.22
331.672	-9.23
331.885	-27.29
332.098	-14.92
332.311	-4
332.525	-1.03
332.738	15.11
332.951	12.95
333.164	11.89
333.377	17.5
333.59	1.87
333.803	-5.56
334.016	10.12
334.229	2.99
334.442	-4.85
334.655	12.37
334.868	0.56
335.081	3.26
335.294	2.38
335.507	11.74
335.72	10.04
335.933	12.28
336.146	15.36
336.359	24.41
336.572	26.11
336.785	11.79
336.997	16.08
337.21	11.61
337.423	-40.1
337.636	-53.06
337.849	-44.21
338.062	-31.42
338.274	-21.7
338.487	-15.68
338.7	-17.8
338.913	-10.8
339.125	-27.69
339.338	-44.79
339.551	-36.2
339.763	-27.89
339.976	-28.85
340.189	-13.34
340.402	11.32
340.614	14.89
340.827	23.92
341.039	27.51
341.252	19.19
341.465	6.83
341.677	11.41
341.89	-14.09
342.102	-7
342.315	-0.62
342.527	1.92
342.74	-10
342.952	-5.39
343.165	0.94
343.377	6.13
343.59	5.81
343.802	27.57
344.015	33.35
344.227	28.93
344.44	20.66
344.652	4.02
344.864	3.23
345.077	0.94
345.289	11.87
345.502	23.25
345.714	37.46
345.926	22.57
346.139	15.46
346.351	6.62
346.563	-0.16
346.775	3.51
346.988	6.91
347.2	-0.34
347.412	3.55
347.624	7.16
347.837	10.51
348.049	13.77
348.261	9.53
348.473	-0.57
348.685	-5.71
348.897	-30.76
349.11	-17.01
349.322	2.23
349.534	-8.08
349.746	-7.42
349.958	-0.28
350.17	-37.22
350.382	-46.25
350.594	-16.27
350.806	3.48
351.018	-2.69
351.23	18.91
351.442	26.26
351.654	23.71
351.866	2.44
352.078	14.91
352.29	5.41
352.502	2.05
352.714	3.26
352.926	5.24
353.138	4.4
353.35	2.53
353.561	-0.24
353.773	-12.32
353.985	4.07
354.197	7.67
354.409	4.49
354.621	-10.83
354.832	3.97
355.044	-23.66
355.256	-33.73
355.468	-56.54
355.679	-13.81
355.891	-13.74
356.103	-11.95
356.314	-24.16
356.526	-19.22
356.738	-27.13
356.949	-29.77
357.161	-21.81
357.373	-14.87
357.584	-10.05
357.796	-24.27
358.008	-20.95
358.219	-19.3
358.431	-16.3
358.642	-8.31
358.854	-0.24
359.065	-9.19
359.277	-13.68
359.488	-29.1
359.7	-27.12
359.911	-32.98
360.123	-28.27
360.334	-24.42
360.546	-22.3
360.757	-27.82
360.969	-27.28
361.18	-29.64
361.391	-18.13
361.603	-7.75
361.814	-5.7
362.025	-1.07
362.237	-1.56
362.448	-3.85
362.659	-10.87
362.871	-22.47
363.082	-30.12
363.293	-39.13
363.504	-72.12
363.716	-55.19
363.927	-31.87
364.138	-54.37
364.349	-60.79
364.56	-65.85
364.772	-53.62
364.983	-48.5
365.194	-23.04
365.405	-10.56
365.616	-6.14
365.827	-37
366.038	-32.94
366.25	-27.66
366.461	-23.78
366.672	-17.41
366.883	-4.66
367.094	-18.96
367.305	-37.61
367.516	-36.43
367.727	-45.68
367.938	-48.94
368.149	-48.39
368.36	-48.99
368.571	-89.96
368.781	-89.01
368.992	-83.38
369.203	-74.28
369.414	-63.45
369.625	-36.25
369.836	-13.26
370.047	-5.05
370.258	1.06
370.468	-7.71
370.679	0.16
370.89	-7.08
371.101	1.56
371.312	-12.42
371.522	-5.89
371.733	-17.94
371.944	-31.67
372.155	-34.78
372.365	-21.56
372.576	-22.02
372.787	-15.07
372.997	-15.61
373.208	-16.31
373.419	-14.01
373.629	-18.68
373.84	-19.47
374.05	-13.96
374.261	-38.68
374.472	-37.56
374.682	-27.7
374.893	-38.93
375.103	-24.86
375.314	-11.1
375.524	-7.27
375.735	-5.57
375.945	7.72
376.156	1.4
376.366	8.3
376.577	7.98
376.787	8.79
376.997	8.26
377.208	2.83
377.418	-1.96
377.629	-3.75
377.839	3.65
378.049	0.3
378.26	-5.57
378.47	-11.46
378.68	-5.54
378.89	-14.12
379.101	-10.75
379.311	-2.33
379.521	-2.91
379.732	-5.66
379.942	-14.41
380.152	-24.98
380.362	-25.89
380.572	-7.42
380.783	-4.46
380.993	8.36
381.203	7.24
381.413	10.52
381.623	6.63
381.833	6.8
382.043	-2.95
382.253	5.19
382.463	15.35
382.674	15.31
382.884	19.27
383.094	21.38
383.304	18.34
383.514	7.96
383.724	-0.07
383.934	-10.21
384.144	-4.24
384.353	-2.79
384.563	3.46
384.773	8.64
384.983	5.49
385.193	-0.54
385.403	-4.34
385.613	-1.41
385.823	-3.01
386.033	0.23
386.242	-2.64
386.452	-4.26
386.662	-5.12
386.872	-2.61
387.082	-1.97
387.291	-6.39
387.501	1.74
387.711	-0.47
387.921	-4.94
388.13	-6.26
388.34	1.35
388.55	-4.33
388.759	-7.71
388.969	-3.57
389.179	-5.7
389.388	-8.55
389.598	-8.02
389.807	-11.63
390.017	-12.07
390.227	-10.62
390.436	-8.13
390.646	-6.87
390.855	-1
391.065	-1.05
391.274	1.54
391.484	-1.53
391.693	-1.99
391.903	-2.68
392.112	-2.26
392.322	-3.5
392.531	-1.15
392.74	-0.9
392.95	-2.49
393.159	-2.25
393.369	-0.54
393.578	-0.72
393.787	0.94
393.997	2.16
394.206	2.3
394.415	1.54
394.625	1.14
394.834	-1.11
395.043	-0.86
395.252	0.29
395.462	0.71
395.671	1.05
395.88	3.17
396.089	3.11
396.298	3.9
396.508	4.07
396.717	4.55
396.926	3.98
397.135	3.79
397.344	2.04
397.553	1.97
397.762	2.43
397.971	2.09
398.181	1.76
398.39	1.85
398.599	1.86
398.808	1.28
399.017	1.6
399.226	1.94
399.435	2.38
399.644	2.3
399.853	2.44
400.062	2.33
400.27	2.3
400.479	2.31
400.688	2.53
400.897	2.42
401.106	2.52
401.315	2.42
401.524	2.21
401.733	1.83
401.941	2.24
402.15	1.96
402.359	2.18
402.568	2.49
402.777	2.65
402.985	2.15
403.194	2.31
403.403	2.36
403.612	2.25
403.82	2.25
404.029	2.42
404.238	2.57
404.446	2.74
404.655	2.8
404.864	2.88
405.072	2.94
405.281	2.8
405.489	2.57
405.698	2.48
405.906	2.48
406.115	2.45
406.324	2.63
406.532	2.83
406.741	2.89
406.949	2.88
407.158	2.89
407.366	2.63
407.574	2.53
407.783	2.69
407.991	2.72
408.2	2.81
408.408	3.02
408.617	2.98
408.825	2.67
409.033	2.58
409.242	2.52
409.45	2.39
409.658	2.27
409.867	2.39
410.075	2.46
410.283	2.39
410.491	2.3
410.7	2.3
410.908	2.39
411.116	2.36
411.324	2.39
411.533	2.36
411.741	2.37
411.949	2.3
412.157	2.21
412.365	2.18
412.573	2.35
412.781	2.39
412.99	2.37
413.198	2.56
413.406	2.64
413.614	2.71
413.822	2.77
414.03	2.79
414.238	2.69
414.446	2.79
414.654	2.55
414.862	2.55
415.07	2.41
415.278	2.47
415.486	2.19
415.694	2.32
415.902	2.19
416.109	2.16
416.317	2.09
416.525	2.12
416.733	2.18
416.941	2.26
417.149	2.34
417.357	2.33
417.564	2.38
417.772	2.18
417.98	2.14
418.188	2.05
418.395	1.78
418.603	1.63
418.811	1.71
419.019	1.63
419.226	1.83
419.434	2
419.642	2.02
419.849	1.99
420.057	2.12
420.265	2.04
420.472	2.06
420.68	2.17
420.887	2.1
421.095	2.15
421.302	2.18
421.51	2.18
421.717	2.26
421.925	2.45
422.132	2.42
422.34	2.19
422.547	2.09
422.755	2.11
422.962	2.02
423.17	1.84
423.377	1.91
423.585	2.17
423.792	1.98
423.999	2.01
424.207	2.1
424.414	2.2
424.621	2.06
424.829	2.1
425.036	2.02
425.243	2.07
425.451	2.13
425.658	2.14
425.865	2.19
426.072	2.17
426.28	2.2
426.487	2.07
426.694	1.98
426.901	2.04
427.108	2.05
427.315	1.85
427.523	1.73
427.73	1.88
427.937	1.69
428.144	1.73
428.351	1.73
428.558	1.91
428.765	1.76
428.972	1.94
429.179	1.85
429.386	1.96
429.593	1.84
429.8	1.93
430.007	1.89
430.214	2.1
430.421	2.14
430.628	2.13
430.835	2.13
431.042	2
431.249	1.93
431.456	1.89
431.662	2.14
431.869	2.24
432.076	2.4
432.283	2.5
432.49	2.48
432.697	2.32
432.903	2.18
433.11	2.21
433.317	2.22
433.524	2.28
433.73	2.28
433.937	2.56
434.144	2.38
434.35	2.18
434.557	2.25
434.764	2.34
434.97	2.12
435.177	2.36
435.384	2.48
435.59	2.41
435.797	2.39
436.003	2.41
436.21	2.24
436.416	2.29
436.623	2.41
436.829	2.33
437.036	2.33
437.242	2.57
437.449	2.47
437.655	2.49
437.862	2.63
438.068	2.61
438.275	2.52
438.481	2.62
438.687	2.54
438.894	2.59
439.1	2.7
439.307	2.77
439.513	2.9
439.719	2.91
439.926	2.94
440.132	3.04
440.338	2.96
440.544	2.86
440.751	2.91
440.957	2.95
441.163	2.82
441.369	2.78
441.575	2.74
441.782	2.77
441.988	2.65
442.194	2.67
442.4	2.67
442.606	2.79
442.812	2.75
443.018	2.75
443.224	2.82
443.431	2.87
443.637	2.79
443.843	2.76
444.049	2.86
444.255	2.82
444.461	2.75
444.667	2.74
444.873	2.77
445.079	2.72
445.284	2.66
445.49	2.71
445.696	2.7
445.902	2.71
446.108	2.78
446.314	2.89
446.52	2.98
446.726	3.07
446.931	3.06
447.137	3.08
447.343	3.12
447.549	3.02
447.755	2.95
447.96	2.97
448.166	2.94
448.372	2.89
448.578	2.87
448.783	2.93
448.989	3.04
449.195	3.05
449.4	3.11
449.606	3.18
449.812	3.07
450.017	3.03
450.223	2.95
450.428	2.89
450.634	2.99
450.84	3.12
451.045	3.13
451.251	3.19
451.456	3.24
451.662	3.19
451.867	3.19
452.073	3.19
452.278	3.21
452.483	3.19
452.689	3.25
452.894	3.34
453.1	3.3
453.305	3.35
453.51	3.39
453.716	3.31
453.921	3.24
454.127	3.24
454.332	3.15
454.537	3.15
454.742	3.15
454.948	3.19
455.153	3.26
455.358	3.29
455.563	3.34
455.769	3.39
455.974	3.33
456.179	3.31
456.384	3.3
456.589	3.26
456.795	3.2
457	3.2
457.205	3.1
457.41	3.15
457.615	3.11
457.82	3.2
458.025	3.16
458.23	3.23
458.435	3.19
458.64	3.22
458.845	3.23
459.05	3.35
459.255	3.36
459.46	3.38
459.665	3.35
459.87	3.26
460.075	3.27
460.28	3.35
460.485	3.37
460.69	3.41
460.895	3.48
461.099	3.39
461.304	3.31
461.509	3.34
461.714	3.42
461.919	3.41
462.123	3.5
462.328	3.45
462.533	3.35
462.738	3.22
462.942	3.15
463.147	3.09
463.352	3.17
463.556	3.29
463.761	3.29
463.966	3.31
464.17	3.36
464.375	3.4
464.58	3.35
464.784	3.45
464.989	3.56
465.193	3.55
465.398	3.56
465.602	3.8
465.807	3.74
466.011	3.75
466.216	3.68
466.42	3.71
466.625	3.65
466.829	3.68
467.034	3.75
467.238	3.92
467.443	3.9
467.647	3.79
467.851	3.81
468.056	3.77
468.26	3.71
468.464	3.8
468.669	3.81
468.873	3.81
469.077	3.78
469.282	3.81
469.486	3.77
469.69	3.91
469.894	3.98
470.099	4.04
470.303	4.01
470.507	4
470.711	3.88
470.915	3.95
471.119	3.88
471.324	3.95
471.528	3.97
471.732	4.1
471.936	4.09
472.14	4.14
472.344	4.2
472.548	4.27
472.752	4.17
472.956	4.13
473.16	4.18
473.364	4.18
473.568	4.14
473.772	4.16
473.976	4.26
474.18	4.3
474.384	4.24
474.588	4.2
474.792	4.21
474.995	4.14
475.199	4.11
475.403	4.16
475.607	4.25
475.811	4.29
476.015	4.24
476.218	4.23
476.422	4.23
476.626	4.21
476.83	4.32
477.033	4.37
477.237	4.34
477.441	4.33
477.644	4.36
477.848	4.31
478.052	4.35
478.255	4.43
478.459	4.44
478.663	4.49
478.866	4.53
479.07	4.5
479.273	4.53
479.477	4.57
479.681	4.58
479.884	4.52
480.088	4.53
480.291	4.53
480.495	4.49
480.698	4.47
480.901	4.46
481.105	4.51
481.308	4.54
481.512	4.63
481.715	4.69
481.919	4.82
482.122	4.84
482.325	4.93
482.529	4.89
482.732	4.83
482.935	4.68
483.138	4.64
483.342	4.56
483.545	4.64
483.748	4.73
483.952	4.83
484.155	4.94
484.358	4.94
484.561	4.89
484.764	4.83
484.967	4.78
485.171	4.79
485.374	4.77
485.577	4.79
485.78	4.81
485.983	4.84
486.186	4.77
486.389	4.82
486.592	4.81
486.795	4.82
486.998	4.78
487.201	4.81
487.404	4.89
487.607	4.91
487.81	4.9
488.013	4.95
488.216	4.95
488.419	4.84
488.622	4.83
488.825	4.84
489.028	4.84
489.231	4.9
489.433	4.92
489.636	4.91
489.839	4.93
490.042	4.93
490.245	4.86
490.447	4.87
490.65	4.92
490.853	4.91
491.056	4.88
491.258	4.95
491.461	4.94
491.664	4.92
491.866	4.9
492.069	4.98
492.272	4.93
492.474	4.94
492.677	4.94
492.879	4.94
493.082	4.96
493.285	5.02
493.487	5.04
493.69	5.08
493.892	5.06
494.095	5.02
494.297	4.99
494.5	4.98
494.702	4.93
494.905	5.01
495.107	5.02
495.309	5.03
495.512	5.02
495.714	5.08
495.917	5.13
496.119	5.1
496.321	5.08
496.524	5.11
496.726	5.08
496.928	5.06
497.13	5.05
497.333	5.06
497.535	5.11
497.737	5.13
497.939	5.11
498.142	5.15
498.344	5.15
498.546	5.15
498.748	5.15
498.95	5.22
499.152	5.17
499.355	5.21
499.557	5.24
499.759	5.3
499.961	5.29
500.163	5.37
500.365	5.38
500.567	5.36
500.769	5.31
500.971	5.3
501.173	5.26
501.375	5.35
501.577	5.35
501.779	5.36
501.981	5.37
502.183	5.35
502.385	5.3
502.587	5.28
502.788	5.31
502.99	5.36
503.192	5.48
503.394	5.51
503.596	5.52
503.798	5.5
503.999	5.45
504.201	5.4
504.403	5.42
504.605	5.46
504.806	5.53
505.008	5.6
505.21	5.64
505.411	5.66
505.613	5.69
505.815	5.7
506.016	5.7
506.218	5.72
506.42	5.71
506.621	5.7
506.823	5.71
507.024	5.67
507.226	5.71
507.427	5.7
507.629	5.75
507.83	5.76
508.032	5.74
508.233	5.71
508.435	5.73
508.636	5.76
508.838	5.82
509.039	5.83
509.24	5.87
509.442	5.95
509.643	5.9
509.845	5.86
510.046	5.94
510.247	5.94
510.448	5.91
510.65	5.93
510.851	5.97
511.052	5.95
511.254	6.01
511.455	5.99
511.656	5.95
511.857	5.94
512.058	5.94
512.26	5.9
512.461	5.95
512.662	6.05
512.863	5.97
513.064	6.03
513.265	5.99
513.466	6
513.667	6.01
513.868	6.04
514.069	5.97
514.27	5.99
514.471	5.95
514.672	5.96
514.873	5.94
515.074	6
515.275	6.01
515.476	6.14
515.677	6.12
515.878	6.25
516.079	6.27
516.28	6.29
516.481	6.25
516.682	6.27
516.882	6.24
517.083	6.24
517.284	6.28
517.485	6.24
517.686	6.26
517.886	6.27
518.087	6.25
518.288	6.23
518.488	6.26
518.689	6.25
518.89	6.29
519.091	6.4
519.291	6.47
519.492	6.52
519.692	6.53
519.893	6.52
520.094	6.39
520.294	6.35
520.495	6.3
520.695	6.29
520.896	6.24
521.096	6.3
521.297	6.34
521.497	6.38
521.698	6.42
521.898	6.46
522.099	6.52
522.299	6.53
522.499	6.53
522.7	6.58
522.9	6.59
523.101	6.53
523.301	6.52
523.501	6.5
523.702	6.49
523.902	6.55
524.102	6.68
524.302	6.72
524.503	6.73
524.703	6.71
524.903	6.68
525.103	6.55
525.304	6.53
525.504	6.6
525.704	6.6
525.904	6.57
526.104	6.65
526.304	6.67
526.504	6.67
526.705	6.68
526.905	6.75
527.105	6.73
527.305	6.73
527.505	6.69
527.705	6.68
527.905	6.7
528.105	6.77
528.305	6.78
528.505	6.82
528.705	6.89
528.905	6.88
529.105	6.87
529.304	6.86
529.504	6.89
529.704	6.83
529.904	6.84
530.104	6.84
530.304	6.9
530.503	6.92
530.703	6.91
530.903	6.92
531.103	6.95
531.303	6.91
531.502	6.92
531.702	6.97
531.902	7.05
532.101	7.04
532.301	7.1
532.501	7.21
532.7	7.22
532.9	7.22
533.1	7.22
533.299	7.19
533.499	7.08
533.698	7.09
533.898	7.12
534.097	7.18
534.297	7.18
534.496	7.22
534.696	7.25
534.895	7.22
535.095	7.25
535.294	7.32
535.494	7.32
535.693	7.35
535.892	7.37
536.092	7.35
536.291	7.31
536.491	7.39
536.69	7.44
536.889	7.4
537.088	7.41
537.288	7.41
537.487	7.41
537.686	7.41
537.886	7.45
538.085	7.46
538.284	7.56
538.483	7.52
538.682	7.53
538.882	7.58
539.081	7.63
539.28	7.64
539.479	7.65
539.678	7.67
539.877	7.7
540.076	7.71
540.275	7.73
540.474	7.79
540.673	7.84
540.872	7.85
541.071	7.89
541.27	7.91
541.469	7.91
541.668	7.87
541.867	7.87
542.066	7.9
542.265	7.92
542.464	7.97
542.663	8.03
542.862	8.09
543.06	8.09
543.259	8.17
543.458	8.2
543.657	8.25
543.856	8.32
544.054	8.36
544.253	8.3
544.452	8.35
544.651	8.35
544.849	8.36
545.048	8.44
545.247	8.5
545.445	8.5
545.644	8.56
545.843	8.61
546.041	8.6
546.24	8.66
546.438	8.76
546.637	8.77
546.836	8.8
547.034	8.89
547.233	8.94
547.431	8.94
547.63	9
547.828	8.99
548.027	8.98
548.225	8.96
548.423	9.04
548.622	9.09
548.82	9.14
549.019	9.16
549.217	9.29
549.415	9.3
549.614	9.41
549.812	9.45
550.01	9.55
550.209	9.61
550.407	9.67
550.605	9.63
550.803	9.71
551.002	9.8
551.2	9.75
551.398	9.88
551.596	10.01
551.794	10.1
551.993	10.1
552.191	10.21
552.389	10.23
552.587	10.26
552.785	10.31
552.983	10.45
553.181	10.54
553.379	10.6
553.577	10.64
553.775	10.72
553.973	10.79
554.171	10.85
554.369	10.94
554.567	11.09
554.765	11.14
554.963	11.16
555.161	11.15
555.359	11.28
555.557	11.28
555.755	11.4
555.952	11.49
556.15	11.7
556.348	11.68
556.546	11.81
556.744	11.85
556.941	11.88
557.139	11.92
557.337	12.06
557.535	12.13
557.732	12.25
557.93	12.43
558.128	12.51
558.325	12.6
558.523	12.66
558.721	12.78
558.918	12.82
559.116	12.98
559.313	13.02
559.511	13.08
559.708	13.11
559.906	13.17
560.104	13.18
560.301	13.3
560.498	13.44
560.696	13.52
560.893	13.69
561.091	13.84
561.288	14.01
561.486	14.03
561.683	14.08
561.88	14.21
562.078	14.31
562.275	14.3
562.473	14.48
562.67	14.65
562.867	14.69
563.064	14.79
563.262	14.86
563.459	15.04
563.656	15.14
563.853	15.19
564.051	15.31
564.248	15.45
564.445	15.42
564.642	15.47
564.839	15.61
565.036	15.73
565.234	15.82
565.431	15.92
565.628	16.02
565.825	16.06
566.022	16.1
566.219	16.2
566.416	16.3
566.613	16.43
566.81	16.61
567.007	16.65
567.204	16.74
567.401	16.81
567.598	16.86
567.795	16.91
567.991	16.99
568.188	17.06
568.385	17.16
568.582	17.28
568.779	17.32
568.976	17.5
569.172	17.65
569.369	17.7
569.566	17.76
569.763	17.78
569.96	17.82
570.156	17.83
570.353	17.91
570.55	18
570.746	18.13
570.943	18.14
571.14	18.17
571.336	18.21
571.533	18.22
571.729	18.21
571.926	18.29
572.123	18.34
572.319	18.39
572.516	18.41
572.712	18.44
572.909	18.43
573.105	18.52
573.302	18.48
573.498	18.52
573.695	18.65
573.891	18.7
574.087	18.62
574.284	18.72
574.48	18.86
574.677	18.87
574.873	18.9
575.069	19.05
575.266	19.07
575.462	18.95
575.658	19.01
575.854	19.11
576.051	19.13
576.247	19.16
576.443	19.28
576.639	19.25
576.835	19.18
577.032	19.16
577.228	19.22
577.424	19.22
577.62	19.26
577.816	19.18
578.012	19.16
578.208	19.21
578.404	19.18
578.6	19.18
578.796	19.38
578.993	19.4
579.189	19.35
579.384	19.4
579.58	19.4
579.776	19.33
579.972	19.34
580.168	19.32
580.364	19.35
580.56	19.32
580.756	19.25
580.952	19.15
581.148	19.17
581.343	19.11
581.539	19.16
581.735	19.21
581.931	19.3
582.127	19.25
582.322	19.27
582.518	19.28
582.714	19.26
582.909	19.27
583.105	19.29
583.301	19.27
583.496	19.19
583.692	19.13
583.888	19.14
584.083	19.16
584.279	19.16
584.474	19.26
584.67	19.27
584.866	19.23
585.061	19.21
585.257	19.16
585.452	19.09
585.648	19.09
585.843	19.09
586.039	19.09
586.234	19.14
586.429	19.06
586.625	19.18
586.82	19.23
587.015	19.2
587.211	19.23
587.406	19.32
587.601	19.3
587.797	19.28
587.992	19.29
588.187	19.24
588.383	19.28
588.578	19.3
588.773	19.33
588.968	19.37
589.163	19.53
589.359	19.45
589.554	19.41
589.749	19.44
589.944	19.49
590.139	19.5
590.334	19.6
590.529	19.65
590.724	19.72
590.919	19.74
591.114	19.78
591.309	19.82
591.504	19.89
591.699	19.89
591.894	19.9
592.089	19.88
592.284	19.95
592.479	20
592.674	20.07
592.869	20.19
593.064	20.24
593.259	20.32
593.454	20.33
593.648	20.37
593.843	20.5
594.038	20.65
594.233	20.68
594.428	20.81
594.622	20.86
594.817	20.85
595.012	20.82
595.206	20.88
595.401	20.96
595.596	21.02
595.79	21.09
595.985	21.17
596.18	21.23
596.374	21.32
596.569	21.41
596.763	21.41
596.958	21.47
597.153	21.58
597.347	21.51
597.542	21.55
597.736	21.61
597.931	21.63
598.125	21.69
598.319	21.79
598.514	21.89
598.708	21.97
598.903	22.16
599.097	22.18
599.291	22.23
599.486	22.29
599.68	22.34
599.874	22.39
600.069	22.48
600.263	22.57
600.457	22.63
600.651	22.73
600.846	22.72
601.04	22.69
601.234	22.74
601.428	22.82
601.622	22.9
601.817	22.96
602.011	23.01
602.205	23.09
602.399	23.04
602.593	23.03
602.787	23.01
602.981	23.1
603.175	23.09
603.369	23.03
603.563	23.03
603.757	23.07
603.951	23
604.145	22.96
604.339	23.15
604.533	23.1
604.727	22.96
604.921	22.95
605.115	22.89
605.309	22.77
605.502	22.77
605.696	22.77
605.89	22.88
606.084	22.91
606.278	22.88
606.471	22.8
606.665	22.86
606.859	22.69
607.053	22.55
607.246	22.51
607.44	22.4
607.634	22.32
607.827	22.28
608.021	22.39
608.214	22.35
608.408	22.33
608.602	22.22
608.795	22.24
608.989	22.1
609.182	22.07
609.376	22.11
609.569	22.13
609.763	21.98
609.956	21.94
610.15	21.81
610.343	21.73
610.537	21.68
610.73	21.62
610.923	21.56
611.117	21.55
611.31	21.44
611.504	21.35
611.697	21.3
611.89	21.23
612.083	21.07
612.277	21.02
612.47	20.93
612.663	20.87
612.856	20.82
613.05	20.87
613.243	20.81
613.436	20.73
613.629	20.69
613.822	20.64
614.015	20.53
614.209	20.44
614.402	20.37
614.595	20.35
614.788	20.21
614.981	20.13
615.174	20.04
615.367	19.96
615.56	19.76
615.753	19.85
615.946	19.79
616.139	19.78
616.332	19.77
616.525	19.82
616.718	19.69
616.911	19.68
617.103	19.6
617.296	19.5
617.489	19.39
617.682	19.37
617.875	19.34
618.067	19.36
618.26	19.34
618.453	19.3
618.646	19.2
618.838	19.12
619.031	19.09
619.224	19.03
619.417	19.13
619.609	19.15
619.802	19.04
619.994	19
620.187	19.04
620.38	18.93
620.572	18.84
620.765	18.79
620.957	18.73
621.15	18.68
621.342	18.59
621.535	18.62
621.727	18.63
621.92	18.65
622.112	18.65
622.305	18.65
622.497	18.55
622.69	18.57
622.882	18.54
623.074	18.48
623.267	18.5
623.459	18.48
623.651	18.4
623.844	18.35
624.036	18.42
624.228	18.34
624.42	18.32
624.613	18.3
624.805	18.26
624.997	18.16
625.189	18.24
625.381	18.2
625.574	18.16
625.766	18.13
625.958	18.14
626.15	18.06
626.342	18.09
626.534	18.12
626.726	18.16
626.918	18.14
627.11	18.17
627.302	18.23
627.494	18.19
627.686	18.13
627.878	18.04
628.07	17.97
628.262	17.87
628.454	17.88
628.646	17.86
628.838	17.98
629.029	17.85
629.221	17.78
629.413	17.72
629.605	17.63
629.797	17.47
629.989	17.4
630.18	17.42
630.372	17.35
630.564	17.39
630.755	17.39
630.947	17.52
631.139	17.43
631.33	17.41
631.522	17.35
631.714	17.29
631.905	17.25
632.097	17.17
632.289	17.16
632.48	17.11
632.672	17.1
632.863	16.94
633.055	16.98
633.246	17.03
633.438	17.03
633.629	17.07
633.821	17.06
634.012	17.09
634.203	17.07
634.395	17.06
634.586	17.06
634.777	17.11
634.969	17.11
635.16	16.98
635.351	16.99
635.543	16.85
635.734	16.79
635.925	16.75
636.117	16.84
636.308	16.89
636.499	16.91
636.69	16.98
636.881	16.9
637.073	16.92
637.264	16.84
637.455	16.84
637.646	16.84
637.837	16.84
638.028	16.74
638.219	16.84
638.41	16.86
638.601	16.81
638.792	16.8
638.983	16.85
639.174	16.7
639.365	16.71
639.556	16.64
639.747	16.71
639.938	16.77
640.129	16.79
640.32	16.74
640.511	16.72
640.701	16.74
640.892	16.55
641.083	16.48
641.274	16.43
641.465	16.41
641.655	16.37
641.846	16.44
642.037	16.42
642.228	16.4
642.418	16.36
642.609	16.32
642.8	16.25
642.99	16.22
643.181	16.22
643.372	16.29
643.562	16.26
643.753	16.25
643.943	16.23
644.134	16.08
644.324	16.07
644.515	16.02
644.705	16.06
644.896	16.06
645.086	16.16
645.277	16.09
645.467	16.13
645.658	16.03
645.848	16.1
646.038	16.08
646.229	16.07
646.419	15.94
646.61	15.99
646.8	15.99
646.99	16
647.18	15.93
647.371	15.93
647.561	15.82
647.751	15.76
647.941	15.65
648.132	15.59
648.322	15.63
648.512	15.67
648.702	15.69
648.892	15.79
649.082	15.85
649.272	15.74
649.462	15.69
649.653	15.52
649.843	15.41
650.033	15.33
650.223	15.44
650.413	15.49
650.603	15.61
650.793	15.64
650.983	15.61
651.172	15.51
651.362	15.4
651.552	15.27
651.742	15.23
651.932	15.2
652.122	15.21
652.312	15.17
652.502	15.04
652.691	14.94
652.881	14.87
653.071	14.76
653.261	14.61
653.45	14.58
653.64	14.51
653.83	14.5
654.019	14.37
654.209	14.36
654.399	14.26
654.588	14.12
654.778	13.91
654.968	13.82
655.157	13.66
655.347	13.56
655.536	13.55
655.726	13.38
655.915	13.24
656.105	13.16
656.294	13.07
656.484	12.87
656.673	12.81
656.863	12.67
657.052	12.57
657.241	12.5
657.431	12.4
657.62	12.28
657.809	12.16
657.999	11.95
658.188	11.7
658.377	11.55
658.567	11.48
658.756	11.39
658.945	11.3
659.134	11.15
659.324	10.95
659.513	10.7
659.702	10.5
659.891	10.34
660.08	10.15
660.269	10.03
660.458	9.88
660.648	9.69
660.837	9.57
661.026	9.43
661.215	9.25
661.404	9.23
661.593	9.26
661.782	9.16
661.971	9.06
662.16	9.08
662.349	8.89
662.538	8.68
662.726	8.46
662.915	8.37
663.104	8.15
663.293	8.18
663.482	8.09
663.671	8.07
663.86	8.01
664.048	8.04
664.237	7.91
664.426	7.81
664.615	7.74
664.803	7.7
664.992	7.44
665.181	7.38
665.369	7.26
665.558	7.21
665.747	7.17
665.935	7.24
666.124	7.18
666.312	7.24
666.501	7.23
666.69	7.16
666.878	7.09
667.067	7.04
667.255	6.95
667.444	6.98
667.632	6.98
667.82	6.98
668.009	6.92
668.197	6.92
668.386	6.72
668.574	6.65
668.762	6.58
668.951	6.49
669.139	6.4
669.327	6.4
669.516	6.47
669.704	6.49
669.892	6.54
670.08	6.58
670.269	6.67
670.457	6.6
670.645	6.48
670.833	6.51
671.021	6.57
671.21	6.54
671.398	6.59
671.586	6.73
671.774	6.84
671.962	6.84
672.15	6.9
672.338	6.91
672.526	6.95
672.714	6.86
672.902	6.92
673.09	6.97
673.278	7.04
673.466	7.13
673.654	7.21
673.842	7.23
674.03	7.29
674.218	7.28
674.405	7.23
674.593	7.34
674.781	7.44
674.969	7.51
675.157	7.67
675.344	7.81
675.532	7.76
675.72	7.77
675.908	7.77
676.095	7.76
676.283	7.81
676.471	7.96
676.658	8.06
676.846	8.08
677.033	8.13
677.221	8.08
677.409	8.14
677.596	8.17
677.784	8.34
677.971	8.31
678.159	8.5
678.346	8.48
678.534	8.54
678.721	8.6
678.909	8.79
679.096	8.84
679.283	8.95
679.471	9.15
679.658	9.25
679.846	9.3
680.033	9.53
680.22	9.7
680.408	9.65
680.595	9.72
680.782	9.89
680.969	10.05
681.157	9.99
681.344	10.1
681.531	10.19
681.718	10.2
681.905	10.17
682.093	10.49
682.28	10.73
682.467	11.03
682.654	11.15
682.841	11.39
683.028	11.32
683.215	11.49
683.402	11.49
683.589	11.77
683.776	11.88
683.963	12.25
684.15	12.5
684.337	12.71
684.524	12.95
684.711	13.21
684.898	13.19
685.085	13.36
685.271	13.7
685.458	13.91
685.645	14.1
685.832	14.55
686.019	14.77
686.205	14.91
686.392	15.25
686.579	15.52
686.766	15.9
686.952	16.17
687.139	16.59
687.326	16.9
687.512	17.24
687.699	17.55
687.886	18.02
688.072	18.33
688.259	18.7
688.445	19.3
688.632	19.62
688.818	20.08
689.005	20.48
689.191	21.08
689.378	21.48
689.564	22.04
689.751	22.46
689.937	23.2
690.124	23.56
690.31	23.92
690.496	24.47
690.683	25.12
690.869	25.49
691.055	26.04
691.242	26.69
691.428	27.26
691.614	27.89
691.8	28.45
691.987	29.2
692.173	30.02
692.359	30.62
692.545	31.19
692.731	31.93
692.918	32.17
693.104	32.56
693.29	33.19
693.476	33.84
693.662	34.4
693.848	35.24
694.034	35.92
694.22	36.43
694.406	36.84
694.592	37.78
694.778	38.47
694.964	38.95
695.15	39.59
695.336	40.31
695.522	40.46
695.708	40.97
695.894	41.55
696.08	42.11
696.265	42.7
696.451	43.43
696.637	44.24
696.823	45.01
697.009	45.66
697.194	46.16
697.38	46.88
697.566	47.16
697.751	47.46
697.937	48.36
698.123	49.21
698.308	49.62
698.494	50.34
698.68	50.9
698.865	50.98
699.051	51.18
699.236	51.46
699.422	51.95
699.607	52.52
699.793	53.02
699.978	53.52
700.164	53.95
700.349	54.45
700.535	54.83
700.72	55.22
700.906	55.36
701.091	55.97
701.276	55.86
701.462	56.31
701.647	56.87
701.832	57.55
702.018	58.08
702.203	58.75
702.388	59.11
702.573	59.43
702.759	60.07
702.944	59.94
703.129	60.26
703.314	60.51
703.499	60.94
703.684	61.15
703.87	61.82
704.055	62.27
704.24	62.72
704.425	62.85
704.61	62.86
704.795	63.35
704.98	63.38
705.165	63.33
705.35	63.49
705.535	63.97
705.72	63.83
705.905	64.53
706.09	65.12
706.275	65.4
706.459	65.55
706.644	65.71
706.829	65.77
707.014	65.95
707.199	66.14
707.384	66.08
707.568	66.41
707.753	66.43
707.938	66.19
708.123	66.42
708.307	67.1
708.492	67.42
708.677	67.53
708.861	68.08
709.046	68.04
709.231	67.6
709.415	67.62
709.6	67.83
709.784	67.81
709.969	68.21
710.153	68.24
710.338	68.57
710.522	68.86
710.707	68.96
710.891	68.72
711.076	68.74
711.26	68.6
711.445	68.47
711.629	68.59
711.813	69.15
711.998	69.79
712.182	69.64
712.366	70.27
712.551	70.59
712.735	70.33
712.919	70.48
713.103	70.73
713.288	70.39
713.472	70.66
713.656	70.76
713.84	70.74
714.024	71.18
714.208	71.05
714.393	71.07
714.577	71.59
714.761	71.71
714.945	71.57
715.129	71.71
715.313	71.5
715.497	71.31
715.681	71.21
715.865	71.14
716.049	71.1
716.233	71.4
716.417	71.15
716.601	71.57
716.785	72.04
716.968	72.26
717.152	72.24
717.336	72.96
717.52	72.96
717.704	73.26
717.888	73.89
718.071	74.02
718.255	73.91
718.439	73.7
718.622	73.26
718.806	72.6
718.99	72.55
719.174	72.68
719.357	73.08
719.541	73.47
719.724	73.56
719.908	73.52
720.092	73.26
720.275	73.22
720.459	72.88
720.642	72.87
720.826	72.88
721.009	73.03
721.193	72.94
721.376	73.28
721.559	73.98
721.743	74.79
721.926	75.04
722.11	75.02
722.293	74.95
722.476	74.41
722.66	73.99
722.843	73.58
723.026	74.3
723.21	74.1
723.393	75.04
723.576	75.24
723.759	75.83
723.942	75.67
724.126	75.98
724.309	75.39
724.492	75.24
724.675	75.32
724.858	75.05
725.041	75.22
725.224	75.55
725.407	75.29
725.59	74.63
725.774	74.45
725.957	74.16
726.14	74.31
726.322	75.23
726.505	75.78
726.688	76.18
726.871	76.9
727.054	76.97
727.237	76.39
727.42	76.58
727.603	76.48
727.786	76.41
727.968	76.29
728.151	76.04
728.334	76.17
728.517	76.37
728.699	76.41
728.882	76.37
729.065	76.98
729.248	77.46
729.43	77.62
729.613	77.4
729.796	78
729.978	77.63
730.161	77.11
730.343	76.53
730.526	76.89
730.708	76.54
730.891	76.96
731.073	77.05
731.256	77.5
731.438	77.66
731.621	77.66
731.803	77.95
731.986	78.17
732.168	78.52
732.35	78.59
732.533	78.52
732.715	78.25
732.898	77.98
733.08	78.78
733.262	78.32
733.444	78.69
733.627	78.59
733.809	79.15
733.991	78.25
734.173	78.35
734.355	78.31
734.538	79.54
734.72	79.04
734.902	79.43
735.084	79.58
735.266	79.79
735.448	79.16
735.63	79.42
735.812	79.31
735.994	79.07
736.176	79.45
736.358	79.53
736.54	80
736.722	79.93
736.904	80
737.086	78.98
737.268	79.48
737.45	79.96
737.632	80.29
737.814	81.12
737.995	81.42
738.177	81.48
738.359	80.91
738.541	81.15
738.723	80.58
738.904	81.29
739.086	80.69
739.268	80.51
739.449	80.18
739.631	80.42
739.813	80.14
739.994	79.9
740.176	79.98
740.358	80.55
740.539	80.02
740.721	80.47
740.902	80.7
741.084	80.99
741.265	80.34
741.447	81.53
741.628	81.47
741.81	81.97
741.991	82.04
742.172	81.5
742.354	81.17
742.535	80.79
742.717	79.69
742.898	79.21
743.079	81.13
743.261	81.23
743.442	80.31
743.623	81.78
743.804	82.44
743.986	80.82
744.167	80.64
744.348	80.91
744.529	79.83
744.71	79.32
744.891	79.54
745.073	79.93
745.254	80.32
745.435	79.73
745.616	80.55
745.797	80.49
745.978	80.1
746.159	80.05
746.34	81.45
746.521	80.61
746.702	81.19
746.883	80.99
747.064	81.06
747.245	80.81
747.426	80.33
747.606	79.57
747.787	80.14
747.968	79.76
748.149	78.62
748.33	78.02
748.51	77.75
748.691	76.83
748.872	78.84
749.053	78.57
749.233	79.42
749.414	80.27
749.595	81.12
749.775	79.64
749.956	80.97
750.137	81.08
750.317	80.28
750.498	80.17
750.678	80.69
750.859	80.71
751.04	81.53
751.22	81.05
751.4	80.52
751.581	80.03
751.761	80.23
751.942	80.43
752.122	81.15
752.303	81.57
752.483	81.53
752.663	81.38
752.844	80.81
753.024	82.16
753.204	81.38
753.385	81.12
753.565	81.6
753.745	80.29
753.925	78.59
754.106	79.25
754.286	79.13
754.466	77.72
754.646	77.83
754.826	78.76
755.006	77.87
755.187	78.8
755.367	78.21
755.547	78.69
755.727	78.31
755.907	77.89
756.087	77.09
756.267	76.38
756.447	77.43
756.627	77.73
756.807	79.5
756.987	78.71
757.167	79.9
757.346	79.46
757.526	79.14
757.706	77.56
757.886	78.04
758.066	78.99
758.246	77.57
758.425	76.32
758.605	76.29
758.785	75.89
758.965	75.99
759.144	75.87
759.324	76.95
759.504	77.87
759.683	77.3
759.863	76.35
760.043	76.43
760.222	76.49
760.402	75.6
760.581	76.95
760.761	76.6
760.94	77.09
761.12	77.05
761.299	78.84
761.479	79.04
761.658	79.46
761.838	79.71
762.017	79.65
762.197	76.83
762.376	75.78
762.555	74.69
762.735	74.83
762.914	74.28
763.093	74.75
763.273	74.75
763.452	74.13
763.631	73.24
763.81	73.56
763.99	73.81
764.169	73.97
764.348	74.41
764.527	73.14
764.706	72.04
764.885	74.03
765.064	74.88
765.243	75.55
765.423	76.56
765.602	78.15
765.781	75.25
765.96	73.87
766.139	72.73
766.318	74.07
766.497	73.87
766.676	74.38
766.854	75.18
767.033	76.78
767.212	77.62
767.391	75.73
767.57	78
767.749	76.58
767.928	76.74
768.106	74.28
768.285	73.95
768.464	71.37
768.643	71.88
768.821	71.85
769	71.77
769.179	73.22
769.357	74.44
769.536	72.95
769.715	71.87
769.893	72.9
770.072	72.5
770.25	70.4
770.429	71.75
770.607	71.43
770.786	70.16
770.964	71.25
771.143	73.65
771.321	72.16
771.5	74.03
771.678	74.64
771.857	74.09
772.035	74.81
772.213	76.42
772.392	73.88
772.57	74.47
772.748	73.57
772.927	73.44
773.105	75.13
773.283	77.3
773.461	77.46
773.64	77.42
773.818	76.69
773.996	76.29
774.174	74.9
774.352	72.77
774.531	71.55
774.709	71.27
774.887	69.36
775.065	69.39
775.243	70.08
775.421	70.38
775.599	70.77
775.777	71.28
775.955	70.53
776.133	71.69
776.311	71.6
776.489	72.23
776.667	71.06
776.844	73.29
777.022	70.61
777.2	71.06
777.378	68.3
777.556	70.08
777.734	70
777.911	71.62
778.089	71.81
778.267	72.35
778.445	70.98
778.622	69.22
778.8	68.72
778.978	71.34
779.155	72.89
779.333	75.7
779.511	75.32
779.688	77.57
779.866	74.92
780.043	74.34
780.221	70.5
780.398	70.65
780.576	69.41
780.753	66.89
780.931	66.47
781.108	71.18
781.286	71.14
781.463	70
781.64	71.75
781.818	72.6
781.995	70.6
782.172	73.19
782.35	74.5
782.527	74.63
782.704	71.17
782.882	67.83
783.059	64.89
783.236	63.73
783.413	65.42
783.59	67.5
783.768	67.49
783.945	69.38
784.122	68.87
784.299	68.46
784.476	66.22
784.653	67.07
784.83	63.04
785.007	62.01
785.184	61.51
785.361	62.5
785.538	60.94
785.715	66.21
785.892	67.35
786.069	66.5
786.246	66.18
786.423	68.05
786.6	64.88
786.776	67.75
786.953	67.56
787.13	69.54
787.307	67.98
787.484	67.58
787.66	64.79
787.837	64.41
788.014	62.78
788.191	64.61
788.367	62.58
788.544	64.28
788.721	64.65
788.897	65.72
789.074	65.45
789.25	68.01
789.427	65.67
789.603	64.37
789.78	64.75
789.956	62.56
790.133	60.18
790.309	62.99
790.486	61.07
790.662	60.26
790.839	61.43
791.015	64.89
791.192	61.88
791.368	65.96
791.544	68.37
791.721	69.08
791.897	65.58
792.073	64.02
792.249	62.64
792.426	60.24
792.602	59.8
792.778	59.52
792.954	61.83
793.13	62.25
793.307	61.7
793.483	58.74
793.659	59.53
793.835	61.26
794.011	63.28
794.187	61.24
794.363	60.52
794.539	63.06
794.715	59.33
794.891	56.74
795.067	57.8
795.243	61.74
795.419	58.96
795.595	64.22
795.771	62.66
795.947	62.66
796.122	56.68
796.298	60.68
796.474	59.89
796.65	64.77
796.826	64.76
797.001	68.85
797.177	59.35
797.353	58.31
797.529	60.02
797.704	61.49
797.88	60.74
798.056	67.69
798.231	64.49
798.407	63.17
798.582	63.02
798.758	66.98
798.934	71.22
799.109	72.47
799.285	68.72
799.46	68.92
799.636	62.82
799.811	61.85
799.986	62.94
800.162	59.56
800.337	60.01
800.513	63.59
800.688	56.56
800.863	60.31
801.039	67
801.214	61.65
801.389	59.29
801.565	59.64
801.74	56.02
801.915	52.29
802.09	49.15
802.265	52.05
802.441	55.29
802.616	52.66
802.791	56.24
802.966	63.91
803.141	61.96
803.316	58.13
803.491	61.69
803.666	59.62
803.841	61.47
804.016	58.76
804.191	62.2
804.366	59.1
804.541	54.26
804.716	49.26
804.891	54.76
805.066	56.29
805.241	54.46
805.416	59.94
805.591	63.18
805.765	65.6
805.94	60.08
806.115	58.1
806.29	58.43
806.464	55.02
806.639	54.32
806.814	55.57
806.989	58.99
807.163	59.41
807.338	57.69
807.512	50.66
807.687	46.08
807.862	47.92
808.036	51.05
808.211	51.56
808.385	59.2
808.56	69.27
808.734	63.54
808.909	60.21
809.083	61.82
809.258	64.32
809.432	56.84
809.606	58.31
809.781	65.13
809.955	69.64
810.13	53.29
810.304	52.85
810.478	50.11
810.652	46.56
810.827	47.85
811.001	56.24
811.175	56.17
811.349	61.07
811.524	68.93
811.698	60.41
811.872	63.48
812.046	62.45
812.22	56.94
812.394	44.95
812.568	51.91
812.742	40.96
812.916	44.36
813.09	44.07
813.264	39.6
813.438	38.35
813.612	38.81
813.786	41.65
813.96	48.96
814.134	53.97
814.308	62.9
814.482	66.59
814.656	55.8
814.83	52.87
815.003	53.11
815.177	44.37
815.351	47.75
815.525	60.59
815.698	50.67
815.872	43.56
816.046	36.87
816.219	36.05
816.393	30.09
816.567	39.46
816.74	46.47
816.914	58.09
817.088	63.8
817.261	56.62
817.435	56.21
817.608	50.7
817.782	35.83
817.955	33.57
818.129	51.79
818.302	57.86
818.475	64.95
818.649	66.65
818.822	59.74
818.996	62.02
819.169	61.02
819.342	63.25
819.516	67.84
819.689	66.47
819.862	60.65
820.035	55.26
820.209	45.89
820.382	36.38
820.555	43.09
820.728	32.62
820.901	30.25
821.075	37.12
821.248	28.61
821.421	29.84
821.594	41.68
821.767	47.5
821.94	42.57
822.113	57.28
822.286	58.41
822.459	50.88
822.632	51.8
822.805	50.41
822.978	46.49
823.151	34.98
823.324	33.06
823.496	19.64
823.669	30.07
823.842	34.04
824.015	33.71
824.188	29.84
824.361	43.63
824.533	24.1
824.706	18.52
824.879	32.4
825.051	46.78
825.224	39.17
825.397	42.61
825.569	52.38
825.742	57.96
825.915	49.75
826.087	51.18
826.26	58.14
826.432	51.73
826.605	39.62
826.777	48.86
826.95	47.13
827.122	30.08
827.295	43.5
827.467	45.53
827.64	8.22
827.812	4.6
827.984	37.41
828.157	16.3
828.329	26.73
828.501	34.53
828.674	43.48
828.846	32.49
829.018	23.12
829.19	8.3
829.363	17.12
829.535	11.14
829.707	5.76
829.879	9.75
830.051	3.41
830.223	17.27
830.395	12.42
830.568	26.27
830.74	25.86
830.912	46.85
831.084	41.04
831.256	43.5
831.428	45.14
831.6	34.04
831.772	14.36
831.943	3.17
832.115	9.83
832.287	2.61
832.459	17.43
832.631	20.29
832.803	32.45
832.975	33.6
833.146	30.16
833.318	36.02
833.49	41.1
833.662	46.1
833.833	39.08
834.005	53.12
834.177	61.46
834.348	54.06
834.52	39.68
834.692	31.73
834.863	21.48
835.035	17.94
835.206	32.95
835.378	41.78
835.549	53.37
835.721	50.13
835.892	41.09
836.064	34.24
836.235	34.08
836.407	25.53
836.578	35.6
836.749	35.41
836.921	30.95
837.092	14.89
837.264	14.61
837.435	-21.27
837.606	10.84
837.777	24.02
837.949	40.61
838.12	40.99
838.291	53.37
838.462	47.16
838.633	42.5
838.805	26.35
838.976	28.2
839.147	38.63
839.318	28.34
839.489	23.13
839.66	47.35
839.831	40.56
840.002	29.14
840.173	30.29
840.344	22.26
840.515	-1.52
840.686	6.23
840.857	15.89
841.028	15.55
841.199	27.76
841.369	31.48
841.54	14.37
841.711	2.78
841.882	21.94
842.053	12.95
842.223	16.21
842.394	27.98
842.565	20.06
842.736	31.05
842.906	24.39
843.077	39
843.248	39.66
843.418	33.72
843.589	-2.93
843.759	20.89
843.93	8.02
844.101	-11.02
844.271	0.59
844.442	24.85
844.612	29.15
844.783	37.93
844.953	46.35
845.123	28.98
845.294	26.35
845.464	-0.76
845.635	-22.79
845.805	-19.28
845.975	15.24
846.146	25.54
846.316	33.58
846.486	49.62
846.656	34.05
846.827	38.39
846.997	39.28
847.167	38.5
847.337	31.4
847.507	42.19
847.677	30.99
847.848	44.48
848.018	42.5
848.188	42.42
848.358	16.59
848.528	21.21
848.698	-5.62
848.868	16.2
849.038	-6.89
849.208	21.66
849.378	34.74
849.548	51
849.718	16.18
849.887	43.95
850.057	-8.27
850.227	1.35
850.397	-4.99
850.567	-16.46
850.737	0.84
850.906	-33.51
851.076	-46.65
851.246	-36.12
851.415	-15.55
851.585	-9.21
851.755	23.91
851.924	28.29
852.094	18.99
852.264	1.37
852.433	-30.28
852.603	-50.79
852.772	-25.44
852.942	14.52
853.111	3.39
853.281	32.57
853.45	26.76
853.62	16.54
853.789	-20.39
853.959	-4.74
854.128	-4.08
854.297	6.54
854.467	7.31
854.636	30.81
854.805	39.99
854.975	32.9
855.144	36.01
855.313	47.32
855.482	27.88
855.652	19.1
855.821	17.01
855.99	25.35
856.159	22.06
856.328	7.05
856.497	11.84
856.667	9.15
856.836	29.35
857.005	9.13
857.174	7.19
857.343	-33.66
857.512	-17
857.681	-71.73
857.85	-57.72
858.019	-109.4
858.188	-93.31
858.356	-58.86
858.525	-26.18
858.694	-15.73
858.863	4.53
859.032	16.1
859.201	-17.84
859.369	-10.6
859.538	-4.08
859.707	-3.2
859.876	11.76
860.044	41.49
860.213	33.36
860.382	42.25
860.55	29.64
860.719	56.1
860.888	40.78
861.056	54.62
861.225	6.16
861.393	19.98
861.562	-1.67
861.73	-12.9
861.899	-24.73
862.067	3.9
862.236	0.95
862.404	-24.65
862.572	-24.11
862.741	-37.81
862.909	-37.88
863.078	-29.12
863.246	-29.41
863.414	3.76
863.582	23.91
863.751	6.71
863.919	-1.8
864.087	-3.81
864.255	-8.14
864.424	-58.12
864.592	-7.97
864.76	-8.16
864.928	24.81
865.096	-4.81
865.264	-1.7
865.432	-21.12
865.6	-5.91
865.768	-55.25
865.936	-33.66
866.104	-15.69
866.272	-68.38
866.44	-62.86
866.608	-27.49
866.776	-37.08
866.944	0.4
867.112	27.59
867.28	32.49
867.448	51.74
867.615	52.84
867.783	29.05
867.951	34.06
868.119	27.87
868.286	-47.66
868.454	-27.5
868.622	-3.31
868.789	-14.07
868.957	0.93
869.125	16.3
869.292	-7.91
869.46	-14.52
869.627	-2.3
869.795	-24.73
869.963	-21.47
870.13	-20.78
870.298	0.89
870.465	-40.43
870.632	-64.97
870.8	-37.19
870.967	-31.75
871.135	-83.18
871.302	-55.39
871.469	-25.85
871.637	-51.94
871.804	-10.08
871.971	9.06
872.139	25.05
872.306	30.1
872.473	8.89
872.64	-99.02
872.807	-155.66
872.975	-384.35
873.142	-135.72
873.309	-75.45
873.476	19.51
873.643	61.09
873.81	44.07
873.977	54.81
874.144	67.31
874.311	-20.48
874.478	-49.07
874.645	-80.9
874.812	-12.25
874.979	-27.41
875.146	-25.65
875.313	1.43
875.48	60.34
875.647	59.47
875.813	-2.52
875.98	12.93
876.147	-31.74
876.314	-22.97
876.481	-39.09
876.647	24.96
876.814	19.06
876.981	27.33
877.147	9.4
877.314	12.66
877.481	9.93
877.647	-0.89
877.814	4.19
877.98	15.84
878.147	44.76
878.314	49.89
878.48	46.37
878.647	46.08
878.813	61.94
878.979	33.14
879.146	69.44
879.312	73.88
879.479	40.73
879.645	13.92
879.811	-29.93
879.978	-41.14
880.144	-48.08
880.31	-53.56
880.477	-41.95
880.643	0.88
880.809	-88.2
880.975	-51.42
881.142	-83.97
881.308	398.65
881.474	690.79
881.64	-50.63
881.806	-122.69
881.972	-70.63
882.138	-14.83
882.304	-42.3
882.47	-78.47
882.636	-59.18
882.802	-49.34
882.968	-10.54
883.134	8.24
883.3	-12.67
883.466	-6.92
883.632	0.74
883.798	-113.28
883.964	-153.37
884.129	-889.96
884.295	-83.27
884.461	-122.46
884.627	-63.92
884.793	-68.18
884.958	-8.72
885.124	-57.56
885.29	-104.67
885.455	-122.19
885.621	-83.39
885.787	-55.98
885.952	-58.46
886.118	-13.62
886.283	-32.84
886.449	-31.91
886.614	-48.88
886.78	-19.09
886.945	-20.67
887.111	-31.59
887.276	-44.93
887.442	-84.66
887.607	-86.38
887.773	-53.04
887.938	-50.96
888.103	-48.07
888.269	-18.56
888.434	-23.11
888.599	-30.8
888.764	-12.14
888.93	11.14
889.095	-3.96
889.26	-17.63
889.425	-39.48
889.59	-60.37
889.756	-72.19
889.921	-50.79
890.086	59.75
890.251	191.75
890.416	77.01
890.581	54.83
890.746	55.87
890.911	21.08
891.076	-13.93
891.241	-40.19
891.406	-35.84
891.571	-64.86
891.736	-203.98
891.901	-38.05
892.065	2.13
892.23	14.29
892.395	-9.88
892.56	-19.93
892.725	-45.8
892.889	-35.95
893.054	-79.81
893.219	-116.22
893.384	-109.1
893.548	-148.18
893.713	-234.06
893.878	-295.17
