Data from Ofra_PS_T2_2A_1GT43_Reflection_1.txt Node
Date: Wed Jul 21 16:55:53 EDT 2021
User: Adam
Spectrometer: FLMT01687
Trigger mode: 0
Integration Time (sec): 1.100000E0
Scans to average: 2
Electric dark correction enabled: true
Nonlinearity correction enabled: false
Boxcar width: 2
XAxis mode: Wavelengths
Number of Pixels in Spectrum: 3648
>>>>>Begin Spectral Data<<<<<
179.494	419.8
179.716	481.88
179.937	512.65
180.158	460.94
180.38	764.22
180.601	475
180.823	169.25
181.044	67.65
181.265	488.79
181.486	217.63
181.708	132.04
181.929	719.9
182.15	-298.24
182.372	140.29
182.593	188.59
182.814	91.61
183.035	107.7
183.257	106.42
183.478	43.67
183.699	13.71
183.92	-2
184.141	-0.23
184.363	-32.74
184.584	-7.13
184.805	17.07
185.026	28.09
185.247	22.29
185.468	-2.23
185.689	4.94
185.91	4.08
186.132	-5.12
186.353	0.67
186.574	28.41
186.795	33.73
187.016	-5.72
187.237	-17.55
187.458	-66.59
187.679	-49.56
187.9	-52.96
188.121	-29.91
188.342	-14.83
188.563	46.14
188.784	75.06
189.005	59.34
189.226	66.37
189.447	29.91
189.667	-267.35
189.888	-531.4
190.109	-1350.32
190.33	-606.94
190.551	-973.23
190.772	-171.13
190.993	-138.6
191.214	-123.53
191.434	-99.96
191.655	-39.97
191.876	-91.43
192.097	-98.38
192.318	-153.43
192.538	-230.13
192.759	-145.71
192.98	-61.97
193.201	-7.54
193.421	14.33
193.642	29.95
193.863	49.74
194.083	34.8
194.304	18.15
194.525	24.69
194.745	-8.32
194.966	-23.02
195.187	-26.76
195.407	-43.02
195.628	-105.72
195.848	-33.47
196.069	-48.4
196.29	-27.58
196.51	-32.9
196.731	-18.21
196.951	-46.99
197.172	-72.1
197.392	-74.39
197.613	-70.5
197.833	-105.47
198.054	-80.37
198.274	-18.34
198.495	-45.55
198.715	-29.45
198.936	-35.18
199.156	-47.93
199.377	-152.69
199.597	-132.89
199.817	-124.14
200.038	-80.01
200.258	-126.59
200.479	-37.63
200.699	-20.98
200.919	17.56
201.14	31.32
201.36	12.92
201.58	19.82
201.801	39.71
202.021	11.09
202.241	9.51
202.461	20.9
202.682	-61.98
202.902	-96.78
203.122	-56.35
203.342	-53.68
203.563	-16.5
203.783	31.11
204.003	8.29
204.223	12.29
204.443	52.92
204.663	45.14
204.884	43.92
205.104	73.14
205.324	110.03
205.544	111.96
205.764	103.94
205.984	83.69
206.204	60.74
206.424	41.08
206.644	4.39
206.864	-3.32
207.084	0.19
207.304	28.26
207.525	-58.67
207.745	-0.89
207.964	6.83
208.184	-56
208.404	-70.79
208.624	-37.84
208.844	-55.34
209.064	-211.23
209.284	-166.77
209.504	-66.74
209.724	-17.42
209.944	6.1
210.164	27.87
210.384	34.07
210.604	53.36
210.823	47.67
211.043	43.18
211.263	26.52
211.483	39.58
211.703	-17.86
211.922	-16.93
212.142	19.65
212.362	39.92
212.582	7.2
212.801	13.09
213.021	-4.4
213.241	-17.77
213.461	-47.95
213.68	-62.62
213.9	-57.04
214.12	-37.97
214.339	-93.32
214.559	-70.86
214.779	-21.7
214.998	-14.04
215.218	-41.76
215.438	-2.4
215.657	6.77
215.877	8.78
216.096	35.58
216.316	44.18
216.535	36.66
216.755	16.02
216.974	-10.27
217.194	-78.77
217.413	-77.16
217.633	-82.06
217.852	-120.11
218.072	-66.91
218.291	-8.78
218.511	33.86
218.73	15.81
218.95	3.72
219.169	2.46
219.389	-38.84
219.608	-34.85
219.827	-28.2
220.047	-10.18
220.266	10.96
220.485	20.02
220.705	21.99
220.924	6.85
221.143	34.06
221.363	11.93
221.582	16.24
221.801	37.69
222.021	60.67
222.24	16.93
222.459	73.54
222.678	73.3
222.897	36.75
223.117	-11.54
223.336	38.17
223.555	17.02
223.774	62.14
223.993	33.54
224.213	80.29
224.432	65.34
224.651	63.82
224.87	25.69
225.089	31.02
225.308	10.06
225.527	24
225.746	33.49
225.965	27.51
226.184	30.27
226.404	41.72
226.623	24.95
226.842	14.1
227.061	36.59
227.28	29.63
227.499	13.42
227.718	17.33
227.936	16.81
228.155	16.39
228.374	17.13
228.593	27.67
228.812	25.38
229.031	3.01
229.25	-40.79
229.469	-49.26
229.688	-59.69
229.907	-7.9
230.125	14.85
230.344	30.64
230.563	43.71
230.782	48.09
231.001	-8.78
231.22	-9.93
231.438	8.32
231.657	12.49
231.876	-10.19
232.095	31.17
232.313	45.85
232.532	27.03
232.751	-0.8
232.969	21.57
233.188	-30.34
233.407	-22.18
233.625	8.47
233.844	-18.9
234.063	-12.29
234.281	10.35
234.5	-3.35
234.719	0.46
234.937	23.06
235.156	13.07
235.374	3.24
235.593	-1.14
235.811	-16.06
236.03	-26.99
236.249	-47.98
236.467	-21.35
236.686	9.49
236.904	13.09
237.123	6.62
237.341	16.03
237.559	15.15
237.778	2.58
237.996	2.84
238.215	23.19
238.433	22.97
238.652	14.92
238.87	1.25
239.088	4.06
239.307	-6.44
239.525	-22.09
239.743	-39.42
239.962	-25.5
240.18	-52.98
240.398	-65.74
240.617	-66.19
240.835	-56.49
241.053	-40.2
241.271	7.66
241.49	8.79
241.708	8.21
241.926	22.5
242.144	32.39
242.363	-0.45
242.581	0.83
242.799	18.51
243.017	20.54
243.235	-8.8
243.453	2.74
243.672	6.93
243.89	8.45
244.108	14.36
244.326	40.73
244.544	52.72
244.762	62.3
244.98	86.05
245.198	82.09
245.416	46.42
245.634	25.94
245.852	10.66
246.07	-17.15
246.288	-43.95
246.506	-57.74
246.724	-37.81
246.942	-33.54
247.16	4.07
247.378	25
247.596	43.24
247.814	26.54
248.032	10.62
248.25	10.46
248.468	12.62
248.685	28.08
248.903	45.04
249.121	45.16
249.339	27.64
249.557	4.07
249.775	0.76
249.992	-52.43
250.21	-33.99
250.428	-26.82
250.646	-33
250.863	-42.65
251.081	-15.94
251.299	-40.92
251.517	-36.72
251.734	-22.58
251.952	-15.91
252.17	-17.77
252.387	5.99
252.605	-2.95
252.823	-0.08
253.04	12.49
253.258	32.04
253.475	33.67
253.693	65.72
253.911	70.45
254.128	65.01
254.346	75.73
254.563	38.08
254.781	2.59
254.998	-9.69
255.216	-18.23
255.433	2.47
255.651	44.85
255.868	56.91
256.086	67.43
256.303	60.6
256.521	40.65
256.738	18.6
256.956	-1.43
257.173	-14.84
257.39	-34.2
257.608	-64.03
257.825	-20.6
258.043	24.34
258.26	18.24
258.477	56.69
258.695	52.16
258.912	27.31
259.129	20.16
259.346	7.03
259.564	-11.37
259.781	12.81
259.998	26.38
260.216	45.54
260.433	48.82
260.65	48.68
260.867	44.66
261.084	38.12
261.302	13.75
261.519	38.77
261.736	16.74
261.953	3.35
262.17	22.83
262.387	11.85
262.604	-28.86
262.822	-29.04
263.039	1.66
263.256	-21.9
263.473	6.27
263.69	12.88
263.907	28.32
264.124	12.51
264.341	7.37
264.558	5.24
264.775	12.51
264.992	2.73
265.209	21.03
265.426	30.79
265.643	24.68
265.86	25.56
266.077	23.8
266.294	15.9
266.51	1.15
266.727	-9.81
266.944	-10.62
267.161	-10.46
267.378	-20.75
267.595	11.11
267.812	0.09
268.028	-4.86
268.245	14.59
268.462	1.32
268.679	-20.65
268.896	25.99
269.112	22.78
269.329	10.12
269.546	9.98
269.763	9.42
269.979	-11.6
270.196	-9.64
270.413	-11.15
270.629	-22.08
270.846	-19.6
271.063	-6.89
271.279	-10.5
271.496	-10.17
271.712	18.67
271.929	26.84
272.146	11.56
272.362	25.2
272.579	15.83
272.795	32.62
273.012	32.36
273.228	37.23
273.445	18.23
273.661	24.56
273.878	-19.52
274.094	-14.43
274.311	-40.23
274.527	21.87
274.744	13.97
274.96	9.43
275.177	11.79
275.393	30.86
275.609	10.33
275.826	25.64
276.042	25.43
276.259	19.7
276.475	30.59
276.691	32.89
276.908	23.36
277.124	38.59
277.34	35.86
277.557	22.76
277.773	5.6
277.989	0.24
278.205	-6.02
278.422	9.17
278.638	6.31
278.854	15.66
279.07	14.91
279.286	47.31
279.503	22.45
279.719	28.07
279.935	6.31
280.151	5.49
280.367	-22.1
280.583	-36.12
280.799	-19.79
281.016	-42.98
281.232	-13.87
281.448	-13.53
281.664	22.94
281.88	2.05
282.096	39.38
282.312	55.67
282.528	60.25
282.744	44.73
282.96	50.43
283.176	33.92
283.392	20.55
283.608	7.33
283.824	2.96
284.04	-1.27
284.256	11.52
284.471	5.21
284.687	15.14
284.903	31.35
285.119	52.75
285.335	19.42
285.551	19.61
285.767	17.62
285.982	9
286.198	-33.75
286.414	20.7
286.63	21.38
286.846	27.94
287.061	12.84
287.277	42.6
287.493	14.35
287.709	34.03
287.924	21.78
288.14	51.98
288.356	35.72
288.571	52.11
288.787	40.99
289.003	39.62
289.218	17.82
289.434	-5.36
289.65	0.98
289.865	-3.18
290.081	12.46
290.296	27.15
290.512	32.15
290.727	7.1
290.943	-0.27
291.159	-5.3
291.374	-14.92
291.59	-25.4
291.805	-10.52
292.021	-13.51
292.236	-7.66
292.451	11.42
292.667	23.02
292.882	32.89
293.098	39.5
293.313	24.94
293.529	3.83
293.744	-15.88
293.959	-38.25
294.175	-28.75
294.39	3.25
294.605	18.56
294.821	30.87
295.036	57.13
295.251	57.27
295.467	38.54
295.682	24.95
295.897	6.62
296.112	-31.65
296.328	-15.93
296.543	-31.35
296.758	-21.46
296.973	16.11
297.188	36.24
297.404	19.41
297.619	27.75
297.834	16.51
298.049	-8.48
298.264	-29.95
298.479	5.78
298.694	6.98
298.909	22.2
299.125	28.87
299.34	35.81
299.555	11.11
299.77	5.11
299.985	-23.83
300.2	-72.1
300.415	-83.31
300.63	-40.97
300.845	-34.05
301.06	-26.98
301.275	11.39
301.49	33.37
301.704	16.77
301.919	3.5
302.134	-6.63
302.349	-5.43
302.564	-39.41
302.779	-40.56
302.994	-20.02
303.209	3.48
303.423	8.08
303.638	23.23
303.853	-0.11
304.068	10.64
304.283	15.45
304.497	20.3
304.712	22.63
304.927	27.15
305.142	23.59
305.356	28.72
305.571	8
305.786	-2.92
306	-15.43
306.215	-36.74
306.43	-52.4
306.644	-19.72
306.859	3.81
307.074	21.85
307.288	14.42
307.503	8.02
307.717	-12.45
307.932	-1.7
308.147	-5.18
308.361	16.87
308.576	17.57
308.79	3.84
309.005	-7.18
309.219	2.3
309.434	-13.53
309.648	-15.56
309.863	4.47
310.077	6.77
310.292	3.86
310.506	20.29
310.72	26.91
310.935	39.74
311.149	30.06
311.364	36.91
311.578	45.1
311.792	39.17
312.007	32.96
312.221	22.65
312.435	22.23
312.649	-1.71
312.864	-4.05
313.078	-6.46
313.292	42.46
313.507	0.78
313.721	27.85
313.935	30.69
314.149	27.3
314.363	20.77
314.578	27.35
314.792	28.13
315.006	14.46
315.22	28.98
315.434	18.11
315.648	32.54
315.862	30.65
316.077	49.04
316.291	35.42
316.505	47.11
316.719	63.52
316.933	27.56
317.147	7.73
317.361	-28.45
317.575	-49.81
317.789	-92.13
318.003	-140.86
318.217	-114.23
318.431	-29.39
318.645	10.55
318.859	4.7
319.073	28.69
319.287	18.01
319.5	0.39
319.714	-26.17
319.928	-49.37
320.142	-62.45
320.356	-11.63
320.57	-11.85
320.784	-17.59
320.997	-9.05
321.211	-8.7
321.425	-50.47
321.639	-53.48
321.853	-10.36
322.066	19.31
322.28	26.15
322.494	31.02
322.707	49.22
322.921	40.76
323.135	29.01
323.349	25.58
323.562	2.35
323.776	-15.56
323.989	-29.65
324.203	-39.15
324.417	-53.5
324.63	-47.34
324.844	-34.14
325.057	-8.29
325.271	0.66
325.485	25
325.698	42.47
325.912	33.84
326.125	5.8
326.339	9.9
326.552	-17.59
326.766	-17.7
326.979	9.56
327.193	53.74
327.406	51.66
327.619	51.03
327.833	62.06
328.046	33.26
328.26	-6.25
328.473	-3.6
328.686	-26.44
328.9	-21.77
329.113	7.09
329.326	0.85
329.54	17.73
329.753	22.02
329.966	4.76
330.179	21.6
330.393	38.9
330.606	44.39
330.819	54.26
331.032	56.25
331.246	54
331.459	61.2
331.672	45.83
331.885	34.95
332.098	8.12
332.311	-21.04
332.525	-64.03
332.738	-64.67
332.951	-40.46
333.164	-4.14
333.377	13.09
333.59	30.1
333.803	25.19
334.016	21.53
334.229	28.24
334.442	31.75
334.655	43.07
334.868	56.8
335.081	53.15
335.294	34.58
335.507	30.37
335.72	15.65
335.933	3.14
336.146	-14.19
336.359	-13.53
336.572	-17.41
336.785	-37.18
336.997	-0.12
337.21	21.24
337.423	19.6
337.636	13.26
337.849	32.14
338.062	9.33
338.274	17.07
338.487	16.6
338.7	9.75
338.913	-12.22
339.125	-27.73
339.338	-88.95
339.551	-84.14
339.763	-41.54
339.976	-21.03
340.189	-1.31
340.402	6.91
340.614	8.02
340.827	-10.48
341.039	-35.16
341.252	-22.41
341.465	9.95
341.677	5.07
341.89	-11.66
342.102	24.74
342.315	2.32
342.527	-38.14
342.74	-14.01
342.952	17.22
343.165	10.89
343.377	28.14
343.59	30.95
343.802	28.47
344.015	29.6
344.227	39.72
344.44	30.69
344.652	38.03
344.864	35.46
345.077	46.67
345.289	36.46
345.502	38.73
345.714	29.45
345.926	27.18
346.139	7.28
346.351	20.81
346.563	22.02
346.775	34.56
346.988	22.89
347.2	24.41
347.412	-19.52
347.624	-31.02
347.837	-60.76
348.049	-16.07
348.261	-8.94
348.473	1.75
348.685	4.32
348.897	5.14
349.11	-23.57
349.322	-39.34
349.534	-33.42
349.746	-30.35
349.958	-18.81
350.17	0.1
350.382	14.44
350.594	17.93
350.806	31.73
351.018	27.61
351.23	19.86
351.442	-7.67
351.654	-16.3
351.866	-16.58
352.078	-8
352.29	-0.85
352.502	19.1
352.714	28.62
352.926	18.57
353.138	17.57
353.35	14.41
353.561	19.22
353.773	7.08
353.985	10.56
354.197	4.55
354.409	1.32
354.621	-17.24
354.832	-7.09
355.044	-11.57
355.256	0.89
355.468	9.38
355.679	14.22
355.891	11.79
356.103	0.07
356.314	3.7
356.526	-7.54
356.738	3.69
356.949	8.46
357.161	15
357.373	-0.42
357.584	6.17
357.796	6.83
358.008	6.03
358.219	16.96
358.431	19.2
358.642	6.76
358.854	-6.42
359.065	-21.15
359.277	-24.3
359.488	-32.95
359.7	-28.76
359.911	-31.58
360.123	-24.21
360.334	-42.44
360.546	-58.46
360.757	-49.95
360.969	-44.26
361.18	-38.37
361.391	-19.59
361.603	-23.28
361.814	-21.96
362.025	-16.92
362.237	-10.33
362.448	-10.7
362.659	17.6
362.871	22.56
363.082	19.58
363.293	10.8
363.504	-0.08
363.716	-22.39
363.927	-34.34
364.138	-39.69
364.349	-33.58
364.56	-10.26
364.772	0.75
364.983	22.27
365.194	25.59
365.405	28.34
365.616	24.17
365.827	32.26
366.038	-7.76
366.25	-3.84
366.461	-23.4
366.672	-0.1
366.883	-13.27
367.094	10.29
367.305	-3.46
367.516	5.26
367.727	-21.02
367.938	-23.32
368.149	-23.96
368.36	-4.48
368.571	1.35
368.781	-1.78
368.992	-7.71
369.203	-21.98
369.414	-31.47
369.625	-45.47
369.836	-29.72
370.047	-47.99
370.258	-32.56
370.468	-46.24
370.679	-51.44
370.89	-43.48
371.101	-6.9
371.312	-9.42
371.522	3.33
371.733	14.04
371.944	17.2
372.155	14.46
372.365	10.28
372.576	17.01
372.787	16.53
372.997	4.86
373.208	-9.22
373.419	6.68
373.629	-13.58
373.84	-23.18
374.05	-25.71
374.261	-10.58
374.472	-30.97
374.682	5.03
374.893	22.54
375.103	38.57
375.314	36.66
375.524	39.25
375.735	31.76
375.945	26.56
376.156	9.7
376.366	7.04
376.577	13.18
376.787	6.21
376.997	11.5
377.208	11.48
377.418	3.58
377.629	17.79
377.839	19.73
378.049	5.29
378.26	17.96
378.47	21.43
378.68	2.24
378.89	0.71
379.101	2.57
379.311	-21.14
379.521	-48.39
379.732	-35.28
379.942	-43.84
380.152	-47.34
380.362	-19.53
380.572	-6.62
380.783	4.64
380.993	23.62
381.203	27.09
381.413	34.61
381.623	39.04
381.833	30.82
382.043	9.34
382.253	8.49
382.463	-1.81
382.674	-10.3
382.884	-27.41
383.094	-9.04
383.304	-2.25
383.514	1.76
383.724	13.66
383.934	15.12
384.144	5.39
384.353	-7.43
384.563	-9.24
384.773	-8.08
384.983	-13.34
385.193	-5.69
385.403	4.8
385.613	11.87
385.823	-0.12
386.033	8
386.242	4.04
386.452	-2.53
386.662	-6.59
386.872	10.34
387.082	6.89
387.291	6.87
387.501	12.92
387.711	5.88
387.921	-4.69
388.13	-5.82
388.34	1.35
388.55	-4.88
388.759	-0.54
388.969	3.72
389.179	2.25
389.388	0.78
389.598	4.85
389.807	0.26
390.017	-6.16
390.227	-2.15
390.436	-3.9
390.646	-3.07
390.855	-2.03
391.065	0.16
391.274	-3.59
391.484	-2.59
391.693	-0.84
391.903	-0.14
392.112	5.13
392.322	9.06
392.531	11.54
392.74	11.85
392.95	8.45
393.159	6.14
393.369	5.78
393.578	4.15
393.787	3.23
393.997	5.09
394.206	1.87
394.415	0.9
394.625	1.36
394.834	0.33
395.043	1.76
395.252	4.25
395.462	6.7
395.671	5.75
395.88	6.36
396.089	6.75
396.298	5.46
396.508	3.72
396.717	4.25
396.926	4.46
397.135	3.58
397.344	4.44
397.553	5.43
397.762	6.48
397.971	7.04
398.181	7.11
398.39	6.56
398.599	6.08
398.808	5.99
399.017	6.21
399.226	7.77
399.435	9.03
399.644	9.45
399.853	8.54
400.062	8.29
400.27	7.23
400.479	6.25
400.688	5.68
400.897	6.17
401.106	6.06
401.315	6.07
401.524	6.45
401.733	6.78
401.941	6.69
402.15	6.64
402.359	6.59
402.568	6.79
402.777	6.94
402.985	7
403.194	6.79
403.403	6.77
403.612	6.39
403.82	6.11
404.029	6.04
404.238	6.04
404.446	6.44
404.655	6.14
404.864	6.11
405.072	5.9
405.281	6.11
405.489	5.64
405.698	5.74
405.906	5.75
406.115	5.88
406.324	5.88
406.532	6.16
406.741	6.4
406.949	6.43
407.158	6.42
407.366	6.37
407.574	6.13
407.783	5.99
407.991	5.86
408.2	5.84
408.408	5.77
408.617	5.72
408.825	5.53
409.033	5.54
409.242	5.7
409.45	5.74
409.658	5.69
409.867	5.94
410.075	5.8
410.283	5.52
410.491	5.44
410.7	5.41
410.908	5.25
411.116	5.47
411.324	5.51
411.533	5.35
411.741	5.55
411.949	5.57
412.157	5.39
412.365	5.39
412.573	5.45
412.781	5.42
412.99	5.38
413.198	5.51
413.406	5.46
413.614	5.48
413.822	5.26
414.03	5.14
414.238	5.05
414.446	5.2
414.654	5.02
414.862	5.13
415.07	5.16
415.278	5.22
415.486	4.99
415.694	5.13
415.902	5.09
416.109	5.09
416.317	5.11
416.525	5.11
416.733	5.08
416.941	5.19
417.149	5.2
417.357	5.19
417.564	5.2
417.772	5.45
417.98	5.22
418.188	5.16
418.395	5.1
418.603	5.3
418.811	4.88
419.019	4.97
419.226	5.16
419.434	5.25
419.642	5.01
419.849	5.24
420.057	5.1
420.265	5.05
420.472	4.78
420.68	4.77
420.887	4.67
421.095	4.76
421.302	4.72
421.51	4.82
421.717	4.99
421.925	4.92
422.132	4.85
422.34	4.56
422.547	4.54
422.755	4.29
422.962	4.25
423.17	4.25
423.377	4.32
423.585	4.26
423.792	4.28
423.999	4.29
424.207	4.33
424.414	4.57
424.621	4.53
424.829	4.59
425.036	4.68
425.243	4.71
425.451	4.56
425.658	4.58
425.865	4.7
426.072	4.62
426.28	4.78
426.487	4.83
426.694	4.93
426.901	4.74
427.108	4.88
427.315	4.65
427.523	4.78
427.73	4.71
427.937	4.74
428.144	4.55
428.351	4.61
428.558	4.54
428.765	4.44
428.972	4.29
429.179	4.53
429.386	4.76
429.593	4.63
429.8	4.73
430.007	5.01
430.214	4.98
430.421	4.77
430.628	4.74
430.835	4.66
431.042	4.73
431.249	4.72
431.456	4.64
431.662	4.79
431.869	4.9
432.076	4.83
432.283	4.9
432.49	5.03
432.697	5.08
432.903	4.94
433.11	4.78
433.317	4.83
433.524	4.84
433.73	4.78
433.937	5.05
434.144	5.15
434.35	5.08
434.557	4.98
434.764	4.99
434.97	4.83
435.177	5.04
435.384	5.03
435.59	5.13
435.797	5.34
436.003	5.5
436.21	5.38
436.416	5.46
436.623	5.49
436.829	5.35
437.036	5.33
437.242	5.46
437.449	5.35
437.655	5.31
437.862	5.38
438.068	5.3
438.275	5.39
438.481	5.67
438.687	5.71
438.894	5.71
439.1	5.84
439.307	5.91
439.513	5.77
439.719	5.83
439.926	5.93
440.132	5.8
440.338	5.64
440.544	5.74
440.751	5.72
440.957	5.68
441.163	5.79
441.369	5.85
441.575	5.71
441.782	5.68
441.988	5.53
442.194	5.51
442.4	5.58
442.606	5.8
442.812	6
443.018	6.18
443.224	6.23
443.431	6.31
443.637	6.13
443.843	6.03
444.049	6.11
444.255	6.1
444.461	6.05
444.667	6.02
444.873	6.07
445.079	6.04
445.284	6.13
445.49	5.95
445.696	5.95
445.902	5.92
446.108	5.84
446.314	5.75
446.52	5.85
446.726	6.13
446.931	6.17
447.137	6.31
447.343	6.41
447.549	6.35
447.755	6.16
447.96	6.21
448.166	6.12
448.372	6.04
448.578	6.1
448.783	6.15
448.989	6.23
449.195	6.36
449.4	6.42
449.606	6.4
449.812	6.28
450.017	6.17
450.223	6.07
450.428	6.03
450.634	6.12
450.84	6.26
451.045	6.2
451.251	6.06
451.456	6.3
451.662	6.42
451.867	6.46
452.073	6.49
452.278	6.69
452.483	6.64
452.689	6.56
452.894	6.48
453.1	6.56
453.305	6.45
453.51	6.34
453.716	6.27
453.921	6.32
454.127	6.23
454.332	6.28
454.537	6.28
454.742	6.32
454.948	6.28
455.153	6.34
455.358	6.41
455.563	6.59
455.769	6.68
455.974	6.81
456.179	6.7
456.384	6.69
456.589	6.58
456.795	6.35
457	6.24
457.205	6.42
457.41	6.52
457.615	6.52
457.82	6.64
458.025	6.66
458.23	6.64
458.435	6.55
458.64	6.45
458.845	6.51
459.05	6.49
459.255	6.47
459.46	6.53
459.665	6.62
459.87	6.67
460.075	6.73
460.28	6.73
460.485	6.78
460.69	6.78
460.895	6.65
461.099	6.62
461.304	6.69
461.509	6.65
461.714	6.65
461.919	6.83
462.123	6.69
462.328	6.75
462.533	6.73
462.738	6.83
462.942	6.62
463.147	6.86
463.352	6.89
463.556	6.85
463.761	6.87
463.966	6.98
464.17	6.97
464.375	6.87
464.58	6.97
464.784	6.94
464.989	6.92
465.193	6.93
465.398	6.95
465.602	7
465.807	6.93
466.011	6.95
466.216	6.99
466.42	7.01
466.625	7.02
466.829	7.11
467.034	7.17
467.238	7.27
467.443	7.23
467.647	7.21
467.851	7.16
468.056	7.23
468.26	7.12
468.464	7.15
468.669	7.15
468.873	7.38
469.077	7.27
469.282	7.41
469.486	7.41
469.69	7.43
469.894	7.27
470.099	7.49
470.303	7.5
470.507	7.57
470.711	7.57
470.915	7.63
471.119	7.52
471.324	7.54
471.528	7.57
471.732	7.65
471.936	7.66
472.14	7.78
472.344	7.76
472.548	7.83
472.752	7.92
472.956	8.15
473.16	8.15
473.364	8.12
473.568	8.09
473.772	8.08
473.976	7.96
474.18	7.87
474.384	8.01
474.588	8.06
474.792	8.03
474.995	8.1
475.199	8.26
475.403	8.25
475.607	8.27
475.811	8.28
476.015	8.3
476.218	8.38
476.422	8.31
476.626	8.42
476.83	8.56
477.033	8.55
477.237	8.4
477.441	8.54
477.644	8.52
477.848	8.47
478.052	8.49
478.255	8.58
478.459	8.56
478.663	8.62
478.866	8.68
479.07	8.72
479.273	8.79
479.477	8.84
479.681	8.86
479.884	8.86
480.088	8.78
480.291	8.78
480.495	8.74
480.698	8.76
480.901	8.72
481.105	8.83
481.308	8.88
481.512	8.9
481.715	8.93
481.919	9.02
482.122	8.96
482.325	9.02
482.529	9.1
482.732	9.06
482.935	9.01
483.138	9.04
483.342	9.04
483.545	9.06
483.748	9.19
483.952	9.26
484.155	9.41
484.358	9.48
484.561	9.49
484.764	9.36
484.967	9.35
485.171	9.31
485.374	9.24
485.577	9.27
485.78	9.33
485.983	9.38
486.186	9.29
486.389	9.27
486.592	9.28
486.795	9.27
486.998	9.24
487.201	9.26
487.404	9.34
487.607	9.37
487.81	9.41
488.013	9.46
488.216	9.51
488.419	9.44
488.622	9.4
488.825	9.42
489.028	9.36
489.231	9.32
489.433	9.26
489.636	9.18
489.839	9.15
490.042	9.12
490.245	9.12
490.447	9.22
490.65	9.29
490.853	9.29
491.056	9.33
491.258	9.41
491.461	9.46
491.664	9.51
491.866	9.54
492.069	9.64
492.272	9.63
492.474	9.67
492.677	9.69
492.879	9.78
493.082	9.81
493.285	9.87
493.487	9.8
493.69	9.81
493.892	9.72
494.095	9.68
494.297	9.68
494.5	9.71
494.702	9.71
494.905	9.76
495.107	9.74
495.309	9.76
495.512	9.8
495.714	9.86
495.917	9.93
496.119	9.97
496.321	10.06
496.524	10.06
496.726	10.1
496.928	10.08
497.13	10.12
497.333	10.11
497.535	10.16
497.737	10.15
497.939	10.18
498.142	10.23
498.344	10.26
498.546	10.25
498.748	10.28
498.95	10.35
499.152	10.39
499.355	10.46
499.557	10.52
499.759	10.64
499.961	10.66
500.163	10.66
500.365	10.69
500.567	10.71
500.769	10.57
500.971	10.55
501.173	10.5
501.375	10.5
501.577	10.47
501.779	10.54
501.981	10.6
502.183	10.76
502.385	10.71
502.587	10.75
502.788	10.91
502.99	11.03
503.192	11.06
503.394	11.14
503.596	11.17
503.798	11.2
503.999	11.27
504.201	11.21
504.403	11.26
504.605	11.33
504.806	11.35
505.008	11.27
505.21	11.37
505.411	11.39
505.613	11.39
505.815	11.4
506.016	11.42
506.218	11.49
506.42	11.52
506.621	11.59
506.823	11.67
507.024	11.63
507.226	11.63
507.427	11.63
507.629	11.73
507.83	11.8
508.032	11.89
508.233	11.97
508.435	12.06
508.636	12.08
508.838	12.05
509.039	12.1
509.24	12.14
509.442	12.21
509.643	12.17
509.845	12.28
510.046	12.37
510.247	12.38
510.448	12.32
510.65	12.42
510.851	12.43
511.052	12.49
511.254	12.61
511.455	12.74
511.656	12.78
511.857	12.75
512.058	12.65
512.26	12.59
512.461	12.63
512.662	12.66
512.863	12.74
513.064	12.82
513.265	12.92
513.466	13
513.667	13.05
513.868	13.04
514.069	13.15
514.27	13.21
514.471	13.11
514.672	13.16
514.873	13.18
515.074	13.16
515.275	13.12
515.476	13.22
515.677	13.25
515.878	13.43
516.079	13.44
516.28	13.53
516.481	13.63
516.682	13.66
516.882	13.56
517.083	13.59
517.284	13.51
517.485	13.54
517.686	13.55
517.886	13.63
518.087	13.67
518.288	13.72
518.488	13.65
518.689	13.68
518.89	13.69
519.091	13.73
519.291	13.78
519.492	13.86
519.692	13.9
519.893	14
520.094	13.99
520.294	14.01
520.495	14.04
520.695	14.13
520.896	14.08
521.096	14.15
521.297	14.2
521.497	14.17
521.698	14.08
521.898	14.09
522.099	14.12
522.299	14.16
522.499	14.26
522.7	14.32
522.9	14.44
523.101	14.55
523.301	14.55
523.501	14.54
523.702	14.63
523.902	14.67
524.102	14.65
524.302	14.68
524.503	14.73
524.703	14.73
524.903	14.7
525.103	14.66
525.304	14.78
525.504	14.89
525.704	14.95
525.904	14.97
526.104	15
526.304	15.02
526.504	15.02
526.705	15
526.905	15.09
527.105	15.16
527.305	15.13
527.505	15.09
527.705	15.15
527.905	15.18
528.105	15.18
528.305	15.16
528.505	15.2
528.705	15.21
528.905	15.19
529.105	15.25
529.304	15.33
529.504	15.38
529.704	15.41
529.904	15.42
530.104	15.37
530.304	15.43
530.503	15.47
530.703	15.41
530.903	15.45
531.103	15.52
531.303	15.57
531.502	15.56
531.702	15.66
531.902	15.72
532.101	15.72
532.301	15.73
532.501	15.76
532.7	15.77
532.9	15.75
533.1	15.78
533.299	15.84
533.499	15.86
533.698	15.88
533.898	15.94
534.097	16.02
534.297	16.07
534.496	16.15
534.696	16.26
534.895	16.31
535.095	16.41
535.294	16.39
535.494	16.36
535.693	16.34
535.892	16.38
536.092	16.32
536.291	16.34
536.491	16.46
536.69	16.59
536.889	16.53
537.088	16.6
537.288	16.73
537.487	16.77
537.686	16.74
537.886	16.91
538.085	16.97
538.284	17.01
538.483	17.01
538.682	17.09
538.882	17.17
539.081	17.26
539.28	17.2
539.479	17.25
539.678	17.24
539.877	17.34
540.076	17.36
540.275	17.49
540.474	17.61
540.673	17.71
540.872	17.67
541.071	17.69
541.27	17.72
541.469	17.67
541.668	17.63
541.867	17.73
542.066	17.82
542.265	17.88
542.464	18.01
542.663	18.13
542.862	18.26
543.06	18.36
543.259	18.41
543.458	18.43
543.657	18.57
543.856	18.53
544.054	18.53
544.253	18.53
544.452	18.62
544.651	18.7
544.849	18.75
545.048	18.82
545.247	18.94
545.445	19.02
545.644	19
545.843	19.06
546.041	19.13
546.24	19.22
546.438	19.29
546.637	19.39
546.836	19.49
547.034	19.53
547.233	19.67
547.431	19.71
547.63	19.72
547.828	19.79
548.027	19.88
548.225	19.88
548.423	19.97
548.622	20.15
548.82	20.22
549.019	20.31
549.217	20.43
549.415	20.48
549.614	20.55
549.812	20.61
550.01	20.64
550.209	20.71
550.407	20.83
550.605	20.87
550.803	21.03
551.002	21.16
551.2	21.2
551.398	21.27
551.596	21.42
551.794	21.51
551.993	21.66
552.191	21.8
552.389	22.01
552.587	22.09
552.785	22.19
552.983	22.23
553.181	22.39
553.379	22.47
553.577	22.56
553.775	22.71
553.973	22.82
554.171	22.9
554.369	22.88
554.567	23.01
554.765	23.07
554.963	23.19
555.161	23.21
555.359	23.39
555.557	23.49
555.755	23.54
555.952	23.63
556.15	23.76
556.348	23.92
556.546	24.06
556.744	24.16
556.941	24.26
557.139	24.42
557.337	24.48
557.535	24.54
557.732	24.73
557.93	24.92
558.128	24.99
558.325	25.09
558.523	25.18
558.721	25.37
558.918	25.41
559.116	25.56
559.313	25.6
559.511	25.78
559.708	25.8
559.906	25.88
560.104	26.02
560.301	26.21
560.498	26.3
560.696	26.39
560.893	26.55
561.091	26.63
561.288	26.75
561.486	26.84
561.683	27
561.88	27.15
562.078	27.29
562.275	27.42
562.473	27.56
562.67	27.76
562.867	27.85
563.064	27.97
563.262	28.07
563.459	28.14
563.656	28.18
563.853	28.27
564.051	28.38
564.248	28.51
564.445	28.68
564.642	28.77
564.839	28.94
565.036	29.17
565.234	29.31
565.431	29.48
565.628	29.61
565.825	29.79
566.022	29.91
566.219	30.01
566.416	30.09
566.613	30.23
566.81	30.29
567.007	30.27
567.204	30.32
567.401	30.39
567.598	30.39
567.795	30.42
567.991	30.46
568.188	30.6
568.385	30.69
568.582	30.75
568.779	30.92
568.976	31.03
569.172	31.21
569.369	31.24
569.566	31.24
569.763	31.27
569.96	31.35
570.156	31.33
570.353	31.33
570.55	31.58
570.746	31.6
570.943	31.61
571.14	31.59
571.336	31.77
571.533	31.85
571.729	31.83
571.926	32
572.123	32.12
572.319	32.12
572.516	32.06
572.712	32.2
572.909	32.16
573.105	32.18
573.302	32.25
573.498	32.33
573.695	32.32
573.891	32.35
574.087	32.36
574.284	32.36
574.48	32.26
574.677	32.37
574.873	32.47
575.069	32.5
575.266	32.63
575.462	32.64
575.658	32.67
575.854	32.73
576.051	32.66
576.247	32.57
576.443	32.73
576.639	32.64
576.835	32.51
577.032	32.51
577.228	32.58
577.424	32.61
577.62	32.6
577.816	32.66
578.012	32.7
578.208	32.62
578.404	32.58
578.6	32.59
578.796	32.6
578.993	32.64
579.189	32.68
579.384	32.44
579.58	32.48
579.776	32.42
579.972	32.36
580.168	32.35
580.364	32.46
580.56	32.35
580.756	32.25
580.952	32.23
581.148	32.2
581.343	32.25
581.539	32.46
581.735	32.56
581.931	32.56
582.127	32.65
582.322	32.53
582.518	32.33
582.714	32.25
582.909	32.18
583.105	32.13
583.301	32.13
583.496	32.2
583.692	32.13
583.888	32.12
584.083	31.96
584.279	31.93
584.474	31.9
584.67	31.94
584.866	31.98
585.061	32.04
585.257	32.16
585.452	32.13
585.648	32.17
585.843	32.22
586.039	32.23
586.234	32.22
586.429	32.16
586.625	32.14
586.82	32.16
587.015	32.22
587.211	32.1
587.406	32.17
587.601	32.22
587.797	32.18
587.992	32.22
588.187	32.32
588.383	32.28
588.578	32.24
588.773	32.21
588.968	32.17
589.163	32.19
589.359	32.18
589.554	32.13
589.749	32.14
589.944	32.31
590.139	32.33
590.334	32.4
590.529	32.49
590.724	32.55
590.919	32.49
591.114	32.58
591.309	32.72
591.504	32.83
591.699	32.85
591.894	32.9
592.089	32.8
592.284	32.8
592.479	32.89
592.674	32.93
592.869	32.92
593.064	33.11
593.259	33.28
593.454	33.26
593.648	33.37
593.843	33.43
594.038	33.43
594.233	33.34
594.428	33.41
594.622	33.49
594.817	33.68
595.012	33.75
595.206	33.93
595.401	34.07
595.596	34.19
595.79	34.28
595.985	34.49
596.18	34.57
596.374	34.72
596.569	34.73
596.763	34.71
596.958	34.81
597.153	34.87
597.347	34.88
597.542	35.03
597.736	35.09
597.931	35.05
598.125	35.03
598.319	35.18
598.514	35.13
598.708	35.22
598.903	35.25
599.097	35.4
599.291	35.36
599.486	35.37
599.68	35.44
599.874	35.64
600.069	35.59
600.263	35.61
600.457	35.82
600.651	35.88
600.846	35.83
601.04	35.91
601.234	35.99
601.428	36.07
601.622	36.13
601.817	36.13
602.011	36.23
602.205	36.3
602.399	36.24
602.593	36.23
602.787	36.37
602.981	36.38
603.175	36.33
603.369	36.32
603.563	36.38
603.757	36.38
603.951	36.39
604.145	36.38
604.339	36.46
604.533	36.31
604.727	36.22
604.921	36.18
605.115	36.23
605.309	36.19
605.502	36.32
605.696	36.28
605.89	36.3
606.084	36.22
606.278	36.21
606.471	36.05
606.665	36.11
606.859	35.95
607.053	35.98
607.246	35.88
607.44	35.9
607.634	35.7
607.827	35.63
608.021	35.48
608.214	35.41
608.408	35.25
608.602	35.28
608.795	35.29
608.989	35.26
609.182	35.15
609.376	35.15
609.569	34.93
609.763	34.7
609.956	34.55
610.15	34.5
610.343	34.42
610.537	34.38
610.73	34.47
610.923	34.45
611.117	34.43
611.31	34.35
611.504	34.44
611.697	34.26
611.89	34.11
612.083	34.01
612.277	33.99
612.47	33.81
612.663	33.72
612.856	33.72
613.05	33.56
613.243	33.39
613.436	33.25
613.629	33.29
613.822	33.13
614.015	33.09
614.209	33
614.402	32.98
614.595	32.89
614.788	32.83
614.981	32.64
615.174	32.57
615.367	32.48
615.56	32.34
615.753	32.31
615.946	32.26
616.139	32.21
616.332	32.28
616.525	32.2
616.718	32.2
616.911	32.25
617.103	32.19
617.296	32.02
617.489	32.01
617.682	31.84
617.875	31.79
618.067	31.72
618.26	31.61
618.453	31.55
618.646	31.51
618.838	31.44
619.031	31.51
619.224	31.55
619.417	31.51
619.609	31.55
619.802	31.6
619.994	31.52
620.187	31.42
620.38	31.45
620.572	31.37
620.765	31.36
620.957	31.23
621.15	31.19
621.342	31.16
621.535	31.13
621.727	31.05
621.92	31.07
622.112	31.02
622.305	31.03
622.497	30.96
622.69	30.89
622.882	30.83
623.074	31
623.267	30.86
623.459	30.83
623.651	30.74
623.844	30.79
624.036	30.74
624.228	30.66
624.42	30.62
624.613	30.7
624.805	30.63
624.997	30.52
625.189	30.56
625.381	30.56
625.574	30.43
625.766	30.4
625.958	30.41
626.15	30.44
626.342	30.42
626.534	30.48
626.726	30.41
626.918	30.32
627.11	30.23
627.302	30.21
627.494	30.05
627.686	30.07
627.878	30.04
628.07	30.01
628.262	29.96
628.454	29.94
628.646	29.85
628.838	29.87
629.029	29.75
629.221	29.81
629.413	29.77
629.605	29.69
629.797	29.54
629.989	29.54
630.18	29.43
630.372	29.47
630.564	29.49
630.755	29.55
630.947	29.61
631.139	29.53
631.33	29.32
631.522	29.35
631.714	29.23
631.905	29.24
632.097	29.22
632.289	29.32
632.48	29.25
632.672	29.26
632.863	29.11
633.055	29.04
633.246	29.01
633.438	28.9
633.629	28.89
633.821	28.89
634.012	28.95
634.203	28.92
634.395	29.02
634.586	29.05
634.777	29.08
634.969	28.95
635.16	29.01
635.351	28.92
635.543	28.8
635.734	28.76
635.925	28.77
636.117	28.71
636.308	28.82
636.499	28.79
636.69	28.71
636.881	28.74
637.073	28.77
637.264	28.63
637.455	28.62
637.646	28.74
637.837	28.76
638.028	28.6
638.219	28.66
638.41	28.68
638.601	28.55
638.792	28.48
638.983	28.47
639.174	28.36
639.365	28.31
639.556	28.24
639.747	28.24
639.938	28.33
640.129	28.33
640.32	28.29
640.511	28.31
640.701	28.4
640.892	28.34
641.083	28.32
641.274	28.38
641.465	28.36
641.655	28.12
641.846	28.04
642.037	27.94
642.228	27.95
642.418	27.98
642.609	28.04
642.8	28.12
642.99	28.06
643.181	27.91
643.372	27.81
643.562	27.75
643.753	27.59
643.943	27.56
644.134	27.57
644.324	27.54
644.515	27.42
644.705	27.51
644.896	27.51
645.086	27.41
645.277	27.4
645.467	27.47
645.658	27.34
645.848	27.28
646.038	27.27
646.229	27.17
646.419	27.04
646.61	27.04
646.8	27.04
646.99	27.01
647.18	26.95
647.371	26.98
647.561	26.88
647.751	26.81
647.941	26.69
648.132	26.66
648.322	26.59
648.512	26.6
648.702	26.64
648.892	26.7
649.082	26.69
649.272	26.6
649.462	26.44
649.653	26.3
649.843	26.14
650.033	26.15
650.223	26.14
650.413	26.02
650.603	26.04
650.793	26.09
650.983	25.96
651.172	25.86
651.362	25.86
651.552	25.73
651.742	25.56
651.932	25.56
652.122	25.46
652.312	25.45
652.502	25.4
652.691	25.36
652.881	25.23
653.071	25.27
653.261	25.19
653.45	24.99
653.64	24.93
653.83	24.77
654.019	24.61
654.209	24.53
654.399	24.44
654.588	24.14
654.778	23.95
654.968	23.79
655.157	23.54
655.347	23.4
655.536	23.43
655.726	23.21
655.915	22.94
656.105	22.8
656.294	22.69
656.484	22.36
656.673	22.31
656.863	22.26
657.052	22.07
657.241	21.86
657.431	21.63
657.62	21.43
657.809	21.05
657.999	20.8
658.188	20.58
658.377	20.44
658.567	20.18
658.756	20.09
658.945	20.02
659.134	19.78
659.324	19.55
659.513	19.4
659.702	19.16
659.891	18.94
660.08	18.78
660.269	18.74
660.458	18.46
660.648	18.29
660.837	17.99
661.026	17.73
661.215	17.43
661.404	17.26
661.593	17.05
661.782	16.72
661.971	16.6
662.16	16.34
662.349	16.27
662.538	16.1
662.726	16.11
662.915	15.85
663.104	15.71
663.293	15.46
663.482	15.32
663.671	15.17
663.86	15.06
664.048	14.81
664.237	14.66
664.426	14.38
664.615	14.15
664.803	14
664.992	13.94
665.181	13.85
665.369	13.71
665.558	13.61
665.747	13.46
665.935	13.4
666.124	13.32
666.312	13.34
666.501	13.16
666.69	13.08
666.878	12.99
667.067	12.74
667.255	12.68
667.444	12.94
667.632	12.9
667.82	12.83
668.009	12.91
668.197	12.83
668.386	12.51
668.574	12.49
668.762	12.53
668.951	12.4
669.139	12.35
669.327	12.31
669.516	12.33
669.704	12.21
669.892	12.34
670.08	12.32
670.269	12.23
670.457	12.11
670.645	11.97
670.833	11.94
671.021	11.88
671.21	12.03
671.398	12.23
671.586	12.27
671.774	12.08
671.962	12.01
672.15	11.91
672.338	11.69
672.526	11.8
672.714	11.73
672.902	11.94
673.09	12.12
673.278	12.39
673.466	12.31
673.654	12.6
673.842	12.57
674.03	12.53
674.218	12.33
674.405	12.44
674.593	12.35
674.781	12.4
674.969	12.51
675.157	12.69
675.344	12.84
675.532	12.99
675.72	13.22
675.908	13.23
676.095	13.25
676.283	13.3
676.471	13.52
676.658	13.44
676.846	13.54
677.033	13.61
677.221	13.76
677.409	13.58
677.596	13.71
677.784	13.79
677.971	14.04
678.159	14.02
678.346	14.23
678.534	14.43
678.721	14.78
678.909	14.75
679.096	14.94
679.283	15.08
679.471	15.19
679.658	15.11
679.846	15.33
680.033	15.62
680.22	15.83
680.408	15.87
680.595	16.06
680.782	16.15
680.969	16.17
681.157	16.27
681.344	16.44
681.531	16.53
681.718	16.72
681.905	17.04
682.093	17.3
682.28	17.69
682.467	18
682.654	18.34
682.841	18.47
683.028	18.65
683.215	18.82
683.402	19.01
683.589	19.14
683.776	19.5
683.963	19.79
684.15	20.14
684.337	20.48
684.524	20.92
684.711	21.23
684.898	21.41
685.085	21.59
685.271	21.9
685.458	22.24
685.645	22.52
685.832	23
686.019	23.41
686.205	23.84
686.392	24.13
686.579	24.52
686.766	25.04
686.952	25.5
687.139	26.11
687.326	26.65
687.512	27.12
687.699	27.5
687.886	28.03
688.072	28.35
688.259	28.79
688.445	29.53
688.632	30.04
688.818	30.77
689.005	31.51
689.191	32.17
689.378	32.6
689.564	33.36
689.751	33.85
689.937	34.5
690.124	35.11
690.31	35.66
690.496	36.28
690.683	36.99
690.869	37.61
691.055	38.36
691.242	39.39
691.428	40.01
691.614	40.74
691.8	41.31
691.987	41.96
692.173	42.47
692.359	43.22
692.545	43.91
692.731	44.57
692.918	45.3
693.104	45.93
693.29	46.67
693.476	47.28
693.662	48.01
693.848	48.65
694.034	49.52
694.22	49.99
694.406	50.66
694.592	51.44
694.778	52.1
694.964	52.58
695.15	53.68
695.336	54.26
695.522	55.22
695.708	55.72
695.894	56.63
696.08	57.17
696.265	58.01
696.451	58.49
696.637	59.39
696.823	59.81
697.009	60.24
697.194	60.91
697.38	61.15
697.566	61.88
697.751	62.81
697.937	63.59
698.123	64.34
698.308	65.27
698.494	65.56
698.68	65.71
698.865	66.26
699.051	66.68
699.236	67.4
699.422	68.12
699.607	68.59
699.793	69.22
699.978	69.45
700.164	69.67
700.349	70.31
700.535	70.89
700.72	71.21
700.906	72.09
701.091	72.28
701.276	72.69
701.462	73.62
701.647	74.29
701.832	74.47
702.018	75.29
702.203	75.58
702.388	75.52
702.573	75.84
702.759	76.62
702.944	76.92
703.129	77.02
703.314	77.59
703.499	77.94
703.684	78.11
703.87	79.12
704.055	80.31
704.24	80.42
704.425	80.89
704.61	81.07
704.795	80.62
704.98	80.51
705.165	80.99
705.35	80.95
705.535	81.42
705.72	81.81
705.905	82.14
706.09	82.76
706.275	83.2
706.459	83.21
706.644	83.45
706.829	83.34
707.014	83.1
707.199	83.57
707.384	83.94
707.568	84.16
707.753	85.03
707.938	85.47
708.123	85.2
708.307	85.39
708.492	85.73
708.677	85.92
708.861	85.78
709.046	86.12
709.231	86.89
709.415	87.16
709.6	86.82
709.784	87.1
709.969	87.14
710.153	86.81
710.338	87.02
710.522	87.39
710.707	87.85
710.891	88.44
711.076	88.76
711.26	88.65
711.445	88.87
711.629	89.36
711.813	89.76
711.998	90.02
712.182	90.07
712.366	90.64
712.551	90.67
712.735	90.45
712.919	90.36
713.103	90.92
713.288	90.53
713.472	90.07
713.656	90.77
713.84	90.6
714.024	90.92
714.208	91.22
714.393	92.05
714.577	92.13
714.761	92.67
714.945	92.59
715.129	92.74
715.313	92.71
715.497	92.48
715.681	92.85
715.865	92.83
716.049	92.64
716.233	92.22
716.417	92
716.601	91.6
716.785	91.68
716.968	91.89
717.152	92.6
717.336	93.05
717.52	93.63
717.704	93.78
717.888	94.23
718.071	94.32
718.255	93.88
718.439	93.06
718.622	92.83
718.806	93.01
718.99	92.32
719.174	92.72
719.357	93.76
719.541	94.67
719.724	94.65
719.908	95.71
720.092	95.77
720.275	95.77
720.459	95.08
720.642	94.65
720.826	93.77
721.009	93.75
721.193	93.56
721.376	94.06
721.559	94.19
721.743	94.92
721.926	95.22
722.11	95.08
722.293	94.69
722.476	94.54
722.66	94.62
722.843	94.69
723.026	94.89
723.21	95.32
723.393	96.02
723.576	96.12
723.759	95.6
723.942	95.43
724.126	95.51
724.309	95.07
724.492	94.77
724.675	95.21
724.858	95.68
725.041	95.87
725.224	96.87
725.407	97.26
725.59	97.91
725.774	98.05
725.957	97.74
726.14	97.35
726.322	97.23
726.505	96.65
726.688	97.11
726.871	97.05
727.054	97.02
727.237	96.85
727.42	97.41
727.603	96.67
727.786	96.83
727.968	96.59
728.151	96.88
728.334	96.59
728.517	96.82
728.699	96.63
728.882	96.38
729.065	96.77
729.248	97.25
729.43	97.47
729.613	98.24
729.796	99.08
729.978	98.39
730.161	98.64
730.343	97.87
730.526	98.35
730.708	97.76
730.891	98.34
731.073	97.72
731.256	97.84
731.438	97.47
731.621	98.26
731.803	98.4
731.986	98.1
732.168	98.63
732.35	98.72
732.533	98.99
732.715	98.68
732.898	99.24
733.08	99.68
733.262	100.09
733.444	99.93
733.627	99.98
733.809	100.25
733.991	100.39
734.173	99.7
734.355	99.19
734.538	99.76
734.72	98.92
734.902	98.9
735.084	99.5
735.266	99.41
735.448	100.1
735.63	101.28
735.812	101.19
735.994	101.55
736.176	102.33
736.358	101.83
736.54	102.13
736.722	101.71
736.904	100.83
737.086	100.41
737.268	100.76
737.45	100.57
737.632	100.95
737.814	100.39
737.995	101.16
738.177	100.75
738.359	99.84
738.541	100.57
738.723	101.46
738.904	101.47
739.086	101.7
739.268	102.24
739.449	102.43
739.631	102.76
739.813	102.88
739.994	102.66
740.176	102.45
740.358	101.42
740.539	101.7
740.721	101.75
740.902	102.13
741.084	103.15
741.265	102.78
741.447	102.6
741.628	101.75
741.81	101.55
741.991	100.54
742.172	101.87
742.354	101.87
742.535	102.56
742.717	102.7
742.898	103.71
743.079	103.69
743.261	102.94
743.442	102.05
743.623	102.94
743.804	101.66
743.986	101.42
744.167	100.63
744.348	100.93
744.529	100.21
744.71	100.3
744.891	99.89
745.073	100.91
745.254	101.04
745.435	100.36
745.616	100.21
745.797	99.66
745.978	99.84
746.159	99.87
746.34	99.4
746.521	100.75
746.702	100.36
746.883	99.56
747.064	99.64
747.245	100
747.426	99.78
747.606	100.89
747.787	101.41
747.968	101.66
748.149	102.09
748.33	101.85
748.51	102.19
748.691	102.18
748.872	101.79
749.053	101.03
749.233	100.62
749.414	99.85
749.595	99.11
749.775	99.49
749.956	99.43
750.137	100.02
750.317	100.66
750.498	102.62
750.678	102.19
750.859	102.58
751.04	101.57
751.22	100.19
751.4	99.31
751.581	96.81
751.761	96.72
751.942	96.83
752.122	96.48
752.303	95.52
752.483	96.48
752.663	96.32
752.844	94.77
753.024	96.95
753.204	98.35
753.385	99.27
753.565	99.33
753.745	100.83
753.925	99.57
754.106	98.5
754.286	98.93
754.466	98.71
754.646	100.44
754.826	99.32
755.006	97.94
755.187	98.1
755.367	98.95
755.547	97.16
755.727	99.39
755.907	100.8
756.087	100.72
756.267	100.25
756.447	100.92
756.627	97.79
756.807	98.78
756.987	98.39
757.167	98.86
757.346	98.88
757.526	100.14
757.706	99.45
757.886	100.44
758.066	100.03
758.246	101.64
758.425	101.5
758.605	101.09
758.785	101.44
758.965	101.41
759.144	97.95
759.324	99.88
759.504	100.58
759.683	99.42
759.863	98.97
760.043	99.06
760.222	98.23
760.402	98.12
760.581	96.84
760.761	98.13
760.94	96.99
761.12	97.75
761.299	97.83
761.479	97.53
761.658	95.23
761.838	97.11
762.017	96.53
762.197	96.56
762.376	97.23
762.555	99.2
762.735	99.51
762.914	97.47
763.093	96.38
763.273	97.27
763.452	96.46
763.631	96.33
763.81	96.86
763.99	95.73
764.169	95.85
764.348	94.72
764.527	93.52
764.706	94.31
764.885	96.54
765.064	94.94
765.243	95.96
765.423	98.03
765.602	97.18
765.781	95.15
765.96	94.37
766.139	93.45
766.318	93.83
766.497	93.18
766.676	94.22
766.854	96.43
767.033	97.25
767.212	95.06
767.391	95.91
767.57	96.22
767.749	95.82
767.928	96.04
768.106	96.8
768.285	95.58
768.464	94.84
768.643	93.21
768.821	93.62
769	94.19
769.179	94.3
769.357	94.51
769.536	95.07
769.715	94.15
769.893	95.47
770.072	96.04
770.25	96.51
770.429	98.11
770.607	98.11
770.786	96.31
770.964	98.05
771.143	97.18
771.321	97.25
771.5	98.5
771.678	97.65
771.857	95.17
772.035	95.83
772.213	95.45
772.392	92.83
772.57	94.4
772.748	94.33
772.927	93.47
773.105	93.22
773.283	94.4
773.461	94.57
773.64	97.78
773.818	96.88
773.996	96.69
774.174	96.66
774.352	95.48
774.531	89.79
774.709	92.55
774.887	91.16
775.065	92.14
775.243	91.64
775.421	93.22
775.599	93.68
775.777	92.83
775.955	89.27
776.133	88.84
776.311	91.06
776.489	87.14
776.667	89.15
776.844	90.98
777.022	90.14
777.2	90.67
777.378	92.53
777.556	93.54
777.734	94.88
777.911	97.46
778.089	94.71
778.267	94.29
778.445	92.62
778.622	92.96
778.8	92.94
778.978	93.04
779.155	94.19
779.333	95.34
779.511	94.34
779.688	95.96
779.866	93.25
780.043	91.5
780.221	89.31
780.398	85.96
780.576	83.77
780.753	88.51
780.931	86.68
781.108	87.26
781.286	92.2
781.463	91.29
781.64	86.56
781.818	88.21
781.995	87.99
782.172	86.81
782.35	84.72
782.527	90.93
782.704	91.27
782.882	91.12
783.059	89.04
783.236	93.29
783.413	93.04
783.59	92.54
783.768	90.77
783.945	94.05
784.122	93.18
784.299	92.49
784.476	93.42
784.653	94.26
784.83	90.54
785.007	90.73
785.184	88.73
785.361	88.02
785.538	91.55
785.715	94.02
785.892	92.94
786.069	94.55
786.246	96.44
786.423	96.03
786.6	95.55
786.776	94.67
786.953	93.27
787.13	95.21
787.307	94.33
787.484	92.39
787.66	89.69
787.837	91.56
788.014	85.54
788.191	79.48
788.367	77.96
788.544	82.79
788.721	77.48
788.897	80.8
789.074	84.28
789.25	85
789.427	84.19
789.603	88.82
789.78	90.64
789.956	92.3
790.133	89.77
790.309	90.14
790.486	90.82
790.662	83.06
790.839	80.24
791.015	82.11
791.192	79.14
791.368	82.24
791.544	83.59
791.721	89.5
791.897	89.09
792.073	88.3
792.249	79.51
792.426	86.35
792.602	84.27
792.778	88.03
792.954	94.09
793.13	95.79
793.307	85.18
793.483	80.74
793.659	81.98
793.835	79.43
794.011	81.57
794.187	83.13
794.363	82.46
794.539	82.12
794.715	74.59
794.891	70.9
795.067	75.61
795.243	79.56
795.419	77.74
795.595	82.5
795.771	82.07
795.947	81.54
796.122	79.69
796.298	78.54
796.474	76.28
796.65	79.07
796.826	79.42
797.001	78.33
797.177	78.36
797.353	82.8
797.529	83.34
797.704	81.41
797.88	80.18
798.056	80.39
798.231	79.89
798.407	77.05
798.582	78.4
798.758	83.83
798.934	90.91
799.109	90.86
799.285	92.46
799.46	96.47
799.636	94.55
799.811	91.87
799.986	91.6
800.162	93.59
800.337	95.83
800.513	88.38
800.688	86.47
800.863	94.93
801.039	87.48
801.214	80.32
801.389	88.98
801.565	86.56
801.74	69.71
801.915	80.21
802.09	79.74
802.265	80.38
802.441	76.04
802.616	83.78
802.791	81.12
802.966	83.56
803.141	80.62
803.316	82.52
803.491	83.65
803.666	85.83
803.841	84.61
804.016	82.24
804.191	85.67
804.366	80.07
804.541	75.73
804.716	76.11
804.891	78.02
805.066	78.76
805.241	74.52
805.416	71.19
805.591	70.42
805.765	69.72
805.94	71.68
806.115	76.42
806.29	75.5
806.464	74.05
806.639	75.94
806.814	66.88
806.989	62.89
807.163	69.44
807.338	69.74
807.512	66.28
807.687	63.47
807.862	67.2
808.036	67.92
808.211	65.38
808.385	77.08
808.56	82.94
808.734	90.48
808.909	89
809.083	89.8
809.258	88.99
809.432	91.28
809.606	82.2
809.781	79.27
809.955	81.07
810.13	74.51
810.304	70.81
810.478	67.69
810.652	70.91
810.827	69.85
811.001	66.64
811.175	64.36
811.349	64.11
811.524	65.68
811.698	56.01
811.872	57.73
812.046	66.06
812.22	72.96
812.394	68.52
812.568	82.26
812.742	85.5
812.916	81.19
813.09	75.92
813.264	74.71
813.438	73.69
813.612	70.87
813.786	70.53
813.96	81.76
814.134	84.69
814.308	87.43
814.482	91.88
814.656	79.03
814.83	75.41
815.003	75.88
815.177	69.15
815.351	69.67
815.525	76.45
815.698	69.65
815.872	66.84
816.046	68.4
816.219	62.2
816.393	65.81
816.567	73.33
816.74	69.45
816.914	73.84
817.088	73.44
817.261	77.47
817.435	71.85
817.608	80.86
817.782	75.05
817.955	85.93
818.129	67.87
818.302	67.05
818.475	74.81
818.649	70.05
818.822	58.53
818.996	75.44
819.169	89.35
819.342	66.74
819.516	75.33
819.689	81.55
819.862	65.68
820.035	55.68
820.209	64.79
820.382	65.09
820.555	58.78
820.728	52.97
820.901	55.84
821.075	60.85
821.248	52.59
821.421	50.08
821.594	64.81
821.767	61.75
821.94	64.04
822.113	58.37
822.286	54.93
822.459	61.85
822.632	61.12
822.805	57.01
822.978	60.25
823.151	78.68
823.324	65.07
823.496	48.11
823.669	38.62
823.842	43.15
824.015	21.71
824.188	11.39
824.361	20.19
824.533	31.69
824.706	28.54
824.879	38.35
825.051	43.64
825.224	49.03
825.397	40.13
825.569	50.77
825.742	56.3
825.915	76.96
826.087	93.96
826.26	69.99
826.432	74.95
826.605	75.34
826.777	58.46
826.95	51.86
827.122	56.33
827.295	36.53
827.467	29.53
827.64	13.65
827.812	11.66
827.984	25.52
828.157	37.13
828.329	25.91
828.501	50.13
828.674	77.39
828.846	60.92
829.018	70.62
829.19	52.11
829.363	66.77
829.535	44.78
829.707	48.19
829.879	29.83
830.051	41.89
830.223	13.21
830.395	3.55
830.568	7.53
830.74	8.07
830.912	34.11
831.084	39.08
831.256	49.09
831.428	55.77
831.6	58.12
831.772	30.17
831.943	2.3
832.115	8.68
832.287	31.44
832.459	32.43
832.631	36.32
832.803	72.41
832.975	87.06
833.146	64.25
833.318	60.23
833.49	89.07
833.662	47.88
833.833	27.53
834.005	25.24
834.177	40.53
834.348	29.17
834.52	36.2
834.692	54.23
834.863	59.05
835.035	45.88
835.206	11.04
835.378	35.7
835.549	14.77
835.721	18.61
835.892	31.87
836.064	37.14
836.235	36.47
836.407	46.42
836.578	27.52
836.749	-7.26
836.921	-21.04
837.092	-61.52
837.264	-41.19
837.435	-42.36
837.606	-5.62
837.777	20.6
837.949	29.18
838.12	31.26
838.291	40.87
838.462	39.23
838.633	17.96
838.805	30.77
838.976	62.2
839.147	65.79
839.318	21.85
839.489	-10.83
839.66	13.8
839.831	2.93
840.002	-6.65
840.173	-11.53
840.344	52.12
840.515	48.76
840.686	-47.17
840.857	-24.66
841.028	-11.14
841.199	-9.01
841.369	-24.17
841.54	7.09
841.711	27.22
841.882	48.93
842.053	25
842.223	10.01
842.394	12.63
842.565	23.86
842.736	27.76
842.906	39.45
843.077	61.97
843.248	85.56
843.418	78.52
843.589	49.84
843.759	99.86
843.93	59.48
844.101	26.32
844.271	27.04
844.442	43.21
844.612	51.08
844.783	37.16
844.953	32.26
845.123	21.34
845.294	-5.86
845.464	-198.43
845.635	-37.47
845.805	18.9
845.975	27.04
846.146	19.01
846.316	11.19
846.486	8.94
846.656	22.7
846.827	15.41
846.997	10.55
847.167	25.44
847.337	4.42
847.507	-32.94
847.677	-9.08
847.848	37.82
848.018	37.12
848.188	53.68
848.358	47.52
848.528	28.82
848.698	1.34
848.868	-51.14
849.038	-106.88
849.208	-2.73
849.378	53.31
849.548	33.56
849.718	41.77
849.887	59.7
850.057	37.85
850.227	5.43
850.397	-2.97
850.567	-69.3
850.737	-230.33
850.906	-650.94
851.076	-460.74
851.246	-167.41
851.415	18.53
851.585	-12.57
851.755	-60.21
851.924	2.69
852.094	-17.52
852.264	-88
852.433	-636.3
852.603	-80.63
852.772	-138.82
852.942	-42.67
853.111	-40.5
853.281	-1.61
853.45	24.54
853.62	-5.19
853.789	-20.53
853.959	14.55
854.128	31.05
854.297	-2.92
854.467	-11.14
854.636	-10.23
854.805	-4.05
854.975	-49.23
855.144	-44.86
855.313	-32.69
855.482	-303.47
855.652	-86.18
855.821	5.6
855.99	37.75
856.159	44.42
856.328	56.9
856.497	37.28
856.667	25.48
856.836	32.16
857.005	18.4
857.174	15.97
857.343	-5.97
857.512	21.79
857.681	-22.78
857.85	-80.87
858.019	-58.09
858.188	-26.61
858.356	-35.37
858.525	-72.38
858.694	-31.64
858.863	-64.87
859.032	-35.6
859.201	-56.22
859.369	-5.04
859.538	-30.37
859.707	-37.65
859.876	-80.14
860.044	-81.03
860.213	-5.35
860.382	-5.19
860.55	-0.16
860.719	28.1
860.888	27.15
861.056	1.47
861.225	1.49
861.393	14.48
861.562	58.86
861.73	-2.69
861.899	-2.49
862.067	-295.69
862.236	60.01
862.404	-135.37
862.572	-29.75
862.741	21.04
862.909	19.32
863.078	-52.7
863.246	-25.46
863.414	-29.14
863.582	-42.18
863.751	-87.17
863.919	-40.67
864.087	-30.58
864.255	-1.19
864.424	-174
864.592	-0.71
864.76	-73.09
864.928	-6.2
865.096	-70.3
865.264	-6.13
865.432	-460.8
865.6	219.63
865.768	-0.86
865.936	-2.23
866.104	-44.49
866.272	-56.8
866.44	-353.84
866.608	581.39
866.776	306.2
866.944	2627.33
867.112	-488.88
867.28	-155.26
867.448	-14.25
867.615	33.68
867.783	57.44
867.951	41.93
868.119	73.89
868.286	60.47
868.454	-37.56
868.622	-51.97
868.789	-55.92
868.957	-76.79
869.125	-1757.24
869.292	-105.84
869.46	-130.86
869.627	36.16
869.795	-16.61
869.963	29.15
870.13	39.58
870.298	60.76
870.465	10.15
870.632	-8.1
870.8	10.15
870.967	5.29
871.135	-48.03
871.302	-13.21
871.469	2.27
871.637	-40.12
871.804	-34.1
871.971	-84.54
872.139	-406.86
872.306	-40.75
872.473	-30.46
872.64	-175.86
872.807	-26.87
872.975	48.67
873.142	0.45
873.309	726.35
873.476	48.93
873.643	113.49
873.81	104.82
873.977	100.77
874.144	81.5
874.311	18.65
874.478	-43.52
874.645	-100.99
874.812	-67.12
874.979	-31.76
875.146	-22.79
875.313	-39.07
875.48	39.21
875.647	24.25
875.813	14.7
875.98	16
876.147	6.84
876.314	-36.92
876.481	536.98
876.647	-841.29
876.814	333.55
876.981	30.48
877.147	42.04
877.314	42.07
877.481	86.72
877.647	76.04
877.814	49.18
877.98	21.93
878.147	45.01
878.314	36.05
878.48	15.43
878.647	30.42
878.813	67.18
878.979	46.31
879.146	29.2
879.312	40.05
879.479	14.16
879.645	-24.63
879.811	-74.37
879.978	-253.24
880.144	-51.05
880.31	3.47
880.477	-198.4
880.643	-254.14
880.809	-65.06
880.975	-19.45
881.142	-451.59
881.308	-2.69
881.474	32.62
881.64	81.8
881.806	45.53
881.972	90.54
882.138	163.51
882.304	205.26
882.47	-0.46
882.636	-313.73
882.802	-149.6
882.968	-66.42
883.134	-25.05
883.3	-20.76
883.466	21.46
883.632	38.55
883.798	27.66
883.964	11.68
884.129	23.87
884.295	44
884.461	-2.1
884.627	-6.94
884.793	-39.25
884.958	-8.62
885.124	-89.27
885.29	-194.01
885.455	-450.85
885.621	-111.16
885.787	-224.1
885.952	-104.28
886.118	-66.47
886.283	-37.2
886.449	-90.3
886.614	-64.06
886.78	-60.67
886.945	484.84
887.111	-221.24
887.276	-169.74
887.442	-451.59
887.607	-252.71
887.773	-89.41
887.938	-156.33
888.103	-189.09
888.269	-80.05
888.434	-153.38
888.599	-52.31
888.764	43.02
888.93	18.96
889.095	-11.13
889.26	-35.19
889.425	-48.52
889.59	-55.61
889.756	-59.78
889.921	-13.4
890.086	17.62
890.251	36.33
890.416	-112.3
890.581	-1106.05
890.746	228.84
890.911	333.6
891.076	185.29
891.241	-368.47
891.406	31.4
891.571	23.05
891.736	-77.87
891.901	-38.72
892.065	-248.63
892.23	66.01
892.395	130.09
892.56	233.74
892.725	-261.52
892.889	-1014.02
893.054	-147.24
893.219	-61.26
893.384	-34.84
893.548	-88.66
893.713	-124.89
893.878	-82.59
