Data from Ofra_PS_T2_1A_8HS23_Reflection_3.txt Node
Date: Wed Jul 21 18:16:29 EDT 2021
User: Adam
Spectrometer: FLMT01687
Trigger mode: 0
Integration Time (sec): 1.100000E0
Scans to average: 2
Electric dark correction enabled: true
Nonlinearity correction enabled: false
Boxcar width: 2
XAxis mode: Wavelengths
Number of Pixels in Spectrum: 3648
>>>>>Begin Spectral Data<<<<<
179.494	526.4
179.716	619.29
179.937	560.48
180.158	529.25
180.38	801.87
180.601	42.54
180.823	-62.4
181.044	-247.87
181.265	-150.74
181.486	-46.92
181.708	163.97
181.929	1381.63
182.15	-712.68
182.372	27.7
182.593	-124.04
182.814	-0.34
183.035	49.74
183.257	-1.6
183.478	-115.32
183.699	-52.77
183.92	-85.2
184.141	-94.95
184.363	-127.44
184.584	-77.75
184.805	-35.93
185.026	1.19
185.247	23.71
185.468	9.76
185.689	3.9
185.91	-8.36
186.132	-2.67
186.353	1.48
186.574	43.36
186.795	26.98
187.016	-10.62
187.237	-19.53
187.458	-83.31
187.679	-73.73
187.9	-38.27
188.121	-25.21
188.342	-29.86
188.563	33.09
188.784	67.36
189.005	46.28
189.226	81.19
189.447	24.6
189.667	-325.73
189.888	-533
190.109	-1584.42
190.33	-798.71
190.551	-1100.88
190.772	-200.24
190.993	-184.49
191.214	-128.17
191.434	-110.98
191.655	-36.69
191.876	-84.01
192.097	-149.3
192.318	-246.31
192.538	-359.53
192.759	-256.02
192.98	-151.89
193.201	-92.34
193.421	-34.31
193.642	5.35
193.863	13.57
194.083	11.38
194.304	11.53
194.525	-10.1
194.745	-62.3
194.966	-80.46
195.187	-90.13
195.407	-134.1
195.628	-173.12
195.848	-160.15
196.069	-142.61
196.29	-94.37
196.51	-98
196.731	-97.29
196.951	-80.27
197.172	-106.6
197.392	-145.68
197.613	-124.18
197.833	-125.67
198.054	-120.79
198.274	-65.76
198.495	-73.88
198.715	-48.93
198.936	-56.43
199.156	-52.22
199.377	-130.34
199.597	-100.34
199.817	-123.13
200.038	-84.03
200.258	-131.79
200.479	-89.54
200.699	-122.79
200.919	-38.14
201.14	-44.23
201.36	-72.73
201.58	-6.11
201.801	22.73
202.021	-13.42
202.241	-17.38
202.461	-12.47
202.682	-139.76
202.902	-242.42
203.122	-151.15
203.342	-124.35
203.563	-65.61
203.783	-18.84
204.003	-38.91
204.223	-42.11
204.443	1.7
204.663	-44.57
204.884	-19.04
205.104	10.81
205.324	10.21
205.544	20.06
205.764	42.9
205.984	32.79
206.204	23.45
206.424	28.83
206.644	-8.21
206.864	-3.08
207.084	-64.84
207.304	-21.87
207.525	-163.75
207.745	-56.66
207.964	-21.76
208.184	-26.72
208.404	-82.49
208.624	-87.63
208.844	-109.25
209.064	-431.8
209.284	-480.83
209.504	-250.84
209.724	-102.93
209.944	-74.56
210.164	-13.37
210.384	-6.85
210.604	-28.18
210.823	-70.73
211.043	-77.45
211.263	-77.69
211.483	-80.7
211.703	-107.44
211.922	-70.3
212.142	-15.98
212.362	-0.8
212.582	-6.25
212.801	-11.23
213.021	-26.66
213.241	-52.22
213.461	-90.79
213.68	-109.13
213.9	-89.61
214.12	-86.62
214.339	-147.73
214.559	-120.24
214.779	-51.52
214.998	-38.29
215.218	-66.14
215.438	-43.06
215.657	-43.16
215.877	-58.62
216.096	-19.76
216.316	-10.09
216.535	-3.44
216.755	-12.43
216.974	-89.99
217.194	-183.79
217.413	-144.07
217.633	-148.03
217.852	-243.95
218.072	-96.13
218.291	-43.14
218.511	-16.09
218.73	-30.52
218.95	-18.4
219.169	-25.8
219.389	-74.93
219.608	-58.62
219.827	-64.47
220.047	-59.14
220.266	-45.4
220.485	-29.74
220.705	-22.48
220.924	-27.42
221.143	2.97
221.363	-16.48
221.582	-1.13
221.801	0.91
222.021	20.75
222.24	-42.6
222.459	-30.29
222.678	-54.8
222.897	-141.3
223.117	-173.59
223.336	-98.58
223.555	-37.56
223.774	20.78
223.993	17.62
224.213	53.76
224.432	11.93
224.651	29.06
224.87	-18.49
225.089	0.57
225.308	-10.98
225.527	1.24
225.746	-12.12
225.965	-10.91
226.184	-33.28
226.404	-7.22
226.623	-24.62
226.842	-15.49
227.061	8.55
227.28	17.32
227.499	2.66
227.718	18.64
227.936	5.06
228.155	-8.39
228.374	-14.13
228.593	-17.55
228.812	-26.53
229.031	-40.25
229.25	-78.31
229.469	-94.33
229.688	-53.11
229.907	-34.65
230.125	-16.76
230.344	7.25
230.563	17.32
230.782	16
231.001	-50.61
231.22	-45.88
231.438	-16.16
231.657	-8.21
231.876	-29.63
232.095	31.15
232.313	25.22
232.532	-12.52
232.751	-38.95
232.969	-56.8
233.188	-183.64
233.407	-88.84
233.625	-38.87
233.844	-50.09
234.063	-32.57
234.281	-9.65
234.5	-18.9
234.719	-19.8
234.937	-27.42
235.156	-25.94
235.374	-23.37
235.593	-36.84
235.811	-71.06
236.03	-40.55
236.249	-54.79
236.467	-47.49
236.686	-5.16
236.904	15.32
237.123	-5.02
237.341	-8.01
237.559	-4.5
237.778	-18.2
237.996	-47.1
238.215	-14.64
238.433	-9.2
238.652	-17.27
238.87	-37.78
239.088	-19.15
239.307	-37.95
239.525	-52.62
239.743	-82.63
239.962	-94.57
240.18	-106.09
240.398	-132.5
240.617	-121.93
240.835	-100
241.053	-91.42
241.271	-77.39
241.49	-38
241.708	-72.95
241.926	-99.61
242.144	-59.6
242.363	-107.46
242.581	-141.77
242.799	-90.53
243.017	-43.05
243.235	-45.13
243.453	-14.2
243.672	-11.37
243.89	-3.15
244.108	-14.74
244.326	-5.76
244.544	-11.66
244.762	-8.67
244.98	-7.2
245.198	-11.56
245.416	-41.53
245.634	-33.91
245.852	-56.32
246.07	-81.53
246.288	-91.73
246.506	-110.32
246.724	-84.7
246.942	-48.46
247.16	-20.69
247.378	2.3
247.596	30.3
247.814	14.18
248.032	-13.81
248.25	-12.1
248.468	-4.07
248.685	3.41
248.903	29.06
249.121	31.9
249.339	-2.02
249.557	-2.52
249.775	-8.19
249.992	-80.98
250.21	-72.19
250.428	-41.29
250.646	-87.26
250.863	-113.96
251.081	-62.6
251.299	-54.27
251.517	-65.14
251.734	-47.79
251.952	-27.03
252.17	-29.29
252.387	-15.78
252.605	-18.02
252.823	-16.84
253.04	-10.88
253.258	-3.92
253.475	-32.84
253.693	-17.76
253.911	10.55
254.128	5.21
254.346	5.84
254.563	1.71
254.781	-17.65
254.998	-58.16
255.216	-80.35
255.433	-73.44
255.651	-38.49
255.868	-26.86
256.086	7.23
256.303	12.73
256.521	13.52
256.738	-13.59
256.956	-19.95
257.173	-38.93
257.39	-60.53
257.608	-103.36
257.825	-29.72
258.043	-16.72
258.26	-7.77
258.477	27.71
258.695	31.86
258.912	-40.97
259.129	-27.73
259.346	-61.88
259.564	-86.09
259.781	-106.35
259.998	-34.39
260.216	-22.65
260.433	25.63
260.65	9.82
260.867	37.1
261.084	5.81
261.302	-7.09
261.519	-38.04
261.736	-36.17
261.953	-59.13
262.17	-35.45
262.387	-76.25
262.604	-93.02
262.822	-101.68
263.039	-95.36
263.256	-135.89
263.473	-60.58
263.69	-37.48
263.907	2.21
264.124	11.26
264.341	17.69
264.558	-13.65
264.775	-8.13
264.992	-34.51
265.209	-26.48
265.426	-2.77
265.643	10.6
265.86	21.82
266.077	35.35
266.294	2.23
266.51	-42.66
266.727	-60.6
266.944	-62.35
267.161	-59.68
267.378	-48.8
267.595	-14.57
267.812	-21.42
268.028	-43.13
268.245	-22.67
268.462	-21.3
268.679	-39.27
268.896	-0.98
269.112	3.76
269.329	-3.66
269.546	-5.06
269.763	-10.7
269.979	-23.49
270.196	-22.61
270.413	-53.91
270.629	-75.09
270.846	-74.98
271.063	-69.45
271.279	-86.25
271.496	-75.2
271.712	-32.4
271.929	-39.9
272.146	-72.32
272.362	-48.73
272.579	-19.13
272.795	-17.32
273.012	8.09
273.228	38.11
273.445	9.03
273.661	-35.98
273.878	-65.44
274.094	-69.3
274.311	-90.92
274.527	-21.53
274.744	-0.13
274.96	5.64
275.177	14.42
275.393	15.53
275.609	2.48
275.826	19.9
276.042	10.17
276.259	11.05
276.475	18.91
276.691	15.67
276.908	-8.39
277.124	6.45
277.34	-11.33
277.557	-43.96
277.773	-44.2
277.989	-49.38
278.205	-55.73
278.422	-26.08
278.638	-2.71
278.854	7.25
279.07	16.25
279.286	18.06
279.503	-6.66
279.719	-22.9
279.935	-35.21
280.151	-64.03
280.367	-30.29
280.583	-58.54
280.799	-43.38
281.016	-60.57
281.232	-19.1
281.448	-36.91
281.664	-5.1
281.88	-34.01
282.096	-17.53
282.312	-5.12
282.528	9.45
282.744	18.4
282.96	20.87
283.176	18.32
283.392	12.03
283.608	6.01
283.824	-12.96
284.04	-7.34
284.256	-3.93
284.471	-16.87
284.687	-14.64
284.903	6.7
285.119	8.51
285.335	-18.76
285.551	-32.06
285.767	-52.75
285.982	-57.66
286.198	-68.34
286.414	-17.12
286.63	3.22
286.846	21.97
287.061	-6.56
287.277	16.97
287.493	-7.31
287.709	6.38
287.924	-8.46
288.14	36.9
288.356	37.29
288.571	44.56
288.787	14.13
289.003	15.13
289.218	-4.09
289.434	-38.11
289.65	-42.28
289.865	-39.47
290.081	-26.72
290.296	-21.62
290.512	-6.83
290.727	-36.61
290.943	-23.62
291.159	-29.68
291.374	-51.77
291.59	-83.87
291.805	-47.2
292.021	-48.4
292.236	-52.89
292.451	-14.89
292.667	1.89
292.882	10.25
293.098	-1.06
293.313	-4.57
293.529	-24.88
293.744	-31.17
293.959	-59.79
294.175	-45.73
294.39	-11.98
294.605	-4.71
294.821	19
295.036	36.71
295.251	31.44
295.467	-13.12
295.682	-17.39
295.897	-79.31
296.112	-108.38
296.328	-89.6
296.543	-80.7
296.758	-89.22
296.973	-43.71
297.188	8.95
297.404	-17.95
297.619	-19.16
297.834	-23.78
298.049	-33.15
298.264	-62.34
298.479	-17.25
298.694	-13.38
298.909	-3.21
299.125	-1.08
299.34	-2.91
299.555	-36.92
299.77	-33.03
299.985	-52.73
300.2	-113.84
300.415	-130.02
300.63	-92.06
300.845	-94.59
301.06	-102.14
301.275	-52.75
301.49	-23.32
301.704	-25.73
301.919	-39.93
302.134	-45.29
302.349	-35.78
302.564	-115.38
302.779	-116.87
302.994	-77.43
303.209	-35.71
303.423	-31.65
303.638	33.93
303.853	-5.33
304.068	-8.46
304.283	-1.93
304.497	-8.98
304.712	-13
304.927	-5.05
305.142	-3.26
305.356	1.76
305.571	4.43
305.786	-8.59
306	-23.4
306.215	-32.77
306.43	-64.14
306.644	-64.17
306.859	-46.57
307.074	-10.54
307.288	-45.55
307.503	-45.36
307.717	-44.94
307.932	-35.25
308.147	-43.57
308.361	-9.87
308.576	-18.27
308.79	-49.97
309.005	-39.74
309.219	-21.06
309.434	-30.55
309.648	-19.62
309.863	-2.46
310.077	-5.23
310.292	-6.43
310.506	4.21
310.72	7.97
310.935	26.87
311.149	8.79
311.364	12.28
311.578	22.56
311.792	9.83
312.007	-2.36
312.221	-7.79
312.435	-8.55
312.649	-29.04
312.864	-61.19
313.078	-51.88
313.292	-14.21
313.507	-50.43
313.721	-48.3
313.935	15.93
314.149	4.09
314.363	-0.42
314.578	-0.89
314.792	-0.37
315.006	-18.23
315.22	-0.46
315.434	-3.08
315.648	2.23
315.862	0.63
316.077	6.06
316.291	-15.25
316.505	-24.88
316.719	-26.54
316.933	-23.2
317.147	-16.5
317.361	-59.65
317.575	-75.78
317.789	-118.79
318.003	-194.01
318.217	-159.67
318.431	-59.66
318.645	-6.33
318.859	-5.82
319.073	1.59
319.287	-11.87
319.5	-41.9
319.714	-92.16
319.928	-109.35
320.142	-135.08
320.356	-83.19
320.57	-34.75
320.784	-36.58
320.997	-43.47
321.211	-22.72
321.425	-78.36
321.639	-112.61
321.853	-63.44
322.066	-52.42
322.28	-49.64
322.494	-38.48
322.707	-20.8
322.921	-24.21
323.135	-4.82
323.349	-5.38
323.562	-29.89
323.776	-43.29
323.989	-44.19
324.203	-76.02
324.417	-64.07
324.63	-77.44
324.844	-79.79
325.057	-83.67
325.271	-55.4
325.485	-32.2
325.698	-2.06
325.912	13.3
326.125	-15.88
326.339	-18.57
326.552	-57.31
326.766	-60.13
326.979	-49.87
327.193	5.37
327.406	-6.87
327.619	1.8
327.833	11.37
328.046	-19.87
328.26	-59.8
328.473	-22.93
328.686	-34.65
328.9	-32.61
329.113	-3.34
329.326	-18.05
329.54	-36.79
329.753	-58.85
329.966	-99.42
330.179	-110.34
330.393	-54.16
330.606	-39.58
330.819	-4.42
331.032	17.36
331.246	28.29
331.459	46.62
331.672	42.86
331.885	24.85
332.098	6.13
332.311	-12.87
332.525	-76.18
332.738	-80.12
332.951	-46.37
333.164	-23.82
333.377	-12.65
333.59	15.56
333.803	5.88
334.016	-0.55
334.229	-24.16
334.442	-10.62
334.655	0.93
334.868	19.18
335.081	16.42
335.294	17.86
335.507	-4.04
335.72	-18.02
335.933	-27.77
336.146	-30.94
336.359	-39.16
336.572	-57.69
336.785	-79.48
336.997	-59.06
337.21	-36.51
337.423	-29.05
337.636	-25.09
337.849	-8.46
338.062	-16.74
338.274	-26.23
338.487	-27.91
338.7	-10.81
338.913	-44.7
339.125	-76.71
339.338	-133.95
339.551	-120.36
339.763	-94.79
339.976	-66.93
340.189	-35.89
340.402	-18.73
340.614	-22.58
340.827	-35.43
341.039	-53.27
341.252	-55.22
341.465	-27.71
341.677	-31.51
341.89	-54.27
342.102	-23.05
342.315	-38.47
342.527	-82.53
342.74	-64.47
342.952	-37.2
343.165	-34.42
343.377	-1.34
343.59	5.43
343.802	15.55
344.015	23.5
344.227	26.04
344.44	10.58
344.652	9.09
344.864	-3.01
345.077	18.14
345.289	14.54
345.502	8.89
345.714	5.9
345.926	14.6
346.139	-3.5
346.351	10.56
346.563	32.48
346.775	31.34
346.988	24.26
347.2	10.33
347.412	-32.98
347.624	-62.35
347.837	-80.62
348.049	-58.64
348.261	-23.51
348.473	-19.5
348.685	-20.95
348.897	-12.86
349.11	-27.36
349.322	-44.2
349.534	-33.89
349.746	-32.12
349.958	-27.72
350.17	-45.62
350.382	-29.02
350.594	-21.97
350.806	-2.58
351.018	-0.29
351.23	-1.55
351.442	-23.48
351.654	-34.62
351.866	-55.77
352.078	-52.58
352.29	-25.78
352.502	2.12
352.714	9.01
352.926	3.31
353.138	3.65
353.35	-5.8
353.561	-22.56
353.773	-32.42
353.985	-15.2
354.197	-31.26
354.409	-38.71
354.621	-50.26
354.832	-33.72
355.044	-50.57
355.256	-35.56
355.468	-14.32
355.679	-8.05
355.891	3.38
356.103	-16.65
356.314	-11.91
356.526	-10.27
356.738	8.01
356.949	-16.89
357.161	8.95
357.373	-0.11
357.584	-16.23
357.796	-16.26
358.008	-20.15
358.219	0.72
358.431	-1.3
358.642	6.2
358.854	11.74
359.065	12.72
359.277	-28.58
359.488	-31.45
359.7	-51.11
359.911	-80.78
360.123	-61.1
360.334	-66.81
360.546	-90.88
360.757	-92.29
360.969	-68.02
361.18	-70.89
361.391	-33.48
361.603	-38.74
361.814	-26.56
362.025	-37.53
362.237	-38.98
362.448	-33.12
362.659	-5.27
362.871	-7.78
363.082	-14.49
363.293	-1.79
363.504	-17.93
363.716	-41.55
363.927	-48.73
364.138	-56.05
364.349	-74.98
364.56	-67.13
364.772	-54.01
364.983	-25.27
365.194	-17.48
365.405	-8.72
365.616	0.51
365.827	-3.94
366.038	-34.86
366.25	-42.08
366.461	-55.28
366.672	-40.41
366.883	-19.87
367.094	-6.31
367.305	-16.9
367.516	-21.27
367.727	-43.2
367.938	-48.2
368.149	-49.9
368.36	-33.21
368.571	-30.1
368.781	-36.18
368.992	-48.14
369.203	-65.03
369.414	-86.16
369.625	-89.06
369.836	-75.12
370.047	-104.49
370.258	-71.34
370.468	-64.12
370.679	-58.71
370.89	-55.91
371.101	-26.71
371.312	-37.59
371.522	-24.53
371.733	-29.28
371.944	-13.48
372.155	-13.96
372.365	-20.28
372.576	-24.41
372.787	-22.77
372.997	-45.72
373.208	-50.7
373.419	-22.22
373.629	-47.25
373.84	-61.2
374.05	-76.77
374.261	-64
374.472	-82.31
374.682	-31.82
374.893	-12.42
375.103	33.86
375.314	29.13
375.524	21.56
375.735	18.29
375.945	13.83
376.156	-20.56
376.366	-23.34
376.577	-19.26
376.787	-32.38
376.997	-36.33
377.208	-31.5
377.418	-37.71
377.629	-28.7
377.839	-18.36
378.049	-14.05
378.26	-1.3
378.47	16.23
378.68	7.87
378.89	-5.63
379.101	-8.43
379.311	-36.29
379.521	-78.07
379.732	-75.85
379.942	-51.88
380.152	-67.45
380.362	-31.77
380.572	-22.97
380.783	-22.59
380.993	-16.45
381.203	-12.11
381.413	-16.99
381.623	-7.78
381.833	3.36
382.043	-11.56
382.253	-17.49
382.463	-8.74
382.674	-25.98
382.884	-42.28
383.094	-36.5
383.304	-20.95
383.514	-19.39
383.724	-5.89
383.934	-10.22
384.144	-16.29
384.353	-27.82
384.563	-28.15
384.773	-20.58
384.983	-19.19
385.193	0.19
385.403	8.09
385.613	7.61
385.823	-4.14
386.033	5.61
386.242	-6.88
386.452	-12.77
386.662	-21.73
386.872	-9.47
387.082	-14.49
387.291	-21.82
387.501	-23.41
387.711	-13.21
387.921	-20.35
388.13	-23.38
388.34	-9.86
388.55	-12.8
388.759	-16.13
388.969	-6.51
389.179	-6.52
389.388	-10.15
389.598	-0.94
389.807	-3.69
390.017	-13.88
390.227	-11.37
390.436	-10.53
390.646	-9.55
390.855	-10.09
391.065	-7.45
391.274	-9.73
391.484	-10.16
391.693	-11.47
391.903	-6.64
392.112	-2.94
392.322	1.33
392.531	4.48
392.74	3.92
392.95	-0.5
393.159	-1.83
393.369	-2.86
393.578	-3.22
393.787	-3.01
393.997	-2.31
394.206	-3.14
394.415	-2.95
394.625	-3.6
394.834	-4.93
395.043	-2.87
395.252	-0.36
395.462	2.13
395.671	3.22
395.88	4.67
396.089	5.11
396.298	2.78
396.508	1.21
396.717	0.6
396.926	0.62
397.135	-0.51
397.344	0.34
397.553	1.57
397.762	2.18
397.971	2.02
398.181	2.6
398.39	1.88
398.599	0.92
398.808	0.96
399.017	2.18
399.226	3.06
399.435	4.52
399.644	4.99
399.853	4.07
400.062	3.29
400.27	2.87
400.479	2.18
400.688	1.55
400.897	2.14
401.106	2.31
401.315	2.06
401.524	1.96
401.733	2.31
401.941	2.69
402.15	2.75
402.359	2.77
402.568	3.43
402.777	3.54
402.985	3.28
403.194	3.09
403.403	3.08
403.612	2.32
403.82	2.36
404.029	2.64
404.238	2.59
404.446	2.83
404.655	2.76
404.864	2.65
405.072	2.37
405.281	2.7
405.489	2.43
405.698	2.54
405.906	2.54
406.115	2.4
406.324	2.28
406.532	2.48
406.741	2.71
406.949	2.73
407.158	2.86
407.366	2.88
407.574	2.89
407.783	2.77
407.991	2.54
408.2	2.6
408.408	2.49
408.617	2.44
408.825	2.31
409.033	2.47
409.242	2.58
409.45	2.73
409.658	2.55
409.867	2.65
410.075	2.61
410.283	2.44
410.491	2.31
410.7	2.41
410.908	2.55
411.116	2.83
411.324	2.82
411.533	2.81
411.741	3.03
411.949	2.9
412.157	2.61
412.365	2.62
412.573	2.57
412.781	2.45
412.99	2.44
413.198	2.55
413.406	2.61
413.614	2.6
413.822	2.44
414.03	2.38
414.238	2.16
414.446	2.2
414.654	2.06
414.862	2.11
415.07	2.23
415.278	2.49
415.486	2.23
415.694	2.42
415.902	2.27
416.109	2.22
416.317	2.23
416.525	2.22
416.733	2.13
416.941	2.41
417.149	2.25
417.357	2.21
417.564	2.31
417.772	2.51
417.98	2.36
418.188	2.47
418.395	2.41
418.603	2.59
418.811	2.27
419.019	2.2
419.226	2.46
419.434	2.5
419.642	2.26
419.849	2.43
420.057	2.54
420.265	2.33
420.472	2.16
420.68	2.16
420.887	2.11
421.095	2.09
421.302	2.07
421.51	2.3
421.717	2.5
421.925	2.52
422.132	2.46
422.34	2.21
422.547	2.09
422.755	1.87
422.962	1.81
423.17	1.67
423.377	1.83
423.585	1.86
423.792	1.89
423.999	1.87
424.207	2.05
424.414	2.09
424.621	2.1
424.829	1.92
425.036	1.88
425.243	1.91
425.451	1.86
425.658	1.64
425.865	1.96
426.072	2.01
426.28	2.02
426.487	2.06
426.694	2.26
426.901	2.1
427.108	2.15
427.315	2.02
427.523	2.22
427.73	2.17
427.937	2.11
428.144	1.94
428.351	2
428.558	1.97
428.765	1.91
428.972	1.9
429.179	2.06
429.386	2.26
429.593	2.08
429.8	2.13
430.007	2.38
430.214	2.45
430.421	2.21
430.628	2.17
430.835	1.99
431.042	2
431.249	2.02
431.456	1.99
431.662	2
431.869	2.19
432.076	2.18
432.283	2.29
432.49	2.42
432.697	2.46
432.903	2.34
433.11	2.28
433.317	2.3
433.524	2.49
433.73	2.47
433.937	2.7
434.144	2.64
434.35	2.57
434.557	2.41
434.764	2.42
434.97	2.32
435.177	2.49
435.384	2.45
435.59	2.46
435.797	2.65
436.003	2.69
436.21	2.69
436.416	2.77
436.623	2.79
436.829	2.81
437.036	2.92
437.242	2.86
437.449	2.76
437.655	2.84
437.862	2.78
438.068	2.61
438.275	2.79
438.481	3.07
438.687	3
438.894	3.01
439.1	3.16
439.307	3.18
439.513	3.07
439.719	3.03
439.926	3.02
440.132	2.91
440.338	2.81
440.544	2.86
440.751	2.88
440.957	2.96
441.163	2.98
441.369	3.02
441.575	2.83
441.782	2.92
441.988	2.84
442.194	2.87
442.4	2.9
442.606	3.2
442.812	3.31
443.018	3.41
443.224	3.47
443.431	3.55
443.637	3.33
443.843	3.18
444.049	3.16
444.255	3.12
444.461	3.12
444.667	3.16
444.873	3.31
445.079	3.35
445.284	3.42
445.49	3.21
445.696	3.12
445.902	2.97
446.108	2.91
446.314	2.88
446.52	2.99
446.726	3.18
446.931	3.17
447.137	3.24
447.343	3.33
447.549	3.23
447.755	3.13
447.96	3.25
448.166	3.22
448.372	3.07
448.578	3.16
448.783	3.17
448.989	3.15
449.195	3.31
449.4	3.4
449.606	3.39
449.812	3.3
450.017	3.46
450.223	3.37
450.428	3.3
450.634	3.45
450.84	3.59
451.045	3.45
451.251	3.35
451.456	3.58
451.662	3.61
451.867	3.63
452.073	3.68
452.278	3.9
452.483	3.92
452.689	3.81
452.894	3.92
453.1	3.88
453.305	3.67
453.51	3.61
453.716	3.54
453.921	3.47
454.127	3.41
454.332	3.41
454.537	3.28
454.742	3.34
454.948	3.33
455.153	3.42
455.358	3.55
455.563	3.77
455.769	3.87
455.974	3.87
456.179	3.79
456.384	3.76
456.589	3.65
456.795	3.45
457	3.4
457.205	3.58
457.41	3.51
457.615	3.45
457.82	3.65
458.025	3.71
458.23	3.56
458.435	3.62
458.64	3.62
458.845	3.67
459.05	3.66
459.255	3.7
459.46	3.73
459.665	3.77
459.87	3.73
460.075	3.71
460.28	3.73
460.485	3.8
460.69	3.73
460.895	3.63
461.099	3.62
461.304	3.75
461.509	3.72
461.714	3.68
461.919	3.79
462.123	3.75
462.328	3.76
462.533	3.7
462.738	3.89
462.942	3.78
463.147	3.85
463.352	3.85
463.556	3.9
463.761	3.82
463.966	3.87
464.17	3.88
464.375	3.71
464.58	3.69
464.784	3.78
464.989	3.84
465.193	3.84
465.398	3.93
465.602	4.08
465.807	4.05
466.011	4.02
466.216	4.13
466.42	4.25
466.625	4.29
466.829	4.25
467.034	4.33
467.238	4.49
467.443	4.37
467.647	4.16
467.851	4.31
468.056	4.39
468.26	4.19
468.464	4.22
468.669	4.47
468.873	4.59
469.077	4.55
469.282	4.69
469.486	4.79
469.69	4.71
469.894	4.48
470.099	4.48
470.303	4.5
470.507	4.41
470.711	4.32
470.915	4.4
471.119	4.36
471.324	4.29
471.528	4.38
471.732	4.5
471.936	4.48
472.14	4.58
472.344	4.58
472.548	4.54
472.752	4.65
472.956	4.86
473.16	4.81
473.364	4.81
473.568	4.81
473.772	4.77
473.976	4.65
474.18	4.67
474.384	4.78
474.588	4.9
474.792	4.8
474.995	4.87
475.199	4.93
475.403	4.94
475.607	4.89
475.811	4.95
476.015	4.95
476.218	5
476.422	4.96
476.626	5.07
476.83	5.13
477.033	5.12
477.237	5.03
477.441	5.12
477.644	5.04
477.848	5.13
478.052	5.12
478.255	5.21
478.459	5.2
478.663	5.35
478.866	5.3
479.07	5.36
479.273	5.46
479.477	5.49
479.681	5.46
479.884	5.44
480.088	5.4
480.291	5.37
480.495	5.36
480.698	5.36
480.901	5.43
481.105	5.56
481.308	5.52
481.512	5.52
481.715	5.55
481.919	5.56
482.122	5.55
482.325	5.57
482.529	5.62
482.732	5.71
482.935	5.65
483.138	5.59
483.342	5.67
483.545	5.7
483.748	5.62
483.952	5.76
484.155	5.91
484.358	5.92
484.561	5.94
484.764	5.96
484.967	5.93
485.171	6
485.374	5.94
485.577	5.97
485.78	6.02
485.983	6.06
486.186	5.92
486.389	5.89
486.592	5.9
486.795	5.9
486.998	5.89
487.201	5.97
487.404	6.13
487.607	6.18
487.81	6.19
488.013	6.23
488.216	6.19
488.419	6.18
488.622	6.11
488.825	6.08
489.028	6.02
489.231	6.01
489.433	5.92
489.636	5.85
489.839	5.87
490.042	5.81
490.245	5.83
490.447	5.9
490.65	5.98
490.853	6.01
491.056	6.15
491.258	6.18
491.461	6.15
491.664	6.23
491.866	6.2
492.069	6.17
492.272	6.06
492.474	6.16
492.677	6.14
492.879	6.2
493.082	6.23
493.285	6.45
493.487	6.35
493.69	6.29
493.892	6.21
494.095	6.2
494.297	6.11
494.5	6.19
494.702	6.27
494.905	6.35
495.107	6.3
495.309	6.28
495.512	6.29
495.714	6.25
495.917	6.27
496.119	6.29
496.321	6.36
496.524	6.36
496.726	6.39
496.928	6.41
497.13	6.39
497.333	6.39
497.535	6.42
497.737	6.43
497.939	6.45
498.142	6.57
498.344	6.53
498.546	6.48
498.748	6.54
498.95	6.62
499.152	6.58
499.355	6.66
499.557	6.74
499.759	6.77
499.961	6.66
500.163	6.69
500.365	6.69
500.567	6.83
500.769	6.83
500.971	6.89
501.173	6.82
501.375	6.88
501.577	6.7
501.779	6.64
501.981	6.64
502.183	6.71
502.385	6.66
502.587	6.68
502.788	6.78
502.99	6.85
503.192	6.93
503.394	6.91
503.596	6.99
503.798	7.05
503.999	7.11
504.201	7.04
504.403	7.17
504.605	7.22
504.806	7.21
505.008	7.16
505.21	7.34
505.411	7.31
505.613	7.3
505.815	7.28
506.016	7.37
506.218	7.29
506.42	7.33
506.621	7.38
506.823	7.44
507.024	7.34
507.226	7.38
507.427	7.4
507.629	7.41
507.83	7.4
508.032	7.42
508.233	7.47
508.435	7.45
508.636	7.52
508.838	7.56
509.039	7.61
509.24	7.62
509.442	7.7
509.643	7.64
509.845	7.65
510.046	7.71
510.247	7.72
510.448	7.7
510.65	7.77
510.851	7.88
511.052	7.88
511.254	7.9
511.455	8
511.656	8.02
511.857	8.08
512.058	8.12
512.26	8.11
512.461	8.12
512.662	8.16
512.863	8.05
513.064	8.07
513.265	8.18
513.466	8.2
513.667	8.18
513.868	8.2
514.069	8.27
514.27	8.3
514.471	8.3
514.672	8.3
514.873	8.36
515.074	8.41
515.275	8.31
515.476	8.3
515.677	8.35
515.878	8.46
516.079	8.39
516.28	8.48
516.481	8.57
516.682	8.61
516.882	8.54
517.083	8.52
517.284	8.43
517.485	8.37
517.686	8.34
517.886	8.35
518.087	8.47
518.288	8.52
518.488	8.52
518.689	8.51
518.89	8.47
519.091	8.46
519.291	8.5
519.492	8.58
519.692	8.64
519.893	8.76
520.094	8.72
520.294	8.71
520.495	8.68
520.695	8.72
520.896	8.7
521.096	8.81
521.297	8.82
521.497	8.81
521.698	8.77
521.898	8.75
522.099	8.69
522.299	8.8
522.499	8.83
522.7	8.96
522.9	8.94
523.101	9.02
523.301	8.98
523.501	8.97
523.702	8.91
523.902	9.04
524.102	9.06
524.302	9.05
524.503	9.14
524.703	9.13
524.903	9.1
525.103	9.02
525.304	9.09
525.504	9.13
525.704	9.24
525.904	9.21
526.104	9.28
526.304	9.28
526.504	9.27
526.705	9.2
526.905	9.28
527.105	9.3
527.305	9.24
527.505	9.21
527.705	9.25
527.905	9.25
528.105	9.26
528.305	9.27
528.505	9.33
528.705	9.36
528.905	9.32
529.105	9.34
529.304	9.44
529.504	9.54
529.704	9.51
529.904	9.55
530.104	9.58
530.304	9.62
530.503	9.51
530.703	9.5
530.903	9.47
531.103	9.48
531.303	9.46
531.502	9.55
531.702	9.65
531.902	9.74
532.101	9.74
532.301	9.73
532.501	9.7
532.7	9.65
532.9	9.64
533.1	9.66
533.299	9.72
533.499	9.72
533.698	9.74
533.898	9.77
534.097	9.79
534.297	9.9
534.496	9.94
534.696	9.95
534.895	10.02
535.095	10.09
535.294	10
535.494	10.01
535.693	10.05
535.892	10.05
536.092	10.01
536.291	9.99
536.491	10.06
536.69	10.08
536.889	10
537.088	9.97
537.288	10.07
537.487	10.09
537.686	10.13
537.886	10.25
538.085	10.35
538.284	10.43
538.483	10.42
538.682	10.5
538.882	10.54
539.081	10.62
539.28	10.51
539.479	10.48
539.678	10.46
539.877	10.55
540.076	10.49
540.275	10.54
540.474	10.66
540.673	10.69
540.872	10.59
541.071	10.69
541.27	10.75
541.469	10.8
541.668	10.81
541.867	10.9
542.066	10.94
542.265	11.03
542.464	10.94
542.663	11
542.862	11.11
543.06	11.12
543.259	11.15
543.458	11.24
543.657	11.32
543.856	11.28
544.054	11.31
544.253	11.26
544.452	11.32
544.651	11.37
544.849	11.34
545.048	11.38
545.247	11.47
545.445	11.53
545.644	11.51
545.843	11.55
546.041	11.61
546.24	11.65
546.438	11.76
546.637	11.81
546.836	11.98
547.034	12.09
547.233	12.15
547.431	12.13
547.63	12.21
547.828	12.22
548.027	12.23
548.225	12.24
548.423	12.29
548.622	12.35
548.82	12.34
549.019	12.37
549.217	12.47
549.415	12.53
549.614	12.62
549.812	12.66
550.01	12.7
550.209	12.78
550.407	12.92
550.605	12.96
550.803	13.13
551.002	13.3
551.2	13.33
551.398	13.38
551.596	13.48
551.794	13.51
551.993	13.55
552.191	13.6
552.389	13.73
552.587	13.8
552.785	13.89
552.983	13.97
553.181	14.07
553.379	14.17
553.577	14.22
553.775	14.32
553.973	14.39
554.171	14.53
554.369	14.44
554.567	14.5
554.765	14.56
554.963	14.63
555.161	14.57
555.359	14.62
555.557	14.73
555.755	14.79
555.952	14.95
556.15	15.1
556.348	15.31
556.546	15.44
556.744	15.47
556.941	15.46
557.139	15.5
557.337	15.53
557.535	15.51
557.732	15.64
557.93	15.76
558.128	15.84
558.325	16.03
558.523	16.09
558.721	16.26
558.918	16.33
559.116	16.48
559.313	16.44
559.511	16.64
559.708	16.66
559.906	16.76
560.104	16.85
560.301	16.98
560.498	17
560.696	17.08
560.893	17.16
561.091	17.25
561.288	17.38
561.486	17.49
561.683	17.63
561.88	17.69
562.078	17.86
562.275	17.98
562.473	18.17
562.67	18.32
562.867	18.47
563.064	18.56
563.262	18.63
563.459	18.65
563.656	18.72
563.853	18.76
564.051	18.79
564.248	18.91
564.445	19.04
564.642	19.06
564.839	19.32
565.036	19.52
565.234	19.7
565.431	19.81
565.628	19.97
565.825	20.01
566.022	20.1
566.219	20.08
566.416	20.09
566.613	20.25
566.81	20.3
567.007	20.27
567.204	20.3
567.401	20.41
567.598	20.39
567.795	20.44
567.991	20.5
568.188	20.72
568.385	20.89
568.582	21.01
568.779	21.16
568.976	21.25
569.172	21.31
569.369	21.2
569.566	21.27
569.763	21.37
569.96	21.39
570.156	21.32
570.353	21.5
570.55	21.51
570.746	21.49
570.943	21.65
571.14	21.72
571.336	21.76
571.533	21.81
571.729	21.87
571.926	21.97
572.123	22.17
572.319	22.27
572.516	22.27
572.712	22.29
572.909	22.22
573.105	22.26
573.302	22.27
573.498	22.37
573.695	22.47
573.891	22.58
574.087	22.53
574.284	22.5
574.48	22.5
574.677	22.53
574.873	22.5
575.069	22.64
575.266	22.73
575.462	22.75
575.658	22.77
575.854	22.87
576.051	22.86
576.247	22.85
576.443	22.94
576.639	22.95
576.835	22.9
577.032	22.83
577.228	22.99
577.424	22.93
577.62	22.85
577.816	22.9
578.012	22.98
578.208	22.92
578.404	22.99
578.6	23.12
578.796	23.15
578.993	23.2
579.189	23.16
579.384	23.02
579.58	22.92
579.776	22.87
579.972	22.74
580.168	22.65
580.364	22.83
580.56	22.84
580.756	22.91
580.952	22.95
581.148	23
581.343	22.96
581.539	23.02
581.735	22.99
581.931	23.05
582.127	23.17
582.322	23.12
582.518	23.14
582.714	23.03
582.909	22.97
583.105	22.87
583.301	22.88
583.496	22.87
583.692	22.93
583.888	22.84
584.083	22.95
584.279	22.98
584.474	22.96
584.67	22.93
584.866	23
585.061	22.81
585.257	22.83
585.452	22.82
585.648	22.84
585.843	22.92
586.039	22.98
586.234	23.01
586.429	22.96
586.625	23.14
586.82	23.01
587.015	23.05
587.211	22.97
587.406	23.06
587.601	22.92
587.797	22.99
587.992	22.94
588.187	23.08
588.383	23.03
588.578	23.05
588.773	23.11
588.968	23.23
589.163	23.17
589.359	23.2
589.554	23.15
589.749	23.13
589.944	23.16
590.139	23.21
590.334	23.24
590.529	23.34
590.724	23.41
590.919	23.43
591.114	23.52
591.309	23.65
591.504	23.7
591.699	23.7
591.894	23.79
592.089	23.66
592.284	23.67
592.479	23.76
592.674	23.78
592.869	23.88
593.064	24.08
593.259	24.19
593.454	24.38
593.648	24.57
593.843	24.61
594.038	24.64
594.233	24.67
594.428	24.52
594.622	24.52
594.817	24.6
595.012	24.61
595.206	24.63
595.401	24.73
595.596	24.73
595.79	24.85
595.985	24.98
596.18	25.09
596.374	25.3
596.569	25.47
596.763	25.4
596.958	25.43
597.153	25.5
597.347	25.4
597.542	25.53
597.736	25.59
597.931	25.71
598.125	25.74
598.319	25.86
598.514	25.7
598.708	25.89
598.903	25.86
599.097	26.01
599.291	26.05
599.486	26.15
599.68	26
599.874	26.2
600.069	26.14
600.263	26.16
600.457	26.26
600.651	26.39
600.846	26.32
601.04	26.45
601.234	26.48
601.428	26.57
601.622	26.65
601.817	26.67
602.011	26.59
602.205	26.73
602.399	26.66
602.593	26.66
602.787	26.78
602.981	26.77
603.175	26.78
603.369	26.81
603.563	26.88
603.757	26.9
603.951	26.99
604.145	26.91
604.339	26.96
604.533	26.77
604.727	26.74
604.921	26.72
605.115	26.75
605.309	26.84
605.502	26.89
605.696	26.76
605.89	26.75
606.084	26.63
606.278	26.51
606.471	26.51
606.665	26.52
606.859	26.48
607.053	26.56
607.246	26.52
607.44	26.43
607.634	26.37
607.827	26.33
608.021	26.25
608.214	26.18
608.408	26.15
608.602	26.15
608.795	26.1
608.989	25.93
609.182	25.89
609.376	25.88
609.569	25.78
609.763	25.69
609.956	25.68
610.15	25.59
610.343	25.52
610.537	25.57
610.73	25.62
610.923	25.61
611.117	25.6
611.31	25.55
611.504	25.42
611.697	25.21
611.89	25.05
612.083	24.96
612.277	24.92
612.47	24.84
612.663	24.77
612.856	24.72
613.05	24.65
613.243	24.58
613.436	24.44
613.629	24.41
613.822	24.33
614.015	24.27
614.209	24.14
614.402	24.12
614.595	24.07
614.788	24.05
614.981	23.93
615.174	23.81
615.367	23.75
615.56	23.69
615.753	23.63
615.946	23.51
616.139	23.59
616.332	23.63
616.525	23.51
616.718	23.56
616.911	23.62
617.103	23.55
617.296	23.43
617.489	23.42
617.682	23.25
617.875	23.21
618.067	23.12
618.26	23.02
618.453	23.02
618.646	23.03
618.838	23.01
619.031	23.14
619.224	23.18
619.417	23.15
619.609	23.12
619.802	23.11
619.994	22.96
620.187	22.97
620.38	22.99
620.572	22.89
620.765	22.85
620.957	22.73
621.15	22.52
621.342	22.48
621.535	22.54
621.727	22.42
621.92	22.43
622.112	22.49
622.305	22.56
622.497	22.39
622.69	22.53
622.882	22.58
623.074	22.68
623.267	22.56
623.459	22.66
623.651	22.53
623.844	22.5
624.036	22.4
624.228	22.35
624.42	22.32
624.613	22.44
624.805	22.36
624.997	22.31
625.189	22.3
625.381	22.29
625.574	22.17
625.766	22.13
625.958	22.1
626.15	22.1
626.342	22.07
626.534	22.06
626.726	22.04
626.918	22.04
627.11	21.99
627.302	21.95
627.494	21.86
627.686	21.96
627.878	21.87
628.07	21.87
628.262	21.89
628.454	21.87
628.646	21.77
628.838	21.84
629.029	21.78
629.221	21.71
629.413	21.65
629.605	21.54
629.797	21.39
629.989	21.32
630.18	21.23
630.372	21.2
630.564	21.24
630.755	21.26
630.947	21.27
631.139	21.2
631.33	21.12
631.522	21.12
631.714	21.13
631.905	21.12
632.097	21.17
632.289	21.27
632.48	21.22
632.672	21.05
632.863	20.95
633.055	20.83
633.246	20.8
633.438	20.67
633.629	20.68
633.821	20.71
634.012	20.76
634.203	20.6
634.395	20.75
634.586	20.78
634.777	20.74
634.969	20.72
635.16	20.77
635.351	20.63
635.543	20.62
635.734	20.62
635.925	20.65
636.117	20.65
636.308	20.68
636.499	20.65
636.69	20.55
636.881	20.48
637.073	20.57
637.264	20.52
637.455	20.57
637.646	20.67
637.837	20.75
638.028	20.63
638.219	20.69
638.41	20.62
638.601	20.51
638.792	20.41
638.983	20.45
639.174	20.39
639.365	20.4
639.556	20.4
639.747	20.31
639.938	20.27
640.129	20.18
640.32	20.06
640.511	20.1
640.701	20.2
640.892	20.15
641.083	20.2
641.274	20.29
641.465	20.21
641.655	20.1
641.846	20.12
642.037	20.07
642.228	19.91
642.418	19.96
642.609	20.01
642.8	20
642.99	19.97
643.181	20.14
643.372	20.13
643.562	20.03
643.753	19.95
643.943	19.96
644.134	19.8
644.324	19.73
644.515	19.7
644.705	19.73
644.896	19.74
645.086	19.76
645.277	19.72
645.467	19.82
645.658	19.72
645.848	19.6
646.038	19.51
646.229	19.52
646.419	19.35
646.61	19.42
646.8	19.41
646.99	19.44
647.18	19.39
647.371	19.47
647.561	19.41
647.751	19.46
647.941	19.46
648.132	19.44
648.322	19.3
648.512	19.31
648.702	19.28
648.892	19.22
649.082	19.23
649.272	19.13
649.462	18.95
649.653	18.81
649.843	18.8
650.033	18.78
650.223	18.92
650.413	18.97
650.603	19.01
650.793	19.03
650.983	18.93
651.172	18.89
651.362	18.83
651.552	18.8
651.742	18.63
651.932	18.65
652.122	18.59
652.312	18.71
652.502	18.71
652.691	18.73
652.881	18.68
653.071	18.71
653.261	18.47
653.45	18.35
653.64	18.28
653.83	18.07
654.019	17.83
654.209	17.71
654.399	17.62
654.588	17.46
654.778	17.4
654.968	17.26
655.157	17.24
655.347	17.09
655.536	16.95
655.726	16.82
655.915	16.74
656.105	16.63
656.294	16.51
656.484	16.43
656.673	16.23
656.863	16.22
657.052	15.92
657.241	15.76
657.431	15.47
657.62	15.38
657.809	14.99
657.999	14.83
658.188	14.62
658.377	14.51
658.567	14.38
658.756	14.26
658.945	14.1
659.134	13.92
659.324	13.82
659.513	13.63
659.702	13.47
659.891	13.35
660.08	13.25
660.269	13.09
660.458	12.89
660.648	12.72
660.837	12.64
661.026	12.52
661.215	12.35
661.404	12.2
661.593	12.17
661.782	11.9
661.971	11.75
662.16	11.63
662.349	11.51
662.538	11.28
662.726	11.15
662.915	10.99
663.104	10.85
663.293	10.71
663.482	10.62
663.671	10.5
663.86	10.32
664.048	10.17
664.237	10.14
664.426	9.94
664.615	9.93
664.803	9.87
664.992	9.71
665.181	9.44
665.369	9.36
665.558	9.17
665.747	9.14
665.935	9.18
666.124	9.26
666.312	9.18
666.501	9.15
666.69	8.96
666.878	8.81
667.067	8.65
667.255	8.72
667.444	8.91
667.632	8.99
667.82	9.1
668.009	9.1
668.197	9.09
668.386	8.89
668.574	8.93
668.762	8.79
668.951	8.7
669.139	8.59
669.327	8.44
669.516	8.44
669.704	8.39
669.892	8.56
670.08	8.58
670.269	8.54
670.457	8.44
670.645	8.36
670.833	8.37
671.021	8.43
671.21	8.59
671.398	8.74
671.586	8.81
671.774	8.67
671.962	8.53
672.15	8.5
672.338	8.31
672.526	8.38
672.714	8.36
672.902	8.52
673.09	8.69
673.278	8.94
673.466	9.05
673.654	9.25
673.842	9.23
674.03	9.12
674.218	8.97
674.405	8.93
674.593	8.89
674.781	8.96
674.969	9.08
675.157	9.27
675.344	9.39
675.532	9.51
675.72	9.68
675.908	9.78
676.095	9.67
676.283	9.71
676.471	9.92
676.658	9.78
676.846	9.8
677.033	10.04
677.221	10.09
677.409	9.81
677.596	10.06
677.784	10.11
677.971	10.12
678.159	10.19
678.346	10.47
678.534	10.63
678.721	10.82
678.909	10.86
679.096	10.92
679.283	11.1
679.471	11.16
679.658	11.2
679.846	11.42
680.033	11.67
680.22	11.73
680.408	11.66
680.595	11.88
680.782	11.94
680.969	12.07
681.157	12.33
681.344	12.57
681.531	12.63
681.718	12.82
681.905	12.94
682.093	12.97
682.28	13.22
682.467	13.51
682.654	13.73
682.841	13.83
683.028	14.08
683.215	14.29
683.402	14.28
683.589	14.42
683.776	14.69
683.963	14.81
684.15	15
684.337	15.34
684.524	15.55
684.711	15.95
684.898	16.17
685.085	16.37
685.271	16.7
685.458	16.87
685.645	16.96
685.832	17.34
686.019	17.69
686.205	17.9
686.392	18.29
686.579	18.52
686.766	18.91
686.952	19.1
687.139	19.59
687.326	19.88
687.512	20.4
687.699	20.83
687.886	21.29
688.072	21.47
688.259	21.99
688.445	22.42
688.632	22.61
688.818	23.18
689.005	23.71
689.191	24.08
689.378	24.61
689.564	25.1
689.751	25.47
689.937	25.81
690.124	26.35
690.31	26.62
690.496	27.22
690.683	27.84
690.869	28.49
691.055	29.05
691.242	29.94
691.428	30.44
691.614	30.97
691.8	31.62
691.987	32.1
692.173	32.43
692.359	33.13
692.545	33.76
692.731	34.14
692.918	34.95
693.104	35.35
693.29	35.72
693.476	36.05
693.662	36.72
693.848	37.09
694.034	37.83
694.22	38.34
694.406	38.98
694.592	39.56
694.778	40.16
694.964	40.66
695.15	41.13
695.336	41.58
695.522	42.18
695.708	42.67
695.894	43.36
696.08	44.19
696.265	44.93
696.451	45.54
696.637	46.26
696.823	46.42
697.009	46.74
697.194	47.02
697.38	47.26
697.566	47.52
697.751	48.2
697.937	48.7
698.123	49.27
698.308	49.83
698.494	50.25
698.68	50.63
698.865	51.16
699.051	51.65
699.236	51.89
699.422	52.3
699.607	52.69
699.793	52.98
699.978	53.12
700.164	53.37
700.349	53.94
700.535	54.43
700.72	54.62
700.906	55.37
701.091	55.81
701.276	56.06
701.462	56.59
701.647	57.3
701.832	57.49
702.018	58.19
702.203	58.3
702.388	58.08
702.573	58.21
702.759	58.69
702.944	58.5
703.129	58.81
703.314	59.59
703.499	59.92
703.684	60.12
703.87	61.48
704.055	62.4
704.24	62.73
704.425	63.36
704.61	63.49
704.795	62.97
704.98	62.56
705.165	62.43
705.35	62.13
705.535	62.47
705.72	62.43
705.905	63.22
706.09	63.76
706.275	64.34
706.459	64.17
706.644	64.64
706.829	64.55
707.014	64.51
707.199	64.69
707.384	65.37
707.568	65.62
707.753	65.89
707.938	66.03
708.123	66.02
708.307	65.87
708.492	66.01
708.677	66.09
708.861	66.19
709.046	66.09
709.231	66.7
709.415	66.78
709.6	66.74
709.784	67.1
709.969	67.41
710.153	67
710.338	67.16
710.522	67.25
710.707	67.29
710.891	67.2
711.076	67.46
711.26	67.62
711.445	67.8
711.629	68.04
711.813	68.49
711.998	68.76
712.182	68.71
712.366	69.03
712.551	69.33
712.735	69.55
712.919	69.62
713.103	69.86
713.288	69.87
713.472	69.72
713.656	70.06
713.84	70.09
714.024	70.38
714.208	70.16
714.393	70.38
714.577	70.11
714.761	70.17
714.945	69.66
715.129	70.13
715.313	70.19
715.497	70.3
715.681	70.93
715.865	71.3
716.049	71.04
716.233	70.92
716.417	70.93
716.601	70.48
716.785	70.48
716.968	71.1
717.152	71.31
717.336	71.29
717.52	71.14
717.704	71.29
717.888	71.33
718.071	71.57
718.255	71.78
718.439	72.15
718.622	72.16
718.806	72.18
718.99	71.84
719.174	72.08
719.357	71.72
719.541	71.92
719.724	71.73
719.908	72.61
720.092	72.63
720.275	73.14
720.459	72.77
720.642	72.51
720.826	72.01
721.009	71.85
721.193	71.52
721.376	72.38
721.559	72.75
721.743	72.65
721.926	72.86
722.11	73.42
722.293	72.78
722.476	72.59
722.66	72.55
722.843	72.44
723.026	71.51
723.21	71.98
723.393	72.85
723.576	72.95
723.759	73.27
723.942	74.08
724.126	73.68
724.309	72.97
724.492	72.69
724.675	72.34
724.858	72.62
725.041	72.96
725.224	73.36
725.407	74.15
725.59	74.71
725.774	74.72
725.957	74.57
726.14	74.69
726.322	75.01
726.505	74.35
726.688	74.67
726.871	74.87
727.054	74.55
727.237	74
727.42	74.49
727.603	73.89
727.786	74.28
727.968	74.89
728.151	74.78
728.334	74.66
728.517	75.32
728.699	75.65
728.882	75.29
729.065	75.9
729.248	76.71
729.43	76.77
729.613	77.13
729.796	77.58
729.978	76.92
730.161	76.54
730.343	76.43
730.526	76.25
730.708	75.67
730.891	76.49
731.073	76.3
731.256	76.06
731.438	75.75
731.621	77.14
731.803	77
731.986	77.15
732.168	76.7
732.35	76.83
732.533	76.03
732.715	76.08
732.898	76.36
733.08	77.06
733.262	77.64
733.444	77.26
733.627	77.23
733.809	77.74
733.991	77.97
734.173	77.1
734.355	77.79
734.538	78.23
734.72	77.7
734.902	77.66
735.084	77.85
735.266	77.58
735.448	77.71
735.63	77.72
735.812	78.21
735.994	79.15
736.176	79.26
736.358	78.73
736.54	79.13
736.722	78.02
736.904	77.59
737.086	78.29
737.268	79.6
737.45	79.63
737.632	80.72
737.814	80.38
737.995	79.51
738.177	79.25
738.359	78.29
738.541	78.51
738.723	78.88
738.904	79.76
739.086	79.19
739.268	79.62
739.449	79.31
739.631	78.59
739.813	78.63
739.994	78.55
740.176	79.32
740.358	78.68
740.539	80.05
740.721	79.79
740.902	80.85
741.084	80.32
741.265	80.83
741.447	80.72
741.628	81.46
741.81	80.71
741.991	81.19
742.172	81.96
742.354	81.61
742.535	80.69
742.717	80.56
742.898	80.88
743.079	80.65
743.261	80.6
743.442	80.77
743.623	80.98
743.804	81.59
743.986	81.78
744.167	81.23
744.348	80.62
744.529	81.09
744.71	78.83
744.891	78.27
745.073	77.91
745.254	77.29
745.435	76.32
745.616	77.2
745.797	77.08
745.978	77.96
746.159	78.9
746.34	78.47
746.521	79.86
746.702	79.14
746.883	79.07
747.064	78.78
747.245	79.49
747.426	79.32
747.606	80.67
747.787	80.55
747.968	80.45
748.149	80.39
748.33	79.79
748.51	78.56
748.691	78.64
748.872	78.84
749.053	78.83
749.233	78.02
749.414	78.55
749.595	78.06
749.775	78
749.956	78.21
750.137	78.11
750.317	79
750.498	80.32
750.678	79.83
750.859	80.45
751.04	81.22
751.22	79.32
751.4	78.44
751.581	78.76
751.761	78.6
751.942	78.67
752.122	78.83
752.303	78.5
752.483	78.96
752.663	78.26
752.844	77.86
753.024	79.68
753.204	80.32
753.385	79.43
753.565	79.04
753.745	79.16
753.925	77.33
754.106	76.6
754.286	77.39
754.466	77.7
754.646	78.01
754.826	78
755.006	77.78
755.187	78.31
755.367	79.38
755.547	78.63
755.727	79.2
755.907	79.68
756.087	79.44
756.267	78.24
756.447	78.25
756.627	76.93
756.807	76.78
756.987	76.68
757.167	76.96
757.346	77.77
757.526	78
757.706	78.87
757.886	78.89
758.066	78.76
758.246	80.22
758.425	81.2
758.605	79.67
758.785	80.09
758.965	80.63
759.144	77.98
759.324	78.18
759.504	79.62
759.683	79.66
759.863	77.73
760.043	76.58
760.222	76.37
760.402	75.09
760.581	73.97
760.761	75.38
760.94	75.18
761.12	76.64
761.299	77.4
761.479	76.88
761.658	75.29
761.838	76.25
762.017	75.94
762.197	76.08
762.376	77.13
762.555	79.13
762.735	80.16
762.914	77.94
763.093	77.31
763.273	76.42
763.452	74.32
763.631	73.76
763.81	74.44
763.99	75.22
764.169	75.02
764.348	75.26
764.527	74.32
764.706	74.91
764.885	74.12
765.064	73.36
765.243	74.87
765.423	76.04
765.602	74.46
765.781	74.04
765.96	74.58
766.139	72.37
766.318	73.22
766.497	73.33
766.676	73.33
766.854	74.7
767.033	77.04
767.212	74.85
767.391	76.06
767.57	76.39
767.749	76.09
767.928	76.31
768.106	76.92
768.285	74.82
768.464	74.34
768.643	73.45
768.821	72.58
769	75.08
769.179	76.79
769.357	75.66
769.536	74.91
769.715	73.96
769.893	72.95
770.072	70.71
770.25	72.36
770.429	74.54
770.607	74.63
770.786	73.48
770.964	76.01
771.143	74.43
771.321	75.27
771.5	77.56
771.678	76.74
771.857	74.67
772.035	75.73
772.213	73.69
772.392	71.18
772.57	72.69
772.748	73.91
772.927	72.91
773.105	73.56
773.283	73.63
773.461	73.12
773.64	73.87
773.818	73.52
773.996	72.29
774.174	70.67
774.352	69.5
774.531	68.05
774.709	71.05
774.887	70.92
775.065	72.42
775.243	72.23
775.421	72.44
775.599	72.13
775.777	69.69
775.955	66.83
776.133	65.1
776.311	65.76
776.489	63.3
776.667	65.07
776.844	68.31
777.022	69.4
777.2	68.23
777.378	69.27
777.556	70.31
777.734	70.48
777.911	73.17
778.089	73.93
778.267	72.96
778.445	70.89
778.622	69.04
778.8	66.83
778.978	69.6
779.155	69.21
779.333	70.21
779.511	68.48
779.688	69.28
779.866	62.61
780.043	61.25
780.221	60.9
780.398	63.06
780.576	65.01
780.753	68.16
780.931	69.66
781.108	69.79
781.286	71.55
781.463	67.79
781.64	66.71
781.818	66.94
781.995	67.54
782.172	66.69
782.35	69.74
782.527	71.78
782.704	69.1
782.882	69.77
783.059	68.59
783.236	69.38
783.413	68.94
783.59	73.41
783.768	71.19
783.945	74.41
784.122	73.08
784.299	73.73
784.476	70.4
784.653	70.44
784.83	64.96
785.007	59.06
785.184	57.62
785.361	56.64
785.538	60.7
785.715	65.74
785.892	72.61
786.069	74.67
786.246	76.95
786.423	74.59
786.6	72.12
786.776	69.5
786.953	66.89
787.13	67.44
787.307	65.98
787.484	65.55
787.66	64.41
787.837	64.94
788.014	62.18
788.191	62.89
788.367	62.6
788.544	63.6
788.721	64.63
788.897	67.27
789.074	68.1
789.25	67.71
789.427	67.77
789.603	67.09
789.78	69.53
789.956	66.73
790.133	65.04
790.309	66.29
790.486	67.72
790.662	65.22
790.839	67.74
791.015	69.53
791.192	65.45
791.368	66.6
791.544	63.74
791.721	59.5
791.897	59.33
792.073	57.86
792.249	49.43
792.426	55.37
792.602	63.54
792.778	64.98
792.954	63.35
793.13	65.73
793.307	57.18
793.483	47.61
793.659	46.01
793.835	53.31
794.011	57.4
794.187	59.68
794.363	62.17
794.539	66.37
794.715	61.38
794.891	56.53
795.067	55.34
795.243	59.18
795.419	55.98
795.595	52.4
795.771	54.23
795.947	54.6
796.122	50.15
796.298	48.76
796.474	54.08
796.65	53.38
796.826	52.08
797.001	56.3
797.177	54.55
797.353	55.71
797.529	59.35
797.704	59.34
797.88	58.35
798.056	54.59
798.231	50.26
798.407	49.92
798.582	55.67
798.758	57.57
798.934	67.02
799.109	69.72
799.285	64.23
799.46	63.78
799.636	56.35
799.811	57.33
799.986	59.12
800.162	63.31
800.337	64.24
800.513	63.1
800.688	57
800.863	59.26
801.039	54.73
801.214	45.3
801.389	46.7
801.565	47.59
801.74	43.45
801.915	52.39
802.09	57.42
802.265	65.47
802.441	63.31
802.616	64.31
802.791	62.6
802.966	62.81
803.141	57.41
803.316	58.18
803.491	59.94
803.666	60.95
803.841	61.64
804.016	62.49
804.191	62.86
804.366	56.25
804.541	49.78
804.716	49.35
804.891	39.43
805.066	40.48
805.241	46.93
805.416	45.7
805.591	40.98
805.765	48.82
805.94	50.91
806.115	46.2
806.29	46.42
806.464	50.43
806.639	50.98
806.814	52.79
806.989	48.06
807.163	54.02
807.338	52.4
807.512	48.16
807.687	35.89
807.862	56.15
808.036	57.1
808.211	63.53
808.385	72.3
808.56	81.69
808.734	72.72
808.909	68.23
809.083	56.54
809.258	61.85
809.432	62
809.606	46.23
809.781	43.38
809.955	50.48
810.13	40.22
810.304	39.58
810.478	41.3
810.652	51.5
810.827	55.82
811.001	53.5
811.175	50.92
811.349	53.17
811.524	35.65
811.698	22.92
811.872	30.4
812.046	35.69
812.22	42.85
812.394	53.86
812.568	56.29
812.742	54.66
812.916	43.42
813.09	30.65
813.264	34.71
813.438	40.84
813.612	42.06
813.786	41.07
813.96	55.46
814.134	46.41
814.308	59.13
814.482	61.69
814.656	64.4
814.83	69.49
815.003	75.03
815.177	55.02
815.351	47.77
815.525	48.54
815.698	34.79
815.872	20.43
816.046	23.72
816.219	29.36
816.393	25.47
816.567	36.73
816.74	55.89
816.914	55.92
817.088	59.6
817.261	65.73
817.435	50.86
817.608	45.28
817.782	34.69
817.955	37.51
818.129	36.49
818.302	40.66
818.475	53.48
818.649	52.54
818.822	37.08
818.996	51.86
819.169	51.63
819.342	28.98
819.516	44.99
819.689	59.71
819.862	48.01
820.035	40.28
820.209	45.01
820.382	44.53
820.555	34.46
820.728	20.62
820.901	23.25
821.075	17.98
821.248	15.54
821.421	17.32
821.594	23.93
821.767	47
821.94	56.53
822.113	38.09
822.286	30.76
822.459	38.04
822.632	18.63
822.805	0.05
822.978	2.99
823.151	5.61
823.324	2.57
823.496	-20.31
823.669	-14.69
823.842	-4.23
824.015	-5.21
824.188	-27.87
824.361	-3.93
824.533	2.64
824.706	12.09
824.879	14.73
825.051	34.78
825.224	29.85
825.397	18.65
825.569	-7.66
825.742	5.82
825.915	4.8
826.087	3.25
826.26	1.19
826.432	3.46
826.605	-9.94
826.777	-9.69
826.95	-8.47
827.122	-8.43
827.295	9.98
827.467	16.74
827.64	-4.59
827.812	-3.52
827.984	7.16
828.157	-16.44
828.329	-30.84
828.501	-1
828.674	27.14
828.846	18.75
829.018	49.37
829.19	23.28
829.363	36.66
829.535	31.44
829.707	32.54
829.879	1.77
830.051	9.21
830.223	-14.2
830.395	-38.83
830.568	-43.35
830.74	-47.2
830.912	-12.89
831.084	-10.97
831.256	-3.64
831.428	1.01
831.6	-11.62
831.772	-48.15
831.943	-74.59
832.115	-39.8
832.287	-37.65
832.459	-7.91
832.631	14.83
832.803	41.69
832.975	42.43
833.146	24.42
833.318	10.72
833.49	7.62
833.662	-5.79
833.833	-23.71
834.005	15.78
834.177	22.1
834.348	20.43
834.52	24.15
834.692	31.74
834.863	5.56
835.035	-3.28
835.206	-41.85
835.378	-32.44
835.549	-27.7
835.721	-10.94
835.892	-8.72
836.064	-1.12
836.235	-22.16
836.407	-4.62
836.578	-81.43
836.749	-86.28
836.921	-125.04
837.092	-98.09
837.264	-91.7
837.435	-79.11
837.606	-48.9
837.777	-12.88
837.949	5.94
838.12	8.25
838.291	33.44
838.462	32.97
838.633	4.4
838.805	4.49
838.976	30.03
839.147	-43.26
839.318	-63.11
839.489	-90.4
839.66	-111.9
839.831	-90.44
840.002	-52.17
840.173	-54.32
840.344	8.17
840.515	14.99
840.686	-150.5
840.857	-152.7
841.028	-153.7
841.199	-115.16
841.369	-104.8
841.54	-71
841.711	-28.19
841.882	-20.36
842.053	-35.7
842.223	-58.46
842.394	-32.13
842.565	-34.24
842.736	0.57
842.906	12.7
843.077	41.44
843.248	84.49
843.418	68.77
843.589	34.9
843.759	83.94
843.93	23.25
844.101	-13.28
844.271	6.75
844.442	1.6
844.612	3.83
844.783	-17
844.953	-70.18
845.123	-123.11
845.294	-113.04
845.464	-400
845.635	-203.66
845.805	-66.78
845.975	-25.91
846.146	-72.43
846.316	-46.3
846.486	-28.77
846.656	3.45
846.827	1.93
846.997	12.86
847.167	15.7
847.337	-11.07
847.507	-66.63
847.677	-44.24
847.848	26.75
848.018	36.54
848.188	51.69
848.358	47.04
848.528	34.37
848.698	-13.48
848.868	-84.69
849.038	-187.61
849.208	-94.24
849.378	-77.28
849.548	-54.17
849.718	-29.76
849.887	-12.76
850.057	-10.84
850.227	-34.78
850.397	-59.82
850.567	-196.66
850.737	-431.3
850.906	-1693.75
851.076	-1063.28
851.246	-495.81
851.415	-80.72
851.585	-52.76
851.755	-65.56
851.924	-56.82
852.094	-129.35
852.264	-232.08
852.433	-1323.08
852.603	-254.46
852.772	-176.79
852.942	-95.94
853.111	-102.26
853.281	-55.39
853.45	-34.47
853.62	-116.05
853.789	-118.14
853.959	-97.14
854.128	-111.87
854.297	-147.75
854.467	-120.65
854.636	-103.85
854.805	-53.97
854.975	-65.59
855.144	-95.07
855.313	-106.29
855.482	-356.2
855.652	-224.65
855.821	-243.02
855.99	-45.66
856.159	-13.56
856.328	-3.7
856.497	-11.61
856.667	0.93
856.836	-10.4
857.005	-46.03
857.174	-84.52
857.343	-92.09
857.512	-105.65
857.681	-139.05
857.85	-180.04
858.019	-88.42
858.188	-84.08
858.356	-74.16
858.525	-127.24
858.694	-117.9
858.863	-263.47
859.032	-212.11
859.201	-296.73
859.369	-211.73
859.538	-175.96
859.707	-110.62
859.876	-111.56
860.044	-93.32
860.213	-8.84
860.382	-8.38
860.55	-1.01
860.719	20.73
860.888	14.24
861.056	-21.34
861.225	-37.03
861.393	-32.17
861.562	-40.44
861.73	-111.13
861.899	-296.34
862.067	-2282.76
862.236	-82.23
862.404	-306.63
862.572	-164.2
862.741	-52.1
862.909	-46.27
863.078	-166.27
863.246	-61.76
863.414	-63.91
863.582	-82.19
863.751	-121.62
863.919	-101.96
864.087	-95.66
864.255	-131.24
864.424	-446.61
864.592	-84.8
864.76	-151.09
864.928	-515.2
865.096	-252.87
865.264	-214.02
865.432	-2145.45
865.6	-200.5
865.768	-176.9
865.936	-180.71
866.104	-193.54
866.272	-280
866.44	-461.42
866.608	690.76
866.776	329.97
866.944	3290.7
867.112	-623.73
867.28	-270.09
867.448	-117
867.615	-40.18
867.783	-32.13
867.951	-40.38
868.119	-17.23
868.286	-65.22
868.454	-245.54
868.622	-238.19
868.789	-303.01
868.957	-6807.14
869.125	-3313.16
869.292	-214.25
869.46	-275.31
869.627	-60.98
869.795	-42.84
869.963	0.09
870.13	11.04
870.298	14.04
870.465	-90.86
870.632	-115.79
870.8	-91.66
870.967	-125.04
871.135	-195.45
871.302	-121.17
871.469	-119.91
871.637	-184.34
871.804	-115.76
871.971	-112.45
872.139	-475.35
872.306	-51.64
872.473	-64.27
872.64	-410.3
872.807	-259.74
872.975	-36.43
873.142	-326.91
873.309	2064.86
873.476	16.42
873.643	60.67
873.81	48.62
873.977	55.49
874.144	27.23
874.311	-73.18
874.478	-87.8
874.645	-143.6
874.812	-79.96
874.979	-61.15
875.146	-63.59
875.313	-83.24
875.48	-7.32
875.647	-29.48
875.813	-60.38
875.98	-42.12
876.147	-88.7
876.314	-169.75
876.481	1100
876.647	-1549.44
876.814	672.54
876.981	-133.46
877.147	-64.37
877.314	-37.86
877.481	-24.58
877.647	-19.82
877.814	-108.51
877.98	-247.4
878.147	-178.77
878.314	-74.45
878.48	-163.83
878.647	-82.02
878.813	29.7
878.979	0.72
879.146	-58.94
879.312	-33.77
879.479	-71.59
879.645	-206.6
879.811	-331.86
879.978	-809.92
880.144	-266.85
880.31	-136.51
880.477	-339.82
880.643	-422.18
880.809	-194.5
880.975	-176.45
881.142	-1316.36
881.308	-237.7
881.474	-158.06
881.64	-136.7
881.806	-237.82
881.972	-81.68
882.138	-96.46
882.304	-96.54
882.47	-251.19
882.636	-825.41
882.802	-267.2
882.968	-91.15
883.134	-69.67
883.3	-80.45
883.466	-6.9
883.632	21.21
883.798	-11.76
883.964	-51.55
884.129	-72.52
884.295	-97.76
884.461	-123.71
884.627	-163.65
884.793	-157.16
884.958	-77.75
885.124	-153.07
885.29	-265.37
885.455	-398.54
885.621	-127.34
885.787	-255.01
885.952	-148.35
886.118	-160
886.283	-138
886.449	-259.15
886.614	-207.68
886.78	-403.46
886.945	1429.51
887.111	-771.1
887.276	-524.43
887.442	-1040.91
887.607	-458.02
887.773	-392.36
887.938	-331.85
888.103	-436.22
888.269	-360.24
888.434	-657.84
888.599	-154.74
888.764	-23.24
888.93	-9.46
889.095	-13.48
889.26	-64.32
889.425	-89.71
889.59	-100.55
889.756	-160
889.921	-117.55
890.086	-60.53
890.251	-40.61
890.416	-240.05
890.581	-1387.1
890.746	238.57
890.911	400.64
891.076	200
891.241	-538.81
891.406	-68.27
891.571	-102.13
891.736	-387.61
891.901	-609.73
892.065	572.53
892.23	154.35
892.395	271.62
892.56	394.22
892.725	-892.19
892.889	-3436.59
893.054	-404.73
893.219	-177.39
893.384	-116.28
893.548	-131.49
893.713	-115.57
893.878	-101.4
