Data from Ofra_1a_PS_2GT10_Reflection_2.txt Node
Date: Tue Jul 20 10:48:26 EDT 2021
User: Adam
Spectrometer: FLMT01687
Trigger mode: 0
Integration Time (sec): 1.004000E0
Scans to average: 2
Electric dark correction enabled: true
Nonlinearity correction enabled: false
Boxcar width: 2
XAxis mode: Wavelengths
Number of Pixels in Spectrum: 3648
>>>>>Begin Spectral Data<<<<<
179.494	61.42
179.716	-63.36
179.937	363.55
180.158	-233.76
180.38	152.03
180.601	87.43
180.823	-51.03
181.044	-213.56
181.265	-293.32
181.486	236.07
181.708	104.37
181.929	-45.45
182.15	-73.77
182.372	600.49
182.593	456.55
182.814	-105.09
183.035	-7.58
183.257	26.01
183.478	36.34
183.699	30.41
183.92	-26.56
184.141	-34.12
184.363	-30.91
184.584	-72.58
184.805	-31.69
185.026	13.6
185.247	9.59
185.468	-24.48
185.689	1.33
185.91	-38.02
186.132	-11.99
186.353	-6.18
186.574	30.85
186.795	14.93
187.016	51.4
187.237	22.15
187.458	7.4
187.679	-39.41
187.9	-11.09
188.121	-34.2
188.342	-7.86
188.563	23.68
188.784	54.35
189.005	56.26
189.226	52.71
189.447	50.44
189.667	33.15
189.888	11.1
190.109	-33.65
190.33	-24.84
190.551	-13.04
190.772	-25.53
190.993	-31.75
191.214	3.35
191.434	2.25
191.655	-18.2
191.876	12.99
192.097	27.05
192.318	38.83
192.538	-2.74
192.759	3.35
192.98	15.44
193.201	22.18
193.421	17.73
193.642	37.06
193.863	39.85
194.083	35.91
194.304	30.65
194.525	34.02
194.745	32.8
194.966	20.58
195.187	19.41
195.407	24.77
195.628	22.25
195.848	4.08
196.069	-7.96
196.29	8.97
196.51	-7.91
196.731	-16.68
196.951	-0.16
197.172	17.83
197.392	8.61
197.613	20.94
197.833	9.5
198.054	5.13
198.274	10.33
198.495	16.43
198.715	1.36
198.936	25.03
199.156	33.55
199.377	15.88
199.597	-1.31
199.817	7.58
200.038	-19.88
200.258	-14.35
200.479	9.9
200.699	27.69
200.919	17.23
201.14	22.67
201.36	30.47
201.58	-6.08
201.801	-19.3
202.021	-28.06
202.241	-26.06
202.461	-21.55
202.682	7.88
202.902	29.22
203.122	42.6
203.342	36.27
203.563	16.07
203.783	12.2
204.003	-19.48
204.223	-4.82
204.443	1.53
204.663	4.21
204.884	14.09
205.104	17.12
205.324	40.9
205.544	31.18
205.764	38.34
205.984	30.43
206.204	39.94
206.424	15.52
206.644	-2.69
206.864	-16.4
207.084	-15.61
207.304	-26.16
207.525	-39.16
207.745	-5.22
207.964	-11.95
208.184	-11.09
208.404	1.77
208.624	16.13
208.844	-4.06
209.064	6.2
209.284	-10.71
209.504	-11.87
209.724	-9.64
209.944	-17.38
210.164	-21.02
210.384	-20.63
210.604	-76.37
210.823	-92.44
211.043	-56.1
211.263	-104.77
211.483	-80.47
211.703	-43.62
211.922	-42.18
212.142	-3.38
212.362	4.27
212.582	18.71
212.801	22.21
213.021	-0.43
213.241	-29.65
213.461	-26.53
213.68	-14.58
213.9	-1.11
214.12	-1.75
214.339	-6.89
214.559	7.92
214.779	1.84
214.998	-10.64
215.218	5.84
215.438	18.22
215.657	4.61
215.877	-1.56
216.096	7.8
216.316	18.23
216.535	8.14
216.755	4.56
216.974	9.83
217.194	-7.26
217.413	-24.2
217.633	-32.95
217.852	-18.54
218.072	-3.16
218.291	5.64
218.511	-6.46
218.73	-11.87
218.95	-22.45
219.169	-52.4
219.389	-51.39
219.608	-34.44
219.827	-17.9
220.047	-11.24
220.266	-27.01
220.485	-24.1
220.705	-31.1
220.924	-7.46
221.143	21.48
221.363	29.85
221.582	13.79
221.801	26.42
222.021	10.45
222.24	-4.8
222.459	11.75
222.678	29.3
222.897	13.33
223.117	25.52
223.336	40.3
223.555	40
223.774	53.02
223.993	64.21
224.213	44.71
224.432	22.26
224.651	23.79
224.87	14.65
225.089	9.05
225.308	22.82
225.527	21.23
225.746	8.26
225.965	3.56
226.184	-15.31
226.404	-30.99
226.623	-28.83
226.842	-11.33
227.061	-12.07
227.28	25.02
227.499	26.23
227.718	24.54
227.936	13.14
228.155	19.17
228.374	12.54
228.593	11.18
228.812	20.61
229.031	37.81
229.25	9.14
229.469	-7.09
229.688	7.21
229.907	7.93
230.125	-7.28
230.344	9.48
230.563	18.51
230.782	19.2
231.001	14.88
231.22	23.7
231.438	43.11
231.657	32.68
231.876	23.39
232.095	28.36
232.313	17.94
232.532	3.28
232.751	-7.23
232.969	-4.4
233.188	-26.85
233.407	-4.62
233.625	-3.08
233.844	4.78
234.063	3.6
234.281	17.95
234.5	0.99
234.719	-5.98
234.937	-20.2
235.156	-24.42
235.374	-24.13
235.593	-12.04
235.811	13.19
236.03	30.89
236.249	42.68
236.467	41.23
236.686	41.39
236.904	34.57
237.123	25.7
237.341	19.84
237.559	24.57
237.778	33.07
237.996	6.24
238.215	-38.86
238.433	-119.57
238.652	-41.52
238.87	-50.73
239.088	-34.7
239.307	-13.45
239.525	22.53
239.743	1.48
239.962	-8.64
240.18	-6.41
240.398	0.86
240.617	-27.3
240.835	-19.99
241.053	1.73
241.271	14.49
241.49	23.16
241.708	22.72
241.926	8.1
242.144	3.71
242.363	8.33
242.581	-41.85
242.799	-65.03
243.017	-39.48
243.235	-23.56
243.453	-54.11
243.672	-24.85
243.89	-0.51
244.108	22.95
244.326	33.5
244.544	44.15
244.762	33.97
244.98	33.25
245.198	28.72
245.416	19.81
245.634	13.9
245.852	7.28
246.07	22.33
246.288	20.46
246.506	11.31
246.724	10.45
246.942	18.14
247.16	6.22
247.378	-4.53
247.596	38.18
247.814	10.82
248.032	-1.55
248.25	14.17
248.468	29.89
248.685	16.33
248.903	18.52
249.121	19.34
249.339	9.65
249.557	-3.76
249.775	-2.2
249.992	-3.38
250.21	-5.45
250.428	13.45
250.646	15.52
250.863	-0.09
251.081	24.12
251.299	24.58
251.517	19.77
251.734	11.94
251.952	23.62
252.17	17.79
252.387	15.19
252.605	-14.23
252.823	-20.2
253.04	11.95
253.258	-4.19
253.475	5.31
253.693	24.83
253.911	30.57
254.128	16.14
254.346	39.39
254.563	40.06
254.781	37.59
254.998	25.68
255.216	-17.34
255.433	-43.48
255.651	-38.23
255.868	-41.46
256.086	-19.83
256.303	4.89
256.521	1.08
256.738	-1.74
256.956	17.55
257.173	5.76
257.39	12.66
257.608	9.44
257.825	12.49
258.043	3.8
258.26	-1.45
258.477	-2.73
258.695	-1.93
258.912	-7.13
259.129	-13.06
259.346	-23.16
259.564	-14.12
259.781	-1.89
259.998	4.49
260.216	8.76
260.433	13.88
260.65	-2.75
260.867	-3.74
261.084	-7.76
261.302	-17.77
261.519	-8.65
261.736	12.2
261.953	5.66
262.17	11.09
262.387	6.82
262.604	16.58
262.822	21.72
263.039	24.52
263.256	21.49
263.473	23.95
263.69	16.59
263.907	10.96
264.124	23.94
264.341	24.34
264.558	33.62
264.775	31.25
264.992	26.78
265.209	4.09
265.426	-12.83
265.643	-14.78
265.86	-33.29
266.077	-25.94
266.294	8.02
266.51	31.05
266.727	25.37
266.944	31.68
267.161	25.96
267.378	23.14
267.595	2.61
267.812	-1.15
268.028	-7.41
268.245	4.69
268.462	-3.06
268.679	8.99
268.896	5.54
269.112	12.83
269.329	-10.04
269.546	6.48
269.763	13.01
269.979	20.17
270.196	16.76
270.413	18.91
270.629	-0.42
270.846	-8.44
271.063	2.5
271.279	-6.82
271.496	-0.12
271.712	2.83
271.929	8.54
272.146	-9.26
272.362	-4.23
272.579	-8.67
272.795	-5.91
273.012	-1.89
273.228	5.76
273.445	-0.64
273.661	-11.51
273.878	-19.47
274.094	-30.99
274.311	-43.81
274.527	-53.25
274.744	-20.18
274.96	-5.25
275.177	6.56
275.393	25.44
275.609	35.46
275.826	35.11
276.042	18.49
276.259	12.86
276.475	11.61
276.691	-6.09
276.908	-9.59
277.124	8.02
277.34	15
277.557	3.13
277.773	7.7
277.989	-1.89
278.205	-3.71
278.422	1.07
278.638	17.43
278.854	14.15
279.07	27.8
279.286	32.66
279.503	28.57
279.719	20.83
279.935	21.01
280.151	20.32
280.367	16.18
280.583	10.05
280.799	8.7
281.016	-22.8
281.232	-23.07
281.448	-26.9
281.664	-14.85
281.88	-18.52
282.096	5.21
282.312	-0.82
282.528	7.99
282.744	7.31
282.96	5.48
283.176	-5.03
283.392	-38.75
283.608	-32.16
283.824	-44.63
284.04	-76.53
284.256	-27.51
284.471	-0.1
284.687	-3.99
284.903	-13.22
285.119	18.18
285.335	22.98
285.551	17.84
285.767	10.69
285.982	32.03
286.198	-12.84
286.414	-10.68
286.63	-22.01
286.846	-5.62
287.061	-1.61
287.277	26.48
287.493	19.36
287.709	34.77
287.924	40.74
288.14	26.92
288.356	26.49
288.571	31.79
288.787	26.84
289.003	28.39
289.218	19.35
289.434	-0.11
289.65	0.71
289.865	2.53
290.081	-15.03
290.296	8.01
290.512	17.66
290.727	12.82
290.943	14.18
291.159	19.07
291.374	-4.73
291.59	-7.14
291.805	-24.6
292.021	-17.94
292.236	-12.51
292.451	7.22
292.667	13.45
292.882	34.86
293.098	44.98
293.313	31.65
293.529	32.15
293.744	22.82
293.959	17.5
294.175	7.32
294.39	9.54
294.605	19.66
294.821	13.24
295.036	22.68
295.251	32.76
295.467	26.84
295.682	12.33
295.897	6.07
296.112	-0.26
296.328	4.27
296.543	-3.21
296.758	9.1
296.973	20.83
297.188	4.91
297.404	-48.3
297.619	-46.16
297.834	-67.17
298.049	-66.94
298.264	-56.76
298.479	-40.52
298.694	4.25
298.909	14.82
299.125	7.67
299.34	17.4
299.555	20.37
299.77	19.13
299.985	13.94
300.2	16.75
300.415	3.22
300.63	7.47
300.845	0.66
301.06	4.16
301.275	6.07
301.49	32.28
301.704	24.47
301.919	12.27
302.134	5.35
302.349	-2.09
302.564	-32.24
302.779	-48.66
302.994	-30.52
303.209	-36.01
303.423	-19.79
303.638	3.51
303.853	-2.76
304.068	-8.77
304.283	-0.74
304.497	-11.12
304.712	-9.92
304.927	2.84
305.142	3.66
305.356	-1.19
305.571	0.49
305.786	2.03
306	-2.46
306.215	-5.97
306.43	-8.48
306.644	-17.97
306.859	-30.68
307.074	-3.93
307.288	7.6
307.503	20.53
307.717	21.55
307.932	18.69
308.147	9.6
308.361	8.33
308.576	-9.34
308.79	-10.79
309.005	-8.95
309.219	-14.49
309.434	-10.95
309.648	-3.78
309.863	19.04
310.077	32.55
310.292	53.37
310.506	48.38
310.72	50.57
310.935	46.68
311.149	30.94
311.364	14.12
311.578	29.3
311.792	34.45
312.007	14.11
312.221	-0.92
312.435	29.17
312.649	25.37
312.864	13.75
313.078	13.73
313.292	22.96
313.507	5.46
313.721	-0.67
313.935	22.34
314.149	29.13
314.363	45.75
314.578	42.75
314.792	16.6
315.006	-3.68
315.22	-8.27
315.434	-16.5
315.648	-21.86
315.862	-9.93
316.077	-11.42
316.291	-13.13
316.505	-47.82
316.719	-20.58
316.933	-12.96
317.147	-18.37
317.361	-7.97
317.575	1.18
317.789	-4.22
318.003	4.9
318.217	8.85
318.431	-15.76
318.645	-10.64
318.859	2.47
319.073	12.27
319.287	8.98
319.5	21.46
319.714	16.3
319.928	1.76
320.142	-10.94
320.356	-5.31
320.57	-35.05
320.784	-20.93
320.997	-25.65
321.211	-4.29
321.425	-13.1
321.639	17.22
321.853	5.02
322.066	4.62
322.28	-8.24
322.494	-0.59
322.707	7.4
322.921	10.85
323.135	3.81
323.349	10.43
323.562	7.58
323.776	-3.56
323.989	9.85
324.203	13.83
324.417	9.5
324.63	12.48
324.844	-15.59
325.057	-40.4
325.271	-34.78
325.485	-41.91
325.698	-30.25
325.912	-1.97
326.125	5.83
326.339	10.33
326.552	16.46
326.766	10.42
326.979	21.62
327.193	25.39
327.406	5.75
327.619	-2.4
327.833	-6.71
328.046	-5.32
328.26	-14.57
328.473	-1.17
328.686	4.37
328.9	13.72
329.113	7.3
329.326	5.22
329.54	5.67
329.753	15.16
329.966	13.2
330.179	16.78
330.393	19.65
330.606	14.39
330.819	5.58
331.032	2.82
331.246	12.5
331.459	15.01
331.672	9.66
331.885	2.65
332.098	14.84
332.311	0.24
332.525	15.75
332.738	25.31
332.951	33.65
333.164	29.92
333.377	28.04
333.59	12.37
333.803	7.87
334.016	-2.11
334.229	3.18
334.442	0.72
334.655	1.27
334.868	1.95
335.081	11.6
335.294	-2.44
335.507	13.82
335.72	34.05
335.933	37.16
336.146	47.66
336.359	42.87
336.572	37.43
336.785	32.24
336.997	31.49
337.21	16.9
337.423	3.22
337.636	0.09
337.849	-10.84
338.062	-2.77
338.274	7.09
338.487	0.37
338.7	-7.71
338.913	5.55
339.125	-5.85
339.338	-25.33
339.551	-16.81
339.763	-14.44
339.976	-21.38
340.189	-21.25
340.402	-2.79
340.614	5.49
340.827	11.76
341.039	-1.55
341.252	-1.54
341.465	-3.49
341.677	-0.59
341.89	-11.26
342.102	13.19
342.315	19.36
342.527	7.5
342.74	-0.1
342.952	15.19
343.165	0.81
343.377	3.12
343.59	15.98
343.802	21.37
344.015	24.22
344.227	28.04
344.44	25.55
344.652	8.77
344.864	20.88
345.077	20.95
345.289	28.24
345.502	40.78
345.714	60.51
345.926	49.8
346.139	28.46
346.351	17.4
346.563	13.88
346.775	13.17
346.988	14.39
347.2	25.03
347.412	31.15
347.624	30.96
347.837	27.57
348.049	29.56
348.261	24.51
348.473	19.4
348.685	9.9
348.897	0.62
349.11	0.54
349.322	9.49
349.534	9.47
349.746	4.41
349.958	-8.96
350.17	-15.01
350.382	-27.57
350.594	-19.96
350.806	14.17
351.018	30.08
351.23	33.14
351.442	41.04
351.654	38.24
351.866	7.42
352.078	8.94
352.29	4.34
352.502	-18.28
352.714	-27.62
352.926	-3.19
353.138	-0.54
353.35	-17.79
353.561	-3.82
353.773	-9
353.985	-0.31
354.197	-9.85
354.409	1.57
354.621	-16.44
354.832	-23.3
355.044	-41.92
355.256	-34.41
355.468	-52.99
355.679	-4.95
355.891	12.43
356.103	15.33
356.314	10.72
356.526	9.1
356.738	-17.23
356.949	-28.32
357.161	5.29
357.373	2.45
357.584	15.56
357.796	31.3
358.008	33.94
358.219	10.8
358.431	9.12
358.642	0.06
358.854	-10.33
359.065	-17.29
359.277	-16.88
359.488	-14.63
359.7	-8.66
359.911	-22.64
360.123	1.97
360.334	-1.12
360.546	-10.91
360.757	-2.23
360.969	10.79
361.18	-8.95
361.391	0.65
361.603	7.23
361.814	7.89
362.025	16.9
362.237	26.54
362.448	35.2
362.659	33.76
362.871	22.12
363.082	21.29
363.293	2.6
363.504	-26.51
363.716	-17.27
363.927	7.33
364.138	-19.24
364.349	-10.67
364.56	-15.42
364.772	-5.81
364.983	-5.63
365.194	5.46
365.405	-4.36
365.616	19
365.827	8.1
366.038	2.09
366.25	17.93
366.461	39.09
366.672	30.58
366.883	26.22
367.094	28.84
367.305	11.57
367.516	-3.57
367.727	-10.73
367.938	-3.33
368.149	-13.51
368.36	-6.75
368.571	-18.07
368.781	-25.29
368.992	-27.79
369.203	-17.26
369.414	-17.96
369.625	-16.88
369.836	8.99
370.047	9.35
370.258	18.67
370.468	11.8
370.679	7.86
370.89	-13.15
371.101	-1.62
371.312	-26
371.522	-24.36
371.733	-25.98
371.944	-35.39
372.155	-45.5
372.365	-24.22
372.576	-25.05
372.787	-5.78
372.997	9.35
373.208	20.97
373.419	14.82
373.629	4.73
373.84	-0.09
374.05	-6.73
374.261	-13.96
374.472	-10.13
374.682	1.58
374.893	-3.4
375.103	7.35
375.314	1.26
375.524	-0.34
375.735	9.49
375.945	11.94
376.156	2.35
376.366	6.38
376.577	11.33
376.787	7.37
376.997	11.5
377.208	21.01
377.418	16.97
377.629	19.27
377.839	20.84
378.049	23.22
378.26	8.11
378.47	-2.17
378.68	-12.19
378.89	-16.97
379.101	-15.35
379.311	-6.14
379.521	-3.79
379.732	4.95
379.942	7.67
380.152	-7.16
380.362	-5.18
380.572	13.47
380.783	10.74
380.993	10.04
381.203	10.61
381.413	11.27
381.623	7.27
381.833	2.84
382.043	-5.79
382.253	5.01
382.463	18.26
382.674	16.96
382.884	24.39
383.094	30.9
383.304	30.37
383.514	16.46
383.724	12.11
383.934	0.45
384.144	0.25
384.353	-2.55
384.563	0.89
384.773	1.59
384.983	-1.74
385.193	-6.5
385.403	-8.74
385.613	-9.4
385.823	-5.43
386.033	2.87
386.242	3.37
386.452	0.46
386.662	0.24
386.872	0.3
387.082	-6.06
387.291	-7.94
387.501	-1.65
387.711	2.24
387.921	-2.96
388.13	3.59
388.34	8.11
388.55	3.23
388.759	-6.01
388.969	-4.67
389.179	-5.53
389.388	-6.21
389.598	-5.25
389.807	-4.47
390.017	-3.01
390.227	-5.76
390.436	-4.76
390.646	-5.64
390.855	-3.37
391.065	-3.19
391.274	-1.62
391.484	-3.14
391.693	-3.21
391.903	-4.45
392.112	-2.92
392.322	-2.56
392.531	-3.11
392.74	-1.54
392.95	1.5
393.159	0.37
393.369	0.81
393.578	2.19
393.787	1.97
393.997	0.96
394.206	0.76
394.415	1.66
394.625	0.21
394.834	0.22
395.043	0.06
395.252	1.42
395.462	1.17
395.671	1.8
395.88	3.5
396.089	3.09
396.298	2.2
396.508	2.03
396.717	1.67
396.926	0.42
397.135	1.02
397.344	0.85
397.553	0.36
397.762	1.53
397.971	1.21
398.181	1.76
398.39	1.62
398.599	1.81
398.808	1.54
399.017	2.58
399.226	2.33
399.435	2.58
399.644	3.16
399.853	3.44
400.062	2.86
400.27	2.32
400.479	2.26
400.688	1.62
400.897	1.01
401.106	1.17
401.315	1.24
401.524	1.39
401.733	1.41
401.941	1.54
402.15	1.3
402.359	1.5
402.568	1.5
402.777	1.69
402.985	1.63
403.194	1.7
403.403	1.69
403.612	1.3
403.82	0.92
404.029	0.94
404.238	0.79
404.446	0.93
404.655	1.16
404.864	1.45
405.072	1.41
405.281	1.5
405.489	1.22
405.698	1.37
405.906	1.2
406.115	1.35
406.324	1.45
406.532	1.61
406.741	1.57
406.949	1.66
407.158	1.63
407.366	1.54
407.574	1.44
407.783	1.26
407.991	1.24
408.2	1.31
408.408	1.27
408.617	1.27
408.825	1.32
409.033	1.34
409.242	1.34
409.45	1.33
409.658	1.39
409.867	1.48
410.075	1.59
410.283	1.45
410.491	1.38
410.7	1.27
410.908	1.21
411.116	1.29
411.324	1.3
411.533	1.36
411.741	1.35
411.949	1.45
412.157	1.32
412.365	1.49
412.573	1.48
412.781	1.53
412.99	1.42
413.198	1.5
413.406	1.49
413.614	1.5
413.822	1.64
414.03	1.66
414.238	1.61
414.446	1.55
414.654	1.57
414.862	1.51
415.07	1.47
415.278	1.59
415.486	1.52
415.694	1.59
415.902	1.55
416.109	1.39
416.317	1.42
416.525	1.42
416.733	1.35
416.941	1.4
417.149	1.55
417.357	1.35
417.564	1.13
417.772	1.25
417.98	1.28
418.188	1.21
418.395	1.04
418.603	1.19
418.811	0.89
419.019	0.68
419.226	0.84
419.434	0.96
419.642	0.86
419.849	0.97
420.057	1.01
420.265	0.9
420.472	0.87
420.68	1.02
420.887	1.04
421.095	1.1
421.302	1.16
421.51	1.19
421.717	1.15
421.925	1.17
422.132	1.16
422.34	0.91
422.547	0.83
422.755	0.84
422.962	0.94
423.17	0.85
423.377	1.05
423.585	1.25
423.792	1.19
423.999	1.08
424.207	1.1
424.414	1.05
424.621	1.02
424.829	1.18
425.036	1.15
425.243	1.3
425.451	1.28
425.658	1.14
425.865	1.03
426.072	1.25
426.28	1.14
426.487	1.26
426.694	1.08
426.901	1.11
427.108	0.92
427.315	0.99
427.523	0.83
427.73	1.05
427.937	0.92
428.144	0.91
428.351	0.91
428.558	1.24
428.765	1.29
428.972	1.43
429.179	1.34
429.386	1.25
429.593	0.89
429.8	0.82
430.007	0.76
430.214	0.84
430.421	0.94
430.628	1.03
430.835	1.02
431.042	0.93
431.249	1.03
431.456	0.9
431.662	0.97
431.869	1.05
432.076	1.14
432.283	1.12
432.49	1.17
432.697	1.13
432.903	1.12
433.11	1.25
433.317	1.29
433.524	1.34
433.73	1.29
433.937	1.34
434.144	1.15
434.35	1.04
434.557	1.05
434.764	1.12
434.97	1.01
435.177	1.16
435.384	1.3
435.59	1.26
435.797	1.31
436.003	1.36
436.21	1.3
436.416	1.31
436.623	1.35
436.829	1.19
437.036	1.19
437.242	1.26
437.449	1.22
437.655	1.33
437.862	1.5
438.068	1.45
438.275	1.46
438.481	1.47
438.687	1.41
438.894	1.51
439.1	1.55
439.307	1.57
439.513	1.65
439.719	1.67
439.926	1.54
440.132	1.54
440.338	1.57
440.544	1.45
440.751	1.35
440.957	1.33
441.163	1.26
441.369	1.21
441.575	1.26
441.782	1.39
441.988	1.43
442.194	1.44
442.4	1.42
442.606	1.56
442.812	1.51
443.018	1.44
443.224	1.55
443.431	1.63
443.637	1.48
443.843	1.47
444.049	1.61
444.255	1.73
444.461	1.64
444.667	1.64
444.873	1.63
445.079	1.5
445.284	1.44
445.49	1.46
445.696	1.39
445.902	1.43
446.108	1.6
446.314	1.56
446.52	1.72
446.726	1.81
446.931	1.74
447.137	1.67
447.343	1.71
447.549	1.6
447.755	1.62
447.96	1.66
448.166	1.64
448.372	1.61
448.578	1.49
448.783	1.43
448.989	1.53
449.195	1.52
449.4	1.56
449.606	1.63
449.812	1.65
450.017	1.64
450.223	1.61
450.428	1.61
450.634	1.6
450.84	1.68
451.045	1.64
451.251	1.67
451.456	1.66
451.662	1.75
451.867	1.74
452.073	1.79
452.278	1.81
452.483	1.77
452.689	1.76
452.894	1.83
453.1	1.74
453.305	1.75
453.51	1.78
453.716	1.77
453.921	1.73
454.127	1.73
454.332	1.67
454.537	1.69
454.742	1.74
454.948	1.68
455.153	1.72
455.358	1.8
455.563	1.87
455.769	1.87
455.974	1.85
456.179	1.77
456.384	1.74
456.589	1.59
456.795	1.52
457	1.57
457.205	1.58
457.41	1.54
457.615	1.59
457.82	1.68
458.025	1.64
458.23	1.66
458.435	1.7
458.64	1.76
458.845	1.83
459.05	1.87
459.255	1.88
459.46	1.88
459.665	1.83
459.87	1.69
460.075	1.73
460.28	1.86
460.485	1.93
460.69	1.95
460.895	2.11
461.099	1.92
461.304	1.79
461.509	1.78
461.714	1.78
461.919	1.68
462.123	1.8
462.328	1.71
462.533	1.59
462.738	1.56
462.942	1.49
463.147	1.45
463.352	1.61
463.556	1.66
463.761	1.68
463.966	1.67
464.17	1.83
464.375	1.84
464.58	1.76
464.784	1.76
464.989	1.86
465.193	1.75
465.398	1.76
465.602	2.02
465.807	2.06
466.011	2.03
466.216	1.93
466.42	2.01
466.625	1.97
466.829	1.93
467.034	1.99
467.238	2.15
467.443	2.11
467.647	1.96
467.851	1.97
468.056	2.03
468.26	2.03
468.464	2.02
468.669	2.2
468.873	2.2
469.077	2.1
469.282	2.06
469.486	2.04
469.69	1.96
469.894	2.08
470.099	2.11
470.303	2.11
470.507	2.15
470.711	2.09
470.915	2.03
471.119	2.06
471.324	2.11
471.528	2.13
471.732	2.24
471.936	2.3
472.14	2.3
472.344	2.4
472.548	2.46
472.752	2.38
472.956	2.32
473.16	2.35
473.364	2.35
473.568	2.28
473.772	2.33
473.976	2.4
474.18	2.31
474.384	2.2
474.588	2.24
474.792	2.22
474.995	2.29
475.199	2.39
475.403	2.45
475.607	2.42
475.811	2.43
476.015	2.3
476.218	2.27
476.422	2.27
476.626	2.26
476.83	2.36
477.033	2.48
477.237	2.52
477.441	2.55
477.644	2.53
477.848	2.51
478.052	2.44
478.255	2.51
478.459	2.46
478.663	2.6
478.866	2.58
479.07	2.54
479.273	2.51
479.477	2.56
479.681	2.56
479.884	2.58
480.088	2.69
480.291	2.67
480.495	2.68
480.698	2.7
480.901	2.72
481.105	2.68
481.308	2.72
481.512	2.74
481.715	2.74
481.919	2.81
482.122	2.87
482.325	2.94
482.529	2.95
482.732	2.91
482.935	2.85
483.138	2.79
483.342	2.77
483.545	2.83
483.748	2.87
483.952	2.9
484.155	2.97
484.358	2.91
484.561	2.86
484.764	2.81
484.967	2.77
485.171	2.78
485.374	2.79
485.577	2.79
485.78	2.83
485.983	2.77
486.186	2.71
486.389	2.72
486.592	2.72
486.795	2.73
486.998	2.76
487.201	2.78
487.404	2.88
487.607	2.84
487.81	2.85
488.013	2.88
488.216	2.89
488.419	2.83
488.622	2.83
488.825	2.81
489.028	2.83
489.231	2.8
489.433	2.78
489.636	2.81
489.839	2.82
490.042	2.86
490.245	2.89
490.447	2.88
490.65	2.89
490.853	2.89
491.056	2.87
491.258	2.87
491.461	2.88
491.664	2.89
491.866	2.84
492.069	2.91
492.272	2.89
492.474	2.93
492.677	2.96
492.879	2.99
493.082	2.94
493.285	2.97
493.487	2.93
493.69	2.9
493.892	2.9
494.095	2.85
494.297	2.89
494.5	2.88
494.702	2.95
494.905	2.99
495.107	3.03
495.309	3.05
495.512	3.02
495.714	2.98
495.917	3.01
496.119	3.07
496.321	3.07
496.524	3.09
496.726	3.06
496.928	2.99
497.13	2.92
497.333	2.86
497.535	2.88
497.737	2.92
497.939	2.96
498.142	2.94
498.344	2.98
498.546	3.02
498.748	3.1
498.95	3.17
499.152	3.2
499.355	3.23
499.557	3.23
499.759	3.2
499.961	3.16
500.163	3.18
500.365	3.21
500.567	3.2
500.769	3.25
500.971	3.27
501.173	3.29
501.375	3.27
501.577	3.31
501.779	3.26
501.981	3.23
502.183	3.26
502.385	3.26
502.587	3.27
502.788	3.31
502.99	3.39
503.192	3.42
503.394	3.5
503.596	3.48
503.798	3.47
503.999	3.45
504.201	3.43
504.403	3.45
504.605	3.5
504.806	3.54
505.008	3.57
505.21	3.53
505.411	3.49
505.613	3.53
505.815	3.52
506.016	3.53
506.218	3.67
506.42	3.66
506.621	3.66
506.823	3.64
507.024	3.65
507.226	3.7
507.427	3.79
507.629	3.79
507.83	3.86
508.032	3.88
508.233	3.89
508.435	3.89
508.636	3.99
508.838	4.01
509.039	4.01
509.24	3.95
509.442	3.96
509.643	3.9
509.845	3.91
510.046	3.96
510.247	4
510.448	4
510.65	4.01
510.851	4.04
511.052	4.03
511.254	4.07
511.455	4.05
511.656	4.01
511.857	4.03
512.058	4.05
512.26	4.03
512.461	4.11
512.662	4.16
512.863	4.09
513.064	4.05
513.265	4.04
513.466	4.07
513.667	4.13
513.868	4.17
514.069	4.19
514.27	4.25
514.471	4.17
514.672	4.2
514.873	4.25
515.074	4.33
515.275	4.26
515.476	4.35
515.677	4.35
515.878	4.37
516.079	4.33
516.28	4.44
516.481	4.44
516.682	4.39
516.882	4.34
517.083	4.34
517.284	4.32
517.485	4.29
517.686	4.33
517.886	4.34
518.087	4.31
518.288	4.3
518.488	4.27
518.689	4.25
518.89	4.27
519.091	4.36
519.291	4.31
519.492	4.41
519.692	4.45
519.893	4.51
520.094	4.5
520.294	4.6
520.495	4.61
520.695	4.62
520.896	4.62
521.096	4.67
521.297	4.66
521.497	4.64
521.698	4.63
521.898	4.65
522.099	4.61
522.299	4.65
522.499	4.63
522.7	4.65
522.9	4.64
523.101	4.63
523.301	4.65
523.501	4.68
523.702	4.71
523.902	4.73
524.102	4.87
524.302	4.91
524.503	4.92
524.703	4.89
524.903	4.88
525.103	4.8
525.304	4.76
525.504	4.83
525.704	4.9
525.904	4.85
526.104	4.83
526.304	4.85
526.504	4.85
526.705	4.8
526.905	4.86
527.105	4.9
527.305	4.86
527.505	4.78
527.705	4.8
527.905	4.88
528.105	4.89
528.305	4.96
528.505	5.03
528.705	5.09
528.905	5.07
529.105	5.1
529.304	5.09
529.504	5.17
529.704	5.17
529.904	5.21
530.104	5.25
530.304	5.27
530.503	5.24
530.703	5.21
530.903	5.21
531.103	5.22
531.303	5.24
531.502	5.29
531.702	5.37
531.902	5.43
532.101	5.4
532.301	5.41
532.501	5.5
532.7	5.49
532.9	5.49
533.1	5.56
533.299	5.57
533.499	5.45
533.698	5.44
533.898	5.43
534.097	5.41
534.297	5.44
534.496	5.5
534.696	5.58
534.895	5.61
535.095	5.68
535.294	5.71
535.494	5.71
535.693	5.72
535.892	5.68
536.092	5.67
536.291	5.69
536.491	5.72
536.69	5.72
536.889	5.74
537.088	5.72
537.288	5.72
537.487	5.74
537.686	5.73
537.886	5.84
538.085	5.87
538.284	5.91
538.483	5.9
538.682	5.93
538.882	5.91
539.081	5.97
539.28	5.96
539.479	6.02
539.678	6.07
539.877	6.14
540.076	6.18
540.275	6.26
540.474	6.25
540.673	6.33
540.872	6.32
541.071	6.32
541.27	6.34
541.469	6.39
541.668	6.39
541.867	6.41
542.066	6.4
542.265	6.45
542.464	6.47
542.663	6.55
542.862	6.67
543.06	6.76
543.259	6.85
543.458	6.88
543.657	6.87
543.856	6.88
544.054	6.91
544.253	6.92
544.452	7.02
544.651	7.07
544.849	7.08
545.048	7.14
545.247	7.19
545.445	7.2
545.644	7.25
545.843	7.32
546.041	7.35
546.24	7.38
546.438	7.43
546.637	7.51
546.836	7.56
547.034	7.59
547.233	7.64
547.431	7.7
547.63	7.66
547.828	7.68
548.027	7.71
548.225	7.78
548.423	7.78
548.622	7.85
548.82	7.94
549.019	8.04
549.217	8.11
549.415	8.17
549.614	8.35
549.812	8.35
550.01	8.34
550.209	8.43
550.407	8.51
550.605	8.44
550.803	8.48
551.002	8.6
551.2	8.63
551.398	8.74
551.596	8.86
551.794	8.95
551.993	9
552.191	9.08
552.389	9.12
552.587	9.19
552.785	9.24
552.983	9.37
553.181	9.37
553.379	9.38
553.577	9.45
553.775	9.62
553.973	9.67
554.171	9.81
554.369	9.9
554.567	10.08
554.765	10.06
554.963	10.13
555.161	10.14
555.359	10.27
555.557	10.3
555.755	10.46
555.952	10.55
556.15	10.73
556.348	10.79
556.546	10.94
556.744	10.97
556.941	11.01
557.139	11.09
557.337	11.25
557.535	11.23
557.732	11.31
557.93	11.58
558.128	11.65
558.325	11.69
558.523	11.92
558.721	12.12
558.918	12.14
559.116	12.29
559.313	12.43
559.511	12.52
559.708	12.56
559.906	12.67
560.104	12.68
560.301	12.81
560.498	12.86
560.696	13
560.893	13.11
561.091	13.23
561.288	13.31
561.486	13.38
561.683	13.5
561.88	13.66
562.078	13.82
562.275	13.93
562.473	14.08
562.67	14.12
562.867	14.18
563.064	14.34
563.262	14.4
563.459	14.58
563.656	14.7
563.853	14.73
564.051	14.86
564.248	14.98
564.445	15.04
564.642	15.19
564.839	15.35
565.036	15.48
565.234	15.65
565.431	15.73
565.628	15.84
565.825	15.89
566.022	15.96
566.219	16.06
566.416	16.16
566.613	16.29
566.81	16.49
567.007	16.45
567.204	16.49
567.401	16.54
567.598	16.61
567.795	16.6
567.991	16.7
568.188	16.78
568.385	16.92
568.582	16.94
568.779	17.12
568.976	17.29
569.172	17.39
569.369	17.48
569.566	17.61
569.763	17.61
569.96	17.64
570.156	17.69
570.353	17.73
570.55	17.74
570.746	17.87
570.943	17.91
571.14	17.99
571.336	18.05
571.533	18.11
571.729	18.12
571.926	18.28
572.123	18.36
572.319	18.4
572.516	18.51
572.712	18.55
572.909	18.52
573.105	18.55
573.302	18.59
573.498	18.53
573.695	18.58
573.891	18.6
574.087	18.53
574.284	18.6
574.48	18.7
574.677	18.72
574.873	18.82
575.069	18.97
575.266	18.97
575.462	19
575.658	19.07
575.854	19.05
576.051	19.12
576.247	19.15
576.443	19.19
576.639	19.22
576.835	19.23
577.032	19.1
577.228	19.13
577.424	19.08
577.62	19.04
577.816	19.02
578.012	19.13
578.208	19.13
578.404	19.18
578.6	19.22
578.796	19.35
578.993	19.36
579.189	19.4
579.384	19.42
579.58	19.37
579.776	19.26
579.972	19.3
580.168	19.25
580.364	19.3
580.56	19.3
580.756	19.35
580.952	19.31
581.148	19.28
581.343	19.23
581.539	19.25
581.735	19.29
581.931	19.2
582.127	19.27
582.322	19.24
582.518	19.22
582.714	19.11
582.909	19.15
583.105	19.12
583.301	19.12
583.496	19.14
583.692	19.12
583.888	19.18
584.083	19.2
584.279	19.18
584.474	19.08
584.67	19.11
584.866	19.05
585.061	19
585.257	19.05
585.452	19.09
585.648	19.1
585.843	19.11
586.039	19.1
586.234	19.11
586.429	19.09
586.625	19.14
586.82	19.16
587.015	19.17
587.211	19.01
587.406	19.1
587.601	19.12
587.797	19.2
587.992	19.19
588.187	19.28
588.383	19.32
588.578	19.35
588.773	19.29
588.968	19.39
589.163	19.45
589.359	19.36
589.554	19.34
589.749	19.35
589.944	19.4
590.139	19.44
590.334	19.53
590.529	19.54
590.724	19.65
590.919	19.64
591.114	19.71
591.309	19.7
591.504	19.75
591.699	19.77
591.894	19.75
592.089	19.76
592.284	19.81
592.479	19.89
592.674	19.89
592.869	19.98
593.064	19.94
593.259	20.11
593.454	20.15
593.648	20.25
593.843	20.36
594.038	20.64
594.233	20.6
594.428	20.68
594.622	20.64
594.817	20.8
595.012	20.8
595.206	20.87
595.401	20.96
595.596	21.16
595.79	21.13
595.985	21.16
596.18	21.31
596.374	21.48
596.569	21.5
596.763	21.6
596.958	21.71
597.153	21.71
597.347	21.67
597.542	21.81
597.736	21.87
597.931	22
598.125	22.22
598.319	22.28
598.514	22.31
598.708	22.41
598.903	22.53
599.097	22.63
599.291	22.7
599.486	22.84
599.68	22.86
599.874	22.85
600.069	22.97
600.263	23.09
600.457	23.1
600.651	23.17
600.846	23.24
601.04	23.11
601.234	23.14
601.428	23.17
601.622	23.27
601.817	23.29
602.011	23.41
602.205	23.54
602.399	23.6
602.593	23.67
602.787	23.67
602.981	23.7
603.175	23.68
603.369	23.59
603.563	23.56
603.757	23.54
603.951	23.49
604.145	23.47
604.339	23.59
604.533	23.53
604.727	23.59
604.921	23.58
605.115	23.58
605.309	23.44
605.502	23.52
605.696	23.42
605.89	23.47
606.084	23.37
606.278	23.47
606.471	23.33
606.665	23.35
606.859	23.27
607.053	23.19
607.246	23.05
607.44	22.97
607.634	22.84
607.827	22.84
608.021	22.7
608.214	22.68
608.408	22.7
608.602	22.59
608.795	22.5
608.989	22.56
609.182	22.47
609.376	22.42
609.569	22.49
609.763	22.46
609.956	22.45
610.15	22.39
610.343	22.28
610.537	22.11
610.73	21.88
610.923	21.7
611.117	21.63
611.31	21.47
611.504	21.43
611.697	21.51
611.89	21.44
612.083	21.3
612.277	21.27
612.47	21.14
612.663	21.02
612.856	20.99
613.05	20.96
613.243	20.87
613.436	20.8
613.629	20.65
613.822	20.62
614.015	20.51
614.209	20.43
614.402	20.37
614.595	20.38
614.788	20.28
614.981	20.24
615.174	20.15
615.367	20.11
615.56	19.9
615.753	19.79
615.946	19.7
616.139	19.65
616.332	19.6
616.525	19.57
616.718	19.52
616.911	19.55
617.103	19.55
617.296	19.47
617.489	19.42
617.682	19.42
617.875	19.33
618.067	19.27
618.26	19.21
618.453	19.21
618.646	19.13
618.838	19.04
619.031	19.05
619.224	19
619.417	18.98
619.609	18.95
619.802	18.89
619.994	18.91
620.187	18.8
620.38	18.74
620.572	18.67
620.765	18.66
620.957	18.45
621.15	18.49
621.342	18.44
621.535	18.38
621.727	18.33
621.92	18.37
622.112	18.35
622.305	18.38
622.497	18.36
622.69	18.37
622.882	18.4
623.074	18.4
623.267	18.33
623.459	18.28
623.651	18.22
623.844	18.19
624.036	18.18
624.228	18.18
624.42	18.19
624.613	18.15
624.805	18.06
624.997	18.03
625.189	18.05
625.381	18.03
625.574	18.02
625.766	17.96
625.958	17.9
626.15	17.78
626.342	17.66
626.534	17.71
626.726	17.64
626.918	17.58
627.11	17.54
627.302	17.6
627.494	17.45
627.686	17.42
627.878	17.36
628.07	17.43
628.262	17.42
628.454	17.46
628.646	17.52
628.838	17.66
629.029	17.51
629.221	17.5
629.413	17.41
629.605	17.33
629.797	17.13
629.989	17.16
630.18	17.1
630.372	17.14
630.564	17.16
630.755	17.14
630.947	17.09
631.139	17.01
631.33	16.92
631.522	16.95
631.714	16.96
631.905	16.94
632.097	16.88
632.289	16.84
632.48	16.7
632.672	16.64
632.863	16.53
633.055	16.55
633.246	16.61
633.438	16.59
633.629	16.61
633.821	16.68
634.012	16.68
634.203	16.61
634.395	16.58
634.586	16.65
634.777	16.64
634.969	16.61
635.16	16.55
635.351	16.5
635.543	16.37
635.734	16.34
635.925	16.36
636.117	16.42
636.308	16.49
636.499	16.5
636.69	16.6
636.881	16.51
637.073	16.54
637.264	16.43
637.455	16.41
637.646	16.25
637.837	16.31
638.028	16.28
638.219	16.37
638.41	16.39
638.601	16.44
638.792	16.43
638.983	16.37
639.174	16.22
639.365	16.17
639.556	16.05
639.747	16
639.938	16.03
640.129	16.21
640.32	16.24
640.511	16.34
640.701	16.43
640.892	16.41
641.083	16.21
641.274	16.16
641.465	16.07
641.655	15.96
641.846	15.96
642.037	16.01
642.228	15.91
642.418	15.87
642.609	15.87
642.8	15.81
642.99	15.75
643.181	15.84
643.372	15.86
643.562	15.87
643.753	15.86
643.943	15.77
644.134	15.62
644.324	15.65
644.515	15.58
644.705	15.45
644.896	15.52
645.086	15.61
645.277	15.52
645.467	15.5
645.658	15.46
645.848	15.45
646.038	15.41
646.229	15.41
646.419	15.37
646.61	15.43
646.8	15.43
646.99	15.35
647.18	15.33
647.371	15.25
647.561	15.18
647.751	15.14
647.941	15.1
648.132	15.07
648.322	15.09
648.512	15.13
648.702	15.18
648.892	15.21
649.082	15.15
649.272	15.09
649.462	15.05
649.653	14.9
649.843	14.74
650.033	14.8
650.223	14.78
650.413	14.78
650.603	14.78
650.793	14.86
650.983	14.76
651.172	14.73
651.362	14.59
651.552	14.53
651.742	14.46
651.932	14.44
652.122	14.36
652.312	14.3
652.502	14.19
652.691	14.11
652.881	14.01
653.071	13.94
653.261	13.89
653.45	13.86
653.64	13.72
653.83	13.62
654.019	13.54
654.209	13.5
654.399	13.36
654.588	13.28
654.778	13.16
654.968	13.04
655.157	12.87
655.347	12.71
655.536	12.66
655.726	12.44
655.915	12.3
656.105	12.11
656.294	12.01
656.484	11.79
656.673	11.69
656.863	11.61
657.052	11.51
657.241	11.38
657.431	11.27
657.62	11.16
657.809	10.86
657.999	10.72
658.188	10.51
658.377	10.34
658.567	10.15
658.756	10.01
658.945	9.85
659.134	9.71
659.324	9.49
659.513	9.34
659.702	9.17
659.891	8.96
660.08	8.86
660.269	8.75
660.458	8.62
660.648	8.51
660.837	8.41
661.026	8.16
661.215	8.08
661.404	7.97
661.593	7.89
661.782	7.74
661.971	7.52
662.16	7.33
662.349	7.13
662.538	7
662.726	6.81
662.915	6.87
663.104	6.77
663.293	6.74
663.482	6.62
663.671	6.59
663.86	6.49
664.048	6.42
664.237	6.36
664.426	6.3
664.615	6.22
664.803	6.09
664.992	5.93
665.181	5.81
665.369	5.73
665.558	5.65
665.747	5.65
665.935	5.72
666.124	5.74
666.312	5.7
666.501	5.67
666.69	5.63
666.878	5.58
667.067	5.4
667.255	5.35
667.444	5.42
667.632	5.45
667.82	5.37
668.009	5.46
668.197	5.48
668.386	5.36
668.574	5.33
668.762	5.34
668.951	5.3
669.139	5.26
669.327	5.27
669.516	5.34
669.704	5.32
669.892	5.33
670.08	5.32
670.269	5.28
670.457	5.22
670.645	5.28
670.833	5.35
671.021	5.42
671.21	5.51
671.398	5.56
671.586	5.54
671.774	5.61
671.962	5.64
672.15	5.69
672.338	5.75
672.526	5.88
672.714	5.89
672.902	5.93
673.09	6.06
673.278	6.12
673.466	6.14
673.654	6.18
673.842	6.38
674.03	6.32
674.218	6.34
674.405	6.43
674.593	6.57
674.781	6.56
674.969	6.74
675.157	6.82
675.344	6.86
675.532	6.82
675.72	6.89
675.908	6.87
676.095	6.93
676.283	7.04
676.471	7.22
676.658	7.41
676.846	7.48
677.033	7.5
677.221	7.53
677.409	7.62
677.596	7.57
677.784	7.67
677.971	7.75
678.159	7.77
678.346	7.72
678.534	7.9
678.721	8.07
678.909	8.25
679.096	8.4
679.283	8.53
679.471	8.57
679.658	8.62
679.846	8.73
680.033	8.92
680.22	9.17
680.408	9.14
680.595	9.21
680.782	9.35
680.969	9.49
681.157	9.63
681.344	9.82
681.531	10.03
681.718	10.18
681.905	10.19
682.093	10.27
682.28	10.45
682.467	10.63
682.654	10.72
682.841	10.97
683.028	10.94
683.215	11.15
683.402	11.23
683.589	11.33
683.776	11.55
683.963	11.93
684.15	12.11
684.337	12.45
684.524	12.75
684.711	13.04
684.898	13.15
685.085	13.49
685.271	13.8
685.458	14.06
685.645	14.32
685.832	14.75
686.019	14.97
686.205	15.21
686.392	15.64
686.579	15.81
686.766	16.15
686.952	16.66
687.139	17.02
687.326	17.29
687.512	17.69
687.699	18.21
687.886	18.4
688.072	18.81
688.259	19.42
688.445	20.27
688.632	20.79
688.818	21.49
689.005	21.96
689.191	22.47
689.378	22.77
689.564	23.34
689.751	24.05
689.937	24.79
690.124	25.3
690.31	25.81
690.496	26.38
690.683	26.93
690.869	27.43
691.055	28.15
691.242	28.97
691.428	29.63
691.614	30.28
691.8	31.09
691.987	31.98
692.173	32.6
692.359	33.4
692.545	34.33
692.731	34.96
692.918	35.52
693.104	36.32
693.29	37.03
693.476	37.53
693.662	38.47
693.848	39.25
694.034	40.04
694.22	40.83
694.406	41.36
694.592	41.96
694.778	42.61
694.964	43.13
695.15	43.75
695.336	44.65
695.522	45.56
695.708	46.45
695.894	47.53
696.08	48.44
696.265	49.12
696.451	49.74
696.637	50.39
696.823	50.98
697.009	51.65
697.194	52.43
697.38	53.2
697.566	53.91
697.751	54.51
697.937	55.11
698.123	55.73
698.308	56.46
698.494	57.23
698.68	57.89
698.865	58.51
699.051	59.3
699.236	59.86
699.422	60.17
699.607	60.91
699.793	61.92
699.978	62.18
700.164	62.6
700.349	63.31
700.535	63.69
700.72	63.68
700.906	64.07
701.091	64.65
701.276	64.86
701.462	65.34
701.647	65.88
701.832	66.88
702.018	67.34
702.203	67.96
702.388	68.41
702.573	69.08
702.759	69.29
702.944	69.47
703.129	69.91
703.314	70.07
703.499	70.25
703.684	70.92
703.87	71.58
704.055	71.84
704.24	72.33
704.425	72.52
704.61	72.61
704.795	73.02
704.98	73.28
705.165	73.75
705.35	73.87
705.535	74.16
705.72	73.74
705.905	74.17
706.09	74.66
706.275	75.59
706.459	75.57
706.644	76.2
706.829	76.48
707.014	76.71
707.199	76.68
707.384	77.04
707.568	77.08
707.753	77.59
707.938	77.48
708.123	77.73
708.307	78.08
708.492	78.95
708.677	78.98
708.861	79.23
709.046	79.1
709.231	79.03
709.415	78.87
709.6	78.95
709.784	79.26
709.969	79.7
710.153	79.98
710.338	80.68
710.522	80.88
710.707	80.95
710.891	80.92
711.076	81.3
711.26	80.93
711.445	81.07
711.629	80.94
711.813	81.21
711.998	81.46
712.182	81.3
712.366	81.85
712.551	82.49
712.735	82.72
712.919	83.29
713.103	83.72
713.288	83.55
713.472	83.53
713.656	83.47
713.84	83.1
714.024	83.18
714.208	83.34
714.393	83.31
714.577	83.86
714.761	83.85
714.945	83.99
715.129	84.18
715.313	84.41
715.497	84.07
715.681	84.1
715.865	83.72
716.049	83.66
716.233	83.74
716.417	83.65
716.601	83.93
716.785	84.39
716.968	84.34
717.152	84.41
717.336	84.65
717.52	85.13
717.704	85.43
717.888	85.8
718.071	85.86
718.255	86.28
718.439	85.68
718.622	85.64
718.806	85.69
718.99	85.55
719.174	85.71
719.357	86.08
719.541	86.32
719.724	86.2
719.908	86.38
720.092	86.04
720.275	85.8
720.459	85.74
720.642	85.89
720.826	85.7
721.009	85.9
721.193	86.02
721.376	86.19
721.559	86.29
721.743	86.79
721.926	87.11
722.11	87.7
722.293	87.79
722.476	87.71
722.66	88.43
722.843	88.3
723.026	87.83
723.21	87.52
723.393	88.05
723.576	87.17
723.759	87.35
723.942	87.75
724.126	88.3
724.309	87.98
724.492	88.64
724.675	88.66
724.858	88.93
725.041	88.75
725.224	89
725.407	88.05
725.59	88.54
725.774	88.14
725.957	88.65
726.14	88.7
726.322	90.05
726.505	89.78
726.688	90.2
726.871	89.92
727.054	89.97
727.237	89.53
727.42	89.09
727.603	88.77
727.786	88.57
727.968	88.32
728.151	88.35
728.334	89.23
728.517	89.47
728.699	90.04
728.882	90.49
729.065	90.24
729.248	89.77
729.43	90.07
729.613	90.17
729.796	90.91
729.978	91.11
730.161	91.25
730.343	91.48
730.526	91.78
730.708	91.27
730.891	91.83
731.073	92.21
731.256	92.27
731.438	92.62
731.621	92.64
731.803	92.4
731.986	92.2
732.168	92.33
732.35	92.01
732.533	91.34
732.715	91.32
732.898	91.62
733.08	91.31
733.262	91
733.444	91.97
733.627	92.34
733.809	92.45
733.991	92.13
734.173	92.08
734.355	91.83
734.538	92.3
734.72	92.39
734.902	93.13
735.084	93.38
735.266	94.14
735.448	93.93
735.63	94.27
735.812	94.01
735.994	93.77
736.176	93.34
736.358	93.26
736.54	93.48
736.722	93.32
736.904	93.77
737.086	92.99
737.268	93.79
737.45	93.87
737.632	94.34
737.814	94.71
737.995	95.26
738.177	94.3
738.359	93.72
738.541	93.64
738.723	93.84
738.904	94.23
739.086	94.31
739.268	94.24
739.449	94.22
739.631	93.92
739.813	93.35
739.994	93.43
740.176	94.08
740.358	94.51
740.539	93.86
740.721	94.94
740.902	94.7
741.084	94.32
741.265	94.17
741.447	95.24
741.628	94.44
741.81	95.32
741.991	96.08
742.172	95.68
742.354	95.28
742.535	95.69
742.717	94.04
742.898	93.24
743.079	94.65
743.261	94.52
743.442	93.21
743.623	94.41
743.804	94.53
743.986	93.64
744.167	92.97
744.348	93.74
744.529	93.3
744.71	92.71
744.891	91.93
745.073	93.06
745.254	93.99
745.435	94.53
745.616	94.83
745.797	94.6
745.978	94.38
746.159	93.64
746.34	94.13
746.521	95.02
746.702	96.51
746.883	95.9
747.064	96.74
747.245	95.96
747.426	96.62
747.606	96.02
747.787	96.37
747.968	95.25
748.149	95.2
748.33	93.04
748.51	91.1
748.691	90.25
748.872	92.2
749.053	91.68
749.233	91.05
749.414	93.93
749.595	96.39
749.775	94.32
749.956	94.63
750.137	95.6
750.317	93.42
750.498	91.18
750.678	92.05
750.859	91.85
751.04	93.19
751.22	93.36
751.4	93.68
751.581	93.95
751.761	94.52
751.942	93.52
752.122	93.67
752.303	95.16
752.483	94.03
752.663	94.32
752.844	94.48
753.024	95.65
753.204	94.67
753.385	95.27
753.565	95.4
753.745	93.78
753.925	92.29
754.106	92
754.286	91.44
754.466	89.87
754.646	90.57
754.826	91.55
755.006	90.9
755.187	92.45
755.367	91.92
755.547	92.49
755.727	93.37
755.907	93.3
756.087	91.39
756.267	92.09
756.447	91.79
756.627	90.75
756.807	90.98
756.987	90.91
757.167	91.94
757.346	92.18
757.526	92.99
757.706	93.42
757.886	93.47
758.066	94.29
758.246	93.37
758.425	91
758.605	90.84
758.785	91.29
758.965	90.87
759.144	90.87
759.324	93.2
759.504	94.23
759.683	94.05
759.863	92.73
760.043	92.75
760.222	92.08
760.402	89.85
760.581	90.02
760.761	90.39
760.94	89.92
761.12	88.7
761.299	91.34
761.479	92.5
761.658	91.77
761.838	92.86
762.017	93.53
762.197	90.98
762.376	90.05
762.555	89.21
762.735	88.58
762.914	88.41
763.093	88.78
763.273	87.32
763.452	87.86
763.631	87.84
763.81	88.15
763.99	87.2
764.169	88.13
764.348	89.36
764.527	90
764.706	89.36
764.885	90.8
765.064	90.79
765.243	89.83
765.423	89.2
765.602	88.79
765.781	87.23
765.96	88
766.139	86.17
766.318	87.76
766.497	86.5
766.676	87.36
766.854	85.31
767.033	87.87
767.212	86.98
767.391	89.76
767.57	91.29
767.749	91.99
767.928	91.86
768.106	89.94
768.285	88.2
768.464	87.41
768.643	87.14
768.821	86.49
769	89.23
769.179	90.58
769.357	90.45
769.536	90.11
769.715	89.63
769.893	87.72
770.072	85.94
770.25	85.09
770.429	85.77
770.607	85.76
770.786	85.73
770.964	86.99
771.143	86.76
771.321	83.95
771.5	84.78
771.678	84.85
771.857	83.1
772.035	84.46
772.213	85.67
772.392	84.52
772.57	84.4
772.748	84.74
772.927	83.76
773.105	86.27
773.283	87.14
773.461	88.31
773.64	89.39
773.818	89.51
773.996	89.29
774.174	90.75
774.352	88.2
774.531	89.11
774.709	89.5
774.887	87.33
775.065	87.29
775.243	88.49
775.421	86.9
775.599	86.84
775.777	88.13
775.955	85.91
776.133	85.81
776.311	84.76
776.489	85.52
776.667	84.29
776.844	84.97
777.022	83.71
777.2	85.63
777.378	82.5
777.556	84.5
777.734	83.91
777.911	84.4
778.089	85.35
778.267	86.8
778.445	86.48
778.622	85.74
778.8	85.25
778.978	84.01
779.155	85.68
779.333	85.17
779.511	84.95
779.688	86.69
779.866	86.29
780.043	85.84
780.221	86.19
780.398	85.35
780.576	85.42
780.753	85.13
780.931	81.44
781.108	82.11
781.286	84.19
781.463	82.84
781.64	84.44
781.818	88.86
781.995	87.83
782.172	85.91
782.35	87
782.527	86.48
782.704	84.95
782.882	81.64
783.059	83.23
783.236	81.91
783.413	80.94
783.59	81.07
783.768	81.46
783.945	82.52
784.122	82.52
784.299	83.46
784.476	79.39
784.653	78.28
784.83	76.8
785.007	77.92
785.184	76.75
785.361	81.16
785.538	81.35
785.715	82.54
785.892	82.36
786.069	82.27
786.246	79.62
786.423	81.83
786.6	83.34
786.776	83.19
786.953	80.97
787.13	82.53
787.307	82.89
787.484	78.3
787.66	75.93
787.837	79.28
788.014	82.04
788.191	81.28
788.367	80.53
788.544	84.61
788.721	82.46
788.897	79.65
789.074	79.79
789.25	82.7
789.427	79.01
789.603	75.26
789.78	75.95
789.956	73.96
790.133	70.5
790.309	72.79
790.486	76.18
790.662	74.58
790.839	77.68
791.015	82.59
791.192	81.34
791.368	81.04
791.544	83.1
791.721	83.81
791.897	81.18
792.073	78.86
792.249	77.52
792.426	75.36
792.602	73.02
792.778	71.53
792.954	75.73
793.13	78.08
793.307	77.56
793.483	79.03
793.659	79.8
793.835	78.01
794.011	79.89
794.187	81.09
794.363	80.73
794.539	84.31
794.715	84.07
794.891	82.06
795.067	78.49
795.243	74.26
795.419	68.63
795.595	71.68
795.771	69.32
795.947	71.78
796.122	70.34
796.298	70.2
796.474	71.97
796.65	73.45
796.826	71.18
797.001	72.49
797.177	71.64
797.353	66.36
797.529	70.46
797.704	75.34
797.88	75.65
798.056	77.47
798.231	77.38
798.407	77.81
798.582	73.2
798.758	72.83
798.934	77.33
799.109	75.79
799.285	73.24
799.46	76.24
799.636	80.03
799.811	75.03
799.986	74
800.162	69.22
800.337	72.19
800.513	68.33
800.688	69.99
800.863	78.54
801.039	85.31
801.214	79.78
801.389	78.02
801.565	80.74
801.74	76.44
801.915	71.64
802.09	71.61
802.265	78.03
802.441	74.09
802.616	72.3
802.791	77.14
802.966	81.84
803.141	79.84
803.316	82.06
803.491	86.2
803.666	80.85
803.841	76.23
804.016	74.12
804.191	76.12
804.366	70.7
804.541	72.69
804.716	79.14
804.891	79.55
805.066	79.13
805.241	75.07
805.416	77.03
805.591	74.61
805.765	77.65
805.94	75.41
806.115	79.76
806.29	77.83
806.464	74.31
806.639	69.39
806.814	69.33
806.989	70.7
807.163	70.19
807.338	69.37
807.512	73.8
807.687	70.83
807.862	67.68
808.036	76.36
808.211	79.48
808.385	76.1
808.56	77.22
808.734	73.53
808.909	68.27
809.083	66.8
809.258	67.11
809.432	69.65
809.606	75.32
809.781	73.74
809.955	74.55
810.13	68.47
810.304	60.85
810.478	60.92
810.652	54.85
810.827	54.86
811.001	54.42
811.175	59.59
811.349	64.03
811.524	76.86
811.698	74.61
811.872	80.24
812.046	79.55
812.22	75.63
812.394	68.51
812.568	74.97
812.742	71.95
812.916	76.79
813.09	69.47
813.264	65.6
813.438	62.35
813.612	64.29
813.786	56.29
813.96	68.25
814.134	77.31
814.308	77.45
814.482	76.42
814.656	73.59
814.83	64.85
815.003	58.45
815.177	50.4
815.351	58.86
815.525	69.93
815.698	65.2
815.872	58.09
816.046	62.65
816.219	58.77
816.393	48.56
816.567	52.18
816.74	60.2
816.914	63.83
817.088	59.18
817.261	61.23
817.435	67.68
817.608	62.47
817.782	57.33
817.955	68.06
818.129	75.32
818.302	76.94
818.475	84.15
818.649	83.89
818.822	74.22
818.996	80.31
819.169	82.29
819.342	77.31
819.516	77.23
819.689	75.26
819.862	66.03
820.035	64.08
820.209	62.22
820.382	51.94
820.555	52.39
820.728	50.78
820.901	45.88
821.075	52.91
821.248	73.92
821.421	78.24
821.594	79.61
821.767	81.78
821.94	68.12
822.113	67.13
822.286	64.53
822.459	65.99
822.632	67.39
822.805	66.15
822.978	55.96
823.151	47.9
823.324	37.05
823.496	27.8
823.669	39.3
823.842	53.94
824.015	69.54
824.188	75.28
824.361	69.34
824.533	59.79
824.706	47.89
824.879	35.53
825.051	49.87
825.224	53.82
825.397	55.97
825.569	56.15
825.742	67.22
825.915	60.08
826.087	55.85
826.26	56.52
826.432	57.99
826.605	63.92
826.777	76.99
826.95	89.44
827.122	83.58
827.295	110.32
827.467	111.48
827.64	97.07
827.812	84.33
827.984	82.46
828.157	64.78
828.329	61.18
828.501	53.6
828.674	63.65
828.846	81.08
829.018	68.47
829.19	58.26
829.363	55.92
829.535	58.79
829.707	54.79
829.879	51.85
830.051	50.57
830.223	70.99
830.395	64.17
830.568	65
830.74	65.56
830.912	62.05
831.084	59.45
831.256	42.97
831.428	26.79
831.6	21.8
831.772	22.93
831.943	14.21
832.115	42.28
832.287	56.71
832.459	62.85
832.631	63.18
832.803	67.84
832.975	58.28
833.146	55.22
833.318	62.42
833.49	67.63
833.662	66.36
833.833	68.41
834.005	71.17
834.177	68.84
834.348	61.43
834.52	49.72
834.692	50.11
834.863	43.23
835.035	40.74
835.206	42.43
835.378	55.04
835.549	59.31
835.721	66.89
835.892	70.36
836.064	66.93
836.235	68.18
836.407	61.11
836.578	48.49
836.749	29.64
836.921	45.06
837.092	31.36
837.264	25.55
837.435	19.46
837.606	27.54
837.777	17.16
837.949	26.56
838.12	34.39
838.291	42.93
838.462	46.57
838.633	56.4
838.805	53.87
838.976	46.8
839.147	48
839.318	48.81
839.489	39.93
839.66	70.31
839.831	71.89
840.002	68.62
840.173	77.78
840.344	77.68
840.515	49.15
840.686	50.89
840.857	48.59
841.028	41.61
841.199	41.27
841.369	38.62
841.54	46.66
841.711	72.91
841.882	66.39
842.053	54.2
842.223	65.69
842.394	46.71
842.565	24.42
842.736	40.74
842.906	39.89
843.077	41.14
843.248	60.98
843.418	64.77
843.589	61.62
843.759	74.31
843.93	73.81
844.101	55.39
844.271	64.87
844.442	63.23
844.612	45.46
844.783	44.11
844.953	46.22
845.123	44.31
845.294	31.31
845.464	23.84
845.635	36.02
845.805	40.07
845.975	50.34
846.146	25.62
846.316	58.34
846.486	48.04
846.656	72.04
846.827	67.16
846.997	71.92
847.167	66.2
847.337	68.35
847.507	51.96
847.677	47.94
847.848	77.15
848.018	71.3
848.188	66.08
848.358	48.53
848.528	50.18
848.698	6.14
848.868	17.9
849.038	7.72
849.208	27.02
849.378	27.69
849.548	24.76
849.718	-11.15
849.887	-14.29
850.057	-55.51
850.227	-28.87
850.397	7.07
850.567	19.94
850.737	32.64
850.906	63.16
851.076	36.34
851.246	60.32
851.415	83.34
851.585	89.6
851.755	86.46
851.924	106.74
852.094	93.98
852.264	59.67
852.433	43.27
852.603	9.08
852.772	2.49
852.942	22.29
853.111	38.55
853.281	46.98
853.45	46.85
853.62	28.56
853.789	17.37
853.959	13.36
854.128	24.98
854.297	28.48
854.467	37.81
854.636	39.52
854.805	52.31
854.975	28.56
855.144	37.07
855.313	58.26
855.482	47.27
855.652	47.42
855.821	62.91
855.99	71.15
856.159	62.7
856.328	73.12
856.497	47.31
856.667	49.85
856.836	48.07
857.005	29.9
857.174	46.62
857.343	39.77
857.512	48.21
857.681	29.31
857.85	33.16
858.019	-10.57
858.188	-12.53
858.356	-6.42
858.525	9.65
858.694	5.99
858.863	13.58
859.032	29.24
859.201	3.52
859.369	20.37
859.538	20.44
859.707	29.7
859.876	29.28
860.044	50.28
860.213	61.18
860.382	61.27
860.55	49.42
860.719	59.56
860.888	34.58
861.056	5.56
861.225	-12.4
861.393	4.06
861.562	9.83
861.73	20.77
861.899	34.41
862.067	46.28
862.236	40.83
862.404	14.82
862.572	39.33
862.741	31.79
862.909	40.65
863.078	28.33
863.246	38.64
863.414	28.23
863.582	18.56
863.751	6.5
863.919	16.16
864.087	-8.18
864.255	-4.13
864.424	-13.11
864.592	40.14
864.76	29.44
864.928	49.33
865.096	43.28
865.264	54.47
865.432	44.92
865.6	92.57
865.768	117.82
865.936	86.56
866.104	108.85
866.272	116.31
866.44	88.12
866.608	46.22
866.776	81.37
866.944	82.59
867.112	77.39
867.28	70.45
867.448	67.67
867.615	57.7
867.783	38.22
867.951	27.6
868.119	31.73
868.286	66.85
868.454	55.22
868.622	63.41
868.789	47.37
868.957	43.93
869.125	35.47
869.292	4.27
869.46	25.53
869.627	33.13
869.795	0.56
869.963	26.42
870.13	43
870.298	22.8
870.465	47.81
870.632	37.69
870.8	28.23
870.967	14.8
871.135	-15.4
871.302	-19.57
871.469	7.05
871.637	39.99
871.804	47.68
871.971	66.97
872.139	77.12
872.306	18.74
872.473	-29.65
872.64	-81.65
872.807	-124.62
872.975	-354.16
873.142	-57.34
873.309	-37.43
873.476	31.94
873.643	31.01
873.81	26.82
873.977	4.26
874.144	24.39
874.311	-57.96
874.478	-40.19
874.645	-38.82
874.812	41.19
874.979	39.19
875.146	1.48
875.313	32.16
875.48	81.75
875.647	60.81
875.813	33.07
875.98	53.27
876.147	27.82
876.314	-18.99
876.481	-12.79
876.647	28.86
876.814	37.06
876.981	54.94
877.147	72.39
877.314	83.49
877.481	84.37
877.647	77.54
877.814	69.43
877.98	65.91
878.147	56.21
878.314	54
878.48	69.98
878.647	44.98
878.813	54.4
878.979	53.37
879.146	58.35
879.312	68.08
879.479	70.1
879.645	38.35
879.811	9.45
879.978	29.92
880.144	20.58
880.31	38.08
880.477	68.15
880.643	82.55
880.809	56.32
880.975	74.75
881.142	36.16
881.308	228.67
881.474	356.1
881.64	9.85
881.806	-133.46
881.972	-71.65
882.138	11.13
882.304	0.15
882.47	-28.82
882.636	-15.03
882.802	-24.93
882.968	-81.13
883.134	-35.78
883.3	-30.17
883.466	-21.38
883.632	3.43
883.798	-20.33
883.964	-21.65
884.129	-348.91
884.295	-39.61
884.461	-40.8
884.627	-4.43
884.793	-16.38
884.958	8.31
885.124	20.97
885.29	-5.03
885.455	-25.57
885.621	-8.57
885.787	43.17
885.952	6.04
886.118	25.96
886.283	14
886.449	7.62
886.614	-30.96
886.78	-2.61
886.945	-22.91
887.111	-22.61
887.276	-25.35
887.442	-49.71
887.607	-47.5
887.773	-14.13
887.938	-2.61
888.103	-0.16
888.269	19.66
888.434	26.25
888.599	-2.17
888.764	18.44
888.93	27.97
889.095	11.45
889.26	-5.45
889.425	22.68
889.59	20
889.756	19.18
889.921	10.71
890.086	66.98
890.251	59.97
890.416	15.39
890.581	-12.84
890.746	24.84
890.911	21.15
891.076	26.72
891.241	15.78
891.406	32.01
891.571	78.97
891.736	97.1
891.901	49.01
892.065	75.29
892.23	63.75
892.395	8.33
892.56	-18.26
892.725	-24.65
892.889	-93.49
893.054	-6.86
893.219	-26.54
893.384	-39.19
893.548	-97.06
893.713	-163.75
893.878	-307.43
