Data from Ofra_PS_T2_2A_2CX13_Reflection_2.txt Node
Date: Wed Jul 21 17:30:15 EDT 2021
User: Adam
Spectrometer: FLMT01687
Trigger mode: 0
Integration Time (sec): 1.100000E0
Scans to average: 2
Electric dark correction enabled: true
Nonlinearity correction enabled: false
Boxcar width: 2
XAxis mode: Wavelengths
Number of Pixels in Spectrum: 3648
>>>>>Begin Spectral Data<<<<<
179.494	562.8
179.716	629.65
179.937	605.14
180.158	609.37
180.38	1056.56
180.601	212.98
180.823	67.9
181.044	-169.91
181.265	-104.78
181.486	-59.92
181.708	107.74
181.929	737.76
182.15	-635.92
182.372	66.39
182.593	-44.43
182.814	5.42
183.035	65.48
183.257	54.64
183.478	-36.7
183.699	45.93
183.92	-9.8
184.141	-13
184.363	-68.83
184.584	-9.02
184.805	-17.4
185.026	30.03
185.247	45.46
185.468	31.92
185.689	6.24
185.91	0.87
186.132	-29.09
186.353	-55.75
186.574	-17.88
186.795	2.72
187.016	-9.91
187.237	1.54
187.458	-16.08
187.679	-33.55
187.9	-19.67
188.121	-51.02
188.342	-48.45
188.563	2.63
188.784	28.68
189.005	55.27
189.226	127.09
189.447	80.27
189.667	5.1
189.888	-176.6
190.109	-1042.21
190.33	-657.1
190.551	-1158.85
190.772	-260.41
190.993	-235.2
191.214	-187.66
191.434	-94.89
191.655	20.8
191.876	-26.38
192.097	-81.56
192.318	-118.95
192.538	-307.48
192.759	-279.53
192.98	-148.17
193.201	-75
193.421	-51.34
193.642	-12.21
193.863	16.89
194.083	1.27
194.304	-13.31
194.525	-35.08
194.745	-73.62
194.966	-110.17
195.187	-130.12
195.407	-196.8
195.628	-235.08
195.848	-207.91
196.069	-200.07
196.29	-109.58
196.51	-96.94
196.731	-78.31
196.951	-90.44
197.172	-131.11
197.392	-183.25
197.613	-191.37
197.833	-231.6
198.054	-162.92
198.274	-87.99
198.495	-79.94
198.715	-48.21
198.936	-54.73
199.156	-64.72
199.377	-176.93
199.597	-167.82
199.817	-171.06
200.038	-99.1
200.258	-187.35
200.479	-114.81
200.699	-147.08
200.919	-67.46
201.14	-91.28
201.36	-60.59
201.58	11.06
201.801	32.58
202.021	0.66
202.241	8.32
202.461	-8.58
202.682	-111.3
202.902	-171.74
203.122	-103.71
203.342	-98.45
203.563	-35.45
203.783	-4.62
204.003	-38.86
204.223	-10.71
204.443	57.1
204.663	36.36
204.884	39.79
205.104	96.29
205.324	115.11
205.544	89.49
205.764	92.2
205.984	87.93
206.204	63.04
206.424	41.43
206.644	13.25
206.864	-13.34
207.084	-92.36
207.304	-98.91
207.525	-328.59
207.745	-180.96
207.964	-65.08
208.184	-107.74
208.404	-137.31
208.624	-125.82
208.844	-137.25
209.064	-529.15
209.284	-524.22
209.504	-256.38
209.724	-69.72
209.944	-35.16
210.164	19.73
210.384	26.79
210.604	12.19
210.823	-34.36
211.043	-53.08
211.263	-59.89
211.483	-61.59
211.703	-120.74
211.922	-80.16
212.142	-27.58
212.362	2.56
212.582	-0.89
212.801	26.1
213.021	-19.78
213.241	-44.97
213.461	-91
213.68	-125.05
213.9	-113.9
214.12	-89.67
214.339	-147.69
214.559	-116.04
214.779	-37.25
214.998	-38.71
215.218	-87.18
215.438	-36.75
215.657	-46.72
215.877	-63.89
216.096	-25.68
216.316	-4.86
216.535	-20.27
216.755	-30.59
216.974	-149.56
217.194	-198.64
217.413	-191.56
217.633	-192.33
217.852	-285.89
218.072	-113.95
218.291	-60.84
218.511	-16.89
218.73	-42.81
218.95	-37.94
219.169	-42.37
219.389	-100.17
219.608	-85.1
219.827	-70.97
220.047	-58.67
220.266	-44.79
220.485	-42.14
220.705	-25.51
220.924	-43.65
221.143	5.09
221.363	-4.59
221.582	13.02
221.801	6.58
222.021	31.44
222.24	-49.65
222.459	4.91
222.678	-29.91
222.897	-71.44
223.117	-136.2
223.336	-87.58
223.555	-78.41
223.774	-32.96
223.993	-22.05
224.213	40.73
224.432	13.5
224.651	36
224.87	7.57
225.089	15.21
225.308	8.5
225.527	33.37
225.746	14.68
225.965	6.53
226.184	-13.86
226.404	11.94
226.623	-14.64
226.842	-3.97
227.061	25.57
227.28	24.42
227.499	-10.32
227.718	6.27
227.936	-1.29
228.155	0.7
228.374	-16.93
228.593	3.47
228.812	-3.16
229.031	-8.88
229.25	-43.94
229.469	-19.29
229.688	25.7
229.907	42.16
230.125	45.77
230.344	45.01
230.563	66.61
230.782	50.67
231.001	-42.47
231.22	-33.24
231.438	5.23
231.657	-4.61
231.876	-15.65
232.095	47.58
232.313	42.09
232.532	-2.94
232.751	-35.18
232.969	-57.35
233.188	-119.95
233.407	-7.5
233.625	-12.57
233.844	-24.43
234.063	0.36
234.281	7.37
234.5	-27.34
234.719	-1.61
234.937	16.33
235.156	18.9
235.374	6.25
235.593	0.92
235.811	-16.28
236.03	-29.47
236.249	-71.85
236.467	-50.34
236.686	-12.02
236.904	7.08
237.123	-26.61
237.341	-25.42
237.559	-20.37
237.778	-49.13
237.996	-71.65
238.215	-9.45
238.433	5.12
238.652	7.83
238.87	-15.7
239.088	-14.59
239.307	-13.51
239.525	-21.15
239.743	-41.35
239.962	-10.73
240.18	-40.3
240.398	-83.99
240.617	-91.7
240.835	-68.43
241.053	-38.47
241.271	35.73
241.49	29.26
241.708	20.36
241.926	-19.45
242.144	-26.38
242.363	-114.29
242.581	-146.89
242.799	-87.78
243.017	-41.81
243.235	-59.11
243.453	-33.77
243.672	-19.43
243.89	-24.94
244.108	-42.13
244.326	-19.77
244.544	-0.63
244.762	7.55
244.98	21.92
245.198	34.78
245.416	1.91
245.634	-15.11
245.852	-29.4
246.07	-42.75
246.288	-40.56
246.506	-38.01
246.724	-30.13
246.942	-17.13
247.16	-2.98
247.378	-0.11
247.596	12.82
247.814	27.88
248.032	-14.66
248.25	-15.44
248.468	-3.01
248.685	15.98
248.903	22.57
249.121	35.96
249.339	12.92
249.557	-9.27
249.775	-0.77
249.992	-71.43
250.21	-74.51
250.428	-55.56
250.646	-66.47
250.863	-104.41
251.081	-59.49
251.299	-33.58
251.517	-23.2
251.734	-14.77
251.952	-18.24
252.17	-18.26
252.387	-10.81
252.605	-16.63
252.823	-8.52
253.04	15.35
253.258	35.2
253.475	33.02
253.693	60.67
253.911	49.5
254.128	46.44
254.346	45.54
254.563	17.9
254.781	-20.54
254.998	-49.31
255.216	-50.7
255.433	-51.82
255.651	-0.14
255.868	27.39
256.086	60.76
256.303	51.42
256.521	34.11
256.738	-4.46
256.956	-35.59
257.173	-61.4
257.39	-94.36
257.608	-120.13
257.825	-63.8
258.043	-3.24
258.26	6.09
258.477	58.21
258.695	45.74
258.912	-3.11
259.129	-24.3
259.346	-57.68
259.564	-109.48
259.781	-117.26
259.998	-41.2
260.216	-1.26
260.433	29.06
260.65	27.84
260.867	56.26
261.084	24.75
261.302	-3.92
261.519	-31.64
261.736	-55.97
261.953	-85.57
262.17	-23.07
262.387	-54.85
262.604	-77.72
262.822	-86.21
263.039	-63.33
263.256	-147.17
263.473	-116.73
263.69	-66.54
263.907	-0.08
264.124	0.62
264.341	18.78
264.558	16.07
264.775	27.59
264.992	6
265.209	7.18
265.426	23.82
265.643	22.46
265.86	29.67
266.077	27.01
266.294	6.82
266.51	-42.09
266.727	-35.9
266.944	-34.91
267.161	-42.07
267.378	-31.39
267.595	13.94
267.812	-25.18
268.028	-49.79
268.245	-19.01
268.462	-38.32
268.679	-60.83
268.896	17.19
269.112	33.27
269.329	23.58
269.546	44.53
269.763	42.78
269.979	29.3
270.196	15.43
270.413	-13.1
270.629	-36.84
270.846	-46.86
271.063	-41.32
271.279	-69.08
271.496	-67.46
271.712	-27.47
271.929	-5.27
272.146	-41.13
272.362	-17.32
272.579	38.56
272.795	40.1
273.012	34.12
273.228	41.55
273.445	16.6
273.661	-26.33
273.878	-95.25
274.094	-92.46
274.311	-111.81
274.527	-30.75
274.744	-15.31
274.96	1.49
275.177	25.01
275.393	39.61
275.609	25.62
275.826	35.81
276.042	27.5
276.259	-0.88
276.475	14.62
276.691	9.16
276.908	-19.78
277.124	9.37
277.34	7.24
277.557	-14.77
277.773	-21.58
277.989	-17.63
278.205	-42.54
278.422	-26.21
278.638	-10.69
278.854	12.59
279.07	12.39
279.286	18.1
279.503	-12.05
279.719	-19.22
279.935	-43.16
280.151	-33.4
280.367	-14.97
280.583	-35.15
280.799	-47.8
281.016	-83.04
281.232	-44.25
281.448	-68.15
281.664	-17.11
281.88	-46.63
282.096	-4.6
282.312	7.12
282.528	43.02
282.744	28.25
282.96	34.85
283.176	14.33
283.392	3.7
283.608	-6.62
283.824	-19.17
284.04	-7.76
284.256	1.99
284.471	-17.17
284.687	-16.05
284.903	17.34
285.119	29.86
285.335	5.19
285.551	23.3
285.767	0.52
285.982	-8.81
286.198	-47.36
286.414	15.46
286.63	17.4
286.846	43.93
287.061	18.73
287.277	54.84
287.493	19.13
287.709	36.21
287.924	12.28
288.14	53.14
288.356	29.91
288.571	52.27
288.787	20.9
289.003	26.4
289.218	-5.99
289.434	-39.48
289.65	-36.1
289.865	-34.34
290.081	-23.02
290.296	-5.48
290.512	5.18
290.727	-25.07
290.943	-35.17
291.159	-47.2
291.374	-42.69
291.59	-56.9
291.805	-44.08
292.021	-26.12
292.236	-18.83
292.451	-13.15
292.667	-2.34
292.882	13.46
293.098	-5.35
293.313	-22.87
293.529	-46.54
293.744	-58.14
293.959	-74.48
294.175	-55.47
294.39	-23.35
294.605	-2.08
294.821	18.67
295.036	21.55
295.251	25.31
295.467	11.32
295.682	-0.65
295.897	-54.09
296.112	-45.96
296.328	-47.95
296.543	-89.71
296.758	-93.63
296.973	-36.06
297.188	9.25
297.404	-12.42
297.619	-9.32
297.834	-16.89
298.049	-42.93
298.264	-85.37
298.479	-18.13
298.694	-6.3
298.909	2.28
299.125	9.17
299.34	14.91
299.555	-33.73
299.77	-34.16
299.985	-64.83
300.2	-106.3
300.415	-131.36
300.63	-76.51
300.845	-77.17
301.06	-60.06
301.275	-31.17
301.49	4.62
301.704	-15.49
301.919	-18.28
302.134	-37.5
302.349	-41.6
302.564	-119.6
302.779	-128.55
302.994	-116.38
303.209	-42.3
303.423	27.1
303.638	65.89
303.853	24
304.068	12.88
304.283	-10.83
304.497	-30.8
304.712	-39.77
304.927	-18.13
305.142	-22.36
305.356	-8.44
305.571	-12.06
305.786	-30.33
306	-64.09
306.215	-60.24
306.43	-84.49
306.644	-93.73
306.859	-33.01
307.074	-1.11
307.288	-28.32
307.503	-50.94
307.717	-39.59
307.932	-46.92
308.147	-50.91
308.361	-20.68
308.576	-13.95
308.79	-50.56
309.005	-55.52
309.219	-37.71
309.434	-48.73
309.648	-43.87
309.863	-20.53
310.077	-25.98
310.292	-35.25
310.506	-40.01
310.72	-13.13
310.935	-13.57
311.149	-8.67
311.364	13.64
311.578	28.81
311.792	15.38
312.007	30.29
312.221	16.78
312.435	9.21
312.649	-8.63
312.864	4.69
313.078	18.19
313.292	70.53
313.507	49.09
313.721	79.99
313.935	54.04
314.149	32.88
314.363	14.51
314.578	17.8
314.792	15.91
315.006	-10.44
315.22	2.69
315.434	13.43
315.648	21.08
315.862	17.18
316.077	28.02
316.291	1.94
316.505	-14.42
316.719	-27.14
316.933	-48.66
317.147	-59.16
317.361	-86.86
317.575	-95.02
317.789	-137.8
318.003	-180.19
318.217	-132.76
318.431	-45.25
318.645	-7.47
318.859	-2.55
319.073	20.7
319.287	1.54
319.5	-32.68
319.714	-68.26
319.928	-94.26
320.142	-128.41
320.356	-56.98
320.57	-16.25
320.784	-38.39
320.997	-61.8
321.211	-24.19
321.425	-93.46
321.639	-133.06
321.853	-46.27
322.066	-6.91
322.28	-25.67
322.494	-6.79
322.707	23.07
322.921	-0.61
323.135	-10.93
323.349	10.12
323.562	-24.67
323.776	-45.68
323.989	-44.99
324.203	-64.89
324.417	-85.76
324.63	-77.61
324.844	-64.14
325.057	-48.26
325.271	-24.53
325.485	6.67
325.698	23.31
325.912	40.12
326.125	10.59
326.339	10.22
326.552	-13.8
326.766	-11.24
326.979	-0.29
327.193	32.62
327.406	20.86
327.619	12.16
327.833	17.79
328.046	-16.44
328.26	-54.33
328.473	-20.66
328.686	-28.79
328.9	-24.4
329.113	-13.71
329.326	-32.91
329.54	-37.21
329.753	-65.14
329.966	-89.51
330.179	-79.56
330.393	-48.08
330.606	-38.69
330.819	-3.68
331.032	15.93
331.246	23.1
331.459	58.34
331.672	48.54
331.885	36.32
332.098	14.37
332.311	17.79
332.525	-42.94
332.738	-26.31
332.951	-16.24
333.164	9.22
333.377	8.81
333.59	28.3
333.803	30.13
334.016	36.01
334.229	33.32
334.442	39.93
334.655	40.31
334.868	23.12
335.081	4.85
335.294	-12.44
335.507	-13
335.72	-20.67
335.933	-32.19
336.146	-33.77
336.359	-25.52
336.572	-65.59
336.785	-95.78
336.997	-54.09
337.21	-29.61
337.423	-35.3
337.636	-19.96
337.849	12.44
338.062	-6.7
338.274	-9.2
338.487	-14.36
338.7	-8.36
338.913	-50.71
339.125	-77.97
339.338	-142.31
339.551	-110.41
339.763	-94.99
339.976	-66.25
340.189	-40.45
340.402	-0.09
340.614	-8.55
340.827	-13.83
341.039	-28.55
341.252	-14.9
341.465	-13.09
341.677	-17.86
341.89	-52.13
342.102	-20.58
342.315	-42.92
342.527	-71.16
342.74	-68.31
342.952	-7.78
343.165	-13.27
343.377	11.25
343.59	7.16
343.802	30.95
344.015	22.19
344.227	39.9
344.44	31.49
344.652	36.24
344.864	21.83
345.077	32.99
345.289	28.56
345.502	29.57
345.714	18.42
345.926	16.16
346.139	1.51
346.351	2.56
346.563	17.46
346.775	29.69
346.988	24.42
347.2	16.04
347.412	-21.94
347.624	-50.03
347.837	-71.79
348.049	-41.48
348.261	-15.28
348.473	-4.01
348.685	-3.18
348.897	-3.75
349.11	-18.59
349.322	-33.32
349.534	-26.05
349.746	-22.88
349.958	-12.56
350.17	-24.56
350.382	-1.64
350.594	1.3
350.806	-0.79
351.018	8.47
351.23	-10.59
351.442	-60.12
351.654	-77.35
351.866	-68.11
352.078	-87.81
352.29	-32.22
352.502	-7.11
352.714	11.46
352.926	-9.19
353.138	-9.01
353.35	-23.79
353.561	-35.75
353.773	-54.66
353.985	-28.29
354.197	-37.77
354.409	-40.79
354.621	-41.16
354.832	-33.2
355.044	-39.98
355.256	-30.84
355.468	-15.77
355.679	-20.81
355.891	-12.09
356.103	-27.81
356.314	-23.39
356.526	-31.99
356.738	-19.6
356.949	-41.97
357.161	-13.42
357.373	-9.91
357.584	-22.94
357.796	-5.87
358.008	-0.33
358.219	8.04
358.431	3.84
358.642	23.06
358.854	22.19
359.065	10.69
359.277	-16.62
359.488	-28.41
359.7	-50.13
359.911	-82.82
360.123	-47.38
360.334	-67.28
360.546	-86.19
360.757	-87.93
360.969	-61.9
361.18	-65.55
361.391	-40.01
361.603	-34.4
361.814	-16.98
362.025	-20.34
362.237	-26.85
362.448	-14.11
362.659	3.67
362.871	-9.54
363.082	-13.75
363.293	-11.66
363.504	-30.38
363.716	-52.92
363.927	-55.62
364.138	-70.91
364.349	-83.05
364.56	-68.85
364.772	-63.43
364.983	-27.39
365.194	-19.18
365.405	-3.2
365.616	7.39
365.827	9.84
366.038	-29.36
366.25	-39.29
366.461	-90.98
366.672	-54.04
366.883	-39.17
367.094	-31.56
367.305	-28.73
367.516	-7.58
367.727	-46.46
367.938	-50.84
368.149	-41.77
368.36	-30.44
368.571	-21.63
368.781	-24.65
368.992	-34.29
369.203	-37.63
369.414	-65.8
369.625	-80.78
369.836	-74.91
370.047	-104.64
370.258	-92.52
370.468	-80.47
370.679	-103.68
370.89	-84.49
371.101	-58.76
371.312	-59.22
371.522	-52.83
371.733	-23.5
371.944	-9.71
372.155	7.54
372.365	-8.22
372.576	-12.55
372.787	-20.45
372.997	-56.83
373.208	-71.41
373.419	-25.43
373.629	-46.16
373.84	-39.85
374.05	-32.98
374.261	-14.79
374.472	-53.32
374.682	5.71
374.893	0.36
375.103	33.24
375.314	27.84
375.524	29.86
375.735	16.42
375.945	21.98
376.156	-7.56
376.366	-10.83
376.577	-9.54
376.787	-17.84
376.997	-15.29
377.208	-17.39
377.418	-30.14
377.629	-14.37
377.839	-13.57
378.049	-17.32
378.26	5.64
378.47	17.65
378.68	2.51
378.89	0.91
379.101	0.73
379.311	-30.58
379.521	-53.54
379.732	-48.37
379.942	-54.1
380.152	-69.68
380.362	-35.49
380.572	-32.29
380.783	-20.39
380.993	-13.11
381.203	1.89
381.413	12.83
381.623	16.61
381.833	20.95
382.043	10.49
382.253	-2.45
382.463	-9.19
382.674	-18.33
382.884	-50.23
383.094	-39.35
383.304	-24.37
383.514	-19.98
383.724	-6.9
383.934	-6.44
384.144	-15.49
384.353	-22.35
384.563	-23.18
384.773	-15.64
384.983	-12.89
385.193	-2.25
385.403	1.88
385.613	-0.72
385.823	-14.03
386.033	-6.7
386.242	-14.33
386.452	-20.08
386.662	-26.59
386.872	-17.79
387.082	-21.48
387.291	-26.2
387.501	-26.3
387.711	-15.39
387.921	-19.84
388.13	-16.26
388.34	-1.93
388.55	-7.33
388.759	-8.95
388.969	-3.06
389.179	-4.68
389.388	-6.25
389.598	1.84
389.807	-7.01
390.017	-12.46
390.227	-12.81
390.436	-13.81
390.646	-13.38
390.855	-2.8
391.065	-0.42
391.274	0.05
391.484	-3.17
391.693	-1.5
391.903	-2.79
392.112	3.25
392.322	6.08
392.531	11.27
392.74	11.11
392.95	7.54
393.159	3.5
393.369	2.22
393.578	0.69
393.787	-1.67
393.997	-0.08
394.206	-1.8
394.415	-0.47
394.625	-1.32
394.834	-2.09
395.043	-2.18
395.252	1.8
395.462	3.62
395.671	5.55
395.88	7.03
396.089	8.94
396.298	5.85
396.508	4.96
396.717	3.49
396.926	4.26
397.135	3.47
397.344	3.98
397.553	4.39
397.762	6.29
397.971	6.15
398.181	6.1
398.39	5.62
398.599	5.17
398.808	4.63
399.017	5.42
399.226	6.89
399.435	8.56
399.644	8.97
399.853	8.09
400.062	7.57
400.27	6.64
400.479	5.94
400.688	4.92
400.897	5.49
401.106	5.44
401.315	5.12
401.524	5.15
401.733	6.03
401.941	6.4
402.15	6.52
402.359	6.59
402.568	7.15
402.777	7.26
402.985	7.04
403.194	6.89
403.403	6.98
403.612	6.3
403.82	6.04
404.029	6.17
404.238	6
404.446	6.26
404.655	6.28
404.864	6.09
405.072	5.95
405.281	6.23
405.489	5.92
405.698	5.97
405.906	6.07
406.115	5.95
406.324	5.77
406.532	6.03
406.741	6.41
406.949	6.49
407.158	6.61
407.366	6.68
407.574	6.63
407.783	6.48
407.991	6.31
408.2	6.53
408.408	6.45
408.617	6.23
408.825	5.98
409.033	6.19
409.242	6.03
409.45	6.22
409.658	6.02
409.867	6.12
410.075	5.8
410.283	5.71
410.491	5.39
410.7	5.45
410.908	5.52
411.116	5.91
411.324	5.82
411.533	5.96
411.741	6.21
411.949	6.17
412.157	5.86
412.365	5.94
412.573	6
412.781	5.96
412.99	5.89
413.198	6.03
413.406	6.04
413.614	5.96
413.822	5.87
414.03	5.69
414.238	5.52
414.446	5.53
414.654	5.25
414.862	5.37
415.07	5.48
415.278	5.77
415.486	5.54
415.694	5.79
415.902	5.57
416.109	5.51
416.317	5.29
416.525	5.14
416.733	5.06
416.941	5.2
417.149	5.05
417.357	5.06
417.564	5.38
417.772	5.62
417.98	5.54
418.188	5.66
418.395	5.57
418.603	5.56
418.811	5.01
419.019	4.97
419.226	5.35
419.434	5.57
419.642	5.33
419.849	5.63
420.057	5.67
420.265	5.3
420.472	4.83
420.68	4.9
420.887	4.68
421.095	4.64
421.302	4.66
421.51	5.04
421.717	5.16
421.925	5.3
422.132	5.07
422.34	4.74
422.547	4.65
422.755	4.52
422.962	4.52
423.17	4.53
423.377	4.83
423.585	4.8
423.792	4.76
423.999	4.83
424.207	4.77
424.414	4.77
424.621	4.95
424.829	4.95
425.036	4.96
425.243	5.16
425.451	4.96
425.658	4.55
425.865	4.79
426.072	4.74
426.28	5.08
426.487	5.27
426.694	5.5
426.901	5.25
427.108	5.33
427.315	5.04
427.523	5.24
427.73	5.26
427.937	5.22
428.144	4.9
428.351	4.82
428.558	4.76
428.765	4.62
428.972	4.45
429.179	4.71
429.386	5.05
429.593	4.76
429.8	4.65
430.007	5.01
430.214	5.04
430.421	4.84
430.628	4.82
430.835	4.78
431.042	4.91
431.249	4.94
431.456	4.87
431.662	5.1
431.869	5.43
432.076	5.36
432.283	5.39
432.49	5.49
432.697	5.57
432.903	5.24
433.11	5.2
433.317	5.35
433.524	5.56
433.73	5.35
433.937	5.75
434.144	5.56
434.35	5.51
434.557	5.25
434.764	5.39
434.97	5.29
435.177	5.6
435.384	5.46
435.59	5.64
435.797	5.78
436.003	5.85
436.21	5.76
436.416	5.8
436.623	5.7
436.829	5.69
437.036	5.67
437.242	5.76
437.449	5.75
437.655	5.78
437.862	5.85
438.068	5.73
438.275	5.71
438.481	5.97
438.687	5.93
438.894	5.79
439.1	5.81
439.307	6.01
439.513	5.82
439.719	5.83
439.926	5.89
440.132	5.95
440.338	5.69
440.544	5.87
440.751	5.9
440.957	5.99
441.163	5.85
441.369	6.09
441.575	5.84
441.782	5.83
441.988	5.67
442.194	5.78
442.4	5.66
442.606	6
442.812	6.14
443.018	6.27
443.224	6.32
443.431	6.42
443.637	6.19
443.843	6.07
444.049	6.06
444.255	5.97
444.461	5.9
444.667	5.79
444.873	5.9
445.079	5.9
445.284	6.13
445.49	5.94
445.696	5.88
445.902	5.79
446.108	5.77
446.314	5.73
446.52	5.82
446.726	6.09
446.931	6.09
447.137	6.16
447.343	6.16
447.549	6.07
447.755	5.93
447.96	5.99
448.166	5.85
448.372	5.8
448.578	5.98
448.783	6.01
448.989	6.04
449.195	6.32
449.4	6.33
449.606	6.22
449.812	6.18
450.017	6.21
450.223	6.06
450.428	5.98
450.634	6.18
450.84	6.36
451.045	6.28
451.251	6.23
451.456	6.49
451.662	6.51
451.867	6.51
452.073	6.53
452.278	6.67
452.483	6.66
452.689	6.52
452.894	6.54
453.1	6.52
453.305	6.41
453.51	6.3
453.716	6.21
453.921	6.24
454.127	6.16
454.332	6.07
454.537	5.98
454.742	5.97
454.948	5.89
455.153	5.96
455.358	6.12
455.563	6.31
455.769	6.44
455.974	6.38
456.179	6.28
456.384	6.23
456.589	6.1
456.795	5.9
457	5.79
457.205	6.02
457.41	5.99
457.615	5.97
457.82	6.08
458.025	6.2
458.23	6
458.435	6
458.64	5.93
458.845	6.05
459.05	6.01
459.255	6.06
459.46	6.04
459.665	6.08
459.87	6.04
460.075	5.98
460.28	6.01
460.485	6.16
460.69	6.2
460.895	6
461.099	6.05
461.304	6.16
461.509	6.1
461.714	5.96
461.919	6.16
462.123	6.11
462.328	6.05
462.533	5.95
462.738	6.08
462.942	5.98
463.147	6.11
463.352	6.13
463.556	6.14
463.761	6.17
463.966	6.31
464.17	6.24
464.375	6.09
464.58	6.14
464.784	6.11
464.989	5.95
465.193	6.04
465.398	6.12
465.602	6.23
465.807	6.16
466.011	6.28
466.216	6.28
466.42	6.36
466.625	6.42
466.829	6.65
467.034	6.73
467.238	6.88
467.443	6.81
467.647	6.67
467.851	6.65
468.056	6.64
468.26	6.52
468.464	6.57
468.669	6.62
468.873	6.77
469.077	6.74
469.282	6.83
469.486	6.96
469.69	7
469.894	6.76
470.099	6.83
470.303	6.94
470.507	6.76
470.711	6.68
470.915	6.71
471.119	6.6
471.324	6.43
471.528	6.5
471.732	6.6
471.936	6.67
472.14	6.81
472.344	6.95
472.548	7
472.752	7.24
472.956	7.44
473.16	7.35
473.364	7.26
473.568	7.26
473.772	7.16
473.976	7.04
474.18	7.13
474.384	7.19
474.588	7.19
474.792	7.09
474.995	7.11
475.199	7.16
475.403	7.23
475.607	7.25
475.811	7.2
476.015	7.32
476.218	7.35
476.422	7.28
476.626	7.31
476.83	7.55
477.033	7.47
477.237	7.39
477.441	7.46
477.644	7.51
477.848	7.43
478.052	7.39
478.255	7.42
478.459	7.41
478.663	7.5
478.866	7.59
479.07	7.66
479.273	7.8
479.477	7.88
479.681	7.82
479.884	7.83
480.088	7.82
480.291	7.78
480.495	7.74
480.698	7.76
480.901	7.79
481.105	7.96
481.308	7.97
481.512	7.93
481.715	8.03
481.919	8.05
482.122	7.98
482.325	8
482.529	8.07
482.732	8.01
482.935	7.92
483.138	7.86
483.342	7.98
483.545	8.08
483.748	8.12
483.952	8.19
484.155	8.35
484.358	8.35
484.561	8.29
484.764	8.24
484.967	8.33
485.171	8.41
485.374	8.4
485.577	8.5
485.78	8.61
485.983	8.61
486.186	8.47
486.389	8.39
486.592	8.35
486.795	8.37
486.998	8.32
487.201	8.41
487.404	8.55
487.607	8.69
487.81	8.79
488.013	8.89
488.216	8.86
488.419	8.85
488.622	8.81
488.825	8.74
489.028	8.75
489.231	8.82
489.433	8.83
489.636	8.81
489.839	8.85
490.042	8.81
490.245	8.84
490.447	8.93
490.65	9.05
490.853	9.11
491.056	9.29
491.258	9.38
491.461	9.49
491.664	9.62
491.866	9.64
492.069	9.78
492.272	9.81
492.474	9.91
492.677	9.92
492.879	10.06
493.082	10.14
493.285	10.33
493.487	10.32
493.69	10.38
493.892	10.46
494.095	10.55
494.297	10.6
494.5	10.72
494.702	10.82
494.905	10.98
495.107	10.97
495.309	11.06
495.512	11.29
495.714	11.48
495.917	11.52
496.119	11.67
496.321	11.86
496.524	11.91
496.726	11.99
496.928	12.17
497.13	12.33
497.333	12.41
497.535	12.56
497.737	12.65
497.939	12.79
498.142	12.93
498.344	12.91
498.546	12.94
498.748	13.12
498.95	13.3
499.152	13.26
499.355	13.43
499.557	13.61
499.759	13.75
499.961	13.72
500.163	13.9
500.365	13.99
500.567	14.13
500.769	14.04
500.971	14.1
501.173	14.04
501.375	14.09
501.577	14.05
501.779	14.12
501.981	14.2
502.183	14.31
502.385	14.28
502.587	14.24
502.788	14.33
502.99	14.32
503.192	14.42
503.394	14.47
503.596	14.52
503.798	14.57
503.999	14.66
504.201	14.57
504.403	14.61
504.605	14.64
504.806	14.54
505.008	14.51
505.21	14.64
505.411	14.63
505.613	14.56
505.815	14.56
506.016	14.57
506.218	14.56
506.42	14.48
506.621	14.57
506.823	14.61
507.024	14.56
507.226	14.43
507.427	14.4
507.629	14.32
507.83	14.33
508.032	14.28
508.233	14.37
508.435	14.39
508.636	14.49
508.838	14.41
509.039	14.44
509.24	14.38
509.442	14.4
509.643	14.19
509.845	14.18
510.046	14.23
510.247	14.24
510.448	14.18
510.65	14.33
510.851	14.37
511.052	14.24
511.254	14.15
511.455	14.22
511.656	14.17
511.857	14.15
512.058	14.16
512.26	14.16
512.461	14.14
512.662	14.14
512.863	14.03
513.064	13.96
513.265	14
513.466	13.99
513.667	13.89
513.868	13.93
514.069	14.03
514.27	14.07
514.471	13.98
514.672	14.09
514.873	14.07
515.074	14.08
515.275	13.95
515.476	13.98
515.677	13.97
515.878	14.12
516.079	14.11
516.28	14.16
516.481	14.24
516.682	14.2
516.882	14.01
517.083	13.93
517.284	13.89
517.485	13.8
517.686	13.76
517.886	13.83
518.087	13.93
518.288	14.01
518.488	13.98
518.689	14.01
518.89	13.9
519.091	13.87
519.291	13.82
519.492	13.87
519.692	13.92
519.893	14.08
520.094	14.04
520.294	14.01
520.495	13.98
520.695	14.02
520.896	13.95
521.096	13.96
521.297	14
521.497	13.97
521.698	13.87
521.898	13.82
522.099	13.85
522.299	13.91
522.499	13.9
522.7	13.92
522.9	13.96
523.101	14.03
523.301	14.02
523.501	14.05
523.702	14.06
523.902	14.13
524.102	14.16
524.302	14.07
524.503	14.2
524.703	14.25
524.903	14.25
525.103	14.11
525.304	14.23
525.504	14.14
525.704	14.19
525.904	14.13
526.104	14.15
526.304	14.13
526.504	14.09
526.705	14.12
526.905	14.25
527.105	14.34
527.305	14.36
527.505	14.36
527.705	14.35
527.905	14.31
528.105	14.32
528.305	14.29
528.505	14.4
528.705	14.42
528.905	14.42
529.105	14.41
529.304	14.47
529.504	14.54
529.704	14.45
529.904	14.43
530.104	14.4
530.304	14.48
530.503	14.4
530.703	14.39
530.903	14.45
531.103	14.5
531.303	14.47
531.502	14.5
531.702	14.63
531.902	14.66
532.101	14.69
532.301	14.67
532.501	14.76
532.7	14.79
532.9	14.75
533.1	14.72
533.299	14.77
533.499	14.72
533.698	14.67
533.898	14.76
534.097	14.84
534.297	14.96
534.496	14.96
534.696	15.05
534.895	15.13
535.095	15.23
535.294	15.15
535.494	15.12
535.693	15.1
535.892	15.11
536.092	15.03
536.291	15.07
536.491	15.23
536.69	15.29
536.889	15.18
537.088	15.17
537.288	15.26
537.487	15.32
537.686	15.32
537.886	15.46
538.085	15.51
538.284	15.53
538.483	15.46
538.682	15.57
538.882	15.66
539.081	15.78
539.28	15.7
539.479	15.75
539.678	15.71
539.877	15.76
540.076	15.75
540.275	15.84
540.474	15.9
540.673	16
540.872	15.9
541.071	15.95
541.27	15.96
541.469	16.04
541.668	16.02
541.867	16.13
542.066	16.14
542.265	16.26
542.464	16.26
542.663	16.36
542.862	16.53
543.06	16.63
543.259	16.71
543.458	16.74
543.657	16.8
543.856	16.82
544.054	16.77
544.253	16.74
544.452	16.75
544.651	16.74
544.849	16.62
545.048	16.71
545.247	16.74
545.445	16.84
545.644	16.86
545.843	16.95
546.041	16.98
546.24	17.08
546.438	17.09
546.637	17.18
546.836	17.28
547.034	17.34
547.233	17.34
547.431	17.38
547.63	17.39
547.828	17.43
548.027	17.44
548.225	17.47
548.423	17.49
548.622	17.56
548.82	17.64
549.019	17.7
549.217	17.86
549.415	17.96
549.614	18.07
549.812	18.03
550.01	18.02
550.209	18.13
550.407	18.24
550.605	18.21
550.803	18.35
551.002	18.54
551.2	18.49
551.398	18.54
551.596	18.75
551.794	18.88
551.993	18.96
552.191	19.09
552.389	19.23
552.587	19.29
552.785	19.3
552.983	19.32
553.181	19.4
553.379	19.5
553.577	19.54
553.775	19.6
553.973	19.73
554.171	19.88
554.369	19.85
554.567	19.9
554.765	19.96
554.963	20.08
555.161	20.06
555.359	20.23
555.557	20.45
555.755	20.62
555.952	20.67
556.15	20.77
556.348	20.85
556.546	20.88
556.744	20.99
556.941	21.07
557.139	21.22
557.337	21.36
557.535	21.35
557.732	21.37
557.93	21.58
558.128	21.65
558.325	21.65
558.523	21.76
558.721	21.93
558.918	21.94
559.116	22.12
559.313	22.23
559.511	22.44
559.708	22.46
559.906	22.6
560.104	22.63
560.301	22.85
560.498	22.92
560.696	23.01
560.893	23.11
561.091	23.32
561.288	23.38
561.486	23.46
561.683	23.69
561.88	23.81
562.078	23.84
562.275	23.83
562.473	23.96
562.67	24.13
562.867	24.23
563.064	24.44
563.262	24.63
563.459	24.77
563.656	24.92
563.853	25.07
564.051	25.13
564.248	25.28
564.445	25.41
564.642	25.43
564.839	25.65
565.036	25.83
565.234	26.04
565.431	26.17
565.628	26.31
565.825	26.38
566.022	26.55
566.219	26.55
566.416	26.74
566.613	26.87
566.81	26.96
567.007	26.87
567.204	26.94
567.401	26.97
567.598	27.12
567.795	27.14
567.991	27.3
568.188	27.5
568.385	27.6
568.582	27.72
568.779	27.93
568.976	28.02
569.172	28.21
569.369	28.27
569.566	28.28
569.763	28.4
569.96	28.56
570.156	28.56
570.353	28.69
570.55	28.76
570.746	28.8
570.943	28.8
571.14	28.8
571.336	28.86
571.533	29.02
571.729	29.11
571.926	29.32
572.123	29.57
572.319	29.59
572.516	29.53
572.712	29.52
572.909	29.49
573.105	29.45
573.302	29.66
573.498	29.77
573.695	29.81
573.891	29.84
574.087	29.92
574.284	29.87
574.48	29.85
574.677	29.96
574.873	30.06
575.069	30.19
575.266	30.29
575.462	30.4
575.658	30.42
575.854	30.54
576.051	30.56
576.247	30.49
576.443	30.49
576.639	30.51
576.835	30.44
577.032	30.31
577.228	30.54
577.424	30.54
577.62	30.49
577.816	30.55
578.012	30.62
578.208	30.48
578.404	30.53
578.6	30.59
578.796	30.53
578.993	30.59
579.189	30.51
579.384	30.32
579.58	30.31
579.776	30.23
579.972	30.18
580.168	30.17
580.364	30.36
580.56	30.34
580.756	30.42
580.952	30.36
581.148	30.4
581.343	30.36
581.539	30.42
581.735	30.38
581.931	30.47
582.127	30.49
582.322	30.47
582.518	30.46
582.714	30.47
582.909	30.5
583.105	30.51
583.301	30.5
583.496	30.54
583.692	30.45
583.888	30.26
584.083	30.33
584.279	30.4
584.474	30.27
584.67	30.36
584.866	30.5
585.061	30.22
585.257	30.25
585.452	30.25
585.648	30.14
585.843	30.1
586.039	30.27
586.234	30.18
586.429	30.18
586.625	30.31
586.82	30.29
587.015	30.28
587.211	30.23
587.406	30.29
587.601	30.23
587.797	30.21
587.992	30.14
588.187	30.32
588.383	30.24
588.578	30.17
588.773	30.17
588.968	30.16
589.163	30.16
589.359	30.22
589.554	30.25
589.749	30.24
589.944	30.36
590.139	30.3
590.334	30.35
590.529	30.34
590.724	30.5
590.919	30.52
591.114	30.61
591.309	30.69
591.504	30.85
591.699	30.78
591.894	30.86
592.089	30.73
592.284	30.67
592.479	30.77
592.674	30.78
592.869	30.87
593.064	31.07
593.259	31.26
593.454	31.39
593.648	31.52
593.843	31.53
594.038	31.56
594.233	31.44
594.428	31.41
594.622	31.42
594.817	31.58
595.012	31.62
595.206	31.78
595.401	31.79
595.596	31.93
595.79	31.93
595.985	32.13
596.18	32.26
596.374	32.43
596.569	32.53
596.763	32.49
596.958	32.56
597.153	32.59
597.347	32.54
597.542	32.63
597.736	32.74
597.931	32.76
598.125	32.74
598.319	32.99
598.514	32.96
598.708	33.14
598.903	33.21
599.097	33.37
599.291	33.33
599.486	33.4
599.68	33.36
599.874	33.48
600.069	33.58
600.263	33.52
600.457	33.65
600.651	33.74
600.846	33.72
601.04	33.76
601.234	33.9
601.428	33.96
601.622	33.98
601.817	34.05
602.011	34.17
602.205	34.16
602.399	34.11
602.593	34.13
602.787	34.12
602.981	33.92
603.175	33.98
603.369	33.92
603.563	34.03
603.757	34.08
603.951	34.22
604.145	34.15
604.339	34.29
604.533	34.12
604.727	34.06
604.921	33.93
605.115	34.03
605.309	34.02
605.502	34.06
605.696	33.96
605.89	34.03
606.084	33.86
606.278	33.79
606.471	33.75
606.665	33.71
606.859	33.54
607.053	33.58
607.246	33.47
607.44	33.41
607.634	33.42
607.827	33.44
608.021	33.37
608.214	33.39
608.408	33.24
608.602	33.17
608.795	33.06
608.989	32.98
609.182	32.85
609.376	32.91
609.569	32.8
609.763	32.69
609.956	32.57
610.15	32.53
610.343	32.44
610.537	32.43
610.73	32.48
610.923	32.49
611.117	32.49
611.31	32.37
611.504	32.3
611.697	32.03
611.89	31.94
612.083	31.71
612.277	31.65
612.47	31.49
612.663	31.54
612.856	31.47
613.05	31.32
613.243	31.25
613.436	31.18
613.629	31.09
613.822	30.9
614.015	30.9
614.209	30.77
614.402	30.7
614.595	30.67
614.788	30.59
614.981	30.5
615.174	30.36
615.367	30.22
615.56	30.07
615.753	30.06
615.946	29.98
616.139	30.03
616.332	30.15
616.525	30.04
616.718	30.05
616.911	30.09
617.103	30.01
617.296	29.91
617.489	29.94
617.682	29.81
617.875	29.76
618.067	29.7
618.26	29.49
618.453	29.53
618.646	29.53
618.838	29.47
619.031	29.58
619.224	29.55
619.417	29.45
619.609	29.47
619.802	29.38
619.994	29.23
620.187	29.32
620.38	29.21
620.572	29.06
620.765	29.06
620.957	28.93
621.15	28.81
621.342	28.78
621.535	28.79
621.727	28.76
621.92	28.71
622.112	28.69
622.305	28.83
622.497	28.76
622.69	28.78
622.882	29.01
623.074	29.03
623.267	28.89
623.459	28.78
623.651	28.64
623.844	28.47
624.036	28.45
624.228	28.43
624.42	28.45
624.613	28.62
624.805	28.53
624.997	28.47
625.189	28.44
625.381	28.44
625.574	28.27
625.766	28.2
625.958	28.09
626.15	28.14
626.342	28.18
626.534	28.17
626.726	28.26
626.918	28.43
627.11	28.35
627.302	28.21
627.494	28.19
627.686	28.12
627.878	27.85
628.07	27.77
628.262	27.8
628.454	27.81
628.646	27.73
628.838	27.83
629.029	27.76
629.221	27.78
629.413	27.55
629.605	27.43
629.797	27.38
629.989	27.42
630.18	27.3
630.372	27.32
630.564	27.34
630.755	27.36
630.947	27.37
631.139	27.28
631.33	27.2
631.522	27.29
631.714	27.26
631.905	27.2
632.097	27.24
632.289	27.3
632.48	27.22
632.672	27.07
632.863	26.91
633.055	26.83
633.246	26.89
633.438	26.85
633.629	26.82
633.821	26.82
634.012	26.87
634.203	26.71
634.395	26.61
634.586	26.62
634.777	26.64
634.969	26.62
635.16	26.74
635.351	26.72
635.543	26.72
635.734	26.66
635.925	26.65
636.117	26.67
636.308	26.74
636.499	26.66
636.69	26.62
636.881	26.52
637.073	26.5
637.264	26.45
637.455	26.59
637.646	26.71
637.837	26.75
638.028	26.58
638.219	26.61
638.41	26.4
638.601	26.24
638.792	26.21
638.983	26.26
639.174	26.23
639.365	26.45
639.556	26.49
639.747	26.47
639.938	26.57
640.129	26.43
640.32	26.21
640.511	26.2
640.701	26.35
640.892	26.12
641.083	26.24
641.274	26.4
641.465	26.36
641.655	26.2
641.846	26.23
642.037	26.12
642.228	26.01
642.418	26.1
642.609	26.09
642.8	26.14
642.99	26.14
643.181	26.24
643.372	26.21
643.562	26.21
643.753	26.1
643.943	26.08
644.134	25.87
644.324	25.74
644.515	25.68
644.705	25.83
644.896	25.8
645.086	25.84
645.277	25.79
645.467	25.85
645.658	25.69
645.848	25.65
646.038	25.68
646.229	25.66
646.419	25.56
646.61	25.6
646.8	25.61
646.99	25.5
647.18	25.44
647.371	25.37
647.561	25.25
647.751	25.32
647.941	25.36
648.132	25.36
648.322	25.3
648.512	25.4
648.702	25.27
648.892	25.31
649.082	25.32
649.272	25.29
649.462	25.08
649.653	25.03
649.843	24.84
650.033	24.9
650.223	24.81
650.413	24.78
650.603	24.76
650.793	24.8
650.983	24.69
651.172	24.75
651.362	24.73
651.552	24.58
651.742	24.51
651.932	24.38
652.122	24.31
652.312	24.37
652.502	24.43
652.691	24.4
652.881	24.32
653.071	24.33
653.261	24.08
653.45	23.87
653.64	23.77
653.83	23.67
654.019	23.43
654.209	23.44
654.399	23.36
654.588	23.17
654.778	23.03
654.968	22.83
655.157	22.61
655.347	22.52
655.536	22.43
655.726	22.24
655.915	22.13
656.105	22.03
656.294	21.87
656.484	21.59
656.673	21.53
656.863	21.54
657.052	21.32
657.241	21.03
657.431	20.84
657.62	20.68
657.809	20.3
657.999	20.08
658.188	19.93
658.377	19.76
658.567	19.42
658.756	19.23
658.945	19.01
659.134	18.82
659.324	18.57
659.513	18.42
659.702	18.17
659.891	18.07
660.08	17.79
660.269	17.7
660.458	17.51
660.648	17.31
660.837	16.95
661.026	16.81
661.215	16.62
661.404	16.35
661.593	16.28
661.782	15.97
661.971	15.85
662.16	15.61
662.349	15.49
662.538	15.31
662.726	15.3
662.915	15.05
663.104	14.76
663.293	14.65
663.482	14.63
663.671	14.41
663.86	14.25
664.048	14.18
664.237	14.02
664.426	13.69
664.615	13.6
664.803	13.58
664.992	13.49
665.181	13.3
665.369	13.19
665.558	13.12
665.747	12.87
665.935	12.86
666.124	12.82
666.312	12.75
666.501	12.59
666.69	12.43
666.878	12.32
667.067	12.14
667.255	12.18
667.444	12.5
667.632	12.63
667.82	12.64
668.009	12.64
668.197	12.43
668.386	12.13
668.574	12.12
668.762	11.99
668.951	11.87
669.139	11.89
669.327	11.75
669.516	11.75
669.704	11.69
669.892	11.88
670.08	11.81
670.269	11.74
670.457	11.61
670.645	11.44
670.833	11.37
671.021	11.47
671.21	11.48
671.398	11.75
671.586	11.78
671.774	11.69
671.962	11.58
672.15	11.63
672.338	11.31
672.526	11.47
672.714	11.47
672.902	11.6
673.09	11.83
673.278	12.13
673.466	12.15
673.654	12.42
673.842	12.48
674.03	12.48
674.218	12.36
674.405	12.41
674.593	12.31
674.781	12.45
674.969	12.42
675.157	12.57
675.344	12.72
675.532	12.81
675.72	12.86
675.908	13.04
676.095	13
676.283	13.09
676.471	13.35
676.658	13.49
676.846	13.5
677.033	13.82
677.221	13.97
677.409	13.75
677.596	13.79
677.784	13.9
677.971	13.88
678.159	14.02
678.346	14.32
678.534	14.37
678.721	14.6
678.909	14.73
679.096	14.71
679.283	14.99
679.471	15.21
679.658	15.33
679.846	15.55
680.033	16.02
680.22	16.08
680.408	16.1
680.595	16.2
680.782	16.21
680.969	16.14
681.157	16.23
681.344	16.53
681.531	16.59
681.718	16.76
681.905	17.09
682.093	17.4
682.28	17.74
682.467	18.2
682.654	18.57
682.841	18.68
683.028	18.91
683.215	19.11
683.402	19.1
683.589	19.39
683.776	19.72
683.963	19.81
684.15	20.09
684.337	20.58
684.524	20.77
684.711	21.08
684.898	21.37
685.085	21.58
685.271	22.01
685.458	22.36
685.645	22.61
685.832	23.23
686.019	23.7
686.205	23.81
686.392	24.32
686.579	24.76
686.766	24.97
686.952	25.27
687.139	25.99
687.326	26.39
687.512	26.87
687.699	27.46
687.886	27.83
688.072	28.17
688.259	28.62
688.445	29.12
688.632	29.65
688.818	30.53
689.005	31.06
689.191	31.46
689.378	32.13
689.564	32.63
689.751	33.08
689.937	33.55
690.124	34.25
690.31	34.65
690.496	35.29
690.683	35.83
690.869	36.54
691.055	37.21
691.242	38.26
691.428	38.89
691.614	39.54
691.8	40.39
691.987	40.97
692.173	41.2
692.359	41.78
692.545	42.6
692.731	42.73
692.918	43.42
693.104	44.01
693.29	44.61
693.476	45.16
693.662	46.18
693.848	46.83
694.034	47.51
694.22	48.19
694.406	49.01
694.592	49.68
694.778	50.34
694.964	51.07
695.15	51.73
695.336	52.01
695.522	52.75
695.708	53.25
695.894	53.88
696.08	54.6
696.265	55.2
696.451	55.72
696.637	56.19
696.823	56.68
697.009	56.79
697.194	57.41
697.38	57.81
697.566	58.35
697.751	58.88
697.937	60.04
698.123	60.49
698.308	61.12
698.494	61.57
698.68	62.08
698.865	62.37
699.051	63.2
699.236	63.6
699.422	64.35
699.607	64.75
699.793	64.86
699.978	64.81
700.164	65.12
700.349	65.69
700.535	65.99
700.72	66.53
700.906	67.23
701.091	67.72
701.276	67.84
701.462	68.67
701.647	69.54
701.832	70.05
702.018	70.41
702.203	70.61
702.388	70.4
702.573	70.44
702.759	70.81
702.944	70.92
703.129	71.34
703.314	72.08
703.499	72.17
703.684	72.13
703.87	73.09
704.055	73.47
704.24	73.83
704.425	74.32
704.61	74.76
704.795	74.57
704.98	74.73
705.165	74.3
705.35	74.7
705.535	74.9
705.72	75.09
705.905	75.58
706.09	76.33
706.275	76.26
706.459	76.37
706.644	76.45
706.829	76.71
707.014	76.87
707.199	77.32
707.384	77.88
707.568	77.96
707.753	78.14
707.938	78.3
708.123	78.3
708.307	77.83
708.492	78.4
708.677	78.33
708.861	78.12
709.046	77.94
709.231	78.7
709.415	78.95
709.6	78.86
709.784	79.25
709.969	79.73
710.153	79.28
710.338	79.08
710.522	79.37
710.707	79.55
710.891	79.51
711.076	79.73
711.26	79.61
711.445	79.86
711.629	79.97
711.813	80.05
711.998	80.49
712.182	80.53
712.366	80.98
712.551	81.42
712.735	81.41
712.919	81.54
713.103	82.01
713.288	81.78
713.472	81.19
713.656	82.04
713.84	82.03
714.024	82.16
714.208	81.79
714.393	82.51
714.577	81.67
714.761	81.77
714.945	81.78
715.129	81.92
715.313	81.85
715.497	82.29
715.681	82.99
715.865	82.91
716.049	83.19
716.233	82.76
716.417	83.15
716.601	82.71
716.785	82.93
716.968	83.34
717.152	83.8
717.336	83.47
717.52	82.91
717.704	83
717.888	82.95
718.071	83.1
718.255	83.61
718.439	83.89
718.622	84.16
718.806	84.41
718.99	83.9
719.174	83.81
719.357	84.19
719.541	83.9
719.724	83.65
719.908	84.8
720.092	85.17
720.275	85.31
720.459	85.33
720.642	84.98
720.826	83.96
721.009	83.46
721.193	83.09
721.376	83.31
721.559	83.99
721.743	84.85
721.926	84.93
722.11	85.13
722.293	84.72
722.476	84.13
722.66	83.53
722.843	83.26
723.026	82.83
723.21	83.34
723.393	84.26
723.576	84.67
723.759	84.73
723.942	85.35
724.126	85.1
724.309	84.72
724.492	84.51
724.675	84.66
724.858	84.54
725.041	84.94
725.224	85.05
725.407	85.69
725.59	86.32
725.774	86.26
725.957	85.72
726.14	85.46
726.322	85.67
726.505	85.05
726.688	86.01
726.871	86.38
727.054	86.73
727.237	86.11
727.42	86.73
727.603	86.08
727.786	86.13
727.968	86.68
728.151	86.73
728.334	86.69
728.517	87.09
728.699	87.43
728.882	86.69
729.065	87.47
729.248	88.11
729.43	87.91
729.613	88.87
729.796	89.98
729.978	88.81
730.161	88.03
730.343	88.17
730.526	88.28
730.708	86.91
730.891	87.37
731.073	87.35
731.256	87.25
731.438	86.85
731.621	88.59
731.803	89
731.986	89.28
732.168	88.91
732.35	88.71
732.533	88.19
732.715	88.27
732.898	88.88
733.08	89.5
733.262	90.35
733.444	89.62
733.627	90.53
733.809	90.97
733.991	92.05
734.173	91.14
734.355	91.69
734.538	90.88
734.72	89.86
734.902	89.29
735.084	89.66
735.266	89.92
735.448	90.54
735.63	90.71
735.812	90.51
735.994	91.69
736.176	91.53
736.358	91.59
736.54	93.02
736.722	92.79
736.904	90.97
737.086	91.76
737.268	92.32
737.45	91.75
737.632	92.31
737.814	93
737.995	92.98
738.177	92.43
738.359	91.37
738.541	91.61
738.723	91.3
738.904	90.7
739.086	90.3
739.268	90.41
739.449	90.65
739.631	90.83
739.813	91.5
739.994	92.05
740.176	92.95
740.358	92.69
740.539	93.69
740.721	94.32
740.902	95.09
741.084	95.11
741.265	94.61
741.447	93.57
741.628	92.87
741.81	91.97
741.991	92.47
742.172	93.21
742.354	94.77
742.535	94.34
742.717	94.36
742.898	94.21
743.079	93.68
743.261	93.07
743.442	93.12
743.623	94.31
743.804	94.77
743.986	95.83
744.167	94.77
744.348	94.98
744.529	93.79
744.71	92.05
744.891	91.14
745.073	91.67
745.254	91.51
745.435	91.3
745.616	90.75
745.797	91
745.978	90.75
746.159	91.1
746.34	90.26
746.521	93.15
746.702	91.72
746.883	91.58
747.064	91.58
747.245	92.3
747.426	91.13
747.606	92.83
747.787	92.72
747.968	92.8
748.149	94.24
748.33	93.95
748.51	93.45
748.691	93.43
748.872	93.54
749.053	92.2
749.233	90.59
749.414	89.75
749.595	89.24
749.775	87.69
749.956	87.29
750.137	88.75
750.317	90.08
750.498	91.72
750.678	93.19
750.859	93.34
751.04	92.67
751.22	90.84
751.4	89.47
751.581	87.22
751.761	88.11
751.942	89.25
752.122	90.38
752.303	90.24
752.483	91.4
752.663	89.92
752.844	88.03
753.024	88.48
753.204	89.32
753.385	88.12
753.565	88.84
753.745	89.36
753.925	87.83
754.106	87.62
754.286	88.03
754.466	87.46
754.646	88.9
754.826	88.65
755.006	87.52
755.187	89.19
755.367	89.56
755.547	89.06
755.727	91.37
755.907	91.64
756.087	91.45
756.267	91.1
756.447	91.49
756.627	88.37
756.807	89
756.987	87.07
757.167	86.96
757.346	87.26
757.526	87.49
757.706	88.59
757.886	90.43
758.066	90.9
758.246	90.43
758.425	90.96
758.605	88.99
758.785	88.73
758.965	88.74
759.144	87.3
759.324	87.97
759.504	89.01
759.683	87.96
759.863	86.36
760.043	86.01
760.222	85.91
760.402	84.89
760.581	84.75
760.761	88.21
760.94	88.05
761.12	90.09
761.299	90.51
761.479	91.41
761.658	88.48
761.838	88.16
762.017	86.61
762.197	87.5
762.376	87.18
762.555	88.67
762.735	89.6
762.914	88.57
763.093	88.17
763.273	88.07
763.452	87.83
763.631	87.65
763.81	86.52
763.99	85.46
764.169	85.35
764.348	82.75
764.527	81.68
764.706	84.51
764.885	86.51
765.064	84.86
765.243	87.01
765.423	88.84
765.602	87.86
765.781	83.8
765.96	83.53
766.139	82.51
766.318	82.26
766.497	80.97
766.676	83.66
766.854	86.91
767.033	87.05
767.212	86.41
767.391	86.97
767.57	87.31
767.749	88.1
767.928	89.33
768.106	88.52
768.285	86.68
768.464	86.7
768.643	84
768.821	83.54
769	85.71
769.179	86.98
769.357	83.56
769.536	83.74
769.715	83.43
769.893	83.09
770.072	82.71
770.25	84.54
770.429	85.14
770.607	85.43
770.786	84.16
770.964	85.52
771.143	84.33
771.321	84.13
771.5	83.97
771.678	83.5
771.857	82.48
772.035	83.7
772.213	82.95
772.392	80.55
772.57	82.4
772.748	84.45
772.927	82.83
773.105	81.88
773.283	83.43
773.461	82.13
773.64	79.8
773.818	81.98
773.996	83.72
774.174	82.63
774.352	80.67
774.531	78.94
774.709	80.4
774.887	78.62
775.065	77.6
775.243	78.63
775.421	80.38
775.599	79.53
775.777	80.38
775.955	80.39
776.133	78.46
776.311	77.52
776.489	74.28
776.667	73.57
776.844	75.8
777.022	76.55
777.2	77.93
777.378	78.45
777.556	79.34
777.734	81.24
777.911	83.99
778.089	82.78
778.267	82.39
778.445	78.72
778.622	76.56
778.8	74.36
778.978	76.07
779.155	76.64
779.333	78.49
779.511	78.08
779.688	80.31
779.866	75.28
780.043	73.18
780.221	72.61
780.398	69.76
780.576	69.63
780.753	72.74
780.931	72.57
781.108	72.65
781.286	75.19
781.463	72.15
781.64	68.17
781.818	72.2
781.995	73.33
782.172	73.31
782.35	72.89
782.527	77.63
782.704	75.8
782.882	77.87
783.059	77.17
783.236	79.5
783.413	80.53
783.59	80.97
783.768	74.31
783.945	74.91
784.122	72.83
784.299	69.6
784.476	67.42
784.653	68.99
784.83	67.49
785.007	63.92
785.184	67.29
785.361	64.75
785.538	70.59
785.715	72.97
785.892	77.24
786.069	76.37
786.246	84.27
786.423	80.56
786.6	80.59
786.776	84.02
786.953	85.23
787.13	84.55
787.307	83.63
787.484	82.5
787.66	79.63
787.837	76.66
788.014	72.36
788.191	70.69
788.367	66.86
788.544	67.46
788.721	68.33
788.897	70.74
789.074	72.77
789.25	72.43
789.427	73.09
789.603	72.51
789.78	71.36
789.956	72.83
790.133	73.17
790.309	72.59
790.486	77.19
790.662	75.06
790.839	74.67
791.015	78.23
791.192	75.25
791.368	74.14
791.544	72.51
791.721	71.39
791.897	72.17
792.073	68.39
792.249	61.8
792.426	68.35
792.602	71.65
792.778	72.9
792.954	77.8
793.13	78.16
793.307	67.94
793.483	59.41
793.659	56.79
793.835	60.75
794.011	60.9
794.187	67.99
794.363	66.52
794.539	67.34
794.715	59.27
794.891	60.52
795.067	56.55
795.243	61.71
795.419	58.42
795.595	58.55
795.771	55.37
795.947	57.44
796.122	51.82
796.298	56.7
796.474	57.92
796.65	58.33
796.826	59.41
797.001	64.86
797.177	59.21
797.353	64.7
797.529	72.33
797.704	69.69
797.88	67.08
798.056	60.7
798.231	58.03
798.407	56.72
798.582	56.98
798.758	67.42
798.934	78.95
799.109	74.74
799.285	68.79
799.46	75.75
799.636	68.64
799.811	61.51
799.986	64.63
800.162	67.18
800.337	64.42
800.513	57.77
800.688	60.67
800.863	66.07
801.039	60.85
801.214	54.94
801.389	61.05
801.565	59.65
801.74	49.13
801.915	56.48
802.09	54.66
802.265	61.07
802.441	59.73
802.616	64.15
802.791	58.68
802.966	62.17
803.141	56.5
803.316	54.58
803.491	58.04
803.666	61.73
803.841	60.21
804.016	59.69
804.191	60.46
804.366	56.71
804.541	57.66
804.716	52.54
804.891	48.1
805.066	55.11
805.241	53.2
805.416	49.8
805.591	49.14
805.765	53.5
805.94	53.49
806.115	55.52
806.29	51.16
806.464	57.16
806.639	55.62
806.814	49.3
806.989	42.6
807.163	59.15
807.338	60.53
807.512	59.4
807.687	46.64
807.862	63.31
808.036	57.56
808.211	58.32
808.385	69.26
808.56	87.8
808.734	84.25
808.909	82.39
809.083	80.37
809.258	76.55
809.432	68.35
809.606	56.08
809.781	56.23
809.955	59.06
810.13	61.48
810.304	60.83
810.478	61.39
810.652	64.91
810.827	70.4
811.001	60.93
811.175	57.23
811.349	54.71
811.524	46.11
811.698	30.18
811.872	39.17
812.046	45.79
812.22	57.33
812.394	57.23
812.568	60.63
812.742	56.9
812.916	48.31
813.09	38.83
813.264	32.3
813.438	41.12
813.612	37.61
813.786	31.21
813.96	38.13
814.134	44.9
814.308	53.69
814.482	60.25
814.656	69.92
814.83	68.3
815.003	69.38
815.177	56.64
815.351	50.26
815.525	57.29
815.698	50.48
815.872	38.35
816.046	27.78
816.219	38.64
816.393	44.37
816.567	50.89
816.74	59.54
816.914	69.78
817.088	66.74
817.261	53.89
817.435	44.68
817.608	45.07
817.782	30.3
817.955	33.03
818.129	32.05
818.302	44.43
818.475	55.27
818.649	61.87
818.822	45.04
818.996	66.21
819.169	63.44
819.342	44.12
819.516	45.25
819.689	53.99
819.862	37.61
820.035	32.11
820.209	28.95
820.382	37.69
820.555	43.82
820.728	34.58
820.901	31.83
821.075	39.08
821.248	41.94
821.421	20.83
821.594	32.44
821.767	53.02
821.94	69.5
822.113	37.51
822.286	46.08
822.459	46.5
822.632	29.27
822.805	6.57
822.978	23.92
823.151	17.05
823.324	8.29
823.496	-17.79
823.669	-10.05
823.842	-9.37
824.015	-16.78
824.188	-22.36
824.361	10.49
824.533	5.55
824.706	15.38
824.879	17.91
825.051	29.44
825.224	25.01
825.397	11.07
825.569	-5.75
825.742	22.61
825.915	44.32
826.087	49.75
826.26	42.03
826.432	48.53
826.605	42.71
826.777	27.99
826.95	29.79
827.122	31.75
827.295	35.83
827.467	35.99
827.64	11.52
827.812	-5.88
827.984	-9.09
828.157	-36.95
828.329	-70.74
828.501	-47.35
828.674	-4.41
828.846	-7.99
829.018	34.28
829.19	14.93
829.363	40.72
829.535	39.74
829.707	44.73
829.879	11.03
830.051	14.47
830.223	12.08
830.395	-29.72
830.568	-28.84
830.74	-33.46
830.912	1.39
831.084	-25.78
831.256	-15.53
831.428	-25.96
831.6	-23.48
831.772	-68.39
831.943	-72.35
832.115	-27.26
832.287	14.28
832.459	19.99
832.631	40.53
832.803	59.76
832.975	75.61
833.146	33.32
833.318	32.73
833.49	57.8
833.662	37.08
833.833	0.83
834.005	23.36
834.177	20.32
834.348	0.68
834.52	-7.24
834.692	-12.38
834.863	-50.23
835.035	-33.23
835.206	-97.3
835.378	-67.98
835.549	-55.96
835.721	-28.95
835.892	-31.67
836.064	-12.38
836.235	-25.83
836.407	-17.05
836.578	-55.56
836.749	-44.68
836.921	-104.6
837.092	-125.05
837.264	-106.92
837.435	-113.6
837.606	-60.62
837.777	-10.59
837.949	20.83
838.12	25.12
838.291	42.34
838.462	8.15
838.633	-26.84
838.805	-24.75
838.976	-34.46
839.147	-121.08
839.318	-78.5
839.489	-104.4
839.66	-83.84
839.831	-60.87
840.002	-50.82
840.173	-100.59
840.344	-31.52
840.515	-95.32
840.686	-231.03
840.857	-190.25
841.028	-112.31
841.199	-113.1
841.369	-140.88
841.54	-107.76
841.711	-57.1
841.882	-56.05
842.053	-50.89
842.223	-43.08
842.394	-24.53
842.565	-22.2
842.736	-5.86
842.906	-7.5
843.077	13.82
843.248	15.55
843.418	18.21
843.589	-12.8
843.759	47.9
843.93	10.23
844.101	8.45
844.271	9.09
844.442	23.48
844.612	33.71
844.783	5
844.953	-29.17
845.123	-42.94
845.294	-52.41
845.464	-256.57
845.635	-99.2
845.805	-40.22
845.975	-40.37
846.146	-90.36
846.316	-78
846.486	-37.22
846.656	10.75
846.827	12.02
846.997	20.27
847.167	60.5
847.337	10.8
847.507	-60.63
847.677	-37.22
847.848	18.58
848.018	19.52
848.188	31.82
848.358	10.35
848.528	-16.44
848.698	-63.23
848.868	-167.38
849.038	-295.9
849.208	-117.23
849.378	-61.04
849.548	-52.28
849.718	-33.53
849.887	-3.59
850.057	-11.26
850.227	-37.13
850.397	-70.5
850.567	-214.24
850.737	-635.87
850.906	-1974.38
851.076	-1351.17
851.246	-652.62
851.415	-98.98
851.585	-62.45
851.755	-88.58
851.924	-36.18
852.094	-66.69
852.264	-201.44
852.433	-1215.87
852.603	-206.81
852.772	-153.07
852.942	-83.23
853.111	-49.5
853.281	4.74
853.45	31.86
853.62	-73.18
853.789	-110.46
853.959	-135.4
854.128	-101.82
854.297	-156.16
854.467	-159.55
854.636	-130.18
854.805	-43.94
854.975	-100.37
855.144	-210
855.313	-219.23
855.482	-493.8
855.652	-371.3
855.821	-314.39
855.99	-30.33
856.159	-4.02
856.328	-3
856.497	-17.03
856.667	11.94
856.836	20.84
857.005	-23.36
857.174	-32.17
857.343	-13.84
857.512	-47
857.681	-110.03
857.85	-106.27
858.019	-62.15
858.188	-69.53
858.356	-75.38
858.525	-142.39
858.694	-122.59
858.863	-263.36
859.032	-199.05
859.201	-263.44
859.369	-186.35
859.538	-168.19
859.707	-105.92
859.876	-138.99
860.044	-136.09
860.213	-11.77
860.382	-35.88
860.55	-32.03
860.719	4.93
860.888	11.92
861.056	-45.16
861.225	-44.68
861.393	-15.49
861.562	-23.16
861.73	-118.65
861.899	-324.35
862.067	-2612.07
862.236	-144.67
862.404	-322.05
862.572	-176.7
862.741	-69.33
862.909	-53.57
863.078	-189.3
863.246	-91.26
863.414	-84.59
863.582	-35.82
863.751	-54.04
863.919	-62.63
864.087	-30.16
864.255	-6.2
864.424	-399.8
864.592	-80.7
864.76	-116.27
864.928	-550.8
865.096	-298.57
865.264	-216.31
865.432	-2737.5
865.6	-219.75
865.768	-165.43
865.936	-178.2
866.104	-148
866.272	-164.53
866.44	-397.44
866.608	610.6
866.776	311.85
866.944	2794.19
867.112	-584.11
867.28	-285.65
867.448	-146.49
867.615	-76.31
867.783	-64.88
867.951	-66.5
868.119	-36.33
868.286	-44.28
868.454	-165.97
868.622	-195.11
868.789	-182.14
868.957	-2303.57
869.125	-2727.63
869.292	-145.58
869.46	-220.78
869.627	-54.84
869.795	-66.47
869.963	-25.85
870.13	-7
870.298	6.31
870.465	-62.95
870.632	-95.28
870.8	-47.55
870.967	-111.05
871.135	-180.16
871.302	-145.35
871.469	-121.79
871.637	-219.4
871.804	-115.1
871.971	-134.88
872.139	-491.86
872.306	-79.69
872.473	-91.69
872.64	-393.35
872.807	-115.42
872.975	22.18
873.142	-250.36
873.309	2177.03
873.476	-1.4
873.643	39.43
873.81	-18.99
873.977	30.97
874.144	53.74
874.311	-94.24
874.478	-176.69
874.645	-209.43
874.812	-147.77
874.979	-113.31
875.146	-132.78
875.313	-145.3
875.48	-34.39
875.647	-33.11
875.813	-83.01
875.98	-57.55
876.147	-86.5
876.314	-205.89
876.481	1687.19
876.647	-1926.4
876.814	676.94
876.981	-227.88
877.147	-122.12
877.314	-39.03
877.481	-41.77
877.647	-28.27
877.814	-71.34
877.98	-122.13
878.147	-77.72
878.314	-18.47
878.48	-124.47
878.647	-126.09
878.813	-17.47
878.979	-3.56
879.146	-34.62
879.312	-19.2
879.479	-38.12
879.645	-180.96
879.811	-391.32
879.978	-1052.29
880.144	-328.23
880.31	-168.25
880.477	-472.8
880.643	-568.84
880.809	-231.18
880.975	-141.02
881.142	-784.09
881.308	-94.63
881.474	-27.82
881.64	-49.22
881.806	-156.26
881.972	-90.98
882.138	-61.59
882.304	-112.82
882.47	-270.16
882.636	-913.52
882.802	-214.49
882.968	-57.53
883.134	-40.8
883.3	-25.45
883.466	14.96
883.632	41.72
883.798	-18.73
883.964	-23.58
884.129	-40.09
884.295	-31.52
884.461	-114.62
884.627	-130.19
884.793	-174.82
884.958	-85.79
885.124	-207.77
885.29	-353.18
885.455	-693.93
885.621	-233.76
885.787	-334.32
885.952	-154.32
886.118	-145.58
886.283	-105.23
886.449	-218.39
886.614	-249.38
886.78	-512.88
886.945	1556.56
887.111	-914.74
887.276	-807.1
887.442	-1302.27
887.607	-565.33
887.773	-370.22
887.938	-341.91
888.103	-429.57
888.269	-276.05
888.434	-667.3
888.599	-326.66
888.764	-106.93
888.93	-15.15
889.095	-37.62
889.26	-37.24
889.425	16.42
889.59	-2.46
889.756	-81.16
889.921	-68.02
890.086	-5.61
890.251	-8.19
890.416	-152.06
890.581	-1599.19
890.746	230.89
890.911	585.67
891.076	279.98
891.241	-813.81
891.406	-54.27
891.571	-132.58
891.736	-421.79
891.901	-789.82
892.065	786.26
892.23	193.9
892.395	265.66
892.56	351.59
892.725	-200.39
892.889	-1042.68
893.054	-208.68
893.219	-99.91
893.384	-66.55
893.548	-154.85
893.713	-153.89
893.878	-90.42
