Data from Ofra_PS_T2_2A_8HS23_Reflection_1.txt Node
Date: Wed Jul 21 17:20:14 EDT 2021
User: Adam
Spectrometer: FLMT01687
Trigger mode: 0
Integration Time (sec): 1.100000E0
Scans to average: 2
Electric dark correction enabled: true
Nonlinearity correction enabled: false
Boxcar width: 2
XAxis mode: Wavelengths
Number of Pixels in Spectrum: 3648
>>>>>Begin Spectral Data<<<<<
179.494	472.6
179.716	580.71
179.937	590.68
180.158	581.69
180.38	1064.22
180.601	577.76
180.823	167.71
181.044	22.16
181.265	268.2
181.486	37.47
181.708	92.55
181.929	664.8
182.15	-420.77
182.372	85.56
182.593	32.84
182.814	54.43
183.035	112.91
183.257	108.6
183.478	81.97
183.699	102.47
183.92	53.3
184.141	33.93
184.363	-10.33
184.584	8.22
184.805	13.68
185.026	66.75
185.247	78.96
185.468	56.13
185.689	83.38
185.91	72.12
186.132	82.56
186.353	57.95
186.574	131.58
186.795	83.13
187.016	19.31
187.237	-22.87
187.458	-36.47
187.679	-54.17
187.9	-36.33
188.121	-8.78
188.342	31.39
188.563	49.19
188.784	83.1
189.005	81.67
189.226	118.99
189.447	83.11
189.667	4.98
189.888	-277.22
190.109	-1042.53
190.33	-622.42
190.551	-1251.99
190.772	-299.7
190.993	-203.76
191.214	-187.72
191.434	-100.42
191.655	-4.26
191.876	-28.02
192.097	-94.19
192.318	-122.08
192.538	-180.87
192.759	-134.63
192.98	-33.47
193.201	14.86
193.421	19.31
193.642	26.2
193.863	30.02
194.083	1.84
194.304	-18.57
194.525	-17.41
194.745	-8.32
194.966	-27.23
195.187	-29.23
195.407	-32.5
195.628	-71.16
195.848	-103.33
196.069	-87.18
196.29	-25.97
196.51	-26.89
196.731	-12.5
196.951	-31.27
197.172	-47.16
197.392	-93.76
197.613	-100.35
197.833	-121.97
198.054	-100.27
198.274	-51.38
198.495	-63.61
198.715	-24.18
198.936	-32.42
199.156	-26.85
199.377	-97.69
199.597	-85.04
199.817	-129.32
200.038	-66.33
200.258	-106.32
200.479	-45.68
200.699	-44.3
200.919	30.7
201.14	4.3
201.36	11.88
201.58	33.77
201.801	57.62
202.021	25.9
202.241	33.17
202.461	15.89
202.682	-52.4
202.902	-125.5
203.122	-72.36
203.342	-67.81
203.563	-11.28
203.783	5.63
204.003	-28.91
204.223	-10.74
204.443	31.37
204.663	4.7
204.884	18.69
205.104	53.41
205.324	56.66
205.544	56.84
205.764	68.21
205.984	60.89
206.204	58.1
206.424	50.01
206.644	19.65
206.864	24.41
207.084	21.55
207.304	48.79
207.525	19.14
207.745	26.13
207.964	22.03
208.184	-42.28
208.404	-90.64
208.624	-95.48
208.844	-76.38
209.064	-328.74
209.284	-296.57
209.504	-103.33
209.724	15.41
209.944	-8.54
210.164	14.86
210.384	6.61
210.604	-8.54
210.823	-66.01
211.043	-69.07
211.263	-54.28
211.483	-37.83
211.703	-69.18
211.922	-55.98
212.142	9.87
212.362	41.13
212.582	22.91
212.801	20.31
213.021	5.22
213.241	11.59
213.461	-30.52
213.68	-25.55
213.9	2.58
214.12	21.72
214.339	-42.7
214.559	-17.91
214.779	15.21
214.998	2.56
215.218	-27.5
215.438	-32.5
215.657	-40.37
215.877	-62.79
216.096	-23.05
216.316	-1.64
216.535	13.93
216.755	22.61
216.974	10.2
217.194	-35.43
217.413	-41.59
217.633	-28.32
217.852	-149.47
218.072	-60.35
218.291	-34.25
218.511	2.57
218.73	-24.98
218.95	-18.23
219.169	-17.81
219.389	-39.45
219.608	-50.36
219.827	-26.21
220.047	-2.53
220.266	-1.08
220.485	6.2
220.705	22.86
220.924	-14.05
221.143	19.84
221.363	-1.6
221.582	-0.27
221.801	4.47
222.021	32.47
222.24	-21.19
222.459	27.58
222.678	28.55
222.897	-34.45
223.117	-66.74
223.336	-58.66
223.555	-45.42
223.774	-20.52
223.993	4.93
224.213	32.85
224.432	4.68
224.651	35.3
224.87	24.41
225.089	42.36
225.308	38.27
225.527	59.23
225.746	52.32
225.965	49.83
226.184	13.35
226.404	23.6
226.623	-8.91
226.842	-10.58
227.061	8.56
227.28	20.68
227.499	5.45
227.718	31.05
227.936	34.92
228.155	36.73
228.374	33.74
228.593	29.36
228.812	24.95
229.031	18.26
229.25	-34.92
229.469	-44.94
229.688	-25.13
229.907	19.97
230.125	30.3
230.344	41.1
230.563	60.39
230.782	71
231.001	-8.78
231.22	8.5
231.438	41.46
231.657	27.35
231.876	11.52
232.095	60.41
232.313	57.96
232.532	48.06
232.751	11.91
232.969	-12.69
233.188	-74.92
233.407	12.35
233.625	-5.34
233.844	-4.38
234.063	10.11
234.281	29.39
234.5	3.51
234.719	19.37
234.937	40.16
235.156	49.33
235.374	45.17
235.593	30.02
235.811	22.77
236.03	-2.15
236.249	-46.69
236.467	-28.02
236.686	6.8
236.904	25.42
237.123	0.89
237.341	1.97
237.559	-3.02
237.778	-28.74
237.996	-62.23
238.215	11.73
238.433	17.77
238.652	19.93
238.87	6.91
239.088	27.45
239.307	14.24
239.525	9.34
239.743	-10.11
239.962	1.92
240.18	-25.22
240.398	-66.61
240.617	-63.87
240.835	-59.12
241.053	-25.91
241.271	29.97
241.49	35.12
241.708	31.22
241.926	47.91
242.144	31.78
242.363	-59.54
242.581	-88.23
242.799	-19.36
243.017	2.09
243.235	-4.26
243.453	17.2
243.672	23.99
243.89	8.91
244.108	-9.07
244.326	8.62
244.544	9.45
244.762	10.81
244.98	15.91
245.198	30.61
245.416	0.32
245.634	19.89
245.852	29.14
246.07	21.87
246.288	17.27
246.506	-13.95
246.724	-9.11
246.942	-10
247.16	39.86
247.378	41.01
247.596	72.85
247.814	63.13
248.032	36.81
248.25	11.81
248.468	12.45
248.685	14.71
248.903	44.23
249.121	60.36
249.339	36.84
249.557	23.21
249.775	27.06
249.992	-47.68
250.21	-53.18
250.428	-36.51
250.646	-54.98
250.863	-74.81
251.081	-21.49
251.299	-6.16
251.517	15.86
251.734	29.41
251.952	29.75
252.17	8.57
252.387	6.14
252.605	-13.36
252.823	-4.31
253.04	5.9
253.258	32.21
253.475	19.22
253.693	55.79
253.911	47.53
254.128	49.74
254.346	28.92
254.563	14.76
254.781	-15.55
254.998	-33.67
255.216	-55.44
255.433	-34.29
255.651	23.04
255.868	37.4
256.086	72.04
256.303	46.11
256.521	32.64
256.738	5.97
256.956	-12.19
257.173	-26.88
257.39	-19.1
257.608	-33.77
257.825	36.03
258.043	74.98
258.26	57.44
258.477	87.35
258.695	76.35
258.912	11.16
259.129	4.74
259.346	-19.57
259.564	-36.27
259.781	-52.67
259.998	18.21
260.216	47.84
260.433	76.38
260.65	65.51
260.867	83.81
261.084	38.76
261.302	3.45
261.519	-11.8
261.736	-52.11
261.953	-60.74
262.17	-24.17
262.387	-38.86
262.604	-68.43
262.822	-51.19
263.039	-45.55
263.256	-93.68
263.473	-46.58
263.69	-26.32
263.907	16.43
264.124	16.42
264.341	41.91
264.558	22.75
264.775	38.88
264.992	26.73
265.209	26.61
265.426	38.36
265.643	47.86
265.86	43.97
266.077	42.14
266.294	37.45
266.51	-10.58
266.727	-38.82
266.944	-25.4
267.161	-28.65
267.378	-23.76
267.595	20.34
267.812	-1.39
268.028	-14.55
268.245	-1.96
268.462	-10.39
268.679	-25.14
268.896	33.08
269.112	35.35
269.329	34.86
269.546	37.08
269.763	29.68
269.979	14.78
270.196	8.42
270.413	-17.65
270.629	-45.72
270.846	-54.25
271.063	-35.39
271.279	-49.27
271.496	-33.7
271.712	8.46
271.929	33.95
272.146	11.82
272.362	20.3
272.579	53.02
272.795	74.19
273.012	61.82
273.228	58.96
273.445	37.07
273.661	-8.9
273.878	-63.48
274.094	-42.32
274.311	-65.44
274.527	-7.05
274.744	2.17
274.96	-3.5
275.177	1.39
275.393	29.33
275.609	36.97
275.826	46.28
276.042	56.95
276.259	32.85
276.475	32.35
276.691	25.08
276.908	10.07
277.124	26.1
277.34	37.16
277.557	40.87
277.773	32.47
277.989	36.85
278.205	7.8
278.422	31.12
278.638	34.09
278.854	47.7
279.07	62.3
279.286	60.27
279.503	24.84
279.719	-0.36
279.935	-15.66
280.151	-36.11
280.367	7.62
280.583	-1.09
280.799	5.83
281.016	-12.12
281.232	17.64
281.448	15.34
281.664	49.07
281.88	32.97
282.096	46.54
282.312	60.64
282.528	82.93
282.744	75.43
282.96	68.53
283.176	46.16
283.392	28.43
283.608	6.31
283.824	-4.51
284.04	9.67
284.256	21.92
284.471	4.55
284.687	0.79
284.903	25.47
285.119	45.87
285.335	16.95
285.551	46.69
285.767	48.57
285.982	10.21
286.198	-29.61
286.414	38.09
286.63	38.03
286.846	49.72
287.061	48.1
287.277	74.93
287.493	44.67
287.709	55.8
287.924	39.66
288.14	68.52
288.356	53.37
288.571	75.75
288.787	51.55
289.003	54
289.218	26.7
289.434	-8.78
289.65	-7.89
289.865	-8.27
290.081	12.46
290.296	33.38
290.512	37.64
290.727	-10.45
290.943	-9.78
291.159	-22.99
291.374	-27.72
291.59	-47.57
291.805	-34.64
292.021	-27.55
292.236	-22.45
292.451	-3.67
292.667	15.36
292.882	46.11
293.098	51.71
293.313	28.19
293.529	2.2
293.744	-16.58
293.959	-38.06
294.175	-29.07
294.39	7.35
294.605	20.82
294.821	42.51
295.036	38.87
295.251	50.23
295.467	37.36
295.682	24.58
295.897	-22.84
296.112	-15.78
296.328	-31.33
296.543	-50.89
296.758	-24.04
296.973	21.38
297.188	43.05
297.404	8.91
297.619	-2.27
297.834	-22.14
298.049	-41.9
298.264	-67.19
298.479	2.77
298.694	11.54
298.909	32.75
299.125	38.72
299.34	48.3
299.555	22.33
299.77	36.47
299.985	-5.81
300.2	-54.7
300.415	-68
300.63	-24.13
300.845	-31.1
301.06	-19.58
301.275	13.73
301.49	29.83
301.704	14.34
301.919	-12.11
302.134	-29.93
302.349	-33.1
302.564	-95.49
302.779	-139.21
302.994	-121.12
303.209	-60.81
303.423	-9.52
303.638	48.73
303.853	22.83
304.068	32.69
304.283	27.85
304.497	8.51
304.712	-8.41
304.927	9.96
305.142	2.67
305.356	17.57
305.571	23.54
305.786	15.69
306	-3.41
306.215	1.2
306.43	-15.61
306.644	-13.2
306.859	58.16
307.074	51.75
307.288	29.85
307.503	21.55
307.717	4.07
307.932	-17.13
308.147	-18.85
308.361	1.34
308.576	-3.4
308.79	-37.44
309.005	-35.82
309.219	-19.56
309.434	-20.33
309.648	-19.79
309.863	6.2
310.077	11.52
310.292	3.14
310.506	6.47
310.72	14.58
310.935	27.69
311.149	27.88
311.364	40.37
311.578	49.89
311.792	52.21
312.007	57.3
312.221	39.11
312.435	38.58
312.649	21.26
312.864	51.98
313.078	35.79
313.292	83.71
313.507	92.19
313.721	119.84
313.935	46.56
314.149	43.79
314.363	38.49
314.578	33.15
314.792	24.93
315.006	18.92
315.22	34.86
315.434	38.15
315.648	52.27
315.862	55.45
316.077	54.74
316.291	46.24
316.505	38.63
316.719	10.86
316.933	-11.81
317.147	9.36
317.361	-36.05
317.575	-37.21
317.789	-50.35
318.003	-70.92
318.217	-46.27
318.431	31.37
318.645	44.88
318.859	32.85
319.073	70.41
319.287	43.32
319.5	7.65
319.714	-30.91
319.928	-44.36
320.142	-93.36
320.356	-27.65
320.57	12.59
320.784	22.51
320.997	22.96
321.211	49.72
321.425	-23.42
321.639	-50.07
321.853	-11.82
322.066	9.34
322.28	-0.26
322.494	32.28
322.707	50.63
322.921	39.71
323.135	34.05
323.349	39.4
323.562	2.81
323.776	-13.63
323.989	1.22
324.203	-4.47
324.417	-11.49
324.63	-0.96
324.844	2.48
325.057	-3.26
325.271	-7.09
325.485	22.28
325.698	50.62
325.912	67.76
326.125	54.08
326.339	53.65
326.552	38.6
326.766	27.83
326.979	32.02
327.193	71.07
327.406	59.1
327.619	47.68
327.833	58.43
328.046	34.8
328.26	-21.52
328.473	6.29
328.686	-10.26
328.9	-23.81
329.113	-5.12
329.326	-1.39
329.54	9.03
329.753	-3.55
329.966	-9.74
330.179	-16.48
330.393	10.81
330.606	6.65
330.819	31.2
331.032	35.54
331.246	35.83
331.459	49.03
331.672	42.87
331.885	32.36
332.098	20.59
332.311	17.2
332.525	-23.49
332.738	3.37
332.951	21.02
333.164	45.19
333.377	47.87
333.59	66.01
333.803	56.44
334.016	54.93
334.229	46.26
334.442	64.39
334.655	86.48
334.868	98.3
335.081	92.53
335.294	72.35
335.507	64.38
335.72	33.37
335.933	15.61
336.146	6.36
336.359	9.29
336.572	-24.32
336.785	-36.76
336.997	-27.01
337.21	-13.66
337.423	-16.14
337.636	-17.51
337.849	-5.28
338.062	-19.75
338.274	-8.69
338.487	-8.56
338.7	1.9
338.913	-36.62
339.125	-46.5
339.338	-95.62
339.551	-80.18
339.763	-47.93
339.976	-5.46
340.189	10.67
340.402	26.28
340.614	23.75
340.827	30.11
341.039	22.69
341.252	18.25
341.465	34.72
341.677	36.82
341.89	-3.69
342.102	18.66
342.315	19.72
342.527	-31.53
342.74	-35.86
342.952	4.27
343.165	-11.08
343.377	11.23
343.59	23.87
343.802	40.13
344.015	45.04
344.227	58.45
344.44	46.09
344.652	44.06
344.864	25.65
345.077	32.3
345.289	31.8
345.502	34.09
345.714	23.7
345.926	36.44
346.139	32.48
346.351	35.07
346.563	33.93
346.775	51.61
346.988	33.82
347.2	28.83
347.412	0.64
347.624	-13.63
347.837	-40.48
348.049	-12.74
348.261	-2.79
348.473	12.38
348.685	11.46
348.897	7.06
349.11	-7.3
349.322	-4.29
349.534	13.18
349.746	19.36
349.958	39.9
350.17	52.19
350.382	43.87
350.594	29.03
350.806	39.11
351.018	32.4
351.23	14.81
351.442	-29.29
351.654	-33.52
351.866	-49.68
352.078	-30.16
352.29	17.98
352.502	40.9
352.714	51.42
352.926	51.92
353.138	33.11
353.35	4.31
353.561	3.49
353.773	-21.01
353.985	-12.23
354.197	-12.33
354.409	-11.84
354.621	-21.28
354.832	1.41
355.044	-7.21
355.256	-6.57
355.468	9.63
355.679	-1.72
355.891	-7.47
356.103	-12.38
356.314	-5.08
356.526	-6.09
356.738	8.74
356.949	4.27
357.161	8.78
357.373	3.93
357.584	-5.57
357.796	10.84
358.008	16.53
358.219	39.67
358.431	47.38
358.642	45.36
358.854	53.18
359.065	32.99
359.277	4.5
359.488	-4.62
359.7	-2.98
359.911	-39.87
360.123	-7.87
360.334	-22.33
360.546	-24.63
360.757	-32.46
360.969	-5.41
361.18	-13.51
361.391	2.59
361.603	-8.91
361.814	-2.68
362.025	-6.11
362.237	-12.54
362.448	21.11
362.659	39.16
362.871	46.85
363.082	41.82
363.293	51.07
363.504	26.74
363.716	-1.42
363.927	-18.2
364.138	-51.32
364.349	-49.59
364.56	-42.18
364.772	-25.93
364.983	0.41
365.194	19.54
365.405	23.4
365.616	41.79
365.827	36.11
366.038	15.41
366.25	5.27
366.461	-11.96
366.672	-3.17
366.883	21.63
367.094	28.3
367.305	22.31
367.516	21.01
367.727	-2.68
367.938	-11.33
368.149	-9.22
368.36	7.2
368.571	12.27
368.781	-1.65
368.992	-19.82
369.203	-40.84
369.414	-60.56
369.625	-60.36
369.836	-39.53
370.047	-52.1
370.258	-41.34
370.468	-35.97
370.679	-47.89
370.89	-42.22
371.101	-24.1
371.312	-19.61
371.522	-23.9
371.733	-11.04
371.944	2.6
372.155	21.27
372.365	8.08
372.576	5.97
372.787	0.33
372.997	-27.15
373.208	-38.94
373.419	7.95
373.629	-7.06
373.84	-7.15
374.05	-10.95
374.261	7.51
374.472	-31.32
374.682	10.95
374.893	19.35
375.103	52.93
375.314	41.9
375.524	38.51
375.735	36.42
375.945	34.34
376.156	10.17
376.366	14.94
376.577	27.23
376.787	15.04
376.997	18.05
377.208	17.84
377.418	5.72
377.629	17.55
377.839	26.83
378.049	17.52
378.26	27.82
378.47	36.67
378.68	19.67
378.89	12.62
379.101	12.29
379.311	-10.61
379.521	-47.38
379.732	-34.5
379.942	-37.93
380.152	-58.44
380.362	-27.02
380.572	-8.4
380.783	-2.14
380.993	13.88
381.203	37.06
381.413	49.89
381.623	44.82
381.833	38.93
382.043	25.52
382.253	18.51
382.463	13.15
382.674	14.6
382.884	-1.14
383.094	1.03
383.304	8.94
383.514	10.39
383.724	23.69
383.934	16.51
384.144	12.5
384.353	-2.6
384.563	-9.15
384.773	-8.48
384.983	-7.68
385.193	6.41
385.403	17.09
385.613	22.8
385.823	11.74
386.033	18.73
386.242	12.14
386.452	10.05
386.662	3.09
386.872	18.19
387.082	13.76
387.291	9.32
387.501	11.79
387.711	16.55
387.921	6.51
388.13	10.03
388.34	18.62
388.55	9.82
388.759	8.74
388.969	17.08
389.179	14.82
389.388	13.63
389.598	22.26
389.807	16.69
390.017	10.6
390.227	12.34
390.436	9.38
390.646	9.58
390.855	15.61
391.065	16.61
391.274	14.66
391.484	14.54
391.693	17.09
391.903	18.39
392.112	20.82
392.322	23.38
392.531	28.39
392.74	28.16
392.95	24.63
393.159	24.19
393.369	25.39
393.578	24.16
393.787	21.32
393.997	22.73
394.206	22.37
394.415	21.55
394.625	21.12
394.834	21.41
395.043	20.6
395.252	21.59
395.462	24.08
395.671	25.28
395.88	26.96
396.089	28.04
396.298	26.2
396.508	24.25
396.717	23.46
396.926	23.06
397.135	23.67
397.344	23.78
397.553	24.53
397.762	25.92
397.971	26.71
398.181	26.68
398.39	26.91
398.599	27.02
398.808	26.44
399.017	26.88
399.226	28.22
399.435	28.92
399.644	29.2
399.853	28.82
400.062	27.93
400.27	26.83
400.479	26.03
400.688	25.35
400.897	25.36
401.106	25.18
401.315	25.02
401.524	25.14
401.733	25.77
401.941	26.62
402.15	27.12
402.359	26.97
402.568	27.36
402.777	27.11
402.985	26.57
403.194	26.1
403.403	26.01
403.612	25.62
403.82	25.46
404.029	25.47
404.238	25.36
404.446	25.57
404.655	25.51
404.864	25.3
405.072	24.9
405.281	24.99
405.489	24.55
405.698	24.63
405.906	24.53
406.115	24.53
406.324	24.31
406.532	24.42
406.741	24.24
406.949	24.39
407.158	24.32
407.366	24.28
407.574	24.17
407.783	24.21
407.991	23.81
408.2	23.87
408.408	24.03
408.617	23.85
408.825	23.66
409.033	23.79
409.242	23.75
409.45	23.86
409.658	23.78
409.867	23.85
410.075	23.73
410.283	23.49
410.491	23.08
410.7	23.05
410.908	22.9
411.116	23.16
411.324	23.05
411.533	23.02
411.741	23.15
411.949	23.33
412.157	22.96
412.365	23.11
412.573	22.98
412.781	22.87
412.99	22.62
413.198	22.87
413.406	22.69
413.614	22.7
413.822	22.68
414.03	22.55
414.238	22.13
414.446	22.34
414.654	22.11
414.862	22.1
415.07	22.03
415.278	22.28
415.486	21.82
415.694	21.91
415.902	21.77
416.109	21.82
416.317	21.68
416.525	21.57
416.733	21.54
416.941	21.5
417.149	21.35
417.357	21.36
417.564	21.69
417.772	22.04
417.98	21.87
418.188	21.95
418.395	21.84
418.603	21.89
418.811	21.31
419.019	21.46
419.226	21.55
419.434	21.56
419.642	21.25
419.849	21.33
420.057	21.15
420.265	20.92
420.472	20.65
420.68	20.54
420.887	20.56
421.095	20.77
421.302	20.81
421.51	21.04
421.717	21.09
421.925	21.09
422.132	20.78
422.34	20.42
422.547	20.38
422.755	20.44
422.962	20.41
423.17	20.53
423.377	20.67
423.585	20.55
423.792	20.53
423.999	20.44
424.207	20.28
424.414	20.4
424.621	20.47
424.829	20.25
425.036	20.34
425.243	20.34
425.451	20.27
425.658	20
425.865	20.3
426.072	20.25
426.28	20.72
426.487	20.74
426.694	21.07
426.901	20.87
427.108	20.83
427.315	20.43
427.523	20.65
427.73	20.41
427.937	20.33
428.144	20.12
428.351	20.06
428.558	20.12
428.765	20.09
428.972	20.15
429.179	20.65
429.386	20.93
429.593	20.69
429.8	20.79
430.007	20.87
430.214	20.61
430.421	20.26
430.628	20.2
430.835	20.04
431.042	20.17
431.249	20.36
431.456	20.64
431.662	20.64
431.869	21.06
432.076	21.06
432.283	21.06
432.49	21.06
432.697	21.25
432.903	20.9
433.11	20.91
433.317	21.03
433.524	21.27
433.73	21.23
433.937	21.66
434.144	21.7
434.35	21.63
434.557	21.38
434.764	21.37
434.97	21.11
435.177	21.29
435.384	21.24
435.59	21.41
435.797	21.66
436.003	21.89
436.21	21.74
436.416	22.03
436.623	22
436.829	22.02
437.036	22
437.242	22.07
437.449	21.83
437.655	21.98
437.862	22.01
438.068	22.13
438.275	22.21
438.481	22.47
438.687	22.39
438.894	22.31
439.1	22.24
439.307	22.49
439.513	22.31
439.719	22.35
439.926	22.48
440.132	22.38
440.338	22.02
440.544	22.31
440.751	22.19
440.957	22.35
441.163	22.37
441.369	22.54
441.575	22.18
441.782	22.3
441.988	22.08
442.194	22.13
442.4	22.17
442.606	22.46
442.812	22.49
443.018	22.58
443.224	22.65
443.431	22.74
443.637	22.52
443.843	22.37
444.049	22.34
444.255	22.23
444.461	22.17
444.667	22.21
444.873	22.5
445.079	22.5
445.284	22.7
445.49	22.5
445.696	22.46
445.902	22.38
446.108	22.39
446.314	22.32
446.52	22.56
446.726	22.75
446.931	22.76
447.137	22.78
447.343	22.77
447.549	22.69
447.755	22.65
447.96	22.62
448.166	22.57
448.372	22.5
448.578	22.61
448.783	22.57
448.989	22.7
449.195	22.98
449.4	23.04
449.606	22.96
449.812	22.87
450.017	22.8
450.223	22.67
450.428	22.63
450.634	22.75
450.84	22.96
451.045	22.88
451.251	22.74
451.456	23
451.662	23
451.867	22.98
452.073	23.04
452.278	23.15
452.483	23.17
452.689	23
452.894	22.92
453.1	22.85
453.305	22.79
453.51	22.64
453.716	22.75
453.921	22.77
454.127	22.83
454.332	22.74
454.537	22.68
454.742	22.66
454.948	22.74
455.153	22.72
455.358	22.92
455.563	23.11
455.769	23.18
455.974	23.05
456.179	22.97
456.384	22.9
456.589	22.85
456.795	22.74
457	22.85
457.205	23.05
457.41	23.09
457.615	23.07
457.82	23.14
458.025	23.07
458.23	22.9
458.435	22.91
458.64	22.8
458.845	22.81
459.05	22.78
459.255	22.84
459.46	22.76
459.665	22.72
459.87	22.57
460.075	22.57
460.28	22.63
460.485	22.69
460.69	22.77
460.895	22.83
461.099	22.79
461.304	22.85
461.509	22.93
461.714	22.9
461.919	22.97
462.123	22.95
462.328	23.1
462.533	22.96
462.738	23
462.942	23.01
463.147	23.17
463.352	23.1
463.556	23.13
463.761	23.32
463.966	23.44
464.17	23.39
464.375	23.18
464.58	23.18
464.784	23.07
464.989	22.87
465.193	22.85
465.398	22.93
465.602	23.11
465.807	23.16
466.011	23.3
466.216	23.28
466.42	23.35
466.625	23.35
466.829	23.34
467.034	23.41
467.238	23.6
467.443	23.55
467.647	23.43
467.851	23.54
468.056	23.61
468.26	23.63
468.464	23.66
468.669	23.81
468.873	23.77
469.077	23.72
469.282	23.89
469.486	23.89
469.69	23.93
469.894	23.92
470.099	24.04
470.303	23.95
470.507	23.94
470.711	23.86
470.915	23.83
471.119	23.64
471.324	23.47
471.528	23.58
471.732	23.68
471.936	23.74
472.14	23.94
472.344	24.15
472.548	24.12
472.752	24.26
472.956	24.55
473.16	24.47
473.364	24.4
473.568	24.42
473.772	24.41
473.976	24.17
474.18	24.12
474.384	24.3
474.588	24.35
474.792	24.3
474.995	24.39
475.199	24.49
475.403	24.47
475.607	24.54
475.811	24.41
476.015	24.51
476.218	24.63
476.422	24.5
476.626	24.48
476.83	24.64
477.033	24.56
477.237	24.4
477.441	24.42
477.644	24.47
477.848	24.41
478.052	24.37
478.255	24.47
478.459	24.55
478.663	24.72
478.866	24.76
479.07	24.91
479.273	25.07
479.477	25.11
479.681	25
479.884	25
480.088	24.85
480.291	24.76
480.495	24.68
480.698	24.71
480.901	24.78
481.105	25.02
481.308	24.93
481.512	24.95
481.715	25.08
481.919	25.07
482.122	25.06
482.325	25.22
482.529	25.35
482.732	25.3
482.935	25.16
483.138	25.03
483.342	25.06
483.545	25.13
483.748	25.15
483.952	25.37
484.155	25.54
484.358	25.54
484.561	25.46
484.764	25.28
484.967	25.28
485.171	25.27
485.374	25.23
485.577	25.37
485.78	25.56
485.983	25.59
486.186	25.53
486.389	25.44
486.592	25.35
486.795	25.35
486.998	25.23
487.201	25.19
487.404	25.35
487.607	25.4
487.81	25.29
488.013	25.38
488.216	25.42
488.419	25.38
488.622	25.35
488.825	25.35
489.028	25.39
489.231	25.38
489.433	25.23
489.636	25.17
489.839	25.18
490.042	25.01
490.245	25.01
490.447	25.17
490.65	25.23
490.853	25.22
491.056	25.3
491.258	25.35
491.461	25.34
491.664	25.28
491.866	25.28
492.069	25.32
492.272	25.22
492.474	25.22
492.677	25.27
492.879	25.22
493.082	25.26
493.285	25.4
493.487	25.36
493.69	25.32
493.892	25.3
494.095	25.31
494.297	25.32
494.5	25.41
494.702	25.39
494.905	25.51
495.107	25.34
495.309	25.29
495.512	25.3
495.714	25.34
495.917	25.36
496.119	25.47
496.321	25.48
496.524	25.51
496.726	25.58
496.928	25.63
497.13	25.68
497.333	25.72
497.535	25.74
497.737	25.61
497.939	25.58
498.142	25.65
498.344	25.55
498.546	25.41
498.748	25.62
498.95	25.67
499.152	25.53
499.355	25.65
499.557	25.66
499.759	25.72
499.961	25.74
500.163	25.78
500.365	25.75
500.567	25.94
500.769	25.76
500.971	25.68
501.173	25.64
501.375	25.67
501.577	25.59
501.779	25.59
501.981	25.59
502.183	25.64
502.385	25.61
502.587	25.51
502.788	25.67
502.99	25.77
503.192	25.88
503.394	25.95
503.596	26.08
503.798	26.04
503.999	26.1
504.201	26.06
504.403	26.02
504.605	26.02
504.806	25.87
505.008	25.77
505.21	25.81
505.411	25.89
505.613	25.95
505.815	26.09
506.016	26.12
506.218	26.18
506.42	26.04
506.621	25.96
506.823	26.02
507.024	26.03
507.226	26
507.427	26.11
507.629	26.2
507.83	26.25
508.032	26.21
508.233	26.33
508.435	26.46
508.636	26.54
508.838	26.44
509.039	26.51
509.24	26.49
509.442	26.4
509.643	26.34
509.845	26.42
510.046	26.52
510.247	26.58
510.448	26.56
510.65	26.62
510.851	26.78
511.052	26.79
511.254	26.71
511.455	26.85
511.656	26.84
511.857	26.71
512.058	26.71
512.26	26.72
512.461	26.74
512.662	26.8
512.863	26.75
513.064	26.7
513.265	26.77
513.466	26.71
513.667	26.66
513.868	26.72
514.069	26.85
514.27	26.95
514.471	26.99
514.672	27.12
514.873	27.2
515.074	27.2
515.275	27
515.476	26.95
515.677	26.95
515.878	27.01
516.079	26.98
516.28	27.07
516.481	27.17
516.682	27.15
516.882	27.02
517.083	26.98
517.284	26.9
517.485	26.89
517.686	26.85
517.886	26.91
518.087	26.94
518.288	27.09
518.488	27.05
518.689	27.12
518.89	27.04
519.091	27.18
519.291	27.15
519.492	27.19
519.692	27.17
519.893	27.23
520.094	27.07
520.294	27.02
520.495	26.99
520.695	27.08
520.896	27.08
521.096	27.12
521.297	27.19
521.497	27.27
521.698	27.23
521.898	27.17
522.099	27.21
522.299	27.28
522.499	27.19
522.7	27.21
522.9	27.28
523.101	27.37
523.301	27.31
523.501	27.3
523.702	27.26
523.902	27.4
524.102	27.35
524.302	27.4
524.503	27.56
524.703	27.57
524.903	27.5
525.103	27.48
525.304	27.5
525.504	27.49
525.704	27.49
525.904	27.46
526.104	27.48
526.304	27.4
526.504	27.31
526.705	27.31
526.905	27.46
527.105	27.48
527.305	27.49
527.505	27.49
527.705	27.52
527.905	27.46
528.105	27.46
528.305	27.41
528.505	27.47
528.705	27.53
528.905	27.5
529.105	27.57
529.304	27.66
529.504	27.65
529.704	27.63
529.904	27.65
530.104	27.6
530.304	27.63
530.503	27.62
530.703	27.62
530.903	27.54
531.103	27.55
531.303	27.52
531.502	27.48
531.702	27.52
531.902	27.6
532.101	27.44
532.301	27.46
532.501	27.57
532.7	27.54
532.9	27.55
533.1	27.71
533.299	27.71
533.499	27.67
533.698	27.54
533.898	27.55
534.097	27.54
534.297	27.65
534.496	27.68
534.696	27.77
534.895	27.86
535.095	27.95
535.294	27.85
535.494	27.82
535.693	27.85
535.892	27.82
536.092	27.74
536.291	27.74
536.491	27.84
536.69	27.89
536.889	27.83
537.088	27.79
537.288	27.89
537.487	27.93
537.686	27.97
537.886	27.99
538.085	28.08
538.284	28.07
538.483	28.06
538.682	28.14
538.882	28.27
539.081	28.3
539.28	28.28
539.479	28.17
539.678	28.11
539.877	28.15
540.076	28.12
540.275	28.15
540.474	28.31
540.673	28.33
540.872	28.25
541.071	28.32
541.27	28.32
541.469	28.31
541.668	28.33
541.867	28.42
542.066	28.46
542.265	28.53
542.464	28.61
542.663	28.67
542.862	28.78
543.06	28.84
543.259	28.93
543.458	28.95
543.657	28.93
543.856	28.95
544.054	28.87
544.253	28.86
544.452	28.87
544.651	28.89
544.849	28.76
545.048	28.9
545.247	28.89
545.445	28.9
545.644	28.98
545.843	29.02
546.041	28.99
546.24	29.13
546.438	29.21
546.637	29.17
546.836	29.32
547.034	29.36
547.233	29.33
547.431	29.29
547.63	29.39
547.828	29.37
548.027	29.42
548.225	29.37
548.423	29.48
548.622	29.51
548.82	29.54
549.019	29.68
549.217	29.87
549.415	29.94
549.614	30.1
549.812	30.13
550.01	30.02
550.209	30.08
550.407	30.1
550.605	30.07
550.803	30.25
551.002	30.4
551.2	30.39
551.398	30.42
551.596	30.54
551.794	30.58
551.993	30.64
552.191	30.75
552.389	30.91
552.587	30.98
552.785	30.99
552.983	31.1
553.181	31.22
553.379	31.27
553.577	31.27
553.775	31.36
553.973	31.36
554.171	31.41
554.369	31.3
554.567	31.32
554.765	31.33
554.963	31.44
555.161	31.38
555.359	31.68
555.557	31.88
555.755	32
555.952	32.11
556.15	32.27
556.348	32.2
556.546	32.28
556.744	32.33
556.941	32.35
557.139	32.46
557.337	32.57
557.535	32.55
557.732	32.66
557.93	32.75
558.128	32.79
558.325	32.9
558.523	32.99
558.721	33.19
558.918	33.29
559.116	33.3
559.313	33.32
559.511	33.53
559.708	33.46
559.906	33.61
560.104	33.82
560.301	33.99
560.498	34.03
560.696	34.14
560.893	34.22
561.091	34.28
561.288	34.45
561.486	34.56
561.683	34.67
561.88	34.76
562.078	34.89
562.275	34.87
562.473	34.96
562.67	35.07
562.867	35.14
563.064	35.31
563.262	35.34
563.459	35.37
563.656	35.46
563.853	35.46
564.051	35.41
564.248	35.65
564.445	35.82
564.642	35.95
564.839	36.17
565.036	36.41
565.234	36.62
565.431	36.75
565.628	36.78
565.825	36.99
566.022	37.07
566.219	37.04
566.416	37.08
566.613	37.34
566.81	37.5
567.007	37.47
567.204	37.51
567.401	37.59
567.598	37.6
567.795	37.58
567.991	37.74
568.188	37.87
568.385	38.11
568.582	38.13
568.779	38.16
568.976	38.22
569.172	38.41
569.369	38.37
569.566	38.45
569.763	38.56
569.96	38.56
570.156	38.54
570.353	38.58
570.55	38.69
570.746	38.68
570.943	38.82
571.14	38.79
571.336	38.85
571.533	38.97
571.729	38.93
571.926	38.99
572.123	39.12
572.319	39.22
572.516	39.18
572.712	39.44
572.909	39.51
573.105	39.62
573.302	39.64
573.498	39.78
573.695	39.76
573.891	39.74
574.087	39.64
574.284	39.6
574.48	39.49
574.677	39.45
574.873	39.55
575.069	39.61
575.266	39.76
575.462	39.86
575.658	40.05
575.854	40.09
576.051	40.12
576.247	40.05
576.443	40.03
576.639	39.89
576.835	39.84
577.032	39.84
577.228	39.95
577.424	40.08
577.62	40.12
577.816	40.18
578.012	40.22
578.208	40.26
578.404	40.16
578.6	40.11
578.796	40.13
578.993	40.18
579.189	40.09
579.384	40.12
579.58	40.09
579.776	40.13
579.972	40.01
580.168	39.9
580.364	39.98
580.56	39.93
580.756	39.76
580.952	39.78
581.148	39.8
581.343	39.77
581.539	39.98
581.735	40.09
581.931	40.09
582.127	40.25
582.322	40.22
582.518	40.12
582.714	40.12
582.909	40.15
583.105	40.02
583.301	39.89
583.496	39.91
583.692	39.79
583.888	39.75
584.083	39.84
584.279	39.97
584.474	40.04
584.67	40.1
584.866	40.11
585.061	39.84
585.257	39.8
585.452	39.72
585.648	39.74
585.843	39.81
586.039	40
586.234	40.05
586.429	39.95
586.625	40.01
586.82	39.96
587.015	40.01
587.211	39.95
587.406	40.12
587.601	40.02
587.797	39.98
587.992	39.88
588.187	39.95
588.383	39.87
588.578	39.88
588.773	39.95
588.968	40.05
589.163	40.09
589.359	40.1
589.554	40.13
589.749	40.18
589.944	40.12
590.139	40.04
590.334	40.06
590.529	40.03
590.724	40.07
590.919	40.24
591.114	40.33
591.309	40.38
591.504	40.54
591.699	40.49
591.894	40.52
592.089	40.48
592.284	40.57
592.479	40.66
592.674	40.69
592.869	40.67
593.064	40.82
593.259	40.91
593.454	40.95
593.648	40.96
593.843	40.96
594.038	41.06
594.233	41.02
594.428	41.02
594.622	41.14
594.817	41.32
595.012	41.15
595.206	41.22
595.401	41.26
595.596	41.36
595.79	41.41
595.985	41.69
596.18	41.87
596.374	42.01
596.569	42
596.763	41.99
596.958	41.98
597.153	41.88
597.347	41.79
597.542	41.92
597.736	41.97
597.931	42.07
598.125	42.17
598.319	42.37
598.514	42.36
598.708	42.41
598.903	42.38
599.097	42.33
599.291	42.34
599.486	42.46
599.68	42.59
599.874	42.71
600.069	42.8
600.263	42.81
600.457	42.86
600.651	42.92
600.846	42.94
601.04	43.09
601.234	43.08
601.428	43.12
601.622	43.11
601.817	43.19
602.011	43.27
602.205	43.39
602.399	43.38
602.593	43.36
602.787	43.33
602.981	43.14
603.175	43.27
603.369	43.28
603.563	43.26
603.757	43.36
603.951	43.41
604.145	43.24
604.339	43.3
604.533	43.29
604.727	43.16
604.921	43.1
605.115	43.18
605.309	43.16
605.502	43.18
605.696	43.22
605.89	43.26
606.084	43.11
606.278	43.1
606.471	43.01
606.665	42.93
606.859	42.78
607.053	42.85
607.246	42.77
607.44	42.77
607.634	42.75
607.827	42.8
608.021	42.62
608.214	42.61
608.408	42.5
608.602	42.45
608.795	42.39
608.989	42.27
609.182	42.05
609.376	42.08
609.569	41.89
609.763	41.8
609.956	41.89
610.15	41.89
610.343	41.82
610.537	41.87
610.73	41.9
610.923	41.75
611.117	41.69
611.31	41.48
611.504	41.4
611.697	41.21
611.89	41.16
612.083	41.11
612.277	41.28
612.47	41.13
612.663	41.12
612.856	41.05
613.05	40.89
613.243	40.61
613.436	40.58
613.629	40.39
613.822	40.22
614.015	40.19
614.209	40.03
614.402	40.04
614.595	40.09
614.788	40.08
614.981	39.88
615.174	39.86
615.367	39.61
615.56	39.46
615.753	39.42
615.946	39.42
616.139	39.52
616.332	39.78
616.525	39.77
616.718	39.9
616.911	40.01
617.103	39.99
617.296	39.85
617.489	39.68
617.682	39.55
617.875	39.4
618.067	39.29
618.26	39.15
618.453	39.23
618.646	39.23
618.838	39.27
619.031	39.38
619.224	39.4
619.417	39.35
619.609	39.35
619.802	39.23
619.994	39.11
620.187	39.03
620.38	39.02
620.572	38.87
620.765	39.05
620.957	38.81
621.15	38.69
621.342	38.6
621.535	38.52
621.727	38.32
621.92	38.33
622.112	38.26
622.305	38.36
622.497	38.43
622.69	38.4
622.882	38.37
623.074	38.4
623.267	38.18
623.459	37.98
623.651	37.96
623.844	37.99
624.036	38.04
624.228	38.1
624.42	38.14
624.613	38.26
624.805	38.29
624.997	38.28
625.189	38.24
625.381	38.23
625.574	38.01
625.766	37.94
625.958	37.81
626.15	37.81
626.342	37.82
626.534	37.81
626.726	37.81
626.918	37.83
627.11	37.75
627.302	37.66
627.494	37.63
627.686	37.58
627.878	37.48
628.07	37.62
628.262	37.61
628.454	37.62
628.646	37.65
628.838	37.78
629.029	37.64
629.221	37.67
629.413	37.55
629.605	37.32
629.797	37.14
629.989	37.08
630.18	36.98
630.372	37
630.564	37.07
630.755	37.19
630.947	37.12
631.139	37.03
631.33	36.88
631.522	36.97
631.714	36.82
631.905	36.82
632.097	36.83
632.289	36.8
632.48	36.68
632.672	36.6
632.863	36.51
633.055	36.42
633.246	36.53
633.438	36.37
633.629	36.41
633.821	36.51
634.012	36.52
634.203	36.27
634.395	36.42
634.586	36.39
634.777	36.26
634.969	36.33
635.16	36.43
635.351	36.36
635.543	36.21
635.734	36.3
635.925	36.28
636.117	36.24
636.308	36.25
636.499	36.32
636.69	36.19
636.881	36.18
637.073	36.3
637.264	36.21
637.455	36.24
637.646	36.33
637.837	36.38
638.028	36.28
638.219	36.36
638.41	36.23
638.601	36.05
638.792	35.97
638.983	36.05
639.174	35.98
639.365	36.1
639.556	36.17
639.747	36.01
639.938	35.93
640.129	35.94
640.32	35.71
640.511	35.62
640.701	35.78
640.892	35.65
641.083	35.67
641.274	35.78
641.465	35.83
641.655	35.6
641.846	35.62
642.037	35.65
642.228	35.52
642.418	35.6
642.609	35.76
642.8	35.72
642.99	35.5
643.181	35.57
643.372	35.58
643.562	35.47
643.753	35.55
643.943	35.54
644.134	35.44
644.324	35.3
644.515	35.18
644.705	35.19
644.896	35.25
645.086	35.28
645.277	35.25
645.467	35.3
645.658	35.12
645.848	35.16
646.038	35.29
646.229	35.24
646.419	35.24
646.61	35.29
646.8	35.13
646.99	34.97
647.18	35
647.371	34.83
647.561	34.86
647.751	34.9
647.941	34.93
648.132	34.88
648.322	34.92
648.512	34.94
648.702	34.89
648.892	34.68
649.082	34.67
649.272	34.55
649.462	34.36
649.653	34.22
649.843	34.29
650.033	34.24
650.223	34.33
650.413	34.35
650.603	34.37
650.793	34.29
650.983	34.2
651.172	34.09
651.362	34
651.552	33.91
651.742	33.78
651.932	33.77
652.122	33.76
652.312	33.77
652.502	33.73
652.691	33.8
652.881	33.68
653.071	33.65
653.261	33.44
653.45	33.35
653.64	33.29
653.83	33.12
654.019	33.01
654.209	32.89
654.399	32.76
654.588	32.63
654.778	32.6
654.968	32.44
655.157	32.41
655.347	32.31
655.536	32.17
655.726	32
655.915	31.78
656.105	31.6
656.294	31.42
656.484	31.14
656.673	31.08
656.863	31.06
657.052	30.82
657.241	30.67
657.431	30.49
657.62	30.15
657.809	29.78
657.999	29.63
658.188	29.4
658.377	29.2
658.567	29.09
658.756	28.91
658.945	28.81
659.134	28.66
659.324	28.48
659.513	28.18
659.702	28.02
659.891	27.76
660.08	27.54
660.269	27.54
660.458	27.52
660.648	27.42
660.837	27.23
661.026	27.09
661.215	26.81
661.404	26.53
661.593	26.43
661.782	26.23
661.971	26.11
662.16	25.95
662.349	25.87
662.538	25.53
662.726	25.53
662.915	25.33
663.104	25.04
663.293	24.92
663.482	25.03
663.671	24.76
663.86	24.5
664.048	24.56
664.237	24.35
664.426	23.99
664.615	23.94
664.803	23.86
664.992	23.74
665.181	23.58
665.369	23.53
665.558	23.49
665.747	23.44
665.935	23.34
666.124	23.46
666.312	23.44
666.501	23.25
666.69	23.05
666.878	22.88
667.067	22.49
667.255	22.35
667.444	22.55
667.632	22.64
667.82	22.66
668.009	22.77
668.197	22.74
668.386	22.58
668.574	22.62
668.762	22.56
668.951	22.46
669.139	22.38
669.327	22.17
669.516	22.11
669.704	22.06
669.892	22.29
670.08	22.36
670.269	22.37
670.457	22.32
670.645	22.12
670.833	21.94
671.021	21.82
671.21	21.8
671.398	21.9
671.586	21.93
671.774	21.86
671.962	21.92
672.15	21.93
672.338	21.72
672.526	21.83
672.714	21.78
672.902	21.78
673.09	21.95
673.278	22.2
673.466	22.36
673.654	22.6
673.842	22.61
674.03	22.48
674.218	22.35
674.405	22.3
674.593	22.19
674.781	22.29
674.969	22.45
675.157	22.58
675.344	22.72
675.532	22.87
675.72	22.97
675.908	23.08
676.095	22.94
676.283	23.05
676.471	23.24
676.658	23.33
676.846	23.3
677.033	23.5
677.221	23.53
677.409	23.38
677.596	23.41
677.784	23.53
677.971	23.69
678.159	23.76
678.346	23.88
678.534	24.02
678.721	24.31
678.909	24.33
679.096	24.51
679.283	24.72
679.471	24.82
679.658	24.82
679.846	25.01
680.033	25.06
680.22	25.2
680.408	25.2
680.595	25.25
680.782	25.27
680.969	25.6
681.157	25.69
681.344	25.8
681.531	25.95
681.718	26.28
681.905	26.34
682.093	26.58
682.28	26.97
682.467	27.16
682.654	27.21
682.841	27.28
683.028	27.53
683.215	27.66
683.402	27.86
683.589	28.15
683.776	28.51
683.963	28.66
684.15	28.95
684.337	29.3
684.524	29.48
684.711	29.69
684.898	29.85
685.085	30.1
685.271	30.33
685.458	30.8
685.645	31.09
685.832	31.53
686.019	31.93
686.205	32.3
686.392	32.61
686.579	32.9
686.766	33.27
686.952	33.63
687.139	34.16
687.326	34.42
687.512	34.81
687.699	35.25
687.886	35.62
688.072	35.79
688.259	36.4
688.445	37.03
688.632	37.32
688.818	37.93
689.005	38.61
689.191	38.95
689.378	39.68
689.564	40.28
689.751	40.72
689.937	41.01
690.124	41.57
690.31	41.7
690.496	42.21
690.683	42.7
690.869	43.27
691.055	43.87
691.242	44.54
691.428	44.97
691.614	45.63
691.8	46.26
691.987	46.87
692.173	47.49
692.359	48.23
692.545	48.76
692.731	49.42
692.918	49.93
693.104	50.35
693.29	51.09
693.476	51.83
693.662	52.44
693.848	52.95
694.034	53.76
694.22	54.2
694.406	54.79
694.592	55.46
694.778	56.3
694.964	56.82
695.15	57.42
695.336	57.89
695.522	58.35
695.708	58.57
695.894	59.19
696.08	59.84
696.265	60.38
696.451	61.05
696.637	61.9
696.823	62.26
697.009	62.63
697.194	63.26
697.38	63.56
697.566	64.19
697.751	64.93
697.937	65.56
698.123	65.83
698.308	66.25
698.494	66.6
698.68	67.06
698.865	67.54
699.051	68.01
699.236	68.59
699.422	68.9
699.607	69.13
699.793	69.54
699.978	70.08
700.164	70.47
700.349	71.19
700.535	71.72
700.72	72
700.906	72.54
701.091	72.81
701.276	73.04
701.462	73.65
701.647	74.48
701.832	74.89
702.018	75.37
702.203	75.76
702.388	75.74
702.573	75.79
702.759	76.32
702.944	76.65
703.129	76.4
703.314	76.72
703.499	76.77
703.684	76.69
703.87	77.81
704.055	78.84
704.24	79.28
704.425	80.04
704.61	80.25
704.795	79.87
704.98	79.81
705.165	79.69
705.35	79.82
705.535	79.98
705.72	80.16
705.905	80.78
706.09	81.19
706.275	81.36
706.459	81.57
706.644	81.67
706.829	81.71
707.014	81.84
707.199	82.34
707.384	82.77
707.568	82.62
707.753	83
707.938	83.46
708.123	83.09
708.307	83.22
708.492	83.69
708.677	83.57
708.861	83.51
709.046	83.42
709.231	83.8
709.415	84.34
709.6	84.35
709.784	84.52
709.969	84.93
710.153	84.63
710.338	84.29
710.522	84.33
710.707	84.92
710.891	85
711.076	85.21
711.26	85.21
711.445	85.73
711.629	85.58
711.813	85.85
711.998	86.08
712.182	86.28
712.366	86.41
712.551	87.08
712.735	87.23
712.919	87.26
713.103	87.86
713.288	87.24
713.472	86.65
713.656	87.32
713.84	87.39
714.024	87.09
714.208	87.44
714.393	87.79
714.577	87.67
714.761	87.8
714.945	88.4
715.129	88.5
715.313	88.41
715.497	88.07
715.681	88.85
715.865	88.25
716.049	88.62
716.233	88.32
716.417	88.53
716.601	87.87
716.785	88.06
716.968	88.16
717.152	88.45
717.336	88.32
717.52	88.21
717.704	88.11
717.888	88.24
718.071	88.6
718.255	88.64
718.439	88.65
718.622	88.65
718.806	88.52
718.99	88.14
719.174	88.19
719.357	88.22
719.541	88.79
719.724	88.75
719.908	89.29
720.092	89.96
720.275	90.27
720.459	89.98
720.642	89.85
720.826	89.69
721.009	89.14
721.193	88.66
721.376	88.78
721.559	89.05
721.743	89.17
721.926	89.24
722.11	89.7
722.293	88.94
722.476	88.72
722.66	88.85
722.843	88.99
723.026	88.67
723.21	89.59
723.393	90.07
723.576	89.7
723.759	89.37
723.942	89.77
724.126	89.5
724.309	89.79
724.492	89.88
724.675	90.17
724.858	90.27
725.041	91.16
725.224	90.8
725.407	91.46
725.59	91.62
725.774	91.74
725.957	90.61
726.14	90.77
726.322	90.31
726.505	90.37
726.688	90.58
726.871	90.81
727.054	90.79
727.237	90.81
727.42	90.9
727.603	90.75
727.786	91.17
727.968	91.31
728.151	90.79
728.334	90.64
728.517	90.63
728.699	91.31
728.882	90.95
729.065	92.05
729.248	92.92
729.43	93.23
729.613	93.71
729.796	94.28
729.978	93.5
730.161	92.95
730.343	92.2
730.526	92.16
730.708	91.52
730.891	91.89
731.073	91.75
731.256	92.33
731.438	91.85
731.621	93.69
731.803	94.52
731.986	94.28
732.168	93.89
732.35	93.72
732.533	93.18
732.715	92.56
732.898	93.59
733.08	93.6
733.262	93.88
733.444	93.13
733.627	93.26
733.809	93.16
733.991	93.99
734.173	93.2
734.355	92.99
734.538	93.4
734.72	92.57
734.902	92.56
735.084	93.61
735.266	93.52
735.448	93.88
735.63	94.29
735.812	94.51
735.994	95.95
736.176	97.08
736.358	96.79
736.54	97.93
736.722	97.41
736.904	95.81
737.086	95.44
737.268	96.31
737.45	95.39
737.632	95.92
737.814	95.34
737.995	95.49
738.177	94.74
738.359	94.78
738.541	94.76
738.723	95.85
738.904	96.36
739.086	96.13
739.268	96.32
739.449	96.39
739.631	95.8
739.813	95.29
739.994	95.34
740.176	95.9
740.358	95.6
740.539	97.17
740.721	97.24
740.902	98.28
741.084	97.47
741.265	97.07
741.447	96.46
741.628	96.94
741.81	96.14
741.991	97.15
742.172	98.37
742.354	98.64
742.535	98.29
742.717	98.96
742.898	98.71
743.079	99.33
743.261	98.58
743.442	97.77
743.623	97.36
743.804	96.84
743.986	96.36
744.167	95.1
744.348	95.26
744.529	95.64
744.71	95.54
744.891	95.96
745.073	96.64
745.254	96.88
745.435	96.43
745.616	96.97
745.797	96
745.978	96.03
746.159	96.67
746.34	95.62
746.521	96.52
746.702	95.63
746.883	95.55
747.064	94.88
747.245	95.57
747.426	94.1
747.606	95.45
747.787	96.27
747.968	96.16
748.149	96.51
748.33	96.23
748.51	96.09
748.691	95.05
748.872	95.67
749.053	95.26
749.233	95.04
749.414	93.66
749.595	92.77
749.775	92.16
749.956	91.5
750.137	92.44
750.317	94.14
750.498	97.22
750.678	96.89
750.859	98.09
751.04	96.95
751.22	95.14
751.4	92.72
751.581	92.91
751.761	93.16
751.942	94.53
752.122	94.19
752.303	93.94
752.483	93.69
752.663	92.88
752.844	91.07
753.024	93.77
753.204	95.09
753.385	95.48
753.565	95.31
753.745	97.27
753.925	95.48
754.106	93.97
754.286	94.07
754.466	94.66
754.646	94.43
754.826	94.4
755.006	93.57
755.187	94.39
755.367	94.01
755.547	94.83
755.727	96.12
755.907	97.8
756.087	97.34
756.267	96.4
756.447	94.73
756.627	93.31
756.807	94.66
756.987	94.11
757.167	94.04
757.346	94.46
757.526	92.5
757.706	91.42
757.886	91.92
758.066	94.4
758.246	96.09
758.425	98.66
758.605	98.15
758.785	98.48
758.965	96.68
759.144	93.74
759.324	92.77
759.504	93.01
759.683	92.28
759.863	91.47
760.043	91.36
760.222	92.02
760.402	90.95
760.581	89.95
760.761	91.59
760.94	90.77
761.12	92.92
761.299	93.28
761.479	94.48
761.658	93.11
761.838	94.42
762.017	92.21
762.197	93.54
762.376	92.18
762.555	92.89
762.735	93.35
762.914	91.73
763.093	90.94
763.273	91.05
763.452	90.73
763.631	91.19
763.81	92.59
763.99	92.22
764.169	93.44
764.348	91.86
764.527	90.7
764.706	91.65
764.885	92.53
765.064	89.09
765.243	91.07
765.423	92.46
765.602	90.85
765.781	89.18
765.96	89.85
766.139	88.62
766.318	87.95
766.497	87.54
766.676	88.21
766.854	91.18
767.033	90.52
767.212	90.66
767.391	90.15
767.57	91.73
767.749	91.74
767.928	93.28
768.106	91.52
768.285	91.13
768.464	89.94
768.643	88.04
768.821	87.6
769	89.1
769.179	89.23
769.357	88.28
769.536	89.07
769.715	90.18
769.893	91.47
770.072	91.71
770.25	91.48
770.429	91.42
770.607	89.31
770.786	86.16
770.964	87.99
771.143	88.85
771.321	89.37
771.5	90.94
771.678	92.59
771.857	91.26
772.035	91.18
772.213	89.22
772.392	88
772.57	89.77
772.748	90.07
772.927	88.86
773.105	89.94
773.283	91.07
773.461	90.05
773.64	90.09
773.818	92.28
773.996	92.91
774.174	92.07
774.352	89.4
774.531	86.58
774.709	88.08
774.887	85.94
775.065	86.16
775.243	86.21
775.421	88.68
775.599	87.24
775.777	86.15
775.955	83.97
776.133	83.15
776.311	82.71
776.489	80.02
776.667	83.3
776.844	84.62
777.022	85.82
777.2	86.13
777.378	85.78
777.556	83.4
777.734	86.42
777.911	89.35
778.089	87.45
778.267	88.64
778.445	89.06
778.622	86.22
778.8	83.96
778.978	86.69
779.155	86.74
779.333	87
779.511	88.54
779.688	90.89
779.866	85.81
780.043	84.76
780.221	86.73
780.398	82.66
780.576	81.36
780.753	87.27
780.931	87.21
781.108	85.55
781.286	87.9
781.463	84.2
781.64	79.7
781.818	81.5
781.995	82.56
782.172	81.33
782.35	84.47
782.527	88.39
782.704	86.22
782.882	88.21
783.059	88.12
783.236	89.02
783.413	89.18
783.59	92.54
783.768	85.8
783.945	87.52
784.122	86.65
784.299	86.52
784.476	82.42
784.653	83.71
784.83	82.73
785.007	78.75
785.184	76.82
785.361	77.58
785.538	83.95
785.715	84.03
785.892	85.95
786.069	88.66
786.246	88.32
786.423	86.04
786.6	85.86
786.776	90.37
786.953	88.54
787.13	95.59
787.307	92
787.484	91.36
787.66	88.61
787.837	89.21
788.014	77.84
788.191	75.96
788.367	74.09
788.544	78.46
788.721	75.92
788.897	81.99
789.074	85.34
789.25	83.14
789.427	79.15
789.603	80.56
789.78	80.43
789.956	77.14
790.133	77.3
790.309	77.33
790.486	81.57
790.662	78.5
790.839	79.17
791.015	82.84
791.192	81.01
791.368	79.34
791.544	82.19
791.721	85.97
791.897	82.09
792.073	80.33
792.249	76.51
792.426	74.98
792.602	73.89
792.778	77.75
792.954	78.82
793.13	78.97
793.307	74.59
793.483	69.16
793.659	70.08
793.835	74.27
794.011	72.01
794.187	77.88
794.363	78.06
794.539	79.72
794.715	72.88
794.891	73.8
795.067	70.48
795.243	74.57
795.419	74.83
795.595	75.39
795.771	77.74
795.947	78.07
796.122	72.81
796.298	74.05
796.474	75.61
796.65	72.49
796.826	72.15
797.001	76.17
797.177	69.54
797.353	75.6
797.529	78.48
797.704	79.05
797.88	77.42
798.056	77.02
798.231	70.47
798.407	74.75
798.582	74.6
798.758	76.4
798.934	82.4
799.109	81.57
799.285	76.75
799.46	82.44
799.636	83.2
799.811	79.04
799.986	78.82
800.162	79.38
800.337	77.49
800.513	71.11
800.688	72.36
800.863	80.35
801.039	70.93
801.214	65.09
801.389	74.44
801.565	70.01
801.74	63.92
801.915	76.31
802.09	75.91
802.265	75.57
802.441	75.01
802.616	71.65
802.791	65.47
802.966	65.73
803.141	63.26
803.316	63.12
803.491	69.18
803.666	76.27
803.841	78.4
804.016	75.06
804.191	81.61
804.366	78.7
804.541	70.38
804.716	66.8
804.891	64.52
805.066	66.75
805.241	67.48
805.416	67.93
805.591	67.12
805.765	74.17
805.94	73.76
806.115	69.2
806.29	64.82
806.464	67.6
806.639	56.95
806.814	46.43
806.989	43.05
807.163	60.31
807.338	63.2
807.512	72.68
807.687	65.17
807.862	74.5
808.036	69.49
808.211	75.22
808.385	76.11
808.56	94.2
808.734	99.19
808.909	96.08
809.083	87.18
809.258	96.46
809.432	91.77
809.606	77.86
809.781	75.9
809.955	79.67
810.13	72.14
810.304	64.63
810.478	63.83
810.652	76.11
810.827	78.17
811.001	68.57
811.175	65.21
811.349	69.14
811.524	55.23
811.698	39.24
811.872	46.09
812.046	58.86
812.22	59.65
812.394	64.63
812.568	74.18
812.742	79.37
812.916	70.08
813.09	58
813.264	47.12
813.438	58.37
813.612	47.96
813.786	47.28
813.96	63.39
814.134	73.03
814.308	72.03
814.482	78.52
814.656	81.74
814.83	81.58
815.003	77.49
815.177	70.52
815.351	62.23
815.525	59.87
815.698	48.18
815.872	42.13
816.046	30.85
816.219	44.75
816.393	57.08
816.567	67.38
816.74	75.24
816.914	86.77
817.088	90.48
817.261	73.48
817.435	64.6
817.608	59.1
817.782	48.71
817.955	51.3
818.129	51.2
818.302	60.21
818.475	68.99
818.649	72.22
818.822	52.98
818.996	69.18
819.169	64.95
819.342	54.6
819.516	58.62
819.689	70.85
819.862	66.39
820.035	54.5
820.209	50.44
820.382	47.56
820.555	48.39
820.728	28.33
820.901	32.92
821.075	40.88
821.248	44.24
821.421	36.98
821.594	52.6
821.767	79.49
821.94	93.56
822.113	77.09
822.286	75.37
822.459	83.8
822.632	73.56
822.805	46.69
822.978	46.22
823.151	45.56
823.324	32.16
823.496	9.51
823.669	11.08
823.842	3.75
824.015	-2.1
824.188	0.43
824.361	22.79
824.533	17.7
824.706	33.5
824.879	39.31
825.051	46.46
825.224	41.41
825.397	51.62
825.569	48.89
825.742	65.38
825.915	61.16
826.087	69.41
826.26	54.86
826.432	43.26
826.605	41.85
826.777	32.08
826.95	29.04
827.122	12.01
827.295	33.98
827.467	20.4
827.64	9.19
827.812	7.91
827.984	35.04
828.157	21.02
828.329	-5.74
828.501	0.09
828.674	17.52
828.846	-1.57
829.018	22.21
829.19	24
829.363	41.17
829.535	41.41
829.707	43.33
829.879	18.71
830.051	14.27
830.223	3.88
830.395	-29.52
830.568	-28.45
830.74	-42.27
830.912	9.14
831.084	-2.77
831.256	5.11
831.428	-2.38
831.6	3.57
831.772	-49.2
831.943	-68.17
832.115	-42.92
832.287	-16.35
832.459	-2.42
832.631	24.96
832.803	61.65
832.975	85.21
833.146	70.44
833.318	63.55
833.49	56.9
833.662	30.3
833.833	-4.9
834.005	2.43
834.177	23.56
834.348	5.9
834.52	-7.71
834.692	6.74
834.863	-18.59
835.035	-44.63
835.206	-67.26
835.378	-33.8
835.549	-23.31
835.721	6.66
835.892	7.08
836.064	7.81
836.235	22.34
836.407	65.55
836.578	42.63
836.749	44.28
836.921	30.3
837.092	-38.32
837.264	-79.79
837.435	-85.03
837.606	-23.25
837.777	32.56
837.949	49.01
838.12	65.25
838.291	74.53
838.462	64.58
838.633	7.89
838.805	19.23
838.976	17.15
839.147	-34.33
839.318	-61.08
839.489	-73.91
839.66	-89.12
839.831	-43.74
840.002	-36.29
840.173	-37.12
840.344	30
840.515	60.01
840.686	-83.35
840.857	-17.13
841.028	-10.63
841.199	-39.73
841.369	-61.91
841.54	-56.48
841.711	-22.02
841.882	19.75
842.053	9.05
842.223	-5.09
842.394	36.83
842.565	30.34
842.736	14
842.906	20.67
843.077	37.72
843.248	56.03
843.418	56.84
843.589	42.2
843.759	115.19
843.93	153.37
844.101	60.61
844.271	58.79
844.442	61.04
844.612	54.85
844.783	12.25
844.953	-18.3
845.123	-44.51
845.294	-38.94
845.464	-244.1
845.635	-86.21
845.805	33.43
845.975	23.41
846.146	-16.06
846.316	-5.45
846.486	8.75
846.656	26.58
846.827	19.16
846.997	16.37
847.167	44.28
847.337	22.38
847.507	-37.41
847.677	-9.36
847.848	39.34
848.018	32.33
848.188	42.67
848.358	29.63
848.528	8.52
848.698	-24.79
848.868	-89.21
849.038	-182.51
849.208	-14.98
849.378	36.36
849.548	25.4
849.718	26.75
849.887	56.65
850.057	15.79
850.227	-16.66
850.397	-28.26
850.567	-139.44
850.737	-497.72
850.906	-1828.44
851.076	-1180.27
851.246	-655.89
851.415	-92.91
851.585	-55.98
851.755	-58.43
851.924	-11.32
852.094	-16.22
852.264	-112.56
852.433	-809.38
852.603	-112.56
852.772	-51.79
852.942	-44.47
853.111	-33.72
853.281	4.36
853.45	32.19
853.62	-44.17
853.789	-64.06
853.959	-61.02
854.128	-54.87
854.297	-83.02
854.467	-103.86
854.636	-70.23
854.805	5.61
854.975	-1.58
855.144	25
855.313	437.24
855.482	134.49
855.652	-3.79
855.821	-4.87
855.99	61.57
856.159	54.4
856.328	67.55
856.497	32.08
856.667	30.65
856.836	27.34
857.005	-18.74
857.174	-46.3
857.343	-47.25
857.512	-7.49
857.681	-87.56
857.85	-145.01
858.019	-92.82
858.188	-73.82
858.356	-106.31
858.525	-172.14
858.694	-108.37
858.863	-228.97
859.032	-180.93
859.201	-274.81
859.369	-169.58
859.538	-175.9
859.707	-143.81
859.876	-186.38
860.044	-140.03
860.213	-23.68
860.382	-25.04
860.55	-4.29
860.719	36.82
860.888	39.82
861.056	6.08
861.225	2.31
861.393	25.57
861.562	27.54
861.73	-10.3
861.899	-101.44
862.067	-1175
862.236	-65.11
862.404	-242.58
862.572	-166.55
862.741	-32.98
862.909	-38.25
863.078	-123.07
863.246	-70.4
863.414	-19.21
863.582	-31.1
863.751	-49.23
863.919	-24.97
864.087	12.78
864.255	-20.02
864.424	-355.68
864.592	-40.05
864.76	-135.97
864.928	-373.4
865.096	-275.72
865.264	-146.83
865.432	-2083.52
865.6	-33.87
865.768	-88.58
865.936	-59.12
866.104	-58.52
866.272	-14.61
866.44	-273.52
866.608	506.39
866.776	230.18
866.944	2055.23
867.112	-481.25
867.28	-214.22
867.448	-92.58
867.615	-8.93
867.783	3.83
867.951	-5.28
868.119	63.04
868.286	77.16
868.454	-99.2
868.622	-75.6
868.789	-68.33
868.957	-2348.21
869.125	-1970.39
869.292	-24.75
869.46	-115.86
869.627	44.4
869.795	13.08
869.963	21.68
870.13	9.27
870.298	43.85
870.465	-44.7
870.632	-79.87
870.8	-43.24
870.967	-51.28
871.135	-157.12
871.302	-161.92
871.469	-174.94
871.637	-284.61
871.804	-162.43
871.971	-190.07
872.139	-496.16
872.306	-50.12
872.473	-83.48
872.64	-393.45
872.807	-128.17
872.975	16.2
873.142	-257
873.309	2185.81
873.476	33.26
873.643	97.48
873.81	25.55
873.977	68.7
874.144	87.19
874.311	-56.88
874.478	-160.97
874.645	-188.19
874.812	-142.81
874.979	-112.91
875.146	-97.59
875.313	-85.25
875.48	4.98
875.647	5.48
875.813	-10.58
875.98	-9.85
876.147	-47.78
876.314	-88.34
876.481	960.95
876.647	-1097.47
876.814	244.95
876.981	171.25
877.147	22.93
877.314	27.68
877.481	47.49
877.647	18.96
877.814	-29.82
877.98	-55.08
878.147	31.6
878.314	65.39
878.48	70.91
878.647	65.97
878.813	113.46
878.979	59.01
879.146	0.42
879.312	3.15
879.479	-6.77
879.645	-145.27
879.811	-297.71
879.978	-738.74
880.144	-288.69
880.31	-154.25
880.477	-417.25
880.643	-417.87
880.809	-117.71
880.975	-36.82
881.142	-489.77
881.308	-46.04
881.474	23.43
881.64	18.3
881.806	-45.65
881.972	18.49
882.138	96.32
882.304	123.13
882.47	-91.18
882.636	-392.42
882.802	-156.29
882.968	-12.85
883.134	-13.83
883.3	15.31
883.466	51.59
883.632	111.41
883.798	76.25
883.964	96.07
884.129	105.93
884.295	112.41
884.461	-14.15
884.627	-31.86
884.793	-85.78
884.958	-41.99
885.124	-118.79
885.29	-163.88
885.455	-306.67
885.621	-62.09
885.787	-136.95
885.952	-86.15
886.118	-96.29
886.283	-70.9
886.449	-170.64
886.614	-188.88
886.78	-401.06
886.945	1271.72
887.111	-708.53
887.276	-536.22
887.442	-964.32
887.607	-288.09
887.773	-269.03
887.938	-251.89
888.103	-258.75
888.269	-127.03
888.434	-309.05
888.599	-97.1
888.764	41.26
888.93	27.4
889.095	8.09
889.26	-23.76
889.425	6.89
889.59	39.1
889.756	33.97
889.921	14.93
890.086	82.44
890.251	58.41
890.416	-95.14
890.581	-1260.89
890.746	147.41
890.911	325.96
891.076	140.18
891.241	-319.22
891.406	-12.57
891.571	-77.9
891.736	-446.67
891.901	-973.23
892.065	964.56
892.23	154.31
892.395	237.52
892.56	313.51
892.725	-371.68
892.889	-750.61
893.054	-221.06
893.219	-66.03
893.384	-6.75
893.548	-39.8
893.713	-78.17
893.878	-25.12
