Data from Ofra_PS_T2_1A_0CX04_Reflection_1.txt Node
Date: Wed Jul 21 17:42:32 EDT 2021
User: Adam
Spectrometer: FLMT01687
Trigger mode: 0
Integration Time (sec): 1.100000E0
Scans to average: 2
Electric dark correction enabled: true
Nonlinearity correction enabled: false
Boxcar width: 2
XAxis mode: Wavelengths
Number of Pixels in Spectrum: 3648
>>>>>Begin Spectral Data<<<<<
179.494	623.6
179.716	695.53
179.937	642.44
180.158	648.87
180.38	1067.19
180.601	219.06
180.823	23.15
181.044	-65.17
181.265	254.04
181.486	23.46
181.708	113.74
181.929	998.98
182.15	-524.65
182.372	202.53
182.593	58.36
182.814	-9.9
183.035	48.43
183.257	52.61
183.478	-44.79
183.699	38.32
183.92	40.86
184.141	13.13
184.363	-23.86
184.584	3.39
184.805	9.5
185.026	39.72
185.247	63.14
185.468	39.57
185.689	57.26
185.91	26.78
186.132	22.56
186.353	-3.38
186.574	61.58
186.795	62.28
187.016	36.35
187.237	-8.18
187.458	-27.75
187.679	-64.67
187.9	-73.61
188.121	-65.11
188.342	-29.26
188.563	3.84
188.784	35.75
189.005	50.93
189.226	156.51
189.447	113.02
189.667	157.04
189.888	-97.78
190.109	-748.7
190.33	-704.84
190.551	-1234.96
190.772	-282.69
190.993	-222.79
191.214	-188.76
191.434	-145.5
191.655	-42.02
191.876	-88.01
192.097	-120.19
192.318	-156.25
192.538	-145.31
192.759	-131.06
192.98	-29.66
193.201	-18.48
193.421	-4.07
193.642	13.8
193.863	21.52
194.083	-7.83
194.304	1.33
194.525	-0.03
194.745	-36.46
194.966	-80.91
195.187	-76.55
195.407	-110.34
195.628	-138.33
195.848	-120.36
196.069	-64.84
196.29	-16.15
196.51	-32.76
196.731	-45.14
196.951	-88.49
197.172	-127.32
197.392	-165.59
197.613	-193.51
197.833	-225.24
198.054	-176.78
198.274	-112.57
198.495	-123.31
198.715	-76.98
198.936	-76.7
199.156	-70.77
199.377	-170.35
199.597	-158.54
199.817	-177.85
200.038	-118.11
200.258	-165.76
200.479	-86.93
200.699	-56.27
200.919	34.34
201.14	14.84
201.36	-8
201.58	35.65
201.801	55.31
202.021	11.74
202.241	12.8
202.461	12.89
202.682	-98.05
202.902	-196.74
203.122	-112.08
203.342	-93.24
203.563	-37.51
203.783	19.08
204.003	-10.64
204.223	-6.45
204.443	45.83
204.663	23.1
204.884	14.37
205.104	65.65
205.324	92.16
205.544	58.55
205.764	73.41
205.984	68.37
206.204	54.48
206.424	30.57
206.644	-5.66
206.864	-6.91
207.084	-75.74
207.304	-1.59
207.525	-83.59
207.745	-27.11
207.964	-19.72
208.184	-53.38
208.404	-130.2
208.624	-129.1
208.844	-142.88
209.064	-445.97
209.284	-495.98
209.504	-232.55
209.724	-68.63
209.944	-35.56
210.164	5.69
210.384	26.09
210.604	14.85
210.823	-4.49
211.043	-44.64
211.263	-39.24
211.483	-51.65
211.703	-108.6
211.922	-110.04
212.142	-12.84
212.362	0.55
212.582	-18.54
212.801	-9.42
213.021	-28.05
213.241	-64.9
213.461	-107.34
213.68	-132.94
213.9	-80.99
214.12	-43.78
214.339	-97.83
214.559	-69.09
214.779	6.86
214.998	1.76
215.218	-48.17
215.438	-7.07
215.657	-11.69
215.877	-26.05
216.096	-25.39
216.316	-8.25
216.535	-32.85
216.755	-49.62
216.974	-160.3
217.194	-186.92
217.413	-143.11
217.633	-125.85
217.852	-177.45
218.072	-68.87
218.291	-33.93
218.511	-12.88
218.73	-46.78
218.95	-43.93
219.169	-56.36
219.389	-107.64
219.608	-77.61
219.827	-50.6
220.047	-28.88
220.266	-12.86
220.485	11.61
220.705	17.04
220.924	-14.35
221.143	26.59
221.363	11.33
221.582	5.42
221.801	13.96
222.021	40.29
222.24	-36.52
222.459	21.6
222.678	34.05
222.897	-43.75
223.117	-89.52
223.336	-65.11
223.555	-45.28
223.774	-11.46
223.993	-0.86
224.213	43.46
224.432	23.31
224.651	39.3
224.87	4.45
225.089	21.46
225.308	17.67
225.527	43.83
225.746	46.31
225.965	50.47
226.184	36.51
226.404	36.37
226.623	4.75
226.842	3.35
227.061	29.2
227.28	38.01
227.499	23.03
227.718	41.59
227.936	38.27
228.155	23.93
228.374	-2
228.593	17.24
228.812	7.81
229.031	-8.81
229.25	-58.77
229.469	-50.76
229.688	-41.83
229.907	-5.75
230.125	28.32
230.344	51.85
230.563	61.05
230.782	59.53
231.001	-10.24
231.22	-20.33
231.438	20.2
231.657	23.67
231.876	19.61
232.095	60.48
232.313	73.36
232.532	55.19
232.751	18.85
232.969	-9.88
233.188	-85.23
233.407	-29.01
233.625	-24.94
233.844	-60.78
234.063	-27.44
234.281	5.76
234.5	-8.91
234.719	10.18
234.937	43.17
235.156	48.72
235.374	43.13
235.593	41.18
235.811	23.83
236.03	21.78
236.249	-19.11
236.467	-15.14
236.686	-4.74
236.904	15.11
237.123	-8.38
237.341	3.2
237.559	6.66
237.778	-9.34
237.996	-67.09
238.215	-13.21
238.433	-13.35
238.652	-24.48
238.87	-34.56
239.088	3.96
239.307	-13.63
239.525	-12.52
239.743	-42.58
239.962	-8.84
240.18	-30.24
240.398	-55.17
240.617	-67.88
240.835	-37.69
241.053	-4.91
241.271	46.98
241.49	45.21
241.708	48.45
241.926	42.3
242.144	-6.98
242.363	-77.2
242.581	-89.82
242.799	-54.42
243.017	-34.53
243.235	-36.94
243.453	-21.34
243.672	-22.71
243.89	-24.58
244.108	-18.81
244.326	3.52
244.544	4.48
244.762	4.34
244.98	19.85
245.198	15.54
245.416	-37.37
245.634	-37.56
245.852	-54.28
246.07	-62.02
246.288	-69.85
246.506	-82.01
246.724	-48.83
246.942	-38.18
247.16	-1.36
247.378	16.64
247.596	38.12
247.814	37.88
248.032	16.08
248.25	0.41
248.468	10.97
248.685	36.11
248.903	58.64
249.121	76.27
249.339	43.5
249.557	22.69
249.775	13.04
249.992	-73.31
250.21	-77.77
250.428	-46.31
250.646	-77.71
250.863	-90.8
251.081	-51.2
251.299	-58.32
251.517	-54.59
251.734	-17.67
251.952	-26.28
252.17	-6.86
252.387	14.39
252.605	2.85
252.823	6.38
253.04	35.92
253.258	47.52
253.475	32.88
253.693	63.77
253.911	47.42
254.128	43.93
254.346	45.85
254.563	31
254.781	-12.33
254.998	-9.83
255.216	-33.84
255.433	-38.93
255.651	9.18
255.868	45.27
256.086	79.29
256.303	77.72
256.521	79.47
256.738	36.19
256.956	16.21
257.173	-16.08
257.39	-47.7
257.608	-90.04
257.825	-27.1
258.043	5.48
258.26	15.85
258.477	68.43
258.695	58.68
258.912	16.1
259.129	3.74
259.346	-41.93
259.564	-88.65
259.781	-111.97
259.998	-33.84
260.216	1.8
260.433	57.89
260.65	53.54
260.867	82.65
261.084	51.81
261.302	33.1
261.519	23.79
261.736	-6.65
261.953	-30.22
262.17	2.78
262.387	-21.66
262.604	-46.59
262.822	-48.55
263.039	-38.22
263.256	-78.12
263.473	-46.18
263.69	-26.03
263.907	20.66
264.124	26.45
264.341	22.05
264.558	3.93
264.775	12.58
264.992	-9.39
265.209	-12.03
265.426	16.6
265.643	22.35
265.86	23.59
266.077	28.47
266.294	11.93
266.51	-25.59
266.727	-33.16
266.944	-33.4
267.161	-49.45
267.378	-31.78
267.595	3.78
267.812	-7.2
268.028	-18.67
268.245	14.7
268.462	-8.87
268.679	-26.34
268.896	31.25
269.112	25.59
269.329	17.45
269.546	17.48
269.763	13.84
269.979	-18.88
270.196	-26.96
270.413	-55.38
270.629	-71.6
270.846	-86.98
271.063	-89.23
271.279	-90.65
271.496	-81.5
271.712	-39.04
271.929	-1.02
272.146	-6.17
272.362	1.05
272.579	49.38
272.795	43.11
273.012	36.14
273.228	33.02
273.445	21.86
273.661	-37
273.878	-60.6
274.094	-68.71
274.311	-77.44
274.527	-18.35
274.744	-8.4
274.96	-8.39
275.177	-3.49
275.393	18.05
275.609	13.57
275.826	29.35
276.042	15.39
276.259	21.16
276.475	34.66
276.691	33.27
276.908	10.45
277.124	32.87
277.34	23.24
277.557	-1.37
277.773	-11.41
277.989	-5.26
278.205	-10.07
278.422	8.19
278.638	17.43
278.854	30.64
279.07	32.93
279.286	20.68
279.503	-2.64
279.719	-21.42
279.935	-45.53
280.151	-66.84
280.367	-39.39
280.583	-64.14
280.799	-54.05
281.016	-61.32
281.232	-16.97
281.448	-19.53
281.664	2.03
281.88	-12.7
282.096	5.08
282.312	21.88
282.528	54.44
282.744	59.54
282.96	55.1
283.176	24.44
283.392	15.1
283.608	-10.64
283.824	-13.17
284.04	-12.14
284.256	-0.03
284.471	1.3
284.687	-2.72
284.903	31.81
285.119	67.44
285.335	42.35
285.551	39.67
285.767	39.79
285.982	10.7
286.198	-37.54
286.414	28.07
286.63	28.94
286.846	51.67
287.061	23.19
287.277	58.29
287.493	30.73
287.709	42.13
287.924	18.35
288.14	67.11
288.356	62.97
288.571	71.31
288.787	50.88
289.003	43.52
289.218	23.36
289.434	-27.95
289.65	-25.18
289.865	-31.01
290.081	-7.14
290.296	-8.2
290.512	5.85
290.727	-37.29
290.943	-33.55
291.159	-33.23
291.374	-16.57
291.59	-36.87
291.805	-12.74
292.021	4.87
292.236	1.35
292.451	5.26
292.667	20.52
292.882	42.99
293.098	26.06
293.313	22.95
293.529	-14.97
293.744	-25.88
293.959	-56.86
294.175	-50.61
294.39	-5.14
294.605	7.22
294.821	36.51
295.036	39.19
295.251	51.61
295.467	-8.46
295.682	-18.78
295.897	-99.21
296.112	-87.77
296.328	-68.69
296.543	-50.56
296.758	-37.07
296.973	18.34
297.188	46.87
297.404	16.48
297.619	9.19
297.834	-4.73
298.049	-27.82
298.264	-74.72
298.479	-5.14
298.694	8.42
298.909	29.29
299.125	36.03
299.34	65.06
299.555	18.37
299.77	31.13
299.985	-25
300.2	-69.64
300.415	-106.38
300.63	-56.02
300.845	-64.65
301.06	-58.83
301.275	-24.1
301.49	9.56
301.704	2.73
301.919	-6.21
302.134	-5.68
302.349	-5.71
302.564	-75.75
302.779	-81.11
302.994	-79.55
303.209	-41.81
303.423	-4.55
303.638	45.18
303.853	9.22
304.068	-1.7
304.283	-3.83
304.497	-21.72
304.712	-21.4
304.927	-17.5
305.142	-7.73
305.356	8.49
305.571	14.38
305.786	-3.52
306	-21.17
306.215	-18.23
306.43	-54.41
306.644	-45.95
306.859	-27.07
307.074	26.15
307.288	-9.96
307.503	-8.72
307.717	-20.54
307.932	-11.74
308.147	-36.3
308.361	-0.57
308.576	-5.31
308.79	-49.86
309.005	-38.9
309.219	-18.93
309.434	-31.65
309.648	-37.92
309.863	-1.28
310.077	-4.96
310.292	1.05
310.506	12.41
310.72	25.06
310.935	30.81
311.149	27.35
311.364	41.88
311.578	45.87
311.792	40.36
312.007	38.63
312.221	17.61
312.435	17.85
312.649	-0.57
312.864	-15.3
313.078	-4.1
313.292	48.08
313.507	-6.17
313.721	11.74
313.935	41.23
314.149	35.62
314.363	16.91
314.578	18.32
314.792	18.74
315.006	-6.5
315.22	7.37
315.434	16.46
315.648	33.88
315.862	17.52
316.077	30.77
316.291	23.25
316.505	20.32
316.719	-17.28
316.933	-29.16
317.147	-44.92
317.361	-103.28
317.575	-120.63
317.789	-144.16
318.003	-178.15
318.217	-118.07
318.431	-31.81
318.645	28.09
318.859	27.19
319.073	56.62
319.287	36.02
319.5	9.98
319.714	-43.04
319.928	-59.08
320.142	-103.56
320.356	-49.42
320.57	-16.94
320.784	-19.95
320.997	-29.34
321.211	-28.04
321.425	-71.73
321.639	-95.14
321.853	-29.28
322.066	-9.83
322.28	-11.51
322.494	0.69
322.707	24.54
322.921	-0.9
323.135	-8.99
323.349	17.09
323.562	-4.46
323.776	-19.84
323.989	-15.05
324.203	-39.07
324.417	-59.1
324.63	-60.41
324.844	-55.07
325.057	-43.16
325.271	7.92
325.485	27.93
325.698	55.81
325.912	63.25
326.125	40.76
326.339	25.86
326.552	10.09
326.766	-8.24
326.979	-4.48
327.193	30.84
327.406	10.7
327.619	4.05
327.833	19.43
328.046	-14.85
328.26	-51.46
328.473	-20.93
328.686	-40.15
328.9	-21.89
329.113	8.57
329.326	-8.24
329.54	-5.76
329.753	-36.08
329.966	-90.86
330.179	-68.86
330.393	-34.17
330.606	-20.46
330.819	19.58
331.032	32.44
331.246	29.62
331.459	61.13
331.672	56.17
331.885	48.64
332.098	32.97
332.311	26.98
332.525	-38.05
332.738	-37.69
332.951	-8.76
333.164	11.56
333.377	30.94
333.59	59.64
333.803	62.64
334.016	50.07
334.229	42.96
334.442	47.77
334.655	61.33
334.868	65.1
335.081	54.76
335.294	47.91
335.507	38.66
335.72	11.43
335.933	3.22
336.146	1.11
336.359	8.77
336.572	-18.34
336.785	-47.14
336.997	-47.5
337.21	-28.62
337.423	-28.44
337.636	-14.62
337.849	14.84
338.062	13.75
338.274	8.73
338.487	-0.03
338.7	-4.87
338.913	-54.44
339.125	-82.85
339.338	-138.73
339.551	-95.9
339.763	-59.9
339.976	-24.79
340.189	2.36
340.402	27.5
340.614	-0.37
340.827	-13.93
341.039	-22.83
341.252	-28.14
341.465	-17.9
341.677	-21.59
341.89	-52.69
342.102	-22.09
342.315	-34.45
342.527	-76.51
342.74	-52.93
342.952	-21.37
343.165	-38.23
343.377	-7.47
343.59	-6.83
343.802	7.53
344.015	14.08
344.227	34.22
344.44	29.5
344.652	25.14
344.864	4.26
345.077	19.78
345.289	17.13
345.502	11.37
345.714	12.26
345.926	27
346.139	14.42
346.351	26.41
346.563	43.13
346.775	50.51
346.988	38.45
347.2	38.22
347.412	-1.34
347.624	-24.39
347.837	-43.99
348.049	-15.25
348.261	6.73
348.473	3.7
348.685	6.91
348.897	-3.52
349.11	-28.47
349.322	-46.85
349.534	-15.65
349.746	-26.31
349.958	-1.59
350.17	0.19
350.382	11.92
350.594	1.88
350.806	14.21
351.018	8.69
351.23	-0.44
351.442	-57.13
351.654	-58.16
351.866	-47.3
352.078	-27.2
352.29	2.18
352.502	18.47
352.714	24.57
352.926	-1.79
353.138	-10.21
353.35	-25.94
353.561	-30.68
353.773	-52.89
353.985	-26
354.197	-32.55
354.409	-28.43
354.621	-29.87
354.832	-19.73
355.044	-28.57
355.256	-30.52
355.468	-14.63
355.679	-18.36
355.891	-4.95
356.103	-20.04
356.314	-6.69
356.526	-10.91
356.738	-1.48
356.949	-18.67
357.161	-9.27
357.373	-9.85
357.584	-18.5
357.796	-14.81
358.008	-18.89
358.219	3.22
358.431	3.75
358.642	14.21
358.854	18.01
359.065	11.85
359.277	-23.21
359.488	-40.92
359.7	-61.9
359.911	-63.16
360.123	-36.44
360.334	-35.34
360.546	-46.22
360.757	-58.53
360.969	-53.79
361.18	-46.14
361.391	-14.69
361.603	-5.06
361.814	18.88
362.025	1.69
362.237	-8.89
362.448	-9.95
362.659	4.58
362.871	-10.32
363.082	4.54
363.293	12.55
363.504	-8.87
363.716	-34.7
363.927	-25.4
364.138	-62.68
364.349	-80.23
364.56	-64.82
364.772	-55.47
364.983	-38.87
365.194	-26.42
365.405	-13.72
365.616	7.9
365.827	15.94
366.038	-2.22
366.25	-1.82
366.461	-13.31
366.672	9.36
366.883	27.08
367.094	45.59
367.305	32.28
367.516	31.94
367.727	0.94
367.938	-26.37
368.149	-36.12
368.36	-16.1
368.571	-12.62
368.781	-33.37
368.992	-43.86
369.203	-60.24
369.414	-86.77
369.625	-93.28
369.836	-70.3
370.047	-76.34
370.258	-66.45
370.468	-59.43
370.679	-74.47
370.89	-63.79
371.101	-32.51
371.312	-29.46
371.522	-24.14
371.733	-10.99
371.944	-1.76
372.155	-0.56
372.365	-18.92
372.576	-21.58
372.787	-14.87
372.997	-49.05
373.208	-49.61
373.419	-6.08
373.629	-35.35
373.84	-46.53
374.05	-47.34
374.261	-40.25
374.472	-63.5
374.682	0.78
374.893	5.49
375.103	45.61
375.314	31.46
375.524	25.58
375.735	16.34
375.945	26.37
376.156	-2.52
376.366	8.35
376.577	4.32
376.787	-9.31
376.997	-14.74
377.208	-12.5
377.418	-24.56
377.629	-8.06
377.839	-6.42
378.049	-10.3
378.26	11.46
378.47	17.16
378.68	5
378.89	3.82
379.101	2.22
379.311	-30.54
379.521	-61.23
379.732	-48.32
379.942	-45.76
380.152	-62.43
380.362	-24.97
380.572	-21.92
380.783	-11.72
380.993	1.75
381.203	21.41
381.413	26.27
381.623	38.07
381.833	32.32
382.043	16.27
382.253	4.36
382.463	-3.71
382.674	-10.26
382.884	-32.97
383.094	-26.58
383.304	-19.58
383.514	-14.51
383.724	-4.9
383.934	-1.65
384.144	-17.91
384.353	-27.32
384.563	-23.78
384.773	-19.75
384.983	-29.38
385.193	-4.18
385.403	5.52
385.613	0.06
385.823	-10.15
386.033	1.58
386.242	-5.65
386.452	-13.73
386.662	-20.45
386.872	-5.88
387.082	-9.59
387.291	-23.12
387.501	-20.07
387.711	-11.42
387.921	-25.88
388.13	-21.46
388.34	-3.53
388.55	-9.25
388.759	-14.52
388.969	-5.27
389.179	-6.99
389.388	-13.82
389.598	-6.23
389.807	-10.99
390.017	-14.49
390.227	-12.63
390.436	-12.59
390.646	-11.19
390.855	-5.95
391.065	-5.79
391.274	-9.11
391.484	-8.26
391.693	-5.47
391.903	-3.44
392.112	-0.29
392.322	5.23
392.531	6.92
392.74	6.72
392.95	2.36
393.159	1.38
393.369	-0.43
393.578	-1.92
393.787	-5.57
393.997	-2.45
394.206	-3.71
394.415	-4.23
394.625	-2.47
394.834	-2.87
395.043	-3.76
395.252	-0.77
395.462	0.87
395.671	1.54
395.88	2.68
396.089	3.95
396.298	0.79
396.508	0.46
396.717	-0.56
396.926	-0.02
397.135	-0.09
397.344	0.74
397.553	1.96
397.762	3.78
397.971	3.49
398.181	3.42
398.39	2.87
398.599	1.56
398.808	0.92
399.017	1.94
399.226	3.3
399.435	4.34
399.644	4.82
399.853	3.78
400.062	3.05
400.27	1.75
400.479	1.41
400.688	0.42
400.897	0.63
401.106	0.94
401.315	0.95
401.524	0.9
401.733	1.78
401.941	2.5
402.15	2.31
402.359	2.04
402.568	2.31
402.777	2.12
402.985	1.76
403.194	1.62
403.403	1.77
403.612	1.29
403.82	1.21
404.029	1.32
404.238	1.32
404.446	1.87
404.655	1.73
404.864	1.81
405.072	1.55
405.281	1.71
405.489	1.03
405.698	1.16
405.906	1.07
406.115	1.19
406.324	1
406.532	1.34
406.741	1.7
406.949	1.67
407.158	1.6
407.366	1.78
407.574	1.63
407.783	1.5
407.991	1.4
408.2	1.63
408.408	1.5
408.617	1.46
408.825	1.36
409.033	1.49
409.242	1.47
409.45	1.49
409.658	1.39
409.867	1.43
410.075	1.37
410.283	1.2
410.491	1.16
410.7	1.19
410.908	1.22
411.116	1.46
411.324	1.45
411.533	1.49
411.741	1.76
411.949	1.8
412.157	1.44
412.365	1.43
412.573	1.45
412.781	1.44
412.99	1.33
413.198	1.61
413.406	1.65
413.614	1.65
413.822	1.42
414.03	1.31
414.238	1.09
414.446	1.2
414.654	1.11
414.862	1.23
415.07	1.38
415.278	1.64
415.486	1.44
415.694	1.48
415.902	1.42
416.109	1.29
416.317	1.18
416.525	0.96
416.733	1.02
416.941	1.15
417.149	1.14
417.357	1.17
417.564	1.55
417.772	1.61
417.98	1.56
418.188	1.6
418.395	1.59
418.603	1.68
418.811	1.26
419.019	1.13
419.226	1.38
419.434	1.46
419.642	1.18
419.849	1.6
420.057	1.72
420.265	1.58
420.472	1.32
420.68	1.38
420.887	1.07
421.095	1.15
421.302	1.08
421.51	1.33
421.717	1.49
421.925	1.75
422.132	1.45
422.34	1.27
422.547	1.28
422.755	1.09
422.962	0.97
423.17	0.96
423.377	1.07
423.585	0.94
423.792	0.95
423.999	1.06
424.207	1.09
424.414	1.24
424.621	1.17
424.829	1.22
425.036	1.16
425.243	1.36
425.451	1.16
425.658	0.98
425.865	1.02
426.072	0.99
426.28	1.13
426.487	1.12
426.694	1.36
426.901	1.31
427.108	1.34
427.315	1.14
427.523	1.52
427.73	1.46
427.937	1.38
428.144	1.24
428.351	1.18
428.558	1.23
428.765	1.24
428.972	1.33
429.179	1.41
429.386	1.71
429.593	1.3
429.8	1.13
430.007	1.11
430.214	1.24
430.421	0.88
430.628	0.71
430.835	0.63
431.042	0.79
431.249	0.74
431.456	0.89
431.662	1.2
431.869	1.46
432.076	1.46
432.283	1.63
432.49	1.66
432.697	1.62
432.903	1.42
433.11	1.33
433.317	1.28
433.524	1.47
433.73	1.43
433.937	1.74
434.144	1.55
434.35	1.47
434.557	1.21
434.764	1.25
434.97	1.08
435.177	1.26
435.384	1.12
435.59	1.28
435.797	1.38
436.003	1.42
436.21	1.43
436.416	1.62
436.623	1.5
436.829	1.56
437.036	1.62
437.242	1.54
437.449	1.37
437.655	1.45
437.862	1.38
438.068	1.34
438.275	1.51
438.481	1.68
438.687	1.61
438.894	1.55
439.1	1.54
439.307	1.61
439.513	1.57
439.719	1.6
439.926	1.69
440.132	1.69
440.338	1.47
440.544	1.6
440.751	1.52
440.957	1.57
441.163	1.44
441.369	1.61
441.575	1.44
441.782	1.44
441.988	1.19
442.194	1.27
442.4	1.18
442.606	1.41
442.812	1.48
443.018	1.78
443.224	1.82
443.431	1.96
443.637	1.73
443.843	1.72
444.049	1.62
444.255	1.54
444.461	1.52
444.667	1.52
444.873	1.6
445.079	1.59
445.284	1.73
445.49	1.42
445.696	1.24
445.902	1.13
446.108	1.07
446.314	0.94
446.52	1.12
446.726	1.42
446.931	1.45
447.137	1.54
447.343	1.64
447.549	1.61
447.755	1.47
447.96	1.49
448.166	1.41
448.372	1.3
448.578	1.31
448.783	1.26
448.989	1.39
449.195	1.58
449.4	1.61
449.606	1.66
449.812	1.6
450.017	1.56
450.223	1.4
450.428	1.33
450.634	1.5
450.84	1.72
451.045	1.6
451.251	1.56
451.456	1.88
451.662	1.92
451.867	1.95
452.073	1.9
452.278	2.03
452.483	2
452.689	1.81
452.894	1.85
453.1	1.95
453.305	1.89
453.51	1.79
453.716	1.71
453.921	1.65
454.127	1.54
454.332	1.51
454.537	1.42
454.742	1.51
454.948	1.5
455.153	1.6
455.358	1.7
455.563	1.95
455.769	2.09
455.974	2.09
456.179	1.97
456.384	1.86
456.589	1.69
456.795	1.45
457	1.41
457.205	1.68
457.41	1.67
457.615	1.7
457.82	1.79
458.025	1.8
458.23	1.57
458.435	1.64
458.64	1.53
458.845	1.7
459.05	1.71
459.255	1.78
459.46	1.74
459.665	1.75
459.87	1.69
460.075	1.66
460.28	1.67
460.485	1.75
460.69	1.83
460.895	1.63
461.099	1.59
461.304	1.73
461.509	1.66
461.714	1.5
461.919	1.7
462.123	1.63
462.328	1.57
462.533	1.52
462.738	1.69
462.942	1.57
463.147	1.72
463.352	1.77
463.556	1.82
463.761	1.87
463.966	1.87
464.17	1.76
464.375	1.61
464.58	1.59
464.784	1.45
464.989	1.48
465.193	1.51
465.398	1.56
465.602	1.68
465.807	1.67
466.011	1.75
466.216	1.86
466.42	1.88
466.625	1.94
466.829	2.08
467.034	2.09
467.238	2.2
467.443	2.21
467.647	2
467.851	2.02
468.056	2.03
468.26	1.91
468.464	1.87
468.669	2.05
468.873	2.16
469.077	2.13
469.282	2.19
469.486	2.33
469.69	2.32
469.894	2.13
470.099	2.23
470.303	2.34
470.507	2.18
470.711	2.01
470.915	1.95
471.119	1.82
471.324	1.63
471.528	1.71
471.732	1.85
471.936	1.86
472.14	1.94
472.344	2.04
472.548	2.1
472.752	2.26
472.956	2.54
473.16	2.55
473.364	2.49
473.568	2.45
473.772	2.47
473.976	2.33
474.18	2.32
474.384	2.37
474.588	2.3
474.792	2.11
474.995	2.19
475.199	2.17
475.403	2.24
475.607	2.32
475.811	2.33
476.015	2.31
476.218	2.41
476.422	2.28
476.626	2.36
476.83	2.5
477.033	2.47
477.237	2.33
477.441	2.43
477.644	2.41
477.848	2.34
478.052	2.3
478.255	2.36
478.459	2.32
478.663	2.45
478.866	2.49
479.07	2.51
479.273	2.76
479.477	2.83
479.681	2.69
479.884	2.63
480.088	2.62
480.291	2.47
480.495	2.47
480.698	2.48
480.901	2.58
481.105	2.72
481.308	2.72
481.512	2.66
481.715	2.76
481.919	2.8
482.122	2.71
482.325	2.67
482.529	2.73
482.732	2.7
482.935	2.6
483.138	2.55
483.342	2.59
483.545	2.66
483.748	2.7
483.952	2.76
484.155	2.95
484.358	3.02
484.561	2.92
484.764	2.84
484.967	2.9
485.171	2.98
485.374	2.87
485.577	3.03
485.78	3.11
485.983	3.05
486.186	2.85
486.389	2.87
486.592	2.8
486.795	2.83
486.998	2.8
487.201	2.84
487.404	2.97
487.607	2.99
487.81	2.99
488.013	3.14
488.216	3.15
488.419	3.13
488.622	3.12
488.825	3.07
489.028	2.95
489.231	2.9
489.433	2.8
489.636	2.73
489.839	2.71
490.042	2.65
490.245	2.67
490.447	2.73
490.65	2.76
490.853	2.73
491.056	2.82
491.258	2.84
491.461	2.85
491.664	2.96
491.866	2.96
492.069	3.08
492.272	3.04
492.474	3.07
492.677	3.08
492.879	3.19
493.082	3.2
493.285	3.34
493.487	3.29
493.69	3.21
493.892	3.11
494.095	3.02
494.297	2.95
494.5	2.99
494.702	2.99
494.905	3.04
495.107	3.05
495.309	3.06
495.512	3.11
495.714	3.15
495.917	3.19
496.119	3.18
496.321	3.26
496.524	3.25
496.726	3.26
496.928	3.28
497.13	3.26
497.333	3.19
497.535	3.19
497.737	3.2
497.939	3.19
498.142	3.28
498.344	3.31
498.546	3.21
498.748	3.27
498.95	3.36
499.152	3.29
499.355	3.31
499.557	3.47
499.759	3.58
499.961	3.5
500.163	3.57
500.365	3.56
500.567	3.62
500.769	3.5
500.971	3.56
501.173	3.47
501.375	3.55
501.577	3.46
501.779	3.46
501.981	3.45
502.183	3.51
502.385	3.44
502.587	3.38
502.788	3.46
502.99	3.49
503.192	3.56
503.394	3.56
503.596	3.61
503.798	3.6
503.999	3.62
504.201	3.6
504.403	3.7
504.605	3.71
504.806	3.67
505.008	3.63
505.21	3.67
505.411	3.61
505.613	3.62
505.815	3.67
506.016	3.73
506.218	3.81
506.42	3.87
506.621	3.9
506.823	3.93
507.024	3.86
507.226	3.83
507.427	3.81
507.629	3.88
507.83	3.87
508.032	3.9
508.233	3.96
508.435	3.98
508.636	4
508.838	3.97
509.039	4.01
509.24	4
509.442	4.02
509.643	3.94
509.845	4
510.046	4.05
510.247	4.08
510.448	4.09
510.65	4.17
510.851	4.3
511.052	4.31
511.254	4.31
511.455	4.44
511.656	4.53
511.857	4.58
512.058	4.54
512.26	4.54
512.461	4.47
512.662	4.45
512.863	4.34
513.064	4.41
513.265	4.45
513.466	4.51
513.667	4.47
513.868	4.51
514.069	4.58
514.27	4.65
514.471	4.63
514.672	4.71
514.873	4.73
515.074	4.71
515.275	4.57
515.476	4.54
515.677	4.48
515.878	4.54
516.079	4.5
516.28	4.6
516.481	4.76
516.682	4.84
516.882	4.78
517.083	4.77
517.284	4.69
517.485	4.61
517.686	4.55
517.886	4.55
518.087	4.63
518.288	4.72
518.488	4.67
518.689	4.68
518.89	4.63
519.091	4.67
519.291	4.65
519.492	4.74
519.692	4.76
519.893	4.92
520.094	4.83
520.294	4.82
520.495	4.79
520.695	4.84
520.896	4.83
521.096	4.92
521.297	5.02
521.497	5.03
521.698	5
521.898	4.92
522.099	4.9
522.299	4.93
522.499	4.91
522.7	4.96
522.9	4.96
523.101	4.99
523.301	5.01
523.501	5.04
523.702	5.03
523.902	5.15
524.102	5.19
524.302	5.15
524.503	5.18
524.703	5.19
524.903	5.18
525.103	5.14
525.304	5.22
525.504	5.3
525.704	5.36
525.904	5.35
526.104	5.35
526.304	5.31
526.504	5.32
526.705	5.33
526.905	5.42
527.105	5.48
527.305	5.48
527.505	5.42
527.705	5.39
527.905	5.37
528.105	5.35
528.305	5.34
528.505	5.4
528.705	5.46
528.905	5.42
529.105	5.45
529.304	5.52
529.504	5.61
529.704	5.54
529.904	5.57
530.104	5.58
530.304	5.64
530.503	5.6
530.703	5.58
530.903	5.59
531.103	5.65
531.303	5.56
531.502	5.56
531.702	5.75
531.902	5.78
532.101	5.71
532.301	5.78
532.501	5.77
532.7	5.69
532.9	5.71
533.1	5.77
533.299	5.8
533.499	5.81
533.698	5.8
533.898	5.81
534.097	5.8
534.297	5.88
534.496	5.93
534.696	5.97
534.895	6.06
535.095	6.19
535.294	6.15
535.494	6.08
535.693	6.13
535.892	6.13
536.092	6.06
536.291	6.06
536.491	6.19
536.69	6.21
536.889	6.11
537.088	6.06
537.288	6.17
537.487	6.25
537.686	6.25
537.886	6.36
538.085	6.47
538.284	6.55
538.483	6.49
538.682	6.55
538.882	6.58
539.081	6.62
539.28	6.49
539.479	6.5
539.678	6.52
539.877	6.61
540.076	6.64
540.275	6.68
540.474	6.74
540.673	6.76
540.872	6.71
541.071	6.74
541.27	6.82
541.469	6.88
541.668	6.91
541.867	6.96
542.066	7.01
542.265	7.11
542.464	7.13
542.663	7.14
542.862	7.23
543.06	7.29
543.259	7.32
543.458	7.37
543.657	7.45
543.856	7.5
544.054	7.5
544.253	7.46
544.452	7.45
544.651	7.54
544.849	7.51
545.048	7.59
545.247	7.65
545.445	7.74
545.644	7.71
545.843	7.73
546.041	7.74
546.24	7.89
546.438	7.96
546.637	8.07
546.836	8.2
547.034	8.23
547.233	8.19
547.431	8.16
547.63	8.21
547.828	8.22
548.027	8.29
548.225	8.32
548.423	8.34
548.622	8.4
548.82	8.37
549.019	8.43
549.217	8.57
549.415	8.65
549.614	8.75
549.812	8.84
550.01	8.83
550.209	8.78
550.407	8.9
550.605	8.87
550.803	8.97
551.002	9.14
551.2	9.19
551.398	9.25
551.596	9.42
551.794	9.51
551.993	9.51
552.191	9.64
552.389	9.75
552.587	9.82
552.785	9.89
552.983	9.98
553.181	10.08
553.379	10.08
553.577	10.11
553.775	10.21
553.973	10.31
554.171	10.41
554.369	10.48
554.567	10.53
554.765	10.6
554.963	10.73
555.161	10.62
555.359	10.73
555.557	10.92
555.755	11.05
555.952	11.09
556.15	11.28
556.348	11.38
556.546	11.42
556.744	11.38
556.941	11.45
557.139	11.56
557.337	11.63
557.535	11.69
557.732	11.85
557.93	12.01
558.128	12.13
558.325	12.29
558.523	12.36
558.721	12.45
558.918	12.45
559.116	12.56
559.313	12.61
559.511	12.78
559.708	12.83
559.906	12.96
560.104	13.03
560.301	13.17
560.498	13.19
560.696	13.32
560.893	13.39
561.091	13.47
561.288	13.5
561.486	13.67
561.683	13.78
561.88	13.97
562.078	14.07
562.275	14.09
562.473	14.16
562.67	14.27
562.867	14.31
563.064	14.44
563.262	14.57
563.459	14.66
563.656	14.79
563.853	14.88
564.051	14.96
564.248	15.16
564.445	15.23
564.642	15.33
564.839	15.49
565.036	15.61
565.234	15.74
565.431	15.81
565.628	15.88
565.825	15.94
566.022	16.01
566.219	15.99
566.416	16.08
566.613	16.15
566.81	16.29
567.007	16.34
567.204	16.37
567.401	16.4
567.598	16.48
567.795	16.46
567.991	16.55
568.188	16.75
568.385	16.93
568.582	16.97
568.779	17.06
568.976	17.2
569.172	17.25
569.369	17.28
569.566	17.34
569.763	17.47
569.96	17.41
570.156	17.44
570.353	17.42
570.55	17.57
570.746	17.6
570.943	17.72
571.14	17.75
571.336	17.88
571.533	17.89
571.729	17.91
571.926	17.94
572.123	18.02
572.319	18.07
572.516	18.1
572.712	18.17
572.909	18.25
573.105	18.35
573.302	18.41
573.498	18.56
573.695	18.55
573.891	18.59
574.087	18.54
574.284	18.5
574.48	18.43
574.677	18.49
574.873	18.44
575.069	18.54
575.266	18.68
575.462	18.59
575.658	18.64
575.854	18.84
576.051	18.87
576.247	18.75
576.443	18.84
576.639	18.82
576.835	18.66
577.032	18.61
577.228	18.84
577.424	18.86
577.62	18.84
577.816	18.94
578.012	18.95
578.208	18.73
578.404	18.79
578.6	18.76
578.796	18.73
578.993	18.73
579.189	18.79
579.384	18.59
579.58	18.56
579.776	18.5
579.972	18.49
580.168	18.4
580.364	18.5
580.56	18.5
580.756	18.54
580.952	18.48
581.148	18.52
581.343	18.56
581.539	18.63
581.735	18.64
581.931	18.75
582.127	18.8
582.322	18.71
582.518	18.78
582.714	18.75
582.909	18.65
583.105	18.61
583.301	18.65
583.496	18.67
583.692	18.65
583.888	18.61
584.083	18.73
584.279	18.71
584.474	18.61
584.67	18.61
584.866	18.61
585.061	18.39
585.257	18.49
585.452	18.43
585.648	18.32
585.843	18.37
586.039	18.48
586.234	18.34
586.429	18.33
586.625	18.48
586.82	18.49
587.015	18.47
587.211	18.5
587.406	18.56
587.601	18.46
587.797	18.43
587.992	18.4
588.187	18.47
588.383	18.51
588.578	18.57
588.773	18.67
588.968	18.77
589.163	18.81
589.359	18.71
589.554	18.67
589.749	18.57
589.944	18.67
590.139	18.63
590.334	18.71
590.529	18.77
590.724	18.9
590.919	18.86
591.114	18.86
591.309	18.97
591.504	19.07
591.699	19.01
591.894	19.08
592.089	19.1
592.284	19.08
592.479	19.13
592.674	19.16
592.869	19.19
593.064	19.33
593.259	19.52
593.454	19.62
593.648	19.72
593.843	19.73
594.038	19.77
594.233	19.7
594.428	19.66
594.622	19.74
594.817	19.91
595.012	19.92
595.206	19.98
595.401	20.1
595.596	20.12
595.79	20.17
595.985	20.29
596.18	20.44
596.374	20.53
596.569	20.64
596.763	20.53
596.958	20.62
597.153	20.68
597.347	20.66
597.542	20.77
597.736	20.92
597.931	20.99
598.125	20.98
598.319	21.19
598.514	21.18
598.708	21.28
598.903	21.3
599.097	21.4
599.291	21.39
599.486	21.46
599.68	21.5
599.874	21.66
600.069	21.62
600.263	21.66
600.457	21.82
600.651	21.88
600.846	21.93
601.04	22.06
601.234	22.05
601.428	22.05
601.622	22.12
601.817	22.07
602.011	22.15
602.205	22.17
602.399	22.13
602.593	22.1
602.787	22.16
602.981	22.1
603.175	22.21
603.369	22.2
603.563	22.23
603.757	22.29
603.951	22.38
604.145	22.32
604.339	22.4
604.533	22.34
604.727	22.27
604.921	22.21
605.115	22.3
605.309	22.31
605.502	22.34
605.696	22.26
605.89	22.15
606.084	21.95
606.278	21.91
606.471	21.86
606.665	21.9
606.859	21.86
607.053	21.88
607.246	21.85
607.44	21.81
607.634	21.67
607.827	21.7
608.021	21.59
608.214	21.51
608.408	21.45
608.602	21.4
608.795	21.32
608.989	21.33
609.182	21.27
609.376	21.23
609.569	21.21
609.763	21.12
609.956	21.01
610.15	20.93
610.343	20.9
610.537	20.75
610.73	20.77
610.923	20.76
611.117	20.64
611.31	20.57
611.504	20.55
611.697	20.36
611.89	20.3
612.083	20.29
612.277	20.26
612.47	20.17
612.663	20.17
612.856	20
613.05	19.87
613.243	19.69
613.436	19.56
613.629	19.43
613.822	19.36
614.015	19.24
614.209	19.05
614.402	19.1
614.595	19.1
614.788	19.08
614.981	19.07
615.174	19
615.367	18.93
615.56	18.85
615.753	18.69
615.946	18.57
616.139	18.63
616.332	18.73
616.525	18.66
616.718	18.81
616.911	18.83
617.103	18.76
617.296	18.56
617.489	18.5
617.682	18.39
617.875	18.36
618.067	18.28
618.26	18.17
618.453	18.2
618.646	18.21
618.838	18.16
619.031	18.32
619.224	18.35
619.417	18.29
619.609	18.27
619.802	18.26
619.994	18.13
620.187	18.07
620.38	18
620.572	17.84
620.765	17.79
620.957	17.68
621.15	17.56
621.342	17.48
621.535	17.5
621.727	17.54
621.92	17.49
622.112	17.51
622.305	17.61
622.497	17.51
622.69	17.43
622.882	17.43
623.074	17.48
623.267	17.44
623.459	17.39
623.651	17.32
623.844	17.37
624.036	17.33
624.228	17.25
624.42	17.28
624.613	17.4
624.805	17.34
624.997	17.28
625.189	17.25
625.381	17.31
625.574	17.16
625.766	17.12
625.958	17.08
626.15	17.16
626.342	17.11
626.534	17.16
626.726	17.14
626.918	17.15
627.11	17.09
627.302	17.12
627.494	17.01
627.686	17.03
627.878	16.99
628.07	16.94
628.262	16.77
628.454	16.77
628.646	16.77
628.838	16.76
629.029	16.65
629.221	16.77
629.413	16.75
629.605	16.63
629.797	16.6
629.989	16.6
630.18	16.41
630.372	16.38
630.564	16.37
630.755	16.41
630.947	16.47
631.139	16.39
631.33	16.24
631.522	16.3
631.714	16.28
631.905	16.24
632.097	16.21
632.289	16.28
632.48	16.21
632.672	16.02
632.863	15.9
633.055	15.96
633.246	15.98
633.438	15.94
633.629	16
633.821	16.04
634.012	16.08
634.203	15.93
634.395	15.92
634.586	15.93
634.777	15.82
634.969	15.79
635.16	15.88
635.351	15.79
635.543	15.75
635.734	15.85
635.925	15.78
636.117	15.78
636.308	15.81
636.499	15.68
636.69	15.54
636.881	15.56
637.073	15.57
637.264	15.53
637.455	15.65
637.646	15.83
637.837	15.84
638.028	15.78
638.219	15.88
638.41	15.77
638.601	15.57
638.792	15.5
638.983	15.41
639.174	15.24
639.365	15.43
639.556	15.41
639.747	15.38
639.938	15.45
640.129	15.42
640.32	15.24
640.511	15.29
640.701	15.36
640.892	15.3
641.083	15.45
641.274	15.52
641.465	15.43
641.655	15.25
641.846	15.3
642.037	15.17
642.228	15.04
642.418	15.13
642.609	15.23
642.8	15.22
642.99	15.13
643.181	15.19
643.372	15.22
643.562	15.15
643.753	15.01
643.943	15.03
644.134	14.95
644.324	14.81
644.515	14.84
644.705	14.91
644.896	14.93
645.086	15.03
645.277	14.93
645.467	14.9
645.658	14.81
645.848	14.84
646.038	14.74
646.229	14.79
646.419	14.76
646.61	14.85
646.8	14.79
646.99	14.72
647.18	14.66
647.371	14.62
647.561	14.49
647.751	14.49
647.941	14.49
648.132	14.55
648.322	14.51
648.512	14.58
648.702	14.49
648.892	14.46
649.082	14.46
649.272	14.34
649.462	14.17
649.653	14.1
649.843	14.06
650.033	14.05
650.223	14.05
650.413	14.03
650.603	14.06
650.793	14.06
650.983	13.99
651.172	13.97
651.362	13.96
651.552	13.86
651.742	13.8
651.932	13.76
652.122	13.78
652.312	13.91
652.502	13.99
652.691	13.98
652.881	13.85
653.071	13.75
653.261	13.47
653.45	13.29
653.64	13.22
653.83	13.08
654.019	12.98
654.209	12.95
654.399	12.9
654.588	12.74
654.778	12.72
654.968	12.65
655.157	12.57
655.347	12.46
655.536	12.3
655.726	12.19
655.915	11.96
656.105	11.83
656.294	11.73
656.484	11.59
656.673	11.44
656.863	11.48
657.052	11.31
657.241	11.09
657.431	10.91
657.62	10.77
657.809	10.47
657.999	10.23
658.188	10.1
658.377	10.04
658.567	9.91
658.756	9.79
658.945	9.64
659.134	9.44
659.324	9.27
659.513	9.08
659.702	8.87
659.891	8.8
660.08	8.7
660.269	8.55
660.458	8.37
660.648	8.26
660.837	8.08
661.026	7.91
661.215	7.74
661.404	7.67
661.593	7.6
661.782	7.41
661.971	7.39
662.16	7.23
662.349	7.06
662.538	6.88
662.726	6.82
662.915	6.6
663.104	6.5
663.293	6.44
663.482	6.48
663.671	6.32
663.86	6.23
664.048	6.08
664.237	6.06
664.426	5.74
664.615	5.86
664.803	5.82
664.992	5.8
665.181	5.57
665.369	5.61
665.558	5.37
665.747	5.29
665.935	5.26
666.124	5.32
666.312	5.3
666.501	5.23
666.69	5.08
666.878	4.99
667.067	4.82
667.255	4.86
667.444	5.2
667.632	5.23
667.82	5.25
668.009	5.29
668.197	5.09
668.386	4.82
668.574	4.9
668.762	4.78
668.951	4.7
669.139	4.78
669.327	4.63
669.516	4.72
669.704	4.78
669.892	4.91
670.08	4.9
670.269	4.78
670.457	4.54
670.645	4.38
670.833	4.43
671.021	4.37
671.21	4.57
671.398	4.72
671.586	4.74
671.774	4.55
671.962	4.64
672.15	4.57
672.338	4.46
672.526	4.59
672.714	4.56
672.902	4.49
673.09	4.74
673.278	4.95
673.466	4.98
673.654	5.19
673.842	5.24
674.03	5.16
674.218	5.02
674.405	5.06
674.593	5
674.781	5.09
674.969	5.12
675.157	5.29
675.344	5.48
675.532	5.58
675.72	5.67
675.908	5.75
676.095	5.63
676.283	5.44
676.471	5.58
676.658	5.58
676.846	5.55
677.033	5.71
677.221	5.86
677.409	5.65
677.596	5.75
677.784	5.87
677.971	5.88
678.159	5.95
678.346	6.24
678.534	6.21
678.721	6.4
678.909	6.37
679.096	6.41
679.283	6.43
679.471	6.6
679.658	6.6
679.846	6.9
680.033	7.25
680.22	7.29
680.408	7.33
680.595	7.41
680.782	7.35
680.969	7.26
681.157	7.37
681.344	7.52
681.531	7.58
681.718	7.63
681.905	7.84
682.093	7.98
682.28	8.14
682.467	8.45
682.654	8.68
682.841	8.73
683.028	8.97
683.215	9.11
683.402	8.95
683.589	9.23
683.776	9.42
683.963	9.42
684.15	9.59
684.337	9.94
684.524	10.03
684.711	10.33
684.898	10.39
685.085	10.62
685.271	11.03
685.458	11.26
685.645	11.39
685.832	11.97
686.019	12.31
686.205	12.47
686.392	12.79
686.579	13.13
686.766	13.42
686.952	13.68
687.139	14.31
687.326	14.64
687.512	15.02
687.699	15.34
687.886	15.72
688.072	15.62
688.259	16.13
688.445	16.69
688.632	17.16
688.818	17.77
689.005	18.54
689.191	18.83
689.378	19.19
689.564	19.73
689.751	20.19
689.937	20.6
690.124	21.36
690.31	21.79
690.496	22.29
690.683	22.78
690.869	23.33
691.055	23.8
691.242	24.59
691.428	25.23
691.614	26.02
691.8	26.65
691.987	27.42
692.173	28.05
692.359	28.9
692.545	29.51
692.731	30.1
692.918	30.69
693.104	31.48
693.29	32.11
693.476	32.89
693.662	33.78
693.848	34.61
694.034	35.15
694.22	35.7
694.406	36.35
694.592	37.08
694.778	37.82
694.964	38.41
695.15	39.3
695.336	39.92
695.522	40.85
695.708	41.33
695.894	42.34
696.08	43.16
696.265	43.91
696.451	44.51
696.637	45.51
696.823	45.98
697.009	46.3
697.194	46.91
697.38	47.39
697.566	47.78
697.751	48.52
697.937	49.5
698.123	50.16
698.308	51.01
698.494	51.81
698.68	52.42
698.865	52.71
699.051	53.3
699.236	53.83
699.422	54.44
699.607	54.88
699.793	55.46
699.978	56.03
700.164	56.19
700.349	56.89
700.535	57.58
700.72	58.16
700.906	58.93
701.091	59.85
701.276	60.06
701.462	60.84
701.647	61.65
701.832	61.87
702.018	62.4
702.203	62.9
702.388	62.77
702.573	63
702.759	63.84
702.944	64.11
703.129	64.16
703.314	65
703.499	65.35
703.684	65.44
703.87	66.31
704.055	67.5
704.24	67.84
704.425	68.38
704.61	68.61
704.795	68.53
704.98	68.39
705.165	68.37
705.35	68.62
705.535	69.03
705.72	69.35
705.905	69.92
706.09	70.76
706.275	71.07
706.459	71.2
706.644	71.35
706.829	71.37
707.014	71.12
707.199	71.54
707.384	71.85
707.568	71.97
707.753	72.69
707.938	73.41
708.123	73.23
708.307	73.64
708.492	74.13
708.677	73.98
708.861	73.64
709.046	73.89
709.231	74.41
709.415	74.59
709.6	74.65
709.784	75.01
709.969	75.52
710.153	75.35
710.338	75.73
710.522	76.13
710.707	77.01
710.891	76.89
711.076	77.04
711.26	76.71
711.445	76.85
711.629	76.55
711.813	76.64
711.998	77.17
712.182	77.54
712.366	78.22
712.551	79.18
712.735	79.59
712.919	79.23
713.103	79.39
713.288	78.84
713.472	77.92
713.656	78.77
713.84	79.03
714.024	79.41
714.208	79.54
714.393	79.86
714.577	79.43
714.761	79.65
714.945	79.34
715.129	79.57
715.313	80.08
715.497	80.31
715.681	80.95
715.865	81.24
716.049	81.35
716.233	80.95
716.417	80.96
716.601	80.46
716.785	80.51
716.968	80.59
717.152	80.54
717.336	80.56
717.52	80.56
717.704	80.94
717.888	81.62
718.071	82.08
718.255	82.25
718.439	82.53
718.622	82.8
718.806	82.59
718.99	82.41
719.174	82.55
719.357	82.55
719.541	82.49
719.724	82.32
719.908	83.09
720.092	83.18
720.275	83.6
720.459	83.29
720.642	83.44
720.826	82.4
721.009	82.47
721.193	81.81
721.376	82.43
721.559	82.4
721.743	83.15
721.926	83.48
722.11	83.88
722.293	83.24
722.476	82.88
722.66	83.21
722.843	82.77
723.026	82.27
723.21	82.69
723.393	84.03
723.576	83.54
723.759	83.76
723.942	84.03
724.126	83.75
724.309	83.33
724.492	83.28
724.675	82.93
724.858	83.69
725.041	83.87
725.224	83.79
725.407	83.76
725.59	84.5
725.774	83.76
725.957	83.43
726.14	83.59
726.322	83.75
726.505	83.16
726.688	83.79
726.871	83.92
727.054	83.76
727.237	84.14
727.42	84.57
727.603	84.29
727.786	85.2
727.968	85.64
728.151	85.96
728.334	85.71
728.517	86.11
728.699	86.02
728.882	85.73
729.065	86.21
729.248	86.87
729.43	86.78
729.613	87.31
729.796	88.12
729.978	86.93
730.161	86.65
730.343	86.73
730.526	86.97
730.708	86
730.891	86.67
731.073	86.6
731.256	86.58
731.438	86.14
731.621	87.06
731.803	86.92
731.986	86.72
732.168	86.43
732.35	86
732.533	85.49
732.715	85.91
732.898	86.59
733.08	86.7
733.262	87.64
733.444	87.07
733.627	86.41
733.809	86.68
733.991	87.75
734.173	86.92
734.355	87.13
734.538	88.47
734.72	87.7
734.902	87.28
735.084	87.33
735.266	87.7
735.448	87.06
735.63	86.62
735.812	86.59
735.994	87.51
736.176	87.24
736.358	87.08
736.54	88.36
736.722	87.62
736.904	86.97
737.086	87.34
737.268	88.26
737.45	88.4
737.632	89
737.814	87.84
737.995	87.84
738.177	87.22
738.359	85.69
738.541	86.25
738.723	87.35
738.904	87.69
739.086	87.91
739.268	88.56
739.449	88.9
739.631	89.14
739.813	88.79
739.994	88.41
740.176	88.98
740.358	88.14
740.539	89.11
740.721	89.47
740.902	90.43
741.084	90.27
741.265	90.56
741.447	90.46
741.628	90.8
741.81	90.06
741.991	90.56
742.172	91.55
742.354	91.14
742.535	90.83
742.717	91.35
742.898	91.4
743.079	91.17
743.261	91.12
743.442	90.51
743.623	90.96
743.804	90.75
743.986	90.64
744.167	89.37
744.348	89.62
744.529	89.5
744.71	88.89
744.891	88.24
745.073	88.53
745.254	88.08
745.435	86.96
745.616	85.7
745.797	85.61
745.978	85.29
746.159	85.85
746.34	85.72
746.521	87.98
746.702	87.23
746.883	87.48
747.064	86.85
747.245	86.89
747.426	86.18
747.606	87.43
747.787	88.44
747.968	88.92
748.149	89.81
748.33	90.44
748.51	88.87
748.691	87.57
748.872	88.33
749.053	87.51
749.233	86.9
749.414	86.88
749.595	86.26
749.775	84.55
749.956	84.02
750.137	83.36
750.317	85.31
750.498	88.5
750.678	89.83
750.859	91.5
751.04	91.88
751.22	90.03
751.4	87.67
751.581	86.78
751.761	85.11
751.942	85.84
752.122	85.84
752.303	84.2
752.483	84.32
752.663	83.83
752.844	82.59
753.024	82.67
753.204	85.18
753.385	84.02
753.565	85.57
753.745	85.04
753.925	85.88
754.106	84.36
754.286	84.36
754.466	83.24
754.646	83.99
754.826	82.63
755.006	82.87
755.187	85.44
755.367	86.68
755.547	86.92
755.727	88.62
755.907	89.28
756.087	88.23
756.267	86.59
756.447	86.61
756.627	84.42
756.807	84.94
756.987	84.05
757.167	85.25
757.346	85.47
757.526	85.41
757.706	85.83
757.886	87.07
758.066	88.17
758.246	89.48
758.425	89.61
758.605	88.65
758.785	88.67
758.965	87.52
759.144	84.67
759.324	86.17
759.504	86.22
759.683	85.46
759.863	83.78
760.043	84.58
760.222	83.88
760.402	83.55
760.581	83.03
760.761	85.59
760.94	83.86
761.12	86.47
761.299	86.8
761.479	87.26
761.658	84.55
761.838	85.97
762.017	83.84
762.197	84.47
762.376	85.28
762.555	86.6
762.735	87.63
762.914	86.09
763.093	86.29
763.273	83.99
763.452	83.63
763.631	82.53
763.81	82.82
763.99	81.51
764.169	82.78
764.348	81
764.527	80.21
764.706	82.17
764.885	84.04
765.064	82.79
765.243	84.27
765.423	86.06
765.602	84.55
765.781	80.59
765.96	81.14
766.139	80.71
766.318	81.3
766.497	80.84
766.676	84.29
766.854	86.03
767.033	86.88
767.212	85.87
767.391	86.89
767.57	85.86
767.749	84.55
767.928	84.63
768.106	82.91
768.285	80.02
768.464	80.61
768.643	79.95
768.821	79.77
769	81.36
769.179	83.91
769.357	82.27
769.536	81.33
769.715	81.81
769.893	84.19
770.072	82.96
770.25	83.61
770.429	83.69
770.607	82.83
770.786	79.69
770.964	81.36
771.143	80.13
771.321	82.46
771.5	83.1
771.678	82.48
771.857	80.2
772.035	80.09
772.213	79.14
772.392	76.57
772.57	78
772.748	79.29
772.927	78.31
773.105	77.3
773.283	79.5
773.461	79.35
773.64	79.35
773.818	80.39
773.996	81.36
774.174	79.77
774.352	78.08
774.531	76.58
774.709	79.73
774.887	78.45
775.065	79.78
775.243	79.99
775.421	80.31
775.599	79.78
775.777	79.01
775.955	76.23
776.133	74.95
776.311	74.95
776.489	72.82
776.667	74.34
776.844	76.5
777.022	75.83
777.2	77.27
777.378	77.18
777.556	78.62
777.734	80.95
777.911	82.99
778.089	80.58
778.267	80.41
778.445	76.46
778.622	72.58
778.8	72.94
778.978	75.09
779.155	73.78
779.333	74.61
779.511	76.23
779.688	78.33
779.866	73.92
780.043	72.75
780.221	74.94
780.398	71.42
780.576	70.95
780.753	73.92
780.931	74.3
781.108	73.95
781.286	78.08
781.463	74.84
781.64	71.92
781.818	77.13
781.995	76.31
782.172	74.57
782.35	77.84
782.527	83.59
782.704	76.98
782.882	79.22
783.059	79.16
783.236	78.78
783.413	77.82
783.59	79.5
783.768	76.34
783.945	77.83
784.122	78.5
784.299	78
784.476	76.73
784.653	75.86
784.83	73.51
785.007	68.11
785.184	68.07
785.361	68.89
785.538	72.87
785.715	77.62
785.892	80.27
786.069	81.45
786.246	85
786.423	81.84
786.6	78.11
786.776	79.98
786.953	78.23
787.13	77.77
787.307	78.79
787.484	79.18
787.66	77.59
787.837	75.73
788.014	71.01
788.191	69.11
788.367	63.87
788.544	67.28
788.721	67.12
788.897	72.11
789.074	73.8
789.25	76.98
789.427	74.55
789.603	75.02
789.78	75.01
789.956	73.08
790.133	70.54
790.309	71.85
790.486	78.13
790.662	76.02
790.839	76.22
791.015	77.83
791.192	72.43
791.368	71.57
791.544	70.26
791.721	72.57
791.897	74.88
792.073	74.19
792.249	63.1
792.426	65.56
792.602	69.16
792.778	68.59
792.954	71.58
793.13	74.55
793.307	66.5
793.483	54.59
793.659	53.27
793.835	55.56
794.011	55.08
794.187	62.15
794.363	63.11
794.539	67.41
794.715	61.73
794.891	63.62
795.067	61.52
795.243	66.26
795.419	59.8
795.595	59.3
795.771	60.83
795.947	59.89
796.122	56.66
796.298	64.43
796.474	67.67
796.65	66.99
796.826	65.73
797.001	69.93
797.177	61.17
797.353	63.76
797.529	65.48
797.704	64.81
797.88	61.48
798.056	66.87
798.231	63.98
798.407	67.09
798.582	70.12
798.758	80.86
798.934	85.57
799.109	83.21
799.285	81.17
799.46	78.64
799.636	68.66
799.811	63.26
799.986	70.04
800.162	71.11
800.337	81.06
800.513	74.95
800.688	74.53
800.863	76.72
801.039	68.19
801.214	51.46
801.389	61.45
801.565	55.44
801.74	47.26
801.915	57.5
802.09	66.38
802.265	70.37
802.441	68.99
802.616	65.26
802.791	63.04
802.966	61.97
803.141	54.9
803.316	51.44
803.491	62.32
803.666	63.79
803.841	61.23
804.016	57.66
804.191	62.26
804.366	50.75
804.541	49.43
804.716	50.38
804.891	51.81
805.066	60.05
805.241	66.41
805.416	66.29
805.591	68.58
805.765	73.78
805.94	75.41
806.115	73.79
806.29	64.3
806.464	63.77
806.639	54.24
806.814	44.03
806.989	36.01
807.163	52.37
807.338	56.3
807.512	54.59
807.687	46.26
807.862	64.22
808.036	65.17
808.211	62.19
808.385	69.65
808.56	86.03
808.734	82.17
808.909	75.35
809.083	72.37
809.258	76.06
809.432	70.9
809.606	53.56
809.781	49.12
809.955	53.77
810.13	54.14
810.304	46.43
810.478	43.46
810.652	57.14
810.827	62.25
811.001	54.27
811.175	59.56
811.349	61.74
811.524	45.25
811.698	30.06
811.872	33.71
812.046	43.26
812.22	56.94
812.394	58.78
812.568	70.13
812.742	78.34
812.916	64.82
813.09	52.17
813.264	50.7
813.438	46.72
813.612	41.34
813.786	35.65
813.96	51.39
814.134	55.15
814.308	69.99
814.482	73.01
814.656	78.26
814.83	82.33
815.003	87.67
815.177	68.7
815.351	66.4
815.525	63.95
815.698	49.49
815.872	41.05
816.046	41.96
816.219	50
816.393	66.51
816.567	73.96
816.74	77.14
816.914	77.04
817.088	72.14
817.261	61.43
817.435	46.96
817.608	54.78
817.782	49.03
817.955	48.52
818.129	36.12
818.302	46.49
818.475	55.62
818.649	61.18
818.822	48.13
818.996	79.42
819.169	79.36
819.342	56.79
819.516	58.91
819.689	71.01
819.862	46.73
820.035	39.25
820.209	31.46
820.382	40.83
820.555	41.27
820.728	37.21
820.901	34.86
821.075	45.66
821.248	32.19
821.421	24.22
821.594	24.79
821.767	52.15
821.94	75.71
822.113	59.25
822.286	59.35
822.459	75.64
822.632	63.83
822.805	33.04
822.978	53.02
823.151	41.3
823.324	29.3
823.496	7.2
823.669	7.12
823.842	-0.76
824.015	3.69
824.188	-14.53
824.361	4.83
824.533	8.19
824.706	28.89
824.879	20.15
825.051	43.16
825.224	32.67
825.397	27.86
825.569	4.11
825.742	30.53
825.915	18.58
826.087	34.07
826.26	25.1
826.432	23.85
826.605	25.59
826.777	21.5
826.95	24.77
827.122	19.71
827.295	19.84
827.467	16.81
827.64	-9.14
827.812	-14.69
827.984	4.3
828.157	-8.49
828.329	-66.52
828.501	-25.16
828.674	2.43
828.846	-8.96
829.018	28.76
829.19	41.36
829.363	54.11
829.535	46.71
829.707	43.4
829.879	23.75
830.051	17.89
830.223	3.96
830.395	-19.27
830.568	-8.51
830.74	-27.46
830.912	12.36
831.084	-7.83
831.256	-5.06
831.428	-24.58
831.6	-19.92
831.772	-76
831.943	-76.03
832.115	-55.93
832.287	-27.47
832.459	-10.15
832.631	10.09
832.803	32.27
832.975	63.4
833.146	47.21
833.318	40.79
833.49	66.97
833.662	60.59
833.833	2.55
834.005	3.75
834.177	1.23
834.348	-9.34
834.52	-34.81
834.692	-14.6
834.863	-48.75
835.035	-25.13
835.206	-58.2
835.378	-19.23
835.549	0.21
835.721	50.82
835.892	34.22
836.064	38.01
836.235	43.51
836.407	38.22
836.578	-20.83
836.749	-3.77
836.921	-42.08
837.092	-86.81
837.264	-61.29
837.435	-62.72
837.606	-20.15
837.777	25.67
837.949	45.35
838.12	40.26
838.291	53.38
838.462	40.62
838.633	-3.85
838.805	-13.51
838.976	-7.83
839.147	-61.25
839.318	-67.25
839.489	-111.14
839.66	-95.97
839.831	-60.22
840.002	-58.8
840.173	-95.63
840.344	-27.24
840.515	-52.73
840.686	-224.75
840.857	-159.94
841.028	-138.47
841.199	-85.04
841.369	-83.53
841.54	-51.07
841.711	-15.77
841.882	1.86
842.053	-25.42
842.223	-33.79
842.394	-18.19
842.565	-12.04
842.736	7.79
842.906	15.86
843.077	27.44
843.248	61.37
843.418	57.23
843.589	32.04
843.759	81.48
843.93	96.42
844.101	7.02
844.271	3.31
844.442	23.74
844.612	35.4
844.783	-16.12
844.953	-43.09
845.123	-27.02
845.294	-55.05
845.464	-294.78
845.635	-92.79
845.805	-7.87
845.975	-13.66
846.146	-45.6
846.316	-33.32
846.486	-4.18
846.656	20.5
846.827	9.35
846.997	-1.2
847.167	15.55
847.337	-20.28
847.507	-64.7
847.677	-44.38
847.848	32.94
848.018	31.82
848.188	34.83
848.358	11.96
848.528	-3.8
848.698	-53.53
848.868	-184.21
849.038	-266.7
849.208	-44
849.378	12.26
849.548	-4.26
849.718	13.29
849.887	33.47
850.057	-17.78
850.227	-54.88
850.397	-83.2
850.567	-168.66
850.737	-405.87
850.906	-1354.38
851.076	-1151.17
851.246	-502.88
851.415	-63.56
851.585	-38.73
851.755	-71.78
851.924	19.11
852.094	21.08
852.264	-59.85
852.433	-787.98
852.603	-95.92
852.772	-179.35
852.942	-101.13
853.111	-77.6
853.281	-25.35
853.45	15.23
853.62	-25.67
853.789	-55.56
853.959	-16.13
854.128	-22.39
854.297	-43.58
854.467	-76.43
854.636	-39.72
854.805	-5.85
854.975	-58.31
855.144	-132.47
855.313	169.58
855.482	-103.28
855.652	-195.6
855.821	-117.88
855.99	8.5
856.159	10.43
856.328	14.39
856.497	-2.12
856.667	15.46
856.836	14.7
857.005	-31.38
857.174	-48.57
857.343	-61.57
857.512	-43.24
857.681	-101.61
857.85	-137.37
858.019	-61.69
858.188	-51.52
858.356	-82.14
858.525	-152.89
858.694	-120.28
858.863	-271.92
859.032	-178.63
859.201	-126.76
859.369	32.78
859.538	46.49
859.707	18.85
859.876	44.5
860.044	21.61
860.213	40.09
860.382	31.2
860.55	41.75
860.719	52.98
860.888	43.34
861.056	-10.62
861.225	-34.42
861.393	11.36
861.562	18.46
861.73	-63.38
861.899	-168.32
862.067	-1222.41
862.236	-54.15
862.404	-255.19
862.572	-118.3
862.741	-19.87
862.909	-9.65
863.078	-138.78
863.246	-115.97
863.414	-111.95
863.582	-90.7
863.751	-137.28
863.919	-109.23
864.087	-35.55
864.255	-3.75
864.424	-296.61
864.592	-39.87
864.76	-68.23
864.928	-185.2
865.096	-231.37
865.264	-123.05
865.432	-873.86
865.6	67.25
865.768	-68.86
865.936	-94.89
866.104	-91.65
866.272	-208.28
866.44	-415.94
866.608	535.05
866.776	268.26
866.944	2945.35
867.112	-484.53
867.28	-233.83
867.448	-104.25
867.615	-35.36
867.783	-13.17
867.951	-55.62
868.119	-14.88
868.286	-60.36
868.454	-186.51
868.622	-140.45
868.789	-63.35
868.957	-1867.86
869.125	-1959.21
869.292	-112.16
869.46	-236.41
869.627	-46.89
869.795	-33.84
869.963	-13.87
870.13	17.28
870.298	53.09
870.465	-3.81
870.632	-42.05
870.8	-2.06
870.967	-77.51
871.135	-151.66
871.302	-116.27
871.469	-104.31
871.637	-148.58
871.804	-65.95
871.971	-86.07
872.139	-310
872.306	-46.46
872.473	-89.99
872.64	-318.24
872.807	-164.77
872.975	-16.08
873.142	-170.36
873.309	1452.7
873.476	80.5
873.643	162.94
873.81	119.36
873.977	105.34
874.144	110.44
874.311	-25.53
874.478	-136.86
874.645	-201.99
874.812	-137.57
874.979	-84.68
875.146	-59.83
875.313	-59.33
875.48	34.5
875.647	-1.98
875.813	-46.44
875.98	-38.48
876.147	-61.66
876.314	-153.87
876.481	1215.29
876.647	-1547.75
876.814	653.11
876.981	-162.88
877.147	-75.47
877.314	-19.03
877.481	14.49
877.647	25.71
877.814	-20.49
877.98	-55.83
878.147	34.29
878.314	52.42
878.48	4.83
878.647	6.47
878.813	59.44
878.979	15.75
879.146	-22.23
879.312	-7.01
879.479	-46.93
879.645	-175
879.811	-273.66
879.978	-575.19
880.144	-191.43
880.31	-75.43
880.477	-278.27
880.643	-403.7
880.809	-153.59
880.975	-87.55
881.142	-799.55
881.308	-66.89
881.474	-9.27
881.64	-53.69
881.806	-172.74
881.972	-50.14
882.138	-57.27
882.304	-59.8
882.47	-183.16
882.636	-536.48
882.802	-176.91
882.968	-35.02
883.134	-32.2
883.3	-40.17
883.466	5.13
883.632	43.59
883.798	-1.97
883.964	-25.4
884.129	2.57
884.295	23.17
884.461	-45.23
884.627	-22.77
884.793	-18.69
884.958	-18.6
885.124	-115.19
885.29	-198.05
885.455	-310.44
885.621	-97.55
885.787	-154.37
885.952	-56.19
886.118	-49.39
886.283	-70.1
886.449	-169.41
886.614	-111.52
886.78	-292.12
886.945	1589.34
887.111	-688.73
887.276	-455.4
887.442	-1080.45
887.607	-355.42
887.773	-160.67
887.938	-127.81
888.103	-191.49
888.269	-91.42
888.434	-313.24
888.599	-135.19
888.764	-45.21
888.93	-28.84
889.095	-30.22
889.26	-66.92
889.425	-12.34
889.59	4.29
889.756	-53.66
889.921	-71.48
890.086	-29.16
890.251	-78.11
890.416	-331.01
890.581	-2095.97
890.746	272.32
890.911	483.76
891.076	205.36
891.241	-454.85
891.406	-3.43
891.571	-92.54
891.736	-330.5
891.901	-696.02
892.065	669.78
892.23	174.16
892.395	236.69
892.56	344.36
892.725	-248.83
892.889	-462.2
893.054	-95.74
893.219	-10.69
893.384	33.72
893.548	-25.91
893.713	-61.98
893.878	-33.41
