Data from Ofra_2a_PS_OGT5C_Reflection_1.txt Node
Date: Tue Jul 20 09:30:31 EDT 2021
User: Adam
Spectrometer: FLMT01687
Trigger mode: 0
Integration Time (sec): 9.450000E-1
Scans to average: 3
Electric dark correction enabled: true
Nonlinearity correction enabled: false
Boxcar width: 3
XAxis mode: Wavelengths
Number of Pixels in Spectrum: 3648
>>>>>Begin Spectral Data<<<<<
179.494	700
179.716	382.83
179.937	417.03
180.158	1638.67
180.38	-699.71
180.601	-111.06
180.823	-18.56
181.044	55.48
181.265	29.31
181.486	53.56
181.708	788.04
181.929	61.98
182.15	-392.61
182.372	-28.61
182.593	-0.43
182.814	261.23
183.035	93.49
183.257	64.15
183.478	46.2
183.699	47.8
183.92	11.3
184.141	4.5
184.363	-18.39
184.584	-10.77
184.805	-14.95
185.026	-40.55
185.247	-22.32
185.468	-1.18
185.689	-2.43
185.91	4.54
186.132	8.04
186.353	-10.02
186.574	-8.03
186.795	-22.34
187.016	-23.43
187.237	-29.51
187.458	-44.51
187.679	-55.95
187.9	-9.39
188.121	10.47
188.342	19.58
188.563	35.22
188.784	43.98
189.005	58.54
189.226	63.73
189.447	47.29
189.667	47.37
189.888	53.94
190.109	43.58
190.33	42.43
190.551	22.42
190.772	12.15
190.993	23.62
191.214	12.17
191.434	14.66
191.655	28.59
191.876	33.44
192.097	31.23
192.318	39.12
192.538	36.24
192.759	35.94
192.98	20.78
193.201	36.43
193.421	28.97
193.642	48.83
193.863	36.97
194.083	17.05
194.304	15.35
194.525	38.23
194.745	-8.57
194.966	6.49
195.187	1.47
195.407	11.33
195.628	19.13
195.848	27.33
196.069	4.46
196.29	5.39
196.51	-4.64
196.731	0.46
196.951	-10.67
197.172	-14.44
197.392	-0.6
197.613	-0.06
197.833	3.06
198.054	5.61
198.274	-14.17
198.495	-12.74
198.715	-19.43
198.936	-49.02
199.156	-17.99
199.377	-9.18
199.597	-24.44
199.817	-10.97
200.038	-1.3
200.258	11.92
200.479	12.68
200.699	8.02
200.919	0.74
201.14	7.14
201.36	9.3
201.58	4.49
201.801	-8.44
202.021	6.31
202.241	16.68
202.461	22.71
202.682	28.79
202.902	23.75
203.122	26.76
203.342	41.78
203.563	36.44
203.783	36.4
204.003	37.08
204.223	45.83
204.443	50.34
204.663	51.41
204.884	47.28
205.104	51.47
205.324	49.95
205.544	54.71
205.764	54.62
205.984	38.52
206.204	33.44
206.424	42.33
206.644	42.19
206.864	40.59
207.084	45.11
207.304	25
207.525	26.89
207.745	40.66
207.964	21.41
208.184	11.6
208.404	9.23
208.624	-16.1
208.844	-13.72
209.064	-10.27
209.284	-19.81
209.504	-22.12
209.724	-50.61
209.944	-69.24
210.164	-38.99
210.384	-37.44
210.604	-41.75
210.823	-45.34
211.043	-34.62
211.263	-3.13
211.483	8.65
211.703	10.32
211.922	14.34
212.142	17.49
212.362	20.26
212.582	14.63
212.801	10.35
213.021	7.99
213.241	-7.1
213.461	4.56
213.68	8.74
213.9	19.1
214.12	16.43
214.339	18.08
214.559	20.52
214.779	23.5
214.998	13.62
215.218	12.84
215.438	16.73
215.657	17.97
215.877	18.94
216.096	21.28
216.316	23.78
216.535	26.27
216.755	12.77
216.974	-3.85
217.194	0.05
217.413	-1.46
217.633	-4.17
217.852	-14.31
218.072	-30.47
218.291	-3.26
218.511	15.53
218.73	9.42
218.95	14.5
219.169	21.63
219.389	30.03
219.608	32.92
219.827	25.3
220.047	17.76
220.266	30.48
220.485	25.21
220.705	11.44
220.924	15.65
221.143	17.28
221.363	12.42
221.582	12.31
221.801	9.41
222.021	4.49
222.24	2.63
222.459	-7.12
222.678	-20.47
222.897	-10.73
223.117	-9.02
223.336	-8.86
223.555	-1.32
223.774	9.92
223.993	12.45
224.213	12.15
224.432	29.82
224.651	29.42
224.87	29.4
225.089	27.25
225.308	24.15
225.527	27.03
225.746	28.78
225.965	11.27
226.184	18.7
226.404	-0.08
226.623	6.73
226.842	10.99
227.061	9.94
227.28	22.78
227.499	27.88
227.718	19.09
227.936	21.16
228.155	16.29
228.374	15.33
228.593	13.17
228.812	2.15
229.031	-4.88
229.25	1.65
229.469	10.17
229.688	17.67
229.907	8.02
230.125	6.85
230.344	19.35
230.563	26.34
230.782	20.32
231.001	22.34
231.22	15.39
231.438	33.35
231.657	43.67
231.876	37.96
232.095	27.51
232.313	33.56
232.532	28.5
232.751	29.81
232.969	29.17
233.188	20.9
233.407	30.41
233.625	36.41
233.844	28.01
234.063	27.44
234.281	26.53
234.5	22.73
234.719	26.57
234.937	18.62
235.156	7.31
235.374	5.64
235.593	-1.59
235.811	-6.34
236.03	-30.53
236.249	-20.33
236.467	-8.78
236.686	17.04
236.904	16.34
237.123	21.07
237.341	26.76
237.559	37
237.778	33.59
237.996	37.65
238.215	31.13
238.433	32.81
238.652	34.31
238.87	32.4
239.088	21.6
239.307	22.83
239.525	17.58
239.743	7.74
239.962	7.47
240.18	6.5
240.398	6.62
240.617	27.33
240.835	26.19
241.053	31.95
241.271	38.22
241.49	30.61
241.708	30.6
241.926	21.43
242.144	18.74
242.363	10.01
242.581	7.05
242.799	4.14
243.017	13.23
243.235	7.46
243.453	14.08
243.672	0.75
243.89	12.86
244.108	16.53
244.326	14.49
244.544	7.81
244.762	14.19
244.98	11.79
245.198	4.42
245.416	4.69
245.634	0.64
245.852	9.81
246.07	18.29
246.288	17.3
246.506	33.24
246.724	52.07
246.942	45.07
247.16	31.04
247.378	20.03
247.596	14.02
247.814	7.99
248.032	-5.89
248.25	-22.08
248.468	-24.53
248.685	-19.45
248.903	-30.45
249.121	-27.74
249.339	-16.36
249.557	2.9
249.775	-4.27
249.992	-0.94
250.21	-5.1
250.428	3.54
250.646	8.78
250.863	1.97
251.081	-16.93
251.299	3.96
251.517	5.03
251.734	9.35
251.952	28.2
252.17	14.85
252.387	22.05
252.605	19.94
252.823	7.16
253.04	-4.28
253.258	2.19
253.475	-4.23
253.693	11.72
253.911	10.25
254.128	10.72
254.346	13
254.563	21.85
254.781	15.55
254.998	23.56
255.216	24.02
255.433	19.18
255.651	22.76
255.868	21.64
256.086	22.76
256.303	26.91
256.521	2.8
256.738	1.17
256.956	-2.82
257.173	-3.97
257.39	10.63
257.608	2.8
257.825	4.12
258.043	17.64
258.26	9.82
258.477	20.37
258.695	30.75
258.912	25.79
259.129	28.19
259.346	19.97
259.564	4.51
259.781	14.02
259.998	14.78
260.216	12.25
260.433	2.6
260.65	3.6
260.867	6.26
261.084	13.18
261.302	13.52
261.519	4.82
261.736	-8.36
261.953	-1.85
262.17	7.29
262.387	-1.01
262.604	-1.55
262.822	-2.24
263.039	1.77
263.256	5.82
263.473	1.27
263.69	8.77
263.907	19.91
264.124	15.89
264.341	11.22
264.558	13.88
264.775	14.75
264.992	18.3
265.209	16.51
265.426	8.73
265.643	8.94
265.86	8.43
266.077	5.68
266.294	11.27
266.51	13.91
266.727	-5.18
266.944	-41.54
267.161	-43.57
267.378	-47.19
267.595	-60.07
267.812	-71.73
268.028	-66.26
268.245	-55.61
268.462	-7.15
268.679	-11.55
268.896	-8.43
269.112	9.96
269.329	21.47
269.546	15.45
269.763	21.97
269.979	13.61
270.196	29.42
270.413	27.19
270.629	15.29
270.846	11.93
271.063	21.48
271.279	18.77
271.496	18.36
271.712	3.48
271.929	7.35
272.146	19.53
272.362	7.52
272.579	-4.98
272.795	0.43
273.012	-2.46
273.228	3.32
273.445	-2.83
273.661	-5.14
273.878	5.69
274.094	12.73
274.311	13.62
274.527	12.24
274.744	17.02
274.96	23.76
275.177	22.44
275.393	26.42
275.609	29.04
275.826	24.92
276.042	38.62
276.259	27.46
276.475	24.9
276.691	26
276.908	27.32
277.124	21.07
277.34	19.11
277.557	15.09
277.773	15.02
277.989	14.07
278.205	4.63
278.422	2.08
278.638	8.7
278.854	-3.18
279.07	-9.29
279.286	-13.76
279.503	-7.62
279.719	7.14
279.935	0.52
280.151	2.84
280.367	14.97
280.583	21.09
280.799	26.38
281.016	25.42
281.232	22.92
281.448	16.45
281.664	16.17
281.88	25.26
282.096	26.63
282.312	27.65
282.528	21
282.744	20.3
282.96	28.8
283.176	28.52
283.392	28.39
283.608	20.43
283.824	22.03
284.04	17.47
284.256	16.88
284.471	11.26
284.687	4.4
284.903	-7.3
285.119	-17.26
285.335	-14.96
285.551	-7.36
285.767	-7.09
285.982	-2.65
286.198	-7.53
286.414	11.4
286.63	23.74
286.846	19.42
287.061	18.3
287.277	15.05
287.493	13.1
287.709	15.64
287.924	14.62
288.14	17.79
288.356	20.88
288.571	20.55
288.787	33.77
289.003	37.02
289.218	36.36
289.434	32.71
289.65	33.98
289.865	41.37
290.081	29.33
290.296	22.26
290.512	25.6
290.727	36.04
290.943	31.27
291.159	17.5
291.374	16.38
291.59	21.22
291.805	13.67
292.021	2.48
292.236	-4.07
292.451	4.5
292.667	15.7
292.882	8.23
293.098	5.25
293.313	-1.11
293.529	1.99
293.744	6.23
293.959	1.25
294.175	-10.48
294.39	-11.11
294.605	8.5
294.821	20.94
295.036	20.14
295.251	20.64
295.467	22.14
295.682	26.9
295.897	23.75
296.112	22.86
296.328	21.86
296.543	15.74
296.758	12.7
296.973	12.88
297.188	7.48
297.404	3.7
297.619	-5.88
297.834	-0.99
298.049	4.47
298.264	3.06
298.479	-7.51
298.694	0.03
298.909	3.39
299.125	7.13
299.34	2.88
299.555	12.51
299.77	10.41
299.985	12.6
300.2	10.45
300.415	10.69
300.63	3.82
300.845	9.07
301.06	1.76
301.275	9.35
301.49	16.51
301.704	12.02
301.919	7.97
302.134	3.93
302.349	-10.53
302.564	-13.83
302.779	-24.4
302.994	-29.61
303.209	-30.96
303.423	-9.92
303.638	5.96
303.853	23.24
304.068	24.22
304.283	29.34
304.497	28.88
304.712	28.69
304.927	15.8
305.142	8.54
305.356	14.43
305.571	14.92
305.786	5.18
306	2.41
306.215	-1.18
306.43	14.47
306.644	19.99
306.859	13.81
307.074	18.98
307.288	23.74
307.503	19.22
307.717	16.78
307.932	8.28
308.147	7.58
308.361	2.11
308.576	0.94
308.79	1.12
309.005	5.62
309.219	7.02
309.434	5.19
309.648	-1.27
309.863	6.76
310.077	-0.55
310.292	-2.3
310.506	6.58
310.72	15.67
310.935	12.93
311.149	17.07
311.364	14.68
311.578	5.57
311.792	8.45
312.007	5.28
312.221	3.84
312.435	4.06
312.649	5.2
312.864	-8.06
313.078	19.1
313.292	20.9
313.507	20.97
313.721	9.94
313.935	29.45
314.149	20.46
314.363	35.65
314.578	34.92
314.792	32.33
315.006	32.88
315.22	38.86
315.434	23.37
315.648	20.98
315.862	14.37
316.077	14.59
316.291	10.93
316.505	14.98
316.719	8.65
316.933	17.89
317.147	21.83
317.361	21.7
317.575	19.86
317.789	27.88
318.003	18.34
318.217	18.14
318.431	17.66
318.645	16.08
318.859	6.44
319.073	6.23
319.287	7.2
319.5	9.83
319.714	14.77
319.928	19.43
320.142	21.98
320.356	36.62
320.57	29.93
320.784	27.58
320.997	33.74
321.211	31.1
321.425	19.57
321.639	18.95
321.853	12.29
322.066	15.36
322.28	13.47
322.494	4.19
322.707	5.37
322.921	9.49
323.135	12.85
323.349	16.9
323.562	18.86
323.776	24.38
323.989	20.71
324.203	19.67
324.417	14.86
324.63	3.9
324.844	-8.36
325.057	-6.14
325.271	-23.11
325.485	-13.83
325.698	-26.19
325.912	-15.82
326.125	-0.28
326.339	8.7
326.552	13.63
326.766	25.02
326.979	29.01
327.193	34.69
327.406	31.71
327.619	14.59
327.833	17.6
328.046	10.56
328.26	11.3
328.473	7.31
328.686	15.32
328.9	13.21
329.113	25.04
329.326	23.26
329.54	21.56
329.753	27.26
329.966	27.24
330.179	27.59
330.393	28.97
330.606	34.64
330.819	32.84
331.032	39.63
331.246	34.28
331.459	28.23
331.672	27.1
331.885	30.99
332.098	25.43
332.311	15.96
332.525	9.51
332.738	7.11
332.951	9.6
333.164	4.29
333.377	-4.32
333.59	-0.87
333.803	12.71
334.016	8.06
334.229	3.77
334.442	11.79
334.655	13.71
334.868	16.77
335.081	22.79
335.294	6.34
335.507	19.5
335.72	13.47
335.933	8.49
336.146	11.49
336.359	8.9
336.572	-0.88
336.785	18.25
336.997	10.99
337.21	15.41
337.423	18.79
337.636	21.34
337.849	19.71
338.062	21.16
338.274	12.8
338.487	14.09
338.7	18.79
338.913	16.51
339.125	11.48
339.338	14.24
339.551	17.05
339.763	14.36
339.976	14.06
340.189	3.17
340.402	-0.03
340.614	10.07
340.827	6.17
341.039	7.58
341.252	7.31
341.465	4.99
341.677	5.64
341.89	12.67
342.102	7.85
342.315	19.49
342.527	8.92
342.74	3.44
342.952	1.54
343.165	10.67
343.377	13.46
343.59	5.61
343.802	-6.34
344.015	5.05
344.227	5.68
344.44	7.72
344.652	7.36
344.864	1.83
345.077	12.85
345.289	13.36
345.502	17.22
345.714	22.24
345.926	29.48
346.139	31.46
346.351	27.77
346.563	24.45
346.775	30.14
346.988	19.28
347.2	19.91
347.412	13.78
347.624	15.11
347.837	18.79
348.049	15.51
348.261	12.66
348.473	8.8
348.685	12.61
348.897	18.98
349.11	21.78
349.322	19.18
349.534	13.84
349.746	21.81
349.958	28.41
350.17	26.05
350.382	15.49
350.594	8.01
350.806	12.25
351.018	18.64
351.23	19.42
351.442	16.1
351.654	19.54
351.866	28.7
352.078	27.22
352.29	31.06
352.502	34.99
352.714	32.31
352.926	29.65
353.138	24.27
353.35	12.48
353.561	8.1
353.773	9.37
353.985	6.77
354.197	0.03
354.409	3.93
354.621	4.22
354.832	7.95
355.044	19.47
355.256	14.12
355.468	3.95
355.679	5.17
355.891	6.55
356.103	7.81
356.314	5.99
356.526	-0.97
356.738	-5.06
356.949	11.77
357.161	13.5
357.373	13.38
357.584	19.25
357.796	21.82
358.008	20.41
358.219	35.6
358.431	32.09
358.642	37.23
358.854	36.14
359.065	32.77
359.277	37.11
359.488	31.44
359.7	29.5
359.911	23.33
360.123	18.37
360.334	18.51
360.546	5.65
360.757	2.17
360.969	10.3
361.18	2.38
361.391	7.37
361.603	12.31
361.814	13.05
362.025	18.92
362.237	17.4
362.448	21.57
362.659	10.96
362.871	11.46
363.082	6.58
363.293	8.04
363.504	10.17
363.716	14.88
363.927	13.83
364.138	22.57
364.349	24.3
364.56	27.47
364.772	26.6
364.983	21.02
365.194	17.2
365.405	11.27
365.616	5.43
365.827	4.57
366.038	7.25
366.25	15.63
366.461	21.6
366.672	28.2
366.883	33.9
367.094	34.98
367.305	34.89
367.516	28.95
367.727	20.86
367.938	23
368.149	21.52
368.36	16.38
368.571	18.88
368.781	17.14
368.992	19.28
369.203	22
369.414	21.26
369.625	17.27
369.836	24.46
370.047	15.79
370.258	13.36
370.468	11.92
370.679	9.64
370.89	21.67
371.101	26.71
371.312	17.22
371.522	24.94
371.733	15.69
371.944	16.45
372.155	7.97
372.365	-3.44
372.576	-7.9
372.787	-7.13
372.997	-4.99
373.208	9.75
373.419	6.21
373.629	16.08
373.84	13.12
374.05	18.04
374.261	19.05
374.472	17.65
374.682	10
374.893	10.21
375.103	8.32
375.314	9.12
375.524	12.5
375.735	13.16
375.945	12.01
376.156	18.01
376.366	19.97
376.577	21.26
376.787	21.16
376.997	15.71
377.208	12.99
377.418	15.74
377.629	11.41
377.839	12.91
378.049	20.02
378.26	23.83
378.47	20.91
378.68	21.75
378.89	18.9
379.101	10.77
379.311	10.18
379.521	6.8
379.732	4.34
379.942	11.19
380.152	20.95
380.362	21.01
380.572	27.97
380.783	25.97
380.993	20.2
381.203	18.08
381.413	18.78
381.623	11.98
381.833	5.9
382.043	0.96
382.253	-2.7
382.463	6.09
382.674	7.93
382.884	4.08
383.094	2.79
383.304	9.15
383.514	13.91
383.724	19.89
383.934	18.27
384.144	22.48
384.353	23.22
384.563	19.47
384.773	18.15
384.983	21.7
385.193	22.1
385.403	18.91
385.613	12.91
385.823	13.23
386.033	16.38
386.242	16.24
386.452	10.2
386.662	8.05
386.872	4.89
387.082	4.67
387.291	2.95
387.501	2.95
387.711	1.87
387.921	1.59
388.13	0.14
388.34	2.08
388.55	4.74
388.759	3.1
388.969	-0.23
389.179	1.99
389.388	6.97
389.598	6.5
389.807	6.29
390.017	4.89
390.227	5.19
390.436	6.93
390.646	5.71
390.855	2.66
391.065	3.17
391.274	2.97
391.484	2.78
391.693	4.51
391.903	4.63
392.112	4.78
392.322	6.61
392.531	5.51
392.74	3.78
392.95	3.74
393.159	3.33
393.369	3.88
393.578	3.39
393.787	1.75
393.997	4.41
394.206	6.11
394.415	7.21
394.625	6.11
394.834	5.1
395.043	5.32
395.252	6.32
395.462	4.87
395.671	4.53
395.88	3.7
396.089	4.49
396.298	4.97
396.508	4.62
396.717	3.97
396.926	4.09
397.135	3.91
397.344	3.77
397.553	3.79
397.762	3.57
397.971	3.26
398.181	2.99
398.39	3.07
398.599	3.02
398.808	3.35
399.017	3.34
399.226	3.61
399.435	3.94
399.644	4.24
399.853	4.21
400.062	4.29
400.27	4.17
400.479	4.07
400.688	3.89
400.897	4.02
401.106	4.1
401.315	4.03
401.524	4.01
401.733	3.9
401.941	4.02
402.15	3.83
402.359	3.67
402.568	3.66
402.777	3.58
402.985	3.66
403.194	3.71
403.403	3.36
403.612	3.52
403.82	3.54
404.029	3.38
404.238	3.43
404.446	3.36
404.655	3.2
404.864	3.36
405.072	3.34
405.281	3.25
405.489	3.3
405.698	3.21
405.906	3.18
406.115	3.31
406.324	3.16
406.532	3.2
406.741	3.27
406.949	3.14
407.158	3.25
407.366	3.31
407.574	3.33
407.783	3.41
407.991	3.32
408.2	3.27
408.408	3.35
408.617	3.29
408.825	3.3
409.033	3.17
409.242	3.1
409.45	3.08
409.658	3.06
409.867	3.05
410.075	3
410.283	2.85
410.491	2.89
410.7	2.96
410.908	2.98
411.116	2.89
411.324	2.94
411.533	2.85
411.741	2.91
411.949	2.97
412.157	2.98
412.365	3.04
412.573	3.07
412.781	3.05
412.99	3.19
413.198	3.23
413.406	3.13
413.614	3.13
413.822	3.03
414.03	3.01
414.238	3.04
414.446	2.95
414.654	2.85
414.862	2.89
415.07	2.9
415.278	2.9
415.486	3.07
415.694	2.91
415.902	2.91
416.109	2.97
416.317	2.97
416.525	2.97
416.733	3.04
416.941	2.85
417.149	2.95
417.357	3.02
417.564	2.94
417.772	2.87
417.98	2.75
418.188	2.59
418.395	2.63
418.603	2.54
418.811	2.42
419.019	2.47
419.226	2.57
419.434	2.52
419.642	2.59
419.849	2.67
420.057	2.73
420.265	2.79
420.472	2.77
420.68	2.75
420.887	2.8
421.095	2.84
421.302	2.76
421.51	2.81
421.717	2.81
421.925	2.76
422.132	2.71
422.34	2.68
422.547	2.63
422.755	2.67
422.962	2.53
423.17	2.55
423.377	2.71
423.585	2.72
423.792	2.69
423.999	2.68
424.207	2.55
424.414	2.64
424.621	2.65
424.829	2.55
425.036	2.47
425.243	2.56
425.451	2.6
425.658	2.71
425.865	2.63
426.072	2.67
426.28	2.63
426.487	2.69
426.694	2.67
426.901	2.55
427.108	2.51
427.315	2.54
427.523	2.5
427.73	2.53
427.937	2.53
428.144	2.51
428.351	2.62
428.558	2.68
428.765	2.63
428.972	2.63
429.179	2.59
429.386	2.62
429.593	2.53
429.8	2.59
430.007	2.57
430.214	2.64
430.421	2.63
430.628	2.51
430.835	2.48
431.042	2.63
431.249	2.56
431.456	2.58
431.662	2.57
431.869	2.68
432.076	2.81
432.283	2.82
432.49	2.79
432.697	2.77
432.903	2.78
433.11	2.85
433.317	2.81
433.524	2.71
433.73	2.7
433.937	2.67
434.144	2.76
434.35	2.76
434.557	2.67
434.764	2.58
434.97	2.69
435.177	2.72
435.384	2.76
435.59	2.68
435.797	2.72
436.003	2.76
436.21	2.81
436.416	2.79
436.623	2.8
436.829	2.82
437.036	2.82
437.242	2.78
437.449	2.78
437.655	2.75
437.862	2.74
438.068	2.75
438.275	2.69
438.481	2.75
438.687	2.79
438.894	2.75
439.1	2.78
439.307	2.8
439.513	2.77
439.719	2.82
439.926	2.87
440.132	2.88
440.338	2.94
440.544	2.95
440.751	2.94
440.957	2.98
441.163	3.02
441.369	3
441.575	2.97
441.782	2.97
441.988	2.94
442.194	3.01
442.4	3.01
442.606	3.03
442.812	3.04
443.018	3.06
443.224	3.06
443.431	3.11
443.637	3.08
443.843	3.13
444.049	3.05
444.255	2.98
444.461	2.95
444.667	2.97
444.873	2.95
445.079	2.95
445.284	2.89
445.49	2.89
445.696	2.97
445.902	3.02
446.108	3.01
446.314	3.07
446.52	3.09
446.726	3.15
446.931	3.19
447.137	3.17
447.343	3.18
447.549	3.17
447.755	3.14
447.96	3.08
448.166	3.11
448.372	3.11
448.578	3.13
448.783	3.1
448.989	3.13
449.195	3.12
449.4	3.19
449.606	3.11
449.812	3.1
450.017	3.08
450.223	3.09
450.428	3.11
450.634	3.09
450.84	3.09
451.045	3.15
451.251	3.23
451.456	3.25
451.662	3.28
451.867	3.26
452.073	3.28
452.278	3.25
452.483	3.26
452.689	3.21
452.894	3.23
453.1	3.16
453.305	3.15
453.51	3.17
453.716	3.23
453.921	3.19
454.127	3.19
454.332	3.18
454.537	3.29
454.742	3.3
454.948	3.3
455.153	3.3
455.358	3.35
455.563	3.42
455.769	3.39
455.974	3.36
456.179	3.32
456.384	3.33
456.589	3.31
456.795	3.27
457	3.22
457.205	3.19
457.41	3.2
457.615	3.26
457.82	3.32
458.025	3.33
458.23	3.34
458.435	3.32
458.64	3.4
458.845	3.36
459.05	3.36
459.255	3.34
459.46	3.35
459.665	3.44
459.87	3.48
460.075	3.46
460.28	3.49
460.485	3.5
460.69	3.45
460.895	3.45
461.099	3.4
461.304	3.38
461.509	3.36
461.714	3.37
461.919	3.33
462.123	3.41
462.328	3.42
462.533	3.39
462.738	3.39
462.942	3.42
463.147	3.45
463.352	3.54
463.556	3.55
463.761	3.53
463.966	3.62
464.17	3.65
464.375	3.66
464.58	3.61
464.784	3.57
464.989	3.56
465.193	3.59
465.398	3.59
465.602	3.64
465.807	3.67
466.011	3.73
466.216	3.72
466.42	3.82
466.625	3.81
466.829	3.8
467.034	3.79
467.238	3.81
467.443	3.85
467.647	3.91
467.851	3.86
468.056	3.87
468.26	3.83
468.464	3.86
468.669	3.93
468.873	3.87
469.077	3.87
469.282	3.87
469.486	3.93
469.69	4.01
469.894	4.08
470.099	4.07
470.303	4.13
470.507	4.16
470.711	4.12
470.915	4.12
471.119	4.14
471.324	4.1
471.528	4.07
471.732	4.04
471.936	4.05
472.14	4.08
472.344	4.11
472.548	4.1
472.752	4.15
472.956	4.21
473.16	4.28
473.364	4.29
473.568	4.31
473.772	4.33
473.976	4.33
474.18	4.3
474.384	4.27
474.588	4.27
474.792	4.23
474.995	4.27
475.199	4.28
475.403	4.31
475.607	4.35
475.811	4.35
476.015	4.37
476.218	4.4
476.422	4.43
476.626	4.39
476.83	4.45
477.033	4.49
477.237	4.55
477.441	4.6
477.644	4.66
477.848	4.66
478.052	4.72
478.255	4.7
478.459	4.7
478.663	4.69
478.866	4.65
479.07	4.62
479.273	4.64
479.477	4.69
479.681	4.71
479.884	4.65
480.088	4.66
480.291	4.7
480.495	4.73
480.698	4.68
480.901	4.64
481.105	4.66
481.308	4.7
481.512	4.72
481.715	4.75
481.919	4.77
482.122	4.82
482.325	4.89
482.529	4.92
482.732	4.95
482.935	4.98
483.138	4.97
483.342	5.01
483.545	5.01
483.748	5
483.952	5
484.155	5.04
484.358	5.04
484.561	5.08
484.764	5.05
484.967	5.1
485.171	5.11
485.374	5.11
485.577	5.12
485.78	5.12
485.983	5.11
486.186	5.12
486.389	5.09
486.592	5.1
486.795	5.08
486.998	5.04
487.201	5.06
487.404	5.1
487.607	5.09
487.81	5.08
488.013	5.06
488.216	5.09
488.419	5.1
488.622	5.07
488.825	5.03
489.028	5.01
489.231	5.02
489.433	5.03
489.636	4.98
489.839	5.01
490.042	5.05
490.245	5.03
490.447	5.04
490.65	5.09
490.853	5.08
491.056	5.11
491.258	5.09
491.461	5.05
491.664	5.05
491.866	5.09
492.069	5.09
492.272	5.07
492.474	5.05
492.677	5.04
492.879	5.08
493.082	5.13
493.285	5.18
493.487	5.17
493.69	5.21
493.892	5.25
494.095	5.26
494.297	5.31
494.5	5.31
494.702	5.28
494.905	5.27
495.107	5.27
495.309	5.26
495.512	5.29
495.714	5.27
495.917	5.27
496.119	5.33
496.321	5.37
496.524	5.41
496.726	5.43
496.928	5.45
497.13	5.47
497.333	5.47
497.535	5.44
497.737	5.43
497.939	5.42
498.142	5.43
498.344	5.42
498.546	5.46
498.748	5.46
498.95	5.47
499.152	5.45
499.355	5.47
499.557	5.51
499.759	5.59
499.961	5.6
500.163	5.66
500.365	5.65
500.567	5.68
500.769	5.73
500.971	5.69
501.173	5.65
501.375	5.66
501.577	5.67
501.779	5.73
501.981	5.75
502.183	5.7
502.385	5.75
502.587	5.75
502.788	5.71
502.99	5.71
503.192	5.72
503.394	5.76
503.596	5.81
503.798	5.88
503.999	5.93
504.201	5.97
504.403	6
504.605	6.04
504.806	6.05
505.008	6.06
505.21	6.04
505.411	6.06
505.613	6.11
505.815	6.14
506.016	6.15
506.218	6.14
506.42	6.17
506.621	6.2
506.823	6.24
507.024	6.26
507.226	6.25
507.427	6.25
507.629	6.31
507.83	6.29
508.032	6.3
508.233	6.3
508.435	6.3
508.636	6.3
508.838	6.32
509.039	6.33
509.24	6.39
509.442	6.4
509.643	6.38
509.845	6.42
510.046	6.44
510.247	6.48
510.448	6.48
510.65	6.47
510.851	6.49
511.052	6.52
511.254	6.55
511.455	6.57
511.656	6.54
511.857	6.57
512.058	6.6
512.26	6.58
512.461	6.59
512.662	6.58
512.863	6.58
513.064	6.6
513.265	6.64
513.466	6.68
513.667	6.72
513.868	6.73
514.069	6.75
514.27	6.79
514.471	6.81
514.672	6.8
514.873	6.8
515.074	6.83
515.275	6.84
515.476	6.86
515.677	6.85
515.878	6.91
516.079	6.93
516.28	6.9
516.481	6.87
516.682	6.88
516.882	6.89
517.083	6.93
517.284	6.85
517.485	6.86
517.686	6.89
517.886	6.93
518.087	6.95
518.288	6.98
518.488	6.96
518.689	7.01
518.89	7.05
519.091	7.05
519.291	7.08
519.492	7.09
519.692	7.09
519.893	7.1
520.094	7.11
520.294	7.12
520.495	7.14
520.695	7.13
520.896	7.14
521.096	7.15
521.297	7.2
521.497	7.23
521.698	7.23
521.898	7.25
522.099	7.28
522.299	7.31
522.499	7.32
522.7	7.31
522.9	7.3
523.101	7.32
523.301	7.31
523.501	7.32
523.702	7.3
523.902	7.29
524.102	7.31
524.302	7.35
524.503	7.35
524.703	7.38
524.903	7.38
525.103	7.41
525.304	7.44
525.504	7.46
525.704	7.44
525.904	7.46
526.104	7.47
526.304	7.51
526.504	7.55
526.705	7.57
526.905	7.54
527.105	7.58
527.305	7.56
527.505	7.56
527.705	7.55
527.905	7.53
528.105	7.56
528.305	7.59
528.505	7.6
528.705	7.64
528.905	7.67
529.105	7.7
529.304	7.75
529.504	7.75
529.704	7.77
529.904	7.81
530.104	7.79
530.304	7.79
530.503	7.78
530.703	7.78
530.903	7.81
531.103	7.79
531.303	7.81
531.502	7.83
531.702	7.88
531.902	7.93
532.101	7.95
532.301	7.98
532.501	8.01
532.7	8.01
532.9	8.06
533.1	8.06
533.299	8.05
533.499	8.07
533.698	8.11
533.898	8.14
534.097	8.15
534.297	8.13
534.496	8.13
534.696	8.17
534.895	8.19
535.095	8.18
535.294	8.18
535.494	8.24
535.693	8.31
535.892	8.34
536.092	8.34
536.291	8.34
536.491	8.33
536.69	8.36
536.889	8.33
537.088	8.32
537.288	8.36
537.487	8.4
537.686	8.46
537.886	8.49
538.085	8.54
538.284	8.59
538.483	8.62
538.682	8.65
538.882	8.66
539.081	8.67
539.28	8.69
539.479	8.72
539.678	8.76
539.877	8.79
540.076	8.81
540.275	8.85
540.474	8.82
540.673	8.85
540.872	8.91
541.071	8.92
541.27	8.94
541.469	8.99
541.668	9.04
541.867	9.12
542.066	9.14
542.265	9.15
542.464	9.21
542.663	9.27
542.862	9.28
543.06	9.33
543.259	9.35
543.458	9.4
543.657	9.44
543.856	9.45
544.054	9.49
544.253	9.55
544.452	9.51
544.651	9.55
544.849	9.59
545.048	9.63
545.247	9.65
545.445	9.66
545.644	9.69
545.843	9.81
546.041	9.84
546.24	9.91
546.438	9.96
546.637	10.03
546.836	10.08
547.034	10.12
547.233	10.13
547.431	10.19
547.63	10.23
547.828	10.27
548.027	10.31
548.225	10.36
548.423	10.46
548.622	10.56
548.82	10.61
549.019	10.67
549.217	10.74
549.415	10.81
549.614	10.89
549.812	10.91
550.01	10.92
550.209	11.01
550.407	11.06
550.605	11.15
550.803	11.22
551.002	11.26
551.2	11.38
551.398	11.43
551.596	11.46
551.794	11.56
551.993	11.61
552.191	11.69
552.389	11.77
552.587	11.79
552.785	11.91
552.983	11.98
553.181	12
553.379	12.1
553.577	12.16
553.775	12.26
553.973	12.36
554.171	12.44
554.369	12.54
554.567	12.64
554.765	12.69
554.963	12.77
555.161	12.87
555.359	12.91
555.557	12.95
555.755	13.07
555.952	13.15
556.15	13.2
556.348	13.3
556.546	13.34
556.744	13.46
556.941	13.58
557.139	13.65
557.337	13.75
557.535	13.91
557.732	14.02
557.93	14.13
558.128	14.22
558.325	14.3
558.523	14.37
558.721	14.46
558.918	14.54
559.116	14.63
559.313	14.72
559.511	14.8
559.708	14.92
559.906	15.03
560.104	15.13
560.301	15.19
560.498	15.3
560.696	15.4
560.893	15.5
561.091	15.61
561.288	15.71
561.486	15.81
561.683	15.91
561.88	16.01
562.078	16.1
562.275	16.22
562.473	16.28
562.67	16.38
562.867	16.5
563.064	16.65
563.262	16.76
563.459	16.89
563.656	17.04
563.853	17.17
564.051	17.21
564.248	17.32
564.445	17.4
564.642	17.49
564.839	17.6
565.036	17.69
565.234	17.84
565.431	18
565.628	18.09
565.825	18.18
566.022	18.23
566.219	18.33
566.416	18.43
566.613	18.48
566.81	18.55
567.007	18.64
567.204	18.76
567.401	18.9
567.598	19
567.795	19.06
567.991	19.18
568.188	19.25
568.385	19.31
568.582	19.38
568.779	19.46
568.976	19.53
569.172	19.6
569.369	19.66
569.566	19.72
569.763	19.84
569.96	19.93
570.156	19.91
570.353	19.96
570.55	20.03
570.746	20.07
570.943	20.22
571.14	20.3
571.336	20.3
571.533	20.46
571.729	20.53
571.926	20.57
572.123	20.66
572.319	20.65
572.516	20.67
572.712	20.78
572.909	20.82
573.105	20.88
573.302	20.95
573.498	20.97
573.695	21.03
573.891	21.09
574.087	21.13
574.284	21.1
574.48	21.11
574.677	21.18
574.873	21.25
575.069	21.32
575.266	21.38
575.462	21.4
575.658	21.5
575.854	21.57
576.051	21.59
576.247	21.58
576.443	21.57
576.639	21.56
576.835	21.62
577.032	21.6
577.228	21.62
577.424	21.61
577.62	21.69
577.816	21.72
578.012	21.72
578.208	21.68
578.404	21.76
578.6	21.76
578.796	21.77
578.993	21.73
579.189	21.74
579.384	21.75
579.58	21.79
579.776	21.77
579.972	21.78
580.168	21.78
580.364	21.8
580.56	21.8
580.756	21.82
580.952	21.81
581.148	21.79
581.343	21.79
581.539	21.83
581.735	21.81
581.931	21.77
582.127	21.76
582.322	21.76
582.518	21.7
582.714	21.68
582.909	21.65
583.105	21.66
583.301	21.64
583.496	21.63
583.692	21.61
583.888	21.65
584.083	21.66
584.279	21.7
584.474	21.67
584.67	21.71
584.866	21.74
585.061	21.75
585.257	21.72
585.452	21.73
585.648	21.71
585.843	21.72
586.039	21.72
586.234	21.68
586.429	21.68
586.625	21.73
586.82	21.68
587.015	21.64
587.211	21.61
587.406	21.6
587.601	21.63
587.797	21.61
587.992	21.56
588.187	21.62
588.383	21.67
588.578	21.68
588.773	21.73
588.968	21.73
589.163	21.76
589.359	21.84
589.554	21.86
589.749	21.87
589.944	21.93
590.139	21.96
590.334	21.98
590.529	22.03
590.724	22.01
590.919	22.04
591.114	22.04
591.309	22.04
591.504	22.08
591.699	22.11
591.894	22.16
592.089	22.24
592.284	22.27
592.479	22.33
592.674	22.4
592.869	22.46
593.064	22.57
593.259	22.63
593.454	22.64
593.648	22.67
593.843	22.78
594.038	22.85
594.233	22.94
594.428	23.01
594.622	23.02
594.817	23.11
595.012	23.22
595.206	23.26
595.401	23.31
595.596	23.38
595.79	23.44
595.985	23.56
596.18	23.7
596.374	23.75
596.569	23.85
596.763	24
596.958	24.01
597.153	24.04
597.347	24.07
597.542	24.12
597.736	24.23
597.931	24.33
598.125	24.35
598.319	24.45
598.514	24.51
598.708	24.65
598.903	24.71
599.097	24.76
599.291	24.81
599.486	24.86
599.68	24.87
599.874	24.98
600.069	25.01
600.263	25.03
600.457	25.04
600.651	25.04
600.846	25.08
601.04	25.18
601.234	25.2
601.428	25.21
601.622	25.26
601.817	25.37
602.011	25.46
602.205	25.5
602.399	25.54
602.593	25.6
602.787	25.64
602.981	25.63
603.175	25.63
603.369	25.62
603.563	25.59
603.757	25.56
603.951	25.49
604.145	25.5
604.339	25.57
604.533	25.53
604.727	25.5
604.921	25.53
605.115	25.5
605.309	25.57
605.502	25.56
605.696	25.47
605.89	25.47
606.084	25.38
606.278	25.37
606.471	25.31
606.665	25.17
606.859	25.1
607.053	25.07
607.246	24.98
607.44	24.95
607.634	24.86
607.827	24.78
608.021	24.72
608.214	24.64
608.408	24.55
608.602	24.48
608.795	24.42
608.989	24.41
609.182	24.43
609.376	24.37
609.569	24.27
609.763	24.25
609.956	24.25
610.15	24.17
610.343	24.03
610.537	23.91
610.73	23.86
610.923	23.81
611.117	23.67
611.31	23.56
611.504	23.47
611.697	23.42
611.89	23.36
612.083	23.26
612.277	23.17
612.47	23.12
612.663	23.08
612.856	23.03
613.05	22.93
613.243	22.86
613.436	22.8
613.629	22.8
613.822	22.71
614.015	22.58
614.209	22.57
614.402	22.5
614.595	22.43
614.788	22.36
614.981	22.21
615.174	22.17
615.367	22.14
615.56	22.03
615.753	21.98
615.946	21.94
616.139	21.93
616.332	21.89
616.525	21.83
616.718	21.79
616.911	21.73
617.103	21.69
617.296	21.62
617.489	21.51
617.682	21.53
617.875	21.45
618.067	21.35
618.26	21.26
618.453	21.14
618.646	21.06
618.838	21.04
619.031	20.95
619.224	20.93
619.417	20.88
619.609	20.89
619.802	20.96
619.994	20.95
620.187	20.89
620.38	20.84
620.572	20.81
620.765	20.83
620.957	20.76
621.15	20.64
621.342	20.64
621.535	20.6
621.727	20.57
621.92	20.51
622.112	20.43
622.305	20.38
622.497	20.32
622.69	20.27
622.882	20.27
623.074	20.24
623.267	20.28
623.459	20.33
623.651	20.35
623.844	20.42
624.036	20.39
624.228	20.39
624.42	20.41
624.613	20.36
624.805	20.3
624.997	20.27
625.189	20.23
625.381	20.18
625.574	20.11
625.766	20.04
625.958	20.04
626.15	20.03
626.342	20
626.534	19.95
626.726	19.96
626.918	19.87
627.11	19.85
627.302	19.78
627.494	19.74
627.686	19.69
627.878	19.66
628.07	19.61
628.262	19.63
628.454	19.57
628.646	19.53
628.838	19.46
629.029	19.38
629.221	19.32
629.413	19.28
629.605	19.23
629.797	19.23
629.989	19.21
630.18	19.21
630.372	19.18
630.564	19.2
630.755	19.17
630.947	19.11
631.139	19.03
631.33	18.99
631.522	18.95
631.714	18.96
631.905	18.92
632.097	18.95
632.289	18.91
632.48	18.88
632.672	18.82
632.863	18.77
633.055	18.76
633.246	18.73
633.438	18.7
633.629	18.75
633.821	18.81
634.012	18.83
634.203	18.85
634.395	18.84
634.586	18.82
634.777	18.73
634.969	18.71
635.16	18.63
635.351	18.58
635.543	18.57
635.734	18.53
635.925	18.56
636.117	18.61
636.308	18.58
636.499	18.6
636.69	18.68
636.881	18.67
637.073	18.68
637.264	18.65
637.455	18.63
637.646	18.6
637.837	18.57
638.028	18.54
638.219	18.52
638.41	18.55
638.601	18.55
638.792	18.51
638.983	18.48
639.174	18.49
639.365	18.45
639.556	18.45
639.747	18.41
639.938	18.43
640.129	18.41
640.32	18.45
640.511	18.47
640.701	18.43
640.892	18.45
641.083	18.4
641.274	18.33
641.465	18.36
641.655	18.34
641.846	18.26
642.037	18.28
642.228	18.22
642.418	18.22
642.609	18.22
642.8	18.21
642.99	18.23
643.181	18.28
643.372	18.22
643.562	18.17
643.753	18.14
643.943	18.12
644.134	18.06
644.324	18.04
644.515	18
644.705	17.98
644.896	17.97
645.086	17.94
645.277	17.91
645.467	17.95
645.658	17.92
645.848	17.89
646.038	17.85
646.229	17.85
646.419	17.87
646.61	17.86
646.8	17.78
646.99	17.74
647.18	17.71
647.371	17.7
647.561	17.67
647.751	17.62
647.941	17.57
648.132	17.6
648.322	17.58
648.512	17.58
648.702	17.55
648.892	17.49
649.082	17.46
649.272	17.4
649.462	17.34
649.653	17.35
649.843	17.27
650.033	17.25
650.223	17.27
650.413	17.25
650.603	17.24
650.793	17.18
650.983	17.09
651.172	17.08
651.362	17.03
651.552	16.94
651.742	16.88
651.932	16.86
652.122	16.79
652.312	16.67
652.502	16.58
652.691	16.54
652.881	16.46
653.071	16.33
653.261	16.21
653.45	16.11
653.64	16.1
653.83	15.97
654.019	15.81
654.209	15.74
654.399	15.67
654.588	15.54
654.778	15.48
654.968	15.35
655.157	15.26
655.347	15.08
655.536	14.89
655.726	14.74
655.915	14.63
656.105	14.45
656.294	14.26
656.484	14.13
656.673	14.08
656.863	13.98
657.052	13.78
657.241	13.61
657.431	13.46
657.62	13.29
657.809	13.14
657.999	12.95
658.188	12.81
658.377	12.72
658.567	12.54
658.756	12.34
658.945	12.19
659.134	12.01
659.324	11.8
659.513	11.52
659.702	11.3
659.891	11.15
660.08	11.08
660.269	10.93
660.458	10.8
660.648	10.7
660.837	10.64
661.026	10.53
661.215	10.41
661.404	10.18
661.593	10.05
661.782	9.93
661.971	9.76
662.16	9.61
662.349	9.5
662.538	9.38
662.726	9.27
662.915	9.14
663.104	8.96
663.293	8.79
663.482	8.7
663.671	8.53
663.86	8.42
664.048	8.34
664.237	8.22
664.426	8.2
664.615	8.12
664.803	7.97
664.992	7.96
665.181	7.91
665.369	7.86
665.558	7.76
665.747	7.69
665.935	7.7
666.124	7.7
666.312	7.55
666.501	7.44
666.69	7.34
666.878	7.32
667.067	7.3
667.255	7.24
667.444	7.17
667.632	7.18
667.82	7.14
668.009	7.14
668.197	7.11
668.386	7
668.574	6.92
668.762	6.9
668.951	6.83
669.139	6.88
669.327	6.86
669.516	6.87
669.704	6.9
669.892	6.88
670.08	6.91
670.269	6.97
670.457	6.89
670.645	6.88
670.833	6.86
671.021	6.84
671.21	6.95
671.398	6.95
671.586	6.95
671.774	6.98
671.962	7.06
672.15	7.06
672.338	7.15
672.526	7.14
672.714	7.18
672.902	7.2
673.09	7.3
673.278	7.31
673.466	7.46
673.654	7.46
673.842	7.55
674.03	7.67
674.218	7.74
674.405	7.76
674.593	7.8
674.781	7.82
674.969	7.87
675.157	7.93
675.344	7.96
675.532	8
675.72	8.07
675.908	8.15
676.095	8.28
676.283	8.34
676.471	8.39
676.658	8.45
676.846	8.57
677.033	8.67
677.221	8.78
677.409	8.84
677.596	8.99
677.784	9.06
677.971	9.13
678.159	9.23
678.346	9.26
678.534	9.35
678.721	9.4
678.909	9.44
679.096	9.53
679.283	9.61
679.471	9.76
679.658	9.89
679.846	9.96
680.033	10.06
680.22	10.16
680.408	10.32
680.595	10.42
680.782	10.43
680.969	10.48
681.157	10.62
681.344	10.78
681.531	10.94
681.718	11.06
681.905	11.24
682.093	11.45
682.28	11.73
682.467	11.86
682.654	11.98
682.841	12.06
683.028	12.32
683.215	12.44
683.402	12.58
683.589	12.79
683.776	13.04
683.963	13.27
684.15	13.59
684.337	13.71
684.524	13.91
684.711	14.16
684.898	14.37
685.085	14.59
685.271	14.83
685.458	15.1
685.645	15.41
685.832	15.74
686.019	16.06
686.205	16.31
686.392	16.66
686.579	16.96
686.766	17.32
686.952	17.74
687.139	18.16
687.326	18.58
687.512	19.01
687.699	19.37
687.886	19.81
688.072	20.25
688.259	20.57
688.445	20.97
688.632	21.47
688.818	21.93
689.005	22.49
689.191	23.05
689.378	23.39
689.564	23.89
689.751	24.54
689.937	24.97
690.124	25.51
690.31	26.02
690.496	26.47
690.683	27.16
690.869	27.75
691.055	28.33
691.242	28.82
691.428	29.44
691.614	30.07
691.8	30.71
691.987	31.32
692.173	32.05
692.359	32.73
692.545	33.52
692.731	34.2
692.918	34.8
693.104	35.43
693.29	36.21
693.476	36.79
693.662	37.34
693.848	37.93
694.034	38.38
694.22	39.04
694.406	39.75
694.592	40.21
694.778	40.79
694.964	41.34
695.15	41.91
695.336	42.73
695.522	43.45
695.708	44.15
695.894	44.92
696.08	45.59
696.265	46.24
696.451	47.06
696.637	47.7
696.823	48.16
697.009	48.68
697.194	49.27
697.38	49.84
697.566	50.33
697.751	50.84
697.937	51.45
698.123	52.13
698.308	52.57
698.494	53.01
698.68	53.53
698.865	54.33
699.051	54.82
699.236	55.17
699.422	55.61
699.607	56.14
699.793	56.68
699.978	57.15
700.164	57.46
700.349	57.91
700.535	58.43
700.72	58.98
700.906	59.34
701.091	59.63
701.276	60.06
701.462	60.55
701.647	60.85
701.832	61.32
702.018	61.59
702.203	61.93
702.388	62.31
702.573	62.84
702.759	63.23
702.944	63.74
703.129	64.06
703.314	64.47
703.499	64.95
703.684	65.5
703.87	65.73
704.055	66.13
704.24	66.44
704.425	66.82
704.61	67.05
704.795	67.53
704.98	67.6
705.165	67.78
705.35	67.9
705.535	68.3
705.72	68.45
705.905	68.6
706.09	68.74
706.275	69.02
706.459	69.52
706.644	69.65
706.829	69.65
707.014	69.88
707.199	70.37
707.384	70.55
707.568	70.89
707.753	71.07
707.938	71.3
708.123	71.53
708.307	71.86
708.492	71.75
708.677	72.06
708.861	72.13
709.046	71.96
709.231	72.19
709.415	72.26
709.6	72.21
709.784	72.54
709.969	72.64
710.153	73.01
710.338	73.3
710.522	73.32
710.707	73.33
710.891	73.71
711.076	73.83
711.26	74.07
711.445	74.01
711.629	74.3
711.813	74.45
711.998	74.8
712.182	74.92
712.366	75.12
712.551	75.15
712.735	75.1
712.919	75.18
713.103	75.51
713.288	75.69
713.472	75.63
713.656	75.5
713.84	75.57
714.024	75.93
714.208	75.97
714.393	76.04
714.577	76.1
714.761	76.22
714.945	76.35
715.129	76.6
715.313	76.71
715.497	76.84
715.681	76.94
715.865	77.2
716.049	77.52
716.233	77.97
716.417	77.78
716.601	77.87
716.785	78
716.968	77.87
717.152	77.93
717.336	77.77
717.52	77.63
717.704	77.92
717.888	78.2
718.071	78.23
718.255	78.28
718.439	78.12
718.622	78.16
718.806	78.25
718.99	78.5
719.174	78.21
719.357	78.32
719.541	78.66
719.724	78.7
719.908	78.77
720.092	78.97
720.275	78.8
720.459	78.87
720.642	78.82
720.826	78.79
721.009	78.88
721.193	79.07
721.376	78.99
721.559	79.18
721.743	79.41
721.926	79.49
722.11	79.76
722.293	79.73
722.476	79.65
722.66	79.78
722.843	79.99
723.026	80.1
723.21	80.35
723.393	80.22
723.576	80.66
723.759	80.93
723.942	80.9
724.126	80.8
724.309	81.08
724.492	81.11
724.675	81.1
724.858	81.32
725.041	81.42
725.224	81.36
725.407	81.24
725.59	80.95
725.774	80.96
725.957	81.15
726.14	80.96
726.322	80.83
726.505	81.41
726.688	81.82
726.871	82.04
727.054	82.06
727.237	82.19
727.42	82.52
727.603	82.7
727.786	82.56
727.968	82.47
728.151	82.46
728.334	82.69
728.517	82.84
728.699	82.95
728.882	83.28
729.065	83.12
729.248	82.97
729.43	83.13
729.613	83.27
729.796	83.09
729.978	83.11
730.161	83.03
730.343	83.45
730.526	83.81
730.708	84.08
730.891	84.04
731.073	84.28
731.256	84.36
731.438	84.71
731.621	85.08
731.803	85.19
731.986	85.5
732.168	85.67
732.35	85.84
732.533	86.1
732.715	85.9
732.898	85.79
733.08	86.2
733.262	86.19
733.444	86.21
733.627	86.13
733.809	85.84
733.991	85.97
734.173	85.69
734.355	85.78
734.538	85.38
734.72	85.91
734.902	86.27
735.084	86.29
735.266	86.15
735.448	86.53
735.63	86.12
735.812	86.15
735.994	85.76
736.176	85.87
736.358	85.84
736.54	85.92
736.722	85.83
736.904	86.32
737.086	86.22
737.268	86.65
737.45	86.62
737.632	86.62
737.814	87.05
737.995	87.12
738.177	87.06
738.359	87.45
738.541	86.87
738.723	86.65
738.904	86.41
739.086	86.12
739.268	86.38
739.449	86.37
739.631	86.57
739.813	86.76
739.994	86.91
740.176	87.3
740.358	87.52
740.539	87.42
740.721	87.12
740.902	86.58
741.084	87.4
741.265	87.18
741.447	86.67
741.628	86.33
741.81	86.58
741.991	87.13
742.172	87.63
742.354	87.1
742.535	87.25
742.717	87.95
742.898	88.7
743.079	88.57
743.261	88.56
743.442	88.6
743.623	88.13
743.804	88.38
743.986	87.91
744.167	86.95
744.348	86.92
744.529	86.26
744.71	86.07
744.891	86.51
745.073	86.25
745.254	86.36
745.435	86.34
745.616	85.69
745.797	85.39
745.978	85.49
746.159	85.08
746.34	85.27
746.521	85.73
746.702	85.52
746.883	86.2
747.064	87.02
747.245	86.96
747.426	87.17
747.606	87.22
747.787	87.44
747.968	88.24
748.149	88.26
748.33	88.25
748.51	88.15
748.691	88.27
748.872	88.58
749.053	88.33
749.233	87.91
749.414	87.33
749.595	87.05
749.775	87.53
749.956	86.92
750.137	86.63
750.317	86.33
750.498	86.87
750.678	86.91
750.859	86.37
751.04	86.32
751.22	86.28
751.4	86.34
751.581	86.56
751.761	86.28
751.942	87
752.122	87.5
752.303	87.5
752.483	88
752.663	88.74
752.844	88.32
753.024	88.08
753.204	87.59
753.385	87.62
753.565	86.8
753.745	87.17
753.925	85.79
754.106	85.54
754.286	85.97
754.466	85.83
754.646	85.51
754.826	85.66
755.006	85.19
755.187	85.47
755.367	85.97
755.547	85.72
755.727	86.09
755.907	85.72
756.087	85.32
756.267	85.04
756.447	85.29
756.627	85.3
756.807	85.2
756.987	85.49
757.167	86.08
757.346	86.12
757.526	86.51
757.706	87.1
757.886	86.25
758.066	86.36
758.246	85.75
758.425	85.68
758.605	85.95
758.785	86.19
758.965	84.21
759.144	84.37
759.324	84.53
759.504	84.61
759.683	84.22
759.863	84.45
760.043	84.52
760.222	84.7
760.402	85.5
760.581	84.67
760.761	83.27
760.94	82.83
761.12	82.13
761.299	81.03
761.479	82.74
761.658	82.22
761.838	82.39
762.017	84.05
762.197	84.72
762.376	85.1
762.555	85.67
762.735	83.77
762.914	83.91
763.093	84.08
763.273	83.18
763.452	82.99
763.631	83.02
763.81	83.41
763.99	84.87
764.169	84.88
764.348	84.76
764.527	84.5
764.706	84.85
764.885	85.53
765.064	84.63
765.243	83.44
765.423	83.54
765.602	84.07
765.781	84.77
765.96	85.35
766.139	84.43
766.318	85.27
766.497	86.47
766.676	86.46
766.854	85.58
767.033	85.07
767.212	84.35
767.391	84.19
767.57	83.6
767.749	83.18
767.928	82.88
768.106	83.61
768.285	83.59
768.464	83.08
768.643	82.91
768.821	82.92
769	82.68
769.179	82.8
769.357	81.93
769.536	82.17
769.715	82.15
769.893	82.37
770.072	82.48
770.25	81.65
770.429	81.55
770.607	82.08
770.786	81.8
770.964	81.18
771.143	81.3
771.321	80.69
771.5	80.96
771.678	80.55
771.857	79.78
772.035	79.75
772.213	80.59
772.392	80.31
772.57	80.88
772.748	81.13
772.927	80.96
773.105	81.45
773.283	80.7
773.461	79.9
773.64	80.3
773.818	79.39
773.996	79.17
774.174	79.27
774.352	78.49
774.531	78.49
774.709	78.8
774.887	78.2
775.065	78.59
775.243	78.41
775.421	77.58
775.599	77.39
775.777	77.97
775.955	78.2
776.133	76.69
776.311	76.78
776.489	77.67
776.667	78.33
776.844	79.18
777.022	79.06
777.2	78.99
777.378	81.22
777.556	81.09
777.734	79.6
777.911	79.71
778.089	79.16
778.267	79.11
778.445	77.98
778.622	76.63
778.8	76.67
778.978	77
779.155	76.5
779.333	75.18
779.511	74.62
779.688	74.76
779.866	75.87
780.043	76.28
780.221	77.19
780.398	77.81
780.576	78.62
780.753	78.87
780.931	80.28
781.108	80.47
781.286	78.75
781.463	77.95
781.64	77.28
781.818	77.5
781.995	77.56
782.172	77.26
782.35	75.95
782.527	77.66
782.704	76.76
782.882	78.07
783.059	78.1
783.236	77.48
783.413	77.31
783.59	77.26
783.768	76.46
783.945	77.03
784.122	76.28
784.299	76.95
784.476	78.09
784.653	77.66
784.83	77.07
785.007	76.15
785.184	75.87
785.361	75.47
785.538	76.02
785.715	74.9
785.892	73.36
786.069	73.49
786.246	73.88
786.423	76.29
786.6	77.31
786.776	75.87
786.953	76.98
787.13	78.24
787.307	80.29
787.484	80.4
787.66	77.22
787.837	76.18
788.014	76.15
788.191	75.72
788.367	74.56
788.544	73.35
788.721	72.3
788.897	73.41
789.074	72.68
789.25	74.97
789.427	75.49
789.603	79.17
789.78	79.6
789.956	80.38
790.133	82.16
790.309	83.05
790.486	82.29
790.662	80.75
790.839	80.9
791.015	80.12
791.192	79.17
791.368	79.2
791.544	79.08
791.721	77.64
791.897	78.11
792.073	75.87
792.249	79.11
792.426	80.15
792.602	78.87
792.778	77.62
792.954	76.97
793.13	78.29
793.307	76.29
793.483	73.21
793.659	74.69
793.835	72.26
794.011	74.71
794.187	72.65
794.363	71.91
794.539	75.04
794.715	73.84
794.891	70.69
795.067	72.99
795.243	70.76
795.419	72.97
795.595	72.55
795.771	70.69
795.947	71.57
796.122	72.53
796.298	70.64
796.474	72.15
796.65	73.14
796.826	75.48
797.001	78.06
797.177	76.22
797.353	77.22
797.529	78.9
797.704	77.46
797.88	75.73
798.056	73.83
798.231	70.69
798.407	72.01
798.582	70.15
798.758	68.98
798.934	68.11
799.109	66.37
799.285	65
799.46	63.75
799.636	65.72
799.811	69.71
799.986	72.45
800.162	74.88
800.337	76.92
800.513	77.54
800.688	80.6
800.863	80.87
801.039	78.13
801.214	73.59
801.389	72.43
801.565	76.25
801.74	75.24
801.915	74.04
802.09	72.71
802.265	73.17
802.441	76.59
802.616	75.45
802.791	73.04
802.966	72.02
803.141	68.88
803.316	68.41
803.491	67.15
803.666	66.28
803.841	69.26
804.016	65.83
804.191	69.63
804.366	70.08
804.541	69.42
804.716	66.78
804.891	70.7
805.066	69.8
805.241	71.24
805.416	68.54
805.591	70.36
805.765	73.41
805.94	78.6
806.115	74.74
806.29	73.07
806.464	73.81
806.639	75.61
806.814	74.08
806.989	72.89
807.163	68.97
807.338	66.22
807.512	65.68
807.687	66.64
807.862	66.45
808.036	66.22
808.211	66.09
808.385	66.11
808.56	67.92
808.734	65.52
808.909	62.27
809.083	59.02
809.258	61.24
809.432	60.61
809.606	60.13
809.781	58.94
809.955	62.59
810.13	67.13
810.304	71.32
810.478	70.66
810.652	73.4
810.827	76.87
811.001	77.31
811.175	74.71
811.349	70.25
811.524	70.34
811.698	69.66
811.872	66.06
812.046	64.6
812.22	65.59
812.394	69.47
812.568	75.21
812.742	72.32
812.916	72.94
813.09	71.73
813.264	71.82
813.438	75.81
813.612	70.98
813.786	66.45
813.96	68.49
814.134	69.06
814.308	68.96
814.482	69.32
814.656	65.34
814.83	68.74
815.003	69.19
815.177	69.99
815.351	72.82
815.525	71.96
815.698	69.36
815.872	69.83
816.046	67.83
816.219	72.38
816.393	69.21
816.567	65.64
816.74	70.11
816.914	73.18
817.088	66.72
817.261	67.36
817.435	60.59
817.608	57.4
817.782	59.23
817.955	57.84
818.129	58.36
818.302	59.19
818.475	59.24
818.649	60.7
818.822	65.73
818.996	68.45
819.169	68.33
819.342	64.5
819.516	71.09
819.689	72.19
819.862	68.25
820.035	66.22
820.209	58.97
820.382	57.48
820.555	64.21
820.728	61.01
820.901	66.2
821.075	66.62
821.248	66.98
821.421	68.52
821.594	69.25
821.767	67.22
821.94	64
822.113	62.24
822.286	66.51
822.459	71.95
822.632	74.41
822.805	74.21
822.978	71.53
823.151	81.01
823.324	71.81
823.496	63.11
823.669	61.48
823.842	59.91
824.015	57.35
824.188	57.96
824.361	49.7
824.533	52.42
824.706	77.64
824.879	74.28
825.051	80.36
825.224	76.56
825.397	72.33
825.569	77.18
825.742	83.74
825.915	65.35
826.087	63.37
826.26	57.46
826.432	65.69
826.605	66.69
826.777	66.42
826.95	56.12
827.122	65.06
827.295	65.91
827.467	60.12
827.64	50.73
827.812	54.78
827.984	56.39
828.157	60.4
828.329	58.07
828.501	58.42
828.674	59.08
828.846	63.29
829.018	54.42
829.19	45.98
829.363	42.35
829.535	42.83
829.707	44.18
829.879	51.02
830.051	51.44
830.223	54.44
830.395	58.21
830.568	63.01
830.74	60.66
830.912	62.97
831.084	58.58
831.256	54.02
831.428	54.74
831.6	51.62
831.772	54.04
831.943	65.18
832.115	62.53
832.287	64.03
832.459	63.55
832.631	61.86
832.803	67.37
832.975	64.36
833.146	53.13
833.318	51.84
833.49	58.78
833.662	69.75
833.833	74.05
834.005	74.22
834.177	74.63
834.348	74.31
834.52	78.11
834.692	76.5
834.863	69.39
835.035	57.47
835.206	53.19
835.378	54.64
835.549	55.77
835.721	48.98
835.892	48.01
836.064	52.29
836.235	62.87
836.407	60.83
836.578	59.31
836.749	61.13
836.921	70.26
837.092	82.28
837.264	74.54
837.435	66.78
837.606	66.14
837.777	57.81
837.949	52.99
838.12	44.27
838.291	38.87
838.462	49.69
838.633	54.56
838.805	58.98
838.976	64.02
839.147	59.32
839.318	62.63
839.489	54.16
839.66	51.34
839.831	42.7
840.002	41.33
840.173	35.45
840.344	47.71
840.515	56.81
840.686	56.02
840.857	47.49
841.028	56.13
841.199	49.31
841.369	56.17
841.54	57.23
841.711	52.89
841.882	55.1
842.053	51.67
842.223	35.11
842.394	39.71
842.565	44.4
842.736	37.59
842.906	38.18
843.077	42.43
843.248	51.62
843.418	60.72
843.589	60.02
843.759	55.14
843.93	59.73
844.101	56.59
844.271	57.44
844.442	56.93
844.612	54.08
844.783	47.49
844.953	42.7
845.123	45.77
845.294	37.01
845.464	43.37
845.635	42.28
845.805	46.99
845.975	39.37
846.146	33.87
846.316	31.3
846.486	42.92
846.656	42.59
846.827	39.52
846.997	41.4
847.167	57.58
847.337	71.22
847.507	63.14
847.677	61.62
847.848	55.35
848.018	48.46
848.188	32.29
848.358	16.5
848.528	24.86
848.698	8.5
848.868	5.1
849.038	18.59
849.208	40.74
849.378	47.68
849.548	58.83
849.718	40.11
849.887	51.21
850.057	42.25
850.227	34.43
850.397	22.83
850.567	30.98
850.737	37.15
850.906	38.49
851.076	40.28
851.246	51.89
851.415	58.11
851.585	59.09
851.755	59.17
851.924	59.46
852.094	57.33
852.264	54.85
852.433	53.89
852.603	54.05
852.772	58.45
852.942	55.78
853.111	48.02
853.281	42.7
853.45	40.88
853.62	34.6
853.789	33.82
853.959	30.72
854.128	22.47
854.297	32.93
854.467	46.16
854.636	64.21
854.805	76.26
854.975	84.16
855.144	82.39
855.313	97.47
855.482	90.41
855.652	88.57
855.821	73.57
855.99	62.55
856.159	49.66
856.328	50.66
856.497	35.8
856.667	38.84
856.836	30.9
857.005	32.03
857.174	37.95
857.343	32.15
857.512	25.06
857.681	25.37
857.85	15.61
858.019	30.64
858.188	45.43
858.356	29.73
858.525	42.55
858.694	55.98
858.863	53.89
859.032	52.37
859.201	30.87
859.369	27.53
859.538	30.21
859.707	38.95
859.876	27.57
860.044	29.12
860.213	37.8
860.382	53.24
860.55	65.67
860.719	72.23
860.888	64.93
861.056	69.59
861.225	78.12
861.393	66.77
861.562	63.38
861.73	56.49
861.899	41.14
862.067	33.1
862.236	36.05
862.404	34.37
862.572	30.99
862.741	25.38
862.909	14.37
863.078	19.76
863.246	16.85
863.414	14.95
863.582	-12.4
863.751	6.2
863.919	20.09
864.087	7.79
864.255	7.04
864.424	10.25
864.592	10.78
864.76	39.18
864.928	41.69
865.096	26.06
865.264	47.67
865.432	35.18
865.6	32.67
865.768	29.02
865.936	6.38
866.104	-3.76
866.272	20.8
866.44	-2.49
866.608	10.07
866.776	20.39
866.944	8.88
867.112	18.61
867.28	2.05
867.448	7.77
867.615	15.66
867.783	15.74
867.951	15.86
868.119	41.34
868.286	37.35
868.454	42.86
868.622	41.82
868.789	61.93
868.957	75.67
869.125	69.05
869.292	65.41
869.46	73.2
869.627	76.63
869.795	79.89
869.963	65.13
870.13	72.79
870.298	88.48
870.465	79.56
870.632	95.16
870.8	56.58
870.967	49.1
871.135	57.25
871.302	50.86
871.469	47.43
871.637	48.81
871.804	38.98
871.971	50.53
872.139	51.62
872.306	38.74
872.473	26.82
872.64	14.99
872.807	9.95
872.975	43.22
873.142	35.25
873.309	41.75
873.476	98.06
873.643	130.52
873.81	142.05
873.977	85.34
874.144	39.41
874.311	1.59
874.478	-13.98
874.645	-19.31
874.812	-1.56
874.979	-38.31
875.146	-52.55
875.313	-117.72
875.48	-62.98
875.647	-121.6
875.813	-140.48
875.98	-101.95
876.147	-9.87
876.314	8.91
876.481	29.37
876.647	31.46
876.814	52.98
876.981	43.76
877.147	31.26
877.314	34.24
877.481	37.73
877.647	51.72
877.814	47.99
877.98	56.96
878.147	72.82
878.314	70.05
878.48	68.13
878.647	93.36
878.813	63.12
878.979	74.59
879.146	38.06
879.312	56.44
879.479	50.68
879.645	41.36
879.811	21.72
879.978	28.38
880.144	38.9
880.31	61.67
880.477	32.71
880.643	-4.96
880.809	17.9
880.975	-24.37
881.142	-13.57
881.308	-41.33
881.474	-22.99
881.64	-81.13
881.806	-5.36
881.972	4.37
882.138	0.71
882.304	-36.58
882.47	3.67
882.636	-75.96
882.802	-16.59
882.968	-80.28
883.134	-273.85
883.3	-19.73
883.466	44.14
883.632	25.93
883.798	67.9
883.964	54.82
884.129	77.16
884.295	66.03
884.461	36.81
884.627	12.76
884.793	30.6
884.958	-1.33
885.124	-30.18
885.29	-23.07
885.455	-25.45
885.621	-7.93
885.787	-6.81
885.952	-25.39
886.118	-4.42
886.283	14.82
886.449	-10.12
886.614	1.19
886.78	23.8
886.945	19.15
887.111	28.4
887.276	14.91
887.442	-3.44
887.607	-0.81
887.773	4.16
887.938	-14.47
888.103	11.03
888.269	15.16
888.434	39.28
888.599	71.47
888.764	74.22
888.93	84.09
889.095	71.82
889.26	79.36
889.425	95.46
889.59	53.06
889.756	31.8
889.921	13.72
890.086	-0.38
890.251	24.09
890.416	6.72
890.581	-24.58
890.746	-45.98
890.911	-77.07
891.076	-84.86
891.241	-117.36
891.406	-67.28
891.571	-63.84
891.736	-37.83
891.901	34.09
892.065	46.08
892.23	45.64
892.395	30.52
892.56	24.51
892.725	45.95
892.889	34.19
893.054	-31.01
893.219	-74.59
893.384	-136.55
893.548	-270.83
893.713	298.27
893.878	274.46
