Data from Ofra_2a_PS_1GT43_Reflection_1.txt Node
Date: Tue Jul 20 09:36:26 EDT 2021
User: Adam
Spectrometer: FLMT01687
Trigger mode: 0
Integration Time (sec): 9.450000E-1
Scans to average: 3
Electric dark correction enabled: true
Nonlinearity correction enabled: false
Boxcar width: 3
XAxis mode: Wavelengths
Number of Pixels in Spectrum: 3648
>>>>>Begin Spectral Data<<<<<
179.494	771.6
179.716	493.13
179.937	493.41
180.158	1650.78
180.38	-823.84
180.601	-202.04
180.823	-72.47
181.044	-34.86
181.265	-161
181.486	-10.63
181.708	-1267.39
181.929	-82.56
182.15	-185.23
182.372	19.68
182.593	-14.21
182.814	570.96
183.035	313.43
183.257	120.3
183.478	99.02
183.699	104.03
183.92	83.01
184.141	85.12
184.363	61.42
184.584	49.75
184.805	64.88
185.026	65.67
185.247	51.93
185.468	43.57
185.689	49.56
185.91	43.74
186.132	55.99
186.353	21.97
186.574	23.13
186.795	5.58
187.016	10.08
187.237	-7.81
187.458	-5.07
187.679	-27.75
187.9	8.69
188.121	33.45
188.342	67.58
188.563	62.47
188.784	78.64
189.005	70.51
189.226	77.31
189.447	70.26
189.667	53.81
189.888	46.01
190.109	54.06
190.33	22.53
190.551	22.72
190.772	15.92
190.993	19.42
191.214	23.29
191.434	15.06
191.655	16.56
191.876	35.81
192.097	28.55
192.318	32.15
192.538	37.44
192.759	35.25
192.98	31.88
193.201	38.82
193.421	41.19
193.642	56.9
193.863	65.25
194.083	46.42
194.304	43.81
194.525	59.91
194.745	45.28
194.966	42.79
195.187	47.75
195.407	45.03
195.628	48.28
195.848	59.4
196.069	59.81
196.29	60.05
196.51	49.71
196.731	39.56
196.951	37.4
197.172	34.39
197.392	26.72
197.613	24.26
197.833	20.01
198.054	27.05
198.274	16.32
198.495	18.15
198.715	8.74
198.936	-8.49
199.156	-5.83
199.377	13.59
199.597	10.11
199.817	16.45
200.038	23.61
200.258	30.58
200.479	48
200.699	47.88
200.919	33.6
201.14	33.76
201.36	50.28
201.58	49.73
201.801	56.42
202.021	52.93
202.241	56.2
202.461	60.82
202.682	67.7
202.902	54.6
203.122	46.67
203.342	54.04
203.563	54.54
203.783	55.71
204.003	54.71
204.223	59.2
204.443	62.51
204.663	68.72
204.884	52.96
205.104	55.07
205.324	52.59
205.544	45.59
205.764	49.35
205.984	58.83
206.204	55.06
206.424	57.55
206.644	47.73
206.864	46.72
207.084	60.33
207.304	48.95
207.525	40.75
207.745	42.72
207.964	56.6
208.184	58.07
208.404	46.94
208.624	16.84
208.844	12.02
209.064	17.28
209.284	16.37
209.504	14.56
209.724	-3.05
209.944	-0.66
210.164	16.95
210.384	23.3
210.604	9.48
210.823	5.58
211.043	0.94
211.263	32.35
211.483	31.78
211.703	35.4
211.922	38.03
212.142	46.77
212.362	49.86
212.582	50.58
212.801	35.38
213.021	37.54
213.241	32.77
213.461	27.52
213.68	22.82
213.9	32.19
214.12	28.76
214.339	29.55
214.559	41.82
214.779	48.55
214.998	48.02
215.218	45.34
215.438	48.29
215.657	45.56
215.877	47.49
216.096	45.94
216.316	47.28
216.535	47.87
216.755	41.01
216.974	32.38
217.194	39.04
217.413	39.12
217.633	43.56
217.852	37.17
218.072	37.42
218.291	50.52
218.511	43.71
218.73	41.37
218.95	37.29
219.169	25.61
219.389	25.49
219.608	32.07
219.827	19.67
220.047	32.08
220.266	33.37
220.485	38.53
220.705	31.06
220.924	41.31
221.143	37.23
221.363	41.99
221.582	33.39
221.801	39.3
222.021	36.95
222.24	35.5
222.459	17.14
222.678	7.06
222.897	8.25
223.117	19.3
223.336	18.71
223.555	20.48
223.774	42.89
223.993	65.41
224.213	58.2
224.432	60.56
224.651	59.35
224.87	51.71
225.089	58.83
225.308	42.64
225.527	29.25
225.746	30.31
225.965	36.75
226.184	30.02
226.404	20.83
226.623	5.61
226.842	11.29
227.061	10.92
227.28	24.71
227.499	35.16
227.718	35.04
227.936	30.74
228.155	33.6
228.374	38.35
228.593	40.11
228.812	35.3
229.031	21.74
229.25	23.07
229.469	33.36
229.688	31.2
229.907	26.8
230.125	34.33
230.344	37.38
230.563	50.41
230.782	45.8
231.001	45.96
231.22	51.48
231.438	44.33
231.657	43.7
231.876	40.6
232.095	25.15
232.313	30.21
232.532	22.18
232.751	26.76
232.969	36.56
233.188	31.56
233.407	32.27
233.625	37.86
233.844	39.76
234.063	43.1
234.281	28.91
234.5	23.15
234.719	15.99
234.937	15.26
235.156	7.84
235.374	0.97
235.593	8.24
235.811	8.06
236.03	13.27
236.249	31.72
236.467	26.58
236.686	50.24
236.904	37.13
237.123	31.49
237.341	37.2
237.559	30.91
237.778	27.16
237.996	33.03
238.215	24.35
238.433	38.96
238.652	40.78
238.87	38.38
239.088	27.63
239.307	26.22
239.525	22.67
239.743	16.81
239.962	12.68
240.18	15.73
240.398	17.56
240.617	38.04
240.835	44.43
241.053	46.36
241.271	50.04
241.49	42.21
241.708	39.05
241.926	27
242.144	15.22
242.363	14.05
242.581	5.86
242.799	-1.25
243.017	-0.72
243.235	-5.09
243.453	13
243.672	9.17
243.89	2.17
244.108	13.94
244.326	12.51
244.544	22.73
244.762	22.11
244.98	17.66
245.198	14
245.416	19.04
245.634	23.3
245.852	33.64
246.07	38.14
246.288	44.68
246.506	44.96
246.724	48.67
246.942	52.25
247.16	33.06
247.378	22.4
247.596	17.78
247.814	13.02
248.032	10.29
248.25	9.04
248.468	1.62
248.685	26.79
248.903	32.8
249.121	37.61
249.339	37.63
249.557	43.24
249.775	38.33
249.992	37.42
250.21	23.56
250.428	19.72
250.646	22.38
250.863	25.84
251.081	19.99
251.299	40.99
251.517	50.5
251.734	44.86
251.952	52.36
252.17	43.19
252.387	44.2
252.605	43.8
252.823	31.04
253.04	18.59
253.258	39.79
253.475	28.14
253.693	36.85
253.911	36.98
254.128	31.4
254.346	22.28
254.563	24.19
254.781	20.16
254.998	21.92
255.216	15.35
255.433	15.09
255.651	11.69
255.868	17.13
256.086	14.37
256.303	13.56
256.521	2.73
256.738	0.91
256.956	0.09
257.173	15.59
257.39	24.17
257.608	29.16
257.825	19.72
258.043	36.97
258.26	38.2
258.477	38.85
258.695	46.31
258.912	54.85
259.129	48.49
259.346	49.54
259.564	32.45
259.781	41.74
259.998	28.7
260.216	33.9
260.433	30.97
260.65	38.83
260.867	37.4
261.084	44.88
261.302	38.34
261.519	37.29
261.736	22.41
261.953	16.38
262.17	24.55
262.387	32.98
262.604	29.46
262.822	29.35
263.039	39.35
263.256	33.18
263.473	24
263.69	13.76
263.907	13.61
264.124	3.08
264.341	-6.46
264.558	-0.09
264.775	3.86
264.992	15.82
265.209	25.46
265.426	17.79
265.643	27.06
265.86	33.55
266.077	33.48
266.294	34.4
266.51	29.04
266.727	11.33
266.944	-24.42
267.161	-22.91
267.378	-32.88
267.595	-28.76
267.812	-44.54
268.028	-38.95
268.245	-24.21
268.462	13.27
268.679	7.4
268.896	1.71
269.112	6.29
269.329	17.72
269.546	11.93
269.763	17.05
269.979	15.8
270.196	20.64
270.413	32.05
270.629	27.14
270.846	23.12
271.063	26.32
271.279	24.89
271.496	23.07
271.712	25.37
271.929	18.53
272.146	19.65
272.362	11.62
272.579	12.07
272.795	11.94
273.012	10.49
273.228	5.79
273.445	14.3
273.661	13.76
273.878	18.64
274.094	16.62
274.311	15.38
274.527	18.69
274.744	10.11
274.96	6.19
275.177	16.56
275.393	20.68
275.609	29.08
275.826	37.39
276.042	55.27
276.259	53.57
276.475	43.52
276.691	37.48
276.908	33.45
277.124	28.93
277.34	19.84
277.557	8.01
277.773	17.02
277.989	11.81
278.205	-0.6
278.422	12.34
278.638	16.91
278.854	15.88
279.07	8.9
279.286	14.54
279.503	33.48
279.719	37.14
279.935	11.99
280.151	15.68
280.367	19
280.583	23.81
280.799	21.65
281.016	16.72
281.232	11.32
281.448	20.95
281.664	22.39
281.88	16.51
282.096	21.43
282.312	3.23
282.528	-4.52
282.744	4.29
282.96	10
283.176	18.46
283.392	21.75
283.608	24.37
283.824	34.23
284.04	35.62
284.256	30.75
284.471	31.63
284.687	21.84
284.903	26.49
285.119	2.63
285.335	7.68
285.551	19.51
285.767	26.38
285.982	17.28
286.198	11.98
286.414	10.14
286.63	25.88
286.846	23.15
287.061	24.9
287.277	28.96
287.493	35.07
287.709	42.92
287.924	48.05
288.14	56.62
288.356	70.18
288.571	54.19
288.787	51.6
289.003	56.96
289.218	49.42
289.434	50.48
289.65	48.34
289.865	43.85
290.081	49.24
290.296	43.83
290.512	45.83
290.727	54.4
290.943	45.22
291.159	35.34
291.374	34.2
291.59	25.7
291.805	27.25
292.021	14.09
292.236	8.37
292.451	15.02
292.667	27.79
292.882	24.17
293.098	30.47
293.313	25.92
293.529	31.23
293.744	30.64
293.959	39.04
294.175	26.23
294.39	42.29
294.605	36.09
294.821	34.07
295.036	40.56
295.251	35.49
295.467	21.99
295.682	26.85
295.897	18.14
296.112	25.96
296.328	31.26
296.543	12.33
296.758	22.92
296.973	28.68
297.188	32.75
297.404	30.1
297.619	19.39
297.834	24.78
298.049	35.25
298.264	26.87
298.479	21.38
298.694	25.05
298.909	29.31
299.125	30.29
299.34	23.41
299.555	29.15
299.77	36.42
299.985	35.79
300.2	35.45
300.415	29.46
300.63	35.46
300.845	41.55
301.06	38.79
301.275	40.92
301.49	43.33
301.704	36.15
301.919	36.17
302.134	24.93
302.349	20.88
302.564	14.11
302.779	5.96
302.994	1.78
303.209	0.62
303.423	8.25
303.638	16.2
303.853	18.1
304.068	26.37
304.283	23.5
304.497	32.57
304.712	43.9
304.927	35.38
305.142	36.84
305.356	36.54
305.571	37.01
305.786	38.79
306	33.23
306.215	20.46
306.43	35.14
306.644	33.64
306.859	41.61
307.074	37.6
307.288	38.5
307.503	39.46
307.717	36.46
307.932	30.74
308.147	23.41
308.361	23.15
308.576	27.48
308.79	23.96
309.005	17.54
309.219	22.4
309.434	25.26
309.648	27.72
309.863	21.74
310.077	18.34
310.292	19.7
310.506	40.39
310.72	40.3
310.935	36.7
311.149	39.76
311.364	41.47
311.578	39.24
311.792	39.82
312.007	25.78
312.221	30.97
312.435	32.1
312.649	36.38
312.864	26.36
313.078	24.52
313.292	25.74
313.507	38.19
313.721	37.61
313.935	48.16
314.149	43.01
314.363	47.36
314.578	58.59
314.792	62.69
315.006	60.28
315.22	58.57
315.434	59.44
315.648	55.81
315.862	56.56
316.077	58.15
316.291	56.06
316.505	50.75
316.719	39.74
316.933	37.26
317.147	35.33
317.361	29.24
317.575	17.32
317.789	13.07
318.003	23.93
318.217	28.07
318.431	24.45
318.645	27.33
318.859	20.12
319.073	19.58
319.287	26.94
319.5	23.8
319.714	26.93
319.928	29.8
320.142	27.66
320.356	43.26
320.57	38.99
320.784	28.69
320.997	36.07
321.211	40.42
321.425	28.09
321.639	31.88
321.853	16.27
322.066	21.85
322.28	34.32
322.494	28.22
322.707	22.09
322.921	27.75
323.135	26.13
323.349	30.43
323.562	33.15
323.776	24.48
323.989	19.32
324.203	20.97
324.417	26
324.63	18.58
324.844	21.77
325.057	21.79
325.271	14.13
325.485	18.04
325.698	8.61
325.912	8.08
326.125	20.7
326.339	14.4
326.552	20.58
326.766	34.87
326.979	34.45
327.193	40.51
327.406	31.57
327.619	20.09
327.833	26.61
328.046	7.9
328.26	-4.46
328.473	2.87
328.686	-0.18
328.9	-0.54
329.113	4.03
329.326	13.49
329.54	27.91
329.753	40.12
329.966	36.47
330.179	45.55
330.393	47.3
330.606	48.02
330.819	41.84
331.032	42.01
331.246	35.49
331.459	39.67
331.672	32.7
331.885	32.7
332.098	38.04
332.311	45.27
332.525	37.08
332.738	27.75
332.951	20.45
333.164	19.07
333.377	14.46
333.59	16.6
333.803	9.37
334.016	8.73
334.229	23.88
334.442	30.71
334.655	42.84
334.868	53.17
335.081	56.5
335.294	62.73
335.507	49.5
335.72	43.21
335.933	44.88
336.146	38.96
336.359	33.49
336.572	26.18
336.785	35.8
336.997	40.14
337.21	44.39
337.423	38.4
337.636	38.18
337.849	32.77
338.062	31.31
338.274	15.34
338.487	15.74
338.7	14.96
338.913	19.99
339.125	13.11
339.338	17.38
339.551	21.89
339.763	16.96
339.976	20.1
340.189	21.13
340.402	15.63
340.614	21.18
340.827	6.68
341.039	5.72
341.252	20.84
341.465	13.84
341.677	2.36
341.89	7.22
342.102	7.39
342.315	23.65
342.527	14.19
342.74	8.62
342.952	11.53
343.165	29.22
343.377	27.94
343.59	29.14
343.802	27.08
344.015	32.62
344.227	27.36
344.44	21.29
344.652	21.57
344.864	19.63
345.077	17.16
345.289	13.23
345.502	17.26
345.714	12.29
345.926	12.3
346.139	-2.25
346.351	-9.17
346.563	-8.71
346.775	-13.58
346.988	-13.92
347.2	1.76
347.412	14.65
347.624	19.04
347.837	18.51
348.049	15.83
348.261	20.63
348.473	15.56
348.685	17.82
348.897	5.84
349.11	7.95
349.322	11.98
349.534	20.78
349.746	29.34
349.958	34.92
350.17	28.64
350.382	20.46
350.594	17.94
350.806	19.96
351.018	25.69
351.23	23.21
351.442	21.86
351.654	25.41
351.866	34.7
352.078	33.51
352.29	36.13
352.502	29.76
352.714	25.27
352.926	28.67
353.138	21.1
353.35	18.88
353.561	16.53
353.773	16.91
353.985	20.65
354.197	23.77
354.409	19.64
354.621	23.55
354.832	23.89
355.044	29.28
355.256	21.3
355.468	11.65
355.679	14.69
355.891	16.81
356.103	22.95
356.314	24.23
356.526	29.43
356.738	27.66
356.949	32.06
357.161	30.95
357.373	34.34
357.584	31.23
357.796	27.31
358.008	28.82
358.219	36.84
358.431	36.98
358.642	28.88
358.854	27.26
359.065	27.25
359.277	22.07
359.488	11.91
359.7	14.49
359.911	3.09
360.123	12.83
360.334	12.21
360.546	2.57
360.757	9.37
360.969	14.94
361.18	11.9
361.391	27.31
361.603	31.73
361.814	32.69
362.025	35.8
362.237	40.91
362.448	37.24
362.659	29.2
362.871	28.15
363.082	22.9
363.293	28.03
363.504	29.6
363.716	28.83
363.927	30.98
364.138	38.1
364.349	35.93
364.56	38.39
364.772	33.76
364.983	26.76
365.194	30.26
365.405	28.29
365.616	19.85
365.827	20.56
366.038	23.88
366.25	20.11
366.461	37.88
366.672	29.26
366.883	28.84
367.094	27.48
367.305	23.61
367.516	21.56
367.727	22.74
367.938	13.48
368.149	21.6
368.36	26.46
368.571	34.63
368.781	34.27
368.992	25.91
369.203	27.71
369.414	25.86
369.625	17.96
369.836	15.71
370.047	9.94
370.258	6.88
370.468	13.51
370.679	13.83
370.89	24.57
371.101	22.37
371.312	18.06
371.522	21.16
371.733	16.32
371.944	16.19
372.155	8
372.365	-0.46
372.576	5.51
372.787	7.76
372.997	4.32
373.208	8.07
373.419	11.26
373.629	25.5
373.84	21.28
374.05	25.44
374.261	20.52
374.472	23.5
374.682	25.22
374.893	15.84
375.103	13.16
375.314	15.03
375.524	12.93
375.735	19.38
375.945	22.1
376.156	28.74
376.366	37.21
376.577	34.97
376.787	40.37
376.997	40.53
377.208	35.06
377.418	30.18
377.629	23.85
377.839	21.9
378.049	20.91
378.26	22.16
378.47	27.56
378.68	27.01
378.89	20.82
379.101	17.97
379.311	11.03
379.521	12.26
379.732	1.28
379.942	-3.32
380.152	7.36
380.362	11.97
380.572	21.45
380.783	23.81
380.993	21.72
381.203	25.4
381.413	25.44
381.623	21.29
381.833	20.45
382.043	12.88
382.253	13.47
382.463	22.25
382.674	24.39
382.884	21.01
383.094	21.35
383.304	22.38
383.514	28.92
383.724	23.94
383.934	18.96
384.144	16.72
384.353	16.52
384.563	16.39
384.773	18.56
384.983	12.14
385.193	16.28
385.403	18.5
385.613	19.71
385.823	20.68
386.033	17.81
386.242	16.43
386.452	17.11
386.662	18.93
386.872	11.27
387.082	11.9
387.291	10.18
387.501	13.69
387.711	11.95
387.921	13.24
388.13	8.46
388.34	9.94
388.55	10.14
388.759	11.51
388.969	7.96
389.179	13.18
389.388	10.84
389.598	9.68
389.807	11.26
390.017	10.83
390.227	10.47
390.436	9.51
390.646	7.5
390.855	10.55
391.065	10.84
391.274	8.84
391.484	10.62
391.693	9.25
391.903	10.71
392.112	9.36
392.322	9.21
392.531	9.51
392.74	10.29
392.95	9.26
393.159	10.58
393.369	10.4
393.578	10.16
393.787	9.17
393.997	10.57
394.206	10.06
394.415	8.86
394.625	7.11
394.834	6.49
395.043	7.18
395.252	7.85
395.462	6.74
395.671	7.16
395.88	7.86
396.089	8.44
396.298	8.81
396.508	8.27
396.717	7.27
396.926	7.44
397.135	7.07
397.344	6.77
397.553	6.99
397.762	6.66
397.971	6.78
398.181	6.8
398.39	6.76
398.599	7.01
398.808	7.07
399.017	7.23
399.226	7.32
399.435	7.27
399.644	7.37
399.853	7.18
400.062	6.89
400.27	6.83
400.479	6.77
400.688	6.93
400.897	7.18
401.106	7.38
401.315	7.49
401.524	7.76
401.733	8.04
401.941	7.97
402.15	7.67
402.359	7.47
402.568	7.32
402.777	7.17
402.985	7.04
403.194	6.83
403.403	6.58
403.612	6.69
403.82	6.64
404.029	6.55
404.238	6.77
404.446	6.73
404.655	6.59
404.864	6.61
405.072	6.55
405.281	6.44
405.489	6.46
405.698	6.25
405.906	6.21
406.115	6.34
406.324	6.31
406.532	6.33
406.741	6.44
406.949	6.29
407.158	6.34
407.366	6.31
407.574	6.27
407.783	6.27
407.991	6.16
408.2	6.1
408.408	6.1
408.617	6.08
408.825	6.09
409.033	6.08
409.242	6.04
409.45	6.02
409.658	6.01
409.867	6.03
410.075	5.98
410.283	5.91
410.491	5.93
410.7	5.98
410.908	6.05
411.116	5.96
411.324	6
411.533	5.89
411.741	5.91
411.949	5.91
412.157	5.88
412.365	5.79
412.573	5.85
412.781	5.76
412.99	5.92
413.198	5.91
413.406	5.81
413.614	5.81
413.822	5.78
414.03	5.7
414.238	5.75
414.446	5.7
414.654	5.73
414.862	5.65
415.07	5.61
415.278	5.63
415.486	5.72
415.694	5.67
415.902	5.62
416.109	5.61
416.317	5.64
416.525	5.64
416.733	5.64
416.941	5.52
417.149	5.59
417.357	5.57
417.564	5.56
417.772	5.61
417.98	5.57
418.188	5.49
418.395	5.53
418.603	5.41
418.811	5.32
419.019	5.33
419.226	5.28
419.434	5.29
419.642	5.32
419.849	5.33
420.057	5.35
420.265	5.48
420.472	5.4
420.68	5.43
420.887	5.43
421.095	5.38
421.302	5.4
421.51	5.39
421.717	5.4
421.925	5.28
422.132	5.15
422.34	5.11
422.547	5.1
422.755	5.06
422.962	5.02
423.17	4.95
423.377	5.08
423.585	5.08
423.792	5.1
423.999	5.13
424.207	5.08
424.414	5.19
424.621	5.17
424.829	5.08
425.036	5.1
425.243	5.12
425.451	5.12
425.658	5.21
425.865	5.05
426.072	5.01
426.28	5.04
426.487	5.05
426.694	4.99
426.901	4.93
427.108	4.87
427.315	4.94
427.523	5.02
427.73	5.1
427.937	5.14
428.144	5.17
428.351	5.26
428.558	5.25
428.765	5.25
428.972	5.18
429.179	5.08
429.386	5.12
429.593	5.11
429.8	5.2
430.007	5.24
430.214	5.21
430.421	5.25
430.628	5.19
430.835	5.16
431.042	5.24
431.249	5.14
431.456	5.18
431.662	5.17
431.869	5.28
432.076	5.36
432.283	5.31
432.49	5.26
432.697	5.36
432.903	5.35
433.11	5.42
433.317	5.36
433.524	5.29
433.73	5.32
433.937	5.29
434.144	5.32
434.35	5.29
434.557	5.26
434.764	5.2
434.97	5.35
435.177	5.4
435.384	5.5
435.59	5.42
435.797	5.47
436.003	5.42
436.21	5.45
436.416	5.39
436.623	5.44
436.829	5.37
437.036	5.4
437.242	5.36
437.449	5.47
437.655	5.48
437.862	5.54
438.068	5.51
438.275	5.59
438.481	5.62
438.687	5.71
438.894	5.69
439.1	5.71
439.307	5.69
439.513	5.69
439.719	5.71
439.926	5.77
440.132	5.77
440.338	5.78
440.544	5.77
440.751	5.75
440.957	5.76
441.163	5.78
441.369	5.76
441.575	5.8
441.782	5.8
441.988	5.84
442.194	5.93
442.4	5.95
442.606	5.95
442.812	5.97
443.018	6.01
443.224	6.06
443.431	6.14
443.637	6.09
443.843	6.12
444.049	6.06
444.255	6.01
444.461	5.97
444.667	5.93
444.873	5.82
445.079	5.9
445.284	5.86
445.49	5.88
445.696	5.95
445.902	5.99
446.108	6.02
446.314	6.16
446.52	6.18
446.726	6.27
446.931	6.28
447.137	6.25
447.343	6.24
447.549	6.28
447.755	6.18
447.96	6.14
448.166	6.16
448.372	6.22
448.578	6.27
448.783	6.24
448.989	6.24
449.195	6.29
449.4	6.3
449.606	6.25
449.812	6.28
450.017	6.23
450.223	6.25
450.428	6.28
450.634	6.35
450.84	6.39
451.045	6.38
451.251	6.41
451.456	6.38
451.662	6.39
451.867	6.38
452.073	6.33
452.278	6.25
452.483	6.28
452.689	6.23
452.894	6.26
453.1	6.25
453.305	6.22
453.51	6.24
453.716	6.3
453.921	6.3
454.127	6.3
454.332	6.35
454.537	6.42
454.742	6.41
454.948	6.33
455.153	6.34
455.358	6.42
455.563	6.45
455.769	6.43
455.974	6.34
456.179	6.37
456.384	6.46
456.589	6.52
456.795	6.41
457	6.41
457.205	6.42
457.41	6.53
457.615	6.55
457.82	6.58
458.025	6.56
458.23	6.61
458.435	6.6
458.64	6.67
458.845	6.63
459.05	6.69
459.255	6.6
459.46	6.56
459.665	6.6
459.87	6.6
460.075	6.56
460.28	6.59
460.485	6.57
460.69	6.61
460.895	6.63
461.099	6.66
461.304	6.67
461.509	6.6
461.714	6.62
461.919	6.64
462.123	6.69
462.328	6.7
462.533	6.71
462.738	6.74
462.942	6.84
463.147	6.84
463.352	6.87
463.556	6.89
463.761	6.91
463.966	6.92
464.17	6.94
464.375	6.91
464.58	6.89
464.784	6.89
464.989	6.91
465.193	6.92
465.398	6.92
465.602	6.98
465.807	6.98
466.011	7.05
466.216	7.05
466.42	7.08
466.625	7.13
466.829	7.17
467.034	7.19
467.238	7.26
467.443	7.26
467.647	7.31
467.851	7.31
468.056	7.29
468.26	7.27
468.464	7.27
468.669	7.3
468.873	7.28
469.077	7.32
469.282	7.38
469.486	7.44
469.69	7.45
469.894	7.5
470.099	7.52
470.303	7.59
470.507	7.59
470.711	7.52
470.915	7.57
471.119	7.65
471.324	7.64
471.528	7.64
471.732	7.63
471.936	7.69
472.14	7.74
472.344	7.73
472.548	7.71
472.752	7.81
472.956	7.88
473.16	7.9
473.364	7.83
473.568	7.85
473.772	7.96
473.976	7.98
474.18	7.94
474.384	7.86
474.588	7.91
474.792	7.95
474.995	7.99
475.199	7.95
475.403	7.95
475.607	7.99
475.811	8.06
476.015	8.09
476.218	8.14
476.422	8.12
476.626	8.09
476.83	8.1
477.033	8.15
477.237	8.17
477.441	8.18
477.644	8.17
477.848	8.25
478.052	8.3
478.255	8.33
478.459	8.36
478.663	8.34
478.866	8.4
479.07	8.44
479.273	8.4
479.477	8.44
479.681	8.49
479.884	8.42
480.088	8.47
480.291	8.47
480.495	8.46
480.698	8.49
480.901	8.47
481.105	8.49
481.308	8.51
481.512	8.53
481.715	8.49
481.919	8.49
482.122	8.54
482.325	8.6
482.529	8.64
482.732	8.69
482.935	8.7
483.138	8.75
483.342	8.81
483.545	8.81
483.748	8.78
483.952	8.76
484.155	8.76
484.358	8.74
484.561	8.77
484.764	8.77
484.967	8.78
485.171	8.75
485.374	8.76
485.577	8.78
485.78	8.83
485.983	8.81
486.186	8.8
486.389	8.77
486.592	8.84
486.795	8.8
486.998	8.79
487.201	8.77
487.404	8.81
487.607	8.82
487.81	8.87
488.013	8.83
488.216	8.86
488.419	8.86
488.622	8.88
488.825	8.86
489.028	8.87
489.231	8.86
489.433	8.9
489.636	8.91
489.839	8.92
490.042	8.92
490.245	8.93
490.447	8.95
490.65	8.93
490.853	8.94
491.056	8.95
491.258	8.96
491.461	8.94
491.664	8.94
491.866	8.99
492.069	9.01
492.272	8.99
492.474	8.98
492.677	8.98
492.879	8.99
493.082	9.02
493.285	8.96
493.487	8.95
493.69	8.94
493.892	8.97
494.095	8.96
494.297	9
494.5	9.01
494.702	9.02
494.905	9.11
495.107	9.17
495.309	9.12
495.512	9.18
495.714	9.21
495.917	9.2
496.119	9.24
496.321	9.18
496.524	9.21
496.726	9.25
496.928	9.25
497.13	9.26
497.333	9.3
497.535	9.3
497.737	9.34
497.939	9.33
498.142	9.35
498.344	9.36
498.546	9.39
498.748	9.39
498.95	9.42
499.152	9.39
499.355	9.42
499.557	9.49
499.759	9.57
499.961	9.59
500.163	9.6
500.365	9.59
500.567	9.63
500.769	9.65
500.971	9.62
501.173	9.56
501.375	9.54
501.577	9.59
501.779	9.61
501.981	9.62
502.183	9.63
502.385	9.67
502.587	9.7
502.788	9.71
502.99	9.68
503.192	9.71
503.394	9.74
503.596	9.77
503.798	9.82
503.999	9.85
504.201	9.91
504.403	9.98
504.605	10.04
504.806	10.09
505.008	10.1
505.21	10.12
505.411	10.18
505.613	10.2
505.815	10.23
506.016	10.24
506.218	10.24
506.42	10.29
506.621	10.31
506.823	10.29
507.024	10.3
507.226	10.3
507.427	10.25
507.629	10.32
507.83	10.27
508.032	10.29
508.233	10.3
508.435	10.33
508.636	10.36
508.838	10.45
509.039	10.43
509.24	10.51
509.442	10.48
509.643	10.48
509.845	10.53
510.046	10.57
510.247	10.61
510.448	10.65
510.65	10.7
510.851	10.75
511.052	10.82
511.254	10.81
511.455	10.81
511.656	10.77
511.857	10.81
512.058	10.81
512.26	10.82
512.461	10.83
512.662	10.84
512.863	10.86
513.064	10.89
513.265	10.91
513.466	10.93
513.667	10.95
513.868	10.96
514.069	11
514.27	11.05
514.471	11.1
514.672	11.11
514.873	11.18
515.074	11.23
515.275	11.26
515.476	11.26
515.677	11.29
515.878	11.32
516.079	11.33
516.28	11.25
516.481	11.23
516.682	11.27
516.882	11.29
517.083	11.25
517.284	11.23
517.485	11.24
517.686	11.28
517.886	11.32
518.087	11.32
518.288	11.34
518.488	11.38
518.689	11.4
518.89	11.49
519.091	11.52
519.291	11.53
519.492	11.54
519.692	11.57
519.893	11.56
520.094	11.62
520.294	11.56
520.495	11.58
520.695	11.59
520.896	11.58
521.096	11.58
521.297	11.59
521.497	11.61
521.698	11.62
521.898	11.66
522.099	11.72
522.299	11.72
522.499	11.75
522.7	11.82
522.9	11.82
523.101	11.84
523.301	11.84
523.501	11.86
523.702	11.92
523.902	11.95
524.102	11.92
524.302	11.92
524.503	11.97
524.703	12.01
524.903	11.99
525.103	11.98
525.304	12
525.504	12
525.704	12.02
525.904	11.99
526.104	12
526.304	12.03
526.504	12.04
526.705	12.05
526.905	12.09
527.105	12.14
527.305	12.15
527.505	12.15
527.705	12.17
527.905	12.21
528.105	12.19
528.305	12.2
528.505	12.21
528.705	12.22
528.905	12.21
529.105	12.23
529.304	12.26
529.504	12.28
529.704	12.32
529.904	12.36
530.104	12.38
530.304	12.41
530.503	12.42
530.703	12.42
530.903	12.46
531.103	12.47
531.303	12.49
531.502	12.51
531.702	12.51
531.902	12.54
532.101	12.57
532.301	12.6
532.501	12.64
532.7	12.62
532.9	12.67
533.1	12.71
533.299	12.77
533.499	12.76
533.698	12.78
533.898	12.79
534.097	12.82
534.297	12.84
534.496	12.86
534.696	12.84
534.895	12.92
535.095	12.95
535.294	12.97
535.494	13.02
535.693	13.03
535.892	13.09
536.092	13.1
536.291	13.15
536.491	13.16
536.69	13.22
536.889	13.21
537.088	13.21
537.288	13.22
537.487	13.27
537.686	13.26
537.886	13.28
538.085	13.31
538.284	13.34
538.483	13.39
538.682	13.45
538.882	13.46
539.081	13.51
539.28	13.55
539.479	13.57
539.678	13.65
539.877	13.71
540.076	13.73
540.275	13.75
540.474	13.74
540.673	13.76
540.872	13.82
541.071	13.84
541.27	13.81
541.469	13.85
541.668	13.92
541.867	14.01
542.066	14.08
542.265	14.11
542.464	14.18
542.663	14.3
542.862	14.32
543.06	14.37
543.259	14.39
543.458	14.39
543.657	14.42
543.856	14.42
544.054	14.44
544.253	14.5
544.452	14.49
544.651	14.54
544.849	14.57
545.048	14.63
545.247	14.7
545.445	14.7
545.644	14.73
545.843	14.81
546.041	14.89
546.24	14.98
546.438	15.05
546.637	15.09
546.836	15.15
547.034	15.19
547.233	15.26
547.431	15.26
547.63	15.35
547.828	15.39
548.027	15.46
548.225	15.57
548.423	15.65
548.622	15.71
548.82	15.8
549.019	15.8
549.217	15.86
549.415	15.9
549.614	15.89
549.812	15.96
550.01	16.03
550.209	16.09
550.407	16.17
550.605	16.25
550.803	16.33
551.002	16.39
551.2	16.48
551.398	16.51
551.596	16.61
551.794	16.69
551.993	16.74
552.191	16.84
552.389	16.99
552.587	17.05
552.785	17.2
552.983	17.25
553.181	17.33
553.379	17.43
553.577	17.55
553.775	17.6
553.973	17.68
554.171	17.77
554.369	17.87
554.567	17.95
554.765	18
554.963	18.06
555.161	18.15
555.359	18.23
555.557	18.26
555.755	18.36
555.952	18.45
556.15	18.56
556.348	18.64
556.546	18.74
556.744	18.83
556.941	18.97
557.139	19.06
557.337	19.12
557.535	19.21
557.732	19.34
557.93	19.43
558.128	19.52
558.325	19.59
558.523	19.69
558.721	19.83
558.918	19.92
559.116	19.98
559.313	20.1
559.511	20.22
559.708	20.31
559.906	20.39
560.104	20.48
560.301	20.57
560.498	20.68
560.696	20.71
560.893	20.8
561.091	20.89
561.288	21.01
561.486	21.11
561.683	21.22
561.88	21.33
562.078	21.45
562.275	21.55
562.473	21.65
562.67	21.75
562.867	21.87
563.064	22.03
563.262	22.15
563.459	22.3
563.656	22.42
563.853	22.53
564.051	22.65
564.248	22.75
564.445	22.81
564.642	22.96
564.839	23.07
565.036	23.22
565.234	23.36
565.431	23.43
565.628	23.55
565.825	23.63
566.022	23.61
566.219	23.68
566.416	23.74
566.613	23.9
566.81	23.94
567.007	23.98
567.204	24.08
567.401	24.19
567.598	24.28
567.795	24.33
567.991	24.29
568.188	24.42
568.385	24.52
568.582	24.66
568.779	24.76
568.976	24.83
569.172	24.9
569.369	25.02
569.566	25.05
569.763	25.11
569.96	25.14
570.156	25.19
570.353	25.26
570.55	25.34
570.746	25.36
570.943	25.45
571.14	25.57
571.336	25.54
571.533	25.62
571.729	25.66
571.926	25.68
572.123	25.73
572.319	25.73
572.516	25.75
572.712	25.83
572.909	25.89
573.105	25.94
573.302	26.02
573.498	26.08
573.695	26.16
573.891	26.19
574.087	26.26
574.284	26.18
574.48	26.18
574.677	26.18
574.873	26.23
575.069	26.26
575.266	26.29
575.462	26.24
575.658	26.34
575.854	26.36
576.051	26.39
576.247	26.39
576.443	26.39
576.639	26.39
576.835	26.48
577.032	26.46
577.228	26.45
577.424	26.48
577.62	26.53
577.816	26.51
578.012	26.49
578.208	26.47
578.404	26.55
578.6	26.56
578.796	26.59
578.993	26.57
579.189	26.56
579.384	26.6
579.58	26.59
579.776	26.56
579.972	26.58
580.168	26.55
580.364	26.52
580.56	26.55
580.756	26.49
580.952	26.47
581.148	26.44
581.343	26.42
581.539	26.37
581.735	26.39
581.931	26.35
582.127	26.38
582.322	26.36
582.518	26.33
582.714	26.32
582.909	26.33
583.105	26.27
583.301	26.27
583.496	26.21
583.692	26.22
583.888	26.2
584.083	26.21
584.279	26.21
584.474	26.24
584.67	26.26
584.866	26.32
585.061	26.32
585.257	26.36
585.452	26.31
585.648	26.28
585.843	26.3
586.039	26.26
586.234	26.19
586.429	26.21
586.625	26.19
586.82	26.18
587.015	26.2
587.211	26.19
587.406	26.25
587.601	26.29
587.797	26.24
587.992	26.28
588.187	26.36
588.383	26.36
588.578	26.33
588.773	26.33
588.968	26.4
589.163	26.5
589.359	26.41
589.554	26.46
589.749	26.48
589.944	26.52
590.139	26.51
590.334	26.51
590.529	26.55
590.724	26.64
590.919	26.67
591.114	26.66
591.309	26.72
591.504	26.77
591.699	26.76
591.894	26.79
592.089	26.82
592.284	26.77
592.479	26.83
592.674	26.88
592.869	26.91
593.064	27.04
593.259	27.07
593.454	27.12
593.648	27.19
593.843	27.23
594.038	27.28
594.233	27.37
594.428	27.4
594.622	27.4
594.817	27.48
595.012	27.61
595.206	27.7
595.401	27.71
595.596	27.79
595.79	27.87
595.985	27.98
596.18	28.09
596.374	28.12
596.569	28.23
596.763	28.44
596.958	28.47
597.153	28.52
597.347	28.62
597.542	28.66
597.736	28.79
597.931	28.85
598.125	28.89
598.319	28.99
598.514	29.06
598.708	29.14
598.903	29.23
599.097	29.27
599.291	29.37
599.486	29.42
599.68	29.49
599.874	29.59
600.069	29.61
600.263	29.61
600.457	29.69
600.651	29.7
600.846	29.67
601.04	29.72
601.234	29.79
601.428	29.78
601.622	29.83
601.817	29.85
602.011	29.93
602.205	30.04
602.399	30.03
602.593	29.98
602.787	30.08
602.981	30.13
603.175	30.14
603.369	30.13
603.563	30.1
603.757	30.11
603.951	30.09
604.145	30.07
604.339	30.02
604.533	29.98
604.727	29.95
604.921	29.98
605.115	29.95
605.309	29.99
605.502	30.01
605.696	30.03
605.89	30.06
606.084	30.02
606.278	29.98
606.471	29.94
606.665	29.91
606.859	29.83
607.053	29.77
607.246	29.7
607.44	29.67
607.634	29.6
607.827	29.52
608.021	29.41
608.214	29.42
608.408	29.38
608.602	29.33
608.795	29.22
608.989	29.21
609.182	29.25
609.376	29.22
609.569	29.08
609.763	29.06
609.956	28.98
610.15	28.99
610.343	28.84
610.537	28.74
610.73	28.69
610.923	28.65
611.117	28.5
611.31	28.42
611.504	28.3
611.697	28.27
611.89	28.14
612.083	28.01
612.277	27.93
612.47	27.91
612.663	27.89
612.856	27.81
613.05	27.71
613.243	27.64
613.436	27.56
613.629	27.52
613.822	27.46
614.015	27.35
614.209	27.31
614.402	27.24
614.595	27.16
614.788	27.15
614.981	26.99
615.174	26.91
615.367	26.87
615.56	26.8
615.753	26.81
615.946	26.8
616.139	26.71
616.332	26.7
616.525	26.67
616.718	26.58
616.911	26.6
617.103	26.49
617.296	26.38
617.489	26.38
617.682	26.42
617.875	26.32
618.067	26.26
618.26	26.14
618.453	26.08
618.646	26.07
618.838	26.01
619.031	25.89
619.224	25.89
619.417	25.88
619.609	25.87
619.802	25.86
619.994	25.78
620.187	25.78
620.38	25.72
620.572	25.73
620.765	25.66
620.957	25.56
621.15	25.54
621.342	25.54
621.535	25.48
621.727	25.45
621.92	25.33
622.112	25.32
622.305	25.34
622.497	25.3
622.69	25.29
622.882	25.27
623.074	25.26
623.267	25.29
623.459	25.31
623.651	25.24
623.844	25.22
624.036	25.21
624.228	25.14
624.42	25.08
624.613	25.05
624.805	24.95
624.997	24.96
625.189	24.97
625.381	24.91
625.574	24.92
625.766	24.88
625.958	24.82
626.15	24.89
626.342	24.84
626.534	24.79
626.726	24.78
626.918	24.68
627.11	24.68
627.302	24.63
627.494	24.58
627.686	24.58
627.878	24.5
628.07	24.45
628.262	24.46
628.454	24.45
628.646	24.45
628.838	24.38
629.029	24.27
629.221	24.24
629.413	24.15
629.605	24.09
629.797	24.07
629.989	24.06
630.18	24.02
630.372	24.08
630.564	24.08
630.755	24.12
630.947	24.05
631.139	23.95
631.33	23.84
631.522	23.82
631.714	23.74
631.905	23.73
632.097	23.75
632.289	23.73
632.48	23.71
632.672	23.67
632.863	23.64
633.055	23.65
633.246	23.62
633.438	23.53
633.629	23.57
633.821	23.64
634.012	23.69
634.203	23.68
634.395	23.65
634.586	23.61
634.777	23.59
634.969	23.55
635.16	23.47
635.351	23.42
635.543	23.37
635.734	23.31
635.925	23.36
636.117	23.41
636.308	23.35
636.499	23.31
636.69	23.35
636.881	23.39
637.073	23.38
637.264	23.31
637.455	23.29
637.646	23.32
637.837	23.35
638.028	23.34
638.219	23.31
638.41	23.34
638.601	23.32
638.792	23.27
638.983	23.18
639.174	23.18
639.365	23.16
639.556	23.14
639.747	23.11
639.938	23.13
640.129	23.09
640.32	23.1
640.511	23.12
640.701	23.02
640.892	22.98
641.083	22.91
641.274	22.86
641.465	22.9
641.655	22.9
641.846	22.81
642.037	22.88
642.228	22.85
642.418	22.82
642.609	22.8
642.8	22.72
642.99	22.73
643.181	22.71
643.372	22.64
643.562	22.58
643.753	22.56
643.943	22.51
644.134	22.49
644.324	22.41
644.515	22.37
644.705	22.34
644.896	22.28
645.086	22.27
645.277	22.28
645.467	22.21
645.658	22.24
645.848	22.21
646.038	22.16
646.229	22.21
646.419	22.19
646.61	22.11
646.8	22.07
646.99	22
647.18	22
647.371	21.99
647.561	21.89
647.751	21.78
647.941	21.78
648.132	21.82
648.322	21.81
648.512	21.8
648.702	21.8
648.892	21.84
649.082	21.89
649.272	21.81
649.462	21.75
649.653	21.74
649.843	21.59
650.033	21.52
650.223	21.48
650.413	21.49
650.603	21.5
650.793	21.44
650.983	21.44
651.172	21.48
651.362	21.39
651.552	21.36
651.742	21.28
651.932	21.25
652.122	21.21
652.312	21.09
652.502	21.01
652.691	21.05
652.881	20.95
653.071	20.86
653.261	20.77
653.45	20.7
653.64	20.64
653.83	20.58
654.019	20.43
654.209	20.28
654.399	20.12
654.588	20
654.778	19.88
654.968	19.7
655.157	19.52
655.347	19.3
655.536	19.2
655.726	19.12
655.915	18.96
656.105	18.84
656.294	18.76
656.484	18.64
656.673	18.61
656.863	18.44
657.052	18.22
657.241	18.05
657.431	17.88
657.62	17.63
657.809	17.45
657.999	17.26
658.188	17.13
658.377	17.06
658.567	16.91
658.756	16.74
658.945	16.55
659.134	16.37
659.324	16.16
659.513	16
659.702	15.74
659.891	15.55
660.08	15.35
660.269	15.25
660.458	15.13
660.648	15
660.837	14.81
661.026	14.68
661.215	14.57
661.404	14.46
661.593	14.27
661.782	14.11
661.971	13.94
662.16	13.77
662.349	13.57
662.538	13.45
662.726	13.24
662.915	13.1
663.104	12.89
663.293	12.72
663.482	12.62
663.671	12.55
663.86	12.38
664.048	12.26
664.237	12.19
664.426	12.13
664.615	12.03
664.803	11.88
664.992	11.82
665.181	11.72
665.369	11.64
665.558	11.48
665.747	11.43
665.935	11.43
666.124	11.36
666.312	11.22
666.501	11.17
666.69	11.13
666.878	11.1
667.067	11.03
667.255	10.95
667.444	10.98
667.632	10.91
667.82	10.84
668.009	10.85
668.197	10.81
668.386	10.73
668.574	10.65
668.762	10.57
668.951	10.55
669.139	10.61
669.327	10.57
669.516	10.56
669.704	10.61
669.892	10.57
670.08	10.57
670.269	10.56
670.457	10.47
670.645	10.47
670.833	10.46
671.021	10.42
671.21	10.53
671.398	10.56
671.586	10.63
671.774	10.64
671.962	10.65
672.15	10.69
672.338	10.74
672.526	10.7
672.714	10.7
672.902	10.65
673.09	10.68
673.278	10.66
673.466	10.79
673.654	10.79
673.842	10.89
674.03	10.96
674.218	11
674.405	11.1
674.593	11.17
674.781	11.16
674.969	11.25
675.157	11.26
675.344	11.34
675.532	11.48
675.72	11.51
675.908	11.65
676.095	11.77
676.283	11.78
676.471	11.89
676.658	12.01
676.846	12.11
677.033	12.19
677.221	12.25
677.409	12.21
677.596	12.43
677.784	12.46
677.971	12.5
678.159	12.61
678.346	12.72
678.534	12.74
678.721	12.87
678.909	12.91
679.096	13.02
679.283	13.11
679.471	13.19
679.658	13.34
679.846	13.56
680.033	13.75
680.22	13.85
680.408	14
680.595	14.1
680.782	14.23
680.969	14.29
681.157	14.33
681.344	14.47
681.531	14.64
681.718	14.85
681.905	15.12
682.093	15.34
682.28	15.59
682.467	15.8
682.654	15.95
682.841	16.19
683.028	16.46
683.215	16.6
683.402	16.7
683.589	16.84
683.776	17.12
683.963	17.34
684.15	17.56
684.337	17.69
684.524	18.02
684.711	18.35
684.898	18.69
685.085	19.01
685.271	19.26
685.458	19.59
685.645	19.9
685.832	20.16
686.019	20.51
686.205	20.8
686.392	21.13
686.579	21.5
686.766	21.86
686.952	22.33
687.139	22.71
687.326	23.17
687.512	23.66
687.699	24.04
687.886	24.49
688.072	25.04
688.259	25.38
688.445	25.78
688.632	26.3
688.818	26.72
689.005	27.29
689.191	27.89
689.378	28.4
689.564	29
689.751	29.73
689.937	30.19
690.124	30.81
690.31	31.45
690.496	31.99
690.683	32.56
690.869	33.2
691.055	33.88
691.242	34.47
691.428	35.18
691.614	35.85
691.8	36.53
691.987	37.26
692.173	37.95
692.359	38.53
692.545	39.23
692.731	39.98
692.918	40.6
693.104	41.34
693.29	42.08
693.476	42.82
693.662	43.65
693.848	44.42
694.034	44.98
694.22	45.61
694.406	46.24
694.592	46.86
694.778	47.45
694.964	48.07
695.15	48.77
695.336	49.57
695.522	50.46
695.708	51.23
695.894	51.94
696.08	52.62
696.265	53.31
696.451	54.11
696.637	54.7
696.823	55.22
697.009	55.9
697.194	56.52
697.38	57.19
697.566	57.65
697.751	58.18
697.937	58.75
698.123	59.51
698.308	60.04
698.494	60.58
698.68	61.2
698.865	61.89
699.051	62.41
699.236	63.02
699.422	63.47
699.607	63.83
699.793	64.38
699.978	64.88
700.164	65.46
700.349	65.93
700.535	66.48
700.72	67.04
700.906	67.73
701.091	68.23
701.276	68.67
701.462	69.09
701.647	69.57
701.832	70.1
702.018	70.33
702.203	70.73
702.388	71.26
702.573	71.95
702.759	72.33
702.944	72.71
703.129	72.97
703.314	73.44
703.499	73.84
703.684	74.15
703.87	74.16
704.055	74.53
704.24	74.93
704.425	75.5
704.61	75.77
704.795	76.33
704.98	76.59
705.165	77.06
705.35	77.36
705.535	77.78
705.72	77.93
705.905	78.14
706.09	78.17
706.275	78.45
706.459	78.84
706.644	79.14
706.829	79.61
707.014	79.75
707.199	79.87
707.384	80.34
707.568	80.58
707.753	80.86
707.938	81.15
708.123	81.12
708.307	81.55
708.492	82.06
708.677	82.17
708.861	82.38
709.046	82.38
709.231	82.55
709.415	82.66
709.6	82.69
709.784	82.8
709.969	83.08
710.153	83.38
710.338	83.54
710.522	83.62
710.707	83.59
710.891	83.81
711.076	83.98
711.26	84.04
711.445	84.06
711.629	84.38
711.813	84.51
711.998	84.73
712.182	84.83
712.366	85.27
712.551	85.46
712.735	85.58
712.919	85.59
713.103	85.68
713.288	85.97
713.472	86.21
713.656	86
713.84	85.97
714.024	86.4
714.208	86.23
714.393	86.39
714.577	86.46
714.761	86.57
714.945	86.72
715.129	87.02
715.313	86.91
715.497	87.37
715.681	87.73
715.865	88
716.049	88.22
716.233	88.44
716.417	88.57
716.601	88.7
716.785	88.88
716.968	88.68
717.152	88.97
717.336	89.02
717.52	89.26
717.704	89.31
717.888	89.28
718.071	89.54
718.255	89.79
718.439	89.53
718.622	89.52
718.806	89.39
718.99	89.39
719.174	89.55
719.357	89.56
719.541	89.88
719.724	90.06
719.908	90.13
720.092	90.61
720.275	90.86
720.459	91.15
720.642	90.76
720.826	90.61
721.009	90.66
721.193	90.67
721.376	90.35
721.559	90.22
721.743	90.13
721.926	90.5
722.11	90.74
722.293	90.56
722.476	90.61
722.66	90.86
722.843	91
723.026	91.38
723.21	91.27
723.393	91.21
723.576	91.35
723.759	91.57
723.942	91.53
724.126	91.45
724.309	91.4
724.492	91.93
724.675	91.84
724.858	92.27
725.041	92.54
725.224	92.71
725.407	93.01
725.59	92.76
725.774	92.58
725.957	92.75
726.14	92.3
726.322	92.29
726.505	92.96
726.688	93.03
726.871	93.37
727.054	93.64
727.237	93.45
727.42	94.25
727.603	94.14
727.786	93.75
727.968	94.31
728.151	94.39
728.334	94.57
728.517	94.98
728.699	95.13
728.882	95.61
729.065	95.28
729.248	94.82
729.43	94.67
729.613	94.44
729.796	94.53
729.978	94.5
730.161	94.48
730.343	95.1
730.526	95.22
730.708	95.67
730.891	95.88
731.073	96.09
731.256	96.23
731.438	96.25
731.621	96.63
731.803	96.55
731.986	96.45
732.168	96.4
732.35	96.28
732.533	96.08
732.715	95.9
732.898	95.64
733.08	96.36
733.262	96.54
733.444	96.47
733.627	96.46
733.809	96.4
733.991	96.7
734.173	96.15
734.355	96.11
734.538	95.96
734.72	96.27
734.902	96.35
735.084	96.83
735.266	96.81
735.448	97.56
735.63	97.47
735.812	97.67
735.994	97.25
736.176	97.72
736.358	97.37
736.54	97.09
736.722	97.01
736.904	96.7
737.086	96.38
737.268	96.93
737.45	96.69
737.632	96.4
737.814	96.75
737.995	96.81
738.177	97.49
738.359	97.95
738.541	97.65
738.723	97.71
738.904	97.87
739.086	98.02
739.268	98.22
739.449	98.14
739.631	98.15
739.813	98.23
739.994	98.46
740.176	98.93
740.358	98.58
740.539	98.12
740.721	97.52
740.902	97.59
741.084	97.43
741.265	97.24
741.447	96.86
741.628	96.94
741.81	97.07
741.991	97.4
742.172	96.78
742.354	97.18
742.535	97.07
742.717	97
742.898	97.65
743.079	97.8
743.261	97.96
743.442	98.65
743.623	98.81
743.804	99.15
743.986	99.65
744.167	99.43
744.348	99.52
744.529	99.13
744.71	98.48
744.891	98.54
745.073	98.37
745.254	98.45
745.435	98
745.616	97.69
745.797	97.4
745.978	98.54
746.159	98.61
746.34	98.68
746.521	98.5
746.702	97.92
746.883	98.44
747.064	98.55
747.245	98.68
747.426	97.98
747.606	98.05
747.787	98.27
747.968	99.43
748.149	99.01
748.33	99.74
748.51	98.83
748.691	99.58
748.872	99.74
749.053	99.34
749.233	98.98
749.414	99.11
749.595	98.23
749.775	98.29
749.956	97.51
750.137	97.32
750.317	97.35
750.498	97.53
750.678	97.14
750.859	97.51
751.04	97.83
751.22	98.29
751.4	98.47
751.581	98.45
751.761	98.67
751.942	98.97
752.122	99.22
752.303	98.61
752.483	98.68
752.663	98.61
752.844	98.54
753.024	98.31
753.204	98.7
753.385	98.45
753.565	98.66
753.745	98.03
753.925	97.36
754.106	97.44
754.286	97.39
754.466	96.78
754.646	96.46
754.826	95.98
755.006	96.8
755.187	97.22
755.367	97.13
755.547	97.71
755.727	97.84
755.907	98.38
756.087	98.87
756.267	98.12
756.447	98.38
756.627	98.32
756.807	98.12
756.987	98.7
757.167	98.35
757.346	97.79
757.526	98.28
757.706	97.95
757.886	97.52
758.066	96.62
758.246	95.79
758.425	95.54
758.605	95.71
758.785	95.42
758.965	94.5
759.144	95.2
759.324	95.43
759.504	95.27
759.683	95.18
759.863	95.53
760.043	95.2
760.222	95.74
760.402	96.06
760.581	95.18
760.761	94.31
760.94	93.69
761.12	93.44
761.299	92.54
761.479	93.18
761.658	91.6
761.838	91.91
762.017	93.4
762.197	94.5
762.376	94.79
762.555	95.73
762.735	94.58
762.914	95.65
763.093	96.3
763.273	95.26
763.452	94.21
763.631	93.34
763.81	93.43
763.99	93.52
764.169	93.29
764.348	93.74
764.527	94.09
764.706	95.92
764.885	96.88
765.064	96.49
765.243	96.87
765.423	97.77
765.602	96.29
765.781	96.3
765.96	94.48
766.139	93.65
766.318	94.72
766.497	95.12
766.676	95.1
766.854	94.65
767.033	94.3
767.212	94.9
767.391	94.68
767.57	93.98
767.749	93.46
767.928	92
768.106	93.44
768.285	93.47
768.464	92.95
768.643	93.24
768.821	92.93
769	93.06
769.179	91.99
769.357	91.54
769.536	91.14
769.715	91.72
769.893	91.88
770.072	92.35
770.25	92.4
770.429	94.05
770.607	93.98
770.786	94.74
770.964	94.23
771.143	93.88
771.321	92.92
771.5	91.67
771.678	91.63
771.857	90.44
772.035	89.97
772.213	90.71
772.392	91.11
772.57	91.1
772.748	91.33
772.927	91.29
773.105	92.12
773.283	91.98
773.461	90.67
773.64	90.28
773.818	90.15
773.996	91.02
774.174	91.08
774.352	90.41
774.531	89.31
774.709	90.07
774.887	89.84
775.065	89.41
775.243	90.06
775.421	89.96
775.599	89.56
775.777	91.06
775.955	89.73
776.133	89.64
776.311	90.59
776.489	89.47
776.667	88.38
776.844	88.94
777.022	89.19
777.2	90.31
777.378	91.17
777.556	92.09
777.734	92.36
777.911	95.33
778.089	94.54
778.267	93.86
778.445	92.42
778.622	91.9
778.8	91.04
778.978	90.71
779.155	87.72
779.333	87.95
779.511	88.8
779.688	88.74
779.866	87.57
780.043	88.25
780.221	88.42
780.398	90.23
780.576	90.27
780.753	89.18
780.931	92.02
781.108	93.75
781.286	92.22
781.463	91.28
781.64	89.91
781.818	90.26
781.995	91.12
782.172	90.76
782.35	89.79
782.527	90.83
782.704	90.19
782.882	92.31
783.059	91.86
783.236	92.14
783.413	91.36
783.59	90.88
783.768	90.4
783.945	92.2
784.122	89.84
784.299	90.97
784.476	89.87
784.653	89.95
784.83	87.76
785.007	89.02
785.184	89.26
785.361	90.37
785.538	90.32
785.715	89.88
785.892	88.02
786.069	90.28
786.246	89.13
786.423	90.34
786.6	90.48
786.776	90.22
786.953	89.78
787.13	90.34
787.307	89.94
787.484	89.5
787.66	87.57
787.837	86.83
788.014	87.2
788.191	86.49
788.367	86.27
788.544	86.25
788.721	85.59
788.897	86.65
789.074	86.43
789.25	86.04
789.427	86.64
789.603	87.85
789.78	90.29
789.956	88.99
790.133	87.96
790.309	87.77
790.486	88.47
790.662	90.36
790.839	91.44
791.015	89.88
791.192	93.52
791.368	94.92
791.544	93.88
791.721	92.54
791.897	91.07
792.073	89.29
792.249	91.22
792.426	90.01
792.602	86.95
792.778	88.46
792.954	88.06
793.13	89.82
793.307	87.68
793.483	83.68
793.659	84.73
793.835	84.3
794.011	81.98
794.187	81.59
794.363	80.06
794.539	81.38
794.715	82.43
794.891	78.51
795.067	79.3
795.243	80.29
795.419	81.27
795.595	79.6
795.771	83.1
795.947	84.49
796.122	85.89
796.298	86.3
796.474	88.67
796.65	88.86
796.826	91.24
797.001	87.86
797.177	85.15
797.353	87.92
797.529	89.02
797.704	86.16
797.88	84.81
798.056	86.79
798.231	85.23
798.407	88.83
798.582	88.09
798.758	87.84
798.934	86.54
799.109	83.36
799.285	80.49
799.46	81.57
799.636	80.38
799.811	82.09
799.986	81.95
800.162	81.34
800.337	83.36
800.513	85.64
800.688	87.72
800.863	88.57
801.039	85.41
801.214	84.62
801.389	87.14
801.565	90.95
801.74	90.06
801.915	88.42
802.09	85.5
802.265	85.91
802.441	87.74
802.616	90.66
802.791	90.48
802.966	86.99
803.141	86.46
803.316	89.95
803.491	89.51
803.666	86.58
803.841	83.74
804.016	84.04
804.191	86.49
804.366	86.27
804.541	86.61
804.716	82.84
804.891	86.13
805.066	89.29
805.241	87.31
805.416	85.89
805.591	88.31
805.765	87.55
805.94	91.81
806.115	88.11
806.29	83.82
806.464	85.32
806.639	87.64
806.814	83.69
806.989	81.39
807.163	79.36
807.338	82.96
807.512	81
807.687	77.84
807.862	76.67
808.036	77.26
808.211	80.12
808.385	78.91
808.56	80.25
808.734	80.62
808.909	82.14
809.083	81.75
809.258	85.88
809.432	81.92
809.606	85.28
809.781	81.53
809.955	86.08
810.13	86.71
810.304	88.19
810.478	85.97
810.652	94.06
810.827	90.1
811.001	88.6
811.175	80.66
811.349	78.94
811.524	78.19
811.698	80.57
811.872	78.67
812.046	80.24
812.22	80.65
812.394	88.43
812.568	91.83
812.742	90.92
812.916	87.75
813.09	82.3
813.264	82.03
813.438	90.24
813.612	88.16
813.786	91.16
813.96	93.42
814.134	93.98
814.308	90.18
814.482	92.19
814.656	88.88
814.83	89.3
815.003	87.02
815.177	84.12
815.351	84
815.525	86.34
815.698	85.67
815.872	79.37
816.046	77.64
816.219	80.49
816.393	83.37
816.567	79
816.74	79.68
816.914	79.56
817.088	81.31
817.261	81.06
817.435	70.89
817.608	68.42
817.782	80.18
817.955	78.76
818.129	82.93
818.302	88.5
818.475	89.05
818.649	87.82
818.822	91.48
818.996	80.79
819.169	83.57
819.342	77.62
819.516	74.15
819.689	77.98
819.862	77.58
820.035	75.18
820.209	74.95
820.382	71.3
820.555	72.06
820.728	69.52
820.901	64.64
821.075	64.62
821.248	61.47
821.421	60.33
821.594	61.82
821.767	63.63
821.94	61.86
822.113	63.37
822.286	69.06
822.459	78.76
822.632	83.09
822.805	81.69
822.978	77.13
823.151	85.57
823.324	78.62
823.496	69.31
823.669	66.22
823.842	67.51
824.015	73.02
824.188	71.24
824.361	67.05
824.533	74.6
824.706	92.96
824.879	94.59
825.051	95.04
825.224	86.59
825.397	87.15
825.569	94.85
825.742	95.32
825.915	91.92
826.087	86.7
826.26	82.09
826.432	86.29
826.605	87.33
826.777	77.04
826.95	69.07
827.122	63.86
827.295	71.23
827.467	66.37
827.64	59.61
827.812	62.21
827.984	66.92
828.157	71.83
828.329	75.43
828.501	71.14
828.674	80.92
828.846	84.44
829.018	75.15
829.19	68.31
829.363	65.31
829.535	65.24
829.707	59.47
829.879	58.97
830.051	47.32
830.223	49.97
830.395	50.85
830.568	54.76
830.74	48.36
830.912	55.64
831.084	49.31
831.256	57.85
831.428	66.21
831.6	63.35
831.772	61.42
831.943	72.17
832.115	71.18
832.287	76.56
832.459	77.94
832.631	76.37
832.803	89.69
832.975	92.51
833.146	81.84
833.318	73.17
833.49	76.78
833.662	70
833.833	73.53
834.005	71.15
834.177	72.3
834.348	73.69
834.52	80.12
834.692	76.07
834.863	77.33
835.035	66.75
835.206	61.1
835.378	55.18
835.549	59.01
835.721	58.21
835.892	58.8
836.064	62.7
836.235	66.51
836.407	60.93
836.578	68.88
836.749	68.72
836.921	68.06
837.092	77.26
837.264	77.24
837.435	63.57
837.606	72.44
837.777	66.38
837.949	60.57
838.12	55.05
838.291	51.69
838.462	53.1
838.633	62.68
838.805	62.27
838.976	55.66
839.147	56.8
839.318	66.34
839.489	62.34
839.66	60.63
839.831	63.16
840.002	65.64
840.173	80.61
840.344	95.02
840.515	83.88
840.686	84
840.857	88.2
841.028	93.1
841.199	87
841.369	76.73
841.54	74.4
841.711	78.31
841.882	79.54
842.053	81.88
842.223	73.16
842.394	73.8
842.565	74.27
842.736	61.4
842.906	59.67
843.077	71.96
843.248	75.41
843.418	67.41
843.589	69.08
843.759	79.38
843.93	81.44
844.101	81.34
844.271	71.48
844.442	72.54
844.612	75.26
844.783	68.02
844.953	55.45
845.123	58.26
845.294	65.77
845.464	65.3
845.635	66.37
845.805	78.16
845.975	78.02
846.146	83.53
846.316	102.47
846.486	98.41
846.656	101.65
846.827	103.63
846.997	94.87
847.167	94.34
847.337	99.84
847.507	89.35
847.677	90.3
847.848	95.83
848.018	77.15
848.188	74.27
848.358	70.66
848.528	57.33
848.698	43.43
848.868	34.34
849.038	21.64
849.208	37.74
849.378	41.2
849.548	53.72
849.718	51.14
849.887	56.06
850.057	62.57
850.227	66.26
850.397	68.08
850.567	79.31
850.737	61.71
850.906	71.1
851.076	66.87
851.246	62.77
851.415	76.54
851.585	66.43
851.755	58.71
851.924	80.61
852.094	75.23
852.264	81.15
852.433	82.68
852.603	86.77
852.772	79.8
852.942	69.9
853.111	60.74
853.281	51.43
853.45	49.29
853.62	41.33
853.789	30.28
853.959	26.19
854.128	17.66
854.297	16.8
854.467	26.12
854.636	45.73
854.805	50.17
854.975	54.18
855.144	66.32
855.313	88.78
855.482	83.48
855.652	89.29
855.821	74.73
855.99	89.5
856.159	86.81
856.328	91.33
856.497	73.01
856.667	81.66
856.836	70.64
857.005	68.72
857.174	65.23
857.343	70.43
857.512	55.78
857.681	59.73
857.85	42.36
858.019	48.92
858.188	41.68
858.356	7.67
858.525	2.8
858.694	12.47
858.863	18.08
859.032	16.35
859.201	11.8
859.369	37.22
859.538	43.9
859.707	61.63
859.876	60.39
860.044	66.09
860.213	71.79
860.382	63.21
860.55	61.2
860.719	71.44
860.888	62.77
861.056	62.95
861.225	57.74
861.393	74.62
861.562	69.39
861.73	74.58
861.899	62.73
862.067	63.02
862.236	60.09
862.404	64.74
862.572	55.09
862.741	59.42
862.909	57.27
863.078	58.35
863.246	66.72
863.414	67.72
863.582	64.73
863.751	58.21
863.919	73.95
864.087	51.03
864.255	53.49
864.424	51.09
864.592	49.52
864.76	63.3
864.928	77.15
865.096	62.8
865.264	79.79
865.432	78.5
865.6	63.41
865.768	55.96
865.936	30.3
866.104	17.28
866.272	26.65
866.44	7.76
866.608	26.05
866.776	48.56
866.944	59.13
867.112	59.26
867.28	65.85
867.448	64.26
867.615	92.04
867.783	83.59
867.951	93.64
868.119	87.45
868.286	86.2
868.454	67.37
868.622	49.48
868.789	56.34
868.957	64.09
869.125	70.8
869.292	75.92
869.46	86.7
869.627	106.93
869.795	126.94
869.963	98.88
870.13	92.6
870.298	84.97
870.465	69.35
870.632	53.27
870.8	11.38
870.967	-5.78
871.135	14.58
871.302	21.51
871.469	28.58
871.637	24.48
871.804	31.73
871.971	44.34
872.139	56.98
872.306	52.39
872.473	43.09
872.64	32.53
872.807	53.72
872.975	80.82
873.142	61.18
873.309	60.67
873.476	160.34
873.643	205.75
873.81	218.19
873.977	140.78
874.144	121.34
874.311	129.89
874.478	69.89
874.645	32.15
874.812	26.22
874.979	-2.13
875.146	-38.35
875.313	-77.92
875.48	-64.06
875.647	-62.5
875.813	-103.87
875.98	-61.81
876.147	18.3
876.314	22.56
876.481	8.16
876.647	27.91
876.814	31.72
876.981	42.58
877.147	22.01
877.314	6.54
877.481	26.35
877.647	47.85
877.814	39.54
877.98	63.13
878.147	61.74
878.314	76.03
878.48	87.89
878.647	117.56
878.813	114.81
878.979	112.2
879.146	57.41
879.312	81.44
879.479	73.97
879.645	56.19
879.811	25.22
879.978	25.14
880.144	51.61
880.31	68.98
880.477	26.96
880.643	15.7
880.809	64.67
880.975	55.74
881.142	42.44
881.308	55.02
881.474	111.45
881.64	96
881.806	82.66
881.972	93.81
882.138	73.47
882.304	67.11
882.47	64.32
882.636	3.69
882.802	-0.86
882.968	-65.88
883.134	-190.64
883.3	-57.46
883.466	21.02
883.632	9.89
883.798	28.52
883.964	36.2
884.129	56.92
884.295	55.84
884.461	79.49
884.627	89.62
884.793	81.28
884.958	88.84
885.124	118.11
885.29	78.74
885.455	84.26
885.621	78.97
885.787	59.76
885.952	60.62
886.118	54.87
886.283	63.87
886.449	62.61
886.614	83.54
886.78	66.49
886.945	55.01
887.111	61.32
887.276	50
887.442	33.06
887.607	33.25
887.773	9.75
887.938	3.07
888.103	53.71
888.269	46.23
888.434	61.03
888.599	60.46
888.764	70.61
888.93	89.5
889.095	89.23
889.26	69.17
889.425	87.29
889.59	57.75
889.756	46.04
889.921	36.16
890.086	40.04
890.251	20.79
890.416	12.54
890.581	3.44
890.746	5.22
890.911	-7.91
891.076	-7.41
891.241	-60.19
891.406	19.46
891.571	33.82
891.736	21.67
891.901	57.73
892.065	68.07
892.23	51.64
892.395	30.6
892.56	23.41
892.725	2.88
892.889	-5.68
893.054	-47.32
893.219	-81.53
893.384	-109.9
893.548	-185
893.713	338.12
893.878	94.02
