Data from Ofra_1a_PS_2HS9_Reflection_1.txt Node
Date: Tue Jul 20 10:54:25 EDT 2021
User: Adam
Spectrometer: FLMT01687
Trigger mode: 0
Integration Time (sec): 1.004000E0
Scans to average: 2
Electric dark correction enabled: true
Nonlinearity correction enabled: false
Boxcar width: 2
XAxis mode: Wavelengths
Number of Pixels in Spectrum: 3648
>>>>>Begin Spectral Data<<<<<
179.494	-827.41
179.716	-1017.56
179.937	1818.73
180.158	-2240.76
180.38	216.83
180.601	100.96
180.823	16.32
181.044	39.64
181.265	29.12
181.486	103.39
181.708	58.37
181.929	2963.64
182.15	-7.05
182.372	-28.57
182.593	97.49
182.814	-24.79
183.035	17.78
183.257	25.34
183.478	2.34
183.699	17.59
183.92	3.71
184.141	34.91
184.363	39.94
184.584	68.95
184.805	57.62
185.026	86.64
185.247	55.46
185.468	35.35
185.689	42.7
185.91	16.87
186.132	2.77
186.353	18.56
186.574	29.74
186.795	17.04
187.016	35.7
187.237	36.67
187.458	34.96
187.679	31.27
187.9	56.17
188.121	67.27
188.342	87.97
188.563	105.36
188.784	93.96
189.005	76.31
189.226	55.52
189.447	37.28
189.667	26.2
189.888	24.45
190.109	-2.38
190.33	24.43
190.551	29.45
190.772	35.44
190.993	12.95
191.214	20.22
191.434	-3.65
191.655	-0.74
191.876	6.76
192.097	56.65
192.318	77.43
192.538	64.22
192.759	45.3
192.98	49.25
193.201	42.97
193.421	30.96
193.642	34.07
193.863	41.23
194.083	35.29
194.304	31.84
194.525	25.02
194.745	10.17
194.966	9.59
195.187	10.38
195.407	9.38
195.628	11.24
195.848	19.36
196.069	20
196.29	29.76
196.51	18.89
196.731	26.72
196.951	34.66
197.172	32.46
197.392	6.66
197.613	22.47
197.833	3.94
198.054	-6.99
198.274	-8.75
198.495	16.08
198.715	-6.09
198.936	33.08
199.156	44.86
199.377	48.92
199.597	38.13
199.817	45.76
200.038	7.66
200.258	22.28
200.479	20.3
200.699	8.71
200.919	13.05
201.14	31.14
201.36	22.85
201.58	22.37
201.801	29.41
202.021	34.23
202.241	23.26
202.461	17
202.682	30
202.902	36.86
203.122	34.79
203.342	45.78
203.563	20.21
203.783	11.4
204.003	11.38
204.223	13.1
204.443	5.94
204.663	13.16
204.884	18.54
205.104	10.73
205.324	27.85
205.544	19.47
205.764	57.96
205.984	65.5
206.204	99.12
206.424	71.09
206.644	63.98
206.864	49.93
207.084	38.88
207.304	34.8
207.525	61.41
207.745	70.97
207.964	83.01
208.184	86.07
208.404	49.68
208.624	59.63
208.844	53.9
209.064	35.4
209.284	27.8
209.504	29.3
209.724	5.46
209.944	-10.88
210.164	6.52
210.384	20.16
210.604	1.89
210.823	-14.79
211.043	11.13
211.263	-23.19
211.483	-30.16
211.703	-0.3
211.922	7.94
212.142	32.21
212.362	37.45
212.582	40.26
212.801	30.39
213.021	-4.9
213.241	-30.85
213.461	-33.91
213.68	-16.41
213.9	-15.25
214.12	-1.31
214.339	3.84
214.559	14.19
214.779	23.96
214.998	36.45
215.218	38.55
215.438	44.96
215.657	44.57
215.877	34.32
216.096	46.69
216.316	41.22
216.535	27.86
216.755	33.9
216.974	23.34
217.194	6.85
217.413	11.46
217.633	19.96
217.852	20.45
218.072	43.37
218.291	42.69
218.511	39.77
218.73	39.06
218.95	14.52
219.169	-34.97
219.389	-15.04
219.608	-1.35
219.827	1.85
220.047	2.42
220.266	-3.5
220.485	-14.16
220.705	-2.15
220.924	-4.08
221.143	25.87
221.363	40.22
221.582	61.59
221.801	59.05
222.021	66.75
222.24	62.84
222.459	61.41
222.678	47.81
222.897	41.09
223.117	45.17
223.336	52
223.555	74.36
223.774	92.89
223.993	106.2
224.213	96.52
224.432	104.89
224.651	82.22
224.87	65.64
225.089	49.96
225.308	62.05
225.527	48.61
225.746	50.28
225.965	40.04
226.184	27.81
226.404	-9.23
226.623	3.61
226.842	4.62
227.061	18.98
227.28	40.82
227.499	58.51
227.718	53.22
227.936	57.49
228.155	51.75
228.374	44.68
228.593	34.61
228.812	37.11
229.031	28.11
229.25	4.51
229.469	2.73
229.688	6.42
229.907	10.91
230.125	10.32
230.344	23.32
230.563	32.81
230.782	36.05
231.001	39.82
231.22	56.37
231.438	80.56
231.657	58.53
231.876	43.83
232.095	45.01
232.313	28.88
232.532	8.77
232.751	8.04
232.969	38.36
233.188	28.06
233.407	35.81
233.625	56.71
233.844	47.02
234.063	42.15
234.281	38.2
234.5	36.59
234.719	29.74
234.937	38.47
235.156	43.77
235.374	53.6
235.593	39.11
235.811	25.16
236.03	20.77
236.249	11.37
236.467	18.6
236.686	21.62
236.904	30.21
237.123	36.19
237.341	34.15
237.559	25.6
237.778	32.15
237.996	13.94
238.215	-34.82
238.433	-63.26
238.652	-14.29
238.87	-21.19
239.088	-2.15
239.307	34.51
239.525	40.51
239.743	20.53
239.962	8.07
240.18	11.43
240.398	-7.66
240.617	-18.3
240.835	-10.39
241.053	11.49
241.271	0.99
241.49	17.16
241.708	10.88
241.926	14.89
242.144	19.47
242.363	22.41
242.581	-8.49
242.799	-24.1
243.017	-9.6
243.235	-9.58
243.453	-20.19
243.672	7.53
243.89	20.08
244.108	19.52
244.326	27.2
244.544	37.91
244.762	22.63
244.98	33.04
245.198	35.29
245.416	31.63
245.634	35.82
245.852	38.63
246.07	29.31
246.288	22.67
246.506	17.36
246.724	8.86
246.942	23.2
247.16	26.29
247.378	26.5
247.596	49.37
247.814	55.8
248.032	59.72
248.25	70.53
248.468	54.91
248.685	61.82
248.903	59
249.121	55.71
249.339	48.93
249.557	49.3
249.775	43.66
249.992	37.55
250.21	23.95
250.428	28.99
250.646	36.57
250.863	22.79
251.081	26.23
251.299	39.22
251.517	34.95
251.734	25.8
251.952	21.03
252.17	8.74
252.387	-8.78
252.605	-14.15
252.823	-30.51
253.04	-0.33
253.258	24.45
253.475	16.26
253.693	19.8
253.911	5.64
254.128	-4.67
254.346	23.28
254.563	45.33
254.781	47.28
254.998	68.3
255.216	41.09
255.433	-26.15
255.651	-28.11
255.868	-23.62
256.086	-8.98
256.303	11.43
256.521	35.93
256.738	16.88
256.956	29.52
257.173	13.93
257.39	23.26
257.608	19.03
257.825	27.17
258.043	29.34
258.26	42.36
258.477	26.3
258.695	21
258.912	21.74
259.129	-3.17
259.346	-21.01
259.564	-11.73
259.781	-4.93
259.998	22.38
260.216	42.69
260.433	43.06
260.65	57.15
260.867	72.58
261.084	62.26
261.302	73.27
261.519	76.63
261.736	74.29
261.953	63.65
262.17	68.74
262.387	52.69
262.604	48.22
262.822	43.45
263.039	36.46
263.256	27.69
263.473	27.66
263.69	25.1
263.907	21.62
264.124	29.8
264.341	34.27
264.558	27.9
264.775	29.18
264.992	45.83
265.209	46.61
265.426	61.37
265.643	68.68
265.86	69.99
266.077	57.79
266.294	43.75
266.51	28.77
266.727	25.84
266.944	48.73
267.161	43.76
267.378	39.03
267.595	29.91
267.812	20.32
268.028	3.92
268.245	17.66
268.462	30.41
268.679	66.49
268.896	73.15
269.112	50.48
269.329	25.27
269.546	31.51
269.763	13.45
269.979	16.25
270.196	23.57
270.413	31.59
270.629	6.5
270.846	4.23
271.063	1.46
271.279	14.71
271.496	0.17
271.712	15.41
271.929	26.68
272.146	30.38
272.362	29.94
272.579	33.14
272.795	24.14
273.012	17.1
273.228	23.09
273.445	1.75
273.661	-5.43
273.878	-7.29
274.094	1.19
274.311	-12.04
274.527	9.43
274.744	27.15
274.96	27.04
275.177	28.92
275.393	43.31
275.609	45.47
275.826	44.02
276.042	45.25
276.259	31.12
276.475	15.52
276.691	6.13
276.908	-8.67
277.124	0.89
277.34	11.73
277.557	5.45
277.773	1.18
277.989	15.35
278.205	10.57
278.422	10.62
278.638	19.76
278.854	15.32
279.07	16.59
279.286	14.53
279.503	9.38
279.719	17.01
279.935	11.85
280.151	1.15
280.367	9.73
280.583	4.57
280.799	-9.12
281.016	-17.9
281.232	-5.36
281.448	-14.55
281.664	7.77
281.88	30.29
282.096	38.51
282.312	44.76
282.528	50.82
282.744	51.66
282.96	39.34
283.176	50.33
283.392	23.49
283.608	18.58
283.824	-0.73
284.04	-61.49
284.256	-49.45
284.471	-17.76
284.687	-24.05
284.903	-10.76
285.119	19.12
285.335	29.62
285.551	32.71
285.767	37.39
285.982	27
286.198	2.77
286.414	2.9
286.63	-5.51
286.846	-14.63
287.061	0.82
287.277	5.74
287.493	-23.99
287.709	-19.13
287.924	4.94
288.14	12.51
288.356	23.55
288.571	28.66
288.787	26.25
289.003	20
289.218	-7.74
289.434	-19.8
289.65	14.37
289.865	3.89
290.081	3.54
290.296	22.74
290.512	25.3
290.727	8.22
290.943	16.37
291.159	19.75
291.374	4.46
291.59	11.38
291.805	-8.74
292.021	-27.47
292.236	-41.32
292.451	-37.63
292.667	-38.4
292.882	-19.39
293.098	-12.11
293.313	-2.57
293.529	14.4
293.744	3.37
293.959	3.6
294.175	15.86
294.39	-11.81
294.605	7.07
294.821	3.34
295.036	22.18
295.251	17.2
295.467	27.3
295.682	16.11
295.897	20.59
296.112	-17.18
296.328	-16.45
296.543	-20.19
296.758	-20.29
296.973	-17.3
297.188	8.82
297.404	3.66
297.619	-1.02
297.834	-45.92
298.049	0.27
298.264	8.16
298.479	8.47
298.694	45.26
298.909	53.58
299.125	33.94
299.34	25.83
299.555	16.75
299.77	9.66
299.985	14.25
300.2	20.33
300.415	18.86
300.63	32.84
300.845	25.23
301.06	33.5
301.275	35.13
301.49	40
301.704	32.32
301.919	34.52
302.134	14.41
302.349	13.8
302.564	-4.21
302.779	-4.85
302.994	9.47
303.209	28.66
303.423	29.34
303.638	52.63
303.853	37.36
304.068	9.73
304.283	5.15
304.497	-6.03
304.712	-1.88
304.927	8.59
305.142	24.94
305.356	27.2
305.571	39.28
305.786	37.09
306	47.69
306.215	31.99
306.43	34.57
306.644	15.8
306.859	-2.43
307.074	1.02
307.288	4.92
307.503	0.28
307.717	2.41
307.932	19.35
308.147	6.56
308.361	10.63
308.576	-6.95
308.79	-10.56
309.005	-28.94
309.219	-13.69
309.434	-15.24
309.648	5.66
309.863	17.59
310.077	25.7
310.292	48.35
310.506	49.06
310.72	49.66
310.935	47.58
311.149	39.97
311.364	49.96
311.578	57.57
311.792	44.45
312.007	43.43
312.221	33.54
312.435	19.23
312.649	11.25
312.864	-21.13
313.078	-16.86
313.292	-14.41
313.507	-18.67
313.721	-19.09
313.935	16.66
314.149	17.4
314.363	33.23
314.578	11.54
314.792	-4.23
315.006	0.43
315.22	-6.63
315.434	-13.64
315.648	-5.6
315.862	0.65
316.077	0.47
316.291	11.41
316.505	-6.38
316.719	1.44
316.933	10.21
317.147	8.6
317.361	10.52
317.575	28.27
317.789	26.64
318.003	25.87
318.217	46.25
318.431	37.56
318.645	27.98
318.859	28.28
319.073	31.79
319.287	20.34
319.5	22.38
319.714	18.59
319.928	24.49
320.142	15.74
320.356	26.39
320.57	15.6
320.784	17.64
320.997	9.46
321.211	17.42
321.425	6.9
321.639	26.9
321.853	24.45
322.066	7.25
322.28	-1.02
322.494	-0.02
322.707	-9.44
322.921	-10.96
323.135	9.09
323.349	17.16
323.562	22.54
323.776	35.4
323.989	50.17
324.203	27.28
324.417	32.47
324.63	34.12
324.844	16.11
325.057	-18.83
325.271	1.77
325.485	-8.79
325.698	0.31
325.912	12.47
326.125	20.61
326.339	21.54
326.552	27.84
326.766	12.21
326.979	15.07
327.193	37.12
327.406	26.05
327.619	24.68
327.833	32.53
328.046	34.86
328.26	22.9
328.473	37.52
328.686	42.76
328.9	41.35
329.113	34.66
329.326	28.2
329.54	25.22
329.753	27.48
329.966	27.6
330.179	25.01
330.393	25.77
330.606	16.4
330.819	-4.95
331.032	7.31
331.246	21.93
331.459	29.87
331.672	43.06
331.885	43.78
332.098	30.24
332.311	14.9
332.525	5.78
332.738	9.92
332.951	9.04
333.164	18.23
333.377	18.5
333.59	15.66
333.803	3.19
334.016	9.13
334.229	6.67
334.442	14.12
334.655	26.78
334.868	18
335.081	15.15
335.294	14.39
335.507	32.56
335.72	29.56
335.933	41.58
336.146	48.45
336.359	52.41
336.572	41.58
336.785	45
336.997	49.25
337.21	43.19
337.423	0.99
337.636	-3.15
337.849	-4.44
338.062	-0.17
338.274	20.72
338.487	13.87
338.7	6.29
338.913	15.7
339.125	-5.19
339.338	-17.5
339.551	-3.47
339.763	3.29
339.976	2.84
340.189	8.09
340.402	14.84
340.614	14.13
340.827	17.77
341.039	8.11
341.252	12.21
341.465	0.9
341.677	15.15
341.89	-8.24
342.102	5.6
342.315	12.03
342.527	25.6
342.74	12.47
342.952	47.25
343.165	39.01
343.377	42.5
343.59	29.23
343.802	26.46
344.015	21.47
344.227	37.37
344.44	35.63
344.652	43.4
344.864	42.43
345.077	43.11
345.289	22.95
345.502	34.66
345.714	29.6
345.926	24.3
346.139	10.25
346.351	11.27
346.563	2.02
346.775	-1.87
346.988	10.38
347.2	12.91
347.412	17.44
347.624	15.36
347.837	11.83
348.049	8.52
348.261	5.28
348.473	-10.37
348.685	-17.4
348.897	-9.27
349.11	2.52
349.322	2.77
349.534	16.02
349.746	26.48
349.958	11.9
350.17	7.61
350.382	22.61
350.594	27.47
350.806	40.66
351.018	52.15
351.23	54.13
351.442	52.69
351.654	45.84
351.866	45.59
352.078	47.66
352.29	34.09
352.502	30.3
352.714	32.22
352.926	18.21
353.138	10.98
353.35	7.93
353.561	6.83
353.773	-0.02
353.985	12.14
354.197	18.76
354.409	18.52
354.621	12.71
354.832	20.46
355.044	1.44
355.256	-18.93
355.468	-17.52
355.679	-1.34
355.891	5.41
356.103	-2.39
356.314	4.92
356.526	-7.31
356.738	-0.03
356.949	-7.36
357.161	22.28
357.373	17
357.584	33.77
357.796	38.3
358.008	40.11
358.219	32.59
358.431	37.02
358.642	37.34
358.854	29.02
359.065	29.38
359.277	26.59
359.488	19.03
359.7	14.92
359.911	8.61
360.123	24.43
360.334	15.88
360.546	17.02
360.757	22.51
360.969	34.08
361.18	12.43
361.391	19.74
361.603	29.24
361.814	24.07
362.025	25.8
362.237	27.04
362.448	32.99
362.659	25.09
362.871	13.01
363.082	16.59
363.293	36.97
363.504	11.51
363.716	16.28
363.927	41.81
364.138	21.92
364.349	-6.97
364.56	-5.85
364.772	5.5
364.983	-10.29
365.194	4.65
365.405	15.45
365.616	39.28
365.827	30.32
366.038	48.49
366.25	48.63
366.461	45.19
366.672	27.26
366.883	25.64
367.094	11.25
367.305	-6.71
367.516	-6.08
367.727	-7.64
367.938	-7.25
368.149	-9.07
368.36	-5.71
368.571	-13.73
368.781	-15.72
368.992	-14.56
369.203	-11.73
369.414	-1.75
369.625	9.87
369.836	34.59
370.047	40.54
370.258	47.24
370.468	31.05
370.679	24.9
370.89	8.07
371.101	6.41
371.312	1.15
371.522	-7.61
371.733	-8.66
371.944	-25.64
372.155	-13.32
372.365	-10.98
372.576	-14.57
372.787	-4.15
372.997	5.87
373.208	-3.75
373.419	-3.06
373.629	12.77
373.84	-2.41
374.05	-5.84
374.261	-6.8
374.472	-9.31
374.682	-3.06
374.893	-7.12
375.103	-4.12
375.314	1.05
375.524	1.02
375.735	8.92
375.945	14.25
376.156	12.85
376.366	10.33
376.577	13.48
376.787	11.41
376.997	20.32
377.208	25.9
377.418	20.38
377.629	26.48
377.839	30.5
378.049	33.82
378.26	22.32
378.47	24.3
378.68	14.22
378.89	10.81
379.101	6.87
379.311	6.7
379.521	3.01
379.732	10.78
379.942	-0.53
380.152	-10.72
380.362	-3.86
380.572	12.64
380.783	11.17
380.993	16.68
381.203	21.75
381.413	28.11
381.623	20.46
381.833	26.2
382.043	23.93
382.253	23.61
382.463	29.78
382.674	33.47
382.884	28.38
383.094	31.67
383.304	36.33
383.514	33.24
383.724	32.39
383.934	24.72
384.144	21.98
384.353	18.94
384.563	12.11
384.773	8.39
384.983	9.01
385.193	6.92
385.403	5.59
385.613	4.74
385.823	6.7
386.033	5.11
386.242	-0.5
386.452	2.3
386.662	0.2
386.872	0.82
387.082	4.56
387.291	7.2
387.501	2.92
387.711	9.27
387.921	9.61
388.13	10.09
388.34	13.43
388.55	15.03
388.759	11.49
388.969	12.69
389.179	11.4
389.388	9.56
389.598	6.15
389.807	1.53
390.017	-2.64
390.227	-2.22
390.436	-0.99
390.646	0.41
390.855	3.99
391.065	4.78
391.274	4.18
391.484	4.08
391.693	2.7
391.903	0.55
392.112	0.78
392.322	-0.74
392.531	-2.18
392.74	-2.24
392.95	0.02
393.159	0.44
393.369	2.59
393.578	3.13
393.787	3.73
393.997	3.69
394.206	2.19
394.415	0.82
394.625	0.54
394.834	-0.76
395.043	0.01
395.252	2.43
395.462	3.27
395.671	3.38
395.88	4.8
396.089	3.82
396.298	2.92
396.508	2.54
396.717	2.87
396.926	2.87
397.135	3.63
397.344	2.99
397.553	2.8
397.762	3.59
397.971	3.03
398.181	2.62
398.39	2.72
398.599	3.34
398.808	2.93
399.017	3.89
399.226	4.02
399.435	4.33
399.644	4.48
399.853	4.41
400.062	3.77
400.27	3.51
400.479	3.39
400.688	2.98
400.897	2.56
401.106	2.65
401.315	2.42
401.524	2.73
401.733	2.45
401.941	3
402.15	2.91
402.359	3.01
402.568	3.11
402.777	3.48
402.985	3.15
403.194	3.02
403.403	3.23
403.612	2.83
403.82	2.19
404.029	2.34
404.238	2.55
404.446	2.58
404.655	2.71
404.864	3.01
405.072	3.08
405.281	3.07
405.489	2.92
405.698	2.91
405.906	3.08
406.115	2.88
406.324	2.87
406.532	2.96
406.741	3.06
406.949	3.03
407.158	3.08
407.366	2.94
407.574	2.92
407.783	2.91
407.991	2.92
408.2	3.01
408.408	3.1
408.617	3.12
408.825	2.91
409.033	2.82
409.242	2.87
409.45	2.87
409.658	2.8
409.867	2.77
410.075	2.79
410.283	2.48
410.491	2.22
410.7	2.16
410.908	2.33
411.116	2.36
411.324	2.61
411.533	2.64
411.741	2.66
411.949	2.59
412.157	2.47
412.365	2.41
412.573	2.62
412.781	2.63
412.99	2.68
413.198	2.9
413.406	2.98
413.614	3.02
413.822	3.09
414.03	2.99
414.238	2.82
414.446	2.74
414.654	2.58
414.862	2.54
415.07	2.57
415.278	2.81
415.486	2.64
415.694	2.71
415.902	2.77
416.109	2.71
416.317	2.48
416.525	2.62
416.733	2.59
416.941	2.55
417.149	2.48
417.357	2.52
417.564	2.34
417.772	2.45
417.98	2.34
418.188	2.39
418.395	2.25
418.603	2.17
418.811	2.03
419.019	2.09
419.226	2.09
419.434	2.12
419.642	2.25
419.849	2.26
420.057	2.33
420.265	2.42
420.472	2.45
420.68	2.48
420.887	2.41
421.095	2.41
421.302	2.54
421.51	2.59
421.717	2.64
421.925	2.86
422.132	2.86
422.34	2.61
422.547	2.61
422.755	2.57
422.962	2.53
423.17	2.28
423.377	2.37
423.585	2.47
423.792	2.41
423.999	2.27
424.207	2.36
424.414	2.34
424.621	2.25
424.829	2.34
425.036	2.37
425.243	2.41
425.451	2.55
425.658	2.46
425.865	2.57
426.072	2.49
426.28	2.56
426.487	2.41
426.694	2.41
426.901	2.29
427.108	2.22
427.315	2.14
427.523	2.14
427.73	2.2
427.937	2.16
428.144	2.25
428.351	2.29
428.558	2.36
428.765	2.38
428.972	2.48
429.179	2.43
429.386	2.48
429.593	2.36
429.8	2.32
430.007	2.38
430.214	2.4
430.421	2.39
430.628	2.44
430.835	2.42
431.042	2.23
431.249	2.3
431.456	2.19
431.662	2.31
431.869	2.46
432.076	2.62
432.283	2.72
432.49	2.84
432.697	2.79
432.903	2.72
433.11	2.76
433.317	2.78
433.524	2.82
433.73	2.77
433.937	2.85
434.144	2.67
434.35	2.53
434.557	2.5
434.764	2.54
434.97	2.29
435.177	2.46
435.384	2.57
435.59	2.62
435.797	2.75
436.003	2.96
436.21	2.88
436.416	2.9
436.623	2.84
436.829	2.7
437.036	2.76
437.242	2.86
437.449	2.84
437.655	2.99
437.862	3.15
438.068	3.06
438.275	3.12
438.481	3.11
438.687	3
438.894	2.92
439.1	2.89
439.307	2.96
439.513	3
439.719	3.01
439.926	3.01
440.132	3.12
440.338	3
440.544	3.05
440.751	3.03
440.957	3.12
441.163	3.05
441.369	3.09
441.575	2.96
441.782	3.01
441.988	3.01
442.194	2.99
442.4	2.84
442.606	3.01
442.812	2.96
443.018	2.85
443.224	2.98
443.431	3.06
443.637	2.97
443.843	3.02
444.049	3.19
444.255	3.15
444.461	3.08
444.667	3.14
444.873	3.12
445.079	3.1
445.284	3.03
445.49	3.09
445.696	3.06
445.902	3.08
446.108	3.1
446.314	3.11
446.52	3.25
446.726	3.28
446.931	3.25
447.137	3.16
447.343	3.23
447.549	3.14
447.755	3.11
447.96	3.17
448.166	3.22
448.372	3.28
448.578	3.28
448.783	3.34
448.989	3.43
449.195	3.42
449.4	3.43
449.606	3.45
449.812	3.39
450.017	3.36
450.223	3.27
450.428	3.18
450.634	3.21
450.84	3.21
451.045	3.19
451.251	3.27
451.456	3.44
451.662	3.45
451.867	3.55
452.073	3.58
452.278	3.53
452.483	3.38
452.689	3.41
452.894	3.39
453.1	3.25
453.305	3.3
453.51	3.35
453.716	3.24
453.921	3.28
454.127	3.38
454.332	3.4
454.537	3.43
454.742	3.46
454.948	3.42
455.153	3.4
455.358	3.43
455.563	3.45
455.769	3.43
455.974	3.45
456.179	3.36
456.384	3.29
456.589	3.21
456.795	3.29
457	3.22
457.205	3.28
457.41	3.29
457.615	3.24
457.82	3.29
458.025	3.29
458.23	3.27
458.435	3.25
458.64	3.33
458.845	3.27
459.05	3.29
459.255	3.26
459.46	3.33
459.665	3.34
459.87	3.28
460.075	3.44
460.28	3.61
460.485	3.71
460.69	3.73
460.895	3.84
461.099	3.66
461.304	3.5
461.509	3.4
461.714	3.42
461.919	3.33
462.123	3.44
462.328	3.4
462.533	3.35
462.738	3.3
462.942	3.32
463.147	3.25
463.352	3.35
463.556	3.47
463.761	3.46
463.966	3.49
464.17	3.58
464.375	3.61
464.58	3.6
464.784	3.66
464.989	3.69
465.193	3.66
465.398	3.75
465.602	3.76
465.807	3.82
466.011	3.84
466.216	3.8
466.42	3.73
466.625	3.84
466.829	3.85
467.034	3.94
467.238	4.03
467.443	4.04
467.647	3.96
467.851	3.87
468.056	3.78
468.26	3.77
468.464	3.84
468.669	3.86
468.873	3.95
469.077	3.94
469.282	3.94
469.486	3.91
469.69	3.91
469.894	3.96
470.099	3.98
470.303	4.06
470.507	4.14
470.711	4.14
470.915	4.19
471.119	4.29
471.324	4.26
471.528	4.17
471.732	4.21
471.936	4.14
472.14	4.06
472.344	4.16
472.548	4.22
472.752	4.15
472.956	4.22
473.16	4.29
473.364	4.23
473.568	4.23
473.772	4.29
473.976	4.28
474.18	4.26
474.384	4.27
474.588	4.28
474.792	4.26
474.995	4.27
475.199	4.24
475.403	4.28
475.607	4.31
475.811	4.36
476.015	4.28
476.218	4.29
476.422	4.29
476.626	4.39
476.83	4.49
477.033	4.59
477.237	4.68
477.441	4.63
477.644	4.53
477.848	4.51
478.052	4.53
478.255	4.51
478.459	4.48
478.663	4.58
478.866	4.52
479.07	4.45
479.273	4.48
479.477	4.58
479.681	4.56
479.884	4.63
480.088	4.67
480.291	4.64
480.495	4.63
480.698	4.61
480.901	4.61
481.105	4.64
481.308	4.71
481.512	4.72
481.715	4.78
481.919	4.82
482.122	4.83
482.325	4.88
482.529	4.83
482.732	4.79
482.935	4.74
483.138	4.74
483.342	4.7
483.545	4.85
483.748	4.98
483.952	5.01
484.155	5.06
484.358	5.08
484.561	4.99
484.764	4.9
484.967	4.9
485.171	4.94
485.374	4.92
485.577	4.95
485.78	4.97
485.983	4.94
486.186	4.87
486.389	4.91
486.592	4.88
486.795	4.94
486.998	4.95
487.201	4.96
487.404	5.07
487.607	5.15
487.81	5.09
488.013	5.12
488.216	5.08
488.419	4.98
488.622	4.94
488.825	4.99
489.028	5.05
489.231	5.09
489.433	5.05
489.636	5.09
489.839	5.12
490.042	5.09
490.245	5.12
490.447	5.12
490.65	5.1
490.853	5.06
491.056	5.09
491.258	5.12
491.461	5.12
491.664	5.18
491.866	5.13
492.069	5.11
492.272	5.03
492.474	5.09
492.677	5.06
492.879	5.09
493.082	5.12
493.285	5.29
493.487	5.27
493.69	5.26
493.892	5.27
494.095	5.23
494.297	5.17
494.5	5.17
494.702	5.2
494.905	5.2
495.107	5.24
495.309	5.25
495.512	5.23
495.714	5.28
495.917	5.37
496.119	5.37
496.321	5.33
496.524	5.38
496.726	5.37
496.928	5.32
497.13	5.32
497.333	5.35
497.535	5.39
497.737	5.39
497.939	5.37
498.142	5.39
498.344	5.4
498.546	5.38
498.748	5.46
498.95	5.51
499.152	5.5
499.355	5.49
499.557	5.55
499.759	5.54
499.961	5.51
500.163	5.55
500.365	5.6
500.567	5.53
500.769	5.49
500.971	5.55
501.173	5.56
501.375	5.64
501.577	5.69
501.779	5.71
501.981	5.69
502.183	5.67
502.385	5.63
502.587	5.62
502.788	5.64
502.99	5.62
503.192	5.72
503.394	5.72
503.596	5.74
503.798	5.69
503.999	5.73
504.201	5.69
504.403	5.72
504.605	5.76
504.806	5.82
505.008	5.9
505.21	5.87
505.411	5.84
505.613	5.84
505.815	5.9
506.016	5.88
506.218	5.9
506.42	5.91
506.621	5.93
506.823	5.89
507.024	5.85
507.226	5.91
507.427	5.94
507.629	5.93
507.83	5.93
508.032	5.97
508.233	5.98
508.435	5.99
508.636	6.11
508.838	6.09
509.039	6.07
509.24	6.06
509.442	6.09
509.643	5.95
509.845	6.02
510.046	6.08
510.247	6.11
510.448	6.14
510.65	6.2
510.851	6.2
511.052	6.12
511.254	6.15
511.455	6.08
511.656	5.96
511.857	5.95
512.058	6.03
512.26	5.97
512.461	6
512.662	6.1
512.863	6.06
513.064	6.02
513.265	6.06
513.466	6.12
513.667	6.18
513.868	6.21
514.069	6.2
514.27	6.21
514.471	6.09
514.672	6.11
514.873	6.15
515.074	6.27
515.275	6.25
515.476	6.37
515.677	6.43
515.878	6.43
516.079	6.4
516.28	6.43
516.481	6.38
516.682	6.27
516.882	6.27
517.083	6.23
517.284	6.25
517.485	6.25
517.686	6.34
517.886	6.3
518.087	6.29
518.288	6.3
518.488	6.33
518.689	6.34
518.89	6.35
519.091	6.44
519.291	6.41
519.492	6.41
519.692	6.38
519.893	6.42
520.094	6.35
520.294	6.43
520.495	6.42
520.695	6.45
520.896	6.45
521.096	6.5
521.297	6.41
521.497	6.38
521.698	6.41
521.898	6.41
522.099	6.37
522.299	6.41
522.499	6.47
522.7	6.47
522.9	6.48
523.101	6.51
523.301	6.59
523.501	6.56
523.702	6.56
523.902	6.59
524.102	6.65
524.302	6.64
524.503	6.69
524.703	6.67
524.903	6.62
525.103	6.59
525.304	6.56
525.504	6.57
525.704	6.57
525.904	6.62
526.104	6.64
526.304	6.67
526.504	6.63
526.705	6.63
526.905	6.63
527.105	6.6
527.305	6.57
527.505	6.59
527.705	6.61
527.905	6.65
528.105	6.66
528.305	6.69
528.505	6.74
528.705	6.78
528.905	6.77
529.105	6.78
529.304	6.78
529.504	6.81
529.704	6.76
529.904	6.72
530.104	6.73
530.304	6.78
530.503	6.75
530.703	6.8
530.903	6.83
531.103	6.87
531.303	6.87
531.502	6.91
531.702	6.94
531.902	7
532.101	6.95
532.301	6.97
532.501	7.03
532.7	7.07
532.9	7.14
533.1	7.2
533.299	7.18
533.499	7.08
533.698	7.04
533.898	7.02
534.097	7
534.297	7
534.496	7.02
534.696	7.06
534.895	7.06
535.095	7.08
535.294	7.14
535.494	7.14
535.693	7.17
535.892	7.16
536.092	7.16
536.291	7.14
536.491	7.19
536.69	7.17
536.889	7.11
537.088	7.12
537.288	7.15
537.487	7.18
537.686	7.17
537.886	7.2
538.085	7.23
538.284	7.25
538.483	7.23
538.682	7.26
538.882	7.32
539.081	7.31
539.28	7.32
539.479	7.31
539.678	7.29
539.877	7.3
540.076	7.28
540.275	7.31
540.474	7.36
540.673	7.45
540.872	7.43
541.071	7.54
541.27	7.59
541.469	7.6
541.668	7.64
541.867	7.72
542.066	7.7
542.265	7.68
542.464	7.68
542.663	7.68
542.862	7.75
543.06	7.82
543.259	7.9
543.458	7.96
543.657	7.98
543.856	7.95
544.054	7.91
544.253	7.88
544.452	7.9
544.651	7.97
544.849	7.99
545.048	8.05
545.247	8.11
545.445	8.09
545.644	8.1
545.843	8.13
546.041	8.12
546.24	8.14
546.438	8.21
546.637	8.22
546.836	8.22
547.034	8.31
547.233	8.39
547.431	8.42
547.63	8.42
547.828	8.5
548.027	8.49
548.225	8.47
548.423	8.5
548.622	8.57
548.82	8.6
549.019	8.66
549.217	8.77
549.415	8.81
549.614	8.95
549.812	8.99
550.01	8.99
550.209	8.98
550.407	9.05
550.605	8.95
550.803	9.01
551.002	9.13
551.2	9.1
551.398	9.17
551.596	9.29
551.794	9.31
551.993	9.33
552.191	9.47
552.389	9.48
552.587	9.53
552.785	9.61
552.983	9.75
553.181	9.82
553.379	9.89
553.577	9.91
553.775	10.01
553.973	9.96
554.171	10.04
554.369	10.12
554.567	10.25
554.765	10.22
554.963	10.29
555.161	10.27
555.359	10.27
555.557	10.26
555.755	10.39
555.952	10.53
556.15	10.66
556.348	10.78
556.546	10.88
556.744	10.92
556.941	10.87
557.139	10.94
557.337	11.04
557.535	11.12
557.732	11.15
557.93	11.34
558.128	11.37
558.325	11.4
558.523	11.43
558.721	11.57
558.918	11.68
559.116	11.79
559.313	11.95
559.511	12.06
559.708	12.11
559.906	12.09
560.104	12.1
560.301	12.1
560.498	12.17
560.696	12.26
560.893	12.38
561.091	12.5
561.288	12.69
561.486	12.73
561.683	12.76
561.88	12.82
562.078	12.92
562.275	12.87
562.473	12.98
562.67	13.08
562.867	13.21
563.064	13.28
563.262	13.33
563.459	13.49
563.656	13.61
563.853	13.61
564.051	13.71
564.248	13.83
564.445	13.91
564.642	13.97
564.839	14.1
565.036	14.25
565.234	14.38
565.431	14.36
565.628	14.46
565.825	14.52
566.022	14.53
566.219	14.59
566.416	14.75
566.613	14.81
566.81	14.94
567.007	14.98
567.204	14.99
567.401	15.08
567.598	15.23
567.795	15.26
567.991	15.37
568.188	15.43
568.385	15.46
568.582	15.58
568.779	15.66
568.976	15.77
569.172	15.93
569.369	15.99
569.566	15.98
569.763	16.1
569.96	16.11
570.156	16.17
570.353	16.27
570.55	16.3
570.746	16.26
570.943	16.34
571.14	16.33
571.336	16.34
571.533	16.37
571.729	16.46
571.926	16.53
572.123	16.64
572.319	16.7
572.516	16.81
572.712	16.89
572.909	16.84
573.105	16.9
573.302	16.94
573.498	16.91
573.695	16.91
573.891	16.99
574.087	16.87
574.284	16.88
574.48	16.97
574.677	17.02
574.873	17.12
575.069	17.24
575.266	17.33
575.462	17.29
575.658	17.33
575.854	17.31
576.051	17.32
576.247	17.19
576.443	17.24
576.639	17.18
576.835	17.09
577.032	17.07
577.228	17.25
577.424	17.28
577.62	17.32
577.816	17.43
578.012	17.51
578.208	17.5
578.404	17.48
578.6	17.57
578.796	17.63
578.993	17.6
579.189	17.63
579.384	17.73
579.58	17.62
579.776	17.6
579.972	17.64
580.168	17.63
580.364	17.61
580.56	17.58
580.756	17.5
580.952	17.47
581.148	17.52
581.343	17.49
581.539	17.58
581.735	17.64
581.931	17.67
582.127	17.56
582.322	17.56
582.518	17.6
582.714	17.57
582.909	17.52
583.105	17.54
583.301	17.59
583.496	17.52
583.692	17.48
583.888	17.55
584.083	17.56
584.279	17.54
584.474	17.51
584.67	17.55
584.866	17.56
585.061	17.52
585.257	17.47
585.452	17.49
585.648	17.47
585.843	17.41
586.039	17.46
586.234	17.57
586.429	17.58
586.625	17.71
586.82	17.75
587.015	17.81
587.211	17.71
587.406	17.78
587.601	17.72
587.797	17.74
587.992	17.69
588.187	17.74
588.383	17.76
588.578	17.78
588.773	17.86
588.968	17.92
589.163	17.94
589.359	17.89
589.554	17.89
589.749	17.86
589.944	17.92
590.139	17.92
590.334	18.06
590.529	18.08
590.724	18.12
590.919	18.08
591.114	18.15
591.309	18.11
591.504	18.21
591.699	18.26
591.894	18.27
592.089	18.26
592.284	18.33
592.479	18.29
592.674	18.32
592.869	18.41
593.064	18.49
593.259	18.58
593.454	18.68
593.648	18.74
593.843	18.75
594.038	18.84
594.233	18.84
594.428	18.94
594.622	18.97
594.817	19.07
595.012	19.09
595.206	19.19
595.401	19.22
595.596	19.27
595.79	19.35
595.985	19.42
596.18	19.49
596.374	19.67
596.569	19.85
596.763	19.89
596.958	20.01
597.153	19.98
597.347	19.95
597.542	19.91
597.736	20.01
597.931	20.03
598.125	20.09
598.319	20.11
598.514	20.17
598.708	20.23
598.903	20.33
599.097	20.47
599.291	20.52
599.486	20.62
599.68	20.7
599.874	20.76
600.069	20.84
600.263	20.96
600.457	20.96
600.651	20.96
600.846	21
601.04	21
601.234	20.96
601.428	21.09
601.622	21.14
601.817	21.12
602.011	21.1
602.205	21.16
602.399	21.04
602.593	21.1
602.787	21.09
602.981	21.07
603.175	21.12
603.369	21.25
603.563	21.24
603.757	21.24
603.951	21.34
604.145	21.28
604.339	21.27
604.533	21.27
604.727	21.3
604.921	21.29
605.115	21.32
605.309	21.31
605.502	21.29
605.696	21.24
605.89	21.29
606.084	21.27
606.278	21.29
606.471	21.2
606.665	21.21
606.859	21.07
607.053	20.94
607.246	20.84
607.44	20.76
607.634	20.68
607.827	20.65
608.021	20.69
608.214	20.67
608.408	20.69
608.602	20.67
608.795	20.66
608.989	20.63
609.182	20.63
609.376	20.63
609.569	20.68
609.763	20.62
609.956	20.57
610.15	20.47
610.343	20.45
610.537	20.32
610.73	20.2
610.923	20.14
611.117	20.14
611.31	19.99
611.504	19.96
611.697	19.91
611.89	19.86
612.083	19.72
612.277	19.73
612.47	19.63
612.663	19.62
612.856	19.54
613.05	19.55
613.243	19.5
613.436	19.48
613.629	19.36
613.822	19.37
614.015	19.28
614.209	19.18
614.402	19.08
614.595	19.16
614.788	19.06
614.981	19.01
615.174	18.92
615.367	18.87
615.56	18.73
615.753	18.76
615.946	18.7
616.139	18.73
616.332	18.77
616.525	18.75
616.718	18.66
616.911	18.62
617.103	18.64
617.296	18.58
617.489	18.52
617.682	18.51
617.875	18.49
618.067	18.41
618.26	18.33
618.453	18.3
618.646	18.23
618.838	18.14
619.031	18.11
619.224	18.11
619.417	18.19
619.609	18.12
619.802	18.11
619.994	18.12
620.187	18.06
620.38	17.86
620.572	17.87
620.765	17.86
620.957	17.75
621.15	17.73
621.342	17.75
621.535	17.7
621.727	17.66
621.92	17.7
622.112	17.68
622.305	17.71
622.497	17.64
622.69	17.62
622.882	17.55
623.074	17.64
623.267	17.65
623.459	17.7
623.651	17.74
623.844	17.71
624.036	17.65
624.228	17.64
624.42	17.58
624.613	17.53
624.805	17.47
624.997	17.37
625.189	17.27
625.381	17.24
625.574	17.26
625.766	17.24
625.958	17.29
626.15	17.36
626.342	17.39
626.534	17.29
626.726	17.31
626.918	17.29
627.11	17.16
627.302	17.14
627.494	17.08
627.686	17.07
627.878	16.95
628.07	17.01
628.262	17.06
628.454	17.09
628.646	17.07
628.838	17.21
629.029	17.07
629.221	16.93
629.413	16.88
629.605	16.77
629.797	16.64
629.989	16.65
630.18	16.76
630.372	16.71
630.564	16.77
630.755	16.75
630.947	16.74
631.139	16.62
631.33	16.62
631.522	16.63
631.714	16.62
631.905	16.59
632.097	16.44
632.289	16.35
632.48	16.24
632.672	16.23
632.863	16.18
633.055	16.34
633.246	16.46
633.438	16.52
633.629	16.5
633.821	16.57
634.012	16.44
634.203	16.28
634.395	16.23
634.586	16.17
634.777	16.04
634.969	16.06
635.16	16.08
635.351	16.03
635.543	15.95
635.734	15.93
635.925	15.98
636.117	16.01
636.308	16.03
636.499	16.06
636.69	16.08
636.881	16
637.073	16
637.264	16.02
637.455	16
637.646	16.01
637.837	16.01
638.028	15.98
638.219	15.98
638.41	15.99
638.601	16.02
638.792	15.98
638.983	15.99
639.174	15.92
639.365	15.86
639.556	15.73
639.747	15.71
639.938	15.71
640.129	15.68
640.32	15.68
640.511	15.69
640.701	15.7
640.892	15.61
641.083	15.54
641.274	15.57
641.465	15.52
641.655	15.44
641.846	15.42
642.037	15.39
642.228	15.31
642.418	15.3
642.609	15.33
642.8	15.26
642.99	15.27
643.181	15.38
643.372	15.42
643.562	15.38
643.753	15.39
643.943	15.33
644.134	15.11
644.324	15.07
644.515	15.11
644.705	15.13
644.896	15.21
645.086	15.2
645.277	15.18
645.467	15.16
645.658	15
645.848	14.94
646.038	15.01
646.229	15.07
646.419	14.96
646.61	15.1
646.8	15.08
646.99	15.09
647.18	14.97
647.371	14.95
647.561	14.91
647.751	14.85
647.941	14.81
648.132	14.8
648.322	14.8
648.512	14.84
648.702	14.84
648.892	14.85
649.082	14.9
649.272	14.84
649.462	14.76
649.653	14.79
649.843	14.69
650.033	14.68
650.223	14.63
650.413	14.57
650.603	14.56
650.793	14.57
650.983	14.52
651.172	14.53
651.362	14.46
651.552	14.37
651.742	14.28
651.932	14.26
652.122	14.24
652.312	14.26
652.502	14.27
652.691	14.31
652.881	14.26
653.071	14.21
653.261	14.18
653.45	14.06
653.64	13.97
653.83	13.89
654.019	13.76
654.209	13.68
654.399	13.6
654.588	13.44
654.778	13.31
654.968	13.33
655.157	13.17
655.347	13.03
655.536	13
655.726	12.86
655.915	12.68
656.105	12.64
656.294	12.55
656.484	12.43
656.673	12.34
656.863	12.33
657.052	12.18
657.241	12.13
657.431	11.96
657.62	11.9
657.809	11.65
657.999	11.61
658.188	11.46
658.377	11.36
658.567	11.22
658.756	11.21
658.945	11.08
659.134	10.93
659.324	10.78
659.513	10.62
659.702	10.44
659.891	10.27
660.08	10.1
660.269	10.04
660.458	9.98
660.648	9.78
660.837	9.68
661.026	9.64
661.215	9.51
661.404	9.32
661.593	9.33
661.782	9.18
661.971	9.04
662.16	8.88
662.349	8.78
662.538	8.62
662.726	8.54
662.915	8.49
663.104	8.36
663.293	8.31
663.482	8.15
663.671	8.07
663.86	7.94
664.048	8.04
664.237	7.98
664.426	8
664.615	7.98
664.803	7.87
664.992	7.69
665.181	7.64
665.369	7.48
665.558	7.35
665.747	7.34
665.935	7.42
666.124	7.45
666.312	7.49
666.501	7.49
666.69	7.53
666.878	7.45
667.067	7.22
667.255	7.2
667.444	7.19
667.632	7.15
667.82	7.12
668.009	7.19
668.197	7.2
668.386	7.13
668.574	7.08
668.762	7.08
668.951	7.04
669.139	6.9
669.327	6.92
669.516	6.9
669.704	6.85
669.892	6.84
670.08	6.88
670.269	6.85
670.457	6.78
670.645	6.75
670.833	6.92
671.021	7.05
671.21	7.12
671.398	7.2
671.586	7.22
671.774	7.15
671.962	7.16
672.15	7.23
672.338	7.29
672.526	7.42
672.714	7.44
672.902	7.46
673.09	7.52
673.278	7.68
673.466	7.75
673.654	7.85
673.842	8.02
674.03	7.99
674.218	7.88
674.405	7.91
674.593	7.97
674.781	7.85
674.969	8.03
675.157	8.19
675.344	8.26
675.532	8.28
675.72	8.38
675.908	8.25
676.095	8.24
676.283	8.4
676.471	8.38
676.658	8.51
676.846	8.71
677.033	8.69
677.221	8.63
677.409	8.79
677.596	8.76
677.784	8.89
677.971	9
678.159	9.09
678.346	9.15
678.534	9.34
678.721	9.38
678.909	9.68
679.096	9.81
679.283	9.96
679.471	10.03
679.658	10.19
679.846	9.95
680.033	10.12
680.22	10.25
680.408	10.13
680.595	10.13
680.782	10.53
680.969	10.59
681.157	10.57
681.344	10.79
681.531	11.06
681.718	11.08
681.905	11.11
682.093	11.32
682.28	11.54
682.467	11.71
682.654	11.82
682.841	11.99
683.028	12.11
683.215	12.28
683.402	12.33
683.589	12.56
683.776	12.71
683.963	13
684.15	13.2
684.337	13.41
684.524	13.69
684.711	13.94
684.898	14.03
685.085	14.26
685.271	14.57
685.458	14.72
685.645	15.01
685.832	15.46
686.019	15.6
686.205	15.86
686.392	16.22
686.579	16.58
686.766	16.75
686.952	17.14
687.139	17.37
687.326	17.7
687.512	17.91
687.699	18.41
687.886	18.77
688.072	19.08
688.259	19.47
688.445	19.94
688.632	20.23
688.818	20.72
689.005	21.12
689.191	21.5
689.378	22.03
689.564	22.6
689.751	23.09
689.937	23.76
690.124	24.27
690.31	24.46
690.496	24.9
690.683	25.5
690.869	25.89
691.055	26.56
691.242	27.39
691.428	27.95
691.614	28.57
691.8	29.34
691.987	29.95
692.173	30.54
692.359	31.34
692.545	31.97
692.731	32.54
692.918	32.85
693.104	33.38
693.29	33.86
693.476	34.37
693.662	34.99
693.848	35.93
694.034	36.74
694.22	37.41
694.406	37.99
694.592	38.52
694.778	39.02
694.964	39.55
695.15	40.08
695.336	40.65
695.522	41.41
695.708	42.21
695.894	42.71
696.08	43.36
696.265	44.07
696.451	44.55
696.637	45.14
696.823	45.9
697.009	46.42
697.194	47.03
697.38	47.68
697.566	47.94
697.751	48.35
697.937	49.03
698.123	49.32
698.308	49.8
698.494	50.68
698.68	51.28
698.865	51.52
699.051	52.17
699.236	52.53
699.422	52.81
699.607	53.18
699.793	54.2
699.978	54.59
700.164	55.03
700.349	55.58
700.535	55.86
700.72	56.17
700.906	56.49
701.091	57.06
701.276	57.44
701.462	58.1
701.647	58.25
701.832	59.01
702.018	59.42
702.203	59.94
702.388	60.3
702.573	60.75
702.759	61.16
702.944	61.58
703.129	61.68
703.314	62.05
703.499	62.36
703.684	62.59
703.87	63.01
704.055	63.58
704.24	63.82
704.425	64
704.61	64.16
704.795	64.27
704.98	64.25
705.165	64.39
705.35	64.92
705.535	65.39
705.72	65.68
705.905	66.18
706.09	66.73
706.275	66.56
706.459	66.58
706.644	66.62
706.829	66.82
707.014	66.86
707.199	67.19
707.384	67.24
707.568	67.5
707.753	67.83
707.938	68.06
708.123	68.52
708.307	68.92
708.492	69.48
708.677	69.86
708.861	70.14
709.046	69.87
709.231	70.02
709.415	69.7
709.6	69.46
709.784	69.64
709.969	70.33
710.153	70.35
710.338	71.13
710.522	71.19
710.707	70.99
710.891	71.03
711.076	71.41
711.26	71.2
711.445	71.53
711.629	71.94
711.813	72.02
711.998	72.15
712.182	71.87
712.366	72.16
712.551	72.3
712.735	72.5
712.919	72.86
713.103	73.43
713.288	73.63
713.472	73.69
713.656	73.42
713.84	73.19
714.024	72.91
714.208	72.39
714.393	72.46
714.577	72.45
714.761	72.45
714.945	73.05
715.129	73.18
715.313	73.52
715.497	73.76
715.681	73.96
715.865	73.64
716.049	74.02
716.233	73.84
716.417	74.04
716.601	74.53
716.785	75.04
716.968	74.78
717.152	74.92
717.336	75.38
717.52	75.3
717.704	75.39
717.888	75.77
718.071	75.82
718.255	75.6
718.439	75.71
718.622	75.63
718.806	75.43
718.99	75.49
719.174	75.98
719.357	75.72
719.541	76.31
719.724	76.77
719.908	77.05
720.092	76.21
720.275	76.27
720.459	75.64
720.642	75.9
720.826	75.59
721.009	76.13
721.193	76.07
721.376	76.36
721.559	76.22
721.743	76.98
721.926	77.16
722.11	77.78
722.293	77.97
722.476	77.57
722.66	77.84
722.843	77.98
723.026	77.62
723.21	77.41
723.393	78.18
723.576	77.78
723.759	77.79
723.942	78.26
724.126	78.46
724.309	78.13
724.492	77.98
724.675	78.37
724.858	78.63
725.041	78.82
725.224	79.63
725.407	79.68
725.59	79.6
725.774	79.23
725.957	79.23
726.14	78.6
726.322	79.22
726.505	79.59
726.688	80.02
726.871	80.12
727.054	80.47
727.237	80.19
727.42	79.67
727.603	79.33
727.786	79.34
727.968	79.04
728.151	79.14
728.334	79.66
728.517	79.83
728.699	80.21
728.882	80.21
729.065	80.17
729.248	79.74
729.43	80.41
729.613	80.47
729.796	81.08
729.978	81.37
730.161	81.5
730.343	80.76
730.526	80.48
730.708	80.45
730.891	80.57
731.073	80.84
731.256	81.45
731.438	81.94
731.621	82.47
731.803	82.91
731.986	83.26
732.168	83.34
732.35	83.45
732.533	83.23
732.715	83.08
732.898	83.31
733.08	83
733.262	82.36
733.444	82.68
733.627	82.37
733.809	82.51
733.991	82.61
734.173	83.03
734.355	82.76
734.538	82.96
734.72	82.75
734.902	83.02
735.084	83.44
735.266	83.8
735.448	84.15
735.63	84.53
735.812	84.75
735.994	85.37
736.176	84.68
736.358	84.98
736.54	85.63
736.722	85.1
736.904	84.54
737.086	84.41
737.268	84.76
737.45	84.07
737.632	84.82
737.814	85.36
737.995	86.04
738.177	85.46
738.359	85.59
738.541	85.26
738.723	84.77
738.904	85.09
739.086	85.13
739.268	84.72
739.449	84.86
739.631	85.12
739.813	84.38
739.994	83.9
740.176	84.04
740.358	84.9
740.539	84.88
740.721	85.46
740.902	86.54
741.084	86.87
741.265	86.3
741.447	86.46
741.628	87.15
741.81	86.94
741.991	87.43
742.172	86.75
742.354	87.27
742.535	86.27
742.717	85.8
742.898	85.13
743.079	86.86
743.261	86.2
743.442	86.39
743.623	86.72
743.804	86.73
743.986	85.51
744.167	85.42
744.348	85.43
744.529	85.01
744.71	84
744.891	84
745.073	84.32
745.254	84.53
745.435	84.08
745.616	84.7
745.797	84.74
745.978	84.28
746.159	84.08
746.34	85.17
746.521	85.1
746.702	85.56
746.883	86.18
747.064	85.58
747.245	86.19
747.426	86.01
747.606	86.12
747.787	86.05
747.968	86.74
748.149	85.1
748.33	84.82
748.51	83.39
748.691	83.54
748.872	84.8
749.053	84.35
749.233	85.51
749.414	87.47
749.595	87.28
749.775	85.64
749.956	86.28
750.137	85.3
750.317	83.39
750.498	83.5
750.678	83.79
750.859	85.48
751.04	86.8
751.22	86.98
751.4	86.71
751.581	87.69
751.761	87.47
751.942	87.48
752.122	87.85
752.303	88.11
752.483	87.4
752.663	87.08
752.844	86.84
753.024	88.24
753.204	88.24
753.385	87.17
753.565	86.96
753.745	86.01
753.925	84.15
754.106	83.82
754.286	84.46
754.466	84.1
754.646	84.81
754.826	84.62
755.006	84.87
755.187	85.83
755.367	85.17
755.547	84.79
755.727	84.9
755.907	84.55
756.087	84.18
756.267	83.51
756.447	84.72
756.627	85.39
756.807	86.48
756.987	86.41
757.167	86.66
757.346	84.73
757.526	85
757.706	82.98
757.886	82.94
758.066	84.75
758.246	84.26
758.425	84.09
758.605	84.23
758.785	82.9
758.965	81.53
759.144	82.31
759.324	82.14
759.504	84.71
759.683	86.15
759.863	87.2
760.043	86.84
760.222	87.15
760.402	84.18
760.581	82.77
760.761	81.9
760.94	82.45
761.12	81.94
761.299	83.43
761.479	84.03
761.658	83.77
761.838	84.05
762.017	84.43
762.197	83.39
762.376	83.54
762.555	84.59
762.735	83.91
762.914	82.92
763.093	82.29
763.273	81.4
763.452	79.16
763.631	79.86
763.81	80.08
763.99	79.65
764.169	80.84
764.348	81.54
764.527	79.59
764.706	79.44
764.885	81.14
765.064	81.9
765.243	82.03
765.423	82.88
765.602	83.12
765.781	80.99
765.96	79.59
766.139	79.02
766.318	80.49
766.497	79.81
766.676	80.73
766.854	80.7
767.033	81.67
767.212	81.86
767.391	83.64
767.57	85.27
767.749	85.43
767.928	86.32
768.106	85.24
768.285	83.83
768.464	83.74
768.643	83.27
768.821	81.91
769	80.87
769.179	80.81
769.357	80.27
769.536	78.76
769.715	78.45
769.893	80.49
770.072	79.43
770.25	77.81
770.429	77.79
770.607	79.11
770.786	77.82
770.964	79.9
771.143	81.4
771.321	81.24
771.5	80.01
771.678	79.07
771.857	77.13
772.035	76.72
772.213	79.09
772.392	77.28
772.57	77.59
772.748	76.85
772.927	77.35
773.105	77.96
773.283	80.37
773.461	82.36
773.64	84.73
773.818	84.12
773.996	82.55
774.174	81.26
774.352	79.28
774.531	78.2
774.709	78.1
774.887	78.01
775.065	78.16
775.243	78.78
775.421	77.79
775.599	76.99
775.777	76.35
775.955	76.01
776.133	76.64
776.311	76.63
776.489	78.13
776.667	79.47
776.844	81.57
777.022	80.99
777.2	81.58
777.378	79.89
777.556	80.47
777.734	81.85
777.911	80.77
778.089	82.76
778.267	82.92
778.445	83.59
778.622	79.73
778.8	78.5
778.978	77.32
779.155	78.16
779.333	77.63
779.511	79
779.688	81.34
779.866	81.16
780.043	82.02
780.221	79.8
780.398	78.89
780.576	77.29
780.753	77.62
780.931	76.76
781.108	81.05
781.286	81.24
781.463	81.53
781.64	81.04
781.818	83
781.995	78.27
782.172	78.16
782.35	79.92
782.527	77.56
782.704	76.07
782.882	77.51
783.059	78.88
783.236	79.85
783.413	81.85
783.59	81.54
783.768	79.76
783.945	78.69
784.122	78.27
784.299	79.33
784.476	77.66
784.653	76.52
784.83	75.09
785.007	73.31
785.184	71.02
785.361	73.17
785.538	75.26
785.715	77.53
785.892	74.75
786.069	75.67
786.246	75.22
786.423	77.19
786.6	77.21
786.776	81.49
786.953	81.42
787.13	79.9
787.307	77.22
787.484	74.6
787.66	73.66
787.837	74.67
788.014	75.18
788.191	76.11
788.367	78.29
788.544	77.94
788.721	75.62
788.897	77.29
789.074	77.1
789.25	75.46
789.427	73.57
789.603	73.6
789.78	70.24
789.956	70.46
790.133	66.9
790.309	69.16
790.486	70.07
790.662	72.21
790.839	73.15
791.015	77.01
791.192	75.71
791.368	77.56
791.544	79.77
791.721	78.5
791.897	78.72
792.073	74.88
792.249	72.82
792.426	71.51
792.602	74.62
792.778	72.5
792.954	78.23
793.13	75.62
793.307	76.23
793.483	69.16
793.659	71.48
793.835	73.31
794.011	80.6
794.187	80.79
794.363	86.87
794.539	88.17
794.715	83.6
794.891	79.65
795.067	74.06
795.243	71.27
795.419	69.12
795.595	70.48
795.771	69.96
795.947	71.31
796.122	66.78
796.298	65.9
796.474	72.35
796.65	75.97
796.826	79.32
797.001	85.27
797.177	79.2
797.353	72.47
797.529	67.02
797.704	62.91
797.88	60.28
798.056	69.55
798.231	71.47
798.407	73
798.582	75.5
798.758	75.46
798.934	74
799.109	69.3
799.285	71.47
799.46	67.64
799.636	66.37
799.811	70.42
799.986	71.61
800.162	66.5
800.337	74.6
800.513	73.45
800.688	68.94
800.863	77.05
801.039	85.91
801.214	77.9
801.389	80.41
801.565	82.35
801.74	73.38
801.915	67.82
802.09	68.49
802.265	70.35
802.441	66.3
802.616	68.2
802.791	73.29
802.966	76.96
803.141	75.06
803.316	79.67
803.491	80.49
803.666	81.89
803.841	77.65
804.016	74.81
804.191	71.93
804.366	72.31
804.541	71.26
804.716	70.94
804.891	71.49
805.066	72.28
805.241	64.2
805.416	67.49
805.591	73.92
805.765	91.4
805.94	92.56
806.115	95.97
806.29	85.75
806.464	82.51
806.639	66.21
806.814	62.81
806.989	65.02
807.163	72.03
807.338	64.62
807.512	75.13
807.687	77.95
807.862	77.36
808.036	74.23
808.211	83.7
808.385	79.07
808.56	77.1
808.734	73.42
808.909	72.61
809.083	73.26
809.258	76.39
809.432	75.1
809.606	85.69
809.781	85.26
809.955	86.12
810.13	85.12
810.304	87.47
810.478	81.3
810.652	75.21
810.827	74.73
811.001	72.33
811.175	70.47
811.349	71.49
811.524	78.86
811.698	73.43
811.872	80.62
812.046	83.41
812.22	82.21
812.394	75.52
812.568	78.8
812.742	65.73
812.916	68.91
813.09	66.11
813.264	61.82
813.438	63.11
813.612	66.39
813.786	63.81
813.96	70.65
814.134	73.08
814.308	74.12
814.482	80.45
814.656	77.23
814.83	73.95
815.003	82.46
815.177	76.61
815.351	74.6
815.525	82.76
815.698	74.6
815.872	66.59
816.046	59.22
816.219	57.2
816.393	46.36
816.567	46.32
816.74	47.89
816.914	57.68
817.088	62.16
817.261	70.27
817.435	78.65
817.608	75.53
817.782	69.35
817.955	66.3
818.129	61.42
818.302	64.05
818.475	64.31
818.649	64.08
818.822	55.95
818.996	57.01
819.169	52.83
819.342	51.05
819.516	56.69
819.689	64.18
819.862	59.8
820.035	62.8
820.209	62.55
820.382	58.22
820.555	51.78
820.728	56.71
820.901	53.07
821.075	59.24
821.248	65.09
821.421	82.3
821.594	74.06
821.767	71.89
821.94	67.32
822.113	61.47
822.286	59.87
822.459	58.38
822.632	69.07
822.805	77.98
822.978	85.42
823.151	71.93
823.324	64.36
823.496	62.17
823.669	59.82
823.842	55.56
824.015	54.61
824.188	55.93
824.361	43.45
824.533	34.32
824.706	32.05
824.879	41.79
825.051	64.52
825.224	81.1
825.397	91.61
825.569	84.68
825.742	100.32
825.915	95.15
826.087	80.46
826.26	70.78
826.432	78.75
826.605	68.24
826.777	69.27
826.95	69.1
827.122	62.11
827.295	66.05
827.467	52.02
827.64	46.87
827.812	58.17
827.984	77.8
828.157	66.82
828.329	74.51
828.501	68.14
828.674	66.37
828.846	71.89
829.018	67.66
829.19	66.02
829.363	68.51
829.535	79.65
829.707	78.1
829.879	74.97
830.051	67.87
830.223	69.42
830.395	49.4
830.568	48.01
830.74	53.46
830.912	63.16
831.084	62.5
831.256	70.38
831.428	63.34
831.6	58.86
831.772	40.24
831.943	34.35
832.115	35.16
832.287	45.53
832.459	38.07
832.631	62.42
832.803	69.18
832.975	65.65
833.146	51.85
833.318	67.47
833.49	69.07
833.662	75.98
833.833	75.89
834.005	89.71
834.177	86.1
834.348	66.34
834.52	63.43
834.692	64.01
834.863	64.21
835.035	62.42
835.206	70.41
835.378	62.49
835.549	67.64
835.721	63.59
835.892	54.85
836.064	60.83
836.235	63.99
836.407	60.76
836.578	67.83
836.749	67.83
836.921	49.76
837.092	36.33
837.264	22.64
837.435	3.04
837.606	13.72
837.777	25.57
837.949	47.43
838.12	54.22
838.291	64.03
838.462	71.81
838.633	65.77
838.805	38.71
838.976	34.82
839.147	29.72
839.318	30.61
839.489	32.95
839.66	47.44
839.831	55.75
840.002	53.17
840.173	43.71
840.344	48.05
840.515	41.11
840.686	36.84
840.857	41.24
841.028	52.7
841.199	51.47
841.369	73.96
841.54	89.47
841.711	129.84
841.882	113.18
842.053	91.48
842.223	75.35
842.394	65.84
842.565	34.16
842.736	28.91
842.906	41.6
843.077	45.21
843.248	66.75
843.418	76.7
843.589	87.57
843.759	93
843.93	112.76
844.101	91.27
844.271	117
844.442	127.21
844.612	110.19
844.783	95.62
844.953	89.64
845.123	88.45
845.294	90.52
845.464	89
845.635	86.87
845.805	127.71
845.975	115.07
846.146	89.14
846.316	76.15
846.486	83.13
846.656	75.12
846.827	74.38
846.997	76.45
847.167	82.05
847.337	70.37
847.507	72.18
847.677	70.81
847.848	72.42
848.018	80.62
848.188	81.17
848.358	58.55
848.528	60.85
848.698	37.94
848.868	43.71
849.038	39.31
849.208	56.89
849.378	63.47
849.548	80.54
849.718	51.87
849.887	57.37
850.057	34.02
850.227	57.6
850.397	58.92
850.567	35.38
850.737	57.09
850.906	56.15
851.076	12.22
851.246	28.23
851.415	57.34
851.585	43.8
851.755	64.43
851.924	69.19
852.094	78.07
852.264	80.79
852.433	74.53
852.603	58.35
852.772	77.77
852.942	88.5
853.111	70.97
853.281	82.24
853.45	68.55
853.62	60.24
853.789	16.01
853.959	31.29
854.128	25.72
854.297	30.14
854.467	37.05
854.636	58.98
854.805	77.93
854.975	92.18
855.144	129.71
855.313	149.43
855.482	117.54
855.652	95.79
855.821	61.54
855.99	54.81
856.159	56.71
856.328	67.59
856.497	65
856.667	52.41
856.836	47.75
857.005	62.82
857.174	65.27
857.343	45.83
857.512	77.39
857.681	82.55
857.85	39.39
858.019	29.67
858.188	32.37
858.356	10.36
858.525	30.18
858.694	42.73
858.863	36.57
859.032	39.44
859.201	53.98
859.369	47.72
859.538	73.55
859.707	61.18
859.876	73.39
860.044	74.14
860.213	87.73
860.382	61.79
860.55	64.43
860.719	72.03
860.888	68.88
861.056	47.05
861.225	41.63
861.393	49.93
861.562	45.26
861.73	27.5
861.899	40.58
862.067	59.55
862.236	54.73
862.404	70.82
862.572	105.04
862.741	81.16
862.909	64.52
863.078	85.17
863.246	53.76
863.414	72.97
863.582	84.18
863.751	97.32
863.919	84.15
864.087	97.26
864.255	78.03
864.424	57.73
864.592	57.47
864.76	54.48
864.928	73.6
865.096	59.51
865.264	64.18
865.432	79.78
865.6	106.27
865.768	80.82
865.936	76.45
866.104	95.75
866.272	103.32
866.44	61.94
866.608	66.7
866.776	91.58
866.944	86.86
867.112	49.44
867.28	42.44
867.448	32.79
867.615	14.62
867.783	7.39
867.951	41.68
868.119	43.91
868.286	39.7
868.454	64.02
868.622	45.88
868.789	21.85
868.957	33.07
869.125	53.58
869.292	40.06
869.46	34.03
869.627	33.94
869.795	20.79
869.963	-1.89
870.13	11.13
870.298	28.32
870.465	51.9
870.632	58.66
870.8	48.3
870.967	58.04
871.135	73.45
871.302	69.02
871.469	80.95
871.637	115.27
871.804	101.66
871.971	75.51
872.139	60.26
872.306	37.87
872.473	2.87
872.64	-89.13
872.807	-37.6
872.975	-19.63
873.142	-18.76
873.309	43.9
873.476	67.84
873.643	84.13
873.81	59.31
873.977	91.75
874.144	45.2
874.311	25.77
874.478	-9.92
874.645	-35.71
874.812	43.21
874.979	90.38
875.146	57.54
875.313	49.91
875.48	57.27
875.647	2.39
875.813	-20.41
875.98	-5.88
876.147	-71.09
876.314	-9.98
876.481	27.33
876.647	59.4
876.814	42.88
876.981	50.46
877.147	32.96
877.314	51.01
877.481	46.85
877.647	87.07
877.814	113.7
877.98	138.07
878.147	147.14
878.314	153.81
878.48	165.7
878.647	141.27
878.813	163.4
878.979	123.64
879.146	118.85
879.312	120.14
879.479	79.38
879.645	69.34
879.811	58.2
879.978	54.14
880.144	22.03
880.31	57.91
880.477	55.26
880.643	59.83
880.809	47.66
880.975	114.74
881.142	14.02
881.308	269.99
881.474	331.91
881.64	46.66
881.806	63.1
881.972	84.66
882.138	84.45
882.304	110.31
882.47	85.61
882.636	52.51
882.802	45.87
882.968	53.61
883.134	31.96
883.3	56.1
883.466	106.87
883.632	185.87
883.798	157.39
883.964	229.1
884.129	428.82
884.295	94.57
884.461	-12.74
884.627	32.14
884.793	10.16
884.958	42.05
885.124	45.42
885.29	28.18
885.455	63.48
885.621	94.56
885.787	96.15
885.952	73.32
886.118	86.25
886.283	70.57
886.449	56.73
886.614	66.36
886.78	62.24
886.945	59.33
887.111	22.71
887.276	27.19
887.442	-53.24
887.607	21.24
887.773	31.06
887.938	45.1
888.103	20.27
888.269	47.78
888.434	22.41
888.599	10.84
888.764	28.5
888.93	44.19
889.095	33.22
889.26	23.44
889.425	26.08
889.59	11.99
889.756	26.57
889.921	10.45
890.086	41.05
890.251	64.94
890.416	15.12
890.581	-26.28
890.746	27.82
890.911	16.07
891.076	26.02
891.241	40.83
891.406	35.84
891.571	67.36
891.736	94.3
891.901	93.84
892.065	65.79
892.23	116.63
892.395	80.44
892.56	81.87
892.725	118.33
892.889	206.76
893.054	14.26
893.219	25.23
893.384	40.93
893.548	6.42
893.713	10.94
893.878	98.88
