Data from Ofra_PS_T2_1A_2GT03_Reflection_2.txt Node
Date: Wed Jul 21 17:55:26 EDT 2021
User: Adam
Spectrometer: FLMT01687
Trigger mode: 0
Integration Time (sec): 1.100000E0
Scans to average: 2
Electric dark correction enabled: true
Nonlinearity correction enabled: false
Boxcar width: 2
XAxis mode: Wavelengths
Number of Pixels in Spectrum: 3648
>>>>>Begin Spectral Data<<<<<
179.494	584
179.716	661.65
179.937	643.35
180.158	637.25
180.38	897.5
180.601	107.18
180.823	-20.97
181.044	-188.15
181.265	-166.18
181.486	39.14
181.708	168.82
181.929	1197.96
182.15	-505.63
182.372	46.96
182.593	-51.92
182.814	-30.81
183.035	-5.57
183.257	17.13
183.478	-60.43
183.699	2.77
183.92	-0.73
184.141	-10.35
184.363	-91.31
184.584	-9.85
184.805	8.73
185.026	40.95
185.247	42.77
185.468	43.89
185.689	35.23
185.91	39.57
186.132	19.94
186.353	3.99
186.574	42.34
186.795	12.76
187.016	-49.62
187.237	-45.33
187.458	-79.65
187.679	-63.79
187.9	-31.56
188.121	-27.43
188.342	-6.76
188.563	53.33
188.784	55.3
189.005	36.6
189.226	86.28
189.447	58.63
189.667	-152.43
189.888	-349.75
190.109	-1389.61
190.33	-773.55
190.551	-1307.96
190.772	-249.64
190.993	-207.4
191.214	-130.79
191.434	-90.85
191.655	-19.39
191.876	-66.43
192.097	-116.26
192.318	-144.26
192.538	-213.49
192.759	-168.86
192.98	-44.82
193.201	-4.16
193.421	8.38
193.642	32.16
193.863	36.76
194.083	1.04
194.304	-10.23
194.525	-10.71
194.745	-21.99
194.966	-53.11
195.187	-56.12
195.407	-85.49
195.628	-149.19
195.848	-153.8
196.069	-109.37
196.29	-66.22
196.51	-55.62
196.731	-47.09
196.951	-79.17
197.172	-88.63
197.392	-134.35
197.613	-128.72
197.833	-158.31
198.054	-122.28
198.274	-82.76
198.495	-70.95
198.715	-57.18
198.936	-68.84
199.156	-61.57
199.377	-169.03
199.597	-160.41
199.817	-146.26
200.038	-72.34
200.258	-122.25
200.479	-39.28
200.699	-66.08
200.919	-16.49
201.14	-35.91
201.36	-69.97
201.58	-3.52
201.801	25.42
202.021	-17.59
202.241	-11.36
202.461	0.84
202.682	-89.35
202.902	-145.08
203.122	-68.62
203.342	-85.57
203.563	-13.2
203.783	11.16
204.003	-13.21
204.223	-6.29
204.443	70.27
204.663	11.52
204.884	8.41
205.104	60.15
205.324	84.11
205.544	59.35
205.764	79.73
205.984	90.43
206.204	61.61
206.424	41.23
206.644	-1.52
206.864	0.09
207.084	-54.6
207.304	-61.94
207.525	-163.75
207.745	-73.55
207.964	-36.59
208.184	-85.03
208.404	-97.37
208.624	-101.97
208.844	-99.04
209.064	-384.1
209.284	-353.37
209.504	-177.11
209.724	-40.2
209.944	-6.16
210.164	32.92
210.384	22.54
210.604	21.21
210.823	-31.79
211.043	-83.78
211.263	-80.51
211.483	-57.82
211.703	-116.42
211.922	-79.65
212.142	11.71
212.362	31.16
212.582	21.88
212.801	21.01
213.021	-12.76
213.241	-66.9
213.461	-98.01
213.68	-136.22
213.9	-87.42
214.12	-53.43
214.339	-112.73
214.559	-67.56
214.779	-0.59
214.998	-20.57
215.218	-66.73
215.438	-10.95
215.657	-33.46
215.877	-45.2
216.096	-2.13
216.316	3.53
216.535	-10
216.755	8.72
216.974	-73
217.194	-134.19
217.413	-114.3
217.633	-126.46
217.852	-287.14
218.072	-133.07
218.291	-60.2
218.511	-9.05
218.73	-16.71
218.95	-2.49
219.169	-6.33
219.389	-56.18
219.608	-46.34
219.827	-39.46
220.047	-24.18
220.266	-18.39
220.485	-6.45
220.705	-9.34
220.924	-26.26
221.143	7.99
221.363	-12.47
221.582	-11.85
221.801	3.41
222.021	30.15
222.24	-47.63
222.459	20.31
222.678	32.94
222.897	-39.24
223.117	-111.24
223.336	-30.7
223.555	-12.8
223.774	26.13
223.993	30.33
224.213	97.27
224.432	75.03
224.651	85.66
224.87	37.41
225.089	47.16
225.308	29.67
225.527	33.05
225.746	24.25
225.965	20.87
226.184	-18.56
226.404	6.83
226.623	-23.85
226.842	-21.41
227.061	9.29
227.28	22.29
227.499	3.87
227.718	20.86
227.936	23
228.155	25.23
228.374	17.77
228.593	21.22
228.812	23.4
229.031	6.55
229.25	-55.5
229.469	-49.55
229.688	-34.77
229.907	-1.98
230.125	16.91
230.344	44.57
230.563	54.17
230.782	64.39
231.001	-2
231.22	-36.55
231.438	-6.82
231.657	-1.63
231.876	-34.2
232.095	32.85
232.313	62.3
232.532	37.94
232.751	-13.53
232.969	-22.24
233.188	-133.06
233.407	-58.49
233.625	-19.85
233.844	-21.57
234.063	-22.56
234.281	-6.1
234.5	-27.98
234.719	-22.07
234.937	-4.95
235.156	11.86
235.374	24.02
235.593	15.65
235.811	10.93
236.03	-0.92
236.249	-45.1
236.467	-62.28
236.686	-19.62
236.904	-8.22
237.123	-25.49
237.341	-22.66
237.559	-10.91
237.778	-22.49
237.996	-50.83
238.215	-8.72
238.433	14.51
238.652	18.04
238.87	-9.49
239.088	10.76
239.307	-1.99
239.525	5.16
239.743	-28.15
239.962	-13.36
240.18	-52.27
240.398	-99.42
240.617	-133.53
240.835	-119.55
241.053	-94.85
241.271	-14.97
241.49	19.43
241.708	9.12
241.926	-13.35
242.144	-7.74
242.363	-104.02
242.581	-109.67
242.799	-48.6
243.017	-9.16
243.235	-34.47
243.453	0.25
243.672	-20.16
243.89	-26.18
244.108	-45.65
244.326	-22.7
244.544	-28.61
244.762	-13.95
244.98	-9.12
245.198	-2.21
245.416	-30.96
245.634	-33.91
245.852	-36.64
246.07	-52.33
246.288	-46.73
246.506	-47.13
246.724	-0.85
246.942	-13.31
247.16	23.05
247.378	27.87
247.596	39.26
247.814	15.28
248.032	2.09
248.25	-6.01
248.468	-8.02
248.685	-13.93
248.903	30.04
249.121	25.27
249.339	0.23
249.557	6.05
249.775	9.68
249.992	-66.93
250.21	-66.32
250.428	-47.25
250.646	-82.95
250.863	-94.71
251.081	-57.88
251.299	-33.36
251.517	-15.93
251.734	-5.42
251.952	-15.5
252.17	-12.95
252.387	-3.2
252.605	-18.43
252.823	-12.48
253.04	19.37
253.258	42.46
253.475	32.99
253.693	56.99
253.911	52.49
254.128	44.21
254.346	21.29
254.563	12.18
254.781	-34.75
254.998	-41.27
255.216	-62.79
255.433	-45.45
255.651	-21.44
255.868	17.3
256.086	35.59
256.303	18.71
256.521	8.79
256.738	-4.49
256.956	-31.47
257.173	-58.54
257.39	-63.34
257.608	-86.29
257.825	-38.13
258.043	-7.36
258.26	2.13
258.477	55.36
258.695	59.17
258.912	1
259.129	5.62
259.346	-31.5
259.564	-96.83
259.781	-124.81
259.998	-36.16
260.216	-5.66
260.433	45.61
260.65	54.78
260.867	57.64
261.084	20.47
261.302	3.66
261.519	-26.65
261.736	-48.71
261.953	-59.6
262.17	-18.77
262.387	-50.36
262.604	-90.17
262.822	-95.51
263.039	-65.43
263.256	-117
263.473	-77.07
263.69	-33.36
263.907	8.54
264.124	3.61
264.341	-0.12
264.558	-21.57
264.775	-11.57
264.992	-34.51
265.209	-18.7
265.426	15.49
265.643	35.7
265.86	48.79
266.077	57.87
266.294	41.5
266.51	-10.34
266.727	-33.52
266.944	-40.91
267.161	-46.04
267.378	-40.23
267.595	-17.58
267.812	-38.48
268.028	-64.74
268.245	-56.03
268.462	-70.62
268.679	-71.56
268.896	-16.19
269.112	-22.02
269.329	-29.79
269.546	-17.45
269.763	-12.57
269.979	-34.8
270.196	-26.02
270.413	-53.32
270.629	-80.37
270.846	-99.18
271.063	-95.08
271.279	-86.48
271.496	-74.98
271.712	-23.42
271.929	22.89
272.146	13.13
272.362	-25
272.579	21.55
272.795	24.7
273.012	12.85
273.228	17.96
273.445	18.92
273.661	-32.78
273.878	-86.45
274.094	-79.14
274.311	-101.51
274.527	-23.46
274.744	-2.22
274.96	-8.69
275.177	-8.53
275.393	-6.08
275.609	-21.37
275.826	-3.92
276.042	6.74
276.259	1.05
276.475	36.33
276.691	40.36
276.908	17.87
277.124	25.48
277.34	4.77
277.557	-16.71
277.773	-37.72
277.989	-32.17
278.205	-34.01
278.422	3.33
278.638	3.83
278.854	30.55
279.07	28.54
279.286	20.39
279.503	-17.73
279.719	-29.26
279.935	-52.74
280.151	-85.56
280.367	-43.27
280.583	-51.63
280.799	-33.91
281.016	-61.21
281.232	1.64
281.448	-7.66
281.664	21.2
281.88	-7.22
282.096	9.48
282.312	19.5
282.528	29.17
282.744	19.17
282.96	45.21
283.176	39.44
283.392	25.11
283.608	18.81
283.824	18.87
284.04	10.54
284.256	22.6
284.471	1.55
284.687	-9.09
284.903	15.98
285.119	51.5
285.335	20.28
285.551	46.21
285.767	39.06
285.982	8.78
286.198	-37.66
286.414	22.1
286.63	11.04
286.846	35.77
287.061	16.36
287.277	43.77
287.493	11.89
287.709	19.97
287.924	-7.13
288.14	28.38
288.356	27.24
288.571	52.1
288.787	30.86
289.003	36.91
289.218	10.56
289.434	-24.77
289.65	-23.82
289.865	-19.7
290.081	0.08
290.296	11.02
290.512	2.71
290.727	-34.27
290.943	-35.89
291.159	-54.18
291.374	-53.8
291.59	-62.06
291.805	-50.14
292.021	-21.73
292.236	-18.17
292.451	-0.26
292.667	15.49
292.882	53.43
293.098	29.91
293.313	24.23
293.529	-11.35
293.744	-34.93
293.959	-63.75
294.175	-40.61
294.39	-4.69
294.605	14.52
294.821	37.03
295.036	38.05
295.251	36.14
295.467	-1.13
295.682	-13.86
295.897	-65.82
296.112	-79.94
296.328	-71.71
296.543	-73.79
296.758	-57.34
296.973	-12.25
297.188	24.26
297.404	-10.12
297.619	-19.75
297.834	-46.36
298.049	-74.09
298.264	-99.79
298.479	-19.21
298.694	-1.06
298.909	26.23
299.125	34.97
299.34	48.13
299.555	9.52
299.77	23.68
299.985	-33.83
300.2	-81.41
300.415	-100.39
300.63	-52.71
300.845	-70.64
301.06	-50.16
301.275	-10.18
301.49	-0.28
301.704	-18.43
301.919	-22.25
302.134	-38.06
302.349	-41.1
302.564	-108.99
302.779	-139.24
302.994	-100
303.209	-29.06
303.423	21.17
303.638	67.14
303.853	42.48
304.068	15.63
304.283	13.45
304.497	0.05
304.712	-9.44
304.927	12.57
305.142	13.26
305.356	1.45
305.571	-3.67
305.786	-6.93
306	-44.93
306.215	-36.98
306.43	-45.86
306.644	-13.23
306.859	32.65
307.074	59.39
307.288	18.81
307.503	13.87
307.717	-17.97
307.932	-27.26
308.147	-34.81
308.361	-1.02
308.576	1.54
308.79	-49.76
309.005	-46.06
309.219	-32.55
309.434	-46.76
309.648	-40.22
309.863	2.57
310.077	-4.7
310.292	-10.94
310.506	-2.71
310.72	7.82
310.935	-6.37
311.149	1.8
311.364	11.09
311.578	14.06
311.792	9.97
312.007	16.9
312.221	7.1
312.435	18.75
312.649	5.89
312.864	35.61
313.078	72.59
313.292	126.86
313.507	105.69
313.721	147.49
313.935	60.73
314.149	32.84
314.363	17.46
314.578	4.76
314.792	10.47
315.006	-12.62
315.22	15.82
315.434	29.61
315.648	47.1
315.862	46.16
316.077	51.73
316.291	17.84
316.505	15.11
316.719	19.93
316.933	-12.94
317.147	-29.56
317.361	-56.77
317.575	-83.69
317.789	-150.75
318.003	-234.52
318.217	-146.08
318.431	-64.2
318.645	-8.86
318.859	8.56
319.073	45.46
319.287	27.56
319.5	12
319.714	-47.51
319.928	-80.17
320.142	-129.19
320.356	-92.53
320.57	-75.3
320.784	-80.1
320.997	-87.74
321.211	-51.01
321.425	-107.84
321.639	-130.74
321.853	-44.85
322.066	-15.34
322.28	-14.05
322.494	14.72
322.707	44.08
322.921	22.06
323.135	13.74
323.349	22.76
323.562	-0.56
323.776	-19.92
323.989	-22.23
324.203	-48.48
324.417	-54.33
324.63	-87.05
324.844	-88.19
325.057	-87.44
325.271	-58.5
325.485	-27.62
325.698	13.48
325.912	17.72
326.125	-4.25
326.339	0.35
326.552	-27.93
326.766	-25.93
326.979	-0.71
327.193	41.71
327.406	31.74
327.619	23.64
327.833	33.16
328.046	6.69
328.26	-39.26
328.473	-23.4
328.686	-56.65
328.9	-54.46
329.113	-43.56
329.326	-73.43
329.54	-59.92
329.753	-53
329.966	-105.22
330.179	-72.26
330.393	-29
330.606	-28.33
330.819	-6.87
331.032	21.48
331.246	14.51
331.459	36.06
331.672	26.79
331.885	20.35
332.098	-9.68
332.311	-23.91
332.525	-68.17
332.738	-64.93
332.951	-35.25
333.164	-14.86
333.377	1.64
333.59	17.51
333.803	21.44
334.016	14.51
334.229	17.9
334.442	13.28
334.655	20.81
334.868	37.88
335.081	26.13
335.294	-0.12
335.507	-2.28
335.72	-13.54
335.933	-32.56
336.146	-33.42
336.359	-21.35
336.572	-45.9
336.785	-69.02
336.997	-48.19
337.21	-30.2
337.423	-27.48
337.636	-17.17
337.849	2.23
338.062	-0.31
338.274	14.25
338.487	0.06
338.7	13.15
338.913	-13.81
339.125	-48.45
339.338	-119.44
339.551	-86.15
339.763	-54.1
339.976	-26.81
340.189	6.86
340.402	34.81
340.614	23.56
340.827	10.28
341.039	-11.06
341.252	-8.37
341.465	3.82
341.677	-5.64
341.89	-48.81
342.102	-17.66
342.315	-38.09
342.527	-69.32
342.74	-51.8
342.952	0.93
343.165	-5.86
343.377	16.03
343.59	-1.51
343.802	18.02
344.015	14.15
344.227	34.98
344.44	27.38
344.652	38.93
344.864	15.83
345.077	29.91
345.289	26.41
345.502	24.91
345.714	11.08
345.926	25.96
346.139	13.44
346.351	16.65
346.563	35.88
346.775	49.55
346.988	28.69
347.2	12.22
347.412	-40.63
347.624	-76.26
347.837	-101.13
348.049	-63.39
348.261	-17.98
348.473	0.06
348.685	-11.12
348.897	-14.26
349.11	-36.44
349.322	-54.11
349.534	-25.63
349.746	-17.45
349.958	0.07
350.17	-1.98
350.382	17.02
350.594	1.62
350.806	7.09
351.018	-5.07
351.23	-12.24
351.442	-82.02
351.654	-90.58
351.866	-75.99
352.078	-36.62
352.29	-2.89
352.502	16.88
352.714	35.01
352.926	19.78
353.138	4.39
353.35	-11.03
353.561	-13.96
353.773	-40.37
353.985	-28.66
354.197	-26.36
354.409	-26.96
354.621	-41.9
354.832	-27.68
355.044	-38.02
355.256	-39.01
355.468	-24.39
355.679	-20.19
355.891	-14.14
356.103	-25.16
356.314	-23.71
356.526	-20.97
356.738	-9.69
356.949	-9.77
357.161	32.58
357.373	35.34
357.584	30.9
357.796	26.99
358.008	16.78
358.219	18.84
358.431	5.17
358.642	7.98
358.854	9.91
359.065	-5.96
359.277	-40.51
359.488	-38.66
359.7	-64.67
359.911	-82.85
360.123	-55.96
360.334	-56.19
360.546	-81.97
360.757	-85.52
360.969	-58.6
361.18	-50.5
361.391	-43.12
361.603	-41.98
361.814	-29.5
362.025	-47.14
362.237	-45.97
362.448	-19.78
362.659	-3.26
362.871	1.97
363.082	-0.38
363.293	-3.34
363.504	-31.13
363.716	-46.18
363.927	-63.45
364.138	-74.58
364.349	-101.66
364.56	-82.85
364.772	-69.85
364.983	-41.9
365.194	-32.4
365.405	-6.59
365.616	15.29
365.827	12.84
366.038	-9.5
366.25	-19.63
366.461	-34.45
366.672	-17.19
366.883	2.15
367.094	4.06
367.305	-6.25
367.516	-4.82
367.727	-42.79
367.938	-60.19
368.149	-51.38
368.36	-24.28
368.571	-19.97
368.781	-33.17
368.992	-46.42
369.203	-70.81
369.414	-97.72
369.625	-98.57
369.836	-81.78
370.047	-99.44
370.258	-82.44
370.468	-69.63
370.679	-80.76
370.89	-72.23
371.101	-38.44
371.312	-28.54
371.522	-26.24
371.733	-14.48
371.944	-5.18
372.155	-1.82
372.365	-11.09
372.576	-12.97
372.787	-13.59
372.997	-42.01
373.208	-44.18
373.419	-9.96
373.629	-45.12
373.84	-54.46
374.05	-43.7
374.261	-30.54
374.472	-58.38
374.682	-7.49
374.893	-15.61
375.103	24.32
375.314	17.21
375.524	21.56
375.735	30.75
375.945	50.71
376.156	17.78
376.366	20.66
376.577	17.28
376.787	2.71
376.997	-0.71
377.208	5.81
377.418	-12.92
377.629	2.88
377.839	7.49
378.049	-2.64
378.26	8.75
378.47	23.19
378.68	9.8
378.89	6.27
379.101	2.07
379.311	-32.66
379.521	-70.62
379.732	-77.59
379.942	-73.69
380.152	-81.85
380.362	-40.5
380.572	-30.86
380.783	-7.29
380.993	5.79
381.203	15.74
381.413	25.08
381.623	38.78
381.833	25.3
382.043	7.14
382.253	-2.26
382.463	-14.19
382.674	-25.78
382.884	-44.76
383.094	-36.01
383.304	-21.03
383.514	-6.62
383.724	8.94
383.934	6.01
384.144	-6.11
384.353	-17.72
384.563	-25.54
384.773	-22.33
384.983	-24.66
385.193	0.68
385.403	4.25
385.613	1.16
385.823	-17.81
386.033	-7.73
386.242	-18.15
386.452	-18.03
386.662	-22.09
386.872	-6.4
387.082	-14.2
387.291	-20.86
387.501	-25.91
387.711	-16.13
387.921	-22.25
388.13	-19.17
388.34	-7.89
388.55	-8.76
388.759	-8.95
388.969	-1.55
389.179	-3.5
389.388	-4.69
389.598	2.6
389.807	-3.55
390.017	-11.15
390.227	-7.55
390.436	-8.57
390.646	-9.4
390.855	-5.22
391.065	-3.66
391.274	-3.67
391.484	-6.02
391.693	-3.18
391.903	-1.91
392.112	2.73
392.322	4.88
392.531	9.4
392.74	8.01
392.95	2.88
393.159	2.96
393.369	1.18
393.578	-1.56
393.787	-3.41
393.997	-0.7
394.206	-4.55
394.415	-2.88
394.625	-2.32
394.834	-2.22
395.043	-1.75
395.252	2.06
395.462	1.69
395.671	3.22
395.88	3.85
396.089	5.13
396.298	3.08
396.508	3.79
396.717	3.51
396.926	4.74
397.135	4.64
397.344	4.4
397.553	4.8
397.762	5.85
397.971	5.55
398.181	5.54
398.39	4.99
398.599	4.36
398.808	3.9
399.017	4.4
399.226	5.38
399.435	6.84
399.644	7.11
399.853	6.24
400.062	5.54
400.27	4.42
400.479	3.82
400.688	3.09
400.897	3.49
401.106	3.63
401.315	3.92
401.524	3.87
401.733	4.73
401.941	4.97
402.15	5.02
402.359	4.81
402.568	5.07
402.777	5.04
402.985	4.84
403.194	4.57
403.403	4.79
403.612	4.37
403.82	4.16
404.029	4.31
404.238	4.41
404.446	4.54
404.655	4.37
404.864	4.31
405.072	3.99
405.281	4.27
405.489	3.77
405.698	3.91
405.906	3.9
406.115	3.9
406.324	3.67
406.532	3.87
406.741	4.13
406.949	4.11
407.158	4.14
407.366	4.13
407.574	4.2
407.783	4.21
407.991	4.02
408.2	4.2
408.408	4.16
408.617	3.89
408.825	3.67
409.033	3.76
409.242	3.68
409.45	3.68
409.658	3.68
409.867	3.85
410.075	3.76
410.283	3.62
410.491	3.59
410.7	3.55
410.908	3.47
411.116	3.77
411.324	3.71
411.533	3.72
411.741	4.08
411.949	4.01
412.157	3.67
412.365	3.78
412.573	3.74
412.781	3.59
412.99	3.65
413.198	3.86
413.406	3.76
413.614	3.73
413.822	3.58
414.03	3.42
414.238	3.32
414.446	3.48
414.654	3.32
414.862	3.44
415.07	3.69
415.278	3.88
415.486	3.67
415.694	3.85
415.902	3.69
416.109	3.4
416.317	3.21
416.525	3.2
416.733	3.21
416.941	3.5
417.149	3.51
417.357	3.6
417.564	3.73
417.772	3.95
417.98	3.58
418.188	3.57
418.395	3.58
418.603	3.69
418.811	3.32
419.019	3.43
419.226	3.66
419.434	3.56
419.642	3.25
419.849	3.28
420.057	3.34
420.265	3.16
420.472	3.05
420.68	3.12
420.887	3.18
421.095	3.18
421.302	3.2
421.51	3.39
421.717	3.55
421.925	3.64
422.132	3.45
422.34	3.27
422.547	3.31
422.755	3.13
422.962	2.92
423.17	2.93
423.377	3.09
423.585	2.99
423.792	3.01
423.999	3.11
424.207	3.19
424.414	3.36
424.621	3.34
424.829	3.31
425.036	3.28
425.243	3.41
425.451	3.12
425.658	2.89
425.865	3.08
426.072	2.97
426.28	3.05
426.487	3.04
426.694	3.13
426.901	2.89
427.108	3.05
427.315	2.93
427.523	3.31
427.73	3.43
427.937	3.49
428.144	3.33
428.351	3.28
428.558	3.23
428.765	3.11
428.972	3.1
429.179	3.2
429.386	3.39
429.593	3.13
429.8	2.99
430.007	3.09
430.214	3.16
430.421	2.89
430.628	2.71
430.835	2.77
431.042	2.98
431.249	3.05
431.456	3.09
431.662	3.34
431.869	3.49
432.076	3.35
432.283	3.41
432.49	3.44
432.697	3.43
432.903	3.27
433.11	3.17
433.317	3.27
433.524	3.49
433.73	3.45
433.937	3.8
434.144	3.76
434.35	3.57
434.557	3.31
434.764	3.36
434.97	3.19
435.177	3.4
435.384	3.33
435.59	3.43
435.797	3.54
436.003	3.66
436.21	3.64
436.416	3.85
436.623	3.9
436.829	3.87
437.036	3.9
437.242	3.83
437.449	3.69
437.655	3.74
437.862	3.66
438.068	3.52
438.275	3.6
438.481	3.85
438.687	3.81
438.894	3.88
439.1	3.88
439.307	4.08
439.513	3.95
439.719	3.97
439.926	4.03
440.132	4.02
440.338	3.81
440.544	3.99
440.751	3.82
440.957	3.91
441.163	3.88
441.369	4.03
441.575	3.72
441.782	3.85
441.988	3.69
442.194	3.63
442.4	3.5
442.606	3.79
442.812	3.79
443.018	3.93
443.224	4.06
443.431	4.19
443.637	3.96
443.843	3.85
444.049	3.76
444.255	3.77
444.461	3.79
444.667	3.8
444.873	4.04
445.079	4.04
445.284	4.1
445.49	3.84
445.696	3.77
445.902	3.63
446.108	3.64
446.314	3.57
446.52	3.66
446.726	3.87
446.931	3.88
447.137	3.91
447.343	3.95
447.549	3.94
447.755	3.81
447.96	3.84
448.166	3.78
448.372	3.66
448.578	3.71
448.783	3.69
448.989	3.82
449.195	3.94
449.4	4.02
449.606	3.99
449.812	3.93
450.017	3.88
450.223	3.85
450.428	3.77
450.634	3.86
450.84	4.08
451.045	4.02
451.251	3.88
451.456	4.13
451.662	4.2
451.867	4.24
452.073	4.24
452.278	4.42
452.483	4.44
452.689	4.36
452.894	4.4
453.1	4.44
453.305	4.29
453.51	4.21
453.716	4.17
453.921	4.13
454.127	4.09
454.332	4.11
454.537	4.05
454.742	4.09
454.948	4.13
455.153	4.19
455.358	4.25
455.563	4.41
455.769	4.46
455.974	4.35
456.179	4.22
456.384	4.21
456.589	4.12
456.795	3.91
457	3.81
457.205	4.05
457.41	4.02
457.615	3.98
457.82	4.09
458.025	4.13
458.23	3.94
458.435	4.01
458.64	3.96
458.845	4.11
459.05	4.11
459.255	4.12
459.46	4.1
459.665	4.08
459.87	4.02
460.075	4.02
460.28	4.12
460.485	4.16
460.69	4.22
460.895	4.05
461.099	4.01
461.304	4.16
461.509	4.15
461.714	4.03
461.919	4.2
462.123	4.19
462.328	4.12
462.533	4.03
462.738	4.27
462.942	4.21
463.147	4.38
463.352	4.39
463.556	4.47
463.761	4.49
463.966	4.52
464.17	4.45
464.375	4.3
464.58	4.29
464.784	4.11
464.989	4.14
465.193	4.17
465.398	4.26
465.602	4.3
465.807	4.3
466.011	4.3
466.216	4.35
466.42	4.38
466.625	4.52
466.829	4.71
467.034	4.81
467.238	4.97
467.443	4.92
467.647	4.74
467.851	4.74
468.056	4.7
468.26	4.56
468.464	4.54
468.669	4.68
468.873	4.78
469.077	4.8
469.282	4.83
469.486	4.97
469.69	5
469.894	4.81
470.099	4.89
470.303	5.01
470.507	4.89
470.711	4.73
470.915	4.78
471.119	4.64
471.324	4.55
471.528	4.53
471.732	4.66
471.936	4.7
472.14	4.75
472.344	4.82
472.548	4.97
472.752	5.1
472.956	5.35
473.16	5.37
473.364	5.21
473.568	5.2
473.772	5.25
473.976	5.06
474.18	5.07
474.384	5.2
474.588	5.16
474.792	4.98
474.995	5.08
475.199	5.19
475.403	5.28
475.607	5.36
475.811	5.36
476.015	5.35
476.218	5.33
476.422	5.16
476.626	5.14
476.83	5.27
477.033	5.25
477.237	5.15
477.441	5.3
477.644	5.3
477.848	5.23
478.052	5.19
478.255	5.3
478.459	5.26
478.663	5.45
478.866	5.55
479.07	5.58
479.273	5.67
479.477	5.79
479.681	5.66
479.884	5.6
480.088	5.56
480.291	5.47
480.495	5.42
480.698	5.46
480.901	5.53
481.105	5.67
481.308	5.72
481.512	5.74
481.715	5.78
481.919	5.82
482.122	5.8
482.325	5.73
482.529	5.79
482.732	5.78
482.935	5.69
483.138	5.6
483.342	5.76
483.545	5.84
483.748	5.81
483.952	5.87
484.155	6.06
484.358	5.99
484.561	5.83
484.764	5.83
484.967	5.92
485.171	5.95
485.374	5.96
485.577	6.14
485.78	6.24
485.983	6.25
486.186	6.11
486.389	6.1
486.592	6
486.795	5.98
486.998	5.84
487.201	5.91
487.404	6.03
487.607	6.14
487.81	6.14
488.013	6.27
488.216	6.24
488.419	6.15
488.622	6.1
488.825	6.04
489.028	5.98
489.231	5.97
489.433	5.92
489.636	5.84
489.839	5.89
490.042	5.81
490.245	5.83
490.447	5.89
490.65	5.97
490.853	5.96
491.056	6.06
491.258	6.13
491.461	6.2
491.664	6.28
491.866	6.3
492.069	6.46
492.272	6.4
492.474	6.44
492.677	6.48
492.879	6.57
493.082	6.57
493.285	6.77
493.487	6.73
493.69	6.67
493.892	6.57
494.095	6.52
494.297	6.43
494.5	6.55
494.702	6.6
494.905	6.72
495.107	6.73
495.309	6.74
495.512	6.73
495.714	6.82
495.917	6.84
496.119	6.88
496.321	6.99
496.524	7.05
496.726	7.08
496.928	7.14
497.13	7.2
497.333	7.15
497.535	7.15
497.737	7.13
497.939	7.09
498.142	7.11
498.344	7.17
498.546	7.12
498.748	7.21
498.95	7.4
499.152	7.4
499.355	7.43
499.557	7.58
499.759	7.7
499.961	7.63
500.163	7.71
500.365	7.75
500.567	7.83
500.769	7.68
500.971	7.75
501.173	7.73
501.375	7.79
501.577	7.67
501.779	7.75
501.981	7.77
502.183	7.78
502.385	7.74
502.587	7.75
502.788	7.8
502.99	7.88
503.192	7.96
503.394	8.06
503.596	8.13
503.798	8.19
503.999	8.17
504.201	8.2
504.403	8.23
504.605	8.25
504.806	8.24
505.008	8.22
505.21	8.23
505.411	8.18
505.613	8.13
505.815	8.09
506.016	8.14
506.218	8.27
506.42	8.28
506.621	8.4
506.823	8.5
507.024	8.42
507.226	8.3
507.427	8.31
507.629	8.3
507.83	8.33
508.032	8.37
508.233	8.43
508.435	8.51
508.636	8.53
508.838	8.49
509.039	8.53
509.24	8.55
509.442	8.55
509.643	8.48
509.845	8.47
510.046	8.51
510.247	8.5
510.448	8.49
510.65	8.54
510.851	8.69
511.052	8.69
511.254	8.67
511.455	8.73
511.656	8.83
511.857	8.83
512.058	8.8
512.26	8.84
512.461	8.9
512.662	8.88
512.863	8.69
513.064	8.77
513.265	8.77
513.466	8.75
513.667	8.74
513.868	8.89
514.069	8.94
514.27	9.03
514.471	9
514.672	9.03
514.873	8.95
515.074	8.98
515.275	8.87
515.476	8.89
515.677	8.95
515.878	9.1
516.079	8.99
516.28	9.03
516.481	9.13
516.682	9.17
516.882	9.07
517.083	9.11
517.284	9.14
517.485	9.06
517.686	8.96
517.886	8.89
518.087	9.02
518.288	9.06
518.488	9.08
518.689	9.09
518.89	9.15
519.091	9.1
519.291	9.05
519.492	9.07
519.692	9.15
519.893	9.23
520.094	9.17
520.294	9.15
520.495	9.13
520.695	9.14
520.896	9.09
521.096	9.2
521.297	9.28
521.497	9.3
521.698	9.28
521.898	9.26
522.099	9.24
522.299	9.25
522.499	9.27
522.7	9.28
522.9	9.29
523.101	9.31
523.301	9.33
523.501	9.3
523.702	9.37
523.902	9.46
524.102	9.55
524.302	9.48
524.503	9.56
524.703	9.55
524.903	9.6
525.103	9.53
525.304	9.68
525.504	9.75
525.704	9.79
525.904	9.71
526.104	9.73
526.304	9.66
526.504	9.66
526.705	9.57
526.905	9.71
527.105	9.68
527.305	9.69
527.505	9.63
527.705	9.71
527.905	9.64
528.105	9.72
528.305	9.69
528.505	9.75
528.705	9.82
528.905	9.82
529.105	9.8
529.304	9.94
529.504	10.02
529.704	9.91
529.904	9.95
530.104	10.01
530.304	10.03
530.503	10
530.703	10.04
530.903	10.02
531.103	10.03
531.303	9.98
531.502	10
531.702	10.15
531.902	10.21
532.101	10.2
532.301	10.22
532.501	10.21
532.7	10.14
532.9	10.19
533.1	10.23
533.299	10.28
533.499	10.33
533.698	10.3
533.898	10.27
534.097	10.29
534.297	10.39
534.496	10.36
534.696	10.45
534.895	10.58
535.095	10.68
535.294	10.64
535.494	10.6
535.693	10.64
535.892	10.62
536.092	10.54
536.291	10.53
536.491	10.7
536.69	10.71
536.889	10.68
537.088	10.66
537.288	10.72
537.487	10.8
537.686	10.79
537.886	10.86
538.085	10.97
538.284	11.09
538.483	11.01
538.682	11.11
538.882	11.11
539.081	11.15
539.28	11.09
539.479	11.09
539.678	11.07
539.877	11.19
540.076	11.21
540.275	11.29
540.474	11.41
540.673	11.5
540.872	11.45
541.071	11.5
541.27	11.48
541.469	11.57
541.668	11.6
541.867	11.7
542.066	11.77
542.265	11.82
542.464	11.75
542.663	11.77
542.862	11.86
543.06	11.91
543.259	11.95
543.458	12.07
543.657	12.13
543.856	12.16
544.054	12.12
544.253	12.11
544.452	12.13
544.651	12.19
544.849	12.18
545.048	12.24
545.247	12.33
545.445	12.39
545.644	12.37
545.843	12.34
546.041	12.39
546.24	12.51
546.438	12.64
546.637	12.72
546.836	12.96
547.034	13.09
547.233	13.11
547.431	13.1
547.63	13.14
547.828	13.14
548.027	13.18
548.225	13.22
548.423	13.26
548.622	13.38
548.82	13.34
549.019	13.42
549.217	13.55
549.415	13.58
549.614	13.65
549.812	13.69
550.01	13.68
550.209	13.69
550.407	13.82
550.605	13.91
550.803	14.08
551.002	14.22
551.2	14.26
551.398	14.34
551.596	14.44
551.794	14.52
551.993	14.57
552.191	14.64
552.389	14.76
552.587	14.85
552.785	14.91
552.983	15.03
553.181	15.23
553.379	15.3
553.577	15.38
553.775	15.5
553.973	15.52
554.171	15.55
554.369	15.56
554.567	15.6
554.765	15.62
554.963	15.76
555.161	15.79
555.359	15.97
555.557	16.12
555.755	16.22
555.952	16.35
556.15	16.49
556.348	16.57
556.546	16.63
556.744	16.68
556.941	16.67
557.139	16.74
557.337	16.79
557.535	16.81
557.732	16.95
557.93	17.17
558.128	17.25
558.325	17.43
558.523	17.58
558.721	17.78
558.918	17.79
559.116	17.9
559.313	17.85
559.511	18
559.708	17.99
559.906	18.08
560.104	18.15
560.301	18.36
560.498	18.39
560.696	18.47
560.893	18.62
561.091	18.77
561.288	18.91
561.486	19.09
561.683	19.28
561.88	19.44
562.078	19.59
562.275	19.58
562.473	19.69
562.67	19.83
562.867	19.99
563.064	20.07
563.262	20.19
563.459	20.31
563.656	20.45
563.853	20.43
564.051	20.54
564.248	20.7
564.445	20.74
564.642	20.76
564.839	20.98
565.036	21.15
565.234	21.36
565.431	21.49
565.628	21.67
565.825	21.75
566.022	21.9
566.219	21.99
566.416	22.14
566.613	22.21
566.81	22.31
567.007	22.28
567.204	22.24
567.401	22.29
567.598	22.34
567.795	22.38
567.991	22.47
568.188	22.68
568.385	22.89
568.582	23.04
568.779	23.23
568.976	23.47
569.172	23.66
569.369	23.59
569.566	23.66
569.763	23.8
569.96	23.79
570.156	23.74
570.353	23.8
570.55	23.87
570.746	23.8
570.943	23.79
571.14	23.88
571.336	24.03
571.533	24.12
571.729	24.16
571.926	24.31
572.123	24.44
572.319	24.42
572.516	24.42
572.712	24.62
572.909	24.69
573.105	24.75
573.302	24.92
573.498	25.14
573.695	25.13
573.891	25.23
574.087	25.26
574.284	25.15
574.48	25.06
574.677	25.06
574.873	25.07
575.069	25.13
575.266	25.37
575.462	25.4
575.658	25.51
575.854	25.63
576.051	25.68
576.247	25.66
576.443	25.74
576.639	25.81
576.835	25.72
577.032	25.75
577.228	25.87
577.424	25.99
577.62	25.89
577.816	25.99
578.012	25.96
578.208	25.91
578.404	25.82
578.6	25.88
578.796	25.84
578.993	25.9
579.189	25.82
579.384	25.78
579.58	25.79
579.776	25.77
579.972	25.68
580.168	25.65
580.364	25.66
580.56	25.71
580.756	25.66
580.952	25.62
581.148	25.73
581.343	25.77
581.539	25.78
581.735	25.8
581.931	25.9
582.127	25.86
582.322	25.87
582.518	25.84
582.714	25.9
582.909	25.87
583.105	25.87
583.301	25.82
583.496	25.88
583.692	25.73
583.888	25.66
584.083	25.64
584.279	25.66
584.474	25.56
584.67	25.71
584.866	25.77
585.061	25.64
585.257	25.61
585.452	25.59
585.648	25.52
585.843	25.55
586.039	25.65
586.234	25.67
586.429	25.62
586.625	25.67
586.82	25.71
587.015	25.7
587.211	25.53
587.406	25.69
587.601	25.61
587.797	25.44
587.992	25.35
588.187	25.51
588.383	25.41
588.578	25.51
588.773	25.56
588.968	25.67
589.163	25.72
589.359	25.72
589.554	25.67
589.749	25.72
589.944	25.74
590.139	25.69
590.334	25.68
590.529	25.65
590.724	25.75
590.919	25.75
591.114	25.73
591.309	25.89
591.504	25.94
591.699	25.87
591.894	25.98
592.089	26.03
592.284	25.99
592.479	26.07
592.674	26.05
592.869	26.15
593.064	26.19
593.259	26.3
593.454	26.47
593.648	26.57
593.843	26.49
594.038	26.54
594.233	26.49
594.428	26.42
594.622	26.47
594.817	26.6
595.012	26.76
595.206	26.9
595.401	26.91
595.596	27
595.79	27.19
595.985	27.25
596.18	27.29
596.374	27.45
596.569	27.48
596.763	27.36
596.958	27.36
597.153	27.4
597.347	27.45
597.542	27.62
597.736	27.64
597.931	27.79
598.125	27.9
598.319	28.12
598.514	28.08
598.708	28.26
598.903	28.23
599.097	28.31
599.291	28.32
599.486	28.4
599.68	28.48
599.874	28.64
600.069	28.71
600.263	28.64
600.457	28.75
600.651	28.72
600.846	28.72
601.04	28.72
601.234	28.79
601.428	28.89
601.622	28.99
601.817	29.05
602.011	29.06
602.205	29.13
602.399	29.12
602.593	29.07
602.787	29.07
602.981	29.09
603.175	29.13
603.369	29.02
603.563	29.16
603.757	29.23
603.951	29.29
604.145	29.26
604.339	29.38
604.533	29.16
604.727	29.09
604.921	28.97
605.115	28.97
605.309	28.92
605.502	29.08
605.696	29.02
605.89	29.01
606.084	28.93
606.278	28.94
606.471	28.88
606.665	28.8
606.859	28.65
607.053	28.59
607.246	28.53
607.44	28.35
607.634	28.28
607.827	28.3
608.021	28.16
608.214	28.11
608.408	28.04
608.602	28.07
608.795	28.05
608.989	28.07
609.182	27.93
609.376	27.96
609.569	27.84
609.763	27.63
609.956	27.48
610.15	27.39
610.343	27.29
610.537	27.22
610.73	27.26
610.923	27.23
611.117	27.12
611.31	26.93
611.504	26.85
611.697	26.77
611.89	26.78
612.083	26.71
612.277	26.73
612.47	26.62
612.663	26.54
612.856	26.28
613.05	26.19
613.243	26.02
613.436	25.95
613.629	25.81
613.822	25.71
614.015	25.61
614.209	25.59
614.402	25.52
614.595	25.56
614.788	25.59
614.981	25.57
615.174	25.37
615.367	25.33
615.56	25.25
615.753	25.14
615.946	25.1
616.139	25.14
616.332	25.26
616.525	25.19
616.718	25.22
616.911	25.18
617.103	25.21
617.296	25.04
617.489	24.95
617.682	24.99
617.875	24.96
618.067	24.84
618.26	24.81
618.453	24.82
618.646	24.65
618.838	24.59
619.031	24.72
619.224	24.68
619.417	24.72
619.609	24.76
619.802	24.74
619.994	24.59
620.187	24.46
620.38	24.27
620.572	24.15
620.765	24.17
620.957	24.01
621.15	23.85
621.342	23.88
621.535	23.95
621.727	23.78
621.92	23.82
622.112	23.91
622.305	23.97
622.497	23.79
622.69	23.88
622.882	23.93
623.074	23.88
623.267	23.69
623.459	23.66
623.651	23.54
623.844	23.46
624.036	23.56
624.228	23.59
624.42	23.59
624.613	23.7
624.805	23.69
624.997	23.56
625.189	23.54
625.381	23.63
625.574	23.44
625.766	23.31
625.958	23.29
626.15	23.32
626.342	23.24
626.534	23.33
626.726	23.39
626.918	23.38
627.11	23.28
627.302	23.22
627.494	23.04
627.686	23.01
627.878	22.95
628.07	22.96
628.262	22.91
628.454	22.87
628.646	22.9
628.838	22.93
629.029	22.87
629.221	22.92
629.413	22.95
629.605	22.79
629.797	22.72
629.989	22.63
630.18	22.53
630.372	22.52
630.564	22.5
630.755	22.51
630.947	22.59
631.139	22.47
631.33	22.36
631.522	22.42
631.714	22.34
631.905	22.15
632.097	22.18
632.289	22.22
632.48	22.21
632.672	22.2
632.863	22.14
633.055	22.18
633.246	22.18
633.438	22.07
633.629	22
633.821	22.1
634.012	21.98
634.203	21.89
634.395	21.8
634.586	21.8
634.777	21.66
634.969	21.69
635.16	21.81
635.351	21.86
635.543	21.85
635.734	21.99
635.925	21.97
636.117	21.93
636.308	21.97
636.499	21.93
636.69	21.74
636.881	21.71
637.073	21.71
637.264	21.63
637.455	21.64
637.646	21.82
637.837	21.86
638.028	21.72
638.219	21.71
638.41	21.61
638.601	21.48
638.792	21.4
638.983	21.43
639.174	21.34
639.365	21.41
639.556	21.37
639.747	21.32
639.938	21.3
640.129	21.3
640.32	21.26
640.511	21.28
640.701	21.41
640.892	21.37
641.083	21.48
641.274	21.53
641.465	21.42
641.655	21.25
641.846	21.16
642.037	21
642.228	20.86
642.418	21.03
642.609	21.07
642.8	21.11
642.99	21.07
643.181	21.06
643.372	20.99
643.562	20.95
643.753	20.91
643.943	20.88
644.134	20.77
644.324	20.72
644.515	20.73
644.705	20.82
644.896	20.8
645.086	20.89
645.277	20.84
645.467	20.87
645.658	20.78
645.848	20.73
646.038	20.78
646.229	20.7
646.419	20.56
646.61	20.57
646.8	20.58
646.99	20.39
647.18	20.42
647.371	20.4
647.561	20.26
647.751	20.31
647.941	20.29
648.132	20.26
648.322	20.21
648.512	20.3
648.702	20.14
648.892	20.21
649.082	20.18
649.272	20.13
649.462	19.94
649.653	19.91
649.843	19.79
650.033	19.81
650.223	19.77
650.413	19.8
650.603	19.93
650.793	19.94
650.983	19.85
651.172	19.78
651.362	19.69
651.552	19.38
651.742	19.31
651.932	19.22
652.122	19.21
652.312	19.27
652.502	19.39
652.691	19.24
652.881	19.19
653.071	19.03
653.261	18.89
653.45	18.66
653.64	18.63
653.83	18.37
654.019	18.29
654.209	18.16
654.399	18.16
654.588	18.08
654.778	18.07
654.968	17.94
655.157	17.74
655.347	17.55
655.536	17.35
655.726	17.23
655.915	17
656.105	16.88
656.294	16.8
656.484	16.57
656.673	16.33
656.863	16.36
657.052	16.14
657.241	15.75
657.431	15.55
657.62	15.36
657.809	14.99
657.999	14.82
658.188	14.77
658.377	14.52
658.567	14.44
658.756	14.29
658.945	14.09
659.134	13.78
659.324	13.74
659.513	13.47
659.702	13.3
659.891	13.17
660.08	13.05
660.269	12.92
660.458	12.81
660.648	12.65
660.837	12.46
661.026	12.33
661.215	12.05
661.404	11.79
661.593	11.67
661.782	11.41
661.971	11.33
662.16	11.1
662.349	11.05
662.538	10.77
662.726	10.81
662.915	10.61
663.104	10.53
663.293	10.44
663.482	10.5
663.671	10.26
663.86	10.06
664.048	9.95
664.237	9.8
664.426	9.49
664.615	9.46
664.803	9.44
664.992	9.4
665.181	9.22
665.369	9.12
665.558	8.97
665.747	8.9
665.935	8.89
666.124	8.91
666.312	8.93
666.501	8.87
666.69	8.7
666.878	8.56
667.067	8.38
667.255	8.35
667.444	8.62
667.632	8.64
667.82	8.75
668.009	8.74
668.197	8.68
668.386	8.43
668.574	8.57
668.762	8.36
668.951	8.29
669.139	8.18
669.327	7.98
669.516	7.91
669.704	7.92
669.892	8.06
670.08	8.1
670.269	8.12
670.457	7.95
670.645	7.79
670.833	7.79
671.021	7.81
671.21	7.88
671.398	8.11
671.586	8.21
671.774	8.05
671.962	8.02
672.15	7.96
672.338	7.79
672.526	7.79
672.714	7.77
672.902	7.87
673.09	8.14
673.278	8.33
673.466	8.37
673.654	8.59
673.842	8.59
674.03	8.47
674.218	8.4
674.405	8.53
674.593	8.5
674.781	8.57
674.969	8.58
675.157	8.81
675.344	8.83
675.532	8.9
675.72	8.99
675.908	9.13
676.095	8.94
676.283	9.06
676.471	9.29
676.658	9.34
676.846	9.35
677.033	9.55
677.221	9.59
677.409	9.53
677.596	9.57
677.784	9.66
677.971	9.72
678.159	9.81
678.346	9.97
678.534	10.16
678.721	10.44
678.909	10.55
679.096	10.62
679.283	10.72
679.471	10.77
679.658	10.72
679.846	10.96
680.033	11.13
680.22	11.21
680.408	11.26
680.595	11.45
680.782	11.44
680.969	11.61
681.157	11.82
681.344	12.08
681.531	12.25
681.718	12.38
681.905	12.48
682.093	12.62
682.28	12.85
682.467	13.15
682.654	13.31
682.841	13.42
683.028	13.7
683.215	13.77
683.402	13.69
683.589	13.84
683.776	14.17
683.963	14.11
684.15	14.47
684.337	14.76
684.524	15.12
684.711	15.42
684.898	15.69
685.085	15.82
685.271	16.16
685.458	16.53
685.645	16.68
685.832	16.97
686.019	17.42
686.205	17.79
686.392	18.09
686.579	18.51
686.766	19.18
686.952	19.46
687.139	20.05
687.326	20.46
687.512	20.79
687.699	21.12
687.886	21.46
688.072	21.62
688.259	22.02
688.445	22.77
688.632	23.04
688.818	23.86
689.005	24.45
689.191	25.02
689.378	25.57
689.564	26.41
689.751	26.98
689.937	27.64
690.124	28.31
690.31	28.66
690.496	29.25
690.683	29.88
690.869	30.48
691.055	31.01
691.242	32.1
691.428	32.83
691.614	33.47
691.8	34.31
691.987	35.06
692.173	35.67
692.359	36.37
692.545	37.2
692.731	37.73
692.918	38.46
693.104	38.91
693.29	39.55
693.476	40.04
693.662	40.88
693.848	41.47
694.034	42.31
694.22	42.86
694.406	43.84
694.592	44.38
694.778	45.34
694.964	46.05
695.15	47.01
695.336	47.4
695.522	48.33
695.708	48.75
695.894	49.5
696.08	50.15
696.265	50.79
696.451	51.34
696.637	52.09
696.823	52.71
697.009	53.11
697.194	53.71
697.38	54.29
697.566	55.03
697.751	55.64
697.937	56.55
698.123	57.27
698.308	57.92
698.494	58.48
698.68	58.78
698.865	59.11
699.051	59.66
699.236	60.21
699.422	60.78
699.607	61.54
699.793	61.93
699.978	62.36
700.164	62.66
700.349	63.28
700.535	63.62
700.72	64.23
700.906	64.68
701.091	65.25
701.276	65.27
701.462	66.06
701.647	66.87
701.832	67.6
702.018	68.1
702.203	68.55
702.388	68.46
702.573	68.68
702.759	69.22
702.944	69.45
703.129	69.92
703.314	70.59
703.499	70.65
703.684	70.43
703.87	71.48
704.055	72.36
704.24	72.71
704.425	73.5
704.61	74.04
704.795	73.55
704.98	73.26
705.165	73.32
705.35	73.42
705.535	73.77
705.72	74.28
705.905	74.94
706.09	75.63
706.275	75.89
706.459	75.83
706.644	75.76
706.829	75.97
707.014	75.65
707.199	75.97
707.384	76.75
707.568	77.12
707.753	77.65
707.938	78.17
708.123	78.19
708.307	77.84
708.492	78.45
708.677	78.1
708.861	78.07
709.046	77.8
709.231	78.48
709.415	78.7
709.6	78.76
709.784	78.76
709.969	79.45
710.153	79.29
710.338	79.26
710.522	79.77
710.707	80.36
710.891	80.52
711.076	80.77
711.26	80.6
711.445	80.77
711.629	80.97
711.813	80.99
711.998	81.24
712.182	81.44
712.366	81.43
712.551	82.1
712.735	82.05
712.919	82.06
713.103	82.45
713.288	82.26
713.472	81.58
713.656	82.26
713.84	82.06
714.024	82.19
714.208	82.22
714.393	82.54
714.577	82.55
714.761	83.03
714.945	83.43
715.129	83.83
715.313	83.91
715.497	83.75
715.681	84.55
715.865	84.14
716.049	84.3
716.233	84.35
716.417	84.38
716.601	83.83
716.785	83.78
716.968	83.94
717.152	84.36
717.336	84.69
717.52	84.61
717.704	84.8
717.888	85.44
718.071	85.03
718.255	84.82
718.439	84.82
718.622	84.88
718.806	84.77
718.99	84.7
719.174	84.93
719.357	85.21
719.541	85.58
719.724	84.95
719.908	85.77
720.092	86.53
720.275	86.64
720.459	86.56
720.642	86.55
720.826	86.27
721.009	85.43
721.193	85.18
721.376	84.91
721.559	85.54
721.743	85.31
721.926	85.71
722.11	86
722.293	86.22
722.476	85.84
722.66	86.17
722.843	85.92
723.026	85.26
723.21	86
723.393	86.9
723.576	86.7
723.759	86.92
723.942	87.61
724.126	86.99
724.309	86.32
724.492	86.26
724.675	85.94
724.858	85.76
725.041	86.26
725.224	86.48
725.407	86.87
725.59	87.55
725.774	87.49
725.957	86.65
726.14	86.4
726.322	86.39
726.505	86.55
726.688	87.38
726.871	87.64
727.054	87.43
727.237	87.29
727.42	87.31
727.603	86.88
727.786	87.04
727.968	87.89
728.151	87.97
728.334	87.51
728.517	87.65
728.699	88.3
728.882	87.7
729.065	87.96
729.248	88.31
729.43	88.77
729.613	88.84
729.796	89.77
729.978	88.96
730.161	88.87
730.343	88.27
730.526	88.25
730.708	87.38
730.891	87.76
731.073	87.68
731.256	87
731.438	86.87
731.621	87.8
731.803	88.03
731.986	87.72
732.168	88.08
732.35	88.04
732.533	87.52
732.715	88.4
732.898	89.08
733.08	89.32
733.262	89.96
733.444	90.12
733.627	89.91
733.809	90.43
733.991	91.34
734.173	90.27
734.355	89.7
734.538	89.58
734.72	88.47
734.902	88.15
735.084	89.32
735.266	90.39
735.448	91.33
735.63	91.92
735.812	91.4
735.994	91.83
736.176	91.14
736.358	90
736.54	90.85
736.722	90.87
736.904	89.89
737.086	89.94
737.268	91.2
737.45	91.04
737.632	91.24
737.814	90.46
737.995	90.73
738.177	89.98
738.359	88.75
738.541	89.65
738.723	90.89
738.904	91.43
739.086	91.89
739.268	93.11
739.449	93.01
739.631	92.6
739.813	92.78
739.994	92.75
740.176	92.5
740.358	92.07
740.539	92.7
740.721	92.31
740.902	92.39
741.084	92.51
741.265	92.25
741.447	92.42
741.628	92.47
741.81	91.8
741.991	91.89
742.172	93.16
742.354	93.03
742.535	93.21
742.717	93.09
742.898	93.05
743.079	93.27
743.261	92.76
743.442	91.97
743.623	93.27
743.804	93.45
743.986	92.49
744.167	90.77
744.348	90.37
744.529	89.68
744.71	88.36
744.891	88.42
745.073	89.01
745.254	89.89
745.435	88.93
745.616	89.18
745.797	89.01
745.978	88.97
746.159	89.26
746.34	88.74
746.521	89.77
746.702	88.88
746.883	89.54
747.064	88.91
747.245	90.13
747.426	90.07
747.606	90.92
747.787	91.22
747.968	90.88
748.149	91.07
748.33	90.92
748.51	91.17
748.691	90.73
748.872	91.56
749.053	91.21
749.233	89.8
749.414	88.4
749.595	87.8
749.775	86.42
749.956	85.76
750.137	86.16
750.317	88.02
750.498	89.71
750.678	90.45
750.859	90.85
751.04	91.61
751.22	90.2
751.4	89.92
751.581	88.68
751.761	88.66
751.942	88.82
752.122	89.19
752.303	87.74
752.483	88.57
752.663	88.65
752.844	87.55
753.024	89.09
753.204	90.06
753.385	89.05
753.565	88.81
753.745	89.16
753.925	87.05
754.106	85.99
754.286	86.76
754.466	87.12
754.646	88.72
754.826	88.54
755.006	89
755.187	89.58
755.367	88.39
755.547	87.41
755.727	89.63
755.907	89.97
756.087	91.07
756.267	91.29
756.447	90.6
756.627	87.62
756.807	87.56
756.987	86.18
757.167	87.67
757.346	86.98
757.526	87.02
757.706	87.13
757.886	86.61
758.066	85.25
758.246	86.59
758.425	86.77
758.605	85.75
758.785	86.86
758.965	87.52
759.144	86.09
759.324	86.34
759.504	87.43
759.683	86.32
759.863	85.63
760.043	85.28
760.222	85.6
760.402	84.87
760.581	84.12
760.761	85.65
760.94	85.14
761.12	87.19
761.299	87.4
761.479	88.42
761.658	86.5
761.838	86.61
762.017	84.51
762.197	85.79
762.376	85.98
762.555	88.12
762.735	89.35
762.914	87.62
763.093	86.54
763.273	85.7
763.452	83.98
763.631	83.93
763.81	84.4
763.99	84.4
764.169	84.12
764.348	82.69
764.527	81.41
764.706	83.62
764.885	84.59
765.064	83.54
765.243	84.9
765.423	86
765.602	84.11
765.781	82.01
765.96	82.67
766.139	82.23
766.318	82.65
766.497	83.23
766.676	82.89
766.854	84.32
767.033	84.78
767.212	83.9
767.391	84.61
767.57	87.65
767.749	86.92
767.928	87.17
768.106	85.82
768.285	83.96
768.464	81.86
768.643	80.95
768.821	81.2
769	83.44
769.179	82.41
769.357	80.57
769.536	80.52
769.715	79.38
769.893	80.64
770.072	81.89
770.25	83.07
770.429	83.85
770.607	84.35
770.786	83.21
770.964	84.79
771.143	85.2
771.321	86.58
771.5	86.87
771.678	85.38
771.857	82.89
772.035	81.76
772.213	79.81
772.392	78.39
772.57	80.03
772.748	81.22
772.927	80.98
773.105	80.88
773.283	80.81
773.461	79.81
773.64	81.71
773.818	81.3
773.996	82.1
774.174	82.8
774.352	80.5
774.531	76.04
774.709	80.36
774.887	80.01
775.065	78.08
775.243	79.2
775.421	81.78
775.599	81.95
775.777	80.83
775.955	80.1
776.133	79.92
776.311	79.87
776.489	74.45
776.667	75.5
776.844	77.24
777.022	75.57
777.2	74.16
777.378	76.19
777.556	75.77
777.734	79.15
777.911	81.47
778.089	80.81
778.267	81.35
778.445	80.6
778.622	76.81
778.8	75.05
778.978	78.52
779.155	77.61
779.333	77.59
779.511	79.31
779.688	82.55
779.866	74.99
780.043	71.63
780.221	72.87
780.398	70.41
780.576	71.75
780.753	76.91
780.931	77.6
781.108	77.35
781.286	79.11
781.463	72.41
781.64	69.76
781.818	73.45
781.995	74.57
782.172	72.74
782.35	78.37
782.527	82.36
782.704	79.23
782.882	79.02
783.059	80.36
783.236	79.76
783.413	80.04
783.59	81.96
783.768	78.13
783.945	81.14
784.122	80.64
784.299	79.13
784.476	75.39
784.653	75.84
784.83	72.19
785.007	67.55
785.184	68.98
785.361	71.01
785.538	75.19
785.715	75.45
785.892	78.39
786.069	78.02
786.246	77.5
786.423	74.05
786.6	73.52
786.776	74.27
786.953	71.9
787.13	77.09
787.307	78
787.484	76.92
787.66	74.23
787.837	74.59
788.014	68.49
788.191	66.2
788.367	66.18
788.544	72
788.721	70.3
788.897	72.85
789.074	75.71
789.25	73.78
789.427	70.53
789.603	69.8
789.78	71.38
789.956	68.82
790.133	68.81
790.309	70.93
790.486	75.18
790.662	74.44
790.839	73.75
791.015	75.75
791.192	71.01
791.368	71.98
791.544	69.95
791.721	69.14
791.897	68.05
792.073	67.03
792.249	60.77
792.426	63.53
792.602	69.07
792.778	70.44
792.954	70.2
793.13	70.33
793.307	61.93
793.483	51.87
793.659	51.72
793.835	57.05
794.011	59.69
794.187	63.43
794.363	66.08
794.539	67.58
794.715	61.89
794.891	60.15
795.067	61.32
795.243	67.1
795.419	63.75
795.595	62.09
795.771	63.73
795.947	65.43
796.122	56.6
796.298	61.66
796.474	67.81
796.65	65.87
796.826	63.34
797.001	69.68
797.177	64.84
797.353	65.51
797.529	68.98
797.704	68.02
797.88	65.94
798.056	59.95
798.231	54.37
798.407	57.08
798.582	57.4
798.758	65
798.934	78.63
799.109	75.62
799.285	68.51
799.46	72.53
799.636	70.39
799.811	64.21
799.986	71.59
800.162	75.94
800.337	73.16
800.513	69.37
800.688	64.38
800.863	70.13
801.039	61.07
801.214	59.83
801.389	62.61
801.565	66.62
801.74	54.41
801.915	67.46
802.09	68.11
802.265	65.17
802.441	62.97
802.616	63.97
802.791	57.91
802.966	62.21
803.141	61.58
803.316	56.68
803.491	63.22
803.666	70.07
803.841	58.88
804.016	56.98
804.191	61.97
804.366	54.62
804.541	49.91
804.716	56.9
804.891	53.63
805.066	60.15
805.241	60.42
805.416	59.92
805.591	57.34
805.765	61.55
805.94	62.71
806.115	60.33
806.29	49.39
806.464	51.9
806.639	50.91
806.814	43.99
806.989	37.04
807.163	50.44
807.338	53.27
807.512	52.25
807.687	39.39
807.862	60.72
808.036	61.38
808.211	61.3
808.385	66.93
808.56	83.72
808.734	79.4
808.909	77.48
809.083	72.79
809.258	78.76
809.432	77.2
809.606	61.71
809.781	57.99
809.955	64.37
810.13	61.31
810.304	52.89
810.478	49.8
810.652	59.22
810.827	56.67
811.001	49.64
811.175	49.08
811.349	49.16
811.524	34.47
811.698	26.92
811.872	30.17
812.046	48.59
812.22	62.31
812.394	69.2
812.568	74.33
812.742	84.51
812.916	64.09
813.09	53.82
813.264	46.74
813.438	55.98
813.612	40.32
813.786	40.54
813.96	56.1
814.134	67.87
814.308	68.3
814.482	74.78
814.656	74.06
814.83	74.13
815.003	73.76
815.177	58.39
815.351	56.03
815.525	58.81
815.698	40.93
815.872	29.73
816.046	33.63
816.219	37.81
816.393	49.1
816.567	65.22
816.74	66.39
816.914	68.22
817.088	76.22
817.261	64.4
817.435	51.39
817.608	54.26
817.782	49.87
817.955	38.15
818.129	33.69
818.302	38.16
818.475	51.72
818.649	55.64
818.822	47.89
818.996	70.02
819.169	63.07
819.342	38.03
819.516	46.47
819.689	66.54
819.862	48.83
820.035	51.13
820.209	56.32
820.382	55.12
820.555	39.51
820.728	29.05
820.901	28.13
821.075	29.08
821.248	26.53
821.421	23.87
821.594	29.23
821.767	50.78
821.94	61.49
822.113	33.7
822.286	34.26
822.459	46.25
822.632	29.11
822.805	7.4
822.978	5.8
823.151	4.36
823.324	-9.77
823.496	-31.33
823.669	-26.9
823.842	-13.67
824.015	-24.23
824.188	-30.52
824.361	-0.98
824.533	-5.27
824.706	11.81
824.879	23.92
825.051	34.11
825.224	29.06
825.397	32.17
825.569	-1.07
825.742	22.58
825.915	35.87
826.087	42.04
826.26	24.88
826.432	41.54
826.605	28.33
826.777	13.24
826.95	6.09
827.122	3.94
827.295	9.41
827.467	4.82
827.64	-13.34
827.812	-17.33
827.984	-5.48
828.157	-26.71
828.329	-44.24
828.501	-24.84
828.674	5.81
828.846	-12.6
829.018	13.38
829.19	-2.39
829.363	23.01
829.535	23.68
829.707	31.67
829.879	8.61
830.051	11.82
830.223	-10.21
830.395	-41.64
830.568	-29.08
830.74	-22.65
830.912	13.93
831.084	1.4
831.256	8.95
831.428	-13.72
831.6	-29.46
831.772	-71.62
831.943	-87.41
832.115	-58.96
832.287	-14.13
832.459	3.21
832.631	30.39
832.803	69.71
832.975	86.43
833.146	58.05
833.318	46.23
833.49	30.25
833.662	3.68
833.833	-20.02
834.005	-0.58
834.177	10.72
834.348	25.66
834.52	9.66
834.692	4.68
834.863	-28.49
835.035	-21.12
835.206	-67.29
835.378	-24.65
835.549	-12.01
835.721	7.34
835.892	-8.49
836.064	-10.24
836.235	-21
836.407	8.69
836.578	-20.67
836.749	-14.34
836.921	-63.51
837.092	-73.62
837.264	-73.52
837.435	-74.49
837.606	3.09
837.777	39.17
837.949	48.22
838.12	49.41
838.291	49.73
838.462	13.71
838.633	-8.98
838.805	-12.54
838.976	-25.73
839.147	-85.54
839.318	-96.28
839.489	-129.83
839.66	-97.55
839.831	-60.36
840.002	-52.43
840.173	-59.83
840.344	0.1
840.515	-12.1
840.686	-157.29
840.857	-93.63
841.028	-64.37
841.199	-86.44
841.369	-103.2
841.54	-59.01
841.711	-27.74
841.882	-11.91
842.053	-22.88
842.223	-29.19
842.394	-21.33
842.565	-14.32
842.736	-7.59
842.906	-3.37
843.077	11.25
843.248	23.87
843.418	14.55
843.589	-9.81
843.759	52.19
843.93	40.03
844.101	21.51
844.271	13.02
844.442	18.47
844.612	27.28
844.783	-9.55
844.953	-47.1
845.123	-45.7
845.294	-22.67
845.464	-177.91
845.635	0.92
845.805	44.29
845.975	41.23
846.146	-36.76
846.316	-36.09
846.486	-19.72
846.656	14.6
846.827	-0.97
846.997	2.39
847.167	39.84
847.337	7.35
847.507	-33.86
847.677	-28.35
847.848	57.43
848.018	41.62
848.188	49.72
848.358	23.24
848.528	11.02
848.698	-46.26
848.868	-165.79
849.038	-294.75
849.208	-108.28
849.378	-73.81
849.548	-67.34
849.718	-32.72
849.887	-0.8
850.057	-7.66
850.227	-33.19
850.397	-66.05
850.567	-167.78
850.737	-358.26
850.906	-1202.5
851.076	-735.16
851.246	-275.92
851.415	6.27
851.585	-27.95
851.755	-32.19
851.924	-13.63
852.094	-18.85
852.264	-123.23
852.433	-927.88
852.603	-224.01
852.772	-180.89
852.942	-95.94
853.111	-81.56
853.281	-4.8
853.45	22.69
853.62	-41.91
853.789	-55.74
853.959	-38.74
854.128	-69.62
854.297	-119.64
854.467	-143.25
854.636	-148.44
854.805	-58.15
854.975	-101.76
855.144	-114.79
855.313	-34.97
855.482	-391.24
855.652	-203.52
855.821	-185.47
855.99	-39.7
856.159	-21.35
856.328	8.95
856.497	-20.97
856.667	-2.73
856.836	-11.53
857.005	-19.92
857.174	-42.2
857.343	-79.36
857.512	-60.45
857.681	-73.35
857.85	-163.6
858.019	-96.94
858.188	-71.56
858.356	-84.8
858.525	-153.42
858.694	-106.94
858.863	-234.03
859.032	-196.02
859.201	-262.06
859.369	-161.22
859.538	-99.36
859.707	-85.69
859.876	-68.62
860.044	-54.92
860.213	16.43
860.382	-7.06
860.55	13.57
860.719	52.87
860.888	56.76
861.056	8.23
861.225	-0.73
861.393	41.52
861.562	14.26
861.73	-50.78
861.899	-244.5
862.067	-2293.1
862.236	-169.67
862.404	-379.25
862.572	-259.6
862.741	-97.84
862.909	-76.33
863.078	-192.47
863.246	-115.77
863.414	-99.1
863.582	-74.27
863.751	-112.35
863.919	-93.32
864.087	-45.6
864.255	-100.92
864.424	-518.33
864.592	-85.25
864.76	-158.95
864.928	-563.2
865.096	-170.7
865.264	-46.63
865.432	-1320.45
865.6	2
865.768	-91.88
865.936	-135.01
866.104	-187.53
866.272	-272.5
866.44	-593.7
866.608	922.28
866.776	447.68
866.944	4351.16
867.112	-733.05
867.28	-318.61
867.448	-155.42
867.615	-82.2
867.783	-57.51
867.951	-64.39
868.119	0.84
868.286	-39.26
868.454	-141.58
868.622	-125.06
868.789	-173.31
868.957	-6271.43
869.125	-2389.47
869.292	-141.28
869.46	-250.94
869.627	-33.67
869.795	-46.63
869.963	-51.06
870.13	-25.64
870.298	2.5
870.465	-104.99
870.632	-122.97
870.8	-78.98
870.967	-177.43
871.135	-256.29
871.302	-188.3
871.469	-187.61
871.637	-328.47
871.804	-156.29
871.971	-223.32
872.139	-711.16
872.306	-97.04
872.473	-77.23
872.64	-280.26
872.807	-97.08
872.975	21.19
873.142	-162.18
873.309	1821.62
873.476	18.1
873.643	150.2
873.81	98.72
873.977	57.69
874.144	66.41
874.311	-95.76
874.478	-177.8
874.645	-203.29
874.812	-115.58
874.979	-77.55
875.146	-44.99
875.313	-77.93
875.48	18.51
875.647	-19.77
875.813	-53.08
875.98	-43.45
876.147	-62.33
876.314	-157.23
876.481	953.72
876.647	-1276.4
876.814	458.03
876.981	-33.08
877.147	-66.95
877.314	-43.98
877.481	-14.77
877.647	12.04
877.814	-47.22
877.98	-79.69
878.147	0.56
878.314	55.35
878.48	-56.79
878.647	-20.3
878.813	52.36
878.979	34.5
879.146	-23.58
879.312	1.31
879.479	-29.24
879.645	-135.11
879.811	-340.38
879.978	-787.02
880.144	-232.3
880.31	-87.36
880.477	-275.99
880.643	-280.63
880.809	-155.18
880.975	-115.06
881.142	-1049.09
881.308	-131.64
881.474	-62.26
881.64	-64.47
881.806	-186.31
881.972	-60.52
882.138	-115.91
882.304	-277.23
882.47	-373.74
882.636	-1177.05
882.802	-411.46
882.968	-120.03
883.134	-34.48
883.3	-40
883.466	16.27
883.632	46.63
883.798	-1.85
883.964	-40
884.129	-1.76
884.295	29.66
884.461	-45.8
884.627	-63.95
884.793	-60.56
884.958	-27.53
885.124	-116.26
885.29	-201.43
885.455	-216.5
885.621	-83.88
885.787	-116.97
885.952	-45.18
886.118	-40.74
886.283	-44.82
886.449	-117.8
886.614	-132.68
886.78	-349.23
886.945	1326.23
887.111	-637.57
887.276	-440.91
887.442	-1070.91
887.607	-340.57
887.773	-301.59
887.938	-303.66
888.103	-346.13
888.269	-221.08
888.434	-464.86
888.599	-200.24
888.764	-79.49
888.93	-14.07
889.095	-50.61
889.26	-87.88
889.425	-21.24
889.59	8.94
889.756	-80.71
889.921	-20.61
890.086	11.36
890.251	-4.06
890.416	-169.34
890.581	-1304.84
890.746	203.21
890.911	377.71
891.076	209.02
891.241	-552.24
891.406	-14.84
891.571	-97.16
891.736	-464.68
891.901	-962.83
892.065	1116.48
892.23	251.17
892.395	384.34
892.56	525.14
892.725	-648.44
892.889	-1914.63
893.054	-278.86
893.219	-65.02
893.384	-10.85
893.548	-84.25
893.713	-102.75
893.878	-67.76
