Data from Ofra_1a_PS_OGT14_Reflection_3.txt Node
Date: Tue Jul 20 10:41:42 EDT 2021
User: Adam
Spectrometer: FLMT01687
Trigger mode: 0
Integration Time (sec): 1.004000E0
Scans to average: 2
Electric dark correction enabled: true
Nonlinearity correction enabled: false
Boxcar width: 2
XAxis mode: Wavelengths
Number of Pixels in Spectrum: 3648
>>>>>Begin Spectral Data<<<<<
179.494	-178.68
179.716	-188.55
179.937	568.56
180.158	-563.06
180.38	145.68
180.601	33.61
180.823	85.74
181.044	53.06
181.265	190.93
181.486	74.41
181.708	-41.04
181.929	4872.73
182.15	-40.06
182.372	-303.45
182.593	-51.25
182.814	14.94
183.035	52.68
183.257	38.69
183.478	-20.85
183.699	-62.24
183.92	-106.7
184.141	-150.72
184.363	-136.28
184.584	-110.66
184.805	-10.96
185.026	31.46
185.247	33.76
185.468	36.03
185.689	16.54
185.91	-40.5
186.132	-53.98
186.353	-35.5
186.574	-31.87
186.795	-18.25
187.016	20.03
187.237	15.06
187.458	13.26
187.679	1.37
187.9	-0.91
188.121	-11.11
188.342	35.98
188.563	41.48
188.784	63.31
189.005	48.22
189.226	39.71
189.447	9.25
189.667	-10.01
189.888	-36.46
190.109	-76.78
190.33	-72.14
190.551	-60.51
190.772	-34.36
190.993	-40.75
191.214	-8.06
191.434	-28.9
191.655	-30.34
191.876	-18.23
192.097	18.3
192.318	21.14
192.538	2.38
192.759	-7.83
192.98	-0.94
193.201	-4.6
193.421	-5.7
193.642	4.64
193.863	15.49
194.083	0.56
194.304	0.36
194.525	-18.14
194.745	-11.99
194.966	3.87
195.187	20.71
195.407	6.14
195.628	25.82
195.848	27.26
196.069	-8.96
196.29	-47.94
196.51	-43.84
196.731	-64.2
196.951	-102.36
197.172	-53.11
197.392	-36.5
197.613	-9.56
197.833	-27.75
198.054	-12.87
198.274	-25.41
198.495	-39.57
198.715	-75.22
198.936	-26.38
199.156	-19.52
199.377	-24.63
199.597	-4.9
199.817	13.45
200.038	-21.61
200.258	8.82
200.479	13.8
200.699	-2.03
200.919	-6.72
201.14	-1.65
201.36	-18.61
201.58	-54.28
201.801	-27.47
202.021	-48.6
202.241	-59.3
202.461	-49.02
202.682	-14.94
202.902	-13.55
203.122	-12.53
203.342	-1.21
203.563	-6
203.783	-16.29
204.003	-19.27
204.223	5.55
204.443	-0.64
204.663	-33.1
204.884	-14.84
205.104	-39.1
205.324	-54.2
205.544	-75.33
205.764	-11.67
205.984	-13.54
206.204	-22.94
206.424	-43.31
206.644	-42.31
206.864	-93.17
207.084	-60.13
207.304	-72.01
207.525	-42.59
207.745	-12.99
207.964	2.11
208.184	10.49
208.404	21.07
208.624	23.96
208.844	-9.89
209.064	-12.8
209.284	-11.49
209.504	-36.53
209.724	-43.47
209.944	0.52
210.164	0.68
210.384	-3.37
210.604	-4.95
210.823	-8.4
211.043	-14.69
211.263	-90.25
211.483	-86.23
211.703	-44.15
211.922	-58.54
212.142	-84.54
212.362	-33.98
212.582	-21.36
212.801	-43.47
213.021	-43.3
213.241	-27.32
213.461	-26.55
213.68	-2.22
213.9	-0.28
214.12	-8.91
214.339	-13.69
214.559	-7.35
214.779	-33.08
214.998	-27.41
215.218	1.35
215.438	6.73
215.657	-14.58
215.877	-19.48
216.096	1.06
216.316	-5.38
216.535	-14.67
216.755	2.39
216.974	-1.44
217.194	-18.68
217.413	-20.31
217.633	-27.31
217.852	-25.82
218.072	-9.61
218.291	-10.17
218.511	-15.7
218.73	-23.43
218.95	-50.18
219.169	-65.56
219.389	-50.16
219.608	-68.48
219.827	-51.8
220.047	-34.46
220.266	-64.52
220.485	-89.75
220.705	-43.73
220.924	-31.58
221.143	-6.46
221.363	27.42
221.582	14.69
221.801	10.78
222.021	19.12
222.24	13.85
222.459	21.32
222.678	34.44
222.897	21.11
223.117	16.5
223.336	29.74
223.555	16.51
223.774	32.51
223.993	53.93
224.213	56.9
224.432	36.63
224.651	21.3
224.87	23.86
225.089	22.77
225.308	26.41
225.527	4.76
225.746	2.87
225.965	-7.91
226.184	-28.62
226.404	-48.59
226.623	-23.57
226.842	-18.09
227.061	-31.1
227.28	-2.65
227.499	6.52
227.718	-0.92
227.936	2.16
228.155	16.88
228.374	1.79
228.593	5.77
228.812	18.63
229.031	31.34
229.25	21.44
229.469	14.58
229.688	17.83
229.907	22.49
230.125	10.4
230.344	16.92
230.563	25.28
230.782	19.19
231.001	6.09
231.22	9.58
231.438	-3.16
231.657	1.05
231.876	-3.06
232.095	11.43
232.313	-4.91
232.532	1.24
232.751	-10.13
232.969	6.69
233.188	-20.67
233.407	-5.14
233.625	-8.52
233.844	2.91
234.063	1.06
234.281	6.78
234.5	1.28
234.719	-10.95
234.937	-27.26
235.156	-24
235.374	-13.8
235.593	4.96
235.811	27.08
236.03	23.38
236.249	18.14
236.467	17.69
236.686	11.13
236.904	11.4
237.123	7.1
237.341	9.95
237.559	0.08
237.778	12.62
237.996	-34.59
238.215	-68.93
238.433	-118.66
238.652	-49.49
238.87	-73.6
239.088	-50.94
239.307	-19.73
239.525	-7.04
239.743	-11.36
239.962	-26.95
240.18	-9.41
240.398	-19.89
240.617	-42.54
240.835	-58.8
241.053	-31
241.271	-24
241.49	-7.41
241.708	-7.83
241.926	-10.57
242.144	-5.7
242.363	-44.28
242.581	-104.01
242.799	-79.66
243.017	-35.85
243.235	-34.99
243.453	-39.46
243.672	-7.05
243.89	-4.47
244.108	-2.89
244.326	22.5
244.544	40.79
244.762	25.74
244.98	22.71
245.198	25.25
245.416	11.18
245.634	-8.59
245.852	-19.97
246.07	-9.39
246.288	-17.87
246.506	-28.38
246.724	-35.3
246.942	-17.15
247.16	-29
247.378	-70.26
247.596	-21.78
247.814	-23.72
248.032	-28.6
248.25	30.26
248.468	41.6
248.685	27.11
248.903	22.95
249.121	20.22
249.339	10.89
249.557	8.72
249.775	6.85
249.992	9.48
250.21	4.63
250.428	7.79
250.646	5.86
250.863	-8.22
251.081	4.93
251.299	5.39
251.517	-3
251.734	-4.83
251.952	-3.69
252.17	-19.41
252.387	-33.33
252.605	-26.27
252.823	-48.08
253.04	-6.1
253.258	-6.73
253.475	1.88
253.693	-9.54
253.911	-6.32
254.128	-24.94
254.346	-13.64
254.563	6.07
254.781	9.3
254.998	5.31
255.216	-35.58
255.433	-37.76
255.651	-26.98
255.868	-39.75
256.086	-29.6
256.303	1.22
256.521	16.19
256.738	-10.3
256.956	-3.9
257.173	-16.66
257.39	-11.27
257.608	-23.85
257.825	-17.93
258.043	-11.31
258.26	0.18
258.477	-4.41
258.695	-8.19
258.912	-19.04
259.129	-43.14
259.346	-53.61
259.564	-44.62
259.781	-64.83
259.998	-19.92
260.216	12.47
260.433	7.92
260.65	-4.01
260.867	-4.79
261.084	-6.13
261.302	-25.67
261.519	-16.07
261.736	-11.84
261.953	7.88
262.17	12.24
262.387	19.14
262.604	29.72
262.822	37.05
263.039	39.74
263.256	28.71
263.473	31.14
263.69	27.82
263.907	23.9
264.124	23.75
264.341	31.44
264.558	3.69
264.775	-2.45
264.992	-3.46
265.209	-26.7
265.426	-53.34
265.643	-18.03
265.86	-67.47
266.077	-49.37
266.294	-18.64
266.51	21.62
266.727	22.24
266.944	32.26
267.161	24.26
267.378	30.91
267.595	2.92
267.812	-11.87
268.028	-19.93
268.245	-18.77
268.462	-21.93
268.679	-8.05
268.896	2.35
269.112	3.68
269.329	-23.21
269.546	-18.9
269.763	-15.06
269.979	-17.38
270.196	-15.51
270.413	-4.31
270.629	-14.14
270.846	-17.9
271.063	-24
271.279	-20.08
271.496	-16.08
271.712	1.9
271.929	11.29
272.146	29.29
272.362	29.84
272.579	17.85
272.795	-5.54
273.012	-12.45
273.228	-12.3
273.445	-18.48
273.661	-31.93
273.878	-27.61
274.094	-32.03
274.311	-36.54
274.527	-61
274.744	-25.49
274.96	-14.56
275.177	-7.93
275.393	9.44
275.609	29.69
275.826	19.53
276.042	15.43
276.259	25.51
276.475	13.43
276.691	8.62
276.908	27.68
277.124	52.92
277.34	33.68
277.557	25.06
277.773	31.2
277.989	13.7
278.205	-1.45
278.422	-3.6
278.638	-4.11
278.854	-3.11
279.07	0.51
279.286	-4.38
279.503	9.74
279.719	20.68
279.935	6.47
280.151	-19.48
280.367	-9.57
280.583	-26.09
280.799	-31.76
281.016	-60.36
281.232	-16.12
281.448	-38.17
281.664	-14.37
281.88	-18.53
282.096	5.58
282.312	9.35
282.528	13.83
282.744	-5.58
282.96	-6.88
283.176	-39.49
283.392	-86.89
283.608	-65.41
283.824	-63.17
284.04	-109.38
284.256	-37.5
284.471	-23.08
284.687	-24.78
284.903	-17.61
285.119	2.58
285.335	0.57
285.551	-6.76
285.767	-31.96
285.982	-43.04
286.198	-74.25
286.414	-82.16
286.63	-63.27
286.846	-29.37
287.061	14.79
287.277	26.71
287.493	39.33
287.709	29.73
287.924	27.24
288.14	6.95
288.356	20.3
288.571	-3.63
288.787	-14.98
289.003	-4.09
289.218	-22.24
289.434	-33.46
289.65	-11.47
289.865	-6.63
290.081	-13.12
290.296	-0.2
290.512	-11.14
290.727	-24.16
290.943	-18.37
291.159	-16.33
291.374	-44.68
291.59	-22.77
291.805	-29.05
292.021	-34.93
292.236	-45.3
292.451	-21.57
292.667	-35.85
292.882	-20.26
293.098	-16.73
293.313	-17.25
293.529	-11.32
293.744	-22.52
293.959	-20.26
294.175	-18.07
294.39	-3.99
294.605	4.53
294.821	21.13
295.036	27
295.251	31.55
295.467	23.06
295.682	16.32
295.897	4.27
296.112	-5.12
296.328	-5.57
296.543	-21.91
296.758	-29.77
296.973	-16.55
297.188	-30.11
297.404	-71.4
297.619	-77.36
297.834	-88.97
298.049	-81.81
298.264	-53.6
298.479	-42.98
298.694	2.74
298.909	9.84
299.125	-0.98
299.34	-1.44
299.555	-2.63
299.77	7.71
299.985	11.3
300.2	20.98
300.415	15.39
300.63	7.93
300.845	-7.47
301.06	-20.89
301.275	-21.11
301.49	-11.27
301.704	6.96
301.919	4.97
302.134	14.85
302.349	0.67
302.564	-0.11
302.779	-16.12
302.994	-13.63
303.209	-18.15
303.423	-30.33
303.638	-42.11
303.853	-59.07
304.068	-68.32
304.283	-46.81
304.497	-45.54
304.712	-28.27
304.927	-4.81
305.142	1.38
305.356	1.16
305.571	13.1
305.786	13.99
306	15.85
306.215	11.39
306.43	2.79
306.644	-21.48
306.859	-38.1
307.074	-5.43
307.288	12.35
307.503	6.41
307.717	15.9
307.932	29.34
308.147	12.41
308.361	-3.18
308.576	-1.86
308.79	8.32
309.005	-4.75
309.219	-7.41
309.434	2.15
309.648	3.07
309.863	-7.98
310.077	-10.16
310.292	3.62
310.506	-19.61
310.72	-27.94
310.935	5.33
311.149	16.05
311.364	18.85
311.578	33.04
311.792	39.39
312.007	3.7
312.221	-19.4
312.435	-32.11
312.649	-18.4
312.864	-9.65
313.078	-7.15
313.292	-8.19
313.507	-10.42
313.721	-12.18
313.935	-20.71
314.149	-19.26
314.363	-24.18
314.578	-13.32
314.792	-53.83
315.006	-42.94
315.22	-19.74
315.434	-4.3
315.648	-18.64
315.862	-11.47
316.077	-18.66
316.291	-26.35
316.505	-54.4
316.719	-25.45
316.933	-17.44
317.147	-18.22
317.361	-24.98
317.575	-19.82
317.789	-24.07
318.003	-30.52
318.217	-21.39
318.431	-32.56
318.645	-23.99
318.859	-14.71
319.073	7.56
319.287	1.83
319.5	10.31
319.714	12.05
319.928	8.7
320.142	-4.99
320.356	-3
320.57	-23.97
320.784	-25.94
320.997	-47.81
321.211	-26.81
321.425	-46.9
321.639	-7.66
321.853	4.85
322.066	4.9
322.28	-7.58
322.494	4
322.707	-2.59
322.921	-8.11
323.135	-0.92
323.349	-2.94
323.562	-3.2
323.776	-1.21
323.989	1.39
324.203	-9.69
324.417	3.52
324.63	3.16
324.844	-11.93
325.057	-22.24
325.271	-0.53
325.485	-15.02
325.698	-7.27
325.912	5.68
326.125	-5.56
326.339	-8.78
326.552	-12.58
326.766	-28.04
326.979	-31.98
327.193	-17.42
327.406	-23
327.619	0.71
327.833	-2.59
328.046	5.72
328.26	1.73
328.473	4.53
328.686	-1.44
328.9	7.45
329.113	-12.32
329.326	-5.72
329.54	-0.93
329.753	4.58
329.966	7.4
330.179	12.31
330.393	4.85
330.606	-0.22
330.819	-21.89
331.032	-20.28
331.246	0.56
331.459	26.9
331.672	25.31
331.885	41.29
332.098	44.17
332.311	14.32
332.525	-11.43
332.738	5.89
332.951	-2.49
333.164	-5.46
333.377	0.31
333.59	3.59
333.803	-6.72
334.016	5.18
334.229	0.67
334.442	10.3
334.655	14.51
334.868	10.21
335.081	-1.64
335.294	0.99
335.507	-1.47
335.72	-10.57
335.933	-26.56
336.146	-20.08
336.359	-1.04
336.572	-3.48
336.785	-7.29
336.997	8.91
337.21	8.37
337.423	-42.13
337.636	-29.03
337.849	-17.94
338.062	-11.42
338.274	-11.22
338.487	-14.6
338.7	-25.87
338.913	-12.12
339.125	-18.29
339.338	-16.45
339.551	6.28
339.763	9.04
339.976	5.63
340.189	-5.19
340.402	-2.09
340.614	-4.49
340.827	-0.79
341.039	-10.61
341.252	6.33
341.465	-10.46
341.677	-11
341.89	-18.99
342.102	-11.2
342.315	-12.48
342.527	-7.7
342.74	-24.45
342.952	-12.92
343.165	-17.82
343.377	-7.65
343.59	10.66
343.802	25.92
344.015	16.03
344.227	21.93
344.44	4.6
344.652	-8.24
344.864	-5.03
345.077	10.11
345.289	3.23
345.502	22.82
345.714	22.3
345.926	19.02
346.139	-1.08
346.351	17.95
346.563	-3.3
346.775	6.41
346.988	7.12
347.2	2.69
347.412	-7
347.624	-2.98
347.837	7.67
348.049	-2.89
348.261	-10.55
348.473	-15.39
348.685	-28.47
348.897	-43.41
349.11	-23.67
349.322	-20.27
349.534	-33
349.746	-15.61
349.958	-23.34
350.17	-49.73
350.382	-32.99
350.594	-9.96
350.806	13.86
351.018	16.62
351.23	32.17
351.442	27.58
351.654	24.55
351.866	10.59
352.078	10.05
352.29	-3.13
352.502	-7.88
352.714	-24.41
352.926	-18.02
353.138	-20.16
353.35	-27.7
353.561	-16.62
353.773	-13.24
353.985	-8.66
354.197	-1.2
354.409	10.83
354.621	-2.27
354.832	-1.62
355.044	-19.71
355.256	-23.6
355.468	-39.64
355.679	0.83
355.891	9.01
356.103	7.74
356.314	-5.55
356.526	-12.92
356.738	-35.91
356.949	-33.33
357.161	-24.79
357.373	-7.14
357.584	-0.54
357.796	5.46
358.008	4.69
358.219	5.23
358.431	-9.8
358.642	1.79
358.854	-8.5
359.065	-14.18
359.277	-4.42
359.488	7.44
359.7	-4.32
359.911	-6.08
360.123	3.76
360.334	-18.21
360.546	-25.45
360.757	-17.04
360.969	-15.44
361.18	-24.04
361.391	-7.71
361.603	-5.74
361.814	1.41
362.025	5.13
362.237	3.87
362.448	9.28
362.659	10.59
362.871	5.35
363.082	9.74
363.293	-9.51
363.504	-40.13
363.716	-57.66
363.927	-33.18
364.138	-57.9
364.349	-47.38
364.56	-52.83
364.772	-14.38
364.983	-13.62
365.194	-4.04
365.405	-6.11
365.616	8.51
365.827	-24.68
366.038	-12.54
366.25	-6.27
366.461	2.18
366.672	-5.01
366.883	8.51
367.094	-7.66
367.305	-25.92
367.516	-28.39
367.727	-17.72
367.938	-18.83
368.149	-29.96
368.36	-23.64
368.571	-38.82
368.781	-52.67
368.992	-44.38
369.203	-25.78
369.414	-30.19
369.625	-18.84
369.836	6.68
370.047	7.23
370.258	3.59
370.468	10.54
370.679	22.47
370.89	-7.05
371.101	19.21
371.312	9.42
371.522	11.73
371.733	-1.07
371.944	-2.27
372.155	-21.46
372.365	-13.12
372.576	-13.73
372.787	1.19
372.997	14.65
373.208	6.49
373.419	3.38
373.629	1.01
373.84	-17.36
374.05	-22.53
374.261	-42.68
374.472	-45.76
374.682	-38.28
374.893	-28.81
375.103	-25.89
375.314	-7.6
375.524	-1.78
375.735	-8.4
375.945	-4.49
376.156	1.53
376.366	-5.32
376.577	4.13
376.787	14.02
376.997	10.53
377.208	8.28
377.418	10.31
377.629	9.69
377.839	11.66
378.049	11.72
378.26	6.55
378.47	-0.58
378.68	1.71
378.89	-2.73
379.101	4.88
379.311	5.9
379.521	11.22
379.732	6.16
379.942	1.79
380.152	-5.64
380.362	-4.87
380.572	-0.16
380.783	13.84
380.993	18.65
381.203	18.35
381.413	18.84
381.623	13.36
381.833	5.91
382.043	2.29
382.253	0.64
382.463	11.07
382.674	14.33
382.884	16.9
383.094	10.75
383.304	15
383.514	6.65
383.724	9.95
383.934	-1.04
384.144	4.57
384.353	5.1
384.563	4.96
384.773	-1.91
384.983	-1.6
385.193	-2.52
385.403	-10.96
385.613	-2.95
385.823	-1.82
386.033	0.38
386.242	-2.83
386.452	1.04
386.662	2.09
386.872	3.06
387.082	-0.64
387.291	-0.29
387.501	2.77
387.711	-4.11
387.921	-3.86
388.13	2.23
388.34	5.17
388.55	-0.9
388.759	-2.45
388.969	0.18
389.179	-1.66
389.388	-4.24
389.598	-0.48
389.807	-1.76
390.017	-6.4
390.227	-6.66
390.436	-2.59
390.646	-4
390.855	-3.88
391.065	-1.89
391.274	-1.46
391.484	-6.3
391.693	-6.11
391.903	-4.92
392.112	-1.86
392.322	-2.62
392.531	-3.06
392.74	-2.45
392.95	-2.67
393.159	-4.95
393.369	-5.05
393.578	-3.6
393.787	-2.96
393.997	-1.33
394.206	-0.06
394.415	-0.16
394.625	-0.52
394.834	-1.21
395.043	-0.48
395.252	1.56
395.462	2.52
395.671	2.6
395.88	3.59
396.089	2.58
396.298	0.95
396.508	0.94
396.717	0.96
396.926	0.38
397.135	1.09
397.344	0.96
397.553	0.68
397.762	2.21
397.971	2
398.181	1.3
398.39	1.18
398.599	1.26
398.808	0.31
399.017	1.15
399.226	1.49
399.435	1.36
399.644	1.45
399.853	1.47
400.062	1.29
400.27	0.56
400.479	1.05
400.688	0.89
400.897	1.18
401.106	0.97
401.315	1.52
401.524	1.42
401.733	1.45
401.941	1.57
402.15	1.57
402.359	1.66
402.568	1.6
402.777	1.95
402.985	1.68
403.194	1.7
403.403	1.85
403.612	1.81
403.82	1.39
404.029	1.53
404.238	1.58
404.446	1.54
404.655	1.73
404.864	2
405.072	1.95
405.281	1.75
405.489	1.64
405.698	1.59
405.906	1.55
406.115	1.48
406.324	1.75
406.532	1.83
406.741	1.8
406.949	1.81
407.158	1.89
407.366	1.69
407.574	1.64
407.783	1.63
407.991	1.53
408.2	1.54
408.408	1.58
408.617	1.56
408.825	1.47
409.033	1.45
409.242	1.49
409.45	1.5
409.658	1.43
409.867	1.5
410.075	1.61
410.283	1.51
410.491	1.4
410.7	1.37
410.908	1.32
411.116	1.31
411.324	1.32
411.533	1.41
411.741	1.39
411.949	1.47
412.157	1.36
412.365	1.47
412.573	1.45
412.781	1.49
412.99	1.51
413.198	1.65
413.406	1.71
413.614	1.73
413.822	1.86
414.03	1.84
414.238	1.89
414.446	1.81
414.654	1.82
414.862	1.74
415.07	1.64
415.278	1.58
415.486	1.49
415.694	1.53
415.902	1.62
416.109	1.53
416.317	1.58
416.525	1.55
416.733	1.44
416.941	1.33
417.149	1.36
417.357	1.26
417.564	1.2
417.772	1.3
417.98	1.25
418.188	1.27
418.395	1.06
418.603	1.08
418.811	1.09
419.019	1.24
419.226	1.36
419.434	1.5
419.642	1.45
419.849	1.33
420.057	1.23
420.265	1.16
420.472	1.1
420.68	1.22
420.887	1.21
421.095	1.22
421.302	1.27
421.51	1.25
421.717	1.22
421.925	1.29
422.132	1.3
422.34	1.11
422.547	1.09
422.755	1.22
422.962	1.17
423.17	0.98
423.377	1.1
423.585	1.3
423.792	1.14
423.999	1.19
424.207	1.12
424.414	1.13
424.621	1.19
424.829	1.13
425.036	1.27
425.243	1.49
425.451	1.48
425.658	1.3
425.865	1.4
426.072	1.34
426.28	1.46
426.487	1.48
426.694	1.41
426.901	1.35
427.108	1.17
427.315	0.95
427.523	0.8
427.73	0.82
427.937	0.79
428.144	0.85
428.351	0.95
428.558	0.95
428.765	1.01
428.972	1.08
429.179	0.95
429.386	0.98
429.593	1.09
429.8	0.99
430.007	1.09
430.214	1.23
430.421	1.28
430.628	1.22
430.835	1.31
431.042	1.22
431.249	1.21
431.456	1.14
431.662	1.3
431.869	1.44
432.076	1.39
432.283	1.52
432.49	1.46
432.697	1.43
432.903	1.36
433.11	1.47
433.317	1.37
433.524	1.45
433.73	1.41
433.937	1.53
434.144	1.43
434.35	1.36
434.557	1.38
434.764	1.39
434.97	1.18
435.177	1.33
435.384	1.46
435.59	1.48
435.797	1.47
436.003	1.59
436.21	1.48
436.416	1.4
436.623	1.41
436.829	1.42
437.036	1.44
437.242	1.53
437.449	1.52
437.655	1.46
437.862	1.51
438.068	1.49
438.275	1.48
438.481	1.55
438.687	1.61
438.894	1.8
439.1	1.81
439.307	1.86
439.513	1.96
439.719	2.06
439.926	1.87
440.132	1.94
440.338	1.88
440.544	1.77
440.751	1.55
440.957	1.63
441.163	1.56
441.369	1.66
441.575	1.67
441.782	1.82
441.988	1.82
442.194	1.74
442.4	1.72
442.606	1.85
442.812	1.86
443.018	1.81
443.224	2.04
443.431	2
443.637	1.91
443.843	1.9
444.049	1.95
444.255	2
444.461	1.97
444.667	1.95
444.873	1.98
445.079	2.04
445.284	1.9
445.49	1.92
445.696	1.96
445.902	1.97
446.108	2
446.314	2.02
446.52	2.14
446.726	2.19
446.931	2.09
447.137	1.99
447.343	2.08
447.549	2.09
447.755	2.07
447.96	2.21
448.166	2.33
448.372	2.26
448.578	2.11
448.783	2.16
448.989	2.13
449.195	2.01
449.4	2
449.606	2.1
449.812	1.99
450.017	2.06
450.223	2.14
450.428	2.15
450.634	2.06
450.84	2.15
451.045	2.07
451.251	2.06
451.456	2.09
451.662	2.3
451.867	2.28
452.073	2.37
452.278	2.38
452.483	2.37
452.689	2.31
452.894	2.38
453.1	2.39
453.305	2.39
453.51	2.45
453.716	2.37
453.921	2.34
454.127	2.23
454.332	2.19
454.537	2.16
454.742	2.13
454.948	2.12
455.153	2.18
455.358	2.23
455.563	2.31
455.769	2.35
455.974	2.33
456.179	2.29
456.384	2.18
456.589	2.08
456.795	2.09
457	2.09
457.205	2.08
457.41	2.11
457.615	2.15
457.82	2.2
458.025	2.21
458.23	2.28
458.435	2.34
458.64	2.38
458.845	2.37
459.05	2.44
459.255	2.44
459.46	2.44
459.665	2.36
459.87	2.32
460.075	2.31
460.28	2.35
460.485	2.43
460.69	2.49
460.895	2.55
461.099	2.47
461.304	2.33
461.509	2.27
461.714	2.27
461.919	2.24
462.123	2.29
462.328	2.26
462.533	2.23
462.738	2.1
462.942	2.07
463.147	2.09
463.352	2.26
463.556	2.3
463.761	2.45
463.966	2.54
464.17	2.55
464.375	2.59
464.58	2.49
464.784	2.5
464.989	2.47
465.193	2.48
465.398	2.51
465.602	2.81
465.807	2.79
466.011	2.78
466.216	2.83
466.42	2.82
466.625	2.73
466.829	2.7
467.034	2.86
467.238	2.91
467.443	2.86
467.647	2.85
467.851	3
468.056	2.92
468.26	2.87
468.464	2.91
468.669	2.88
468.873	2.83
469.077	2.83
469.282	2.85
469.486	2.84
469.69	2.82
469.894	2.81
470.099	2.83
470.303	2.76
470.507	2.81
470.711	2.83
470.915	2.93
471.119	2.91
471.324	3.06
471.528	3.04
471.732	3.13
471.936	3.05
472.14	3.15
472.344	3.23
472.548	3.28
472.752	3.22
472.956	3.28
473.16	3.21
473.364	3.12
473.568	3.07
473.772	3.1
473.976	3.16
474.18	3.26
474.384	3.29
474.588	3.38
474.792	3.41
474.995	3.41
475.199	3.34
475.403	3.36
475.607	3.34
475.811	3.38
476.015	3.32
476.218	3.32
476.422	3.29
476.626	3.33
476.83	3.39
477.033	3.47
477.237	3.51
477.441	3.49
477.644	3.46
477.848	3.43
478.052	3.43
478.255	3.47
478.459	3.51
478.663	3.62
478.866	3.63
479.07	3.55
479.273	3.61
479.477	3.63
479.681	3.63
479.884	3.66
480.088	3.76
480.291	3.7
480.495	3.72
480.698	3.66
480.901	3.64
481.105	3.6
481.308	3.69
481.512	3.75
481.715	3.81
481.919	3.86
482.122	3.93
482.325	3.88
482.529	3.87
482.732	3.81
482.935	3.79
483.138	3.74
483.342	3.8
483.545	3.88
483.748	3.97
483.952	4.02
484.155	4.11
484.358	4.12
484.561	4.06
484.764	3.99
484.967	4
485.171	3.94
485.374	3.9
485.577	3.94
485.78	3.94
485.983	3.89
486.186	3.86
486.389	3.9
486.592	3.9
486.795	3.97
486.998	3.94
487.201	4.01
487.404	4.07
487.607	4.05
487.81	3.98
488.013	4.01
488.216	4.02
488.419	3.9
488.622	3.87
488.825	3.88
489.028	3.95
489.231	3.88
489.433	3.94
489.636	3.92
489.839	4.04
490.042	4.03
490.245	4.08
490.447	4.07
490.65	4.19
490.853	4.16
491.056	4.13
491.258	4.16
491.461	4.16
491.664	4.15
491.866	4.06
492.069	4.07
492.272	3.97
492.474	3.97
492.677	3.93
492.879	3.99
493.082	4.04
493.285	4.25
493.487	4.26
493.69	4.27
493.892	4.26
494.095	4.24
494.297	4.17
494.5	4.19
494.702	4.21
494.905	4.27
495.107	4.3
495.309	4.32
495.512	4.32
495.714	4.32
495.917	4.34
496.119	4.35
496.321	4.33
496.524	4.3
496.726	4.25
496.928	4.22
497.13	4.23
497.333	4.2
497.535	4.34
497.737	4.39
497.939	4.35
498.142	4.37
498.344	4.43
498.546	4.35
498.748	4.42
498.95	4.49
499.152	4.5
499.355	4.45
499.557	4.46
499.759	4.48
499.961	4.48
500.163	4.47
500.365	4.59
500.567	4.64
500.769	4.66
500.971	4.7
501.173	4.74
501.375	4.8
501.577	4.76
501.779	4.69
501.981	4.7
502.183	4.68
502.385	4.64
502.587	4.73
502.788	4.8
502.99	4.79
503.192	4.9
503.394	4.9
503.596	4.87
503.798	4.84
503.999	4.89
504.201	4.85
504.403	4.84
504.605	4.88
504.806	4.97
505.008	4.98
505.21	5.02
505.411	5.09
505.613	5.15
505.815	5.17
506.016	5.23
506.218	5.27
506.42	5.25
506.621	5.3
506.823	5.27
507.024	5.25
507.226	5.3
507.427	5.33
507.629	5.39
507.83	5.48
508.032	5.49
508.233	5.54
508.435	5.62
508.636	5.57
508.838	5.59
509.039	5.64
509.24	5.62
509.442	5.59
509.643	5.65
509.845	5.64
510.046	5.69
510.247	5.76
510.448	5.81
510.65	5.83
510.851	5.86
511.052	5.84
511.254	5.88
511.455	5.85
511.656	5.8
511.857	5.81
512.058	5.82
512.26	5.77
512.461	5.84
512.662	5.97
512.863	5.94
513.064	6.03
513.265	6.08
513.466	6.12
513.667	6.07
513.868	6.12
514.069	6.12
514.27	6.14
514.471	6.1
514.672	6.13
514.873	6.14
515.074	6.15
515.275	6.14
515.476	6.17
515.677	6.2
515.878	6.27
516.079	6.31
516.28	6.33
516.481	6.35
516.682	6.36
516.882	6.39
517.083	6.33
517.284	6.39
517.485	6.43
517.686	6.5
517.886	6.52
518.087	6.55
518.288	6.57
518.488	6.59
518.689	6.55
518.89	6.57
519.091	6.7
519.291	6.64
519.492	6.65
519.692	6.66
519.893	6.64
520.094	6.54
520.294	6.59
520.495	6.57
520.695	6.56
520.896	6.56
521.096	6.62
521.297	6.63
521.497	6.71
521.698	6.71
521.898	6.74
522.099	6.75
522.299	6.77
522.499	6.71
522.7	6.82
522.9	6.83
523.101	6.81
523.301	6.84
523.501	6.88
523.702	6.87
523.902	6.89
524.102	7.01
524.302	7.04
524.503	7.08
524.703	7.05
524.903	7.06
525.103	7.04
525.304	7.04
525.504	7.1
525.704	7.14
525.904	7.14
526.104	7.1
526.304	7.14
526.504	7.1
526.705	7.09
526.905	7.12
527.105	7.17
527.305	7.16
527.505	7.12
527.705	7.11
527.905	7.17
528.105	7.22
528.305	7.27
528.505	7.3
528.705	7.37
528.905	7.33
529.105	7.32
529.304	7.34
529.504	7.39
529.704	7.43
529.904	7.5
530.104	7.51
530.304	7.51
530.503	7.55
530.703	7.54
530.903	7.57
531.103	7.59
531.303	7.6
531.502	7.68
531.702	7.67
531.902	7.69
532.101	7.73
532.301	7.77
532.501	7.79
532.7	7.86
532.9	7.86
533.1	7.88
533.299	7.9
533.499	7.87
533.698	7.88
533.898	7.95
534.097	7.95
534.297	8
534.496	7.98
534.696	7.99
534.895	8
535.095	8.06
535.294	8.04
535.494	8.11
535.693	8.18
535.892	8.2
536.092	8.16
536.291	8.21
536.491	8.25
536.69	8.27
536.889	8.28
537.088	8.34
537.288	8.34
537.487	8.33
537.686	8.28
537.886	8.29
538.085	8.32
538.284	8.37
538.483	8.38
538.682	8.43
538.882	8.47
539.081	8.47
539.28	8.53
539.479	8.6
539.678	8.67
539.877	8.71
540.076	8.81
540.275	8.8
540.474	8.79
540.673	8.82
540.872	8.84
541.071	8.84
541.27	8.87
541.469	8.95
541.668	8.94
541.867	8.98
542.066	9
542.265	9.09
542.464	9.12
542.663	9.22
542.862	9.3
543.06	9.42
543.259	9.47
543.458	9.5
543.657	9.51
543.856	9.61
544.054	9.56
544.253	9.57
544.452	9.72
544.651	9.77
544.849	9.75
545.048	9.83
545.247	9.94
545.445	9.92
545.644	9.99
545.843	10.07
546.041	10.16
546.24	10.16
546.438	10.24
546.637	10.29
546.836	10.31
547.034	10.35
547.233	10.38
547.431	10.44
547.63	10.46
547.828	10.49
548.027	10.54
548.225	10.63
548.423	10.68
548.622	10.78
548.82	10.84
549.019	10.9
549.217	10.98
549.415	10.99
549.614	11.14
549.812	11.25
550.01	11.29
550.209	11.38
550.407	11.48
550.605	11.4
550.803	11.46
551.002	11.55
551.2	11.55
551.398	11.67
551.596	11.82
551.794	11.85
551.993	11.93
552.191	12.04
552.389	12.04
552.587	12.1
552.785	12.21
552.983	12.33
553.181	12.41
553.379	12.55
553.577	12.65
553.775	12.79
553.973	12.89
554.171	13.03
554.369	13.15
554.567	13.26
554.765	13.34
554.963	13.35
555.161	13.37
555.359	13.51
555.557	13.56
555.755	13.66
555.952	13.86
556.15	14.04
556.348	14.02
556.546	14.21
556.744	14.26
556.941	14.23
557.139	14.27
557.337	14.43
557.535	14.46
557.732	14.57
557.93	14.77
558.128	14.92
558.325	14.99
558.523	15.17
558.721	15.29
558.918	15.35
559.116	15.46
559.313	15.57
559.511	15.65
559.708	15.78
559.906	15.95
560.104	16.05
560.301	16.22
560.498	16.34
560.696	16.43
560.893	16.46
561.091	16.5
561.288	16.67
561.486	16.73
561.683	16.86
561.88	17.04
562.078	17.17
562.275	17.21
562.473	17.33
562.67	17.49
562.867	17.6
563.064	17.69
563.262	17.79
563.459	17.91
563.656	17.97
563.853	17.93
564.051	18.16
564.248	18.35
564.445	18.42
564.642	18.52
564.839	18.8
565.036	18.84
565.234	18.88
565.431	19.03
565.628	19.07
565.825	19.14
566.022	19.24
566.219	19.23
566.416	19.28
566.613	19.47
566.81	19.54
567.007	19.57
567.204	19.7
567.401	19.84
567.598	19.9
567.795	19.92
567.991	20.03
568.188	20.11
568.385	20.07
568.582	20.24
568.779	20.38
568.976	20.44
569.172	20.59
569.369	20.75
569.566	20.73
569.763	20.7
569.96	20.81
570.156	20.82
570.353	20.87
570.55	20.87
570.746	20.94
570.943	21.02
571.14	21.15
571.336	21.14
571.533	21.2
571.729	21.34
571.926	21.38
572.123	21.42
572.319	21.49
572.516	21.63
572.712	21.59
572.909	21.57
573.105	21.59
573.302	21.63
573.498	21.53
573.695	21.67
573.891	21.65
574.087	21.58
574.284	21.59
574.48	21.68
574.677	21.61
574.873	21.64
575.069	21.76
575.266	21.82
575.462	21.84
575.658	21.96
575.854	22.01
576.051	22.02
576.247	21.92
576.443	21.9
576.639	21.81
576.835	21.85
577.032	21.84
577.228	21.94
577.424	21.98
577.62	21.96
577.816	21.91
578.012	21.86
578.208	21.9
578.404	21.86
578.6	21.92
578.796	22.02
578.993	22.05
579.189	22.03
579.384	22.05
579.58	22.03
579.776	21.92
579.972	21.94
580.168	21.94
580.364	21.99
580.56	21.95
580.756	21.99
580.952	21.94
581.148	21.95
581.343	21.91
581.539	21.98
581.735	21.96
581.931	21.92
582.127	21.86
582.322	21.84
582.518	21.73
582.714	21.69
582.909	21.68
583.105	21.8
583.301	21.86
583.496	21.88
583.692	21.89
583.888	21.96
584.083	21.81
584.279	21.71
584.474	21.7
584.67	21.7
584.866	21.67
585.061	21.71
585.257	21.76
585.452	21.78
585.648	21.72
585.843	21.65
586.039	21.66
586.234	21.59
586.429	21.62
586.625	21.76
586.82	21.89
587.015	21.86
587.211	21.95
587.406	21.91
587.601	21.86
587.797	21.78
587.992	21.81
588.187	21.82
588.383	21.89
588.578	21.88
588.773	21.87
588.968	21.91
589.163	21.9
589.359	21.89
589.554	21.92
589.749	21.98
589.944	22.04
590.139	22.08
590.334	22.19
590.529	22.26
590.724	22.34
590.919	22.33
591.114	22.39
591.309	22.37
591.504	22.39
591.699	22.39
591.894	22.41
592.089	22.37
592.284	22.4
592.479	22.45
592.674	22.54
592.869	22.58
593.064	22.66
593.259	22.78
593.454	22.82
593.648	22.87
593.843	23.01
594.038	23.18
594.233	23.28
594.428	23.35
594.622	23.42
594.817	23.47
595.012	23.43
595.206	23.41
595.401	23.52
595.596	23.63
595.79	23.67
595.985	23.8
596.18	23.9
596.374	23.95
596.569	24.06
596.763	24.2
596.958	24.3
597.153	24.4
597.347	24.5
597.542	24.52
597.736	24.57
597.931	24.6
598.125	24.76
598.319	24.86
598.514	24.89
598.708	25.02
598.903	25.14
599.097	25.09
599.291	25.15
599.486	25.29
599.68	25.3
599.874	25.37
600.069	25.54
600.263	25.55
600.457	25.66
600.651	25.69
600.846	25.71
601.04	25.74
601.234	25.8
601.428	25.8
601.622	25.93
601.817	26.02
602.011	26
602.205	26.07
602.399	26.04
602.593	26.06
602.787	25.99
602.981	25.91
603.175	25.92
603.369	25.87
603.563	25.86
603.757	25.84
603.951	25.91
604.145	25.84
604.339	25.89
604.533	25.82
604.727	25.89
604.921	25.9
605.115	25.94
605.309	25.87
605.502	25.93
605.696	25.92
605.89	25.94
606.084	25.92
606.278	26.03
606.471	25.89
606.665	25.74
606.859	25.68
607.053	25.6
607.246	25.47
607.44	25.44
607.634	25.49
607.827	25.43
608.021	25.34
608.214	25.3
608.408	25.24
608.602	25.09
608.795	25.07
608.989	24.98
609.182	24.84
609.376	24.74
609.569	24.73
609.763	24.57
609.956	24.58
610.15	24.58
610.343	24.52
610.537	24.39
610.73	24.26
610.923	24.16
611.117	24.07
611.31	24
611.504	24.02
611.697	24.02
611.89	23.94
612.083	23.82
612.277	23.8
612.47	23.57
612.663	23.53
612.856	23.44
613.05	23.42
613.243	23.24
613.436	23.23
613.629	23.12
613.822	23.1
614.015	23.06
614.209	23.01
614.402	23.02
614.595	23.03
614.788	22.89
614.981	22.79
615.174	22.78
615.367	22.68
615.56	22.49
615.753	22.52
615.946	22.44
616.139	22.4
616.332	22.36
616.525	22.29
616.718	22.2
616.911	22.15
617.103	22.1
617.296	21.97
617.489	22.01
617.682	21.92
617.875	21.79
618.067	21.7
618.26	21.69
618.453	21.6
618.646	21.56
618.838	21.49
619.031	21.44
619.224	21.35
619.417	21.45
619.609	21.39
619.802	21.42
619.994	21.37
620.187	21.39
620.38	21.22
620.572	21.22
620.765	21.19
620.957	21.15
621.15	21.06
621.342	21.08
621.535	21
621.727	20.93
621.92	20.93
622.112	20.98
622.305	20.89
622.497	20.91
622.69	20.89
622.882	20.92
623.074	20.91
623.267	20.89
623.459	20.8
623.651	20.84
623.844	20.79
624.036	20.73
624.228	20.78
624.42	20.83
624.613	20.82
624.805	20.74
624.997	20.67
625.189	20.61
625.381	20.45
625.574	20.31
625.766	20.24
625.958	20.29
626.15	20.28
626.342	20.35
626.534	20.4
626.726	20.44
626.918	20.34
627.11	20.2
627.302	20.1
627.494	20.05
627.686	19.98
627.878	20
628.07	20.07
628.262	20.14
628.454	20.16
628.646	20.05
628.838	20.05
629.029	19.9
629.221	19.87
629.413	19.79
629.605	19.78
629.797	19.71
629.989	19.76
630.18	19.77
630.372	19.74
630.564	19.74
630.755	19.74
630.947	19.69
631.139	19.57
631.33	19.48
631.522	19.5
631.714	19.44
631.905	19.49
632.097	19.45
632.289	19.49
632.48	19.47
632.672	19.42
632.863	19.27
633.055	19.19
633.246	19.16
633.438	19.09
633.629	19.1
633.821	19.18
634.012	19.25
634.203	19.21
634.395	19.26
634.586	19.27
634.777	19.18
634.969	19.15
635.16	19.16
635.351	19.06
635.543	18.94
635.734	18.87
635.925	18.95
636.117	18.88
636.308	18.9
636.499	18.88
636.69	18.99
636.881	18.8
637.073	18.83
637.264	18.81
637.455	18.84
637.646	18.8
637.837	18.83
638.028	18.82
638.219	18.86
638.41	18.9
638.601	18.91
638.792	18.88
638.983	18.86
639.174	18.85
639.365	18.81
639.556	18.63
639.747	18.66
639.938	18.75
640.129	18.62
640.32	18.56
640.511	18.64
640.701	18.61
640.892	18.47
641.083	18.44
641.274	18.33
641.465	18.33
641.655	18.35
641.846	18.32
642.037	18.32
642.228	18.35
642.418	18.21
642.609	18.1
642.8	18.06
642.99	18.05
643.181	18.17
643.372	18.12
643.562	18.12
643.753	18.07
643.943	18
644.134	17.78
644.324	17.86
644.515	17.86
644.705	17.81
644.896	17.86
645.086	17.92
645.277	17.89
645.467	17.85
645.658	17.85
645.848	17.85
646.038	17.76
646.229	17.71
646.419	17.56
646.61	17.6
646.8	17.48
646.99	17.52
647.18	17.42
647.371	17.43
647.561	17.27
647.751	17.26
647.941	17.21
648.132	17.21
648.322	17.14
648.512	17.23
648.702	17.3
648.892	17.21
649.082	17.2
649.272	17.22
649.462	17.17
649.653	17.08
649.843	17.06
650.033	17.07
650.223	17.06
650.413	17.01
650.603	17.06
650.793	17.02
650.983	16.93
651.172	16.88
651.362	16.77
651.552	16.59
651.742	16.59
651.932	16.56
652.122	16.54
652.312	16.49
652.502	16.4
652.691	16.3
652.881	16.24
653.071	16.07
653.261	16.02
653.45	15.95
653.64	15.92
653.83	15.86
654.019	15.81
654.209	15.77
654.399	15.65
654.588	15.45
654.778	15.18
654.968	15.02
655.157	14.79
655.347	14.7
655.536	14.54
655.726	14.45
655.915	14.36
656.105	14.2
656.294	13.91
656.484	13.76
656.673	13.65
656.863	13.48
657.052	13.32
657.241	13.19
657.431	12.98
657.62	12.83
657.809	12.62
657.999	12.56
658.188	12.44
658.377	12.33
658.567	12.14
658.756	12.01
658.945	11.82
659.134	11.67
659.324	11.55
659.513	11.35
659.702	11.14
659.891	10.92
660.08	10.75
660.269	10.51
660.458	10.39
660.648	10.16
660.837	10.03
661.026	9.8
661.215	9.7
661.404	9.47
661.593	9.42
661.782	9.29
661.971	9.1
662.16	8.97
662.349	8.82
662.538	8.59
662.726	8.43
662.915	8.46
663.104	8.32
663.293	8.24
663.482	8.13
663.671	8.02
663.86	7.77
664.048	7.8
664.237	7.73
664.426	7.68
664.615	7.51
664.803	7.44
664.992	7.21
665.181	7.09
665.369	6.98
665.558	6.94
665.747	6.96
665.935	6.86
666.124	6.77
666.312	6.78
666.501	6.75
666.69	6.66
666.878	6.57
667.067	6.43
667.255	6.35
667.444	6.28
667.632	6.31
667.82	6.32
668.009	6.38
668.197	6.3
668.386	6.31
668.574	6.27
668.762	6.17
668.951	6.16
669.139	6.11
669.327	6.06
669.516	5.94
669.704	5.91
669.892	5.86
670.08	5.87
670.269	5.95
670.457	5.97
670.645	5.94
670.833	5.95
671.021	6
671.21	5.85
671.398	5.8
671.586	5.93
671.774	5.97
671.962	5.85
672.15	5.98
672.338	6.07
672.526	6.11
672.714	6.07
672.902	6.16
673.09	6.16
673.278	6.29
673.466	6.37
673.654	6.52
673.842	6.59
674.03	6.58
674.218	6.48
674.405	6.43
674.593	6.45
674.781	6.44
674.969	6.64
675.157	6.69
675.344	6.72
675.532	6.77
675.72	6.82
675.908	6.71
676.095	6.76
676.283	6.92
676.471	6.97
676.658	7.14
676.846	7.24
677.033	7.29
677.221	7.34
677.409	7.39
677.596	7.36
677.784	7.51
677.971	7.56
678.159	7.59
678.346	7.55
678.534	7.67
678.721	7.66
678.909	7.81
679.096	7.94
679.283	8.14
679.471	8.27
679.658	8.3
679.846	8.29
680.033	8.43
680.22	8.57
680.408	8.49
680.595	8.68
680.782	9.02
680.969	9.2
681.157	9.29
681.344	9.43
681.531	9.6
681.718	9.61
681.905	9.58
682.093	9.71
682.28	9.96
682.467	10.04
682.654	10.16
682.841	10.36
683.028	10.35
683.215	10.63
683.402	10.76
683.589	11.01
683.776	11.13
683.963	11.51
684.15	11.62
684.337	11.95
684.524	12.12
684.711	12.6
684.898	12.85
685.085	13.12
685.271	13.43
685.458	13.66
685.645	13.76
685.832	13.99
686.019	14.28
686.205	14.59
686.392	15.02
686.579	15.47
686.766	15.95
686.952	16.3
687.139	16.72
687.326	17.19
687.512	17.42
687.699	17.77
687.886	18.2
688.072	18.64
688.259	18.93
688.445	19.76
688.632	20.33
688.818	20.97
689.005	21.43
689.191	22.29
689.378	22.65
689.564	23.23
689.751	23.77
689.937	24.39
690.124	24.79
690.31	25.37
690.496	25.85
690.683	26.43
690.869	27.14
691.055	27.76
691.242	28.34
691.428	29.03
691.614	29.79
691.8	30.46
691.987	31.37
692.173	32.2
692.359	33.01
692.545	33.77
692.731	34.38
692.918	34.8
693.104	35.35
693.29	35.93
693.476	36.72
693.662	37.64
693.848	38.54
694.034	39.43
694.22	40.36
694.406	41.1
694.592	41.66
694.778	42.35
694.964	42.98
695.15	43.75
695.336	44.24
695.522	44.93
695.708	45.64
695.894	46.38
696.08	46.91
696.265	47.69
696.451	48.25
696.637	48.86
696.823	49.46
697.009	50.18
697.194	50.87
697.38	51.91
697.566	52.61
697.751	53.42
697.937	54.47
698.123	54.93
698.308	55.21
698.494	55.92
698.68	56.58
698.865	56.39
699.051	57.18
699.236	57.93
699.422	58.5
699.607	59.07
699.793	59.97
699.978	60.37
700.164	60.82
700.349	61.39
700.535	61.6
700.72	62.07
700.906	62.56
701.091	63.19
701.276	63.44
701.462	63.97
701.647	64.62
701.832	65.34
702.018	65.75
702.203	66.2
702.388	66.76
702.573	67.07
702.759	67.33
702.944	67.53
703.129	68
703.314	68.16
703.499	68.41
703.684	68.86
703.87	69.38
704.055	69.88
704.24	70.24
704.425	70.7
704.61	70.97
704.795	71.34
704.98	71.4
705.165	71.94
705.35	72.25
705.535	72.77
705.72	72.81
705.905	73.41
706.09	74.12
706.275	74.36
706.459	74.59
706.644	75.09
706.829	74.94
707.014	74.58
707.199	74.85
707.384	75.05
707.568	75.16
707.753	75.9
707.938	76.45
708.123	76.76
708.307	76.89
708.492	77.41
708.677	77.39
708.861	77.27
709.046	77.26
709.231	77.25
709.415	77.51
709.6	77.7
709.784	78.07
709.969	78.62
710.153	78.65
710.338	78.88
710.522	79.37
710.707	79.44
710.891	79.34
711.076	79.62
711.26	79.57
711.445	79.44
711.629	79.49
711.813	79.68
711.998	79.96
712.182	79.73
712.366	80.17
712.551	80.48
712.735	80.44
712.919	80.81
713.103	81.24
713.288	81.02
713.472	81.12
713.656	81.02
713.84	80.66
714.024	80.79
714.208	80.77
714.393	80.94
714.577	81.35
714.761	81.62
714.945	81.65
715.129	81.79
715.313	81.99
715.497	81.8
715.681	81.96
715.865	81.75
716.049	81.74
716.233	81.36
716.417	81.45
716.601	81.72
716.785	81.92
716.968	82.04
717.152	82.07
717.336	82.59
717.52	82.5
717.704	82.97
717.888	83.22
718.071	83.61
718.255	83.75
718.439	83.57
718.622	83.59
718.806	83.38
718.99	83.42
719.174	83.66
719.357	84.63
719.541	84.64
719.724	84.97
719.908	84.89
720.092	84.41
720.275	83.93
720.459	83.9
720.642	83.97
720.826	84.35
721.009	84.87
721.193	84.47
721.376	84.2
721.559	84.35
721.743	84.36
721.926	84.55
722.11	85.19
722.293	85.84
722.476	85.49
722.66	85.62
722.843	85.18
723.026	85.06
723.21	84.79
723.393	85.42
723.576	85.4
723.759	85.81
723.942	85.73
724.126	85.77
724.309	85.5
724.492	85.36
724.675	85.41
724.858	85.6
725.041	85.63
725.224	85.96
725.407	85.96
725.59	85.83
725.774	85.7
725.957	86.07
726.14	86.02
726.322	86.54
726.505	86.59
726.688	86.57
726.871	86.39
727.054	86.7
727.237	86.41
727.42	86.01
727.603	86.27
727.786	86.62
727.968	86.35
728.151	86.37
728.334	87.25
728.517	87.64
728.699	87.39
728.882	87.43
729.065	87.33
729.248	87.16
729.43	86.71
729.613	86.59
729.796	86.7
729.978	87.06
730.161	87.21
730.343	87.86
730.526	88.19
730.708	88.26
730.891	88.5
731.073	88.35
731.256	88.49
731.438	88.97
731.621	89.02
731.803	89.12
731.986	88.94
732.168	88.85
732.35	88.97
732.533	89.39
732.715	89.66
732.898	90.06
733.08	90.4
733.262	89.66
733.444	89.03
733.627	88.98
733.809	89.14
733.991	88.81
734.173	89.22
734.355	89.39
734.538	89.16
734.72	89.29
734.902	89.75
735.084	90.2
735.266	91.29
735.448	91.88
735.63	92.11
735.812	91.33
735.994	90.72
736.176	90.03
736.358	89.93
736.54	90.64
736.722	90.3
736.904	90.82
737.086	90.56
737.268	90.79
737.45	90.62
737.632	91.53
737.814	91.73
737.995	91.99
738.177	91.76
738.359	91.06
738.541	90.5
738.723	90.09
738.904	89.77
739.086	89.56
739.268	89.26
739.449	89.36
739.631	89.93
739.813	90.21
739.994	89.73
740.176	90.48
740.358	90.95
740.539	90.24
740.721	91.42
740.902	91.8
741.084	91.78
741.265	92.24
741.447	93.39
741.628	92.55
741.81	93.8
741.991	94.1
742.172	93.46
742.354	92.78
742.535	92.54
742.717	90.97
742.898	90.14
743.079	90.67
743.261	90.32
743.442	89.15
743.623	90.46
743.804	90.12
743.986	89.84
744.167	89.98
744.348	90.99
744.529	90.18
744.71	90.43
744.891	90.37
745.073	91.22
745.254	91.78
745.435	92.45
745.616	93.05
745.797	92.75
745.978	91.95
746.159	91.38
746.34	91.78
746.521	91.57
746.702	91.91
746.883	92.59
747.064	93.26
747.245	92.35
747.426	92.9
747.606	93.15
747.787	93.61
747.968	93.05
748.149	92.39
748.33	91.29
748.51	90.79
748.691	89.78
748.872	91.2
749.053	90.75
749.233	90.67
749.414	90.72
749.595	90.54
749.775	88.54
749.956	89.71
750.137	89.49
750.317	88.37
750.498	87.83
750.678	88
750.859	88.66
751.04	89.17
751.22	89.37
751.4	90.85
751.581	92.57
751.761	92.67
751.942	93.85
752.122	94.04
752.303	92.99
752.483	91.17
752.663	89.72
752.844	88.29
753.024	90.14
753.204	89.14
753.385	89.66
753.565	89.33
753.745	89.34
753.925	87.48
754.106	89.26
754.286	89.02
754.466	89.28
754.646	88.65
754.826	89.25
755.006	88.39
755.187	89.29
755.367	88.65
755.547	89.64
755.727	89.13
755.907	88.82
756.087	87.33
756.267	87.98
756.447	89.2
756.627	90.44
756.807	90.96
756.987	91.92
757.167	91.96
757.346	90.72
757.526	90.47
757.706	90.45
757.886	90.11
758.066	90.68
758.246	90.49
758.425	90.24
758.605	89.27
758.785	89.43
758.965	89.31
759.144	88.76
759.324	89.77
759.504	91.83
759.683	90.8
759.863	91.8
760.043	91.19
760.222	89.95
760.402	87.61
760.581	87.65
760.761	87.04
760.94	88.87
761.12	88.76
761.299	90.71
761.479	91.37
761.658	90.27
761.838	90.2
762.017	90.54
762.197	87.52
762.376	88.44
762.555	88.41
762.735	87.37
762.914	86.96
763.093	88.99
763.273	87.77
763.452	87.43
763.631	86.42
763.81	86.57
763.99	85.66
764.169	85.49
764.348	84.68
764.527	85.49
764.706	84.17
764.885	85.91
765.064	86.61
765.243	86.85
765.423	88.82
765.602	90.02
765.781	86.39
765.96	86.61
766.139	86.32
766.318	84.35
766.497	83.63
766.676	83.94
766.854	83.99
767.033	84.91
767.212	87.03
767.391	88.78
767.57	93.35
767.749	92.65
767.928	92.56
768.106	90.66
768.285	88.61
768.464	86.9
768.643	86.26
768.821	86.19
769	85.76
769.179	85.59
769.357	85.92
769.536	85.47
769.715	84.47
769.893	85.32
770.072	84.79
770.25	82.18
770.429	82.01
770.607	83.21
770.786	81.58
770.964	82.68
771.143	84.58
771.321	82.93
771.5	83.29
771.678	83.61
771.857	82
772.035	81.44
772.213	83.44
772.392	83.31
772.57	82.19
772.748	82.56
772.927	81.98
773.105	84.56
773.283	84.12
773.461	85.06
773.64	85.94
773.818	87.88
773.996	85.38
774.174	85.41
774.352	84.38
774.531	84.14
774.709	82.57
774.887	81.09
775.065	80.78
775.243	83.37
775.421	83.81
775.599	85.31
775.777	84.46
775.955	84.23
776.133	84.28
776.311	83.13
776.489	82.18
776.667	85.03
776.844	85.46
777.022	83.81
777.2	84.98
777.378	85.25
777.556	86.74
777.734	87.42
777.911	89.62
778.089	91.68
778.267	92.21
778.445	91.48
778.622	90.57
778.8	84.82
778.978	82.7
779.155	82.41
779.333	82.46
779.511	83.03
779.688	88.15
779.866	89.18
780.043	88.4
780.221	86.33
780.398	85.07
780.576	81.01
780.753	78.81
780.931	78.24
781.108	81.07
781.286	83.14
781.463	84.53
781.64	84.28
781.818	86.19
781.995	82.09
782.172	80.33
782.35	80.74
782.527	81.27
782.704	78.85
782.882	75.62
783.059	75.25
783.236	74.91
783.413	73.91
783.59	74.41
783.768	79.35
783.945	79.03
784.122	78.93
784.299	82.51
784.476	84.31
784.653	84.26
784.83	82.94
785.007	85.26
785.184	83.83
785.361	81.94
785.538	81.77
785.715	84.07
785.892	82.58
786.069	81.29
786.246	80.9
786.423	79.38
786.6	79.21
786.776	77.78
786.953	77.07
787.13	78.81
787.307	78.88
787.484	75.66
787.66	76.89
787.837	75.66
788.014	74.84
788.191	74.83
788.367	74.88
788.544	73.16
788.721	74.06
788.897	73.58
789.074	76.3
789.25	77.33
789.427	78.16
789.603	77.86
789.78	75.78
789.956	72.67
790.133	74.05
790.309	73.8
790.486	74.58
790.662	78.89
790.839	80.93
791.015	81.46
791.192	82.84
791.368	80.8
791.544	79.5
791.721	77.35
791.897	77.88
792.073	76.29
792.249	78.05
792.426	75.17
792.602	74.14
792.778	70.01
792.954	70.34
793.13	72.81
793.307	75.51
793.483	76.07
793.659	79.21
793.835	79.93
794.011	83.12
794.187	82.5
794.363	82.36
794.539	82
794.715	81.7
794.891	73.84
795.067	74.89
795.243	76.97
795.419	75.84
795.595	81.98
795.771	84.25
795.947	80.83
796.122	79.59
796.298	75.13
796.474	75.5
796.65	75.05
796.826	74.34
797.001	72.99
797.177	74.15
797.353	69.09
797.529	69.9
797.704	74.09
797.88	72.79
798.056	76.29
798.231	74.97
798.407	75.23
798.582	73.76
798.758	74.71
798.934	76.88
799.109	74.26
799.285	74.87
799.46	70.23
799.636	70.05
799.811	66.38
799.986	63.99
800.162	58.72
800.337	60.69
800.513	61.18
800.688	60.02
800.863	67.59
801.039	72.61
801.214	69.87
801.389	65.64
801.565	66.23
801.74	62.34
801.915	62.9
802.09	62.96
802.265	68.21
802.441	67.6
802.616	71.32
802.791	67.55
802.966	68.88
803.141	67.02
803.316	74.06
803.491	72.63
803.666	75.63
803.841	73.02
804.016	70.91
804.191	66.87
804.366	65.88
804.541	64.59
804.716	73.15
804.891	79.29
805.066	80.19
805.241	80.42
805.416	84
805.591	83.51
805.765	87.3
805.94	83.88
806.115	83.69
806.29	80.29
806.464	78.56
806.639	69.85
806.814	67.16
806.989	63.7
807.163	66.13
807.338	62.34
807.512	65.99
807.687	72.44
807.862	75.87
808.036	81.28
808.211	82.11
808.385	80.79
808.56	74.54
808.734	58.91
808.909	56.06
809.083	58.12
809.258	62.22
809.432	65.17
809.606	89.41
809.781	84.34
809.955	84.34
810.13	74.64
810.304	74.07
810.478	67.7
810.652	64.8
810.827	63.95
811.001	74.59
811.175	73.08
811.349	77.82
811.524	80.87
811.698	78.15
811.872	73.9
812.046	69.92
812.22	67.49
812.394	62.29
812.568	63.17
812.742	55.95
812.916	59.91
813.09	54.55
813.264	55.05
813.438	49.65
813.612	48.31
813.786	47.26
813.96	54.77
814.134	53.91
814.308	62.26
814.482	71.51
814.656	70.15
814.83	68.36
815.003	74.3
815.177	65.54
815.351	68.08
815.525	75.28
815.698	59.95
815.872	50.07
816.046	54.23
816.219	50.57
816.393	39.69
816.567	52.84
816.74	59.28
816.914	55.21
817.088	48.08
817.261	53.64
817.435	55.39
817.608	51.76
817.782	54.27
817.955	66.36
818.129	71.24
818.302	71.6
818.475	71.46
818.649	71.29
818.822	66.98
818.996	77.96
819.169	78.11
819.342	77.04
819.516	81.28
819.689	78.69
819.862	61.3
820.035	59.25
820.209	61.52
820.382	49.29
820.555	47.69
820.728	54.2
820.901	52.89
821.075	63.92
821.248	76.1
821.421	75.85
821.594	68.18
821.767	72.45
821.94	58.12
822.113	51.89
822.286	52.54
822.459	56.82
822.632	52.33
822.805	57.72
822.978	68.87
823.151	67.22
823.324	58.21
823.496	47.88
823.669	49.52
823.842	54.58
824.015	45.53
824.188	33.53
824.361	48.14
824.533	44.12
824.706	36.6
824.879	44.45
825.051	53.16
825.224	48.38
825.397	41.62
825.569	33.48
825.742	36.02
825.915	38.54
826.087	32.65
826.26	33.8
826.432	30.79
826.605	28.04
826.777	34.42
826.95	37.76
827.122	27.36
827.295	40.92
827.467	52.49
827.64	29.4
827.812	36.14
827.984	67.21
828.157	61.82
828.329	58.65
828.501	66.21
828.674	64.97
828.846	67.87
829.018	62.61
829.19	53.82
829.363	49.12
829.535	43.06
829.707	33.38
829.879	21.9
830.051	22.86
830.223	27.8
830.395	17.34
830.568	35.63
830.74	47.16
830.912	52.28
831.084	57.59
831.256	56.7
831.428	35.83
831.6	23.67
831.772	19
831.943	6.51
832.115	7.27
832.287	26.63
832.459	29.36
832.631	34.19
832.803	46.4
832.975	49.66
833.146	49.86
833.318	63.79
833.49	63.48
833.662	71.05
833.833	77.99
834.005	63.24
834.177	67.86
834.348	55.99
834.52	47.89
834.692	40.26
834.863	45.07
835.035	34.04
835.206	39.99
835.378	43.23
835.549	42.09
835.721	42.33
835.892	45.05
836.064	45
836.235	34.1
836.407	37.49
836.578	37.82
836.749	23.47
836.921	15.33
837.092	13.87
837.264	22.38
837.435	14.27
837.606	28.7
837.777	33.06
837.949	51.75
838.12	51.84
838.291	57.6
838.462	56.98
838.633	55.22
838.805	46.08
838.976	36.21
839.147	29.48
839.318	36.61
839.489	21.22
839.66	33.24
839.831	35.01
840.002	38.82
840.173	32.04
840.344	44.77
840.515	35.39
840.686	39.5
840.857	40.65
841.028	47.32
841.199	49.33
841.369	61.14
841.54	60.96
841.711	74.92
841.882	51.38
842.053	47.28
842.223	29
842.394	33.09
842.565	20.61
842.736	34.13
842.906	30.42
843.077	27.25
843.248	50.88
843.418	46.57
843.589	31.85
843.759	25.62
843.93	34.94
844.101	20.46
844.271	33.96
844.442	49.21
844.612	69.93
844.783	58.72
844.953	40.09
845.123	38.9
845.294	36.01
845.464	15.02
845.635	24.13
845.805	49.31
845.975	31.25
846.146	23.31
846.316	6.81
846.486	22.68
846.656	25.82
846.827	35.07
846.997	26.68
847.167	34.81
847.337	16.96
847.507	12.46
847.677	10.77
847.848	27.44
848.018	42.69
848.188	60.34
848.358	74.38
848.528	71.54
848.698	58.64
848.868	46.93
849.038	32.3
849.208	25.11
849.378	29.25
849.548	-6
849.718	-25.37
849.887	-44.63
850.057	-32.06
850.227	-18.23
850.397	12.09
850.567	2.5
850.737	4.06
850.906	-7.8
851.076	-8.88
851.246	-2.19
851.415	-6.9
851.585	-2.39
851.755	21.96
851.924	14.77
852.094	7.38
852.264	11.26
852.433	3.92
852.603	-11.91
852.772	-12.3
852.942	18.53
853.111	-11.6
853.281	4.86
853.45	-5.27
853.62	-4.7
853.789	-15.49
853.959	29.73
854.128	32.53
854.297	46.21
854.467	46.57
854.636	56.51
854.805	38.07
854.975	39.7
855.144	34.81
855.313	17.03
855.482	9.47
855.652	9.63
855.821	-9.42
855.99	-13.31
856.159	-12.11
856.328	-3.55
856.497	12.11
856.667	17.81
856.836	30.99
857.005	25.33
857.174	20.21
857.343	1.51
857.512	12.36
857.681	-7.1
857.85	23.7
858.019	-40.76
858.188	-50.27
858.356	-31.74
858.525	-11.92
858.694	-19.96
858.863	11.31
859.032	27.24
859.201	1.13
859.369	-15.68
859.538	-4.76
859.707	-6.41
859.876	13.24
860.044	39.49
860.213	46.91
860.382	39.94
860.55	16.74
860.719	9.06
860.888	-22.98
861.056	-58.85
861.225	-66.99
861.393	-31.58
861.562	-41.74
861.73	-24.97
861.899	-26.41
862.067	-38.66
862.236	-48.99
862.404	-33.13
862.572	-55.9
862.741	-69.38
862.909	-33.08
863.078	-17.26
863.246	-41.26
863.414	-7.83
863.582	4.35
863.751	-21.64
863.919	-4.65
864.087	-11.47
864.255	-41.65
864.424	-35.41
864.592	6.63
864.76	-14.85
864.928	0.73
865.096	22.89
865.264	34.39
865.432	33.44
865.6	53.5
865.768	37.81
865.936	36.34
866.104	34.15
866.272	-32.62
866.44	-17.89
866.608	4.59
866.776	7.41
866.944	5.27
867.112	35.28
867.28	36.01
867.448	39.55
867.615	27.57
867.783	18.06
867.951	21.75
868.119	-2.13
868.286	-35.14
868.454	4.75
868.622	-2.15
868.789	-11.72
868.957	-5.29
869.125	8.64
869.292	-34.28
869.46	11.44
869.627	-5.61
869.795	6.03
869.963	20.19
870.13	36.41
870.298	0.14
870.465	26.99
870.632	21.31
870.8	23.63
870.967	8.36
871.135	-9.21
871.302	-2.32
871.469	11.84
871.637	-37.84
871.804	-19.46
871.971	3.88
872.139	-6.89
872.306	-52.42
872.473	-54.88
872.64	-110.61
872.807	-126.15
872.975	-321.49
873.142	-60.92
873.309	-39.94
873.476	4.3
873.643	8.54
873.81	17.7
873.977	-26.99
874.144	12.25
874.311	-33.9
874.478	-52.8
874.645	-90
874.812	11.31
874.979	35.65
875.146	33.93
875.313	25.82
875.48	43.86
875.647	7.92
875.813	-31.01
875.98	-8.16
876.147	-71.45
876.314	-37.16
876.481	19.81
876.647	24.6
876.814	4.98
876.981	33.24
877.147	30.94
877.314	13.02
877.481	17.38
877.647	42.41
877.814	43.55
877.98	43.19
878.147	65.63
878.314	56.28
878.48	57.09
878.647	58.44
878.813	74.69
878.979	46.15
879.146	65.21
879.312	73.95
879.479	44.22
879.645	22.19
879.811	24.59
879.978	38.29
880.144	16.84
880.31	20.96
880.477	46.54
880.643	33.23
880.809	-30.91
880.975	-55.04
881.142	-45.52
881.308	320.86
881.474	412.85
881.64	-10.84
881.806	42.48
881.972	-2.14
882.138	18.25
882.304	16.48
882.47	-10.12
882.636	-34.68
882.802	-49.66
882.968	-119.45
883.134	-67.12
883.3	-64.27
883.466	-54.16
883.632	-73.17
883.798	-86.12
883.964	-138.48
884.129	-1240.17
884.295	-163.94
884.461	-138.28
884.627	3.9
884.793	0.65
884.958	32.84
885.124	18.51
885.29	-5.94
885.455	-106
885.621	-60.95
885.787	-53.09
885.952	-95.76
886.118	-27.86
886.283	-23.11
886.449	-49.53
886.614	-40.78
886.78	-10.84
886.945	-30.02
887.111	-35.77
887.276	-23.22
887.442	-45.97
887.607	-12.17
887.773	24.29
887.938	21.49
888.103	16.13
888.269	24.95
888.434	31.32
888.599	1.44
888.764	15.03
888.93	25.64
889.095	13.75
889.26	-5.98
889.425	-15.25
889.59	-63.45
889.756	-76.21
889.921	-41.51
890.086	-99.63
890.251	-30.86
890.416	-33.47
890.581	-0.4
890.746	19.22
890.911	13.48
891.076	-2.06
891.241	15.44
891.406	-6.26
891.571	-16.03
891.736	-50.68
891.901	13.17
892.065	-13.67
892.23	-37.92
892.395	-77.2
892.56	-43.78
892.725	-62.59
892.889	9.17
893.054	32.25
893.219	-16.16
893.384	-65.59
893.548	-126.51
893.713	-185.94
893.878	-273.61
