Data from Ofra_PS_T2_2A_2HS27_Reflection_2.txt Node
Date: Wed Jul 21 17:08:59 EDT 2021
User: Adam
Spectrometer: FLMT01687
Trigger mode: 0
Integration Time (sec): 1.100000E0
Scans to average: 2
Electric dark correction enabled: true
Nonlinearity correction enabled: false
Boxcar width: 2
XAxis mode: Wavelengths
Number of Pixels in Spectrum: 3648
>>>>>Begin Spectral Data<<<<<
179.494	424.8
179.716	518.12
179.937	511.69
180.158	502.5
180.38	930
180.601	492.27
180.823	179.54
181.044	54.03
181.265	225
181.486	70.78
181.708	93.53
181.929	483.67
182.15	-139.44
182.372	123.65
182.593	96.17
182.814	99.14
183.035	171.13
183.257	120.61
183.478	67.66
183.699	116.78
183.92	64.44
184.141	49.68
184.363	26.52
184.584	76.34
184.805	60.68
185.026	94.61
185.247	104.9
185.468	55.62
185.689	74.11
185.91	66.56
186.132	55.42
186.353	29.47
186.574	114.76
186.795	94.91
187.016	68.58
187.237	45.14
187.458	35.41
187.679	15.98
187.9	-5.76
188.121	18.63
188.342	51.08
188.563	81.79
188.784	123.14
189.005	132.51
189.226	144.7
189.447	118.37
189.667	30.58
189.888	-169.95
190.109	-810.39
190.33	-466.45
190.551	-934.51
190.772	-169.25
190.993	-110.98
191.214	-71.4
191.434	-11.43
191.655	99.39
191.876	66.61
192.097	18.88
192.318	-47.95
192.538	-168.91
192.759	-195.02
192.98	-73.81
193.201	-43.95
193.421	-18.74
193.642	11.27
193.863	13.15
194.083	-5.07
194.304	3.5
194.525	9.56
194.745	24.05
194.966	12.32
195.187	-1.1
195.407	-27.21
195.628	-81.98
195.848	-127.77
196.069	-133.38
196.29	-71.58
196.51	-70.41
196.731	-58.92
196.951	-58.1
197.172	-83.62
197.392	-107.06
197.613	-112.22
197.833	-139.36
198.054	-127.43
198.274	-60.34
198.495	-78.6
198.715	-38.7
198.936	-28.4
199.156	-2.67
199.377	-84.58
199.597	-82.81
199.817	-125.32
200.038	-81.84
200.258	-155.36
200.479	-98.93
200.699	-122.97
200.919	-35.57
201.14	-43.3
201.36	-59.72
201.58	-6.98
201.801	25.21
202.021	-7.78
202.241	-26.67
202.461	-14.65
202.682	-98.7
202.902	-164.36
203.122	-101.36
203.342	-56.51
203.563	-18.97
203.783	12.95
204.003	-9.07
204.223	2.56
204.443	39.15
204.663	30.33
204.884	26.06
205.104	74.72
205.324	99.47
205.544	104.22
205.764	88.09
205.984	83.39
206.204	63.13
206.424	47.46
206.644	12.85
206.864	11.62
207.084	-13.35
207.304	-7.51
207.525	-105.94
207.745	-60.23
207.964	0.37
208.184	-54.89
208.404	-85.21
208.624	-66.35
208.844	-73.96
209.064	-327.65
209.284	-284.46
209.504	-115.38
209.724	-22.1
209.944	-10.08
210.164	10.14
210.384	26.7
210.604	24.59
210.823	-12.02
211.043	-12.67
211.263	1.3
211.483	-2.02
211.703	-56.2
211.922	-54.17
212.142	-3.03
212.362	-12.36
212.582	-29.14
212.801	-10.59
213.021	-13.9
213.241	-34.96
213.461	-53.53
213.68	-64.45
213.9	-51.96
214.12	-28.82
214.339	-70.3
214.559	-63.22
214.779	-2.67
214.998	-6.51
215.218	-44.26
215.438	-14.55
215.657	-4.99
215.877	-24.32
216.096	10.58
216.316	29.61
216.535	11.95
216.755	-4.32
216.974	-74.02
217.194	-156.02
217.413	-165.46
217.633	-157.53
217.852	-278.69
218.072	-115.59
218.291	-45.26
218.511	-1.45
218.73	-22.31
218.95	-3.98
219.169	-16.76
219.389	-49.32
219.608	-39.44
219.827	-33.35
220.047	-27.75
220.266	-21.76
220.485	-4.93
220.705	9.2
220.924	-0.77
221.143	31.07
221.363	24.05
221.582	30.46
221.801	45.75
222.021	60.79
222.24	20.53
222.459	53.18
222.678	-0.89
222.897	-96.84
223.117	-101.19
223.336	-68.83
223.555	-49.88
223.774	-18.53
223.993	-20.66
224.213	30.43
224.432	14.86
224.651	65.57
224.87	40.75
225.089	69.8
225.308	55.55
225.527	67.05
225.746	63.14
225.965	65.07
226.184	25.02
226.404	36.06
226.623	14.54
226.842	-0.85
227.061	26.54
227.28	41.76
227.499	23.76
227.718	36.45
227.936	40.2
228.155	30.4
228.374	15.08
228.593	27.09
228.812	27.69
229.031	1.25
229.25	-40.44
229.469	-45.05
229.688	-49.3
229.907	2.51
230.125	40.12
230.344	50.44
230.563	43.44
230.782	37.2
231.001	-58.8
231.22	-54.35
231.438	-31.13
231.657	-6.21
231.876	9.37
232.095	64.9
232.313	63.18
232.532	53.55
232.751	32.54
232.969	26.22
233.188	-25.04
233.407	21.98
233.625	22.64
233.844	1.85
234.063	-4.53
234.281	14.19
234.5	0.81
234.719	7.57
234.937	32.32
235.156	37.97
235.374	31.53
235.593	34.24
235.811	32.07
236.03	25.33
236.249	-9.36
236.467	-17.41
236.686	8.41
236.904	16.53
237.123	-9.99
237.341	-11.13
237.559	7.88
237.778	-1.43
237.996	-20.61
238.215	23.3
238.433	17.22
238.652	-1.46
238.87	-32.77
239.088	-15.95
239.307	-22.55
239.525	4.85
239.743	-23.66
239.962	-3.1
240.18	-20.7
240.398	-64.41
240.617	-85.38
240.835	-51.95
241.053	-25.74
241.271	16.58
241.49	35.03
241.708	30.78
241.926	8.86
242.144	7.84
242.363	-53.06
242.581	-67.32
242.799	-26.24
243.017	12.63
243.235	-8.68
243.453	12.94
243.672	3.52
243.89	10.37
244.108	-4.32
244.326	20.49
244.544	24.34
244.762	50.76
244.98	46.61
245.198	43.81
245.416	8.77
245.634	13.97
245.852	-7.68
246.07	7.75
246.288	13.16
246.506	-11.57
246.724	-21.04
246.942	-32.47
247.16	1.33
247.378	9.34
247.596	45.24
247.814	53.34
248.032	38.73
248.25	18.26
248.468	12.55
248.685	14.21
248.903	42.37
249.121	61.91
249.339	37.28
249.557	34.88
249.775	44.53
249.992	-28.53
250.21	-38.77
250.428	-26.04
250.646	-53.63
250.863	-89.07
251.081	-41.92
251.299	-49.91
251.517	-29.24
251.734	-1.37
251.952	11.74
252.17	13.67
252.387	29.39
252.605	12.04
252.823	16.17
253.04	28.16
253.258	36.94
253.475	27.8
253.693	56.52
253.911	52.25
254.128	49.85
254.346	44.5
254.563	16.52
254.781	-9.38
254.998	-20.8
255.216	-39.83
255.433	-36.76
255.651	12.02
255.868	32.98
256.086	58.57
256.303	51.3
256.521	42.94
256.738	20.21
256.956	-9.44
257.173	-48.59
257.39	-53.7
257.608	-65.43
257.825	18.65
258.043	54
258.26	63.96
258.477	94.61
258.695	84.07
258.912	10.61
259.129	13.99
259.346	-21.05
259.564	-62.49
259.781	-88.85
259.998	-40.21
260.216	-6.89
260.433	45.54
260.65	51.08
260.867	70.74
261.084	38.67
261.302	1.12
261.519	-27.01
261.736	-52.66
261.953	-70.59
262.17	-5.85
262.387	-33.9
262.604	-49.66
262.822	-44.86
263.039	-39.98
263.256	-65.16
263.473	9.51
263.69	8.25
263.907	34.43
264.124	55.63
264.341	32.76
264.558	20.71
264.775	33.73
264.992	28.07
265.209	24
265.426	49.43
265.643	38.2
265.86	43.15
266.077	41.46
266.294	38.55
266.51	3.91
266.727	-10.88
266.944	-11.68
267.161	-23.16
267.378	-12.97
267.595	20.66
267.812	-24.44
268.028	-43.96
268.245	-21.72
268.462	-47.47
268.679	-75.69
268.896	5.7
269.112	11.6
269.329	-2.63
269.546	7.59
269.763	1.56
269.979	-0.38
270.196	-0.85
270.413	-10.44
270.629	-38.85
270.846	-42.86
271.063	-54.14
271.279	-60.18
271.496	-57.52
271.712	-15.93
271.929	17.42
272.146	9.32
272.362	19.64
272.579	47.92
272.795	46.31
273.012	39.21
273.228	45.51
273.445	25.67
273.661	3.2
273.878	-29.03
274.094	-20.39
274.311	-36.81
274.527	19.67
274.744	26.44
274.96	31.83
275.177	27.9
275.393	43.51
275.609	36.52
275.826	51.93
276.042	45.75
276.259	21.58
276.475	35.16
276.691	34.73
276.908	15.32
277.124	14.01
277.34	22.61
277.557	-7.24
277.773	-25.76
277.989	-35.94
278.205	-24.36
278.422	-10.45
278.638	1.75
278.854	10.28
279.07	16.19
279.286	24.19
279.503	9.12
279.719	-18.65
279.935	-20.64
280.151	-32.54
280.367	-32.24
280.583	-62.43
280.799	-38.8
281.016	-67.71
281.232	-21.69
281.448	-24.83
281.664	7.22
281.88	-15.1
282.096	15.76
282.312	32.53
282.528	80.12
282.744	78.93
282.96	78.22
283.176	49.78
283.392	24.42
283.608	-1.45
283.824	-0.69
284.04	3.1
284.256	12.49
284.471	13.11
284.687	0.36
284.903	25.96
285.119	42.63
285.335	28.66
285.551	44.99
285.767	46.22
285.982	28.97
286.198	-0.97
286.414	39.22
286.63	34.46
286.846	54.89
287.061	33.2
287.277	61.48
287.493	40.28
287.709	65.16
287.924	35.75
288.14	75.16
288.356	63.53
288.571	78.01
288.787	45.48
289.003	44.69
289.218	19.24
289.434	-22.49
289.65	-31.3
289.865	-32
290.081	-2.98
290.296	7.09
290.512	22.33
290.727	-19.51
290.943	-20.39
291.159	-22.33
291.374	-38.71
291.59	-44.72
291.805	-19.23
292.021	-6.31
292.236	-11.17
292.451	14.32
292.667	14.6
292.882	14.66
293.098	7.51
293.313	-23.68
293.529	-46.42
293.744	-56.85
293.959	-36.63
294.175	-42.1
294.39	7.55
294.605	26.23
294.821	60.02
295.036	67.68
295.251	73.79
295.467	50.17
295.682	39.54
295.897	-16.64
296.112	-43.2
296.328	-33.7
296.543	-59.57
296.758	-49.22
296.973	-8.4
297.188	27.27
297.404	-3.17
297.619	-6.87
297.834	-17.34
298.049	-33.22
298.264	-62.41
298.479	-2.11
298.694	4.43
298.909	22.67
299.125	33.06
299.34	49.79
299.555	27.86
299.77	62.9
299.985	6.06
300.2	-46.08
300.415	-72.01
300.63	-30.45
300.845	-59.21
301.06	-34.46
301.275	-5.03
301.49	9.42
301.704	-13.78
301.919	-27.12
302.134	-41.12
302.349	-47.19
302.564	-97.95
302.779	-100.49
302.994	-31.97
303.209	7.39
303.423	54.2
303.638	97.07
303.853	52.63
304.068	39.47
304.283	21.66
304.497	3.5
304.712	-20.52
304.927	-8.74
305.142	-24.77
305.356	-9.76
305.571	-10.04
305.786	-29.25
306	-44.8
306.215	-32.17
306.43	-59.53
306.644	-55.08
306.859	5.83
307.074	25.45
307.288	-3.53
307.503	-11.49
307.717	-13.29
307.932	-19.52
308.147	-22.25
308.361	8.85
308.576	11.39
308.79	-26.27
309.005	-25.29
309.219	-17.23
309.434	-23.22
309.648	-13.43
309.863	9.12
310.077	0.7
310.292	1.08
310.506	9.68
310.72	15.55
310.935	23.93
311.149	31.75
311.364	49.36
311.578	49.84
311.792	47.19
312.007	52.16
312.221	39.7
312.435	39.21
312.649	14.68
312.864	23.55
313.078	30.05
313.292	92.67
313.507	64.7
313.721	123.34
313.935	63.1
314.149	45.62
314.363	13.64
314.578	13.02
314.792	10.28
315.006	-2.74
315.22	10.77
315.434	16.2
315.648	24.11
315.862	25.52
316.077	28.69
316.291	14.09
316.505	33.68
316.719	36.08
316.933	13.31
317.147	35.9
317.361	2.62
317.575	-44.98
317.789	-70.09
318.003	-94.39
318.217	-91.82
318.431	-3.03
318.645	45.57
318.859	40.98
319.073	49.26
319.287	39.28
319.5	0.65
319.714	-39.73
319.928	-57.22
320.142	-73.1
320.356	-29.36
320.57	15.6
320.784	20.83
320.997	6.81
321.211	8.82
321.425	-67.09
321.639	-86.43
321.853	-39.07
322.066	-21.52
322.28	-25.92
322.494	-3.26
322.707	3.01
322.921	-10.3
323.135	-10.7
323.349	8.23
323.562	-10.08
323.776	-13.86
323.989	-6.93
324.203	-14.07
324.417	-31.26
324.63	-44.29
324.844	-41.23
325.057	-46.48
325.271	-19.59
325.485	4.44
325.698	36.52
325.912	53.16
326.125	34.57
326.339	22.25
326.552	0.79
326.766	0.98
326.979	-0.19
327.193	34.21
327.406	18.7
327.619	24.03
327.833	40.37
328.046	13.74
328.26	-15.27
328.473	16.91
328.686	-8.63
328.9	-37.37
329.113	-12.81
329.326	-25.33
329.54	-40.53
329.753	-43.83
329.966	-51.35
330.179	-37.26
330.393	-17.17
330.606	3.81
330.819	29.41
331.032	46.63
331.246	40.64
331.459	69.52
331.672	56.07
331.885	41.84
332.098	9.58
332.311	4.95
332.525	-46.49
332.738	-36.24
332.951	3.49
333.164	32.3
333.377	33.83
333.59	53.1
333.803	64.91
334.016	46.82
334.229	42.05
334.442	47.41
334.655	38.7
334.868	49.73
335.081	47.94
335.294	45.58
335.507	33.81
335.72	27.39
335.933	11.1
336.146	4.95
336.359	-13.81
336.572	-37.02
336.785	-58.41
336.997	-73.96
337.21	-31.93
337.423	-26.84
337.636	-2.11
337.849	17.2
338.062	37.76
338.274	14.37
338.487	12.77
338.7	5.84
338.913	-36.72
339.125	-71.6
339.338	-118.09
339.551	-93.87
339.763	-61.51
339.976	-27.74
340.189	-0.6
340.402	21.84
340.614	16.24
340.827	3.36
341.039	-12.44
341.252	-15.55
341.465	-6.74
341.677	-17.42
341.89	-51.19
342.102	-14.07
342.315	-23.57
342.527	-54.52
342.74	-44.11
342.952	3.15
343.165	-12
343.377	13.5
343.59	9.92
343.802	25.53
344.015	11.88
344.227	26.66
344.44	23.56
344.652	29.98
344.864	20.07
345.077	50.81
345.289	46.67
345.502	44.48
345.714	42.25
345.926	47.98
346.139	26.52
346.351	44.97
346.563	48.52
346.775	43.61
346.988	23.11
347.2	7.11
347.412	-45.74
347.624	-64.67
347.837	-77.99
348.049	-43.5
348.261	-13.12
348.473	11.74
348.685	18.32
348.897	18.51
349.11	-2.4
349.322	-21.45
349.534	-19.51
349.746	-37.01
349.958	-30.91
350.17	-9.82
350.382	19.73
350.594	8.15
350.806	30.6
351.018	32.16
351.23	22.6
351.442	-34.01
351.654	-24.75
351.866	-36.39
352.078	-27.88
352.29	-9.78
352.502	13.94
352.714	16.14
352.926	7.08
353.138	12.8
353.35	-0.73
353.561	-5.02
353.773	-16.3
353.985	-5.43
354.197	-18.65
354.409	-22.81
354.621	-17.59
354.832	-20.45
355.044	-27.09
355.256	-26.49
355.468	-2.82
355.679	0.51
355.891	18.68
356.103	-6.62
356.314	0.3
356.526	-10.15
356.738	-10.66
356.949	-16.54
357.161	-6.93
357.373	-4.99
357.584	1.41
357.796	8.01
358.008	2.39
358.219	35.96
358.431	28.04
358.642	31.75
358.854	28.04
359.065	23.11
359.277	-14.32
359.488	-21.62
359.7	-42.78
359.911	-64.82
360.123	-38.43
360.334	-38.42
360.546	-50.44
360.757	-57.37
360.969	-33.36
361.18	-29.96
361.391	-7.52
361.603	-8.08
361.814	7.89
362.025	8.92
362.237	-8.86
362.448	2.91
362.659	19.41
362.871	17.98
363.082	-0
363.293	2.26
363.504	-19.57
363.716	-47.88
363.927	-73.09
364.138	-73
364.349	-79.46
364.56	-67.97
364.772	-49.19
364.983	-19.13
365.194	-16.16
365.405	0.67
365.616	28.03
365.827	28.35
366.038	16.28
366.25	7
366.461	-25.32
366.672	-19.98
366.883	-0.75
367.094	-4.15
367.305	-10.52
367.516	-0.35
367.727	-25.05
367.938	-41.29
368.149	-33.3
368.36	-0.27
368.571	-1.56
368.781	-13.73
368.992	-22.9
369.203	-35.88
369.414	-78.86
369.625	-83.38
369.836	-65.36
370.047	-77.43
370.258	-52.02
370.468	-40.35
370.679	-45.88
370.89	-48.28
371.101	-18.29
371.312	-32.41
371.522	-18.98
371.733	-12.06
371.944	4.82
372.155	4.27
372.365	7.12
372.576	-3.42
372.787	-7.43
372.997	-37.89
373.208	-38.13
373.419	-17.9
373.629	-31.83
373.84	-36.56
374.05	-38.16
374.261	-41.07
374.472	-50.12
374.682	2.15
374.893	15.8
375.103	45
375.314	40.54
375.524	44.02
375.735	38.63
375.945	39.24
376.156	12.86
376.366	18.79
376.577	15.19
376.787	-8.37
376.997	-11.45
377.208	-3
377.418	-15.73
377.629	-6.39
377.839	5.01
378.049	9.05
378.26	16.21
378.47	26.15
378.68	10.92
378.89	6.82
379.101	4.57
379.311	-19.26
379.521	-56.76
379.732	-44.35
379.942	-38.27
380.152	-60.45
380.362	-28.07
380.572	-12.56
380.783	-3.28
380.993	12.73
381.203	30.48
381.413	35.06
381.623	37.84
381.833	30.26
382.043	5.53
382.253	-8.24
382.463	-11.36
382.674	-22.8
382.884	-42.75
383.094	-31.6
383.304	-20.09
383.514	-10.18
383.724	11.83
383.934	12.22
384.144	2.9
384.353	-3.64
384.563	-6.03
384.773	-13.61
384.983	-18.5
385.193	-2.04
385.403	1.46
385.613	1.82
385.823	-11.39
386.033	3.33
386.242	-5.21
386.452	-10.17
386.662	-20.44
386.872	-0.82
387.082	-13.01
387.291	-19.62
387.501	-15.46
387.711	-0.66
387.921	-9.66
388.13	-4.34
388.34	10.51
388.55	6.89
388.759	0.56
388.969	2.63
389.179	1.48
389.388	-4.55
389.598	-0.86
389.807	-7.23
390.017	-9.53
390.227	-5.78
390.436	-5.33
390.646	-2.57
390.855	1.63
391.065	1.16
391.274	-4.1
391.484	-5.55
391.693	-8.26
391.903	-4.7
392.112	1.73
392.322	6.33
392.531	8.43
392.74	10.2
392.95	3.65
393.159	-1.16
393.369	-2.48
393.578	-4.36
393.787	-6.25
393.997	-4.36
394.206	-3.72
394.415	-3.33
394.625	-3.28
394.834	-3.81
395.043	-0.89
395.252	1.47
395.462	2.66
395.671	4.71
395.88	4.84
396.089	4.13
396.298	1.74
396.508	1.13
396.717	0.46
396.926	1.08
397.135	0.77
397.344	1.09
397.553	1.94
397.762	2.79
397.971	2.81
398.181	3.42
398.39	2.72
398.599	2.3
398.808	2.04
399.017	3.06
399.226	3.51
399.435	5.03
399.644	5.38
399.853	4.54
400.062	4.06
400.27	3.48
400.479	2.74
400.688	1.48
400.897	1.94
401.106	1.86
401.315	1.91
401.524	2.02
401.733	3.15
401.941	3.84
402.15	3.92
402.359	3.82
402.568	4.2
402.777	4.03
402.985	3.42
403.194	3.43
403.403	3.43
403.612	2.82
403.82	2.7
404.029	2.91
404.238	2.58
404.446	2.75
404.655	2.68
404.864	2.55
405.072	2.07
405.281	2.34
405.489	1.98
405.698	2.07
405.906	2.02
406.115	2.21
406.324	2.09
406.532	2.46
406.741	2.75
406.949	2.85
407.158	2.93
407.366	2.93
407.574	2.87
407.783	2.84
407.991	2.7
408.2	2.73
408.408	2.8
408.617	2.65
408.825	2.43
409.033	2.55
409.242	2.61
409.45	2.61
409.658	2.58
409.867	2.72
410.075	2.51
410.283	2.34
410.491	2.29
410.7	2.24
410.908	2.29
411.116	2.72
411.324	2.79
411.533	2.75
411.741	2.9
411.949	2.81
412.157	2.43
412.365	2.4
412.573	2.43
412.781	2.44
412.99	2.32
413.198	2.57
413.406	2.66
413.614	2.59
413.822	2.45
414.03	2.48
414.238	2.1
414.446	2.02
414.654	1.84
414.862	1.92
415.07	1.97
415.278	2.34
415.486	2.2
415.694	2.43
415.902	2.32
416.109	2.21
416.317	2.12
416.525	1.92
416.733	1.9
416.941	2.09
417.149	2.2
417.357	2.36
417.564	2.64
417.772	2.77
417.98	2.64
418.188	2.49
418.395	2.48
418.603	2.59
418.811	2.32
419.019	2.25
419.226	2.54
419.434	2.54
419.642	2.39
419.849	2.52
420.057	2.57
420.265	2.44
420.472	2.09
420.68	2.1
420.887	1.98
421.095	2.01
421.302	2.08
421.51	2.36
421.717	2.44
421.925	2.56
422.132	2.37
422.34	2.19
422.547	2.24
422.755	2.04
422.962	1.88
423.17	1.87
423.377	1.76
423.585	1.53
423.792	1.54
423.999	1.7
424.207	1.76
424.414	1.99
424.621	2.15
424.829	2.15
425.036	2.11
425.243	2.3
425.451	2.06
425.658	1.92
425.865	2.08
426.072	2.04
426.28	2.19
426.487	2.19
426.694	2.26
426.901	1.96
427.108	1.96
427.315	1.68
427.523	2.1
427.73	2
427.937	2.15
428.144	2.06
428.351	2.13
428.558	1.98
428.765	1.96
428.972	2
429.179	2.24
429.386	2.51
429.593	2.3
429.8	2.2
430.007	2.34
430.214	2.3
430.421	2.08
430.628	1.96
430.835	1.98
431.042	2.15
431.249	2.2
431.456	2.18
431.662	2.42
431.869	2.62
432.076	2.57
432.283	2.62
432.49	2.62
432.697	2.67
432.903	2.49
433.11	2.4
433.317	2.46
433.524	2.64
433.73	2.56
433.937	2.86
434.144	2.68
434.35	2.58
434.557	2.4
434.764	2.42
434.97	2.3
435.177	2.55
435.384	2.57
435.59	2.71
435.797	2.99
436.003	3.02
436.21	2.96
436.416	3.18
436.623	3.14
436.829	3.11
437.036	3.24
437.242	3.35
437.449	3.17
437.655	3.23
437.862	3.11
438.068	2.94
438.275	2.96
438.481	3.12
438.687	3.01
438.894	3.05
439.1	3.14
439.307	3.32
439.513	3.18
439.719	3.23
439.926	3.41
440.132	3.35
440.338	3.14
440.544	3.39
440.751	3.37
440.957	3.3
441.163	3.33
441.369	3.35
441.575	3.09
441.782	3.15
441.988	3.03
442.194	3.02
442.4	3.12
442.606	3.37
442.812	3.43
443.018	3.47
443.224	3.6
443.431	3.6
443.637	3.41
443.843	3.37
444.049	3.41
444.255	3.31
444.461	3.38
444.667	3.43
444.873	3.63
445.079	3.65
445.284	3.77
445.49	3.53
445.696	3.36
445.902	3.28
446.108	3.26
446.314	3.11
446.52	3.24
446.726	3.62
446.931	3.58
447.137	3.64
447.343	3.81
447.549	3.78
447.755	3.54
447.96	3.63
448.166	3.56
448.372	3.47
448.578	3.53
448.783	3.56
448.989	3.6
449.195	3.8
449.4	3.86
449.606	3.83
449.812	3.75
450.017	3.75
450.223	3.59
450.428	3.5
450.634	3.57
450.84	3.79
451.045	3.69
451.251	3.72
451.456	3.97
451.662	4.14
451.867	4.17
452.073	4.22
452.278	4.33
452.483	4.33
452.689	4.21
452.894	4.23
453.1	4.22
453.305	4.05
453.51	3.9
453.716	3.85
453.921	3.82
454.127	3.77
454.332	3.86
454.537	3.94
454.742	3.94
454.948	3.89
455.153	3.98
455.358	4.05
455.563	4.23
455.769	4.34
455.974	4.39
456.179	4.23
456.384	4.2
456.589	4.09
456.795	3.84
457	3.79
457.205	4.14
457.41	4.1
457.615	4.08
457.82	4.25
458.025	4.25
458.23	4.03
458.435	4.12
458.64	4.01
458.845	4.17
459.05	4.19
459.255	4.21
459.46	4.17
459.665	4.24
459.87	4.16
460.075	4.15
460.28	4.17
460.485	4.34
460.69	4.34
460.895	4.26
461.099	4.25
461.304	4.35
461.509	4.3
461.714	4.26
461.919	4.44
462.123	4.41
462.328	4.41
462.533	4.35
462.738	4.52
462.942	4.45
463.147	4.53
463.352	4.55
463.556	4.59
463.761	4.57
463.966	4.6
464.17	4.68
464.375	4.6
464.58	4.64
464.784	4.62
464.989	4.54
465.193	4.5
465.398	4.55
465.602	4.57
465.807	4.55
466.011	4.66
466.216	4.78
466.42	4.75
466.625	4.88
466.829	5.01
467.034	5.04
467.238	5.19
467.443	5.31
467.647	5.16
467.851	5.17
468.056	5.23
468.26	5.07
468.464	5.1
468.669	5.23
468.873	5.35
469.077	5.28
469.282	5.45
469.486	5.43
469.69	5.48
469.894	5.32
470.099	5.42
470.303	5.43
470.507	5.38
470.711	5.24
470.915	5.29
471.119	5.25
471.324	5.17
471.528	5.24
471.732	5.43
471.936	5.39
472.14	5.53
472.344	5.59
472.548	5.63
472.752	5.77
472.956	6.03
473.16	5.94
473.364	5.92
473.568	5.91
473.772	5.91
473.976	5.8
474.18	5.82
474.384	5.92
474.588	5.88
474.792	5.73
474.995	5.79
475.199	5.92
475.403	5.99
475.607	6.02
475.811	6.11
476.015	6.17
476.218	6.2
476.422	6.09
476.626	6.18
476.83	6.27
477.033	6.19
477.237	6.09
477.441	6.17
477.644	6.17
477.848	6.13
478.052	6.11
478.255	6.12
478.459	6.17
478.663	6.37
478.866	6.35
479.07	6.42
479.273	6.61
479.477	6.6
479.681	6.46
479.884	6.5
480.088	6.48
480.291	6.38
480.495	6.36
480.698	6.36
480.901	6.43
481.105	6.52
481.308	6.5
481.512	6.53
481.715	6.65
481.919	6.7
482.122	6.73
482.325	6.82
482.529	6.87
482.732	6.82
482.935	6.74
483.138	6.72
483.342	6.75
483.545	6.86
483.748	6.91
483.952	6.97
484.155	7.09
484.358	7.16
484.561	7.04
484.764	7.02
484.967	7.09
485.171	7.16
485.374	7.06
485.577	7.19
485.78	7.24
485.983	7.24
486.186	7.07
486.389	7.05
486.592	7.02
486.795	7.08
486.998	7.01
487.201	7.09
487.404	7.17
487.607	7.22
487.81	7.19
488.013	7.3
488.216	7.26
488.419	7.19
488.622	7.13
488.825	7.03
489.028	6.94
489.231	6.94
489.433	6.98
489.636	6.91
489.839	6.94
490.042	6.92
490.245	6.91
490.447	6.92
490.65	6.95
490.853	6.95
491.056	7.03
491.258	7
491.461	7.03
491.664	7.13
491.866	7.1
492.069	7.17
492.272	7.16
492.474	7.19
492.677	7.19
492.879	7.25
493.082	7.26
493.285	7.44
493.487	7.37
493.69	7.33
493.892	7.3
494.095	7.25
494.297	7.18
494.5	7.26
494.702	7.28
494.905	7.35
495.107	7.34
495.309	7.36
495.512	7.38
495.714	7.41
495.917	7.43
496.119	7.46
496.321	7.56
496.524	7.52
496.726	7.53
496.928	7.55
497.13	7.53
497.333	7.46
497.535	7.53
497.737	7.48
497.939	7.49
498.142	7.58
498.344	7.6
498.546	7.51
498.748	7.58
498.95	7.64
499.152	7.64
499.355	7.63
499.557	7.75
499.759	7.85
499.961	7.74
500.163	7.74
500.365	7.75
500.567	7.82
500.769	7.73
500.971	7.85
501.173	7.76
501.375	7.84
501.577	7.79
501.779	7.82
501.981	7.82
502.183	7.86
502.385	7.76
502.587	7.69
502.788	7.74
502.99	7.73
503.192	7.85
503.394	7.88
503.596	7.95
503.798	8.06
503.999	8.13
504.201	8.1
504.403	8.14
504.605	8.16
504.806	8.05
505.008	8.02
505.21	8.16
505.411	8.21
505.613	8.2
505.815	8.2
506.016	8.22
506.218	8.24
506.42	8.24
506.621	8.31
506.823	8.37
507.024	8.35
507.226	8.29
507.427	8.28
507.629	8.31
507.83	8.32
508.032	8.34
508.233	8.39
508.435	8.46
508.636	8.52
508.838	8.57
509.039	8.6
509.24	8.57
509.442	8.64
509.643	8.56
509.845	8.51
510.046	8.6
510.247	8.68
510.448	8.61
510.65	8.69
510.851	8.81
511.052	8.81
511.254	8.79
511.455	8.87
511.656	8.86
511.857	8.89
512.058	8.86
512.26	8.84
512.461	8.78
512.662	8.86
512.863	8.75
513.064	8.77
513.265	8.78
513.466	8.85
513.667	8.81
513.868	8.87
514.069	8.97
514.27	9.09
514.471	9.08
514.672	9.08
514.873	9.03
515.074	9.05
515.275	8.89
515.476	8.91
515.677	8.94
515.878	9.03
516.079	8.98
516.28	9.1
516.481	9.21
516.682	9.3
516.882	9.25
517.083	9.24
517.284	9.16
517.485	9.12
517.686	9.04
517.886	9.07
518.087	9.18
518.288	9.27
518.488	9.27
518.689	9.33
518.89	9.34
519.091	9.33
519.291	9.34
519.492	9.35
519.692	9.41
519.893	9.47
520.094	9.46
520.294	9.4
520.495	9.42
520.695	9.4
520.896	9.37
521.096	9.39
521.297	9.52
521.497	9.55
521.698	9.54
521.898	9.54
522.099	9.57
522.299	9.53
522.499	9.55
522.7	9.62
522.9	9.65
523.101	9.73
523.301	9.77
523.501	9.76
523.702	9.74
523.902	9.81
524.102	9.8
524.302	9.77
524.503	9.84
524.703	9.86
524.903	9.87
525.103	9.8
525.304	9.91
525.504	9.93
525.704	9.96
525.904	9.91
526.104	9.96
526.304	9.89
526.504	9.89
526.705	9.86
526.905	9.98
527.105	10
527.305	10.02
527.505	9.96
527.705	9.95
527.905	9.93
528.105	9.91
528.305	9.89
528.505	9.96
528.705	10.01
528.905	9.96
529.105	9.97
529.304	10.08
529.504	10.13
529.704	10.07
529.904	10.13
530.104	10.19
530.304	10.21
530.503	10.19
530.703	10.21
530.903	10.19
531.103	10.19
531.303	10.12
531.502	10.13
531.702	10.21
531.902	10.22
532.101	10.24
532.301	10.28
532.501	10.32
532.7	10.35
532.9	10.38
533.1	10.38
533.299	10.41
533.499	10.41
533.698	10.37
533.898	10.41
534.097	10.4
534.297	10.41
534.496	10.42
534.696	10.46
534.895	10.56
535.095	10.65
535.294	10.64
535.494	10.63
535.693	10.68
535.892	10.65
536.092	10.63
536.291	10.67
536.491	10.79
536.69	10.83
536.889	10.78
537.088	10.75
537.288	10.78
537.487	10.84
537.686	10.81
537.886	10.94
538.085	11.02
538.284	11.1
538.483	11.05
538.682	11.14
538.882	11.13
539.081	11.2
539.28	11.18
539.479	11.17
539.678	11.14
539.877	11.2
540.076	11.18
540.275	11.21
540.474	11.36
540.673	11.42
540.872	11.41
541.071	11.5
541.27	11.45
541.469	11.42
541.668	11.45
541.867	11.5
542.066	11.52
542.265	11.67
542.464	11.66
542.663	11.66
542.862	11.71
543.06	11.74
543.259	11.75
543.458	11.81
543.657	11.83
543.856	11.84
544.054	11.83
544.253	11.81
544.452	11.87
544.651	12
544.849	12.02
545.048	12.06
545.247	12.13
545.445	12.14
545.644	12.17
545.843	12.15
546.041	12.24
546.24	12.37
546.438	12.52
546.637	12.56
546.836	12.74
547.034	12.81
547.233	12.83
547.431	12.76
547.63	12.84
547.828	12.86
548.027	12.88
548.225	12.9
548.423	12.94
548.622	12.98
548.82	12.96
549.019	13.06
549.217	13.17
549.415	13.28
549.614	13.39
549.812	13.45
550.01	13.44
550.209	13.42
550.407	13.52
550.605	13.52
550.803	13.63
551.002	13.76
551.2	13.83
551.398	13.9
551.596	14
551.794	14.05
551.993	14.09
552.191	14.17
552.389	14.29
552.587	14.34
552.785	14.4
552.983	14.53
553.181	14.68
553.379	14.7
553.577	14.77
553.775	14.93
553.973	14.95
554.171	15.04
554.369	15.07
554.567	15.15
554.765	15.13
554.963	15.23
555.161	15.22
555.359	15.35
555.557	15.52
555.755	15.59
555.952	15.67
556.15	15.74
556.348	15.86
556.546	15.89
556.744	15.99
556.941	16.07
557.139	16.18
557.337	16.13
557.535	16.15
557.732	16.32
557.93	16.51
558.128	16.62
558.325	16.87
558.523	16.95
558.721	17.04
558.918	17.01
559.116	17.1
559.313	17.06
559.511	17.26
559.708	17.27
559.906	17.35
560.104	17.41
560.301	17.62
560.498	17.59
560.696	17.73
560.893	17.84
561.091	17.99
561.288	18.12
561.486	18.27
561.683	18.37
561.88	18.54
562.078	18.65
562.275	18.67
562.473	18.76
562.67	18.98
562.867	19.12
563.064	19.2
563.262	19.31
563.459	19.42
563.656	19.5
563.853	19.55
564.051	19.62
564.248	19.81
564.445	19.95
564.642	20.04
564.839	20.26
565.036	20.5
565.234	20.7
565.431	20.8
565.628	20.93
565.825	21.07
566.022	21.2
566.219	21.24
566.416	21.37
566.613	21.46
566.81	21.58
567.007	21.55
567.204	21.57
567.401	21.63
567.598	21.71
567.795	21.68
567.991	21.83
568.188	22
568.385	22.23
568.582	22.34
568.779	22.5
568.976	22.62
569.172	22.78
569.369	22.73
569.566	22.81
569.763	22.85
569.96	22.89
570.156	22.8
570.353	22.91
570.55	22.95
570.746	23.02
570.943	23.08
571.14	23.17
571.336	23.27
571.533	23.43
571.729	23.45
571.926	23.51
572.123	23.68
572.319	23.68
572.516	23.59
572.712	23.75
572.909	23.83
573.105	23.86
573.302	23.93
573.498	24.09
573.695	24.05
573.891	24.05
574.087	24.11
574.284	24.07
574.48	24.02
574.677	24.02
574.873	24.1
575.069	24.09
575.266	24.24
575.462	24.18
575.658	24.41
575.854	24.48
576.051	24.49
576.247	24.47
576.443	24.66
576.639	24.57
576.835	24.47
577.032	24.44
577.228	24.51
577.424	24.47
577.62	24.48
577.816	24.58
578.012	24.66
578.208	24.65
578.404	24.73
578.6	24.73
578.796	24.75
578.993	24.72
579.189	24.71
579.384	24.52
579.58	24.48
579.776	24.38
579.972	24.4
580.168	24.33
580.364	24.5
580.56	24.52
580.756	24.49
580.952	24.48
581.148	24.51
581.343	24.53
581.539	24.56
581.735	24.69
581.931	24.7
582.127	24.73
582.322	24.64
582.518	24.63
582.714	24.62
582.909	24.7
583.105	24.73
583.301	24.77
583.496	24.82
583.692	24.8
583.888	24.7
584.083	24.73
584.279	24.74
584.474	24.62
584.67	24.68
584.866	24.71
585.061	24.6
585.257	24.61
585.452	24.67
585.648	24.56
585.843	24.63
586.039	24.68
586.234	24.72
586.429	24.66
586.625	24.72
586.82	24.73
587.015	24.71
587.211	24.54
587.406	24.66
587.601	24.64
587.797	24.66
587.992	24.68
588.187	24.81
588.383	24.67
588.578	24.69
588.773	24.7
588.968	24.69
589.163	24.84
589.359	24.88
589.554	24.95
589.749	24.99
589.944	25.13
590.139	25.02
590.334	25.12
590.529	25.18
590.724	25.21
590.919	25.31
591.114	25.47
591.309	25.54
591.504	25.59
591.699	25.58
591.894	25.66
592.089	25.61
592.284	25.66
592.479	25.81
592.674	25.88
592.869	25.85
593.064	25.98
593.259	26.06
593.454	26.11
593.648	26.18
593.843	26.17
594.038	26.12
594.233	26.16
594.428	26.16
594.622	26.19
594.817	26.42
595.012	26.47
595.206	26.53
595.401	26.5
595.596	26.56
595.79	26.55
595.985	26.72
596.18	26.8
596.374	26.96
596.569	27.07
596.763	27.11
596.958	27.22
597.153	27.37
597.347	27.39
597.542	27.44
597.736	27.4
597.931	27.45
598.125	27.49
598.319	27.64
598.514	27.66
598.708	27.86
598.903	27.93
599.097	27.94
599.291	27.95
599.486	27.98
599.68	28.06
599.874	28.12
600.069	28.28
600.263	28.36
600.457	28.5
600.651	28.45
600.846	28.42
601.04	28.42
601.234	28.4
601.428	28.56
601.622	28.7
601.817	28.83
602.011	28.89
602.205	29.02
602.399	28.98
602.593	28.89
602.787	28.87
602.981	28.79
603.175	28.79
603.369	28.69
603.563	28.8
603.757	28.88
603.951	28.95
604.145	28.9
604.339	29
604.533	28.86
604.727	28.86
604.921	28.79
605.115	28.78
605.309	28.86
605.502	28.91
605.696	28.84
605.89	28.81
606.084	28.82
606.278	28.64
606.471	28.57
606.665	28.43
606.859	28.36
607.053	28.28
607.246	28.3
607.44	28.34
607.634	28.39
607.827	28.4
608.021	28.32
608.214	28.28
608.408	28.16
608.602	28.18
608.795	28.19
608.989	28.12
609.182	28.03
609.376	28.1
609.569	27.96
609.763	27.84
609.956	27.72
610.15	27.73
610.343	27.6
610.537	27.51
610.73	27.5
610.923	27.56
611.117	27.47
611.31	27.38
611.504	27.34
611.697	27.21
611.89	27.14
612.083	26.98
612.277	26.96
612.47	26.86
612.663	26.82
612.856	26.8
613.05	26.74
613.243	26.64
613.436	26.53
613.629	26.42
613.822	26.22
614.015	26.25
614.209	26.1
614.402	26.24
614.595	26.22
614.788	26.17
614.981	25.96
615.174	25.86
615.367	25.66
615.56	25.57
615.753	25.52
615.946	25.43
616.139	25.48
616.332	25.53
616.525	25.52
616.718	25.6
616.911	25.78
617.103	25.76
617.296	25.73
617.489	25.67
617.682	25.55
617.875	25.42
618.067	25.3
618.26	25.07
618.453	25.05
618.646	25.05
618.838	25.11
619.031	25.22
619.224	25.3
619.417	25.21
619.609	25.2
619.802	25.05
619.994	24.99
620.187	24.88
620.38	24.86
620.572	24.62
620.765	24.71
620.957	24.57
621.15	24.47
621.342	24.49
621.535	24.58
621.727	24.46
621.92	24.4
622.112	24.45
622.305	24.41
622.497	24.34
622.69	24.35
622.882	24.34
623.074	24.37
623.267	24.33
623.459	24.3
623.651	24.18
623.844	24.21
624.036	24.11
624.228	24.05
624.42	24.09
624.613	24.25
624.805	24.19
624.997	24.19
625.189	24.12
625.381	24.08
625.574	23.89
625.766	23.81
625.958	23.79
626.15	23.82
626.342	23.72
626.534	23.72
626.726	23.69
626.918	23.62
627.11	23.44
627.302	23.42
627.494	23.32
627.686	23.41
627.878	23.31
628.07	23.39
628.262	23.38
628.454	23.34
628.646	23.27
628.838	23.36
629.029	23.29
629.221	23.32
629.413	23.31
629.605	23.13
629.797	23.04
629.989	23.02
630.18	22.91
630.372	22.84
630.564	22.85
630.755	22.83
630.947	22.87
631.139	22.71
631.33	22.59
631.522	22.78
631.714	22.7
631.905	22.63
632.097	22.68
632.289	22.77
632.48	22.56
632.672	22.51
632.863	22.42
633.055	22.45
633.246	22.36
633.438	22.37
633.629	22.41
633.821	22.45
634.012	22.44
634.203	22.42
634.395	22.43
634.586	22.45
634.777	22.34
634.969	22.32
635.16	22.38
635.351	22.29
635.543	22.17
635.734	22.22
635.925	22.25
636.117	22.2
636.308	22.26
636.499	22.28
636.69	22.2
636.881	22.13
637.073	22.23
637.264	22.19
637.455	22.27
637.646	22.39
637.837	22.43
638.028	22.33
638.219	22.38
638.41	22.3
638.601	22.15
638.792	22.13
638.983	22.12
639.174	22.05
639.365	22.11
639.556	22.22
639.747	22.13
639.938	22.15
640.129	22.12
640.32	22.03
640.511	22.01
640.701	22.04
640.892	22
641.083	22.04
641.274	22.12
641.465	22.08
641.655	22.07
641.846	22.02
642.037	21.94
642.228	21.79
642.418	21.83
642.609	21.81
642.8	21.85
642.99	21.77
643.181	21.83
643.372	21.84
643.562	21.85
643.753	21.79
643.943	21.84
644.134	21.72
644.324	21.62
644.515	21.62
644.705	21.71
644.896	21.61
645.086	21.71
645.277	21.65
645.467	21.7
645.658	21.56
645.848	21.69
646.038	21.75
646.229	21.74
646.419	21.55
646.61	21.56
646.8	21.47
646.99	21.35
647.18	21.39
647.371	21.38
647.561	21.34
647.751	21.35
647.941	21.26
648.132	21.18
648.322	21.22
648.512	21.3
648.702	21.29
648.892	21.31
649.082	21.25
649.272	21.17
649.462	21.02
649.653	20.99
649.843	20.93
650.033	20.96
650.223	20.94
650.413	20.9
650.603	20.83
650.793	20.85
650.983	20.71
651.172	20.64
651.362	20.61
651.552	20.56
651.742	20.46
651.932	20.59
652.122	20.72
652.312	20.82
652.502	20.77
652.691	20.75
652.881	20.57
653.071	20.45
653.261	20.07
653.45	19.9
653.64	19.87
653.83	19.8
654.019	19.57
654.209	19.58
654.399	19.56
654.588	19.42
654.778	19.29
654.968	19.27
655.157	19.25
655.347	19.18
655.536	19.06
655.726	18.92
655.915	18.75
656.105	18.57
656.294	18.34
656.484	18.11
656.673	18.02
656.863	17.92
657.052	17.82
657.241	17.65
657.431	17.45
657.62	17.23
657.809	16.89
657.999	16.61
658.188	16.45
658.377	16.35
658.567	16.13
658.756	16.07
658.945	15.95
659.134	15.78
659.324	15.63
659.513	15.52
659.702	15.32
659.891	15.14
660.08	14.96
660.269	14.86
660.458	14.64
660.648	14.43
660.837	14.33
661.026	14.17
661.215	13.95
661.404	13.79
661.593	13.74
661.782	13.52
661.971	13.48
662.16	13.34
662.349	13.25
662.538	13.07
662.726	12.97
662.915	12.74
663.104	12.6
663.293	12.43
663.482	12.38
663.671	12.29
663.86	12.09
664.048	11.86
664.237	11.86
664.426	11.55
664.615	11.5
664.803	11.46
664.992	11.47
665.181	11.31
665.369	11.29
665.558	11.05
665.747	10.95
665.935	10.85
666.124	10.86
666.312	10.87
666.501	10.81
666.69	10.73
666.878	10.64
667.067	10.43
667.255	10.4
667.444	10.6
667.632	10.64
667.82	10.72
668.009	10.69
668.197	10.58
668.386	10.44
668.574	10.46
668.762	10.32
668.951	10.25
669.139	10.34
669.327	10.22
669.516	10.25
669.704	10.24
669.892	10.44
670.08	10.38
670.269	10.3
670.457	10.11
670.645	9.89
670.833	9.94
671.021	9.82
671.21	9.98
671.398	10.24
671.586	10.37
671.774	10.19
671.962	10.29
672.15	10.22
672.338	10.12
672.526	10.19
672.714	10.14
672.902	10.21
673.09	10.37
673.278	10.46
673.466	10.57
673.654	10.78
673.842	10.79
674.03	10.85
674.218	10.7
674.405	10.76
674.593	10.69
674.781	10.74
674.969	10.74
675.157	10.95
675.344	11.12
675.532	11.34
675.72	11.51
675.908	11.67
676.095	11.7
676.283	11.66
676.471	11.77
676.658	11.75
676.846	11.81
677.033	11.84
677.221	12.01
677.409	11.91
677.596	12.07
677.784	12.19
677.971	12.34
678.159	12.36
678.346	12.61
678.534	12.69
678.721	12.85
678.909	12.91
679.096	13.08
679.283	13.24
679.471	13.4
679.658	13.46
679.846	13.76
680.033	14.1
680.22	14.23
680.408	14.37
680.595	14.37
680.782	14.41
680.969	14.33
681.157	14.38
681.344	14.51
681.531	14.75
681.718	14.89
681.905	15.16
682.093	15.47
682.28	15.71
682.467	16
682.654	16.26
682.841	16.52
683.028	16.69
683.215	16.92
683.402	16.95
683.589	17.17
683.776	17.51
683.963	17.65
684.15	17.99
684.337	18.39
684.524	18.65
684.711	18.84
684.898	19.01
685.085	19.21
685.271	19.5
685.458	19.88
685.645	20.21
685.832	20.72
686.019	21.24
686.205	21.63
686.392	21.86
686.579	22.32
686.766	23.02
686.952	23.29
687.139	23.8
687.326	24.13
687.512	24.41
687.699	24.56
687.886	25
688.072	25.41
688.259	26.17
688.445	26.95
688.632	27.35
688.818	27.98
689.005	28.62
689.191	29.13
689.378	29.61
689.564	30.42
689.751	30.83
689.937	31.16
690.124	31.76
690.31	32.09
690.496	32.57
690.683	33.38
690.869	34.14
691.055	34.66
691.242	35.43
691.428	36.1
691.614	36.6
691.8	37.26
691.987	37.86
692.173	38.46
692.359	39.04
692.545	39.67
692.731	40.19
692.918	40.92
693.104	41.46
693.29	42.05
693.476	42.66
693.662	43.23
693.848	43.9
694.034	44.64
694.22	45.15
694.406	45.82
694.592	46.66
694.778	47.21
694.964	47.65
695.15	48.39
695.336	49.03
695.522	49.77
695.708	50.35
695.894	51.17
696.08	51.74
696.265	52.29
696.451	52.69
696.637	53.14
696.823	53.48
697.009	53.83
697.194	54.1
697.38	54.41
697.566	54.76
697.751	55.3
697.937	56.09
698.123	56.82
698.308	57.42
698.494	58.11
698.68	58.42
698.865	58.83
699.051	59.42
699.236	59.86
699.422	60.41
699.607	60.87
699.793	61.12
699.978	61.38
700.164	61.62
700.349	62.02
700.535	62.48
700.72	62.66
700.906	63.03
701.091	63.45
701.276	63.9
701.462	64.37
701.647	65.18
701.832	65.46
702.018	65.85
702.203	65.94
702.388	66.01
702.573	66.13
702.759	67
702.944	67.28
703.129	67.48
703.314	68.03
703.499	68.28
703.684	67.84
703.87	68.57
704.055	69.21
704.24	69.4
704.425	69.82
704.61	70.36
704.795	70.25
704.98	70.25
705.165	70.25
705.35	70.53
705.535	70.66
705.72	70.73
705.905	71.04
706.09	71.45
706.275	71.35
706.459	71.2
706.644	71.37
706.829	71.51
707.014	71.22
707.199	71.61
707.384	72.19
707.568	72.38
707.753	73.07
707.938	73.62
708.123	73.73
708.307	73.7
708.492	74.28
708.677	73.73
708.861	73.62
709.046	73.33
709.231	73.87
709.415	73.93
709.6	74.28
709.784	74.36
709.969	74.71
710.153	74.56
710.338	74.5
710.522	74.77
710.707	75.51
710.891	75.64
711.076	75.89
711.26	75.74
711.445	75.78
711.629	75.52
711.813	75.98
711.998	75.96
712.182	75.77
712.366	76.14
712.551	76.97
712.735	76.8
712.919	76.58
713.103	77.23
713.288	76.75
713.472	75.92
713.656	76.56
713.84	76.91
714.024	76.49
714.208	76.83
714.393	77.29
714.577	77.02
714.761	77.14
714.945	77.6
715.129	77.76
715.313	78.02
715.497	77.91
715.681	78.32
715.865	78.11
716.049	78.05
716.233	78.01
716.417	78.55
716.601	78.11
716.785	78.31
716.968	77.97
717.152	77.86
717.336	77.28
717.52	77.2
717.704	77.18
717.888	77.93
718.071	77.84
718.255	78.21
718.439	78.23
718.622	78.67
718.806	78.2
718.99	78.43
719.174	78.31
719.357	79.02
719.541	78.57
719.724	79.12
719.908	79.93
720.092	80.56
720.275	80.42
720.459	80.81
720.642	80.16
720.826	79.65
721.009	79.43
721.193	79.36
721.376	79.6
721.559	80.33
721.743	80.69
721.926	80.9
722.11	80.94
722.293	80.68
722.476	80.31
722.66	80.12
722.843	79.82
723.026	79.34
723.21	79.97
723.393	80.61
723.576	80.53
723.759	80.59
723.942	81.27
724.126	80.7
724.309	80.73
724.492	80.8
724.675	81.08
724.858	81.06
725.041	81.45
725.224	81.49
725.407	81.84
725.59	82.08
725.774	82.23
725.957	81.61
726.14	81.1
726.322	81.07
726.505	80.42
726.688	80.75
726.871	81.1
727.054	81.58
727.237	81.19
727.42	81.65
727.603	81.72
727.786	82.08
727.968	82.15
728.151	82.39
728.334	82.63
728.517	82.21
728.699	82.06
728.882	81.99
729.065	82.32
729.248	82.95
729.43	83.48
729.613	84.41
729.796	85.1
729.978	84.24
730.161	83.47
730.343	83.01
730.526	83.16
730.708	82.09
730.891	83.07
731.073	83.01
731.256	83.2
731.438	82.68
731.621	83.47
731.803	83.35
731.986	83.44
732.168	83.11
732.35	83.48
732.533	83.6
732.715	83.62
732.898	84.1
733.08	84.07
733.262	84.08
733.444	83.68
733.627	83.97
733.809	83.88
733.991	85.22
734.173	85.11
734.355	85.69
734.538	85.89
734.72	85.32
734.902	84.92
735.084	85.05
735.266	84.84
735.448	84.9
735.63	85.41
735.812	85.56
735.994	86.23
736.176	86.92
736.358	86.44
736.54	87.08
736.722	86.24
736.904	85.34
737.086	84.48
737.268	85
737.45	85.03
737.632	85.58
737.814	85.38
737.995	86.13
738.177	86.25
738.359	85.64
738.541	86.52
738.723	87.36
738.904	87.83
739.086	87.61
739.268	88.19
739.449	87.86
739.631	87.31
739.813	87.1
739.994	87.35
740.176	87.54
740.358	87.33
740.539	88.43
740.721	88.21
740.902	88.68
741.084	87.8
741.265	87.22
741.447	86.26
741.628	86.47
741.81	85.2
741.991	86.83
742.172	87.92
742.354	88.92
742.535	87.7
742.717	89.31
742.898	88.74
743.079	88.69
743.261	88.49
743.442	89.24
743.623	88.92
743.804	89.16
743.986	89.65
744.167	88.23
744.348	88.11
744.529	88.36
744.71	87.27
744.891	85.92
745.073	85.96
745.254	85.3
745.435	84.72
745.616	84.2
745.797	85.23
745.978	85.52
746.159	86.5
746.34	85.3
746.521	87.93
746.702	86.56
746.883	87.21
747.064	86.2
747.245	87.19
747.426	86.11
747.606	86.78
747.787	86.62
747.968	87.4
748.149	87.44
748.33	86.83
748.51	86.87
748.691	85.46
748.872	85.95
749.053	85.69
749.233	84.99
749.414	84.62
749.595	84.85
749.775	83.66
749.956	82.94
750.137	84.34
750.317	85.65
750.498	87.59
750.678	87.96
750.859	89.48
751.04	88.28
751.22	86.89
751.4	85.43
751.581	84.91
751.761	83.61
751.942	84.84
752.122	84.67
752.303	84.69
752.483	85
752.663	85.38
752.844	82.88
753.024	84.08
753.204	84.4
753.385	82.96
753.565	82.98
753.745	85.02
753.925	84.28
754.106	82.4
754.286	82.35
754.466	81.24
754.646	81.09
754.826	80.73
755.006	80.93
755.187	83.2
755.367	84.98
755.547	85.71
755.727	86.1
755.907	87.55
756.087	87.84
756.267	86.09
756.447	85.16
756.627	84.85
756.807	85
756.987	84
757.167	85.6
757.346	85.44
757.526	84.56
757.706	84.43
757.886	85.71
758.066	84.46
758.246	86
758.425	85.77
758.605	85.79
758.785	84.26
758.965	85.31
759.144	82.52
759.324	84.26
759.504	84.19
759.683	84.48
759.863	83.07
760.043	82.25
760.222	80.72
760.402	79.49
760.581	79.19
760.761	81.1
760.94	81.56
761.12	83.43
761.299	83.96
761.479	84.05
761.658	81.78
761.838	81.44
762.017	81.26
762.197	81.73
762.376	82.82
762.555	84.71
762.735	85.99
762.914	83.93
763.093	84.51
763.273	83.27
763.452	81.73
763.631	83.01
763.81	84.1
763.99	83.3
764.169	83.18
764.348	81.77
764.527	79.46
764.706	80.52
764.885	82.17
765.064	80.55
765.243	81.85
765.423	83.13
765.602	82.49
765.781	79.83
765.96	78.87
766.139	78.07
766.318	78.54
766.497	77.16
766.676	77.96
766.854	81.47
767.033	82.28
767.212	80.72
767.391	81.06
767.57	80.98
767.749	81
767.928	82.74
768.106	81.31
768.285	79.19
768.464	80.27
768.643	78.91
768.821	78.67
769	81.97
769.179	84.01
769.357	80.21
769.536	78.96
769.715	78.59
769.893	77.03
770.072	76.11
770.25	79.85
770.429	81.7
770.607	79.67
770.786	79.61
770.964	81.99
771.143	80.85
771.321	82.28
771.5	84.23
771.678	83.44
771.857	81.08
772.035	80.51
772.213	78.13
772.392	75.58
772.57	78.65
772.748	78.43
772.927	77.91
773.105	77.91
773.283	80.55
773.461	79.26
773.64	80.5
773.818	80.98
773.996	82.47
774.174	81.31
774.352	79.14
774.531	76.26
774.709	78.13
774.887	75.57
775.065	74.03
775.243	74.24
775.421	75.57
775.599	76.09
775.777	75.05
775.955	76.04
776.133	75.63
776.311	76.84
776.489	73.96
776.667	75.67
776.844	75.06
777.022	73.95
777.2	73.7
777.378	75.35
777.556	76.46
777.734	79.79
777.911	82.01
778.089	79.96
778.267	79.86
778.445	77.59
778.622	77.15
778.8	76.34
778.978	79.32
779.155	77
779.333	78.19
779.511	74.36
779.688	77.33
779.866	71.84
780.043	70.85
780.221	69.79
780.398	69.24
780.576	68.82
780.753	72.61
780.931	73.89
781.108	75.66
781.286	78.37
781.463	74.7
781.64	71.08
781.818	73.47
781.995	73.57
782.172	72.63
782.35	74.07
782.527	80.39
782.704	77.6
782.882	78.23
783.059	77.92
783.236	79
783.413	79.18
783.59	79.45
783.768	74.96
783.945	78.24
784.122	76.55
784.299	73.46
784.476	74.5
784.653	73.2
784.83	67.09
785.007	63.6
785.184	63.6
785.361	59.99
785.538	67.92
785.715	71.9
785.892	75.96
786.069	78.77
786.246	80.12
786.423	77.25
786.6	77.13
786.776	75.42
786.953	69.95
787.13	72.93
787.307	71.93
787.484	69.82
787.66	68.97
787.837	72.2
788.014	71.74
788.191	69.77
788.367	69.88
788.544	75.81
788.721	73.83
788.897	74.42
789.074	77.81
789.25	73.24
789.427	68.69
789.603	69.37
789.78	69.07
789.956	66.72
790.133	70.72
790.309	74.59
790.486	76.63
790.662	75.08
790.839	75.71
791.015	77.63
791.192	73.25
791.368	75.47
791.544	72.42
791.721	72.37
791.897	70.66
792.073	70.7
792.249	61.25
792.426	66.17
792.602	68.79
792.778	72.02
792.954	72.33
793.13	75.2
793.307	69.57
793.483	59.35
793.659	57.24
793.835	58.06
794.011	57.7
794.187	57.96
794.363	64.57
794.539	68.57
794.715	63.17
794.891	64.31
795.067	62.46
795.243	66.77
795.419	61.17
795.595	61.66
795.771	63.67
795.947	68.72
796.122	62.25
796.298	65.44
796.474	64.72
796.65	65.15
796.826	61.8
797.001	61.25
797.177	55.15
797.353	61.08
797.529	58.33
797.704	58.59
797.88	60.45
798.056	62.71
798.231	58.21
798.407	61.66
798.582	61.78
798.758	68.35
798.934	72.37
799.109	76.17
799.285	73.87
799.46	81.21
799.636	77.32
799.811	74.2
799.986	75.18
800.162	75.71
800.337	71.7
800.513	66.95
800.688	71.15
800.863	79.05
801.039	73.62
801.214	70.38
801.389	74.04
801.565	67.12
801.74	51.8
801.915	60.09
802.09	65.07
802.265	68.73
802.441	67.69
802.616	68.24
802.791	66.74
802.966	60.68
803.141	58.37
803.316	55.11
803.491	59.1
803.666	57.28
803.841	57.6
804.016	55.04
804.191	67.84
804.366	65.47
804.541	64.25
804.716	61.59
804.891	56.92
805.066	58.32
805.241	54.32
805.416	56.71
805.591	56.2
805.765	62.53
805.94	59.05
806.115	67.91
806.29	60.6
806.464	63.11
806.639	62.24
806.814	54.48
806.989	36.26
807.163	51.22
807.338	54.58
807.512	51.24
807.687	45.7
807.862	64.3
808.036	64.36
808.211	63.97
808.385	71.68
808.56	86.59
808.734	94.23
808.909	85.52
809.083	82.29
809.258	79.77
809.432	81.65
809.606	57.67
809.781	54.59
809.955	54.3
810.13	57.22
810.304	48.82
810.478	53.87
810.652	66.41
810.827	69.36
811.001	58.39
811.175	55.19
811.349	54.82
811.524	45.85
811.698	43.52
811.872	50.39
812.046	62.05
812.22	69.01
812.394	68.19
812.568	69.08
812.742	79.42
812.916	72.01
813.09	64.88
813.264	56.59
813.438	60.99
813.612	47.56
813.786	42.69
813.96	54.96
814.134	68.09
814.308	70.52
814.482	74.02
814.656	68.79
814.83	71.62
815.003	69.42
815.177	56.36
815.351	49.39
815.525	55.39
815.698	41.58
815.872	37.45
816.046	39.47
816.219	43.99
816.393	51.63
816.567	64.02
816.74	58.31
816.914	58.34
817.088	68.24
817.261	62.66
817.435	43.29
817.608	46.74
817.782	43.73
817.955	42.88
818.129	43.08
818.302	56.23
818.475	66.76
818.649	64.83
818.822	51.4
818.996	69.24
819.169	67.12
819.342	54.31
819.516	71.07
819.689	80.18
819.862	63.39
820.035	52.38
820.209	48.02
820.382	44.5
820.555	45.87
820.728	27.97
820.901	30.79
821.075	32.47
821.248	41.66
821.421	23.83
821.594	38.61
821.767	62.74
821.94	85.4
822.113	52.51
822.286	49.53
822.459	48.98
822.632	28.37
822.805	3.67
822.978	11.09
823.151	23.79
823.324	24.94
823.496	6.56
823.669	4.32
823.842	14.31
824.015	-4.33
824.188	-17.15
824.361	6.24
824.533	12.16
824.706	24.23
824.879	29.23
825.051	49.08
825.224	39.65
825.397	31.61
825.569	12.06
825.742	37.19
825.915	32.65
826.087	50.22
826.26	48.53
826.432	50.02
826.605	48.26
826.777	46.24
826.95	53.29
827.122	41.96
827.295	39.59
827.467	35.64
827.64	10.9
827.812	-3.75
827.984	12.46
828.157	3.42
828.329	-38.96
828.501	-20.62
828.674	-1.03
828.846	-15.78
829.018	16.74
829.19	16.41
829.363	37.85
829.535	39.99
829.707	46.03
829.879	20.52
830.051	32.3
830.223	13.32
830.395	-25.72
830.568	-34.11
830.74	-38.06
830.912	1.66
831.084	-11.79
831.256	1.01
831.428	4.72
831.6	-1.03
831.772	-52.92
831.943	-53.9
832.115	-41.04
832.287	-3.73
832.459	16.59
832.631	33.3
832.803	60.32
832.975	84.52
833.146	47.04
833.318	38.17
833.49	50.81
833.662	45.53
833.833	17.32
834.005	27.22
834.177	35.22
834.348	34.13
834.52	13.82
834.692	38.3
834.863	35.07
835.035	19.14
835.206	-41.63
835.378	-39.76
835.549	-39.62
835.721	-22.73
835.892	1.58
836.064	14.27
836.235	21.78
836.407	32.16
836.578	25.5
836.749	15.2
836.921	-8.49
837.092	-39.72
837.264	-66.42
837.435	-70.82
837.606	-42.37
837.777	-2.59
837.949	30.51
838.12	49.8
838.291	55.26
838.462	68.62
838.633	38.39
838.805	24.13
838.976	27.76
839.147	-15.57
839.318	-50.91
839.489	-84.69
839.66	-69.31
839.831	-19.68
840.002	-1.3
840.173	-10.04
840.344	57.67
840.515	65.93
840.686	-82.91
840.857	-78.76
841.028	-44.92
841.199	-46.28
841.369	-70.68
841.54	-39.03
841.711	-12.54
841.882	21.27
842.053	19.1
842.223	18.41
842.394	20.97
842.565	29.04
842.736	14.44
842.906	3.79
843.077	29.51
843.248	65.59
843.418	71.73
843.589	56.56
843.759	152.19
843.93	164.16
844.101	64.29
844.271	55.15
844.442	59.23
844.612	52.65
844.783	15.3
844.953	-24.37
845.123	-40.44
845.294	-57.3
845.464	-267.76
845.635	-132.49
845.805	-16.09
845.975	6.96
846.146	-30.87
846.316	-15.98
846.486	13.38
846.656	48.17
846.827	39.38
846.997	55.85
847.167	95.09
847.337	37.3
847.507	-28.9
847.677	-29.83
847.848	21.92
848.018	27.62
848.188	38.38
848.358	30.19
848.528	26.95
848.698	-15.53
848.868	-100.97
849.038	-184.66
849.208	-65.19
849.378	-46.21
849.548	-7.37
849.718	1.69
849.887	28.28
850.057	2.5
850.227	-21.83
850.397	-67.55
850.567	-123.18
850.737	-356.09
850.906	-671.25
851.076	-372.66
851.246	-80.1
851.415	22.57
851.585	7.38
851.755	-23.08
851.924	-0.29
852.094	-22.01
852.264	-140.71
852.433	-1000.96
852.603	-200.5
852.772	-132.08
852.942	-63.16
853.111	-35.38
853.281	17.21
853.45	47.69
853.62	-19.11
853.789	-47.52
853.959	-12.6
854.128	-59.34
854.297	-102.44
854.467	-128.96
854.636	-100.18
854.805	-31.55
854.975	-54.71
855.144	-83.01
855.313	12.59
855.482	-271.53
855.652	-172.18
855.821	-87.21
855.99	10.05
856.159	16.56
856.328	32.17
856.497	-0.26
856.667	1.08
856.836	-13.61
857.005	-27.85
857.174	-69.84
857.343	-85.21
857.512	-12.33
857.681	-19.75
857.85	-45.05
858.019	-9.88
858.188	0.28
858.356	-45.35
858.525	-101.18
858.694	-90.99
858.863	-150.94
859.032	-109
859.201	-144.72
859.369	-73.47
859.538	-47.23
859.707	-46.62
859.876	-68.81
860.044	-78.48
860.213	2.97
860.382	12.44
860.55	7.42
860.719	34.2
860.888	70.44
861.056	57.5
861.225	40.7
861.393	91.96
861.562	101.03
861.73	6.45
861.899	-47.12
862.067	-1655.17
862.236	-108.77
862.404	-280.12
862.572	-132
862.741	-34.57
862.909	-15.03
863.078	-111.47
863.246	-46.52
863.414	-38.35
863.582	-34.43
863.751	-54.26
863.919	-16.88
864.087	-21.29
864.255	-38.59
864.424	-381.27
864.592	-55.89
864.76	-142.14
864.928	-98.4
865.096	-66.88
865.264	39.62
865.432	-279.55
865.6	165
865.768	-30.87
865.936	-92.38
866.104	-113.59
866.272	-121.88
866.44	-312.99
866.608	578.8
866.776	237.87
866.944	2162.79
867.112	-472.88
867.28	-226.43
867.448	-112.68
867.615	-47.28
867.783	-25.95
867.951	-29.41
868.119	39.76
868.286	76.51
868.454	30.45
868.622	8.59
868.789	89.1
868.957	-685.71
869.125	-1957.89
869.292	-154.79
869.46	-193.13
869.627	-37.72
869.795	-40.42
869.963	6.91
870.13	30.81
870.298	28.71
870.465	-70.22
870.632	-75.72
870.8	-65.07
870.967	-135.86
871.135	-213.46
871.302	-133.22
871.469	-113.5
871.637	-136.65
871.804	-70.92
871.971	-125.69
872.139	-474.42
872.306	-76.97
872.473	-90.31
872.64	-328.33
872.807	3.9
872.975	82.77
873.142	-28.36
873.309	640.54
873.476	64.93
873.643	77.67
873.81	59.45
873.977	90.92
874.144	91.74
874.311	14.12
874.478	-63.05
874.645	-167.13
874.812	-159.18
874.979	-114.39
875.146	-94.2
875.313	-89.51
875.48	22.6
875.647	5.39
875.813	-23.98
875.98	-3.53
876.147	-33.9
876.314	-82.71
876.481	709.09
876.647	-900
876.814	343.52
876.981	70.38
877.147	-4.65
877.314	17.45
877.481	44.31
877.647	36.37
877.814	8.51
877.98	-39.69
878.147	-14.66
878.314	42.12
878.48	-2.95
878.647	25.75
878.813	76.81
878.979	86.47
879.146	26.67
879.312	34.78
879.479	-16.45
879.645	-95.74
879.811	-334.07
879.978	-703.05
880.144	-188.76
880.31	-95.01
880.477	-313.68
880.643	-241.9
880.809	-115.43
880.975	-78.76
881.142	-676.36
881.308	-63.28
881.474	-50.32
881.64	-37.86
881.806	-89.1
881.972	8.55
882.138	17.68
882.304	100.29
882.47	-15.92
882.636	-371.31
882.802	-150.96
882.968	6.99
883.134	-3.64
883.3	-6.4
883.466	36.88
883.632	70.61
883.798	31.43
883.964	10.91
884.129	27.48
884.295	49.63
884.461	-38.02
884.627	-20.47
884.793	-34.12
884.958	-28.99
885.124	-127.53
885.29	-166.6
885.455	-302.91
885.621	-42.76
885.787	-94.86
885.952	-25.9
886.118	-37.18
886.283	-43.94
886.449	-155.59
886.614	-145.18
886.78	-331.15
886.945	1303.28
887.111	-619.08
887.276	-446.59
887.442	-1000.91
887.607	-393.4
887.773	-304.78
887.938	-287.47
888.103	-357.59
888.269	-170.78
888.434	-340.54
888.599	-103.08
888.764	-10.55
888.93	24.55
889.095	-17.24
889.26	-66.17
889.425	-39.58
889.59	6.57
889.756	-40.71
889.921	-24.73
890.086	68.98
890.251	38.83
890.416	-137.3
890.581	-866.13
890.746	15
890.911	250.32
891.076	118.42
891.241	-64.93
891.406	40.63
891.571	-55.45
891.736	-116.97
891.901	-281.42
892.065	326.37
892.23	87.29
892.395	140.31
892.56	246.24
892.725	-82.03
892.889	-519.51
893.054	-113.56
893.219	-26.5
893.384	-4.07
893.548	-77.12
893.713	-78.78
893.878	-60.28
