Data from Ofra_2a_PS_2GT10B_Reflection_3.txt Node
Date: Tue Jul 20 09:40:01 EDT 2021
User: Adam
Spectrometer: FLMT01687
Trigger mode: 0
Integration Time (sec): 9.450000E-1
Scans to average: 3
Electric dark correction enabled: true
Nonlinearity correction enabled: false
Boxcar width: 3
XAxis mode: Wavelengths
Number of Pixels in Spectrum: 3648
>>>>>Begin Spectral Data<<<<<
179.494	884.02
179.716	487.5
179.937	525.27
180.158	2158.59
180.38	-863.37
180.601	-142.19
180.823	-14.38
181.044	61.55
181.265	16.51
181.486	31.19
181.708	502.17
181.929	69.07
182.15	64.77
182.372	40.61
182.593	104.28
182.814	-29.64
183.035	25.41
183.257	36.44
183.478	-1.91
183.699	20.08
183.92	10.6
184.141	22.72
184.363	21.22
184.584	12.79
184.805	8.73
185.026	1.52
185.247	-12.94
185.468	25.64
185.689	22.22
185.91	14.83
186.132	22.14
186.353	12.28
186.574	20.55
186.795	13.64
187.016	10.51
187.237	10.1
187.458	15.54
187.679	16.22
187.9	36.11
188.121	35.31
188.342	40.41
188.563	42.14
188.784	35.96
189.005	33.91
189.226	28.52
189.447	15.13
189.667	9.65
189.888	23.76
190.109	15.95
190.33	12.38
190.551	13.98
190.772	21.81
190.993	26.29
191.214	25.87
191.434	18.09
191.655	23.71
191.876	35.69
192.097	35.05
192.318	33.77
192.538	45.55
192.759	49.74
192.98	37.57
193.201	55.46
193.421	54.59
193.642	58.58
193.863	67.95
194.083	49.79
194.304	53.23
194.525	78.68
194.745	50.63
194.966	47.28
195.187	47.71
195.407	41.72
195.628	34.88
195.848	32.4
196.069	13.67
196.29	20.27
196.51	11.05
196.731	15.25
196.951	26.02
197.172	43.95
197.392	47.05
197.613	45.66
197.833	39.77
198.054	34.08
198.274	12.29
198.495	1.67
198.715	-11.71
198.936	-28.99
199.156	-22.45
199.377	-10.17
199.597	-15.46
199.817	10.23
200.038	11.94
200.258	20.92
200.479	17.07
200.699	22.89
200.919	5.1
201.14	24.3
201.36	23.09
201.58	19.03
201.801	15.89
202.021	17.84
202.241	14.52
202.461	29.81
202.682	28.3
202.902	29.77
203.122	37.57
203.342	55.64
203.563	53.17
203.783	65
204.003	60.54
204.223	61.82
204.443	59.6
204.663	52.93
204.884	39.83
205.104	45.94
205.324	43.11
205.544	38.03
205.764	29.43
205.984	26.99
206.204	30.67
206.424	38.9
206.644	28.09
206.864	15.94
207.084	36.05
207.304	28.26
207.525	25.9
207.745	26.34
207.964	16.67
208.184	26.34
208.404	29.32
208.624	-2.74
208.844	-3.28
209.064	7.49
209.284	14.59
209.504	11.68
209.724	-10.72
209.944	-14.58
210.164	1.34
210.384	20.08
210.604	5.1
210.823	-9.88
211.043	-17.41
211.263	7.15
211.483	9.97
211.703	22.54
211.922	22.69
212.142	35.05
212.362	43.7
212.582	51.54
212.801	43.3
213.021	48.28
213.241	45.85
213.461	30.52
213.68	29.04
213.9	31.25
214.12	12.56
214.339	23.2
214.559	34.93
214.779	18.27
214.998	27.57
215.218	18.31
215.438	20.64
215.657	30.72
215.877	22.19
216.096	11.15
216.316	18.72
216.535	14.43
216.755	1.48
216.974	-6.21
217.194	-12.83
217.413	2.37
217.633	7.81
217.852	0.83
218.072	2.69
218.291	25.73
218.511	26.92
218.73	22.49
218.95	19.55
219.169	25.83
219.389	29.8
219.608	25.56
219.827	21.2
220.047	26.18
220.266	31.2
220.485	25.22
220.705	17.88
220.924	25.77
221.143	28.63
221.363	27.24
221.582	20.62
221.801	35.3
222.021	32.08
222.24	33.21
222.459	29.71
222.678	24.65
222.897	33.28
223.117	41.89
223.336	23.24
223.555	21.93
223.774	35.29
223.993	35.49
224.213	32.26
224.432	29.01
224.651	13.62
224.87	23.47
225.089	32.14
225.308	18.18
225.527	11.26
225.746	4.89
225.965	-6.74
226.184	-5.27
226.404	-20.92
226.623	-11.98
226.842	-8.54
227.061	5.99
227.28	22.42
227.499	37.58
227.718	44.59
227.936	47.66
228.155	41.85
228.374	49.61
228.593	36.19
228.812	30.46
229.031	21.16
229.25	24.11
229.469	34.63
229.688	46.19
229.907	45.79
230.125	46.44
230.344	54.21
230.563	68.03
230.782	60.83
231.001	57.25
231.22	46.3
231.438	40.23
231.657	47.9
231.876	41.14
232.095	23.25
232.313	24.83
232.532	20.38
232.751	26.89
232.969	26.51
233.188	19.86
233.407	18.64
233.625	30.46
233.844	30.95
234.063	34.89
234.281	29.97
234.5	40.49
234.719	39.76
234.937	47.04
235.156	43.72
235.374	51
235.593	41.55
235.811	38.27
236.03	18.51
236.249	32.67
236.467	31.8
236.686	36.42
236.904	13.31
237.123	28.93
237.341	29.19
237.559	28.42
237.778	30.58
237.996	21
238.215	16.09
238.433	30.12
238.652	24.21
238.87	29.15
239.088	25.7
239.307	25.06
239.525	18.46
239.743	15.39
239.962	10.65
240.18	19.43
240.398	15.82
240.617	26.16
240.835	17.82
241.053	31.62
241.271	36.58
241.49	29.95
241.708	28.53
241.926	16.27
242.144	12.91
242.363	15.81
242.581	18.9
242.799	8.87
243.017	19.84
243.235	0.61
243.453	13.62
243.672	14.99
243.89	18.1
244.108	13.73
244.326	22.89
244.544	21.83
244.762	32.97
244.98	35.39
245.198	26.85
245.416	22.29
245.634	29.44
245.852	26.78
246.07	23.41
246.288	23.02
246.506	18.71
246.724	27.51
246.942	33.11
247.16	18.47
247.378	11.21
247.596	21.56
247.814	13.45
248.032	9.09
248.25	7.46
248.468	10.75
248.685	22.09
248.903	19.26
249.121	17.05
249.339	28.38
249.557	30.04
249.775	18.14
249.992	12.54
250.21	9.87
250.428	10.04
250.646	15.21
250.863	12.19
251.081	18.49
251.299	36.42
251.517	38.26
251.734	35.77
251.952	53.1
252.17	38.99
252.387	45.24
252.605	52.14
252.823	46.22
253.04	53.84
253.258	54.75
253.475	32.82
253.693	39.4
253.911	30.51
254.128	19.97
254.346	19.31
254.563	12.21
254.781	11.52
254.998	16.97
255.216	13.16
255.433	12.96
255.651	11.66
255.868	11.22
256.086	7.65
256.303	8.94
256.521	-9.05
256.738	-13.49
256.956	-17.87
257.173	-10.21
257.39	-6.09
257.608	6.77
257.825	3.97
258.043	20.39
258.26	21.59
258.477	33.89
258.695	43.74
258.912	53.7
259.129	44.33
259.346	40.84
259.564	39.01
259.781	43.34
259.998	33.23
260.216	35.68
260.433	27.93
260.65	41.71
260.867	35.82
261.084	32.86
261.302	23.36
261.519	16.6
261.736	-0.62
261.953	5.52
262.17	-0.89
262.387	2.81
262.604	-5.86
262.822	-4.62
263.039	-1.67
263.256	9.92
263.473	2.33
263.69	-3.25
263.907	12.08
264.124	9.96
264.341	8.77
264.558	17.07
264.775	13.21
264.992	17.74
265.209	29.4
265.426	18.03
265.643	26.52
265.86	30.79
266.077	34.66
266.294	35.74
266.51	40.72
266.727	20.89
266.944	33.29
267.161	30.76
267.378	40.05
267.595	27.32
267.812	25.18
268.028	21.81
268.245	31.41
268.462	34.91
268.679	25.09
268.896	24.04
269.112	33.22
269.329	35.43
269.546	23.45
269.763	30.47
269.979	25.31
270.196	35.07
270.413	35.65
270.629	30.06
270.846	35.61
271.063	41.07
271.279	36.34
271.496	29.31
271.712	33.92
271.929	38.91
272.146	40.1
272.362	22.19
272.579	26.36
272.795	18.47
273.012	24.66
273.228	16.78
273.445	12.55
273.661	11.75
273.878	17.37
274.094	14.63
274.311	19.84
274.527	17.68
274.744	16.48
274.96	15
275.177	21.01
275.393	28.01
275.609	22.75
275.826	28.76
276.042	32.74
276.259	30.53
276.475	22.89
276.691	23.24
276.908	23.16
277.124	29.85
277.34	22.06
277.557	24.57
277.773	19.88
277.989	19.71
278.205	-1.05
278.422	5.07
278.638	7.66
278.854	16.16
279.07	8.54
279.286	14.85
279.503	19.82
279.719	39.76
279.935	19.53
280.151	29.35
280.367	24.33
280.583	25.51
280.799	31.93
281.016	29.86
281.232	22.1
281.448	30.02
281.664	25.77
281.88	33.19
282.096	33.67
282.312	19.8
282.528	21.57
282.744	23.99
282.96	28.81
283.176	16.18
283.392	17.52
283.608	33.11
283.824	35.86
284.04	35.14
284.256	27.4
284.471	22.65
284.687	24.22
284.903	19.6
285.119	-0.04
285.335	3.21
285.551	12.97
285.767	25.98
285.982	27.65
286.198	28.28
286.414	42.52
286.63	54.16
286.846	51.79
287.061	46.84
287.277	42.88
287.493	53.89
287.709	49.29
287.924	36.17
288.14	30.37
288.356	36.48
288.571	23.64
288.787	32.79
289.003	25.58
289.218	35.54
289.434	43.64
289.65	42.17
289.865	44.14
290.081	50.32
290.296	43.19
290.512	40.24
290.727	43.1
290.943	38.39
291.159	36.58
291.374	44.28
291.59	33.61
291.805	38.39
292.021	28.16
292.236	17.71
292.451	13.26
292.667	20.29
292.882	-3.85
293.098	3.05
293.313	-8.66
293.529	5.41
293.744	15.67
293.959	16.46
294.175	10.92
294.39	28.92
294.605	23.08
294.821	25.22
295.036	22.66
295.251	27.31
295.467	25.8
295.682	26.32
295.897	22.6
296.112	30.77
296.328	38.05
296.543	40.69
296.758	30.18
296.973	33.36
297.188	31.82
297.404	35.92
297.619	31.58
297.834	32.45
298.049	28.56
298.264	33.35
298.479	28.05
298.694	31.18
298.909	22.89
299.125	27.49
299.34	19.78
299.555	25.39
299.77	19.28
299.985	27.16
300.2	22.15
300.415	24.47
300.63	10.62
300.845	17.43
301.06	14.36
301.275	17.56
301.49	9.91
301.704	10.79
301.919	2.18
302.134	1.06
302.349	-7.05
302.564	-17.21
302.779	-19.69
302.994	-19.37
303.209	-28.3
303.423	-6.82
303.638	9.92
303.853	30.6
304.068	35.17
304.283	32.16
304.497	31.49
304.712	39.76
304.927	27.85
305.142	27.5
305.356	22.05
305.571	28.57
305.786	31.83
306	38.42
306.215	33.52
306.43	45.36
306.644	40.25
306.859	38.65
307.074	29.89
307.288	31.43
307.503	25.16
307.717	25.5
307.932	30.3
308.147	38.41
308.361	34.09
308.576	32.15
308.79	27.94
309.005	30.06
309.219	28.69
309.434	20.35
309.648	6.26
309.863	6.24
310.077	7.45
310.292	8.78
310.506	14.91
310.72	22.87
310.935	19.26
311.149	23.94
311.364	25.49
311.578	18.45
311.792	16.61
312.007	12.32
312.221	8.95
312.435	10.58
312.649	-9.73
312.864	-13.42
313.078	-7.11
313.292	-3.57
313.507	0.88
313.721	3.13
313.935	17.76
314.149	33.74
314.363	36.4
314.578	57.89
314.792	56.85
315.006	52.28
315.22	44.1
315.434	27.9
315.648	32.78
315.862	26.7
316.077	8.26
316.291	7.2
316.505	13.9
316.719	5.45
316.933	12.79
317.147	7.01
317.361	14.2
317.575	24.66
317.789	19.46
318.003	10.16
318.217	18.99
318.431	21.56
318.645	16.16
318.859	6.04
319.073	0.65
319.287	5.62
319.5	5.22
319.714	4.71
319.928	11.07
320.142	16.69
320.356	31.55
320.57	35.44
320.784	35.86
320.997	49.26
321.211	53.02
321.425	38.86
321.639	35.92
321.853	21.63
322.066	21.63
322.28	27.88
322.494	16.8
322.707	17.67
322.921	29.09
323.135	35.37
323.349	44.38
323.562	39.99
323.776	34.97
323.989	35.09
324.203	36.41
324.417	25.1
324.63	11.56
324.844	4.78
325.057	12.86
325.271	-10.15
325.485	-0.48
325.698	0.39
325.912	10.91
326.125	23.23
326.339	30.66
326.552	28.54
326.766	52.08
326.979	47.23
327.193	39.17
327.406	32.63
327.619	16.42
327.833	13.41
328.046	8.63
328.26	-5.16
328.473	-18.13
328.686	-11.85
328.9	-16.03
329.113	-3.36
329.326	3.43
329.54	9.21
329.753	11.77
329.966	17.99
330.179	22.78
330.393	26.14
330.606	32.56
330.819	30.16
331.032	26.78
331.246	30.17
331.459	34.27
331.672	34.35
331.885	33.94
332.098	33.98
332.311	23.57
332.525	20.05
332.738	22.25
332.951	24.7
333.164	20.51
333.377	13.65
333.59	17.24
333.803	29.68
334.016	28.72
334.229	23.14
334.442	26.6
334.655	29.23
334.868	35.57
335.081	34.87
335.294	19.96
335.507	33.51
335.72	24.59
335.933	24.03
336.146	23.86
336.359	22.53
336.572	12.02
336.785	20
336.997	9.04
337.21	14.11
337.423	10.94
337.636	9.93
337.849	1.79
338.062	9.49
338.274	9.25
338.487	10.07
338.7	10.38
338.913	5.32
339.125	14.53
339.338	23.22
339.551	21.35
339.763	20.9
339.976	23.76
340.189	21.55
340.402	23.32
340.614	21.27
340.827	18.57
341.039	23.86
341.252	16.73
341.465	17.2
341.677	16.53
341.89	19.07
342.102	15.05
342.315	22.08
342.527	15.55
342.74	28.13
342.952	36.03
343.165	45.39
343.377	46.21
343.59	43.91
343.802	43.53
344.015	41.57
344.227	32.09
344.44	19.64
344.652	22.83
344.864	25.16
345.077	28.29
345.289	17.53
345.502	16.89
345.714	20.33
345.926	25.73
346.139	17.03
346.351	5.81
346.563	8.04
346.775	18.07
346.988	19.37
347.2	15.97
347.412	13.36
347.624	15.45
347.837	15.86
348.049	14.92
348.261	11.07
348.473	2.34
348.685	7.35
348.897	8.63
349.11	14.44
349.322	15.45
349.534	18.36
349.746	25.95
349.958	33.97
350.17	31.86
350.382	25.86
350.594	18.17
350.806	25.5
351.018	25.8
351.23	25.32
351.442	24.15
351.654	25.57
351.866	35.34
352.078	34.34
352.29	38.18
352.502	38.38
352.714	35.98
352.926	34.37
353.138	36.65
353.35	28.97
353.561	20.71
353.773	18.73
353.985	18.14
354.197	9.85
354.409	15.05
354.621	15.82
354.832	8.02
355.044	21.71
355.256	11.28
355.468	7.49
355.679	18.14
355.891	14.53
356.103	13.91
356.314	15.61
356.526	8.71
356.738	10.41
356.949	10.32
357.161	9.01
357.373	8.34
357.584	13.1
357.796	12.47
358.008	9.28
358.219	17.05
358.431	15.17
358.642	14
358.854	14.29
359.065	14.4
359.277	15.99
359.488	23.88
359.7	21.82
359.911	26.51
360.123	30.9
360.334	22.84
360.546	11.75
360.757	20.87
360.969	20.18
361.18	11.95
361.391	12.38
361.603	8.44
361.814	15.21
362.025	17.88
362.237	17.16
362.448	17.9
362.659	21.72
362.871	24.27
363.082	29.69
363.293	34.49
363.504	34.74
363.716	27.13
363.927	25.75
364.138	29.13
364.349	26.06
364.56	22.14
364.772	16.39
364.983	11.39
365.194	14.84
365.405	16.06
365.616	3.71
365.827	8.14
366.038	22.22
366.25	23.8
366.461	32.75
366.672	38.5
366.883	39.6
367.094	44.81
367.305	40.87
367.516	21.6
367.727	17.77
367.938	22.05
368.149	17.35
368.36	15.15
368.571	17.78
368.781	17.64
368.992	18.47
369.203	20.81
369.414	9.93
369.625	7.84
369.836	10.53
370.047	5.78
370.258	3.8
370.468	6.47
370.679	5.18
370.89	11.82
371.101	10.48
371.312	4.42
371.522	8.56
371.733	-0.4
371.944	7.66
372.155	-7.61
372.365	-15.45
372.576	-13.23
372.787	-14.96
372.997	-14.33
373.208	-7.63
373.419	-15.62
373.629	8.59
373.84	10.99
374.05	15.23
374.261	17.35
374.472	9.88
374.682	9.11
374.893	12.57
375.103	6.49
375.314	7.52
375.524	5.76
375.735	7.42
375.945	13.57
376.156	24.91
376.366	28.33
376.577	28.22
376.787	32.67
376.997	43.71
377.208	45.78
377.418	43.57
377.629	34.99
377.839	32.25
378.049	31.69
378.26	34.34
378.47	28.48
378.68	23.58
378.89	20.03
379.101	12.55
379.311	6.05
379.521	7.47
379.732	-3.78
379.942	-10.03
380.152	-1.66
380.362	-1.81
380.572	3.34
380.783	7.9
380.993	4.26
381.203	1.94
381.413	9.91
381.623	10.92
381.833	11.08
382.043	6.91
382.253	3.56
382.463	9.09
382.674	18.55
382.884	11.76
383.094	8.67
383.304	7.29
383.514	9.56
383.724	12.39
383.934	8.38
384.144	11.72
384.353	14.52
384.563	10.12
384.773	12.34
384.983	16.88
385.193	16.48
385.403	17.37
385.613	8.41
385.823	5.93
386.033	9.18
386.242	9.52
386.452	3.3
386.662	2.03
386.872	1.19
387.082	0.92
387.291	3.47
387.501	6.2
387.711	3.84
387.921	5.12
388.13	5.56
388.34	4.01
388.55	8.37
388.759	6.5
388.969	2.64
389.179	8.01
389.388	10.04
389.598	8.7
389.807	9.89
390.017	8.65
390.227	6.61
390.436	6.09
390.646	5.04
390.855	2.39
391.065	2.89
391.274	2.59
391.484	3.26
391.693	5.58
391.903	6.26
392.112	5.71
392.322	8.1
392.531	8.49
392.74	7.75
392.95	8.24
393.159	7.7
393.369	8.3
393.578	8.28
393.787	8.31
393.997	8.96
394.206	9.22
394.415	8.74
394.625	7.43
394.834	5.85
395.043	5.4
395.252	4.98
395.462	4.34
395.671	4.48
395.88	4.22
396.089	4.71
396.298	5.69
396.508	5.62
396.717	5.44
396.926	5.13
397.135	5.21
397.344	5.1
397.553	5.76
397.762	5.34
397.971	4.92
398.181	4.78
398.39	5.13
398.599	5.2
398.808	5.5
399.017	5.28
399.226	5.79
399.435	5.85
399.644	5.84
399.853	5.95
400.062	5.8
400.27	5.62
400.479	5.62
400.688	5.35
400.897	5.76
401.106	6.07
401.315	5.71
401.524	6.02
401.733	5.85
401.941	5.7
402.15	5.57
402.359	5.56
402.568	5.3
402.777	5.51
402.985	5.4
403.194	5.5
403.403	5.41
403.612	5.44
403.82	5.25
404.029	5.39
404.238	5.41
404.446	5.31
404.655	5.15
404.864	5.09
405.072	5.2
405.281	5.14
405.489	5.07
405.698	4.86
405.906	4.89
406.115	5.06
406.324	5.03
406.532	5.06
406.741	5.22
406.949	5.2
407.158	5.35
407.366	5.37
407.574	5.37
407.783	5.38
407.991	5.2
408.2	5.13
408.408	5.14
408.617	5.08
408.825	5.09
409.033	5.03
409.242	5.08
409.45	5.09
409.658	5.07
409.867	5.02
410.075	4.92
410.283	4.87
410.491	4.87
410.7	4.89
410.908	4.97
411.116	4.87
411.324	4.94
411.533	4.88
411.741	4.84
411.949	4.86
412.157	4.88
412.365	4.88
412.573	4.97
412.781	5
412.99	5.19
413.198	5.28
413.406	5.24
413.614	5.23
413.822	5.17
414.03	5.14
414.238	5.13
414.446	4.97
414.654	4.83
414.862	4.82
415.07	4.84
415.278	4.85
415.486	4.86
415.694	4.67
415.902	4.67
416.109	4.83
416.317	4.8
416.525	4.86
416.733	4.92
416.941	4.88
417.149	5.08
417.357	5.14
417.564	5.08
417.772	5.1
417.98	4.93
418.188	4.81
418.395	4.85
418.603	4.73
418.811	4.64
419.019	4.7
419.226	4.81
419.434	4.84
419.642	4.99
419.849	4.98
420.057	5.02
420.265	5.11
420.472	4.93
420.68	4.79
420.887	4.82
421.095	4.79
421.302	4.8
421.51	4.84
421.717	4.86
421.925	4.87
422.132	4.81
422.34	4.79
422.547	4.65
422.755	4.63
422.962	4.57
423.17	4.47
423.377	4.53
423.585	4.59
423.792	4.61
423.999	4.66
424.207	4.6
424.414	4.66
424.621	4.63
424.829	4.55
425.036	4.51
425.243	4.55
425.451	4.52
425.658	4.61
425.865	4.57
426.072	4.69
426.28	4.67
426.487	4.66
426.694	4.64
426.901	4.63
427.108	4.64
427.315	4.51
427.523	4.5
427.73	4.59
427.937	4.63
428.144	4.56
428.351	4.62
428.558	4.54
428.765	4.62
428.972	4.56
429.179	4.51
429.386	4.48
429.593	4.48
429.8	4.47
430.007	4.55
430.214	4.59
430.421	4.61
430.628	4.5
430.835	4.5
431.042	4.59
431.249	4.64
431.456	4.67
431.662	4.72
431.869	4.83
432.076	4.96
432.283	4.94
432.49	4.9
432.697	4.91
432.903	4.88
433.11	4.83
433.317	4.75
433.524	4.69
433.73	4.72
433.937	4.63
434.144	4.66
434.35	4.62
434.557	4.59
434.764	4.57
434.97	4.71
435.177	4.7
435.384	4.82
435.59	4.75
435.797	4.72
436.003	4.68
436.21	4.66
436.416	4.48
436.623	4.56
436.829	4.51
437.036	4.51
437.242	4.53
437.449	4.6
437.655	4.61
437.862	4.64
438.068	4.64
438.275	4.67
438.481	4.69
438.687	4.71
438.894	4.63
439.1	4.63
439.307	4.66
439.513	4.62
439.719	4.58
439.926	4.59
440.132	4.63
440.338	4.69
440.544	4.65
440.751	4.71
440.957	4.69
441.163	4.69
441.369	4.63
441.575	4.6
441.782	4.55
441.988	4.6
442.194	4.6
442.4	4.63
442.606	4.61
442.812	4.68
443.018	4.68
443.224	4.71
443.431	4.72
443.637	4.67
443.843	4.67
444.049	4.67
444.255	4.65
444.461	4.68
444.667	4.67
444.873	4.68
445.079	4.7
445.284	4.69
445.49	4.65
445.696	4.64
445.902	4.59
446.108	4.55
446.314	4.6
446.52	4.65
446.726	4.63
446.931	4.69
447.137	4.73
447.343	4.79
447.549	4.79
447.755	4.74
447.96	4.73
448.166	4.75
448.372	4.72
448.578	4.69
448.783	4.62
448.989	4.63
449.195	4.65
449.4	4.6
449.606	4.55
449.812	4.59
450.017	4.56
450.223	4.64
450.428	4.66
450.634	4.59
450.84	4.59
451.045	4.61
451.251	4.61
451.456	4.59
451.662	4.5
451.867	4.5
452.073	4.5
452.278	4.48
452.483	4.46
452.689	4.44
452.894	4.49
453.1	4.49
453.305	4.42
453.51	4.49
453.716	4.53
453.921	4.57
454.127	4.56
454.332	4.52
454.537	4.55
454.742	4.55
454.948	4.53
455.153	4.5
455.358	4.52
455.563	4.57
455.769	4.57
455.974	4.53
456.179	4.57
456.384	4.53
456.589	4.58
456.795	4.47
457	4.43
457.205	4.4
457.41	4.44
457.615	4.47
457.82	4.55
458.025	4.5
458.23	4.55
458.435	4.52
458.64	4.52
458.845	4.53
459.05	4.47
459.255	4.4
459.46	4.41
459.665	4.47
459.87	4.47
460.075	4.47
460.28	4.45
460.485	4.5
460.69	4.51
460.895	4.54
461.099	4.49
461.304	4.52
461.509	4.49
461.714	4.54
461.919	4.51
462.123	4.51
462.328	4.5
462.533	4.5
462.738	4.48
462.942	4.57
463.147	4.52
463.352	4.56
463.556	4.59
463.761	4.59
463.966	4.64
464.17	4.65
464.375	4.6
464.58	4.61
464.784	4.6
464.989	4.55
465.193	4.58
465.398	4.57
465.602	4.59
465.807	4.61
466.011	4.61
466.216	4.59
466.42	4.61
466.625	4.59
466.829	4.62
467.034	4.61
467.238	4.62
467.443	4.64
467.647	4.68
467.851	4.68
468.056	4.64
468.26	4.56
468.464	4.53
468.669	4.57
468.873	4.57
469.077	4.57
469.282	4.61
469.486	4.65
469.69	4.71
469.894	4.76
470.099	4.75
470.303	4.76
470.507	4.73
470.711	4.71
470.915	4.76
471.119	4.76
471.324	4.7
471.528	4.73
471.732	4.71
471.936	4.75
472.14	4.72
472.344	4.66
472.548	4.64
472.752	4.7
472.956	4.72
473.16	4.72
473.364	4.71
473.568	4.73
473.772	4.81
473.976	4.81
474.18	4.8
474.384	4.76
474.588	4.78
474.792	4.75
474.995	4.77
475.199	4.75
475.403	4.79
475.607	4.8
475.811	4.83
476.015	4.89
476.218	4.92
476.422	4.93
476.626	4.92
476.83	4.93
477.033	4.97
477.237	4.96
477.441	4.92
477.644	4.91
477.848	4.94
478.052	4.94
478.255	4.9
478.459	4.96
478.663	4.96
478.866	4.94
479.07	4.98
479.273	4.96
479.477	4.97
479.681	5.02
479.884	4.93
480.088	4.92
480.291	4.93
480.495	4.92
480.698	4.9
480.901	4.92
481.105	4.91
481.308	4.95
481.512	4.98
481.715	5
481.919	5.03
482.122	5.06
482.325	5.07
482.529	5.12
482.732	5.16
482.935	5.15
483.138	5.16
483.342	5.19
483.545	5.2
483.748	5.19
483.952	5.16
484.155	5.15
484.358	5.15
484.561	5.2
484.764	5.16
484.967	5.23
485.171	5.2
485.374	5.21
485.577	5.22
485.78	5.24
485.983	5.21
486.186	5.18
486.389	5.09
486.592	5.14
486.795	5.17
486.998	5.2
487.201	5.2
487.404	5.23
487.607	5.25
487.81	5.32
488.013	5.31
488.216	5.28
488.419	5.23
488.622	5.18
488.825	5.14
489.028	5.15
489.231	5.13
489.433	5.09
489.636	5.05
489.839	5.08
490.042	5.09
490.245	5.1
490.447	5.08
490.65	5.06
490.853	5.08
491.056	5.07
491.258	5.1
491.461	5.08
491.664	5.07
491.866	5.1
492.069	5.11
492.272	5.09
492.474	5.11
492.677	5.08
492.879	5.13
493.082	5.18
493.285	5.16
493.487	5.17
493.69	5.18
493.892	5.23
494.095	5.21
494.297	5.21
494.5	5.21
494.702	5.22
494.905	5.23
495.107	5.22
495.309	5.12
495.512	5.16
495.714	5.14
495.917	5.12
496.119	5.17
496.321	5.18
496.524	5.19
496.726	5.21
496.928	5.24
497.13	5.26
497.333	5.28
497.535	5.25
497.737	5.23
497.939	5.25
498.142	5.29
498.344	5.27
498.546	5.32
498.748	5.27
498.95	5.27
499.152	5.28
499.355	5.27
499.557	5.3
499.759	5.36
499.961	5.34
500.163	5.4
500.365	5.4
500.567	5.4
500.769	5.45
500.971	5.42
501.173	5.4
501.375	5.35
501.577	5.32
501.779	5.3
501.981	5.3
502.183	5.26
502.385	5.26
502.587	5.24
502.788	5.25
502.99	5.26
503.192	5.26
503.394	5.3
503.596	5.32
503.798	5.4
503.999	5.41
504.201	5.45
504.403	5.48
504.605	5.54
504.806	5.54
505.008	5.52
505.21	5.47
505.411	5.5
505.613	5.51
505.815	5.53
506.016	5.52
506.218	5.54
506.42	5.58
506.621	5.58
506.823	5.58
507.024	5.57
507.226	5.58
507.427	5.53
507.629	5.53
507.83	5.53
508.032	5.6
508.233	5.6
508.435	5.63
508.636	5.64
508.838	5.7
509.039	5.71
509.24	5.72
509.442	5.68
509.643	5.69
509.845	5.71
510.046	5.72
510.247	5.75
510.448	5.79
510.65	5.79
510.851	5.81
511.052	5.81
511.254	5.81
511.455	5.77
511.656	5.72
511.857	5.69
512.058	5.74
512.26	5.73
512.461	5.76
512.662	5.76
512.863	5.79
513.064	5.81
513.265	5.85
513.466	5.88
513.667	5.91
513.868	5.89
514.069	5.91
514.27	5.9
514.471	5.95
514.672	5.96
514.873	5.96
515.074	5.97
515.275	5.98
515.476	5.97
515.677	6.01
515.878	6.04
516.079	6.02
516.28	5.99
516.481	5.96
516.682	5.99
516.882	6.02
517.083	6.03
517.284	5.99
517.485	6.03
517.686	6.06
517.886	6.09
518.087	6.1
518.288	6.11
518.488	6.09
518.689	6.1
518.89	6.13
519.091	6.11
519.291	6.12
519.492	6.11
519.692	6.14
519.893	6.15
520.094	6.18
520.294	6.15
520.495	6.2
520.695	6.21
520.896	6.2
521.096	6.21
521.297	6.19
521.497	6.18
521.698	6.2
521.898	6.18
522.099	6.18
522.299	6.19
522.499	6.19
522.7	6.24
522.9	6.25
523.101	6.25
523.301	6.25
523.501	6.25
523.702	6.26
523.902	6.27
524.102	6.28
524.302	6.3
524.503	6.31
524.703	6.34
524.903	6.36
525.103	6.39
525.304	6.41
525.504	6.41
525.704	6.39
525.904	6.41
526.104	6.4
526.304	6.42
526.504	6.41
526.705	6.41
526.905	6.43
527.105	6.45
527.305	6.45
527.505	6.47
527.705	6.44
527.905	6.44
528.105	6.45
528.305	6.44
528.505	6.43
528.705	6.44
528.905	6.44
529.105	6.51
529.304	6.53
529.504	6.54
529.704	6.55
529.904	6.59
530.104	6.58
530.304	6.6
530.503	6.56
530.703	6.57
530.903	6.59
531.103	6.6
531.303	6.62
531.502	6.59
531.702	6.61
531.902	6.62
532.101	6.62
532.301	6.64
532.501	6.66
532.7	6.65
532.9	6.71
533.1	6.69
533.299	6.72
533.499	6.72
533.698	6.76
533.898	6.77
534.097	6.78
534.297	6.8
534.496	6.83
534.696	6.82
534.895	6.88
535.095	6.88
535.294	6.85
535.494	6.87
535.693	6.89
535.892	6.92
536.092	6.95
536.291	6.96
536.491	6.99
536.69	7.02
536.889	7.02
537.088	6.99
537.288	7.01
537.487	7.03
537.686	7.04
537.886	7.04
538.085	7.06
538.284	7.11
538.483	7.15
538.682	7.15
538.882	7.16
539.081	7.17
539.28	7.19
539.479	7.23
539.678	7.25
539.877	7.32
540.076	7.35
540.275	7.37
540.474	7.37
540.673	7.38
540.872	7.38
541.071	7.4
541.27	7.39
541.469	7.42
541.668	7.48
541.867	7.53
542.066	7.56
542.265	7.59
542.464	7.62
542.663	7.69
542.862	7.72
543.06	7.75
543.259	7.77
543.458	7.81
543.657	7.86
543.856	7.87
544.054	7.87
544.253	7.88
544.452	7.87
544.651	7.89
544.849	7.92
545.048	7.93
545.247	7.94
545.445	7.93
545.644	7.96
545.843	7.99
546.041	8.01
546.24	8.03
546.438	8.09
546.637	8.18
546.836	8.21
547.034	8.25
547.233	8.32
547.431	8.35
547.63	8.41
547.828	8.42
548.027	8.38
548.225	8.47
548.423	8.51
548.622	8.53
548.82	8.56
549.019	8.57
549.217	8.62
549.415	8.7
549.614	8.71
549.812	8.74
550.01	8.78
550.209	8.84
550.407	8.91
550.605	8.97
550.803	9.01
551.002	9.05
551.2	9.11
551.398	9.13
551.596	9.19
551.794	9.28
551.993	9.29
552.191	9.35
552.389	9.47
552.587	9.5
552.785	9.61
552.983	9.65
553.181	9.62
553.379	9.68
553.577	9.75
553.775	9.75
553.973	9.82
554.171	9.85
554.369	9.9
554.567	10
554.765	10.05
554.963	10.08
555.161	10.17
555.359	10.21
555.557	10.28
555.755	10.37
555.952	10.43
556.15	10.51
556.348	10.59
556.546	10.63
556.744	10.71
556.941	10.8
557.139	10.88
557.337	10.94
557.535	11.01
557.732	11.09
557.93	11.19
558.128	11.25
558.325	11.31
558.523	11.33
558.721	11.43
558.918	11.52
559.116	11.54
559.313	11.61
559.511	11.67
559.708	11.74
559.906	11.84
560.104	11.92
560.301	11.97
560.498	12.1
560.696	12.14
560.893	12.21
561.091	12.28
561.288	12.32
561.486	12.37
561.683	12.49
561.88	12.55
562.078	12.63
562.275	12.78
562.473	12.84
562.67	12.95
562.867	13.05
563.064	13.1
563.262	13.22
563.459	13.35
563.656	13.44
563.853	13.56
564.051	13.6
564.248	13.66
564.445	13.71
564.642	13.76
564.839	13.85
565.036	13.9
565.234	14.02
565.431	14.13
565.628	14.24
565.825	14.36
566.022	14.44
566.219	14.47
566.416	14.55
566.613	14.59
566.81	14.6
567.007	14.64
567.204	14.71
567.401	14.79
567.598	14.84
567.795	14.87
567.991	14.93
568.188	15.05
568.385	15.15
568.582	15.21
568.779	15.22
568.976	15.31
569.172	15.38
569.369	15.47
569.566	15.44
569.763	15.46
569.96	15.52
570.156	15.58
570.353	15.64
570.55	15.73
570.746	15.74
570.943	15.89
571.14	15.97
571.336	16
571.533	16.08
571.729	16.1
571.926	16.12
572.123	16.13
572.319	16.14
572.516	16.14
572.712	16.24
572.909	16.29
573.105	16.3
573.302	16.32
573.498	16.42
573.695	16.47
573.891	16.49
574.087	16.49
574.284	16.47
574.48	16.46
574.677	16.51
574.873	16.54
575.069	16.59
575.266	16.64
575.462	16.69
575.658	16.76
575.854	16.83
576.051	16.86
576.247	16.81
576.443	16.86
576.639	16.83
576.835	16.79
577.032	16.8
577.228	16.84
577.424	16.88
577.62	16.92
577.816	16.87
578.012	16.93
578.208	16.95
578.404	17.02
578.6	17
578.796	16.99
578.993	17.01
579.189	17.03
579.384	16.98
579.58	17
579.776	16.89
579.972	16.86
580.168	16.84
580.364	16.83
580.56	16.82
580.756	16.83
580.952	16.81
581.148	16.88
581.343	16.92
581.539	16.9
581.735	16.88
581.931	16.9
582.127	16.89
582.322	16.88
582.518	16.85
582.714	16.83
582.909	16.79
583.105	16.79
583.301	16.71
583.496	16.7
583.692	16.72
583.888	16.67
584.083	16.67
584.279	16.76
584.474	16.76
584.67	16.81
584.866	16.81
585.061	16.81
585.257	16.85
585.452	16.83
585.648	16.76
585.843	16.76
586.039	16.75
586.234	16.76
586.429	16.72
586.625	16.68
586.82	16.68
587.015	16.65
587.211	16.69
587.406	16.68
587.601	16.69
587.797	16.7
587.992	16.72
588.187	16.76
588.383	16.8
588.578	16.75
588.773	16.78
588.968	16.82
589.163	16.85
589.359	16.89
589.554	16.9
589.749	16.93
589.944	16.99
590.139	16.98
590.334	16.94
590.529	16.98
590.724	16.96
590.919	17.03
591.114	17.04
591.309	17.05
591.504	17.09
591.699	17.17
591.894	17.22
592.089	17.26
592.284	17.22
592.479	17.21
592.674	17.21
592.869	17.26
593.064	17.31
593.259	17.34
593.454	17.37
593.648	17.43
593.843	17.51
594.038	17.55
594.233	17.65
594.428	17.7
594.622	17.73
594.817	17.82
595.012	17.91
595.206	17.96
595.401	18.01
595.596	18.04
595.79	18.07
595.985	18.15
596.18	18.21
596.374	18.25
596.569	18.35
596.763	18.51
596.958	18.56
597.153	18.62
597.347	18.66
597.542	18.72
597.736	18.82
597.931	18.84
598.125	18.85
598.319	18.93
598.514	18.99
598.708	19.02
598.903	19.11
599.097	19.17
599.291	19.23
599.486	19.28
599.68	19.31
599.874	19.35
600.069	19.44
600.263	19.47
600.457	19.52
600.651	19.59
600.846	19.61
601.04	19.61
601.234	19.7
601.428	19.69
601.622	19.68
601.817	19.69
602.011	19.69
602.205	19.74
602.399	19.8
602.593	19.78
602.787	19.82
602.981	19.83
603.175	19.83
603.369	19.87
603.563	19.88
603.757	19.86
603.951	19.88
604.145	19.87
604.339	19.85
604.533	19.84
604.727	19.8
604.921	19.75
605.115	19.72
605.309	19.73
605.502	19.71
605.696	19.72
605.89	19.7
606.084	19.68
606.278	19.63
606.471	19.56
606.665	19.47
606.859	19.42
607.053	19.34
607.246	19.27
607.44	19.24
607.634	19.22
607.827	19.17
608.021	19.09
608.214	19.05
608.408	18.98
608.602	18.96
608.795	18.91
608.989	18.88
609.182	18.93
609.376	18.9
609.569	18.89
609.763	18.95
609.956	18.88
610.15	18.86
610.343	18.78
610.537	18.69
610.73	18.65
610.923	18.58
611.117	18.44
611.31	18.34
611.504	18.29
611.697	18.25
611.89	18.16
612.083	18.09
612.277	18
612.47	17.96
612.663	17.95
612.856	17.86
613.05	17.8
613.243	17.76
613.436	17.73
613.629	17.68
613.822	17.6
614.015	17.53
614.209	17.46
614.402	17.36
614.595	17.27
614.788	17.16
614.981	17.1
615.174	17.02
615.367	16.96
615.56	16.87
615.753	16.81
615.946	16.78
616.139	16.77
616.332	16.7
616.525	16.7
616.718	16.69
616.911	16.71
617.103	16.68
617.296	16.66
617.489	16.59
617.682	16.57
617.875	16.51
618.067	16.39
618.26	16.31
618.453	16.23
618.646	16.2
618.838	16.15
619.031	16.1
619.224	16.09
619.417	16.09
619.609	16.08
619.802	16.09
619.994	16.05
620.187	16.02
620.38	16.01
620.572	15.97
620.765	15.9
620.957	15.86
621.15	15.81
621.342	15.79
621.535	15.83
621.727	15.76
621.92	15.71
622.112	15.77
622.305	15.75
622.497	15.72
622.69	15.72
622.882	15.65
623.074	15.65
623.267	15.62
623.459	15.6
623.651	15.57
623.844	15.58
624.036	15.54
624.228	15.5
624.42	15.48
624.613	15.49
624.805	15.46
624.997	15.42
625.189	15.41
625.381	15.36
625.574	15.33
625.766	15.31
625.958	15.28
626.15	15.29
626.342	15.29
626.534	15.22
626.726	15.21
626.918	15.22
627.11	15.22
627.302	15.19
627.494	15.17
627.686	15.12
627.878	15.08
628.07	15.07
628.262	15.05
628.454	15.03
628.646	15.01
628.838	14.96
629.029	14.9
629.221	14.93
629.413	14.85
629.605	14.79
629.797	14.73
629.989	14.7
630.18	14.66
630.372	14.67
630.564	14.63
630.755	14.66
630.947	14.63
631.139	14.6
631.33	14.56
631.522	14.53
631.714	14.54
631.905	14.48
632.097	14.46
632.289	14.46
632.48	14.41
632.672	14.37
632.863	14.34
633.055	14.29
633.246	14.31
633.438	14.27
633.629	14.29
633.821	14.3
634.012	14.32
634.203	14.33
634.395	14.29
634.586	14.24
634.777	14.24
634.969	14.17
635.16	14.16
635.351	14.1
635.543	14.07
635.734	14.05
635.925	14.1
636.117	14.05
636.308	14.01
636.499	13.97
636.69	14.04
636.881	14.07
637.073	14.07
637.264	13.99
637.455	14
637.646	14.06
637.837	14.06
638.028	14.03
638.219	13.97
638.41	13.97
638.601	13.96
638.792	13.95
638.983	13.86
639.174	13.85
639.365	13.76
639.556	13.74
639.747	13.72
639.938	13.75
640.129	13.74
640.32	13.74
640.511	13.7
640.701	13.7
640.892	13.73
641.083	13.67
641.274	13.65
641.465	13.59
641.655	13.61
641.846	13.59
642.037	13.58
642.228	13.55
642.418	13.54
642.609	13.49
642.8	13.47
642.99	13.44
643.181	13.46
643.372	13.39
643.562	13.29
643.753	13.3
643.943	13.23
644.134	13.21
644.324	13.15
644.515	13.12
644.705	13.17
644.896	13.18
645.086	13.13
645.277	13.18
645.467	13.17
645.658	13.19
645.848	13.16
646.038	13.07
646.229	13.07
646.419	13.05
646.61	13.01
646.8	13.01
646.99	12.96
647.18	12.96
647.371	12.97
647.561	12.97
647.751	12.96
647.941	12.93
648.132	12.92
648.322	12.92
648.512	12.9
648.702	12.9
648.892	12.9
649.082	12.87
649.272	12.84
649.462	12.83
649.653	12.82
649.843	12.79
650.033	12.77
650.223	12.73
650.413	12.73
650.603	12.74
650.793	12.69
650.983	12.68
651.172	12.62
651.362	12.57
651.552	12.5
651.742	12.42
651.932	12.4
652.122	12.34
652.312	12.22
652.502	12.21
652.691	12.18
652.881	12.17
653.071	12.12
653.261	12.07
653.45	12.06
653.64	12.04
653.83	12.01
654.019	11.85
654.209	11.73
654.399	11.66
654.588	11.59
654.778	11.5
654.968	11.35
655.157	11.2
655.347	11.14
655.536	11.03
655.726	10.94
655.915	10.8
656.105	10.7
656.294	10.6
656.484	10.54
656.673	10.44
656.863	10.38
657.052	10.24
657.241	10.12
657.431	9.99
657.62	9.87
657.809	9.72
657.999	9.63
658.188	9.5
658.377	9.43
658.567	9.3
658.756	9.18
658.945	9.07
659.134	8.89
659.324	8.72
659.513	8.54
659.702	8.41
659.891	8.26
660.08	8.16
660.269	8.11
660.458	8.05
660.648	7.98
660.837	7.91
661.026	7.82
661.215	7.78
661.404	7.67
661.593	7.5
661.782	7.45
661.971	7.37
662.16	7.26
662.349	7.16
662.538	7.07
662.726	6.98
662.915	6.93
663.104	6.77
663.293	6.65
663.482	6.57
663.671	6.5
663.86	6.42
664.048	6.34
664.237	6.25
664.426	6.17
664.615	6.14
664.803	6.07
664.992	6
665.181	5.95
665.369	5.87
665.558	5.84
665.747	5.88
665.935	5.85
666.124	5.88
666.312	5.82
666.501	5.79
666.69	5.77
666.878	5.71
667.067	5.69
667.255	5.66
667.444	5.57
667.632	5.59
667.82	5.5
668.009	5.54
668.197	5.53
668.386	5.46
668.574	5.4
668.762	5.41
668.951	5.36
669.139	5.45
669.327	5.44
669.516	5.46
669.704	5.45
669.892	5.49
670.08	5.45
670.269	5.48
670.457	5.43
670.645	5.45
670.833	5.44
671.021	5.48
671.21	5.52
671.398	5.51
671.586	5.52
671.774	5.49
671.962	5.41
672.15	5.42
672.338	5.4
672.526	5.4
672.714	5.44
672.902	5.44
673.09	5.53
673.278	5.58
673.466	5.63
673.654	5.68
673.842	5.71
674.03	5.74
674.218	5.78
674.405	5.77
674.593	5.84
674.781	5.83
674.969	5.85
675.157	5.86
675.344	5.91
675.532	5.96
675.72	5.98
675.908	6
676.095	6.12
676.283	6.18
676.471	6.25
676.658	6.33
676.846	6.35
677.033	6.42
677.221	6.51
677.409	6.54
677.596	6.67
677.784	6.74
677.971	6.8
678.159	6.88
678.346	6.91
678.534	6.89
678.721	6.88
678.909	6.9
679.096	6.91
679.283	6.96
679.471	7.04
679.658	7.16
679.846	7.3
680.033	7.45
680.22	7.46
680.408	7.59
680.595	7.58
680.782	7.68
680.969	7.7
681.157	7.74
681.344	7.82
681.531	7.92
681.718	8.11
681.905	8.3
682.093	8.4
682.28	8.54
682.467	8.61
682.654	8.67
682.841	8.84
683.028	8.85
683.215	8.92
683.402	9.04
683.589	9.16
683.776	9.36
683.963	9.46
684.15	9.58
684.337	9.68
684.524	9.84
684.711	9.98
684.898	10.17
685.085	10.37
685.271	10.63
685.458	10.88
685.645	11.14
685.832	11.35
686.019	11.59
686.205	11.77
686.392	11.98
686.579	12.22
686.766	12.42
686.952	12.76
687.139	13.07
687.326	13.43
687.512	13.75
687.699	14.07
687.886	14.38
688.072	14.76
688.259	15.04
688.445	15.36
688.632	15.76
688.818	16.13
689.005	16.65
689.191	17.11
689.378	17.47
689.564	17.88
689.751	18.47
689.937	18.78
690.124	19.25
690.31	19.56
690.496	20.06
690.683	20.6
690.869	21.14
691.055	21.57
691.242	22.07
691.428	22.69
691.614	23.38
691.8	23.82
691.987	24.43
692.173	25.03
692.359	25.62
692.545	26.27
692.731	26.72
692.918	27.26
693.104	27.91
693.29	28.52
693.476	29.03
693.662	29.58
693.848	30.13
694.034	30.77
694.22	31.43
694.406	32.05
694.592	32.6
694.778	33.31
694.964	33.95
695.15	34.66
695.336	35.51
695.522	36.09
695.708	36.82
695.894	37.6
696.08	38.18
696.265	38.85
696.451	39.61
696.637	40.1
696.823	40.69
697.009	41.33
697.194	41.84
697.38	42.38
697.566	42.91
697.751	43.49
697.937	44.02
698.123	44.68
698.308	45.12
698.494	45.81
698.68	46.55
698.865	47.32
699.051	47.77
699.236	48.41
699.422	48.88
699.607	49.54
699.793	49.91
699.978	50.33
700.164	50.74
700.349	51.35
700.535	51.73
700.72	52.42
700.906	52.75
701.091	53.21
701.276	53.65
701.462	54.03
701.647	54.31
701.832	54.88
702.018	55.26
702.203	55.85
702.388	56.29
702.573	56.93
702.759	57.58
702.944	58.14
703.129	58.6
703.314	59.03
703.499	59.5
703.684	60.02
703.87	60.3
704.055	60.4
704.24	60.81
704.425	61.27
704.61	61.46
704.795	61.76
704.98	62.11
705.165	62.43
705.35	62.81
705.535	63.28
705.72	63.59
705.905	63.87
706.09	64.02
706.275	64.14
706.459	64.58
706.644	64.99
706.829	65.21
707.014	65.27
707.199	65.51
707.384	65.99
707.568	66.56
707.753	66.85
707.938	67.2
708.123	67.31
708.307	67.79
708.492	68.15
708.677	68.53
708.861	68.66
709.046	68.73
709.231	68.87
709.415	69.15
709.6	69.24
709.784	69.78
709.969	69.89
710.153	70.16
710.338	70.48
710.522	70.67
710.707	70.49
710.891	70.8
711.076	70.54
711.26	70.82
711.445	70.85
711.629	71.05
711.813	71.09
711.998	71.7
712.182	71.82
712.366	72.23
712.551	72.17
712.735	72.32
712.919	72.49
713.103	72.51
713.288	72.77
713.472	72.85
713.656	72.77
713.84	72.92
714.024	73.05
714.208	72.98
714.393	73.42
714.577	73.55
714.761	73.66
714.945	73.89
715.129	74.07
715.313	74.28
715.497	74.6
715.681	74.82
715.865	74.82
716.049	75.02
716.233	75.31
716.417	75.61
716.601	75.69
716.785	75.65
716.968	75.44
717.152	75.58
717.336	75.76
717.52	75.74
717.704	75.89
717.888	75.95
718.071	76.11
718.255	76.48
718.439	76.35
718.622	76.49
718.806	76.27
718.99	76.39
719.174	76.55
719.357	76.67
719.541	76.79
719.724	77.04
719.908	76.9
720.092	77.37
720.275	77.32
720.459	77.27
720.642	77.48
720.826	77.49
721.009	77.48
721.193	77.51
721.376	77.49
721.559	77.51
721.743	77.58
721.926	77.35
722.11	77.44
722.293	77.36
722.476	77.61
722.66	77.66
722.843	77.71
723.026	78.23
723.21	78.34
723.393	78.34
723.576	78.29
723.759	78.44
723.942	78.53
724.126	78.51
724.309	78.51
724.492	78.82
724.675	79.18
724.858	79.74
725.041	79.79
725.224	80.08
725.407	80.12
725.59	80.11
725.774	80.12
725.957	80.21
726.14	80.32
726.322	80.47
726.505	80.62
726.688	80.99
726.871	81.13
727.054	81.43
727.237	81.06
727.42	81.35
727.603	81.32
727.786	81.62
727.968	81.59
728.151	81.94
728.334	81.71
728.517	81.9
728.699	81.87
728.882	82.12
729.065	81.9
729.248	82.02
729.43	81.72
729.613	82.11
729.796	82.03
729.978	82.03
730.161	82.35
730.343	82.69
730.526	82.72
730.708	83.13
730.891	83.25
731.073	83.43
731.256	83.38
731.438	83.42
731.621	83.67
731.803	84.03
731.986	84.13
732.168	84.02
732.35	84.38
732.533	84.39
732.715	84.38
732.898	83.85
733.08	83.87
733.262	83.72
733.444	83.9
733.627	84.13
733.809	84.27
733.991	84.04
734.173	83.95
734.355	84.04
734.538	83.88
734.72	84.41
734.902	84.31
735.084	84.75
735.266	85.25
735.448	86.03
735.63	85.94
735.812	86.31
735.994	85.65
736.176	85.66
736.358	85.63
736.54	85.35
736.722	84.91
736.904	85.12
737.086	85.31
737.268	85.66
737.45	85.88
737.632	85.17
737.814	85.55
737.995	85.71
738.177	85.74
738.359	85.75
738.541	85.81
738.723	85.94
738.904	86.25
739.086	86.2
739.268	86.66
739.449	86.96
739.631	87.26
739.813	87.1
739.994	87.24
740.176	87.67
740.358	87.89
740.539	87.65
740.721	87.58
740.902	86.84
741.084	87.55
741.265	87.13
741.447	86.55
741.628	86.03
741.81	86.02
741.991	86.16
742.172	86.75
742.354	86.39
742.535	87
742.717	87.52
742.898	87.68
743.079	87.68
743.261	87.57
743.442	87.48
743.623	87.33
743.804	87.09
743.986	86.85
744.167	86.66
744.348	86.98
744.529	86.46
744.71	85.88
744.891	86.33
745.073	86.38
745.254	86.59
745.435	86.72
745.616	86.3
745.797	86.24
745.978	86.92
746.159	86.13
746.34	86.35
746.521	86.56
746.702	87.21
746.883	87.35
747.064	87.39
747.245	87.88
747.426	88.3
747.606	88.19
747.787	88.56
747.968	88.77
748.149	89.09
748.33	89.8
748.51	88.79
748.691	89.34
748.872	89.16
749.053	88.4
749.233	88.06
749.414	88.04
749.595	87.06
749.775	87.41
749.956	86.39
750.137	86.04
750.317	86.61
750.498	85.89
750.678	86.19
750.859	87.17
751.04	87.23
751.22	87.21
751.4	88.19
751.581	87.8
751.761	88.49
751.942	87.85
752.122	87.28
752.303	87.68
752.483	89.04
752.663	88.78
752.844	88.29
753.024	88.62
753.204	88.44
753.385	88.78
753.565	88.13
753.745	87.88
753.925	87.13
754.106	87.69
754.286	87.61
754.466	87.66
754.646	87.5
754.826	87.67
755.006	86.44
755.187	86.96
755.367	87.56
755.547	87.19
755.727	87.5
755.907	87.37
756.087	87.9
756.267	88.54
756.447	88.31
756.627	87.99
756.807	88.23
756.987	88.97
757.167	89.08
757.346	87.67
757.526	87.35
757.706	87.25
757.886	87.1
758.066	87.01
758.246	86.74
758.425	86.98
758.605	87.6
758.785	87.98
758.965	87.45
759.144	87.78
759.324	87.86
759.504	87.14
759.683	86.58
759.863	87.05
760.043	86.93
760.222	87.26
760.402	87.17
760.581	86.61
760.761	85.78
760.94	85.38
761.12	84.66
761.299	84.44
761.479	85
761.658	84.52
761.838	84.64
762.017	85.82
762.197	86.54
762.376	86.76
762.555	87.29
762.735	85.88
762.914	86.43
763.093	86.02
763.273	85.62
763.452	85.83
763.631	85.4
763.81	85.37
763.99	86.68
764.169	86.38
764.348	86.82
764.527	86.65
764.706	87.21
764.885	87.87
765.064	87.19
765.243	86.83
765.423	87.01
765.602	86.63
765.781	86.08
765.96	85.76
766.139	85.53
766.318	86.67
766.497	87.04
766.676	87.53
766.854	87.49
767.033	88.03
767.212	86.7
767.391	86.54
767.57	86.32
767.749	85.9
767.928	84.92
768.106	84.81
768.285	85.23
768.464	85.81
768.643	86.65
768.821	86.35
769	87.67
769.179	87.27
769.357	87.02
769.536	86.86
769.715	87.44
769.893	86.84
770.072	86.19
770.25	84.38
770.429	85.03
770.607	85.84
770.786	85.7
770.964	84.45
771.143	84.63
771.321	84.67
771.5	84.8
771.678	84.45
771.857	84.24
772.035	83.66
772.213	84.47
772.392	84.46
772.57	84.66
772.748	85.12
772.927	85.94
773.105	86.77
773.283	87.02
773.461	86.35
773.64	85.73
773.818	84.82
773.996	83.81
774.174	83.25
774.352	83.29
774.531	82.34
774.709	83.59
774.887	83.8
775.065	84.2
775.243	85.7
775.421	85.73
775.599	82.79
775.777	84.94
775.955	82.9
776.133	82.21
776.311	81.64
776.489	81.34
776.667	81.58
776.844	82.94
777.022	80.76
777.2	82.02
777.378	82.92
777.556	85.09
777.734	85.71
777.911	87.01
778.089	87.65
778.267	89.25
778.445	88.61
778.622	87.87
778.8	86.53
778.978	84.21
779.155	81.77
779.333	80.73
779.511	80.68
779.688	79.97
779.866	80.26
780.043	81.12
780.221	82.01
780.398	83.38
780.576	83.47
780.753	81.5
780.931	83.44
781.108	84.43
781.286	82.69
781.463	82.69
781.64	80.68
781.818	81.08
781.995	82.77
782.172	83.12
782.35	80.98
782.527	81.79
782.704	81.71
782.882	83.51
783.059	83.71
783.236	84.56
783.413	82.98
783.59	84.36
783.768	84.25
783.945	84.34
784.122	84.08
784.299	84.36
784.476	84.24
784.653	84.72
784.83	83.06
785.007	81.7
785.184	82.69
785.361	81.94
785.538	81.3
785.715	78.14
785.892	77.36
786.069	78.7
786.246	79.01
786.423	78.86
786.6	79.44
786.776	79.67
786.953	81.12
787.13	81.08
787.307	82.03
787.484	82.73
787.66	81.59
787.837	81.42
788.014	81.56
788.191	82.81
788.367	83
788.544	82.54
788.721	82.77
788.897	83.61
789.074	83.97
789.25	83.2
789.427	82.71
789.603	83.79
789.78	84.62
789.956	82.71
790.133	82.53
790.309	81.37
790.486	84.62
790.662	84.63
790.839	86.46
791.015	84.28
791.192	85.4
791.368	87.62
791.544	88.43
791.721	86.51
791.897	86.33
792.073	83.4
792.249	86.23
792.426	88.48
792.602	85.18
792.778	82.93
792.954	83.24
793.13	84.96
793.307	83.53
793.483	81.44
793.659	81.67
793.835	81.25
794.011	80.67
794.187	75.94
794.363	74.94
794.539	74.67
794.715	71.95
794.891	69.43
795.067	71.92
795.243	72.94
795.419	78.52
795.595	75.52
795.771	79.18
795.947	81.14
796.122	83.18
796.298	80.6
796.474	82.77
796.65	80.18
796.826	84.19
797.001	82.3
797.177	81.75
797.353	81.7
797.529	86.05
797.704	85.51
797.88	84.54
798.056	83.93
798.231	85.3
798.407	85.94
798.582	84.93
798.758	81.27
798.934	78.32
799.109	77.33
799.285	77.34
799.46	75.15
799.636	75.74
799.811	75.53
799.986	77.07
800.162	75.58
800.337	77.83
800.513	78.63
800.688	81
800.863	81.84
801.039	79.16
801.214	79.24
801.389	84.26
801.565	83.57
801.74	81.34
801.915	81.66
802.09	79.56
802.265	83.41
802.441	81.93
802.616	80.91
802.791	84.19
802.966	82.98
803.141	79.25
803.316	82.79
803.491	79
803.666	81.62
803.841	80.82
804.016	75.66
804.191	73.67
804.366	74.37
804.541	68.62
804.716	67.33
804.891	69.69
805.066	74.69
805.241	77.12
805.416	80.51
805.591	82.85
805.765	85.29
805.94	89.95
806.115	82.2
806.29	79.7
806.464	76.75
806.639	75.92
806.814	72.21
806.989	73.14
807.163	70.48
807.338	73.88
807.512	67.8
807.687	70.5
807.862	71.41
808.036	71.55
808.211	71.41
808.385	71.35
808.56	68.36
808.734	71.94
808.909	70.87
809.083	72.15
809.258	78.4
809.432	76.89
809.606	79.12
809.781	79.87
809.955	83.25
810.13	84.89
810.304	80.28
810.478	77.01
810.652	79.69
810.827	79.36
811.001	81.89
811.175	74.31
811.349	71.67
811.524	71.92
811.698	70.62
811.872	71.2
812.046	68.35
812.22	63.66
812.394	65.95
812.568	69.66
812.742	70.74
812.916	68.32
813.09	65.42
813.264	64.19
813.438	72.44
813.612	77.4
813.786	79.43
813.96	84.58
814.134	94.82
814.308	89.95
814.482	92.66
814.656	89.44
814.83	86.17
815.003	84.65
815.177	84.25
815.351	82.25
815.525	84.17
815.698	78.4
815.872	74.86
816.046	77.52
816.219	78.28
816.393	74.72
816.567	68.69
816.74	71.52
816.914	77.96
817.088	76.48
817.261	70.5
817.435	67.9
817.608	67.31
817.782	69.86
817.955	66.25
818.129	67.98
818.302	74.88
818.475	84.02
818.649	84.22
818.822	83.79
818.996	80.97
819.169	79.77
819.342	81.04
819.516	79.29
819.689	74.01
819.862	69.92
820.035	67.16
820.209	67.45
820.382	65.34
820.555	60.67
820.728	56.09
820.901	57.81
821.075	60.47
821.248	62.84
821.421	59.83
821.594	67.33
821.767	67.72
821.94	61.33
822.113	63.27
822.286	66.57
822.459	70.09
822.632	78.03
822.805	74.45
822.978	69.43
823.151	78.98
823.324	75.93
823.496	70.71
823.669	71.59
823.842	69.96
824.015	67.27
824.188	75.86
824.361	67.9
824.533	72.71
824.706	85.79
824.879	77
825.051	77.03
825.224	76.69
825.397	72.63
825.569	81.99
825.742	80.75
825.915	70.64
826.087	71.13
826.26	65.85
826.432	70.89
826.605	68.08
826.777	66.16
826.95	65.26
827.122	65.19
827.295	67.31
827.467	60.72
827.64	52.43
827.812	59.34
827.984	63.48
828.157	64.13
828.329	68.6
828.501	71.76
828.674	77.41
828.846	81.73
829.018	73.14
829.19	69.18
829.363	66.49
829.535	64.89
829.707	55.23
829.879	53.79
830.051	52.01
830.223	49.42
830.395	41.19
830.568	45.7
830.74	43.95
830.912	46.65
831.084	50.96
831.256	46.23
831.428	52.16
831.6	49.77
831.772	51.31
831.943	59.52
832.115	64.16
832.287	60.59
832.459	64.78
832.631	65.34
832.803	83.33
832.975	77.82
833.146	64.23
833.318	63.12
833.49	69.66
833.662	77.4
833.833	79.1
834.005	71.84
834.177	72.77
834.348	80.01
834.52	84.67
834.692	94.73
834.863	96.63
835.035	91.14
835.206	87.15
835.378	84.29
835.549	80.21
835.721	73.36
835.892	65.87
836.064	65.38
836.235	66.79
836.407	64.55
836.578	70.28
836.749	72.27
836.921	73.81
837.092	78.75
837.264	69.56
837.435	61.92
837.606	63.28
837.777	51.98
837.949	37.76
838.12	32.63
838.291	28.2
838.462	33.62
838.633	35.18
838.805	37.46
838.976	37.26
839.147	45.88
839.318	38.98
839.489	31.26
839.66	38.95
839.831	26.05
840.002	25.49
840.173	38.37
840.344	46.5
840.515	58.53
840.686	77.1
840.857	61.93
841.028	77.06
841.199	80.78
841.369	66.76
841.54	65.52
841.711	70.07
841.882	52.25
842.053	46.44
842.223	40.84
842.394	45.86
842.565	66.29
842.736	76.11
842.906	68.81
843.077	70.3
843.248	79.18
843.418	77.17
843.589	79.86
843.759	73.72
843.93	74.64
844.101	78.29
844.271	89.21
844.442	84.96
844.612	83.03
844.783	70.95
844.953	61.66
845.123	56.3
845.294	53.76
845.464	59.23
845.635	65.41
845.805	66.34
845.975	61.28
846.146	66.04
846.316	74.21
846.486	76.82
846.656	81
846.827	81.17
846.997	93.16
847.167	95.71
847.337	97.46
847.507	101.28
847.677	105.66
847.848	102.6
848.018	91.11
848.188	85.06
848.358	86.07
848.528	84.48
848.698	60.26
848.868	36.13
849.038	42.54
849.208	56.78
849.378	48.49
849.548	59.64
849.718	60.21
849.887	55.56
850.057	71.76
850.227	69.07
850.397	62.74
850.567	95.22
850.737	86.57
850.906	73.53
851.076	69.31
851.246	70.58
851.415	65.39
851.585	66.92
851.755	57.66
851.924	72.51
852.094	76.2
852.264	85.41
852.433	87.38
852.603	109.31
852.772	105.01
852.942	86.71
853.111	78.93
853.281	74.21
853.45	63.85
853.62	51.13
853.789	34.96
853.959	36.91
854.128	28.63
854.297	33.33
854.467	29.93
854.636	27.02
854.805	34.94
854.975	36.75
855.144	40.28
855.313	49.34
855.482	34.38
855.652	33.14
855.821	43.5
855.99	49.44
856.159	48.27
856.328	42.68
856.497	40.67
856.667	50.96
856.836	52.2
857.005	57.69
857.174	57.19
857.343	60.53
857.512	57.52
857.681	61.07
857.85	65.38
858.019	64.42
858.188	56.14
858.356	39.2
858.525	30.19
858.694	42.96
858.863	38.03
859.032	20.69
859.201	13.77
859.369	16.33
859.538	11.34
859.707	27.9
859.876	24.04
860.044	16.7
860.213	28.74
860.382	35.56
860.55	45.7
860.719	64.01
860.888	43.18
861.056	36.84
861.225	48.4
861.393	65.99
861.562	54.17
861.73	50.97
861.899	34.79
862.067	52.51
862.236	55.36
862.404	47.88
862.572	41.07
862.741	45.63
862.909	43.47
863.078	55.84
863.246	54.78
863.414	60.97
863.582	65
863.751	55.88
863.919	64.4
864.087	73.25
864.255	68.54
864.424	65.14
864.592	62.24
864.76	78.77
864.928	72.83
865.096	60.75
865.264	54.86
865.432	46.86
865.6	56.02
865.768	48.38
865.936	29.17
866.104	44.16
866.272	54.41
866.44	26.13
866.608	46.68
866.776	47.88
866.944	50.04
867.112	36.92
867.28	36.26
867.448	46.63
867.615	75.6
867.783	58.36
867.951	66.33
868.119	73.7
868.286	62.92
868.454	59.12
868.622	54.08
868.789	74.62
868.957	80
869.125	70.15
869.292	66.45
869.46	70.32
869.627	61.86
869.795	62.42
869.963	51.51
870.13	62.01
870.298	63.75
870.465	66.76
870.632	78.08
870.8	78.09
870.967	77.57
871.135	61.21
871.302	53.89
871.469	49.08
871.637	44.74
871.804	43.88
871.971	40.88
872.139	39.4
872.306	39.49
872.473	23.12
872.64	36.77
872.807	59.5
872.975	87.77
873.142	83.98
873.309	75.28
873.476	108.85
873.643	210.49
873.81	146.31
873.977	70.05
874.144	15.35
874.311	22.13
874.478	42.19
874.645	24.07
874.812	9.11
874.979	12.41
875.146	22.31
875.313	35.74
875.48	103.25
875.647	41.53
875.813	48.03
875.98	45.71
876.147	84.34
876.314	78.44
876.481	54.85
876.647	45.23
876.814	62.86
876.981	51.69
877.147	40.97
877.314	23.9
877.481	29.3
877.647	42.99
877.814	25.72
877.98	31.37
878.147	51.67
878.314	53.59
878.48	56.93
878.647	85.65
878.813	69.59
878.979	95.82
879.146	50.31
879.312	77.73
879.479	81.81
879.645	70.75
879.811	43.77
879.978	73.13
880.144	84.14
880.31	98.23
880.477	31.85
880.643	89.32
880.809	128.34
880.975	78.96
881.142	71.44
881.308	82.13
881.474	148.96
881.64	189.72
881.806	102.06
881.972	129.73
882.138	135.09
882.304	121.9
882.47	94.47
882.636	6.08
882.802	-63.23
882.968	-117.11
883.134	-355.67
883.3	-94.08
883.466	-13.17
883.632	-28.19
883.798	-2.11
883.964	26.28
884.129	57.52
884.295	64.15
884.461	76.47
884.627	94.18
884.793	88.75
884.958	73.03
885.124	81.58
885.29	52.83
885.455	44.77
885.621	25.9
885.787	34.15
885.952	11.92
886.118	31.57
886.283	38.15
886.449	27.92
886.614	49.91
886.78	49.38
886.945	13.27
887.111	30.91
887.276	19.66
887.442	1.08
887.607	-9.85
887.773	-18.93
887.938	-26.87
888.103	11.93
888.269	34.53
888.434	35.55
888.599	62.69
888.764	64.27
888.93	66.62
889.095	59.21
889.26	59.51
889.425	50.87
889.59	47.91
889.756	58.82
889.921	64.83
890.086	83.16
890.251	83.89
890.416	71.48
890.581	65.07
890.746	54.92
890.911	6.38
891.076	-14.46
891.241	-20.83
891.406	27.1
891.571	64.83
891.736	48.32
891.901	89.26
892.065	87.48
892.23	87.48
892.395	56.34
892.56	43.24
892.725	12.61
892.889	-2.28
893.054	-54.43
893.219	-52.74
893.384	-97.5
893.548	-210
893.713	340.1
893.878	81.52
