Data from Ofra_PS_T2_2A_9GT30_Reflection_1.txt Node
Date: Wed Jul 21 17:23:08 EDT 2021
User: Adam
Spectrometer: FLMT01687
Trigger mode: 0
Integration Time (sec): 1.100000E0
Scans to average: 2
Electric dark correction enabled: true
Nonlinearity correction enabled: false
Boxcar width: 2
XAxis mode: Wavelengths
Number of Pixels in Spectrum: 3648
>>>>>Begin Spectral Data<<<<<
179.494	615.4
179.716	706.35
179.937	679.28
180.158	675.06
180.38	1113.91
180.601	598.48
180.823	208.76
181.044	96.8
181.265	264.89
181.486	148.86
181.708	117.84
181.929	680.1
182.15	-105.99
182.372	182.35
182.593	176.57
182.814	109.42
183.035	124.65
183.257	49.6
183.478	-43.46
183.699	-36.89
183.92	-77.98
184.141	-52.04
184.363	-80.53
184.584	-16.53
184.805	12.6
185.026	65.24
185.247	61.48
185.468	40.85
185.689	30.79
185.91	14.13
186.132	-0.02
186.353	-10.03
186.574	18.02
186.795	14.98
187.016	-36.76
187.237	-53.57
187.458	-85.92
187.679	-73.88
187.9	-45.44
188.121	-21.71
188.342	-24.76
188.563	27.43
188.784	37.97
189.005	42.77
189.226	110.29
189.447	86.7
189.667	-131.19
189.888	-347.41
190.109	-1414.61
190.33	-832.42
190.551	-1173.67
190.772	-212.89
190.993	-188.37
191.214	-129.75
191.434	-74.58
191.655	-18.8
191.876	-53.33
192.097	-72.95
192.318	-153.74
192.538	-265.76
192.759	-172.43
192.98	-95.04
193.201	-38.59
193.421	-3.81
193.642	15.87
193.863	13.68
194.083	-1.97
194.304	-23.33
194.525	-24.02
194.745	-44.23
194.966	-64.65
195.187	-69.4
195.407	-95.8
195.628	-151.14
195.848	-137.52
196.069	-141.94
196.29	-68.8
196.51	-63.77
196.731	-60.45
196.951	-82.98
197.172	-47.71
197.392	-83.71
197.613	-75.6
197.833	-100.15
198.054	-75.77
198.274	-42.4
198.495	-55.19
198.715	-20.17
198.936	-54.34
199.156	-60.88
199.377	-167.67
199.597	-161.23
199.817	-173.33
200.038	-59.91
200.258	-77.52
200.479	0.37
200.699	23.28
200.919	22.39
201.14	-25.32
201.36	-51.12
201.58	-4.6
201.801	42.64
202.021	25.05
202.241	35.88
202.461	28.52
202.682	-44.76
202.902	-152.03
203.122	-91.03
203.342	-92.01
203.563	-45.08
203.783	-20.36
204.003	-62.63
204.223	-66.87
204.443	1.14
204.663	-22.53
204.884	10.79
205.104	60.03
205.324	58.71
205.544	47.18
205.764	42.14
205.984	31.86
206.204	34.28
206.424	30.75
206.644	-8.32
206.864	24.54
207.084	-7.6
207.304	-32.1
207.525	-104.14
207.745	-42.26
207.964	-13.01
208.184	-36.51
208.404	-81.74
208.624	-80.44
208.844	-86.11
209.064	-410.66
209.284	-415.87
209.504	-194.23
209.724	-58.86
209.944	-39.14
210.164	0.42
210.384	6.32
210.604	3.86
210.823	-24.06
211.043	-39.8
211.263	-27.53
211.483	-15.95
211.703	-68.54
211.922	-59.42
212.142	-4.67
212.362	-2.74
212.582	-30.68
212.801	-32.26
213.021	-34.87
213.241	-38.46
213.461	-81.68
213.68	-86.15
213.9	-35.85
214.12	-17
214.339	-83.34
214.559	-46.05
214.779	2.87
214.998	13.89
215.218	-16.36
215.438	17.54
215.657	6.35
215.877	-8.13
216.096	-9.28
216.316	1.71
216.535	-32.13
216.755	-2.29
216.974	-51.42
217.194	-90.09
217.413	-97.45
217.633	-55.8
217.852	-174.52
218.072	-83.44
218.291	-44.37
218.511	-4.16
218.73	-24.24
218.95	-27.53
219.169	-25.7
219.389	-64.01
219.608	-54.97
219.827	-44.79
220.047	-7.45
220.266	-9.34
220.485	1.96
220.705	6.33
220.924	-11.44
221.143	18.38
221.363	-7.86
221.582	2.54
221.801	8.97
222.021	14.4
222.24	-71.68
222.459	23.71
222.678	-15.55
222.897	-93.55
223.117	-90.5
223.336	-67.44
223.555	-56.37
223.774	35.24
223.993	57.98
224.213	81.43
224.432	52.15
224.651	56.81
224.87	-10.05
225.089	12.19
225.308	-3.52
225.527	14.56
225.746	3.68
225.965	7.36
226.184	-30.19
226.404	7.6
226.623	-12.64
226.842	-10.32
227.061	8.49
227.28	14.9
227.499	-15.79
227.718	4.56
227.936	1.37
228.155	15.29
228.374	19.43
228.593	24.2
228.812	15.03
229.031	-2.32
229.25	-63.27
229.469	-60.99
229.688	-57.44
229.907	-9.16
230.125	26.73
230.344	43.87
230.563	38.77
230.782	56.06
231.001	-4.2
231.22	-26.15
231.438	3.98
231.657	6.57
231.876	-17.61
232.095	26.52
232.313	39.52
232.532	17.08
232.751	-3.43
232.969	24.4
233.188	-28.59
233.407	10.44
233.625	9.94
233.844	1.3
234.063	7.13
234.281	27.99
234.5	17.54
234.719	27.41
234.937	46.47
235.156	39.67
235.374	28.7
235.593	10.44
235.811	9.87
236.03	10.26
236.249	-36.52
236.467	-12.21
236.686	9.07
236.904	20.45
237.123	-8.69
237.341	3.36
237.559	6.8
237.778	-1.45
237.996	-32.55
238.215	12.21
238.433	13.79
238.652	16.49
238.87	-2.55
239.088	1.25
239.307	0.17
239.525	3.68
239.743	-29.97
239.962	-17.61
240.18	-37.76
240.398	-98.96
240.617	-121.26
240.835	-94.29
241.053	-82.67
241.271	-27.16
241.49	-1.32
241.708	-15.57
241.926	-47.79
242.144	-28.37
242.363	-86.07
242.581	-119.48
242.799	-62.51
243.017	-28.09
243.235	-40.28
243.453	-27.6
243.672	-19.01
243.89	-19.99
244.108	-32.09
244.326	-5.5
244.544	0.35
244.762	-0.02
244.98	8.54
245.198	15.76
245.416	-21.38
245.634	-27.74
245.852	-40.1
246.07	-75.4
246.288	-88.19
246.506	-117.02
246.724	-80.05
246.942	-57.52
247.16	-22.77
247.378	0.2
247.596	20
247.814	14.31
248.032	-0.24
248.25	20.94
248.468	4.28
248.685	20.87
248.903	44.15
249.121	43.14
249.339	10.39
249.557	10.35
249.775	18.72
249.992	-59.46
250.21	-45.06
250.428	-26.9
250.646	-49.33
250.863	-83.59
251.081	-29.2
251.299	-40.79
251.517	-28.98
251.734	-23.84
251.952	-24.34
252.17	-29.86
252.387	-10.75
252.605	-28.07
252.823	-10.93
253.04	5.38
253.258	18.04
253.475	4.87
253.693	64.6
253.911	48.86
254.128	53.88
254.346	49.33
254.563	30.65
254.781	-27.54
254.998	-45.78
255.216	-53.47
255.433	-25.16
255.651	21.23
255.868	65.08
256.086	97.98
256.303	71.53
256.521	34.01
256.738	-0.52
256.956	-51.94
257.173	-85.38
257.39	-81.54
257.608	-86.66
257.825	2.94
258.043	55.9
258.26	48.68
258.477	79.73
258.695	71.57
258.912	3.67
259.129	12.54
259.346	-22.45
259.564	-65.44
259.781	-91.18
259.998	-27.85
260.216	-6.68
260.433	45.12
260.65	67.71
260.867	90.92
261.084	66.7
261.302	34.24
261.519	15.07
261.736	-42.65
261.953	-68.05
262.17	-17.78
262.387	-47.8
262.604	-80.45
262.822	-72.92
263.039	-46.45
263.256	-96.98
263.473	-36.09
263.69	-9.71
263.907	30.71
264.124	39.97
264.341	31.85
264.558	7.14
264.775	23.89
264.992	9.75
265.209	10.63
265.426	43.78
265.643	54.97
265.86	59.31
266.077	50.22
266.294	35.42
266.51	-39.64
266.727	-50.06
266.944	-72.46
267.161	-61.42
267.378	-62.8
267.595	-15.06
267.812	-31.62
268.028	-50.19
268.245	-25.88
268.462	-45.22
268.679	-73.57
268.896	-17.47
269.112	5.63
269.329	-15.94
269.546	-1.25
269.763	6.84
269.979	-17.92
270.196	-18.08
270.413	-33.7
270.629	-55.12
270.846	-61.94
271.063	-51.49
271.279	-87.02
271.496	-68.87
271.712	-17.38
271.929	-4.93
272.146	-20.52
272.362	4.34
272.579	40.91
272.795	9.02
273.012	18.18
273.228	16.96
273.445	-15.8
273.661	-62.29
273.878	-67.49
274.094	-72.68
274.311	-81.7
274.527	-1.94
274.744	-3.63
274.96	-12.15
275.177	8.57
275.393	20.67
275.609	0.54
275.826	21.11
276.042	21.57
276.259	8.81
276.475	21.88
276.691	18.95
276.908	-6.89
277.124	21.61
277.34	23.25
277.557	9.13
277.773	10.58
277.989	17.2
278.205	-3.96
278.422	-4.64
278.638	0.86
278.854	20.55
279.07	37.63
279.286	22.63
279.503	6.93
279.719	-4.57
279.935	-47.73
280.151	-68.29
280.367	-33.72
280.583	-41.96
280.799	-33.06
281.016	-46.95
281.232	-23.28
281.448	-24.29
281.664	-6.2
281.88	-42.39
282.096	-21.5
282.312	8.34
282.528	16.74
282.744	25.26
282.96	36.81
283.176	26.97
283.392	12.75
283.608	4.5
283.824	0.68
284.04	8.85
284.256	10.56
284.471	2.31
284.687	-5.57
284.903	6.81
285.119	43.32
285.335	28.82
285.551	32.57
285.767	7.62
285.982	-9.33
286.198	-79.65
286.414	-27.11
286.63	-12
286.846	31.64
287.061	10.27
287.277	46.42
287.493	28.28
287.709	42.14
287.924	5.33
288.14	49.44
288.356	56.28
288.571	69.44
288.787	39.89
289.003	45.1
289.218	17.16
289.434	-28.87
289.65	-34.03
289.865	-29.98
290.081	-14.68
290.296	6.21
290.512	12.16
290.727	-23.23
290.943	-32.5
291.159	-38
291.374	-38.25
291.59	-54.63
291.805	-30.49
292.021	-10.43
292.236	4.28
292.451	20.22
292.667	22.95
292.882	47.62
293.098	39.97
293.313	20.88
293.529	-28.25
293.744	-32.67
293.959	-60.43
294.175	-51.08
294.39	-9.48
294.605	14.71
294.821	31.05
295.036	32.49
295.251	47.81
295.467	23.08
295.682	15.21
295.897	-18.23
296.112	-18.31
296.328	-31.85
296.543	-52.92
296.758	-52.99
296.973	6.63
297.188	30.6
297.404	-2.52
297.619	1.36
297.834	-12.3
298.049	-74.6
298.264	-103.05
298.479	-27.55
298.694	-18.42
298.909	2.72
299.125	25.19
299.34	32.61
299.555	-5.1
299.77	-2.15
299.985	-29.09
300.2	-80.7
300.415	-96.75
300.63	-40.12
300.845	-48.89
301.06	-58.81
301.275	-26.96
301.49	2.68
301.704	-26.28
301.919	-34.85
302.134	-47.31
302.349	-49.69
302.564	-120.92
302.779	-116.29
302.994	-134.99
303.209	-51.02
303.423	-20.4
303.638	33.2
303.853	-1.56
304.068	-3.17
304.283	-14.4
304.497	-19.53
304.712	-20.2
304.927	-9.33
305.142	-10.06
305.356	4.01
305.571	5.98
305.786	-18.3
306	-37.44
306.215	-30.42
306.43	-59.79
306.644	-53.92
306.859	-15.69
307.074	13.57
307.288	-12.58
307.503	-18.4
307.717	-35.71
307.932	-35.14
308.147	-47.5
308.361	-26.2
308.576	-22.96
308.79	-56.93
309.005	-45.95
309.219	-31.7
309.434	-34.64
309.648	-35.7
309.863	-0.96
310.077	-13.05
310.292	-22.73
310.506	-25.59
310.72	-8.23
310.935	-29.08
311.149	-27.68
311.364	-4.27
311.578	-0.13
311.792	-19.99
312.007	-2.69
312.221	-6.54
312.435	-7.77
312.649	-18.77
312.864	19.6
313.078	62.33
313.292	128.67
313.507	103.94
313.721	169.71
313.935	71.48
314.149	36.6
314.363	12.53
314.578	21.31
314.792	18.89
315.006	-2.46
315.22	14.14
315.434	18.6
315.648	27.06
315.862	27.68
316.077	38.29
316.291	23.88
316.505	23.24
316.719	23.7
316.933	7.74
317.147	7.05
317.361	-42.73
317.575	-59.08
317.789	-110.21
318.003	-195.32
318.217	-171.74
318.431	-54.47
318.645	3.09
318.859	6.95
319.073	45.86
319.287	33.24
319.5	-0.34
319.714	-49.59
319.928	-63.39
320.142	-95.69
320.356	-53.94
320.57	-23.16
320.784	-22.72
320.997	-21.82
321.211	-22.54
321.425	-58.72
321.639	-94.07
321.853	-54.96
322.066	-40.77
322.28	-33.8
322.494	-22.45
322.707	11.48
322.921	4.53
323.135	1.25
323.349	12.49
323.562	-9.79
323.776	-22.41
323.989	-23.95
324.203	-30.93
324.417	-35.94
324.63	-50.78
324.844	-73.07
325.057	-76.01
325.271	-54.7
325.485	-27.53
325.698	-4.09
325.912	15.38
326.125	4.93
326.339	3.17
326.552	-7.56
326.766	-8.03
326.979	6.37
327.193	39.52
327.406	28.55
327.619	17.32
327.833	28.01
328.046	-4.03
328.26	-39.51
328.473	-10.23
328.686	-46.6
328.9	-48.42
329.113	-33.04
329.326	-61.36
329.54	-57.73
329.753	-71.85
329.966	-95.19
330.179	-69.65
330.393	-29.47
330.606	-25.46
330.819	-2.9
331.032	16.58
331.246	23.26
331.459	51.73
331.672	50.27
331.885	46.19
332.098	7.74
332.311	-12
332.525	-79.71
332.738	-77.18
332.951	-34.68
333.164	24.91
333.377	42.07
333.59	60.49
333.803	53.83
334.016	42.93
334.229	24.77
334.442	36.71
334.655	47.88
334.868	64.71
335.081	37.46
335.294	17.06
335.507	2.52
335.72	-17.74
335.933	-38.77
336.146	-33.88
336.359	-30.64
336.572	-71.81
336.785	-94.43
336.997	-85.65
337.21	-54.59
337.423	-56.14
337.636	-31.14
337.849	-5.86
338.062	-9.83
338.274	-11.76
338.487	-20.48
338.7	-34.65
338.913	-85.99
339.125	-107.85
339.338	-198.19
339.551	-139.14
339.763	-97.26
339.976	-60.83
340.189	-28.18
340.402	7.39
340.614	-10.04
340.827	-12.16
341.039	-11.13
341.252	-12.2
341.465	4.06
341.677	-1.91
341.89	-33.16
342.102	-14.95
342.315	-40.6
342.527	-105.29
342.74	-90.49
342.952	-38.67
343.165	-45.14
343.377	-2.03
343.59	13.59
343.802	26.61
344.015	21.07
344.227	31.54
344.44	25.43
344.652	32.68
344.864	22.97
345.077	34.96
345.289	31.44
345.502	31.61
345.714	20.16
345.926	29.11
346.139	18.5
346.351	37.49
346.563	43.15
346.775	58.35
346.988	50.77
347.2	27.02
347.412	-21.3
347.624	-37.47
347.837	-68.09
348.049	-46.85
348.261	7.37
348.473	4.46
348.685	-8.88
348.897	-9.79
349.11	-25.54
349.322	-50.75
349.534	-26.64
349.746	-9.65
349.958	-15.14
350.17	-3.45
350.382	15.39
350.594	12.64
350.806	2.8
351.018	9.05
351.23	-21.6
351.442	-87.71
351.654	-85.31
351.866	-65.23
352.078	-54.83
352.29	-19.4
352.502	11.58
352.714	13.06
352.926	-1.37
353.138	-2.62
353.35	-14.13
353.561	-27.1
353.773	-49.3
353.985	-25.4
354.197	-25.74
354.409	-23.8
354.621	-16.88
354.832	-9.87
355.044	-20.63
355.256	-25.68
355.468	-10.81
355.679	-16.07
355.891	6.21
356.103	-11.67
356.314	-2.59
356.526	-7.27
356.738	5.04
356.949	-23.67
357.161	3.72
357.373	-5.65
357.584	-6.9
357.796	6.07
358.008	0.39
358.219	6.21
358.431	2.69
358.642	-1.38
358.854	-19.6
359.065	-36.58
359.277	-70.07
359.488	-79.79
359.7	-103.33
359.911	-105.17
360.123	-60.23
360.334	-68.35
360.546	-81.85
360.757	-82.21
360.969	-72.81
361.18	-59.93
361.391	-31.83
361.603	-36.12
361.814	-12.87
362.025	-3.1
362.237	-27.29
362.448	-16.09
362.659	16.52
362.871	8.63
363.082	-1.29
363.293	13.55
363.504	3.47
363.716	-12.56
363.927	-19.88
364.138	-43.96
364.349	-55.75
364.56	-49.25
364.772	-47.81
364.983	-17.59
365.194	-10.74
365.405	-6.86
365.616	18.91
365.827	21.59
366.038	-8.31
366.25	-9.29
366.461	-35.35
366.672	-28.02
366.883	-21.58
367.094	-2.47
367.305	-7.99
367.516	2.31
367.727	-41.07
367.938	-47.96
368.149	-50.99
368.36	-34.92
368.571	-28.98
368.781	-35.45
368.992	-45.03
369.203	-67.68
369.414	-85
369.625	-85.01
369.836	-71.51
370.047	-80.81
370.258	-53.85
370.468	-50.78
370.679	-74.46
370.89	-62.8
371.101	-43.28
371.312	-67.37
371.522	-81.24
371.733	-50.31
371.944	-49.7
372.155	-42.83
372.365	-40.13
372.576	-31.17
372.787	-35.79
372.997	-49.03
373.208	-59.75
373.419	-19.46
373.629	-48.07
373.84	-53.09
374.05	-64.29
374.261	-52.58
374.472	-76.66
374.682	-16.15
374.893	-16.25
375.103	25.67
375.314	16.68
375.524	20.52
375.735	12.2
375.945	33.22
376.156	4.63
376.366	16.15
376.577	24.66
376.787	15.79
376.997	-2.02
377.208	2.88
377.418	-15.24
377.629	-15.15
377.839	-13.29
378.049	-8.64
378.26	-1.43
378.47	12.32
378.68	-0.01
378.89	-3.37
379.101	-10.51
379.311	-39.49
379.521	-79.13
379.732	-68.35
379.942	-56.44
380.152	-58.36
380.362	-22.96
380.572	-7.01
380.783	-0.45
380.993	10.28
381.203	21.88
381.413	20.02
381.623	16.92
381.833	12.05
382.043	-3.77
382.253	-16.39
382.463	-13.31
382.674	-23.91
382.884	-43.94
383.094	-36.45
383.304	-29.71
383.514	-19.94
383.724	-10.04
383.934	-9.76
384.144	-27.91
384.353	-35.69
384.563	-42.14
384.773	-30.09
384.983	-35.75
385.193	-13.17
385.403	-4
385.613	-0.77
385.823	-13.91
386.033	0.36
386.242	-6.49
386.452	-8.82
386.662	-21.32
386.872	2.04
387.082	-1.22
387.291	-3.8
387.501	-6.45
387.711	5.11
387.921	-11.57
388.13	-10.95
388.34	0.63
388.55	-5.26
388.759	-7.69
388.969	-2.03
389.179	-7.92
389.388	-7.95
389.598	2.91
389.807	-2.61
390.017	-6.95
390.227	-3.19
390.436	-8.19
390.646	-9.73
390.855	-3.38
391.065	-2.91
391.274	-5.78
391.484	-3.74
391.693	-2.57
391.903	-1.86
392.112	3.73
392.322	7.67
392.531	8.4
392.74	7.39
392.95	3.22
393.159	-0.58
393.369	-0.61
393.578	-1.75
393.787	-2.03
393.997	-0.23
394.206	-1.82
394.415	-2.31
394.625	-1.33
394.834	-2.08
395.043	-0.12
395.252	2.86
395.462	4.32
395.671	4.13
395.88	5.64
396.089	5.44
396.298	4.13
396.508	4.33
396.717	3.98
396.926	3.97
397.135	3.62
397.344	3.55
397.553	3.77
397.762	4.99
397.971	4.87
398.181	4.54
398.39	4.36
398.599	3.52
398.808	2.97
399.017	3.88
399.226	5.57
399.435	7.26
399.644	7.64
399.853	6.88
400.062	5.93
400.27	5.01
400.479	4.02
400.688	3.33
400.897	4.05
401.106	4.08
401.315	3.96
401.524	3.75
401.733	4.47
401.941	4.79
402.15	5.14
402.359	5.04
402.568	5.33
402.777	5.41
402.985	5.13
403.194	5.06
403.403	5.02
403.612	4.76
403.82	4.44
404.029	4.62
404.238	4.35
404.446	4.87
404.655	4.8
404.864	4.91
405.072	4.5
405.281	4.69
405.489	4.14
405.698	4.22
405.906	4.09
406.115	4.24
406.324	4.26
406.532	4.5
406.741	4.69
406.949	4.71
407.158	4.6
407.366	4.67
407.574	4.54
407.783	4.45
407.991	4.29
408.2	4.52
408.408	4.48
408.617	4.42
408.825	4.25
409.033	4.41
409.242	4.35
409.45	4.44
409.658	4.32
409.867	4.47
410.075	4.32
410.283	4.25
410.491	4.04
410.7	4.12
410.908	4.04
411.116	4.33
411.324	4.3
411.533	4.33
411.741	4.52
411.949	4.5
412.157	4.22
412.365	4.25
412.573	4.24
412.781	4.18
412.99	4.2
413.198	4.45
413.406	4.48
413.614	4.56
413.822	4.4
414.03	4.2
414.238	3.91
414.446	4
414.654	3.66
414.862	3.83
415.07	4.03
415.278	4.17
415.486	3.89
415.694	4.14
415.902	3.91
416.109	3.72
416.317	3.69
416.525	3.63
416.733	3.53
416.941	3.7
417.149	3.6
417.357	3.65
417.564	3.84
417.772	4.08
417.98	3.97
418.188	4.12
418.395	4.13
418.603	4.2
418.811	3.74
419.019	3.75
419.226	3.9
419.434	4.02
419.642	3.73
419.849	3.99
420.057	3.94
420.265	3.89
420.472	3.44
420.68	3.59
420.887	3.39
421.095	3.48
421.302	3.44
421.51	3.68
421.717	3.78
421.925	4.01
422.132	3.87
422.34	3.63
422.547	3.66
422.755	3.51
422.962	3.23
423.17	3.18
423.377	3.39
423.585	3.38
423.792	3.29
423.999	3.41
424.207	3.36
424.414	3.47
424.621	3.51
424.829	3.38
425.036	3.44
425.243	3.72
425.451	3.43
425.658	3.28
425.865	3.6
426.072	3.62
426.28	3.66
426.487	3.68
426.694	3.7
426.901	3.45
427.108	3.47
427.315	3.41
427.523	3.65
427.73	3.82
427.937	3.87
428.144	3.72
428.351	3.61
428.558	3.82
428.765	3.56
428.972	3.53
429.179	3.68
429.386	3.85
429.593	3.49
429.8	3.43
430.007	3.6
430.214	3.73
430.421	3.63
430.628	3.58
430.835	3.64
431.042	3.8
431.249	3.72
431.456	3.77
431.662	3.98
431.869	4.2
432.076	4.18
432.283	4.31
432.49	4.18
432.697	4.12
432.903	3.85
433.11	3.81
433.317	3.79
433.524	4.11
433.73	4.12
433.937	4.48
434.144	4.31
434.35	4.3
434.557	4.08
434.764	4.06
434.97	3.9
435.177	4.21
435.384	4.18
435.59	4.39
435.797	4.62
436.003	4.7
436.21	4.65
436.416	4.73
436.623	4.81
436.829	4.78
437.036	4.92
437.242	4.82
437.449	4.76
437.655	4.63
437.862	4.65
438.068	4.56
438.275	4.81
438.481	5.09
438.687	5.12
438.894	5.13
439.1	5.18
439.307	5.33
439.513	5.15
439.719	5.21
439.926	5.29
440.132	5.26
440.338	5.1
440.544	5.22
440.751	5.14
440.957	5.25
441.163	5.18
441.369	5.15
441.575	4.98
441.782	4.99
441.988	4.85
442.194	4.9
442.4	4.95
442.606	5.26
442.812	5.34
443.018	5.39
443.224	5.42
443.431	5.51
443.637	5.3
443.843	5.19
444.049	5.21
444.255	5.2
444.461	5.19
444.667	5.22
444.873	5.49
445.079	5.48
445.284	5.63
445.49	5.38
445.696	5.34
445.902	5.12
446.108	5.16
446.314	5.06
446.52	5.21
446.726	5.48
446.931	5.56
447.137	5.61
447.343	5.67
447.549	5.54
447.755	5.29
447.96	5.35
448.166	5.22
448.372	5.19
448.578	5.38
448.783	5.44
448.989	5.51
449.195	5.75
449.4	5.8
449.606	5.78
449.812	5.65
450.017	5.67
450.223	5.54
450.428	5.51
450.634	5.67
450.84	5.96
451.045	5.86
451.251	5.81
451.456	5.96
451.662	5.93
451.867	5.91
452.073	5.98
452.278	6.08
452.483	6.2
452.689	6.09
452.894	6.13
453.1	6.18
453.305	6.09
453.51	5.94
453.716	5.86
453.921	5.88
454.127	5.74
454.332	5.7
454.537	5.58
454.742	5.67
454.948	5.61
455.153	5.73
455.358	5.88
455.563	6.16
455.769	6.33
455.974	6.36
456.179	6.2
456.384	6.09
456.589	5.91
456.795	5.62
457	5.55
457.205	5.85
457.41	5.9
457.615	5.94
457.82	6.15
458.025	6.23
458.23	6.06
458.435	6.12
458.64	6.04
458.845	6.12
459.05	6.11
459.255	6.11
459.46	6.2
459.665	6.29
459.87	6.26
460.075	6.24
460.28	6.36
460.485	6.34
460.69	6.29
460.895	6.12
461.099	6.07
461.304	6.01
461.509	6.02
461.714	5.92
461.919	6.17
462.123	6.1
462.328	6.21
462.533	6.12
462.738	6.37
462.942	6.22
463.147	6.41
463.352	6.43
463.556	6.54
463.761	6.56
463.966	6.65
464.17	6.56
464.375	6.49
464.58	6.47
464.784	6.38
464.989	6.26
465.193	6.32
465.398	6.34
465.602	6.43
465.807	6.42
466.011	6.59
466.216	6.75
466.42	6.78
466.625	6.79
466.829	6.9
467.034	6.94
467.238	7.08
467.443	6.99
467.647	6.89
467.851	6.98
468.056	7.02
468.26	6.77
468.464	6.85
468.669	7
468.873	7.12
469.077	7.09
469.282	7.25
469.486	7.34
469.69	7.3
469.894	7.07
470.099	7.16
470.303	7.25
470.507	7.26
470.711	7.26
470.915	7.31
471.119	7.25
471.324	7.14
471.528	7.17
471.732	7.25
471.936	7.25
472.14	7.29
472.344	7.34
472.548	7.37
472.752	7.58
472.956	7.92
473.16	7.86
473.364	7.89
473.568	7.85
473.772	7.71
473.976	7.46
474.18	7.47
474.384	7.49
474.588	7.51
474.792	7.41
474.995	7.5
475.199	7.67
475.403	7.68
475.607	7.7
475.811	7.71
476.015	7.76
476.218	7.75
476.422	7.73
476.626	7.84
476.83	8
477.033	7.9
477.237	7.81
477.441	7.89
477.644	7.82
477.848	7.79
478.052	7.82
478.255	7.88
478.459	7.85
478.663	8.06
478.866	8.1
479.07	8.14
479.273	8.29
479.477	8.39
479.681	8.28
479.884	8.22
480.088	8.2
480.291	8.17
480.495	8.18
480.698	8.21
480.901	8.33
481.105	8.42
481.308	8.42
481.512	8.35
481.715	8.43
481.919	8.43
482.122	8.49
482.325	8.51
482.529	8.57
482.732	8.53
482.935	8.46
483.138	8.38
483.342	8.41
483.545	8.48
483.748	8.51
483.952	8.64
484.155	8.76
484.358	8.79
484.561	8.79
484.764	8.74
484.967	8.79
485.171	8.83
485.374	8.77
485.577	8.83
485.78	8.91
485.983	8.87
486.186	8.72
486.389	8.73
486.592	8.66
486.795	8.69
486.998	8.67
487.201	8.76
487.404	8.9
487.607	9
487.81	9.03
488.013	9.07
488.216	9.05
488.419	8.94
488.622	8.82
488.825	8.71
489.028	8.67
489.231	8.65
489.433	8.64
489.636	8.63
489.839	8.65
490.042	8.57
490.245	8.5
490.447	8.55
490.65	8.58
490.853	8.57
491.056	8.65
491.258	8.73
491.461	8.74
491.664	8.78
491.866	8.81
492.069	8.91
492.272	8.88
492.474	8.95
492.677	8.99
492.879	9.07
493.082	9.04
493.285	9.22
493.487	9.16
493.69	9.06
493.892	8.97
494.095	8.92
494.297	8.76
494.5	8.8
494.702	8.87
494.905	8.94
495.107	8.95
495.309	8.99
495.512	9.09
495.714	9.15
495.917	9.19
496.119	9.2
496.321	9.25
496.524	9.22
496.726	9.15
496.928	9.11
497.13	9.13
497.333	9.1
497.535	9.01
497.737	9.02
497.939	9
498.142	9.08
498.344	9.08
498.546	9.04
498.748	9.14
498.95	9.28
499.152	9.18
499.355	9.25
499.557	9.43
499.759	9.45
499.961	9.38
500.163	9.44
500.365	9.39
500.567	9.44
500.769	9.36
500.971	9.46
501.173	9.41
501.375	9.55
501.577	9.46
501.779	9.46
501.981	9.39
502.183	9.4
502.385	9.29
502.587	9.21
502.788	9.31
502.99	9.34
503.192	9.48
503.394	9.5
503.596	9.58
503.798	9.6
503.999	9.69
504.201	9.64
504.403	9.67
504.605	9.67
504.806	9.59
505.008	9.55
505.21	9.65
505.411	9.64
505.613	9.77
505.815	9.81
506.016	9.89
506.218	9.95
506.42	9.94
506.621	9.91
506.823	9.97
507.024	9.88
507.226	9.79
507.427	9.86
507.629	9.94
507.83	9.94
508.032	10
508.233	10.11
508.435	10.16
508.636	10.13
508.838	10.14
509.039	10.14
509.24	10.18
509.442	10.24
509.643	10.24
509.845	10.24
510.046	10.33
510.247	10.35
510.448	10.32
510.65	10.39
510.851	10.59
511.052	10.61
511.254	10.55
511.455	10.65
511.656	10.65
511.857	10.63
512.058	10.64
512.26	10.7
512.461	10.62
512.662	10.71
512.863	10.62
513.064	10.59
513.265	10.58
513.466	10.67
513.667	10.58
513.868	10.6
514.069	10.74
514.27	10.84
514.471	10.77
514.672	10.78
514.873	10.89
515.074	10.78
515.275	10.68
515.476	10.75
515.677	10.79
515.878	10.83
516.079	10.92
516.28	11
516.481	11.08
516.682	11.12
516.882	11.06
517.083	11.02
517.284	10.96
517.485	10.89
517.686	10.86
517.886	10.84
518.087	10.93
518.288	10.99
518.488	10.97
518.689	11
518.89	11.03
519.091	11.04
519.291	10.99
519.492	11.07
519.692	11.07
519.893	11.14
520.094	11.08
520.294	11.11
520.495	11.07
520.695	11.14
520.896	11.08
521.096	11.08
521.297	11.15
521.497	11.15
521.698	11.14
521.898	11.15
522.099	11.18
522.299	11.21
522.499	11.24
522.7	11.17
522.9	11.22
523.101	11.3
523.301	11.31
523.501	11.29
523.702	11.4
523.902	11.49
524.102	11.5
524.302	11.46
524.503	11.53
524.703	11.52
524.903	11.45
525.103	11.4
525.304	11.5
525.504	11.56
525.704	11.63
525.904	11.61
526.104	11.61
526.304	11.57
526.504	11.55
526.705	11.48
526.905	11.58
527.105	11.66
527.305	11.62
527.505	11.54
527.705	11.6
527.905	11.61
528.105	11.53
528.305	11.54
528.505	11.64
528.705	11.7
528.905	11.66
529.105	11.7
529.304	11.78
529.504	11.87
529.704	11.76
529.904	11.74
530.104	11.77
530.304	11.83
530.503	11.77
530.703	11.71
530.903	11.8
531.103	11.84
531.303	11.74
531.502	11.78
531.702	11.99
531.902	12
532.101	11.93
532.301	11.96
532.501	11.98
532.7	11.94
532.9	11.9
533.1	11.97
533.299	12
533.499	12
533.698	11.95
533.898	11.99
534.097	12
534.297	12.07
534.496	12.05
534.696	12.13
534.895	12.21
535.095	12.34
535.294	12.33
535.494	12.33
535.693	12.3
535.892	12.32
536.092	12.18
536.291	12.14
536.491	12.23
536.69	12.27
536.889	12.18
537.088	12.22
537.288	12.32
537.487	12.4
537.686	12.44
537.886	12.53
538.085	12.58
538.284	12.67
538.483	12.58
538.682	12.6
538.882	12.69
539.081	12.77
539.28	12.69
539.479	12.73
539.678	12.77
539.877	12.84
540.076	12.87
540.275	12.9
540.474	13
540.673	13.02
540.872	12.96
541.071	13.01
541.27	13.01
541.469	12.98
541.668	13.04
541.867	13.03
542.066	13.05
542.265	13.15
542.464	13.19
542.663	13.21
542.862	13.39
543.06	13.4
543.259	13.52
543.458	13.62
543.657	13.66
543.856	13.67
544.054	13.72
544.253	13.65
544.452	13.63
544.651	13.7
544.849	13.69
545.048	13.71
545.247	13.78
545.445	13.88
545.644	13.93
545.843	13.94
546.041	13.9
546.24	13.97
546.438	14.02
546.637	14.07
546.836	14.21
547.034	14.36
547.233	14.39
547.431	14.4
547.63	14.42
547.828	14.4
548.027	14.41
548.225	14.45
548.423	14.49
548.622	14.52
548.82	14.58
549.019	14.64
549.217	14.74
549.415	14.76
549.614	14.8
549.812	14.79
550.01	14.83
550.209	14.88
550.407	14.96
550.605	15.01
550.803	15.16
551.002	15.24
551.2	15.31
551.398	15.4
551.596	15.59
551.794	15.6
551.993	15.7
552.191	15.69
552.389	15.81
552.587	15.82
552.785	15.9
552.983	15.95
553.181	16.08
553.379	16.14
553.577	16.16
553.775	16.24
553.973	16.33
554.171	16.39
554.369	16.38
554.567	16.48
554.765	16.54
554.963	16.62
555.161	16.67
555.359	16.75
555.557	16.87
555.755	16.95
555.952	17.06
556.15	17.1
556.348	17.17
556.546	17.24
556.744	17.26
556.941	17.28
557.139	17.39
557.337	17.49
557.535	17.49
557.732	17.63
557.93	17.76
558.128	17.77
558.325	17.87
558.523	17.98
558.721	18.04
558.918	18.07
559.116	18.18
559.313	18.17
559.511	18.25
559.708	18.3
559.906	18.34
560.104	18.44
560.301	18.57
560.498	18.59
560.696	18.69
560.893	18.81
561.091	18.87
561.288	19.03
561.486	19.16
561.683	19.23
561.88	19.34
562.078	19.45
562.275	19.43
562.473	19.55
562.67	19.79
562.867	19.85
563.064	20.02
563.262	20.17
563.459	20.27
563.656	20.38
563.853	20.55
564.051	20.63
564.248	20.78
564.445	20.87
564.642	20.83
564.839	20.95
565.036	21.12
565.234	21.32
565.431	21.46
565.628	21.7
565.825	21.89
566.022	22.03
566.219	22.13
566.416	22.22
566.613	22.35
566.81	22.37
567.007	22.35
567.204	22.39
567.401	22.49
567.598	22.46
567.795	22.51
567.991	22.65
568.188	22.76
568.385	22.94
568.582	23.13
568.779	23.34
568.976	23.5
569.172	23.62
569.369	23.58
569.566	23.64
569.763	23.72
569.96	23.66
570.156	23.68
570.353	23.75
570.55	23.8
570.746	23.85
570.943	24.06
571.14	24.07
571.336	24.27
571.533	24.45
571.729	24.47
571.926	24.5
572.123	24.71
572.319	24.8
572.516	24.77
572.712	24.93
572.909	25
573.105	25.07
573.302	25.07
573.498	25.23
573.695	25.26
573.891	25.35
574.087	25.38
574.284	25.38
574.48	25.41
574.677	25.48
574.873	25.46
575.069	25.71
575.266	25.87
575.462	25.8
575.658	25.98
575.854	26.16
576.051	26.06
576.247	26.09
576.443	26.23
576.639	26.18
576.835	26.25
577.032	26.27
577.228	26.37
577.424	26.54
577.62	26.48
577.816	26.4
578.012	26.39
578.208	26.45
578.404	26.43
578.6	26.54
578.796	26.6
578.993	26.74
579.189	26.62
579.384	26.48
579.58	26.44
579.776	26.49
579.972	26.43
580.168	26.41
580.364	26.5
580.56	26.47
580.756	26.4
580.952	26.28
581.148	26.3
581.343	26.39
581.539	26.43
581.735	26.57
581.931	26.78
582.127	26.82
582.322	26.8
582.518	26.88
582.714	26.86
582.909	26.75
583.105	26.73
583.301	26.7
583.496	26.72
583.692	26.67
583.888	26.7
584.083	26.8
584.279	26.83
584.474	26.74
584.67	26.77
584.866	26.76
585.061	26.61
585.257	26.67
585.452	26.81
585.648	26.76
585.843	26.81
586.039	26.86
586.234	26.78
586.429	26.58
586.625	26.62
586.82	26.53
587.015	26.54
587.211	26.48
587.406	26.62
587.601	26.54
587.797	26.57
587.992	26.52
588.187	26.64
588.383	26.6
588.578	26.68
588.773	26.63
588.968	26.71
589.163	26.75
589.359	26.68
589.554	26.61
589.749	26.7
589.944	26.72
590.139	26.68
590.334	26.76
590.529	26.78
590.724	26.87
590.919	27.01
591.114	26.99
591.309	27.1
591.504	27.22
591.699	27.14
591.894	27.09
592.089	27.15
592.284	27.12
592.479	27.24
592.674	27.26
592.869	27.35
593.064	27.41
593.259	27.51
593.454	27.53
593.648	27.64
593.843	27.64
594.038	27.7
594.233	27.76
594.428	27.83
594.622	27.83
594.817	27.94
595.012	28.01
595.206	27.99
595.401	27.96
595.596	28
595.79	28.07
595.985	28.13
596.18	28.21
596.374	28.33
596.569	28.42
596.763	28.45
596.958	28.51
597.153	28.58
597.347	28.56
597.542	28.7
597.736	28.69
597.931	28.77
598.125	28.85
598.319	29.01
598.514	28.99
598.708	29.1
598.903	29.13
599.097	29.19
599.291	29.21
599.486	29.2
599.68	29.23
599.874	29.25
600.069	29.22
600.263	29.21
600.457	29.39
600.651	29.47
600.846	29.43
601.04	29.54
601.234	29.59
601.428	29.68
601.622	29.7
601.817	29.77
602.011	29.76
602.205	29.78
602.399	29.64
602.593	29.64
602.787	29.64
602.981	29.64
603.175	29.66
603.369	29.65
603.563	29.72
603.757	29.77
603.951	29.72
604.145	29.76
604.339	29.87
604.533	29.7
604.727	29.67
604.921	29.72
605.115	29.77
605.309	29.82
605.502	29.94
605.696	29.92
605.89	29.89
606.084	29.79
606.278	29.63
606.471	29.48
606.665	29.38
606.859	29.28
607.053	29.2
607.246	29.2
607.44	29.21
607.634	29.18
607.827	29.24
608.021	29.17
608.214	29.16
608.408	29.05
608.602	29.08
608.795	29.01
608.989	28.99
609.182	28.97
609.376	29.06
609.569	28.99
609.763	28.88
609.956	28.83
610.15	28.68
610.343	28.6
610.537	28.48
610.73	28.47
610.923	28.45
611.117	28.46
611.31	28.4
611.504	28.36
611.697	28.25
611.89	28.1
612.083	28.02
612.277	28.04
612.47	27.87
612.663	27.82
612.856	27.79
613.05	27.69
613.243	27.53
613.436	27.59
613.629	27.55
613.822	27.49
614.015	27.4
614.209	27.24
614.402	27.24
614.595	27.2
614.788	27.16
614.981	27.11
615.174	27.05
615.367	26.88
615.56	26.73
615.753	26.74
615.946	26.69
616.139	26.77
616.332	26.89
616.525	26.96
616.718	26.97
616.911	26.9
617.103	26.78
617.296	26.71
617.489	26.71
617.682	26.6
617.875	26.64
618.067	26.6
618.26	26.46
618.453	26.4
618.646	26.36
618.838	26.36
619.031	26.56
619.224	26.64
619.417	26.55
619.609	26.62
619.802	26.59
619.994	26.47
620.187	26.37
620.38	26.32
620.572	26.15
620.765	26.14
620.957	25.96
621.15	25.85
621.342	25.84
621.535	26.02
621.727	25.94
621.92	25.98
622.112	25.97
622.305	26.07
622.497	25.89
622.69	25.95
622.882	25.93
623.074	26.06
623.267	25.98
623.459	25.99
623.651	25.83
623.844	25.85
624.036	25.82
624.228	25.8
624.42	25.76
624.613	25.98
624.805	25.94
624.997	25.87
625.189	25.87
625.381	25.91
625.574	25.66
625.766	25.62
625.958	25.61
626.15	25.67
626.342	25.67
626.534	25.76
626.726	25.75
626.918	25.83
627.11	25.7
627.302	25.62
627.494	25.51
627.686	25.51
627.878	25.39
628.07	25.38
628.262	25.34
628.454	25.33
628.646	25.36
628.838	25.32
629.029	25.29
629.221	25.37
629.413	25.34
629.605	25.25
629.797	25.2
629.989	25.22
630.18	25.09
630.372	25.14
630.564	25.07
630.755	25.09
630.947	25.09
631.139	24.99
631.33	24.77
631.522	24.83
631.714	24.83
631.905	24.77
632.097	24.78
632.289	24.91
632.48	24.94
632.672	24.88
632.863	24.75
633.055	24.72
633.246	24.64
633.438	24.45
633.629	24.41
633.821	24.48
634.012	24.47
634.203	24.46
634.395	24.45
634.586	24.5
634.777	24.38
634.969	24.37
635.16	24.44
635.351	24.46
635.543	24.5
635.734	24.52
635.925	24.51
636.117	24.47
636.308	24.47
636.499	24.35
636.69	24.25
636.881	24.22
637.073	24.29
637.264	24.23
637.455	24.28
637.646	24.43
637.837	24.49
638.028	24.31
638.219	24.43
638.41	24.37
638.601	24.24
638.792	24.23
638.983	24.24
639.174	24.04
639.365	24.01
639.556	23.99
639.747	23.94
639.938	24.01
640.129	24.05
640.32	23.94
640.511	23.96
640.701	23.99
640.892	23.81
641.083	23.78
641.274	23.97
641.465	23.98
641.655	23.76
641.846	23.85
642.037	23.87
642.228	23.72
642.418	23.64
642.609	23.7
642.8	23.71
642.99	23.58
643.181	23.63
643.372	23.7
643.562	23.67
643.753	23.53
643.943	23.51
644.134	23.41
644.324	23.26
644.515	23.25
644.705	23.38
644.896	23.38
645.086	23.4
645.277	23.4
645.467	23.39
645.658	23.25
645.848	23.27
646.038	23.12
646.229	23.09
646.419	23.02
646.61	23.01
646.8	22.86
646.99	22.88
647.18	22.81
647.371	22.74
647.561	22.62
647.751	22.7
647.941	22.63
648.132	22.65
648.322	22.67
648.512	22.68
648.702	22.65
648.892	22.58
649.082	22.55
649.272	22.37
649.462	22.3
649.653	22.18
649.843	22.2
650.033	22.15
650.223	22.16
650.413	22.07
650.603	22.11
650.793	22.06
650.983	21.94
651.172	21.91
651.362	21.9
651.552	21.74
651.742	21.66
651.932	21.66
652.122	21.63
652.312	21.53
652.502	21.47
652.691	21.38
652.881	21.25
653.071	21.24
653.261	21.15
653.45	20.97
653.64	20.93
653.83	20.84
654.019	20.65
654.209	20.54
654.399	20.47
654.588	20.32
654.778	20.18
654.968	20.01
655.157	19.89
655.347	19.77
655.536	19.51
655.726	19.37
655.915	19.15
656.105	19.03
656.294	18.86
656.484	18.79
656.673	18.71
656.863	18.68
657.052	18.57
657.241	18.45
657.431	18.2
657.62	18.01
657.809	17.68
657.999	17.45
658.188	17.17
658.377	16.96
658.567	16.81
658.756	16.68
658.945	16.47
659.134	16.35
659.324	16.35
659.513	16.16
659.702	15.94
659.891	15.8
660.08	15.76
660.269	15.52
660.458	15.36
660.648	15.29
660.837	15.22
661.026	15.01
661.215	14.87
661.404	14.73
661.593	14.67
661.782	14.32
661.971	14.2
662.16	14.04
662.349	13.98
662.538	13.71
662.726	13.73
662.915	13.58
663.104	13.44
663.293	13.28
663.482	13.31
663.671	13.2
663.86	13.01
664.048	12.91
664.237	12.83
664.426	12.6
664.615	12.59
664.803	12.55
664.992	12.42
665.181	12.25
665.369	12.15
665.558	11.91
665.747	11.92
665.935	11.96
666.124	11.98
666.312	12.02
666.501	12.03
666.69	11.91
666.878	11.83
667.067	11.67
667.255	11.65
667.444	11.87
667.632	11.91
667.82	11.97
668.009	11.91
668.197	11.81
668.386	11.52
668.574	11.61
668.762	11.43
668.951	11.47
669.139	11.38
669.327	11.28
669.516	11.23
669.704	11.3
669.892	11.45
670.08	11.54
670.269	11.52
670.457	11.29
670.645	11.15
670.833	11.13
671.021	11.17
671.21	11.2
671.398	11.56
671.586	11.56
671.774	11.44
671.962	11.42
672.15	11.57
672.338	11.29
672.526	11.43
672.714	11.34
672.902	11.42
673.09	11.47
673.278	11.76
673.466	11.85
673.654	12.11
673.842	12.14
674.03	12.2
674.218	12.02
674.405	12.03
674.593	11.93
674.781	12.03
674.969	12.01
675.157	12.26
675.344	12.38
675.532	12.51
675.72	12.64
675.908	12.58
676.095	12.48
676.283	12.52
676.471	12.74
676.658	12.59
676.846	12.79
677.033	13.04
677.221	13.07
677.409	12.84
677.596	13.05
677.784	13.05
677.971	12.95
678.159	13.05
678.346	13.27
678.534	13.38
678.721	13.67
678.909	13.84
679.096	13.88
679.283	14.08
679.471	14.29
679.658	14.31
679.846	14.5
680.033	14.82
680.22	14.85
680.408	14.8
680.595	15.01
680.782	15.04
680.969	15.1
681.157	15.26
681.344	15.39
681.531	15.46
681.718	15.62
681.905	15.79
682.093	16.09
682.28	16.36
682.467	16.58
682.654	16.73
682.841	16.87
683.028	17.04
683.215	17.23
683.402	17.22
683.589	17.53
683.776	17.89
683.963	18.02
684.15	18.29
684.337	18.73
684.524	19.08
684.711	19.36
684.898	19.65
685.085	19.99
685.271	20.48
685.458	20.64
685.645	20.92
685.832	21.34
686.019	21.66
686.205	21.73
686.392	22.19
686.579	22.4
686.766	22.82
686.952	23.15
687.139	23.86
687.326	24.12
687.512	24.65
687.699	25
687.886	25.34
688.072	25.52
688.259	26.12
688.445	26.7
688.632	27
688.818	27.8
689.005	28.23
689.191	28.71
689.378	29.35
689.564	30.27
689.751	30.63
689.937	31.22
690.124	31.81
690.31	32.12
690.496	32.43
690.683	33.07
690.869	33.66
691.055	34.31
691.242	35.07
691.428	35.72
691.614	36.33
691.8	37.07
691.987	37.57
692.173	38.21
692.359	38.86
692.545	39.47
692.731	39.92
692.918	40.66
693.104	41.17
693.29	41.74
693.476	42.55
693.662	43.4
693.848	43.99
694.034	44.49
694.22	45.21
694.406	45.87
694.592	46.46
694.778	47.04
694.964	47.62
695.15	48.21
695.336	48.48
695.522	49.43
695.708	50.12
695.894	51.03
696.08	51.6
696.265	52.39
696.451	52.68
696.637	53.32
696.823	53.7
697.009	54.23
697.194	54.68
697.38	55.08
697.566	55.56
697.751	56.36
697.937	57.07
698.123	57.69
698.308	58.5
698.494	59.16
698.68	59.56
698.865	59.89
699.051	60.41
699.236	60.59
699.422	61.09
699.607	61.27
699.793	61.75
699.978	62.04
700.164	62.4
700.349	62.71
700.535	63.28
700.72	63.82
700.906	64.66
701.091	65.35
701.276	65.81
701.462	66.57
701.647	67.07
701.832	67.12
702.018	67.39
702.203	67.51
702.388	67.53
702.573	67.9
702.759	68.75
702.944	69.04
703.129	69.39
703.314	69.66
703.499	69.64
703.684	69.63
703.87	70.61
704.055	71.48
704.24	71.89
704.425	72.47
704.61	72.72
704.795	72.52
704.98	72.4
705.165	72.42
705.35	72.83
705.535	73.24
705.72	73.54
705.905	74.1
706.09	74.92
706.275	74.98
706.459	74.83
706.644	75
706.829	75.01
707.014	74.9
707.199	75.2
707.384	75.96
707.568	75.88
707.753	76.54
707.938	76.99
708.123	77.06
708.307	76.9
708.492	77.4
708.677	77.33
708.861	77.28
709.046	77.06
709.231	77.77
709.415	78.18
709.6	78.21
709.784	78.29
709.969	79.04
710.153	78.64
710.338	78.45
710.522	78.39
710.707	79
710.891	78.97
711.076	79.13
711.26	79.47
711.445	80.1
711.629	80.14
711.813	80.16
711.998	80.38
712.182	80.27
712.366	80.37
712.551	80.7
712.735	80.65
712.919	80.98
713.103	80.86
713.288	80.75
713.472	80.2
713.656	81.12
713.84	81.02
714.024	81.49
714.208	81.51
714.393	82.11
714.577	82.34
714.761	82.82
714.945	83.16
715.129	83.41
715.313	83.37
715.497	82.89
715.681	83.12
715.865	82.93
716.049	82.99
716.233	83.25
716.417	83.47
716.601	82.88
716.785	83
716.968	83.13
717.152	83.11
717.336	83.28
717.52	83.45
717.704	83.45
717.888	83.74
718.071	83.93
718.255	83.97
718.439	84.07
718.622	84.51
718.806	84.64
718.99	84.27
719.174	84.22
719.357	84.3
719.541	84.17
719.724	84.08
719.908	84.95
720.092	84.98
720.275	85.65
720.459	85.78
720.642	85.46
720.826	84.61
721.009	84.25
721.193	83.2
721.376	82.69
721.559	83.32
721.743	83.94
721.926	84.86
722.11	85.46
722.293	85.59
722.476	84.9
722.66	84.49
722.843	84.03
723.026	83.94
723.21	84.29
723.393	85
723.576	85.42
723.759	85.22
723.942	85.47
724.126	85.52
724.309	85.46
724.492	85.37
724.675	85.85
724.858	86.04
725.041	86.34
725.224	86.79
725.407	87.38
725.59	87.51
725.774	87
725.957	86.33
726.14	85.79
726.322	85.43
726.505	85.21
726.688	86.1
726.871	86.16
727.054	86.35
727.237	86.23
727.42	86.95
727.603	86.49
727.786	87.24
727.968	87.52
728.151	87.45
728.334	86.54
728.517	86.82
728.699	86.95
728.882	86.91
729.065	87.54
729.248	88.37
729.43	89.23
729.613	89.96
729.796	89.96
729.978	89.21
730.161	88.63
730.343	87.34
730.526	87.42
730.708	87.31
730.891	87.91
731.073	87.96
731.256	88.19
731.438	88.47
731.621	89.4
731.803	89.47
731.986	89.87
732.168	90.03
732.35	89.14
732.533	88.68
732.715	88.48
732.898	89.1
733.08	88.59
733.262	89.06
733.444	88.84
733.627	89.44
733.809	89.05
733.991	90.41
734.173	89.8
734.355	89.78
734.538	89.75
734.72	89.32
734.902	89.25
735.084	90.05
735.266	89.9
735.448	90.21
735.63	90.31
735.812	89.92
735.994	90.39
736.176	91.18
736.358	90.34
736.54	91.37
736.722	90.87
736.904	89.77
737.086	88.81
737.268	90.68
737.45	90.66
737.632	90.65
737.814	89.86
737.995	90.43
738.177	89.26
738.359	87.78
738.541	88.9
738.723	89.77
738.904	89.83
739.086	90.43
739.268	91.01
739.449	90.49
739.631	90.48
739.813	91.21
739.994	90.79
740.176	92.03
740.358	92.08
740.539	92.86
740.721	92.63
740.902	92.93
741.084	91.92
741.265	91.55
741.447	91.74
741.628	92.28
741.81	91.17
741.991	91.92
742.172	93.33
742.354	93.37
742.535	92.9
742.717	94.25
742.898	94.11
743.079	94.21
743.261	94.16
743.442	93.66
743.623	94.56
743.804	95.39
743.986	95.38
744.167	93.63
744.348	93.23
744.529	91.8
744.71	90.38
744.891	89.06
745.073	89.44
745.254	88.95
745.435	88.93
745.616	88.02
745.797	87.86
745.978	88.41
746.159	88.97
746.34	87.6
746.521	89.58
746.702	88.69
746.883	88.08
747.064	88.47
747.245	89.62
747.426	88.97
747.606	89.64
747.787	89.68
747.968	89.34
748.149	89.46
748.33	89.31
748.51	90.41
748.691	90.65
748.872	91.64
749.053	91.31
749.233	90.65
749.414	89.45
749.595	88.24
749.775	86.84
749.956	86.74
750.137	87.38
750.317	89.58
750.498	92.61
750.678	93.46
750.859	92.58
751.04	92.86
751.22	90.03
751.4	88.33
751.581	86.52
751.761	88.08
751.942	88.04
752.122	88.93
752.303	88.1
752.483	88.68
752.663	88.3
752.844	86.59
753.024	87.81
753.204	88.77
753.385	87.94
753.565	88.3
753.745	89.65
753.925	88.15
754.106	87.98
754.286	87.97
754.466	86.79
754.646	86.87
754.826	87.06
755.006	85.52
755.187	87.69
755.367	88.88
755.547	88.99
755.727	90.12
755.907	91.03
756.087	91.83
756.267	90.09
756.447	90.41
756.627	89.52
756.807	90.69
756.987	88.49
757.167	88.3
757.346	88.18
757.526	86.26
757.706	86.49
757.886	87.11
758.066	89.12
758.246	90.78
758.425	92.52
758.605	91.09
758.785	91.9
758.965	91.97
759.144	89.18
759.324	89.54
759.504	90.55
759.683	89.7
759.863	87.02
760.043	86.31
760.222	85.03
760.402	84.15
760.581	85.01
760.761	87.48
760.94	87.33
761.12	89.53
761.299	90.96
761.479	89.87
761.658	87.42
761.838	87.5
762.017	85.52
762.197	84.89
762.376	85.47
762.555	88.68
762.735	90.2
762.914	89.51
763.093	90.85
763.273	89.93
763.452	88.11
763.631	87.41
763.81	87.89
763.99	86.53
764.169	86.44
764.348	83.89
764.527	83.41
764.706	85.44
764.885	86.32
765.064	85.41
765.243	87.54
765.423	89.79
765.602	88.57
765.781	86.48
765.96	86.21
766.139	83.92
766.318	82.91
766.497	80.63
766.676	81.36
766.854	84.06
767.033	86.8
767.212	86.23
767.391	88.26
767.57	88.18
767.749	87.42
767.928	88.4
768.106	86.26
768.285	83.05
768.464	82.2
768.643	82.04
768.821	81.55
769	84.58
769.179	86.91
769.357	85.46
769.536	84.81
769.715	84.4
769.893	85.09
770.072	85.3
770.25	87.06
770.429	87.38
770.607	86.41
770.786	85.16
770.964	86.09
771.143	85.78
771.321	87.06
771.5	88.99
771.678	86.38
771.857	84.47
772.035	84.25
772.213	82.47
772.392	80.97
772.57	84.56
772.748	85.62
772.927	85
773.105	83.99
773.283	84.28
773.461	83.97
773.64	83.71
773.818	83.83
773.996	85.94
774.174	83.41
774.352	82.15
774.531	78.36
774.709	81.26
774.887	78.32
775.065	80.49
775.243	79.25
775.421	81.64
775.599	81.51
775.777	81.29
775.955	79.02
776.133	77.43
776.311	77.47
776.489	73.44
776.667	75.28
776.844	78.38
777.022	80.15
777.2	83.61
777.378	85.63
777.556	86.15
777.734	87.26
777.911	87.26
778.089	85.12
778.267	84.77
778.445	81.97
778.622	81.27
778.8	80.3
778.978	81.24
779.155	80.26
779.333	82.79
779.511	82.03
779.688	83.91
779.866	79.66
780.043	78.04
780.221	76.61
780.398	73.47
780.576	76.52
780.753	77.29
780.931	78.21
781.108	79.4
781.286	81.68
781.463	76.19
781.64	73.37
781.818	77.74
781.995	78.8
782.172	78.36
782.35	79.7
782.527	85.33
782.704	79.48
782.882	77.99
783.059	76.34
783.236	77.17
783.413	75.9
783.59	78.16
783.768	75.82
783.945	81.53
784.122	80.89
784.299	81.88
784.476	80.84
784.653	79.72
784.83	73.23
785.007	69.73
785.184	70.15
785.361	69.15
785.538	75.47
785.715	81.28
785.892	81.65
786.069	81.71
786.246	82.69
786.423	79.67
786.6	72.49
786.776	76.85
786.953	74.64
787.13	77.65
787.307	78.6
787.484	80.18
787.66	76.45
787.837	77.6
788.014	72.15
788.191	69.55
788.367	67.52
788.544	71.46
788.721	70.2
788.897	73.44
789.074	74.67
789.25	73.77
789.427	75.69
789.603	74.81
789.78	74.33
789.956	73.26
790.133	73.15
790.309	72.97
790.486	78.88
790.662	77.47
790.839	75.53
791.015	78.11
791.192	74.48
791.368	75.08
791.544	74.53
791.721	74.14
791.897	74.09
792.073	72.87
792.249	63.22
792.426	67.24
792.602	72.41
792.778	72.96
792.954	71.13
793.13	71.37
793.307	63.65
793.483	55.03
793.659	55.85
793.835	60.81
794.011	62.98
794.187	67.21
794.363	68.43
794.539	70.49
794.715	63.21
794.891	66.11
795.067	65.81
795.243	71.22
795.419	67.88
795.595	67.98
795.771	66.19
795.947	69.06
796.122	66.21
796.298	72.06
796.474	77.02
796.65	77.06
796.826	76.66
797.001	75.96
797.177	67.62
797.353	67.36
797.529	70.11
797.704	63.19
797.88	60.6
798.056	61.22
798.231	58.78
798.407	60.61
798.582	60.85
798.758	70.01
798.934	80
799.109	74.55
799.285	69.31
799.46	76.43
799.636	69.02
799.811	63.97
799.986	71.77
800.162	76.18
800.337	76.3
800.513	71.2
800.688	68.34
800.863	77.48
801.039	68.88
801.214	61.56
801.389	67.37
801.565	60.2
801.74	45.06
801.915	54.93
802.09	59.28
802.265	70.61
802.441	73.38
802.616	74.14
802.791	72.65
802.966	69.59
803.141	63.61
803.316	62.42
803.491	69.59
803.666	67.39
803.841	65.69
804.016	58.11
804.191	60.17
804.366	55.96
804.541	55.8
804.716	58.7
804.891	55.32
805.066	65.41
805.241	60.88
805.416	56.52
805.591	54.02
805.765	59.51
805.94	53.83
806.115	55.74
806.29	52.95
806.464	52.47
806.639	57.47
806.814	47.18
806.989	43.01
807.163	60.27
807.338	64.81
807.512	54.76
807.687	50.9
807.862	61.72
808.036	55.41
808.211	63.65
808.385	72.5
808.56	86.03
808.734	92.64
808.909	88.14
809.083	77.42
809.258	81.73
809.432	77.74
809.606	56.85
809.781	62.37
809.955	69.8
810.13	69.26
810.304	65.15
810.478	60.72
810.652	59.75
810.827	60.87
811.001	55.08
811.175	56.34
811.349	62.91
811.524	56.08
811.698	40.03
811.872	39.04
812.046	46.24
812.22	52.13
812.394	56.95
812.568	63.44
812.742	66.18
812.916	58.16
813.09	51.74
813.264	45.39
813.438	53.81
813.612	50.95
813.786	49.48
813.96	65.57
814.134	70.79
814.308	72.94
814.482	76.92
814.656	68.33
814.83	69.13
815.003	68.23
815.177	55.87
815.351	50.96
815.525	54.58
815.698	37.06
815.872	29.61
816.046	20.4
816.219	35.61
816.393	53.42
816.567	60.4
816.74	68.91
816.914	79.13
817.088	74.01
817.261	57.81
817.435	49.62
817.608	48.57
817.782	38.79
817.955	40.55
818.129	42.24
818.302	56.31
818.475	69.66
818.649	76.21
818.822	57.81
818.996	74.96
819.169	66.29
819.342	46.08
819.516	59.42
819.689	76.98
819.862	64.91
820.035	50.7
820.209	60.28
820.382	51.97
820.555	52.53
820.728	34.2
820.901	47.52
821.075	39.02
821.248	40.67
821.421	20.05
821.594	30.77
821.767	52.42
821.94	67.37
822.113	47.99
822.286	54.66
822.459	66.64
822.632	49.17
822.805	26.98
822.978	29.31
823.151	25.87
823.324	13.39
823.496	-8.54
823.669	3.26
823.842	14.01
824.015	10.97
824.188	19.96
824.361	48.19
824.533	35.87
824.706	34.28
824.879	31.42
825.051	27.62
825.224	17.32
825.397	-10.49
825.569	-17.16
825.742	14.3
825.915	24.56
826.087	25.66
826.26	38.38
826.432	41.49
826.605	25.32
826.777	11.39
826.95	10.72
827.122	-10.71
827.295	-18.03
827.467	-10.54
827.64	-29.5
827.812	-27.12
827.984	-4.86
828.157	-7.67
828.329	-58.46
828.501	-25.79
828.674	3.67
828.846	-0.22
829.018	29.32
829.19	32.81
829.363	48.38
829.535	29.18
829.707	20.31
829.879	-9.76
830.051	-6.36
830.223	-35.97
830.395	-52.76
830.568	-42.82
830.74	-36.03
830.912	-0.02
831.084	-0.59
831.256	3.18
831.428	-9.27
831.6	-20.32
831.772	-70.86
831.943	-83.52
832.115	-34.8
832.287	-12.9
832.459	5.13
832.631	42.93
832.803	74.08
832.975	70.99
833.146	71.37
833.318	65.88
833.49	48.35
833.662	17.11
833.833	-2.6
834.005	-5.52
834.177	-1.46
834.348	-15.14
834.52	-29.88
834.692	-18.66
834.863	-36.46
835.035	-24.85
835.206	-55.53
835.378	-16.43
835.549	-18.55
835.721	4.2
835.892	-9.03
836.064	-1.21
836.235	0.91
836.407	18.55
836.578	-16.4
836.749	-18.94
836.921	-21.68
837.092	-44.52
837.264	-46.24
837.435	-50.82
837.606	-9.63
837.777	25.2
837.949	41.65
838.12	37.93
838.291	40.01
838.462	36.85
838.633	-4.18
838.805	-14.03
838.976	-5.38
839.147	-21.91
839.318	-26.05
839.489	-64.83
839.66	-49.74
839.831	-13.8
840.002	-4.44
840.173	-37.61
840.344	52.27
840.515	35.73
840.686	-118.4
840.857	-92.13
841.028	-82.66
841.199	-100.17
841.369	-95.02
841.54	-59.41
841.711	-33.53
841.882	-20.75
842.053	-28.79
842.223	-36.37
842.394	-16.44
842.565	-4.82
842.736	6.95
842.906	6.13
843.077	34.07
843.248	52.24
843.418	40.57
843.589	12.58
843.759	44.3
843.93	-0.57
844.101	0.23
844.271	0.82
844.442	30.65
844.612	40.5
844.783	24.9
844.953	-30.88
845.123	-21.98
845.294	-62.46
845.464	-223.06
845.635	-101.66
845.805	25.39
845.975	8.44
846.146	-50.07
846.316	-51.05
846.486	-17.35
846.656	10.17
846.827	-5.47
846.997	11.23
847.167	27.36
847.337	9.31
847.507	-37.56
847.677	-7.27
847.848	44.77
848.018	49.87
848.188	51.35
848.358	29.71
848.528	21.18
848.698	-40.94
848.868	-135.34
849.038	-311.4
849.208	-90.43
849.378	-44.7
849.548	-0.02
849.718	8.87
849.887	45.23
850.057	14.54
850.227	-15.73
850.397	-71.05
850.567	-209.28
850.737	-504.89
850.906	-1624.06
851.076	-1279.88
851.246	-617.41
851.415	-87.5
851.585	-61.74
851.755	-113.99
851.924	-47.78
852.094	-88.53
852.264	-197.18
852.433	-1099.28
852.603	-128.53
852.772	-152.65
852.942	-105.6
853.111	-106.18
853.281	-70.64
853.45	-40.08
853.62	-100.54
853.789	-78.02
853.959	-19.51
854.128	-39.91
854.297	-110.94
854.467	-105.62
854.636	-96.38
854.805	-30.28
854.975	-78.13
855.144	-41.16
855.313	276.75
855.482	19.53
855.652	-158.54
855.821	-21.87
855.99	36.82
856.159	37.24
856.328	45.91
856.497	32.47
856.667	21.5
856.836	1.11
857.005	-50.22
857.174	-100.83
857.343	-108.97
857.512	-78.64
857.681	-120.87
857.85	-156.93
858.019	-63.37
858.188	-67.13
858.356	-83.13
858.525	-146.85
858.694	-139.98
858.863	-283.14
859.032	-196.76
859.201	-231.47
859.369	-109.5
859.538	-34.52
859.707	-59.58
859.876	-53.99
860.044	-80.75
860.213	21.53
860.382	7.39
860.55	31.32
860.719	68.15
860.888	66.55
861.056	-2.46
861.225	1.35
861.393	25.73
861.562	-15.48
861.73	-82.08
861.899	-138.35
862.067	-1873.28
862.236	-68.31
862.404	-195.46
862.572	-137.45
862.741	-52.97
862.909	-39.37
863.078	-158.26
863.246	-120.66
863.414	-93.42
863.582	-45.94
863.751	-69.74
863.919	-52.26
864.087	5.09
864.255	-1.88
864.424	-324
864.592	-28.2
864.76	-115.34
864.928	-588.2
865.096	-361.23
865.264	-322.71
865.432	-3750.57
865.6	-513.13
865.768	-245.35
865.936	-171.68
866.104	-173.11
866.272	-166.02
866.44	-333.17
866.608	587.09
866.776	348.3
866.944	2470.35
867.112	-517.48
867.28	-227
867.448	-70.6
867.615	15.44
867.783	6.25
867.951	-20.26
868.119	16.23
868.286	-26.47
868.454	-232.49
868.622	-184.07
868.789	-218.89
868.957	-4158.93
869.125	-2605.92
869.292	-124.63
869.46	-196.02
869.627	-47.72
869.795	-53.71
869.963	-9.15
870.13	3.03
870.298	10.17
870.465	-37.43
870.632	-50.63
870.8	-25.39
870.967	-76.08
871.135	-183.61
871.302	-155.46
871.469	-238.99
871.637	-342.79
871.804	-166.09
871.971	-138.78
872.139	-461.98
872.306	15.25
872.473	-48.72
872.64	-234.44
872.807	-33.2
872.975	64.9
873.142	-109.18
873.309	414.19
873.476	128.68
873.643	196.2
873.81	97.39
873.977	125.15
874.144	91.71
874.311	-43.82
874.478	-126.65
874.645	-114.75
874.812	-126.95
874.979	-71.69
875.146	-59.8
875.313	-84.23
875.48	-10.68
875.647	-18.78
875.813	-37.81
875.98	-19.68
876.147	-37.42
876.314	-76.94
876.481	952.27
876.647	-1533.99
876.814	604.79
876.981	-189.33
877.147	-94.54
877.314	0.59
877.481	32.78
877.647	35.55
877.814	7.46
877.98	-69.02
878.147	-38.16
878.314	2.04
878.48	-74.18
878.647	-49.9
878.813	12.88
878.979	-5.91
879.146	-50.97
879.312	-53.55
879.479	-87.75
879.645	-181.97
879.811	-358.75
879.978	-820.04
880.144	-222.54
880.31	-129.68
880.477	-330.17
880.643	-400.44
880.809	-150.37
880.975	-110.09
881.142	-856.59
881.308	-84.42
881.474	16.9
881.64	13.93
881.806	-30.68
881.972	2.82
882.138	-33.06
882.304	-110.73
882.47	-283.36
882.636	-1207.58
882.802	-358.36
882.968	-124.42
883.134	-74.04
883.3	-75.53
883.466	-8.79
883.632	19.1
883.798	-32.9
883.964	-58.1
884.129	-32.03
884.295	12.48
884.461	-66.66
884.627	-41.43
884.793	-39.03
884.958	-31.71
885.124	-164.37
885.29	-278.53
885.455	-461.77
885.621	-205.43
885.787	-289.27
885.952	-147.23
886.118	-105.31
886.283	-109.06
886.449	-187.16
886.614	-168.26
886.78	-279.33
886.945	1111.89
887.111	-515.17
887.276	-419.46
887.442	-853.86
887.607	-454.36
887.773	-335.43
887.938	-383.09
888.103	-467.26
888.269	-290.14
888.434	-403.92
888.599	-150.77
888.764	-16.46
888.93	-10.01
889.095	-36.49
889.26	-78.32
889.425	-72.46
889.59	-72.86
889.756	-103.97
889.921	-71.84
890.086	-20.81
890.251	-29.35
890.416	-197.08
890.581	-1437.5
890.746	270.09
890.911	521.82
891.076	232.38
891.241	-503.92
891.406	-32.33
891.571	-97.45
891.736	-419.84
891.901	-571.02
892.065	827.75
892.23	203.72
892.395	274.8
892.56	400.65
892.725	-658.79
892.889	-1559.15
893.054	-195.03
893.219	-102.87
893.384	-57.84
893.548	-140.14
893.713	-180.76
893.878	-150.58
