Data from Ofra_2a_PS_9GT30_Reflection_3.txt Node
Date: Tue Jul 20 10:00:26 EDT 2021
User: Adam
Spectrometer: FLMT01687
Trigger mode: 0
Integration Time (sec): 9.450000E-1
Scans to average: 3
Electric dark correction enabled: true
Nonlinearity correction enabled: false
Boxcar width: 3
XAxis mode: Wavelengths
Number of Pixels in Spectrum: 3648
>>>>>Begin Spectral Data<<<<<
179.494	1053.85
179.716	621.74
179.937	687.36
180.158	2439.45
180.38	-880.52
180.601	-166.64
180.823	-30.75
181.044	38.94
181.265	-3.47
181.486	59.99
181.708	-501.09
181.929	-70.35
182.15	3.98
182.372	15.61
182.593	20.98
182.814	205.84
183.035	160.64
183.257	88.21
183.478	58.21
183.699	65.37
183.92	60.2
184.141	45.23
184.363	43.51
184.584	27.95
184.805	29.71
185.026	-7.16
185.247	-21.19
185.468	-30.81
185.689	-4.76
185.91	-14.16
186.132	2.07
186.353	-17.8
186.574	11.32
186.795	-4.1
187.016	-1.11
187.237	-16.68
187.458	-33.91
187.679	-68.5
187.9	-46.12
188.121	-37.03
188.342	15.16
188.563	11.81
188.784	13.43
189.005	31.76
189.226	43.84
189.447	39.46
189.667	17.15
189.888	9.07
190.109	13.41
190.33	9.54
190.551	1.56
190.772	-12.38
190.993	0.65
191.214	2.99
191.434	-10.42
191.655	4.65
191.876	16.15
192.097	19.21
192.318	30.31
192.538	31.34
192.759	40.16
192.98	51.51
193.201	53.7
193.421	55.38
193.642	48.96
193.863	47.67
194.083	27.83
194.304	9.84
194.525	5.28
194.745	-36.46
194.966	-23.78
195.187	-8.09
195.407	1.99
195.628	11.84
195.848	15.15
196.069	20.3
196.29	26.21
196.51	10.2
196.731	13.64
196.951	9.33
197.172	3.14
197.392	8.26
197.613	-8.86
197.833	-0.74
198.054	-2.08
198.274	-28.62
198.495	-35.25
198.715	-54.32
198.936	-74.36
199.156	-23.26
199.377	-11.51
199.597	16.32
199.817	25.98
200.038	25.79
200.258	34.79
200.479	46.22
200.699	30.86
200.919	0.9
201.14	-17.97
201.36	-25.21
201.58	-21.71
201.801	-10.03
202.021	-17.62
202.241	-13.68
202.461	7.99
202.682	14.33
202.902	18.2
203.122	16.17
203.342	16.89
203.563	28.05
203.783	32.03
204.003	28.92
204.223	29.45
204.443	29.45
204.663	29.01
204.884	25.49
205.104	25.88
205.324	35.13
205.544	33.34
205.764	32.95
205.984	35.83
206.204	46.23
206.424	48.58
206.644	39.75
206.864	10.24
207.084	36.51
207.304	26.64
207.525	18
207.745	8.71
207.964	3.79
208.184	5.72
208.404	27.4
208.624	-2.73
208.844	-4.07
209.064	-8.14
209.284	-2.65
209.504	-8.94
209.724	-41.81
209.944	-40.69
210.164	-32.98
210.384	-20.59
210.604	-11.48
210.823	-16.03
211.043	-21.53
211.263	8.74
211.483	6.74
211.703	18.89
211.922	15.46
212.142	28.86
212.362	30.9
212.582	37.66
212.801	36.77
213.021	38.38
213.241	28.33
213.461	23.47
213.68	12.59
213.9	15.04
214.12	-5.11
214.339	0.86
214.559	3.98
214.779	5.87
214.998	11.93
215.218	8.39
215.438	15.48
215.657	24.12
215.877	24.08
216.096	18.88
216.316	11.32
216.535	17.37
216.755	2.92
216.974	-7.85
217.194	-10.88
217.413	-1.44
217.633	-0.73
217.852	-5.31
218.072	-28.45
218.291	13.36
218.511	5.79
218.73	-1.14
218.95	-8.78
219.169	-12.87
219.389	-13.92
219.608	9.12
219.827	-11.89
220.047	4.44
220.266	20.31
220.485	23
220.705	21.48
220.924	40.31
221.143	26.35
221.363	29.48
221.582	17.61
221.801	18.4
222.021	6.48
222.24	9.28
222.459	-9.17
222.678	-13.8
222.897	-10.46
223.117	4.19
223.336	6.69
223.555	1.69
223.774	12.24
223.993	21.21
224.213	30.67
224.432	33.34
224.651	22.79
224.87	9.32
225.089	24.16
225.308	25.87
225.527	31.05
225.746	16.91
225.965	7.59
226.184	3.7
226.404	0.78
226.623	-6.08
226.842	-15.66
227.061	-14.94
227.28	-8.92
227.499	14.02
227.718	15.89
227.936	13.55
228.155	14.61
228.374	10.3
228.593	16.99
228.812	8.65
229.031	-4.86
229.25	10.88
229.469	29.15
229.688	32.26
229.907	27.43
230.125	17.01
230.344	30.38
230.563	35.17
230.782	22.56
231.001	17.25
231.22	13.79
231.438	27.13
231.657	32.35
231.876	20.15
232.095	12.14
232.313	18.51
232.532	18.3
232.751	22.76
232.969	28.94
233.188	27.36
233.407	31.58
233.625	23.86
233.844	30.95
234.063	28.28
234.281	17.49
234.5	18.71
234.719	8.65
234.937	9.72
235.156	21.15
235.374	4.38
235.593	-3.92
235.811	1.03
236.03	-22.07
236.249	-7.09
236.467	-6.86
236.686	8.86
236.904	2.45
237.123	20.32
237.341	24.26
237.559	27.99
237.778	32.27
237.996	31.57
238.215	20
238.433	33.48
238.652	25.06
238.87	14
239.088	7.57
239.307	5.08
239.525	-3.4
239.743	-11.63
239.962	-14.65
240.18	1.51
240.398	7.8
240.617	14.56
240.835	10.58
241.053	34.28
241.271	42.71
241.49	29.37
241.708	17.12
241.926	14.44
242.144	16.09
242.363	19.81
242.581	4.41
242.799	-5.68
243.017	6.03
243.235	-8.77
243.453	0.15
243.672	-2.16
243.89	3.57
244.108	20.06
244.326	14.31
244.544	20.44
244.762	34.33
244.98	24.4
245.198	16.17
245.416	19.93
245.634	19.69
245.852	38.68
246.07	37.75
246.288	36.7
246.506	49.74
246.724	62.09
246.942	53.98
247.16	39.67
247.378	24.02
247.596	25.19
247.814	7.54
248.032	4.04
248.25	0.47
248.468	4.59
248.685	3.88
248.903	-8.17
249.121	-10.51
249.339	18.2
249.557	18.95
249.775	4.53
249.992	1.02
250.21	-5.6
250.428	-3.88
250.646	-2.45
250.863	-9.7
251.081	-14.5
251.299	5.01
251.517	3.31
251.734	6.8
251.952	29.79
252.17	10.72
252.387	15.2
252.605	11.59
252.823	-10.78
253.04	-11.14
253.258	-10.38
253.475	-21.63
253.693	0.82
253.911	2.81
254.128	0.85
254.346	6.21
254.563	0.53
254.781	-0.78
254.998	5.11
255.216	0.11
255.433	0.28
255.651	-0.62
255.868	1.06
256.086	12.97
256.303	21.35
256.521	13.29
256.738	16.89
256.956	-5.16
257.173	2.99
257.39	12.97
257.608	7.67
257.825	1.33
258.043	13
258.26	4.78
258.477	17.04
258.695	10.91
258.912	10.23
259.129	-2.33
259.346	3.55
259.564	-16.07
259.781	2.05
259.998	-5.17
260.216	10
260.433	6.43
260.65	19.39
260.867	11.57
261.084	14.52
261.302	7.53
261.519	5.62
261.736	-4.98
261.953	-7.63
262.17	-6.81
262.387	-8.88
262.604	-20.42
262.822	-12.7
263.039	-14.45
263.256	-8.76
263.473	-10.95
263.69	-15.66
263.907	-12.36
264.124	1.59
264.341	-8.17
264.558	6.48
264.775	9.5
264.992	14.01
265.209	30.05
265.426	34.57
265.643	35.05
265.86	35.06
266.077	29.75
266.294	33.29
266.51	26.98
266.727	5.26
266.944	-3.96
267.161	-6.01
267.378	-7.9
267.595	-21.95
267.812	-34.03
268.028	-19.72
268.245	-4.69
268.462	0.6
268.679	-5.49
268.896	-2.66
269.112	13.45
269.329	19.67
269.546	17.16
269.763	27.57
269.979	21.35
270.196	22.55
270.413	21.44
270.629	20.61
270.846	22.36
271.063	16.33
271.279	3.12
271.496	-3.76
271.712	-4.24
271.929	-0.89
272.146	-4.31
272.362	-32.88
272.579	-29.04
272.795	-14.74
273.012	-10.19
273.228	-10.47
273.445	-9.77
273.661	-8.79
273.878	5.11
274.094	12.22
274.311	1.78
274.527	8.3
274.744	7.29
274.96	5.16
275.177	8.5
275.393	14.69
275.609	15.7
275.826	21.17
276.042	34.16
276.259	36.48
276.475	36.02
276.691	36.31
276.908	42.98
277.124	45.45
277.34	43.23
277.557	32.37
277.773	26.85
277.989	30.11
278.205	15.27
278.422	3.37
278.638	7.03
278.854	14.6
279.07	7.15
279.286	9.89
279.503	5.13
279.719	25.39
279.935	18.09
280.151	15.18
280.367	3.64
280.583	14.43
280.799	22.19
281.016	25.43
281.232	10.92
281.448	8.89
281.664	1.16
281.88	11.59
282.096	12.58
282.312	6.35
282.528	-6.13
282.744	8.77
282.96	21.53
283.176	28.01
283.392	31.65
283.608	33.88
283.824	26.78
284.04	29.49
284.256	28.04
284.471	35.06
284.687	27.87
284.903	22.37
285.119	7.8
285.335	13.61
285.551	25.37
285.767	27.1
285.982	14.57
286.198	13.24
286.414	29.95
286.63	32.05
286.846	27.35
287.061	22.62
287.277	19.41
287.493	18.58
287.709	26.17
287.924	22.59
288.14	29.39
288.356	46.55
288.571	43.67
288.787	47.31
289.003	50.28
289.218	44.59
289.434	34.82
289.65	34.5
289.865	28.92
290.081	30.8
290.296	26.8
290.512	29.85
290.727	38.16
290.943	32.99
291.159	21.72
291.374	22.21
291.59	20.29
291.805	24.67
292.021	2.5
292.236	-0.57
292.451	5.61
292.667	17.48
292.882	5.02
293.098	-1.89
293.313	-10.32
293.529	-1.06
293.744	-7.85
293.959	0.13
294.175	-3.36
294.39	1.21
294.605	2.5
294.821	2.93
295.036	11.13
295.251	13.3
295.467	4.96
295.682	4.05
295.897	0.98
296.112	10.86
296.328	15.45
296.543	5.26
296.758	6.92
296.973	9.9
297.188	14.49
297.404	21.44
297.619	19.07
297.834	27.24
298.049	31.12
298.264	26.7
298.479	22.51
298.694	27.08
298.909	18.42
299.125	15.35
299.34	5.18
299.555	8.4
299.77	4.65
299.985	1.82
300.2	-4.94
300.415	2.67
300.63	-5.52
300.845	2.95
301.06	3.87
301.275	14.06
301.49	19.8
301.704	20.37
301.919	17.2
302.134	16.69
302.349	10.38
302.564	-10.18
302.779	-16.06
302.994	-23.91
303.209	-32.75
303.423	-18.57
303.638	-9.25
303.853	-0.77
304.068	21.11
304.283	14
304.497	21.09
304.712	24.12
304.927	18.85
305.142	19.33
305.356	26.88
305.571	28.72
305.786	33.62
306	32.59
306.215	38.81
306.43	47.38
306.644	41.06
306.859	22.7
307.074	16.73
307.288	17.34
307.503	19.03
307.717	14.9
307.932	8.71
308.147	10.01
308.361	16.75
308.576	15.05
308.79	10.93
309.005	6.99
309.219	4.66
309.434	3.32
309.648	-7.48
309.863	-2.05
310.077	-5.84
310.292	-2.11
310.506	15.88
310.72	24.55
310.935	20.58
311.149	22.3
311.364	17.51
311.578	18.04
311.792	18.71
312.007	0.11
312.221	-3.43
312.435	-1.87
312.649	6.37
312.864	8.86
313.078	19.02
313.292	16.13
313.507	35.87
313.721	28.15
313.935	36.01
314.149	32.52
314.363	32.77
314.578	49.79
314.792	46.09
315.006	38.68
315.22	44.39
315.434	32
315.648	17.04
315.862	16.11
316.077	-1.41
316.291	0.43
316.505	4.39
316.719	-12.22
316.933	0.92
317.147	3.65
317.361	9.94
317.575	15.08
317.789	22.55
318.003	20.59
318.217	32.47
318.431	30.78
318.645	36.11
318.859	16.14
319.073	12.44
319.287	7.98
319.5	4.35
319.714	1.13
319.928	-5.73
320.142	-5.96
320.356	16.41
320.57	10.71
320.784	12.32
320.997	12.66
321.211	17.03
321.425	12.24
321.639	9.47
321.853	3.8
322.066	9.25
322.28	5.83
322.494	9.64
322.707	2.95
322.921	9.43
323.135	15.5
323.349	13.27
323.562	14.1
323.776	16.21
323.989	7.02
324.203	8.73
324.417	10.13
324.63	-3.45
324.844	-16.75
325.057	-12.22
325.271	-9.96
325.485	3.63
325.698	7.37
325.912	16.88
326.125	25.48
326.339	36.87
326.552	35.92
326.766	37.26
326.979	31.34
327.193	24.2
327.406	16.01
327.619	7.04
327.833	4.64
328.046	-4.33
328.26	-21.9
328.473	-18.68
328.686	-5.57
328.9	-3.9
329.113	-5.13
329.326	1.36
329.54	-0.12
329.753	14.68
329.966	17.48
330.179	16.2
330.393	18.63
330.606	32.57
330.819	35.34
331.032	37.23
331.246	34.22
331.459	39.5
331.672	36.41
331.885	32.05
332.098	31.65
332.311	16.59
332.525	17.32
332.738	9.62
332.951	3.21
333.164	0.34
333.377	-6.49
333.59	-11.36
333.803	2.75
334.016	0.27
334.229	-0.95
334.442	6.81
334.655	13.54
334.868	21.06
335.081	22.26
335.294	10.27
335.507	19.45
335.72	21.91
335.933	28.67
336.146	25.12
336.359	22.74
336.572	16.62
336.785	21.87
336.997	21.57
337.21	24.68
337.423	14.72
337.636	12.99
337.849	17.82
338.062	25.75
338.274	25.66
338.487	22.01
338.7	18.39
338.913	13.35
339.125	9.75
339.338	11.78
339.551	13.17
339.763	14.97
339.976	15.45
340.189	13.25
340.402	15.14
340.614	22.54
340.827	11.21
341.039	7.84
341.252	8.2
341.465	2.73
341.677	-1.41
341.89	-2.42
342.102	0.18
342.315	12.45
342.527	12.86
342.74	10.57
342.952	9.79
343.165	24.34
343.377	28
343.59	20.62
343.802	16.3
344.015	15.51
344.227	12.86
344.44	13.73
344.652	13.27
344.864	17.6
345.077	14.37
345.289	20.12
345.502	23.49
345.714	24.16
345.926	25.12
346.139	17.75
346.351	-2.78
346.563	7.6
346.775	0.75
346.988	0.45
347.2	1.54
347.412	5
347.624	9.73
347.837	16.88
348.049	15.99
348.261	13.99
348.473	8.11
348.685	7.56
348.897	3.6
349.11	0.12
349.322	-2.58
349.534	-12.22
349.746	-2.7
349.958	3.05
350.17	6.29
350.382	4.23
350.594	2.65
350.806	11.64
351.018	24.21
351.23	19.49
351.442	21.79
351.654	23.13
351.866	32.72
352.078	28.2
352.29	30.62
352.502	31.34
352.714	33.01
352.926	32.06
353.138	30.97
353.35	13.69
353.561	8.9
353.773	0.52
353.985	1.63
354.197	-2.62
354.409	-0.36
354.621	3.61
354.832	6.27
355.044	15.21
355.256	15.52
355.468	10.58
355.679	15.32
355.891	13.97
356.103	6.65
356.314	6.71
356.526	-0.23
356.738	-9.12
356.949	-8.41
357.161	-6.37
357.373	-8.47
357.584	-0.25
357.796	2.81
358.008	13.58
358.219	25.92
358.431	25.39
358.642	17.96
358.854	11.2
359.065	5.45
359.277	-0.85
359.488	-10.52
359.7	-4.55
359.911	-7.61
360.123	1.11
360.334	3.86
360.546	2.29
360.757	10.37
360.969	18.23
361.18	8.51
361.391	12.78
361.603	8.88
361.814	11.27
362.025	7.97
362.237	8.54
362.448	9.9
362.659	-2.43
362.871	5.59
363.082	8.78
363.293	9.58
363.504	17.19
363.716	20.41
363.927	16.36
364.138	27.33
364.349	20.43
364.56	17.54
364.772	17.9
364.983	6.42
365.194	0.3
365.405	-4.19
365.616	-7.46
365.827	-9.35
366.038	0.34
366.25	3.91
366.461	13.85
366.672	16.3
366.883	26.62
367.094	25.44
367.305	26.46
367.516	16.78
367.727	10.06
367.938	12
368.149	12.68
368.36	8.98
368.571	12.68
368.781	2.98
368.992	5.54
369.203	4.53
369.414	4.55
369.625	5.06
369.836	5.81
370.047	5.49
370.258	8.69
370.468	-4.19
370.679	-4.31
370.89	3.24
371.101	-5.69
371.312	-11.78
371.522	-14.51
371.733	-9.81
371.944	0.61
372.155	-9.94
372.365	-22.77
372.576	-15.86
372.787	-8.96
372.997	-5.29
373.208	-2.94
373.419	-3.83
373.629	10.88
373.84	12.44
374.05	17.16
374.261	9.04
374.472	6.9
374.682	4.41
374.893	2.39
375.103	8.77
375.314	8.18
375.524	5.71
375.735	9.3
375.945	12.36
376.156	14.49
376.366	18.36
376.577	13.12
376.787	15.18
376.997	14.69
377.208	8.68
377.418	7.48
377.629	4.43
377.839	8.83
378.049	11.97
378.26	14.67
378.47	14.38
378.68	23.39
378.89	17.01
379.101	11.78
379.311	2.16
379.521	4.31
379.732	-8.54
379.942	-6.48
380.152	-6.72
380.362	-2.31
380.572	8.62
380.783	14.76
380.993	16.6
381.203	19.74
381.413	20.66
381.623	14.96
381.833	14.47
382.043	10.41
382.253	5.57
382.463	2.82
382.674	7.94
382.884	-0.39
383.094	4.79
383.304	4.2
383.514	7.75
383.724	5.29
383.934	3.45
384.144	9.34
384.353	14.13
384.563	11.31
384.773	8.84
384.983	8.17
385.193	12.88
385.403	13.74
385.613	4.91
385.823	6.41
386.033	6.05
386.242	10.3
386.452	6.65
386.662	7.51
386.872	4.66
387.082	5.36
387.291	4.57
387.501	5.49
387.711	4.98
387.921	6.57
388.13	6.52
388.34	7.83
388.55	10.92
388.759	11.79
388.969	12.77
389.179	14.98
389.388	13.81
389.598	10.63
389.807	9.33
390.017	6.91
390.227	4.06
390.436	1.08
390.646	0.32
390.855	1.27
391.065	2.2
391.274	0.63
391.484	2
391.693	2.1
391.903	3.64
392.112	2.55
392.322	3.49
392.531	3.66
392.74	3.16
392.95	3.4
393.159	4.07
393.369	2.36
393.578	3.57
393.787	2.71
393.997	3.22
394.206	4.29
394.415	3.53
394.625	3.07
394.834	3.63
395.043	3.57
395.252	4.2
395.462	4.09
395.671	4.66
395.88	5.16
396.089	5.4
396.298	5.07
396.508	4.05
396.717	3.42
396.926	2.94
397.135	2.1
397.344	1.88
397.553	2.07
397.762	2.08
397.971	2.45
398.181	1.88
398.39	2.25
398.599	2.82
398.808	2.96
399.017	3.05
399.226	3.5
399.435	3.7
399.644	4.04
399.853	3.98
400.062	3.82
400.27	3.84
400.479	3.6
400.688	3.37
400.897	3.28
401.106	3.44
401.315	3.36
401.524	3.45
401.733	3.66
401.941	3.53
402.15	3.41
402.359	3.5
402.568	3.38
402.777	3.43
402.985	3.35
403.194	3.08
403.403	2.97
403.612	3.1
403.82	3.04
404.029	2.98
404.238	2.93
404.446	2.87
404.655	2.69
404.864	2.8
405.072	2.73
405.281	2.53
405.489	2.64
405.698	2.57
405.906	2.53
406.115	2.75
406.324	2.67
406.532	2.75
406.741	2.95
406.949	2.75
407.158	2.88
407.366	2.92
407.574	2.82
407.783	2.82
407.991	2.75
408.2	2.6
408.408	2.73
408.617	2.6
408.825	2.58
409.033	2.54
409.242	2.55
409.45	2.54
409.658	2.59
409.867	2.54
410.075	2.59
410.283	2.57
410.491	2.55
410.7	2.56
410.908	2.61
411.116	2.53
411.324	2.54
411.533	2.42
411.741	2.46
411.949	2.51
412.157	2.58
412.365	2.51
412.573	2.6
412.781	2.61
412.99	2.75
413.198	2.73
413.406	2.72
413.614	2.67
413.822	2.62
414.03	2.5
414.238	2.55
414.446	2.42
414.654	2.39
414.862	2.37
415.07	2.39
415.278	2.36
415.486	2.43
415.694	2.31
415.902	2.31
416.109	2.34
416.317	2.27
416.525	2.3
416.733	2.41
416.941	2.3
417.149	2.37
417.357	2.39
417.564	2.36
417.772	2.39
417.98	2.27
418.188	2.13
418.395	2.19
418.603	2.07
418.811	2.05
419.019	2
419.226	2.09
419.434	2.07
419.642	2.12
419.849	2.14
420.057	2.21
420.265	2.18
420.472	2.16
420.68	2.06
420.887	2.14
421.095	2.16
421.302	2.27
421.51	2.34
421.717	2.45
421.925	2.42
422.132	2.36
422.34	2.34
422.547	2.3
422.755	2.14
422.962	2.03
423.17	2
423.377	2.11
423.585	2.2
423.792	2.15
423.999	2.09
424.207	2
424.414	2.07
424.621	2.02
424.829	1.96
425.036	1.94
425.243	2.03
425.451	2.1
425.658	2.29
425.865	2.24
426.072	2.3
426.28	2.32
426.487	2.33
426.694	2.27
426.901	2.21
427.108	2.16
427.315	2.13
427.523	2.11
427.73	2.13
427.937	2.12
428.144	2.14
428.351	2.29
428.558	2.29
428.765	2.25
428.972	2.24
429.179	2.07
429.386	2.16
429.593	2.18
429.8	2.15
430.007	2.19
430.214	2.27
430.421	2.29
430.628	2.3
430.835	2.17
431.042	2.2
431.249	2.15
431.456	2.13
431.662	2.14
431.869	2.23
432.076	2.35
432.283	2.36
432.49	2.31
432.697	2.32
432.903	2.34
433.11	2.33
433.317	2.32
433.524	2.24
433.73	2.27
433.937	2.25
434.144	2.32
434.35	2.32
434.557	2.28
434.764	2.24
434.97	2.37
435.177	2.43
435.384	2.49
435.59	2.43
435.797	2.46
436.003	2.46
436.21	2.39
436.416	2.31
436.623	2.32
436.829	2.33
437.036	2.36
437.242	2.36
437.449	2.42
437.655	2.44
437.862	2.54
438.068	2.6
438.275	2.52
438.481	2.58
438.687	2.61
438.894	2.57
439.1	2.67
439.307	2.65
439.513	2.59
439.719	2.68
439.926	2.7
440.132	2.72
440.338	2.77
440.544	2.67
440.751	2.62
440.957	2.63
441.163	2.64
441.369	2.58
441.575	2.53
441.782	2.49
441.988	2.52
442.194	2.56
442.4	2.55
442.606	2.55
442.812	2.58
443.018	2.58
443.224	2.63
443.431	2.72
443.637	2.72
443.843	2.8
444.049	2.77
444.255	2.7
444.461	2.71
444.667	2.69
444.873	2.66
445.079	2.68
445.284	2.62
445.49	2.58
445.696	2.68
445.902	2.71
446.108	2.75
446.314	2.81
446.52	2.82
446.726	2.86
446.931	2.97
447.137	2.96
447.343	2.93
447.549	2.94
447.755	2.85
447.96	2.84
448.166	2.87
448.372	2.85
448.578	2.84
448.783	2.84
448.989	2.87
449.195	2.88
449.4	2.88
449.606	2.84
449.812	2.89
450.017	2.89
450.223	2.9
450.428	2.9
450.634	2.98
450.84	2.98
451.045	2.95
451.251	2.96
451.456	2.96
451.662	2.96
451.867	2.98
452.073	2.87
452.278	2.87
452.483	2.97
452.689	2.95
452.894	2.96
453.1	2.89
453.305	2.85
453.51	2.87
453.716	2.86
453.921	2.79
454.127	2.81
454.332	2.8
454.537	2.91
454.742	2.93
454.948	2.94
455.153	3
455.358	3.03
455.563	2.98
455.769	2.99
455.974	2.93
456.179	2.89
456.384	2.95
456.589	2.94
456.795	2.86
457	2.89
457.205	2.85
457.41	2.91
457.615	2.97
457.82	3
458.025	2.95
458.23	3.04
458.435	3
458.64	3.05
458.845	3.01
459.05	2.98
459.255	2.93
459.46	2.97
459.665	2.95
459.87	2.98
460.075	2.98
460.28	3
460.485	3.06
460.69	3
460.895	3
461.099	3
461.304	3.06
461.509	2.98
461.714	2.99
461.919	2.98
462.123	3.07
462.328	3.11
462.533	3.13
462.738	3.11
462.942	3.2
463.147	3.17
463.352	3.22
463.556	3.24
463.761	3.23
463.966	3.21
464.17	3.26
464.375	3.24
464.58	3.26
464.784	3.18
464.989	3.13
465.193	3.15
465.398	3.18
465.602	3.13
465.807	3.15
466.011	3.2
466.216	3.26
466.42	3.31
466.625	3.33
466.829	3.41
467.034	3.47
467.238	3.49
467.443	3.51
467.647	3.52
467.851	3.54
468.056	3.5
468.26	3.4
468.464	3.41
468.669	3.46
468.873	3.44
469.077	3.47
469.282	3.48
469.486	3.55
469.69	3.63
469.894	3.67
470.099	3.64
470.303	3.65
470.507	3.64
470.711	3.66
470.915	3.7
471.119	3.76
471.324	3.68
471.528	3.75
471.732	3.81
471.936	3.85
472.14	3.86
472.344	3.83
472.548	3.81
472.752	3.92
472.956	3.94
473.16	3.9
473.364	3.88
473.568	3.87
473.772	3.96
473.976	3.94
474.18	3.92
474.384	3.88
474.588	3.93
474.792	3.97
474.995	4.03
475.199	3.99
475.403	4.03
475.607	4.07
475.811	4.16
476.015	4.18
476.218	4.16
476.422	4.18
476.626	4.18
476.83	4.21
477.033	4.22
477.237	4.23
477.441	4.24
477.644	4.27
477.848	4.24
478.052	4.27
478.255	4.26
478.459	4.32
478.663	4.34
478.866	4.32
479.07	4.39
479.273	4.4
479.477	4.44
479.681	4.46
479.884	4.37
480.088	4.37
480.291	4.39
480.495	4.42
480.698	4.43
480.901	4.42
481.105	4.49
481.308	4.52
481.512	4.55
481.715	4.59
481.919	4.57
482.122	4.62
482.325	4.63
482.529	4.62
482.732	4.65
482.935	4.63
483.138	4.62
483.342	4.68
483.545	4.7
483.748	4.73
483.952	4.76
484.155	4.81
484.358	4.79
484.561	4.83
484.764	4.8
484.967	4.83
485.171	4.82
485.374	4.84
485.577	4.83
485.78	4.86
485.983	4.86
486.186	4.84
486.389	4.8
486.592	4.83
486.795	4.79
486.998	4.78
487.201	4.82
487.404	4.88
487.607	4.9
487.81	4.97
488.013	4.92
488.216	4.93
488.419	4.96
488.622	4.92
488.825	4.87
489.028	4.85
489.231	4.8
489.433	4.82
489.636	4.79
489.839	4.8
490.042	4.81
490.245	4.84
490.447	4.81
490.65	4.84
490.853	4.87
491.056	4.92
491.258	4.92
491.461	4.94
491.664	4.91
491.866	4.98
492.069	4.98
492.272	4.99
492.474	4.95
492.677	4.92
492.879	4.98
493.082	5.01
493.285	5
493.487	4.97
493.69	4.93
493.892	5
494.095	4.99
494.297	4.96
494.5	4.98
494.702	4.97
494.905	5.02
495.107	5.06
495.309	5.04
495.512	5.11
495.714	5.15
495.917	5.17
496.119	5.23
496.321	5.24
496.524	5.28
496.726	5.31
496.928	5.33
497.13	5.35
497.333	5.39
497.535	5.36
497.737	5.39
497.939	5.36
498.142	5.34
498.344	5.34
498.546	5.37
498.748	5.34
498.95	5.34
499.152	5.35
499.355	5.4
499.557	5.46
499.759	5.51
499.961	5.51
500.163	5.57
500.365	5.6
500.567	5.61
500.769	5.67
500.971	5.66
501.173	5.63
501.375	5.67
501.577	5.65
501.779	5.71
501.981	5.72
502.183	5.69
502.385	5.71
502.587	5.72
502.788	5.69
502.99	5.69
503.192	5.72
503.394	5.76
503.596	5.82
503.798	5.91
503.999	6
504.201	6.04
504.403	6.13
504.605	6.14
504.806	6.16
505.008	6.14
505.21	6.12
505.411	6.12
505.613	6.17
505.815	6.19
506.016	6.24
506.218	6.25
506.42	6.32
506.621	6.33
506.823	6.34
507.024	6.32
507.226	6.3
507.427	6.25
507.629	6.28
507.83	6.26
508.032	6.33
508.233	6.35
508.435	6.38
508.636	6.38
508.838	6.46
509.039	6.49
509.24	6.55
509.442	6.5
509.643	6.52
509.845	6.54
510.046	6.6
510.247	6.65
510.448	6.71
510.65	6.73
510.851	6.8
511.052	6.83
511.254	6.84
511.455	6.83
511.656	6.83
511.857	6.8
512.058	6.81
512.26	6.84
512.461	6.84
512.662	6.86
512.863	6.88
513.064	6.88
513.265	6.95
513.466	6.97
513.667	6.96
513.868	7.01
514.069	7.09
514.27	7.13
514.471	7.18
514.672	7.17
514.873	7.23
515.074	7.25
515.275	7.23
515.476	7.23
515.677	7.23
515.878	7.24
516.079	7.26
516.28	7.25
516.481	7.29
516.682	7.34
516.882	7.33
517.083	7.37
517.284	7.36
517.485	7.38
517.686	7.39
517.886	7.43
518.087	7.42
518.288	7.43
518.488	7.47
518.689	7.45
518.89	7.5
519.091	7.51
519.291	7.54
519.492	7.56
519.692	7.61
519.893	7.62
520.094	7.67
520.294	7.66
520.495	7.7
520.695	7.7
520.896	7.74
521.096	7.76
521.297	7.76
521.497	7.76
521.698	7.79
521.898	7.8
522.099	7.81
522.299	7.82
522.499	7.83
522.7	7.87
522.9	7.92
523.101	7.97
523.301	7.95
523.501	7.96
523.702	7.97
523.902	7.97
524.102	7.97
524.302	7.98
524.503	7.95
524.703	7.99
524.903	8.04
525.103	8.06
525.304	8.09
525.504	8.08
525.704	8.1
525.904	8.14
526.104	8.17
526.304	8.12
526.504	8.13
526.705	8.13
526.905	8.17
527.105	8.18
527.305	8.15
527.505	8.15
527.705	8.19
527.905	8.2
528.105	8.21
528.305	8.24
528.505	8.27
528.705	8.31
528.905	8.3
529.105	8.31
529.304	8.35
529.504	8.32
529.704	8.31
529.904	8.33
530.104	8.34
530.304	8.38
530.503	8.39
530.703	8.43
530.903	8.51
531.103	8.55
531.303	8.57
531.502	8.62
531.702	8.64
531.902	8.63
532.101	8.66
532.301	8.63
532.501	8.64
532.7	8.6
532.9	8.62
533.1	8.64
533.299	8.74
533.499	8.73
533.698	8.82
533.898	8.82
534.097	8.9
534.297	8.92
534.496	8.91
534.696	8.89
534.895	8.94
535.095	8.93
535.294	8.93
535.494	8.97
535.693	9.03
535.892	9.06
536.092	9.09
536.291	9.12
536.491	9.13
536.69	9.16
536.889	9.14
537.088	9.15
537.288	9.22
537.487	9.25
537.686	9.28
537.886	9.34
538.085	9.41
538.284	9.47
538.483	9.51
538.682	9.53
538.882	9.56
539.081	9.57
539.28	9.58
539.479	9.61
539.678	9.63
539.877	9.68
540.076	9.71
540.275	9.74
540.474	9.74
540.673	9.79
540.872	9.85
541.071	9.89
541.27	9.88
541.469	9.93
541.668	9.98
541.867	10.04
542.066	10.09
542.265	10.1
542.464	10.15
542.663	10.23
542.862	10.26
543.06	10.3
543.259	10.36
543.458	10.41
543.657	10.49
543.856	10.52
544.054	10.57
544.253	10.6
544.452	10.58
544.651	10.63
544.849	10.67
545.048	10.67
545.247	10.72
545.445	10.7
545.644	10.78
545.843	10.86
546.041	10.9
546.24	10.98
546.438	11.04
546.637	11.11
546.836	11.16
547.034	11.19
547.233	11.29
547.431	11.32
547.63	11.4
547.828	11.46
548.027	11.48
548.225	11.59
548.423	11.66
548.622	11.68
548.82	11.78
549.019	11.8
549.217	11.88
549.415	11.98
549.614	12
549.812	12.05
550.01	12.12
550.209	12.17
550.407	12.26
550.605	12.35
550.803	12.4
551.002	12.51
551.2	12.63
551.398	12.69
551.596	12.77
551.794	12.82
551.993	12.83
552.191	12.93
552.389	12.99
552.587	13.02
552.785	13.12
552.983	13.18
553.181	13.23
553.379	13.33
553.577	13.39
553.775	13.52
553.973	13.6
554.171	13.68
554.369	13.78
554.567	13.92
554.765	13.97
554.963	14
555.161	14.04
555.359	14.1
555.557	14.17
555.755	14.25
555.952	14.29
556.15	14.41
556.348	14.53
556.546	14.62
556.744	14.75
556.941	14.85
557.139	14.95
557.337	15.05
557.535	15.13
557.732	15.27
557.93	15.38
558.128	15.46
558.325	15.54
558.523	15.59
558.721	15.72
558.918	15.79
559.116	15.81
559.313	15.89
559.511	15.97
559.708	16.07
559.906	16.18
560.104	16.28
560.301	16.41
560.498	16.53
560.696	16.63
560.893	16.72
561.091	16.79
561.288	16.86
561.486	16.95
561.683	17.02
561.88	17.13
562.078	17.23
562.275	17.35
562.473	17.47
562.67	17.58
562.867	17.7
563.064	17.83
563.262	17.99
563.459	18.13
563.656	18.28
563.853	18.39
564.051	18.54
564.248	18.62
564.445	18.7
564.642	18.74
564.839	18.83
565.036	18.92
565.234	19.04
565.431	19.12
565.628	19.25
565.825	19.41
566.022	19.54
566.219	19.62
566.416	19.68
566.613	19.8
566.81	19.86
567.007	19.95
567.204	19.97
567.401	20.08
567.598	20.18
567.795	20.26
567.991	20.36
568.188	20.5
568.385	20.58
568.582	20.74
568.779	20.83
568.976	20.93
569.172	21.06
569.369	21.1
569.566	21.13
569.763	21.21
569.96	21.21
570.156	21.21
570.353	21.29
570.55	21.34
570.746	21.41
570.943	21.6
571.14	21.67
571.336	21.81
571.533	21.95
571.729	21.98
571.926	22.1
572.123	22.16
572.319	22.16
572.516	22.2
572.712	22.23
572.909	22.29
573.105	22.42
573.302	22.4
573.498	22.42
573.695	22.45
573.891	22.54
574.087	22.59
574.284	22.58
574.48	22.54
574.677	22.64
574.873	22.77
575.069	22.86
575.266	22.86
575.462	22.87
575.658	22.91
575.854	23
576.051	22.99
576.247	22.96
576.443	22.93
576.639	22.99
576.835	23.03
577.032	23.08
577.228	23.1
577.424	23.16
577.62	23.26
577.816	23.32
578.012	23.32
578.208	23.37
578.404	23.42
578.6	23.47
578.796	23.51
578.993	23.51
579.189	23.47
579.384	23.52
579.58	23.52
579.776	23.49
579.972	23.41
580.168	23.37
580.364	23.38
580.56	23.36
580.756	23.35
580.952	23.38
581.148	23.44
581.343	23.49
581.539	23.5
581.735	23.45
581.931	23.51
582.127	23.47
582.322	23.43
582.518	23.32
582.714	23.27
582.909	23.28
583.105	23.29
583.301	23.22
583.496	23.18
583.692	23.15
583.888	23.13
584.083	23.2
584.279	23.18
584.474	23.18
584.67	23.21
584.866	23.24
585.061	23.3
585.257	23.38
585.452	23.33
585.648	23.36
585.843	23.35
586.039	23.36
586.234	23.36
586.429	23.31
586.625	23.25
586.82	23.19
587.015	23.13
587.211	23.14
587.406	23.19
587.601	23.21
587.797	23.19
587.992	23.21
588.187	23.34
588.383	23.37
588.578	23.35
588.773	23.33
588.968	23.4
589.163	23.5
589.359	23.5
589.554	23.47
589.749	23.54
589.944	23.63
590.139	23.67
590.334	23.63
590.529	23.66
590.724	23.74
590.919	23.82
591.114	23.84
591.309	23.84
591.504	23.84
591.699	23.87
591.894	23.92
592.089	23.96
592.284	23.94
592.479	23.93
592.674	24.01
592.869	24.05
593.064	24.18
593.259	24.22
593.454	24.25
593.648	24.33
593.843	24.42
594.038	24.44
594.233	24.52
594.428	24.6
594.622	24.65
594.817	24.72
595.012	24.8
595.206	24.87
595.401	24.96
595.596	25.09
595.79	25.13
595.985	25.23
596.18	25.32
596.374	25.39
596.569	25.5
596.763	25.57
596.958	25.61
597.153	25.64
597.347	25.72
597.542	25.83
597.736	25.94
597.931	25.98
598.125	26.09
598.319	26.1
598.514	26.21
598.708	26.29
598.903	26.38
599.097	26.46
599.291	26.52
599.486	26.53
599.68	26.64
599.874	26.67
600.069	26.65
600.263	26.65
600.457	26.69
600.651	26.7
600.846	26.8
601.04	26.84
601.234	26.94
601.428	26.99
601.622	27.06
601.817	27.09
602.011	27.17
602.205	27.2
602.399	27.25
602.593	27.23
602.787	27.35
602.981	27.39
603.175	27.4
603.369	27.43
603.563	27.45
603.757	27.44
603.951	27.46
604.145	27.38
604.339	27.34
604.533	27.33
604.727	27.35
604.921	27.3
605.115	27.27
605.309	27.26
605.502	27.27
605.696	27.28
605.89	27.33
606.084	27.26
606.278	27.23
606.471	27.21
606.665	27.14
606.859	27.07
607.053	27.04
607.246	26.95
607.44	26.87
607.634	26.85
607.827	26.72
608.021	26.68
608.214	26.63
608.408	26.58
608.602	26.49
608.795	26.44
608.989	26.41
609.182	26.47
609.376	26.45
609.569	26.4
609.763	26.39
609.956	26.36
610.15	26.3
610.343	26.24
610.537	26.2
610.73	26.13
610.923	26.09
611.117	25.93
611.31	25.85
611.504	25.8
611.697	25.7
611.89	25.52
612.083	25.43
612.277	25.33
612.47	25.27
612.663	25.17
612.856	25.1
613.05	25.09
613.243	25.08
613.436	24.99
613.629	24.94
613.822	24.83
614.015	24.8
614.209	24.78
614.402	24.67
614.595	24.65
614.788	24.62
614.981	24.52
615.174	24.47
615.367	24.43
615.56	24.26
615.753	24.21
615.946	24.1
616.139	24.01
616.332	23.94
616.525	23.91
616.718	23.84
616.911	23.83
617.103	23.78
617.296	23.7
617.489	23.7
617.682	23.68
617.875	23.62
618.067	23.52
618.26	23.47
618.453	23.38
618.646	23.35
618.838	23.28
619.031	23.3
619.224	23.28
619.417	23.27
619.609	23.24
619.802	23.2
619.994	23.14
620.187	23.1
620.38	23.02
620.572	22.99
620.765	22.93
620.957	22.82
621.15	22.83
621.342	22.86
621.535	22.83
621.727	22.8
621.92	22.77
622.112	22.77
622.305	22.81
622.497	22.72
622.69	22.65
622.882	22.63
623.074	22.64
623.267	22.58
623.459	22.57
623.651	22.55
623.844	22.6
624.036	22.61
624.228	22.61
624.42	22.58
624.613	22.59
624.805	22.61
624.997	22.57
625.189	22.52
625.381	22.51
625.574	22.46
625.766	22.46
625.958	22.45
626.15	22.42
626.342	22.44
626.534	22.39
626.726	22.36
626.918	22.31
627.11	22.24
627.302	22.16
627.494	22.12
627.686	22.08
627.878	22.06
628.07	22.02
628.262	22
628.454	21.97
628.646	21.95
628.838	21.89
629.029	21.79
629.221	21.74
629.413	21.65
629.605	21.57
629.797	21.57
629.989	21.56
630.18	21.54
630.372	21.59
630.564	21.61
630.755	21.62
630.947	21.6
631.139	21.52
631.33	21.49
631.522	21.41
631.714	21.35
631.905	21.26
632.097	21.25
632.289	21.2
632.48	21.14
632.672	21.03
632.863	21
633.055	20.99
633.246	21.02
633.438	20.94
633.629	20.99
633.821	21.04
634.012	21.07
634.203	21.15
634.395	21.11
634.586	21.1
634.777	21.12
634.969	21.04
635.16	21.01
635.351	21
635.543	20.95
635.734	20.91
635.925	20.9
636.117	20.88
636.308	20.9
636.499	20.85
636.69	20.88
636.881	20.86
637.073	20.88
637.264	20.89
637.455	20.91
637.646	20.87
637.837	20.86
638.028	20.79
638.219	20.76
638.41	20.69
638.601	20.63
638.792	20.57
638.983	20.53
639.174	20.55
639.365	20.51
639.556	20.46
639.747	20.53
639.938	20.49
640.129	20.5
640.32	20.46
640.511	20.41
640.701	20.4
640.892	20.42
641.083	20.34
641.274	20.32
641.465	20.25
641.655	20.3
641.846	20.28
642.037	20.23
642.228	20.18
642.418	20.15
642.609	20.13
642.8	20.11
642.99	20.06
643.181	20.04
643.372	20.07
643.562	20.05
643.753	20.05
643.943	19.99
644.134	19.94
644.324	19.92
644.515	19.92
644.705	19.87
644.896	19.84
645.086	19.78
645.277	19.83
645.467	19.83
645.658	19.79
645.848	19.73
646.038	19.71
646.229	19.66
646.419	19.69
646.61	19.64
646.8	19.64
646.99	19.63
647.18	19.65
647.371	19.58
647.561	19.54
647.751	19.48
647.941	19.39
648.132	19.4
648.322	19.41
648.512	19.41
648.702	19.47
648.892	19.55
649.082	19.5
649.272	19.46
649.462	19.4
649.653	19.33
649.843	19.19
650.033	19.14
650.223	19.04
650.413	19.06
650.603	19.04
650.793	18.99
650.983	18.92
651.172	18.9
651.362	18.78
651.552	18.71
651.742	18.59
651.932	18.53
652.122	18.48
652.312	18.31
652.502	18.24
652.691	18.2
652.881	18.14
653.071	18.07
653.261	18.01
653.45	17.92
653.64	18
653.83	17.88
654.019	17.76
654.209	17.68
654.399	17.55
654.588	17.44
654.778	17.32
654.968	17.15
655.157	17.05
655.347	16.94
655.536	16.71
655.726	16.61
655.915	16.47
656.105	16.31
656.294	16.13
656.484	15.98
656.673	15.83
656.863	15.74
657.052	15.54
657.241	15.36
657.431	15.18
657.62	14.96
657.809	14.79
657.999	14.57
658.188	14.38
658.377	14.25
658.567	14.06
658.756	13.9
658.945	13.76
659.134	13.59
659.324	13.44
659.513	13.24
659.702	13.06
659.891	12.9
660.08	12.76
660.269	12.66
660.458	12.5
660.648	12.32
660.837	12.17
661.026	11.97
661.215	11.82
661.404	11.62
661.593	11.38
661.782	11.2
661.971	11.03
662.16	10.85
662.349	10.65
662.538	10.53
662.726	10.34
662.915	10.23
663.104	10.02
663.293	9.89
663.482	9.74
663.671	9.68
663.86	9.51
664.048	9.41
664.237	9.27
664.426	9.23
664.615	9.1
664.803	9.02
664.992	8.92
665.181	8.79
665.369	8.67
665.558	8.55
665.747	8.5
665.935	8.45
666.124	8.4
666.312	8.25
666.501	8.17
666.69	8.09
666.878	8.05
667.067	7.92
667.255	7.89
667.444	7.79
667.632	7.78
667.82	7.77
668.009	7.73
668.197	7.65
668.386	7.57
668.574	7.47
668.762	7.42
668.951	7.36
669.139	7.29
669.327	7.29
669.516	7.29
669.704	7.28
669.892	7.23
670.08	7.2
670.269	7.18
670.457	7.14
670.645	7.15
670.833	7.11
671.021	7.08
671.21	7.11
671.398	7.12
671.586	7.09
671.774	7.08
671.962	7.04
672.15	6.99
672.338	7
672.526	6.98
672.714	6.94
672.902	6.98
673.09	7.04
673.278	7.01
673.466	7.09
673.654	7.12
673.842	7.15
674.03	7.22
674.218	7.24
674.405	7.25
674.593	7.33
674.781	7.37
674.969	7.44
675.157	7.52
675.344	7.56
675.532	7.6
675.72	7.61
675.908	7.65
676.095	7.78
676.283	7.78
676.471	7.8
676.658	7.88
676.846	7.97
677.033	8.08
677.221	8.15
677.409	8.15
677.596	8.31
677.784	8.38
677.971	8.51
678.159	8.63
678.346	8.73
678.534	8.81
678.721	8.85
678.909	8.82
679.096	8.91
679.283	8.93
679.471	9.03
679.658	9.18
679.846	9.28
680.033	9.44
680.22	9.58
680.408	9.72
680.595	9.87
680.782	9.93
680.969	9.94
681.157	10.13
681.344	10.29
681.531	10.49
681.718	10.64
681.905	10.78
682.093	11.03
682.28	11.32
682.467	11.4
682.654	11.55
682.841	11.74
683.028	11.99
683.215	12.25
683.402	12.34
683.589	12.49
683.776	12.73
683.963	13.01
684.15	13.26
684.337	13.5
684.524	13.74
684.711	14.05
684.898	14.38
685.085	14.83
685.271	15.12
685.458	15.48
685.645	15.77
685.832	16.12
686.019	16.6
686.205	16.87
686.392	17.12
686.579	17.45
686.766	17.71
686.952	18.22
687.139	18.59
687.326	18.93
687.512	19.4
687.699	19.84
687.886	20.29
688.072	20.94
688.259	21.4
688.445	21.81
688.632	22.4
688.818	22.98
689.005	23.61
689.191	24.22
689.378	24.63
689.564	25.11
689.751	25.87
689.937	26.32
690.124	26.95
690.31	27.52
690.496	28.1
690.683	28.84
690.869	29.56
691.055	30.27
691.242	30.95
691.428	31.66
691.614	32.37
691.8	33.07
691.987	33.77
692.173	34.59
692.359	35.19
692.545	36
692.731	36.74
692.918	37.45
693.104	38.19
693.29	38.88
693.476	39.49
693.662	40.17
693.848	40.88
694.034	41.36
694.22	42.08
694.406	42.83
694.592	43.59
694.778	44.26
694.964	45.07
695.15	45.73
695.336	46.65
695.522	47.42
695.708	48.14
695.894	48.94
696.08	49.7
696.265	50.47
696.451	51.33
696.637	51.93
696.823	52.53
697.009	53.23
697.194	53.91
697.38	54.37
697.566	54.86
697.751	55.39
697.937	56.14
698.123	56.88
698.308	57.41
698.494	57.9
698.68	58.7
698.865	59.46
699.051	60.14
699.236	60.7
699.422	61.14
699.607	61.7
699.793	62.17
699.978	62.72
700.164	63.07
700.349	63.4
700.535	63.88
700.72	64.56
700.906	65.08
701.091	65.56
701.276	65.99
701.462	66.58
701.647	67.13
701.832	67.6
702.018	67.84
702.203	68.26
702.388	68.67
702.573	69.26
702.759	69.71
702.944	70.18
703.129	70.46
703.314	71
703.499	71.46
703.684	71.95
703.87	72.16
704.055	72.55
704.24	72.89
704.425	73.58
704.61	73.74
704.795	74.01
704.98	74.24
705.165	74.53
705.35	74.87
705.535	75.09
705.72	75.1
705.905	75.62
706.09	75.87
706.275	76.11
706.459	76.48
706.644	76.69
706.829	77.18
707.014	77.51
707.199	77.54
707.384	77.9
707.568	78.41
707.753	78.56
707.938	78.79
708.123	78.7
708.307	79.15
708.492	79.52
708.677	79.64
708.861	79.82
709.046	80.03
709.231	80.29
709.415	80.66
709.6	80.55
709.784	80.83
709.969	81.18
710.153	81.37
710.338	81.53
710.522	81.63
710.707	81.44
710.891	81.63
711.076	81.65
711.26	81.7
711.445	81.78
711.629	82.11
711.813	82.15
711.998	82.62
712.182	83.05
712.366	83.43
712.551	83.63
712.735	83.72
712.919	83.94
713.103	84.3
713.288	84.53
713.472	84.43
713.656	84.11
713.84	84.21
714.024	84.45
714.208	84.39
714.393	84.38
714.577	84.46
714.761	84.77
714.945	84.87
715.129	85.02
715.313	85.16
715.497	85.43
715.681	85.71
715.865	85.8
716.049	85.99
716.233	86.68
716.417	86.83
716.601	86.92
716.785	86.79
716.968	86.6
717.152	86.61
717.336	86.63
717.52	86.44
717.704	86.68
717.888	86.89
718.071	87.11
718.255	87.56
718.439	87.61
718.622	87.73
718.806	87.24
718.99	87.25
719.174	86.9
719.357	86.89
719.541	87.15
719.724	87.4
719.908	87.29
720.092	88.11
720.275	88.4
720.459	88.6
720.642	88.85
720.826	88.67
721.009	88.64
721.193	88.69
721.376	88.38
721.559	88.15
721.743	88.39
721.926	88.25
722.11	88.07
722.293	87.79
722.476	87.68
722.66	87.79
722.843	87.74
723.026	88.08
723.21	88.13
723.393	88.13
723.576	88.22
723.759	88.57
723.942	88.69
724.126	88.83
724.309	88.67
724.492	89.03
724.675	89.19
724.858	90.04
725.041	90.12
725.224	90
725.407	90.11
725.59	90.1
725.774	89.95
725.957	90.24
726.14	89.71
726.322	89.69
726.505	90.2
726.688	90.16
726.871	90.22
727.054	90.6
727.237	90.35
727.42	90.82
727.603	90.92
727.786	90.89
727.968	91.05
728.151	91.09
728.334	90.6
728.517	90.99
728.699	91.1
728.882	91.41
729.065	91.52
729.248	91.54
729.43	91.7
729.613	92.19
729.796	91.91
729.978	91.71
730.161	91.78
730.343	91.84
730.526	91.98
730.708	91.99
730.891	91.99
731.073	92.16
731.256	92.6
731.438	92.75
731.621	92.99
731.803	92.92
731.986	92.93
732.168	92.93
732.35	93.2
732.533	92.8
732.715	92.84
732.898	92.76
733.08	93.2
733.262	93.2
733.444	93.39
733.627	93.2
733.809	93.52
733.991	93.2
734.173	92.99
734.355	92.93
734.538	93
734.72	93.01
734.902	93.03
735.084	93.01
735.266	93.25
735.448	93.4
735.63	93.18
735.812	93.79
735.994	93.49
736.176	93.84
736.358	93.96
736.54	93.96
736.722	94.02
736.904	94.28
737.086	94.05
737.268	94.02
737.45	94.09
737.632	93.41
737.814	93.49
737.995	93.74
738.177	93.91
738.359	93.97
738.541	94.19
738.723	94.22
738.904	94.56
739.086	94.48
739.268	94.75
739.449	94.44
739.631	94.5
739.813	94.48
739.994	94.41
740.176	94.35
740.358	94.45
740.539	94.2
740.721	94.56
740.902	94.13
741.084	94.5
741.265	94.58
741.447	94.7
741.628	94.56
741.81	94.63
741.991	94.88
742.172	95.04
742.354	95.14
742.535	95.38
742.717	95.04
742.898	95.41
743.079	95.01
743.261	94.43
743.442	94.77
743.623	94.39
743.804	94.1
743.986	94.44
744.167	93.98
744.348	94.58
744.529	94.72
744.71	93.76
744.891	94.19
745.073	94.11
745.254	94.48
745.435	94.19
745.616	93.77
745.797	93.06
745.978	94.11
746.159	93.55
746.34	94.03
746.521	94.24
746.702	94.5
746.883	94.75
747.064	95.31
747.245	94.87
747.426	95.28
747.606	94.75
747.787	94.91
747.968	95.27
748.149	95.17
748.33	96.55
748.51	96.4
748.691	96.15
748.872	95.69
749.053	94.85
749.233	94.75
749.414	94.78
749.595	92.9
749.775	93.01
749.956	92.86
750.137	92.93
750.317	93.33
750.498	93.43
750.678	92.87
750.859	93
751.04	93.16
751.22	92.69
751.4	93.12
751.581	93.31
751.761	93.54
751.942	94.34
752.122	94.63
752.303	94.57
752.483	95.78
752.663	96.14
752.844	95.6
753.024	94.93
753.204	94.51
753.385	94
753.565	93.49
753.745	92.64
753.925	92.08
754.106	92.14
754.286	91.96
754.466	91.88
754.646	91.88
754.826	91.98
755.006	91.61
755.187	91.33
755.367	91.86
755.547	92.16
755.727	91.95
755.907	93.16
756.087	93.86
756.267	94
756.447	94.5
756.627	94.37
756.807	94.84
756.987	96.01
757.167	95.76
757.346	94.7
757.526	95.2
757.706	94.86
757.886	94.49
758.066	94.16
758.246	93.14
758.425	93.11
758.605	93.32
758.785	92.85
758.965	92.95
759.144	93.16
759.324	92.78
759.504	92.25
759.683	91.59
759.863	91.56
760.043	91.39
760.222	90.65
760.402	90.94
760.581	90.9
760.761	90.67
760.94	90.09
761.12	89.98
761.299	90.01
761.479	90.63
761.658	89.87
761.838	90.67
762.017	90.89
762.197	92.19
762.376	92.58
762.555	93.09
762.735	92.32
762.914	93.38
763.093	92.41
763.273	92.57
763.452	92.25
763.631	91.41
763.81	91.14
763.99	92.25
764.169	91.27
764.348	91.99
764.527	92.33
764.706	91.98
764.885	92.88
765.064	92.68
765.243	92.09
765.423	92.71
765.602	91.34
765.781	90.45
765.96	90.73
766.139	90.13
766.318	90.51
766.497	90.95
766.676	91.07
766.854	91.07
767.033	91.37
767.212	90.52
767.391	91.12
767.57	90.68
767.749	90.13
767.928	88.14
768.106	89.35
768.285	90.14
768.464	90.69
768.643	91.07
768.821	91.19
769	92.43
769.179	92.36
769.357	91.42
769.536	90.22
769.715	89.1
769.893	87.43
770.072	86.99
770.25	85.93
770.429	87.75
770.607	87.87
770.786	88.9
770.964	90.05
771.143	90.47
771.321	90.67
771.5	89.27
771.678	88.96
771.857	88.26
772.035	87.64
772.213	87.42
772.392	87.75
772.57	87.45
772.748	88.12
772.927	87.74
773.105	88.78
773.283	88.25
773.461	87.92
773.64	87.4
773.818	87.8
773.996	88.15
774.174	87.64
774.352	87.23
774.531	86.32
774.709	87.6
774.887	87.84
775.065	87.25
775.243	87.54
775.421	88.01
775.599	86.81
775.777	88.19
775.955	85.98
776.133	86.16
776.311	86.73
776.489	85.65
776.667	85.46
776.844	86.38
777.022	86.13
777.2	86.2
777.378	86.6
777.556	86.1
777.734	88.17
777.911	89.03
778.089	87.71
778.267	86.94
778.445	87.26
778.622	86.02
778.8	86.56
778.978	85.57
779.155	84.78
779.333	83.73
779.511	85.32
779.688	83.65
779.866	83.93
780.043	83.62
780.221	83.34
780.398	82.8
780.576	85.06
780.753	82.64
780.931	85.34
781.108	86.2
781.286	84.32
781.463	84.39
781.64	85.11
781.818	84.12
781.995	85.97
782.172	84.93
782.35	83.35
782.527	86.05
782.704	85.13
782.882	84.24
783.059	84.6
783.236	83.35
783.413	83.35
783.59	83
783.768	81.53
783.945	81.77
784.122	82.04
784.299	83.03
784.476	84.76
784.653	83.13
784.83	82.06
785.007	81.59
785.184	80.69
785.361	80.57
785.538	79.48
785.715	78.08
785.892	79.21
786.069	80.34
786.246	79.56
786.423	83.64
786.6	83.47
786.776	84.04
786.953	85.17
787.13	87.59
787.307	88.65
787.484	90.65
787.66	84.79
787.837	85.83
788.014	85.52
788.191	83.05
788.367	81.8
788.544	83.83
788.721	83.73
788.897	86.29
789.074	85
789.25	84.41
789.427	85.53
789.603	86.41
789.78	84.67
789.956	83.1
790.133	82.91
790.309	82.53
790.486	84.89
790.662	85.28
790.839	84.46
791.015	85.87
791.192	87.53
791.368	90.89
791.544	90.53
791.721	89.18
791.897	88.16
792.073	87.57
792.249	88.08
792.426	87.02
792.602	82.71
792.778	83.55
792.954	82.24
793.13	83.73
793.307	81.4
793.483	79.21
793.659	82.37
793.835	82.79
794.011	80.2
794.187	79.83
794.363	77.72
794.539	78.61
794.715	77.83
794.891	71.27
795.067	72.57
795.243	74.28
795.419	76.84
795.595	78.44
795.771	78.79
795.947	77.21
796.122	78.53
796.298	77.8
796.474	78.78
796.65	76.07
796.826	75.3
797.001	76.71
797.177	77.28
797.353	81.71
797.529	82.03
797.704	80.43
797.88	81.26
798.056	83.69
798.231	82.47
798.407	83.97
798.582	81.71
798.758	84.09
798.934	84.23
799.109	82.3
799.285	80.56
799.46	80
799.636	78.84
799.811	79.46
799.986	75.98
800.162	77.07
800.337	78.7
800.513	79.31
800.688	82.09
800.863	83.96
801.039	78.26
801.214	78.3
801.389	74.4
801.565	79.85
801.74	76.61
801.915	75.04
802.09	73.83
802.265	77.08
802.441	75.54
802.616	77
802.791	74.32
802.966	77.28
803.141	71.94
803.316	73.23
803.491	77.08
803.666	78.95
803.841	82.16
804.016	78.07
804.191	78.06
804.366	81.32
804.541	78.53
804.716	71.44
804.891	72.88
805.066	69.91
805.241	68.9
805.416	64.92
805.591	68.3
805.765	67.82
805.94	75.08
806.115	72.15
806.29	72.21
806.464	70.73
806.639	73.32
806.814	70.62
806.989	70.06
807.163	66.38
807.338	68.3
807.512	65.56
807.687	68.59
807.862	68.43
808.036	70.45
808.211	73.27
808.385	72.78
808.56	76.3
808.734	78.53
808.909	80.67
809.083	83.52
809.258	85.52
809.432	83.43
809.606	81.13
809.781	78.8
809.955	82.46
810.13	85.95
810.304	81.84
810.478	79.69
810.652	82.1
810.827	83.22
811.001	79.16
811.175	73.88
811.349	68.39
811.524	66.91
811.698	67.26
811.872	67.92
812.046	67.93
812.22	67.08
812.394	66.76
812.568	71.63
812.742	72.99
812.916	70.3
813.09	65.35
813.264	67.12
813.438	73.25
813.612	76.47
813.786	74.34
813.96	78.72
814.134	80.23
814.308	83.11
814.482	78.63
814.656	81.17
814.83	84.74
815.003	84.31
815.177	83.22
815.351	81.56
815.525	80.41
815.698	80.92
815.872	75.24
816.046	71.73
816.219	72.23
816.393	65
816.567	63.38
816.74	66.61
816.914	65.95
817.088	64.64
817.261	68.91
817.435	63.06
817.608	65.91
817.782	71.01
817.955	68.92
818.129	76.91
818.302	79.49
818.475	72.41
818.649	72.24
818.822	75.87
818.996	71.76
819.169	69.43
819.342	64.99
819.516	63.83
819.689	62.91
819.862	64.28
820.035	61.65
820.209	62.1
820.382	59.58
820.555	59.18
820.728	56.93
820.901	57.47
821.075	63.64
821.248	61.95
821.421	58.11
821.594	65.94
821.767	67.37
821.94	61.76
822.113	66.99
822.286	66.12
822.459	74.63
822.632	78.32
822.805	71.49
822.978	63.21
823.151	72.75
823.324	61.71
823.496	51.82
823.669	56.83
823.842	55.94
824.015	51.03
824.188	61.15
824.361	61.8
824.533	71.98
824.706	89.16
824.879	76.85
825.051	80.51
825.224	89.42
825.397	82.48
825.569	83.46
825.742	75.83
825.915	63.75
826.087	55.18
826.26	53.79
826.432	52.71
826.605	49.19
826.777	45.46
826.95	46.63
827.122	60.09
827.295	64.17
827.467	54.67
827.64	45.85
827.812	44.21
827.984	49.32
828.157	51.79
828.329	47.24
828.501	47.21
828.674	46.21
828.846	46.08
829.018	42.43
829.19	39.02
829.363	37.68
829.535	34.34
829.707	28.94
829.879	26.34
830.051	37.08
830.223	41.94
830.395	36.21
830.568	46.67
830.74	48.15
830.912	53.44
831.084	60.67
831.256	48.91
831.428	54.22
831.6	50.74
831.772	39.93
831.943	43.17
832.115	42.14
832.287	37.6
832.459	53.06
832.631	55.49
832.803	69.57
832.975	72.74
833.146	59.23
833.318	51.77
833.49	60.94
833.662	56.57
833.833	54.14
834.005	53.45
834.177	54.62
834.348	57.09
834.52	67.94
834.692	65.85
834.863	65.1
835.035	61.75
835.206	55.69
835.378	65.51
835.549	70.52
835.721	67.14
835.892	59.82
836.064	65.52
836.235	66.43
836.407	61.43
836.578	54.39
836.749	48.74
836.921	46.63
837.092	56.68
837.264	41.56
837.435	32.25
837.606	43.98
837.777	40.48
837.949	37.84
838.12	34.17
838.291	34.17
838.462	37.15
838.633	46.65
838.805	43.11
838.976	40.36
839.147	46.58
839.318	38.32
839.489	30.7
839.66	40.68
839.831	23.85
840.002	23.41
840.173	25.28
840.344	27.93
840.515	31.68
840.686	40.49
840.857	24.56
841.028	40.66
841.199	35.55
841.369	29.13
841.54	26.88
841.711	34.5
841.882	22.34
842.053	14.9
842.223	-4.08
842.394	23.1
842.565	44.53
842.736	42.65
842.906	36.26
843.077	45.91
843.248	64.46
843.418	63.32
843.589	56.81
843.759	50.72
843.93	59.94
844.101	63.63
844.271	66.61
844.442	61.78
844.612	59.38
844.783	37.97
844.953	34.57
845.123	27.54
845.294	16.94
845.464	24.29
845.635	22.62
845.805	43.68
845.975	47.07
846.146	43.22
846.316	61.26
846.486	77.4
846.656	72.17
846.827	65.37
846.997	63.25
847.167	71.27
847.337	78.3
847.507	64.04
847.677	66.54
847.848	71.92
848.018	63.76
848.188	57.15
848.358	66.26
848.528	61.66
848.698	59.58
848.868	26.67
849.038	37.14
849.208	51.76
849.378	41.16
849.548	39.48
849.718	40.13
849.887	27.46
850.057	37.91
850.227	29.74
850.397	21.16
850.567	32.54
850.737	29.32
850.906	25.7
851.076	41.48
851.246	53.68
851.415	54.91
851.585	61.43
851.755	65.57
851.924	75.01
852.094	75.51
852.264	55.37
852.433	50.24
852.603	46.75
852.772	46.74
852.942	33.23
853.111	25.31
853.281	23.79
853.45	37.88
853.62	32.09
853.789	34.69
853.959	30.17
854.128	18.65
854.297	7.27
854.467	16.87
854.636	32.68
854.805	44.27
854.975	43.87
855.144	54.92
855.313	75.58
855.482	83.45
855.652	68.71
855.821	62.45
855.99	47.11
856.159	48.14
856.328	41.28
856.497	27.39
856.667	25.23
856.836	28.32
857.005	17.19
857.174	27.29
857.343	14.95
857.512	3.84
857.681	6.51
857.85	10
858.019	23.27
858.188	23.31
858.356	8.11
858.525	34.37
858.694	46.1
858.863	45.68
859.032	31.65
859.201	19.07
859.369	32.61
859.538	39.94
859.707	27.79
859.876	28.96
860.044	37.39
860.213	38.99
860.382	35.81
860.55	53.37
860.719	63.41
860.888	46.58
861.056	42.77
861.225	23.14
861.393	45.04
861.562	33.39
861.73	17.64
861.899	-0.37
862.067	35.42
862.236	31.48
862.404	36
862.572	32.45
862.741	31.89
862.909	28.94
863.078	37.82
863.246	20.37
863.414	20.19
863.582	17.58
863.751	15.07
863.919	46.18
864.087	37.45
864.255	29.64
864.424	35.04
864.592	36.87
864.76	51.07
864.928	50.48
865.096	36.12
865.264	43.23
865.432	40.43
865.6	22.38
865.768	11.39
865.936	9.63
866.104	-22.97
866.272	-16.2
866.44	-50.02
866.608	-63.07
866.776	4.43
866.944	13.08
867.112	-32.49
867.28	2.92
867.448	18.34
867.615	56.24
867.783	49.26
867.951	47.4
868.119	83.92
868.286	76.14
868.454	57.89
868.622	71.69
868.789	64.7
868.957	69.94
869.125	60.09
869.292	57.93
869.46	80.13
869.627	77.15
869.795	46.62
869.963	42.98
870.13	52.74
870.298	22.34
870.465	-41.77
870.632	-60.21
870.8	-48.97
870.967	-35.03
871.135	-27.49
871.302	-21.7
871.469	-4.59
871.637	-1.49
871.804	3.05
871.971	16.89
872.139	30.07
872.306	13.3
872.473	-1.85
872.64	15.18
872.807	40.59
872.975	66
873.142	44.34
873.309	52.12
873.476	142.3
873.643	212.18
873.81	176.41
873.977	96.98
874.144	93.35
874.311	77.14
874.478	-11.04
874.645	-30.42
874.812	-20.45
874.979	-53.42
875.146	-114.31
875.313	-159.98
875.48	-78.29
875.647	-97.36
875.813	-104.44
875.98	-113.36
876.147	-12.09
876.314	20.36
876.481	5.56
876.647	16.34
876.814	48.51
876.981	57.5
877.147	58.82
877.314	47.41
877.481	39.57
877.647	44.65
877.814	20.2
877.98	4.03
878.147	26.09
878.314	25.75
878.48	28.25
878.647	53.82
878.813	81.05
878.979	110.84
879.146	55.88
879.312	59.35
879.479	65.74
879.645	54.25
879.811	37.52
879.978	11.15
880.144	20.9
880.31	31.23
880.477	5.16
880.643	-25.19
880.809	23.56
880.975	-3.33
881.142	11.57
881.308	-5.97
881.474	44.39
881.64	-34.88
881.806	-11.6
881.972	6.97
882.138	8.44
882.304	-57.64
882.47	-37.8
882.636	-73.41
882.802	-109.47
882.968	-171.16
883.134	-428.3
883.3	-175.24
883.466	-12.53
883.632	-34.37
883.798	-33.63
883.964	-2.74
884.129	24.93
884.295	37.49
884.461	20.94
884.627	-12.39
884.793	46.29
884.958	52.08
885.124	35.08
885.29	14.59
885.455	17.76
885.621	17.76
885.787	13.27
885.952	-10.28
886.118	-0.08
886.283	22.96
886.449	-2.48
886.614	2.86
886.78	42.54
886.945	22.72
887.111	43.83
887.276	4.65
887.442	2.46
887.607	12.81
887.773	-18.56
887.938	-48.11
888.103	-2.02
888.269	-6.63
888.434	26.71
888.599	39.49
888.764	44.83
888.93	58.05
889.095	34.56
889.26	35.21
889.425	58.44
889.59	19.49
889.756	-9.09
889.921	-18.61
890.086	-2.26
890.251	14.17
890.416	-32.49
890.581	-28.56
890.746	-2.48
890.911	-39.07
891.076	-65.36
891.241	-96.7
891.406	-22.2
891.571	-9.2
891.736	-50.36
891.901	-50.97
892.065	3.19
892.23	-4.91
892.395	-28.48
892.56	-25.89
892.725	-28.65
892.889	-50.02
893.054	-116.72
893.219	-219.62
893.384	-329.65
893.548	-744.17
893.713	1457.18
893.878	723.37
