Data from Ofra_1a_PS_2GT41_Reflection_3.txt Node
Date: Tue Jul 20 10:51:15 EDT 2021
User: Adam
Spectrometer: FLMT01687
Trigger mode: 0
Integration Time (sec): 1.004000E0
Scans to average: 2
Electric dark correction enabled: true
Nonlinearity correction enabled: false
Boxcar width: 2
XAxis mode: Wavelengths
Number of Pixels in Spectrum: 3648
>>>>>Begin Spectral Data<<<<<
179.494	-265.99
179.716	-450.38
179.937	956.52
180.158	-1141.4
180.38	101.3
180.601	100.32
180.823	49.87
181.044	18.48
181.265	81.15
181.486	30.42
181.708	149.03
181.929	-10436.36
182.15	73.91
182.372	-110.34
182.593	218.38
182.814	-161.63
183.035	25.5
183.257	84.15
183.478	67.55
183.699	59.59
183.92	24.19
184.141	4.83
184.363	-3.38
184.584	-19.52
184.805	5.03
185.026	50.44
185.247	51.75
185.468	52.33
185.689	61.58
185.91	58.34
186.132	37.08
186.353	33.17
186.574	51.72
186.795	40.61
187.016	54.96
187.237	55.54
187.458	57.32
187.679	31.22
187.9	43.94
188.121	48.17
188.342	60
188.563	37.05
188.784	57.18
189.005	56.32
189.226	45.41
189.447	45.34
189.667	41.18
189.888	10.95
190.109	-0.09
190.33	24.15
190.551	18.81
190.772	41.87
190.993	51.9
191.214	55.38
191.434	53.89
191.655	39.26
191.876	48.56
192.097	68.59
192.318	77.14
192.538	43.89
192.759	41.77
192.98	49.42
193.201	39.66
193.421	25.88
193.642	32.06
193.863	35.81
194.083	26.12
194.304	39.63
194.525	22.44
194.745	30.54
194.966	27.7
195.187	26.39
195.407	6.62
195.628	19.97
195.848	12.13
196.069	-13.28
196.29	-17.32
196.51	-18.04
196.731	-30
196.951	-31.76
197.172	-4.76
197.392	-16.58
197.613	9.92
197.833	2.86
198.054	17.66
198.274	16.48
198.495	10.6
198.715	-7.89
198.936	6.16
199.156	4.63
199.377	7.24
199.597	18.42
199.817	20.78
200.038	2.48
200.258	9.12
200.479	25.16
200.699	23.51
200.919	11.5
201.14	27.88
201.36	18.84
201.58	-2.15
201.801	-7.31
202.021	2.14
202.241	-28.85
202.461	-12.81
202.682	6.39
202.902	21.73
203.122	36.46
203.342	59.23
203.563	47.9
203.783	16.29
204.003	-8.47
204.223	11.89
204.443	6.14
204.663	0.23
204.884	40.74
205.104	52.49
205.324	44.77
205.544	25.15
205.764	57.65
205.984	35.64
206.204	38.38
206.424	12.23
206.644	8.61
206.864	-44.47
207.084	-16.41
207.304	-18.05
207.525	-2.03
207.745	31.36
207.964	47.07
208.184	77.23
208.404	65.41
208.624	68.54
208.844	55.32
209.064	53.08
209.284	31.94
209.504	31.14
209.724	15.15
209.944	0.15
210.164	-11.13
210.384	-14.71
210.604	-29.42
210.823	-47.4
211.043	-23.79
211.263	-59.44
211.483	-25.2
211.703	-23.61
211.922	-17.44
212.142	23.53
212.362	51.38
212.582	38.15
212.801	25.57
213.021	22.01
213.241	-11.31
213.461	-19
213.68	-1.4
213.9	16.35
214.12	14.04
214.339	15.82
214.559	21.78
214.779	17.74
214.998	17.66
215.218	28.28
215.438	37.34
215.657	27.94
215.877	18.65
216.096	14.56
216.316	14.54
216.535	0.33
216.755	16.81
216.974	28.49
217.194	12.27
217.413	11.64
217.633	15.58
217.852	8.5
218.072	11.76
218.291	18.79
218.511	21.28
218.73	28.56
218.95	9.62
219.169	-14.72
219.389	2.17
219.608	6.46
219.827	7.25
220.047	31.82
220.266	44.05
220.485	45.59
220.705	35.33
220.924	45.23
221.143	36.36
221.363	41.28
221.582	33.02
221.801	58.59
222.021	42.19
222.24	30.14
222.459	42.42
222.678	50.1
222.897	33.65
223.117	56.48
223.336	77.55
223.555	84.65
223.774	90.09
223.993	108.14
224.213	112.66
224.432	86.46
224.651	78.68
224.87	75.2
225.089	57.26
225.308	32.79
225.527	20.37
225.746	7.88
225.965	9.54
226.184	-9.14
226.404	-0.89
226.623	13.39
226.842	-0.2
227.061	-8.33
227.28	22.36
227.499	22.82
227.718	8.94
227.936	19.5
228.155	28.62
228.374	24.59
228.593	27.07
228.812	44.4
229.031	51.92
229.25	32.03
229.469	33.02
229.688	40.88
229.907	40.76
230.125	29.99
230.344	37.22
230.563	38.21
230.782	38.68
231.001	47.46
231.22	67.51
231.438	84.97
231.657	77.14
231.876	55.46
232.095	43.19
232.313	24.8
232.532	4.68
232.751	-17.95
232.969	6.76
233.188	-8.4
233.407	0.78
233.625	5.9
233.844	7.67
234.063	-4.43
234.281	12.33
234.5	13.95
234.719	15.14
234.937	-4.21
235.156	5.57
235.374	1.8
235.593	8.65
235.811	20.29
236.03	36.58
236.249	33.46
236.467	42.53
236.686	21.43
236.904	8.36
237.123	5.88
237.341	2.9
237.559	-14.76
237.778	37.17
237.996	51.49
238.215	34.18
238.433	-19.49
238.652	14.43
238.87	-10.66
239.088	-5.8
239.307	10.64
239.525	25.28
239.743	12.77
239.962	-2.36
240.18	8.58
240.398	10.3
240.617	8.59
240.835	27.77
241.053	18.65
241.271	8.37
241.49	17.13
241.708	15.88
241.926	10.2
242.144	22.81
242.363	10.32
242.581	1.25
242.799	-18.16
243.017	-11.61
243.235	-12.72
243.453	-4.06
243.672	14.4
243.89	24.39
244.108	30.19
244.326	36.09
244.544	47.14
244.762	32.36
244.98	34.62
245.198	29.04
245.416	32.86
245.634	25.89
245.852	9.43
246.07	7.7
246.288	13.76
246.506	6.82
246.724	-1.17
246.942	14.4
247.16	24.73
247.378	18.47
247.596	40.52
247.814	30.12
248.032	15.42
248.25	30.6
248.468	33.43
248.685	32.07
248.903	37.42
249.121	46.36
249.339	41.95
249.557	47.94
249.775	41.85
249.992	33.78
250.21	22.66
250.428	23.01
250.646	9.6
250.863	3.01
251.081	5.14
251.299	1.72
251.517	4.52
251.734	22.63
251.952	18.51
252.17	17.83
252.387	24.38
252.605	20.93
252.823	21.78
253.04	28.35
253.258	43.09
253.475	33.13
253.693	42.46
253.911	18.38
254.128	16.55
254.346	29.12
254.563	32.3
254.781	11.77
254.998	14.04
255.216	-1.65
255.433	-45.51
255.651	-31.15
255.868	-22.58
256.086	-3.73
256.303	4.93
256.521	19.94
256.738	9.21
256.956	12.55
257.173	-5.06
257.39	13.18
257.608	13.38
257.825	26.85
258.043	31.94
258.26	42.06
258.477	31.84
258.695	25.09
258.912	17.36
259.129	6.61
259.346	-22.33
259.564	-23.17
259.781	-27.1
259.998	-6.01
260.216	18.02
260.433	22.53
260.65	23.38
260.867	30.09
261.084	35.27
261.302	34.49
261.519	45.43
261.736	52.49
261.953	47.98
262.17	39.34
262.387	19.63
262.604	29.63
262.822	25.56
263.039	31.88
263.256	31.88
263.473	35.57
263.69	36.31
263.907	53.11
264.124	45.5
264.341	36.67
264.558	45.56
264.775	39.36
264.992	26.48
265.209	29.76
265.426	34.34
265.643	26.21
265.86	30.86
266.077	15.6
266.294	39.74
266.51	54.64
266.727	49.93
266.944	41.09
267.161	43.48
267.378	26.4
267.595	2.18
267.812	-6.9
268.028	-17.98
268.245	-18.92
268.462	-9.89
268.679	2.31
268.896	20.75
269.112	18.91
269.329	15.92
269.546	38.28
269.763	37.09
269.979	24.86
270.196	42.16
270.413	41.53
270.629	18.87
270.846	5.12
271.063	6.47
271.279	-3.79
271.496	-10.29
271.712	1.41
271.929	15.25
272.146	26.97
272.362	31.75
272.579	25.02
272.795	25.66
273.012	29.81
273.228	24.47
273.445	20.97
273.661	25.13
273.878	11.79
274.094	17.31
274.311	1.51
274.527	-4.57
274.744	15.82
274.96	34.66
275.177	22.4
275.393	43.15
275.609	42.33
275.826	26.28
276.042	16.21
276.259	16.45
276.475	-3.23
276.691	-9.64
276.908	-6.5
277.124	-7.64
277.34	-7.42
277.557	-3.93
277.773	9.48
277.989	26.74
278.205	25.88
278.422	30.89
278.638	25.11
278.854	3.27
279.07	7.27
279.286	7.86
279.503	5.45
279.719	19.48
279.935	34.17
280.151	21.24
280.367	26.82
280.583	21.34
280.799	3.89
281.016	-20.75
281.232	0.14
281.448	-15.61
281.664	-12.66
281.88	9.99
282.096	19.93
282.312	17.2
282.528	10.36
282.744	14.28
282.96	4.18
283.176	-0.34
283.392	-33.21
283.608	32.19
283.824	18.06
284.04	-18.06
284.256	-4.95
284.471	10.25
284.687	1.41
284.903	17.04
285.119	33.29
285.335	36.32
285.551	36.54
285.767	31.78
285.982	28.36
286.198	-0.66
286.414	-10.93
286.63	-12.19
286.846	0.23
287.061	1.92
287.277	-0.08
287.493	-8.97
287.709	2.68
287.924	1.8
288.14	8.07
288.356	26.53
288.571	22.54
288.787	1.27
289.003	12.55
289.218	-3.52
289.434	-17.12
289.65	13.7
289.865	15.62
290.081	3.11
290.296	15.14
290.512	15.38
290.727	-0.04
290.943	12.67
291.159	22.63
291.374	-0.52
291.59	5.2
291.805	1.59
292.021	-7.43
292.236	-6.91
292.451	13.25
292.667	23
292.882	21.36
293.098	23.9
293.313	12.01
293.529	9.45
293.744	1.81
293.959	28.97
294.175	31.03
294.39	24.06
294.605	38.37
294.821	36.7
295.036	25.09
295.251	28.52
295.467	18.39
295.682	6.16
295.897	7.74
296.112	6.26
296.328	6.69
296.543	18.3
296.758	23.88
296.973	20.21
297.188	26.49
297.404	19.27
297.619	18.86
297.834	8.14
298.049	-11.39
298.264	-28.12
298.479	-23.43
298.694	10.11
298.909	13.8
299.125	16.05
299.34	11.46
299.555	20.58
299.77	28.99
299.985	24.61
300.2	33.6
300.415	36.86
300.63	35.06
300.845	23.71
301.06	18.54
301.275	14.94
301.49	26.58
301.704	17.6
301.919	6.29
302.134	4.87
302.349	10.55
302.564	1.07
302.779	9.38
302.994	29.09
303.209	43.75
303.423	40.85
303.638	53.74
303.853	17
304.068	0.15
304.283	-3.18
304.497	-15.79
304.712	-10.43
304.927	18.7
305.142	28.26
305.356	28.42
305.571	27.21
305.786	24.79
306	19.17
306.215	-6.9
306.43	-4.25
306.644	-7.43
306.859	-12.25
307.074	-4.09
307.288	29.11
307.503	31.42
307.717	24.03
307.932	23.69
308.147	9.63
308.361	0.37
308.576	-15.64
308.79	0.92
309.005	-26.37
309.219	1.58
309.434	7.73
309.648	20.01
309.863	31.54
310.077	45.37
310.292	45.95
310.506	19.41
310.72	10.78
310.935	13.29
311.149	11.63
311.364	-6.99
311.578	21.48
311.792	22.36
312.007	-1.29
312.221	2.48
312.435	30.18
312.649	31.56
312.864	32.05
313.078	38.08
313.292	38.08
313.507	41.85
313.721	32.55
313.935	30.36
314.149	16.52
314.363	32.83
314.578	19.83
314.792	-0.09
315.006	-13.08
315.22	9.45
315.434	-8.78
315.648	-12.29
315.862	6.89
316.077	11.6
316.291	9.62
316.505	-2.04
316.719	4.78
316.933	2.92
317.147	11.62
317.361	19.62
317.575	36.03
317.789	40.58
318.003	40.19
318.217	38.96
318.431	37.53
318.645	26.79
318.859	27.21
319.073	20.49
319.287	22.34
319.5	13.62
319.714	13.39
319.928	14.71
320.142	14.26
320.356	10.84
320.57	3.3
320.784	5.78
320.997	-11.67
321.211	17.39
321.425	2.61
321.639	30.3
321.853	33.88
322.066	29.19
322.28	20.04
322.494	27.41
322.707	30.7
322.921	20.59
323.135	33.65
323.349	21.68
323.562	22.96
323.776	9.08
323.989	18.61
324.203	5.01
324.417	7.04
324.63	8.6
324.844	-4.37
325.057	-14.32
325.271	1.74
325.485	-9.48
325.698	4.71
325.912	25.88
326.125	23.47
326.339	28.6
326.552	26.07
326.766	18.73
326.979	21.3
327.193	23.8
327.406	5.8
327.619	25.48
327.833	7.88
328.046	5.04
328.26	10.08
328.473	22.67
328.686	21.64
328.9	29.07
329.113	26.64
329.326	17.55
329.54	26.74
329.753	28.6
329.966	35.9
330.179	33.41
330.393	30.42
330.606	24.33
330.819	3.23
331.032	9.12
331.246	17.16
331.459	38.55
331.672	32.26
331.885	43.06
332.098	41.8
332.311	30.31
332.525	16.97
332.738	13.06
332.951	1.69
333.164	-0.17
333.377	10.6
333.59	8.26
333.803	12.82
334.016	23.86
334.229	19.42
334.442	9.21
334.655	7.78
334.868	2.8
335.081	2.16
335.294	0.42
335.507	19.64
335.72	20.74
335.933	23.98
336.146	32.02
336.359	33.28
336.572	21.81
336.785	21.63
336.997	21.55
337.21	19.57
337.423	0.95
337.636	-5.41
337.849	-12.71
338.062	-1.61
338.274	5.66
338.487	4.63
338.7	0.76
338.913	19.09
339.125	18.1
339.338	1.56
339.551	4.86
339.763	9.73
339.976	4.84
340.189	-7.33
340.402	5.32
340.614	16.72
340.827	13.16
341.039	3.38
341.252	21.84
341.465	8.91
341.677	0.44
341.89	-2.19
342.102	5.57
342.315	-1.18
342.527	5.01
342.74	9.32
342.952	24.54
343.165	25.3
343.377	33.65
343.59	37.88
343.802	20.65
344.015	26.94
344.227	31.65
344.44	19.83
344.652	14.66
344.864	28.39
345.077	35.92
345.289	31.6
345.502	39.61
345.714	42.2
345.926	43.94
346.139	3.75
346.351	6.34
346.563	17.29
346.775	22.42
346.988	10.72
347.2	24.51
347.412	21.26
347.624	13.96
347.837	15.62
348.049	23.32
348.261	8.79
348.473	-2.6
348.685	-3.17
348.897	-13.28
349.11	-17.41
349.322	4.66
349.534	13.88
349.746	4.13
349.958	1.78
350.17	-2.03
350.382	-18.7
350.594	-8.04
350.806	16.31
351.018	15.58
351.23	21.74
351.442	38.57
351.654	29.59
351.866	14.19
352.078	21.61
352.29	21.22
352.502	5.55
352.714	3.73
352.926	3.69
353.138	11.41
353.35	0.79
353.561	8.22
353.773	3.02
353.985	17.72
354.197	4.8
354.409	10.21
354.621	-6.13
354.832	2.68
355.044	-28.16
355.256	-28.5
355.468	-22.9
355.679	5.23
355.891	6.27
356.103	16.19
356.314	7.11
356.526	-5.15
356.738	-24.17
356.949	-23.14
357.161	-5.12
357.373	19.5
357.584	26.93
357.796	33.45
358.008	30.57
358.219	30.27
358.431	12.91
358.642	19.44
358.854	24.79
359.065	21.09
359.277	18.34
359.488	23.62
359.7	12.66
359.911	1.49
360.123	15.45
360.334	-8.88
360.546	-16.03
360.757	-6.88
360.969	8.79
361.18	-9.73
361.391	13.42
361.603	29.06
361.814	15.46
362.025	12.81
362.237	15.63
362.448	20.18
362.659	20.95
362.871	18.86
363.082	3.64
363.293	21.06
363.504	-4.19
363.716	-8.44
363.927	18.05
364.138	23.57
364.349	0.94
364.56	0.71
364.772	9.56
364.983	10.04
365.194	25.35
365.405	21.9
365.616	26.78
365.827	9.36
366.038	1.81
366.25	4.26
366.461	17.59
366.672	20.87
366.883	26.25
367.094	35.41
367.305	14.72
367.516	16.74
367.727	16.45
367.938	19.42
368.149	1.46
368.36	7.41
368.571	-8.76
368.781	-15.02
368.992	-15.78
369.203	-7.34
369.414	-3.5
369.625	8.94
369.836	28.31
370.047	25.72
370.258	34.95
370.468	35.03
370.679	22.93
370.89	13.99
371.101	26.24
371.312	17.52
371.522	9.36
371.733	11.51
371.944	-8.87
372.155	-19.51
372.365	-19.57
372.576	-1.43
372.787	7.79
372.997	21.19
373.208	11.84
373.419	5.45
373.629	-11.05
373.84	-27.87
374.05	-30.51
374.261	-30.05
374.472	-15.88
374.682	-15.35
374.893	-15.03
375.103	2.38
375.314	7.46
375.524	2.3
375.735	8.16
375.945	19.78
376.156	9.96
376.366	10.07
376.577	19.54
376.787	22.05
376.997	30.15
377.208	30.06
377.418	23.16
377.629	17.15
377.839	16.32
378.049	6.09
378.26	-1.48
378.47	-4.98
378.68	2.63
378.89	6.37
379.101	10.4
379.311	9.24
379.521	9.54
379.732	9.09
379.942	5.22
380.152	-1.89
380.362	-0.25
380.572	20.16
380.783	23.41
380.993	23.55
381.203	19
381.413	21.16
381.623	8.88
381.833	4.76
382.043	-0.96
382.253	13.25
382.463	26.26
382.674	27.21
382.884	35.94
383.094	41.89
383.304	36.09
383.514	25.67
383.724	20.86
383.934	3.85
384.144	-1.44
384.353	-1.47
384.563	-1.75
384.773	5.33
384.983	5.3
385.193	4.28
385.403	2.63
385.613	9.55
385.823	9.05
386.033	10.85
386.242	9.31
386.452	15.69
386.662	7.03
386.872	6.19
387.082	6.13
387.291	6.75
387.501	4.52
387.711	7.52
387.921	9.55
388.13	14.41
388.34	16.41
388.55	8.65
388.759	7.17
388.969	3.99
389.179	1.56
389.388	1.96
389.598	2.5
389.807	-1.61
390.017	-0.1
390.227	-4.05
390.436	-4.64
390.646	-2.34
390.855	-0.19
391.065	-3.32
391.274	-0.4
391.484	-2.12
391.693	-2.22
391.903	-1.26
392.112	1.44
392.322	1.11
392.531	3.51
392.74	2.32
392.95	3.49
393.159	2.52
393.369	2.73
393.578	1.8
393.787	2.57
393.997	2.55
394.206	1.34
394.415	1.86
394.625	2.1
394.834	1.33
395.043	0.86
395.252	3.15
395.462	3.11
395.671	2.59
395.88	5.21
396.089	5.08
396.298	4.68
396.508	5.44
396.717	5.35
396.926	4.3
397.135	3.79
397.344	3.19
397.553	3.03
397.762	4.36
397.971	4.04
398.181	3.88
398.39	3.99
398.599	4.31
398.808	3.89
399.017	4.62
399.226	5.18
399.435	5.11
399.644	5.2
399.853	5
400.062	4.56
400.27	4.03
400.479	4.29
400.688	3.89
400.897	3.89
401.106	3.91
401.315	4.02
401.524	3.97
401.733	3.5
401.941	3.8
402.15	3.65
402.359	3.82
402.568	3.95
402.777	4.52
402.985	4.02
403.194	4.01
403.403	4.3
403.612	4.07
403.82	3.6
404.029	3.99
404.238	4.07
404.446	3.96
404.655	4.1
404.864	4.34
405.072	4.24
405.281	4.28
405.489	4.19
405.698	4.16
405.906	4.1
406.115	3.94
406.324	3.97
406.532	3.94
406.741	3.9
406.949	3.95
407.158	3.98
407.366	3.89
407.574	4
407.783	4.05
407.991	4.06
408.2	4.09
408.408	4.13
408.617	4.03
408.825	3.97
409.033	3.9
409.242	3.93
409.45	3.93
409.658	3.86
409.867	3.94
410.075	4.09
410.283	4.13
410.491	4.02
410.7	4
410.908	3.89
411.116	3.87
411.324	3.69
411.533	3.59
411.741	3.58
411.949	3.59
412.157	3.5
412.365	3.67
412.573	3.85
412.781	3.85
412.99	3.83
413.198	3.85
413.406	3.79
413.614	3.86
413.822	3.96
414.03	3.92
414.238	3.91
414.446	3.91
414.654	3.77
414.862	3.65
415.07	3.6
415.278	3.59
415.486	3.53
415.694	3.48
415.902	3.58
416.109	3.54
416.317	3.6
416.525	3.55
416.733	3.53
416.941	3.53
417.149	3.58
417.357	3.38
417.564	3.36
417.772	3.52
417.98	3.36
418.188	3.28
418.395	3.18
418.603	3.09
418.811	2.86
419.019	2.96
419.226	3.13
419.434	3.28
419.642	3.36
419.849	3.44
420.057	3.37
420.265	3.35
420.472	3.27
420.68	3.3
420.887	3.25
421.095	3.32
421.302	3.35
421.51	3.38
421.717	3.37
421.925	3.39
422.132	3.39
422.34	3.05
422.547	2.98
422.755	2.95
422.962	3.03
423.17	2.87
423.377	3.12
423.585	3.36
423.792	3.41
423.999	3.39
424.207	3.5
424.414	3.42
424.621	3.28
424.829	3.27
425.036	3.2
425.243	3.21
425.451	3.33
425.658	3.37
425.865	3.36
426.072	3.26
426.28	3.33
426.487	3.21
426.694	3.15
426.901	3.26
427.108	3.32
427.315	3.21
427.523	3.17
427.73	3.25
427.937	3.02
428.144	3.01
428.351	3.08
428.558	3.28
428.765	3.27
428.972	3.49
429.179	3.44
429.386	3.51
429.593	3.32
429.8	3.31
430.007	3.3
430.214	3.35
430.421	3.44
430.628	3.45
430.835	3.31
431.042	3.25
431.249	3.28
431.456	3.11
431.662	3.32
431.869	3.43
432.076	3.43
432.283	3.55
432.49	3.58
432.697	3.47
432.903	3.47
433.11	3.48
433.317	3.46
433.524	3.52
433.73	3.5
433.937	3.58
434.144	3.5
434.35	3.46
434.557	3.48
434.764	3.6
434.97	3.4
435.177	3.59
435.384	3.61
435.59	3.64
435.797	3.55
436.003	3.72
436.21	3.58
436.416	3.6
436.623	3.54
436.829	3.58
437.036	3.53
437.242	3.69
437.449	3.6
437.655	3.7
437.862	3.68
438.068	3.7
438.275	3.77
438.481	3.91
438.687	3.76
438.894	3.94
439.1	3.86
439.307	3.88
439.513	3.93
439.719	4.03
439.926	3.92
440.132	4.11
440.338	3.94
440.544	3.81
440.751	3.7
440.957	3.73
441.163	3.6
441.369	3.65
441.575	3.65
441.782	3.77
441.988	3.83
442.194	3.81
442.4	3.79
442.606	3.95
442.812	3.9
443.018	3.89
443.224	4.02
443.431	4.07
443.637	3.91
443.843	3.93
444.049	3.94
444.255	3.95
444.461	3.81
444.667	3.82
444.873	3.78
445.079	3.77
445.284	3.77
445.49	3.84
445.696	3.9
445.902	3.97
446.108	3.97
446.314	3.96
446.52	4.09
446.726	4.14
446.931	4.14
447.137	4.11
447.343	4.16
447.549	4.14
447.755	4.16
447.96	4.17
448.166	4.2
448.372	4.19
448.578	4.13
448.783	4.13
448.989	4.14
449.195	4.14
449.4	4.1
449.606	4.14
449.812	4.01
450.017	4.03
450.223	4.05
450.428	4.07
450.634	4.03
450.84	4.06
451.045	4.1
451.251	4.17
451.456	4.19
451.662	4.18
451.867	4.24
452.073	4.25
452.278	4.19
452.483	4.15
452.689	4.21
452.894	4.36
453.1	4.29
453.305	4.34
453.51	4.39
453.716	4.36
453.921	4.27
454.127	4.26
454.332	4.2
454.537	4.19
454.742	4.18
454.948	4.18
455.153	4.25
455.358	4.3
455.563	4.37
455.769	4.37
455.974	4.32
456.179	4.27
456.384	4.13
456.589	4.06
456.795	4.07
457	4.12
457.205	4.13
457.41	4.21
457.615	4.22
457.82	4.3
458.025	4.24
458.23	4.25
458.435	4.28
458.64	4.25
458.845	4.21
459.05	4.24
459.255	4.25
459.46	4.19
459.665	4.13
459.87	4.15
460.075	4.21
460.28	4.28
460.485	4.35
460.69	4.4
460.895	4.45
461.099	4.33
461.304	4.27
461.509	4.3
461.714	4.4
461.919	4.27
462.123	4.36
462.328	4.21
462.533	4.09
462.738	3.95
462.942	4
463.147	4.02
463.352	4.2
463.556	4.29
463.761	4.38
463.966	4.38
464.17	4.35
464.375	4.32
464.58	4.33
464.784	4.37
464.989	4.44
465.193	4.46
465.398	4.54
465.602	4.62
465.807	4.69
466.011	4.68
466.216	4.62
466.42	4.64
466.625	4.7
466.829	4.58
467.034	4.56
467.238	4.7
467.443	4.71
467.647	4.61
467.851	4.62
468.056	4.71
468.26	4.65
468.464	4.67
468.669	4.72
468.873	4.75
469.077	4.66
469.282	4.68
469.486	4.57
469.69	4.63
469.894	4.57
470.099	4.61
470.303	4.54
470.507	4.68
470.711	4.63
470.915	4.78
471.119	4.85
471.324	4.92
471.528	4.91
471.732	4.94
471.936	4.89
472.14	4.89
472.344	5.08
472.548	5.07
472.752	4.92
472.956	4.97
473.16	4.89
473.364	4.71
473.568	4.63
473.772	4.72
473.976	4.72
474.18	4.74
474.384	4.74
474.588	4.87
474.792	4.88
474.995	4.8
475.199	4.8
475.403	4.85
475.607	4.86
475.811	4.97
476.015	4.99
476.218	4.98
476.422	5.09
476.626	5.1
476.83	5.15
477.033	5.22
477.237	5.21
477.441	5.11
477.644	5.08
477.848	5
478.052	4.94
478.255	5
478.459	5.06
478.663	5.2
478.866	5.15
479.07	5.18
479.273	5.28
479.477	5.26
479.681	5.17
479.884	5.23
480.088	5.2
480.291	5.15
480.495	5.13
480.698	5.1
480.901	5.11
481.105	5.16
481.308	5.23
481.512	5.28
481.715	5.34
481.919	5.38
482.122	5.38
482.325	5.39
482.529	5.4
482.732	5.37
482.935	5.32
483.138	5.35
483.342	5.33
483.545	5.47
483.748	5.5
483.952	5.58
484.155	5.65
484.358	5.6
484.561	5.5
484.764	5.48
484.967	5.43
485.171	5.38
485.374	5.37
485.577	5.35
485.78	5.33
485.983	5.37
486.186	5.34
486.389	5.39
486.592	5.35
486.795	5.44
486.998	5.41
487.201	5.45
487.404	5.48
487.607	5.49
487.81	5.41
488.013	5.45
488.216	5.45
488.419	5.39
488.622	5.4
488.825	5.44
489.028	5.42
489.231	5.39
489.433	5.41
489.636	5.42
489.839	5.45
490.042	5.44
490.245	5.42
490.447	5.43
490.65	5.44
490.853	5.4
491.056	5.45
491.258	5.52
491.461	5.45
491.664	5.47
491.866	5.48
492.069	5.46
492.272	5.39
492.474	5.49
492.677	5.5
492.879	5.5
493.082	5.5
493.285	5.58
493.487	5.63
493.69	5.62
493.892	5.62
494.095	5.68
494.297	5.71
494.5	5.71
494.702	5.7
494.905	5.78
495.107	5.72
495.309	5.67
495.512	5.62
495.714	5.68
495.917	5.7
496.119	5.78
496.321	5.75
496.524	5.76
496.726	5.74
496.928	5.72
497.13	5.69
497.333	5.75
497.535	5.79
497.737	5.79
497.939	5.74
498.142	5.76
498.344	5.8
498.546	5.82
498.748	5.88
498.95	5.99
499.152	6.04
499.355	6.01
499.557	6.01
499.759	6.09
499.961	6.07
500.163	6.08
500.365	6.16
500.567	6.18
500.769	6.14
500.971	6.14
501.173	6.09
501.375	6.11
501.577	6.07
501.779	6.05
501.981	6.09
502.183	6.17
502.385	6.17
502.587	6.25
502.788	6.23
502.99	6.26
503.192	6.34
503.394	6.35
503.596	6.37
503.798	6.38
503.999	6.38
504.201	6.33
504.403	6.36
504.605	6.39
504.806	6.52
505.008	6.54
505.21	6.52
505.411	6.58
505.613	6.6
505.815	6.58
506.016	6.62
506.218	6.66
506.42	6.61
506.621	6.68
506.823	6.65
507.024	6.59
507.226	6.62
507.427	6.64
507.629	6.59
507.83	6.6
508.032	6.63
508.233	6.65
508.435	6.7
508.636	6.75
508.838	6.79
509.039	6.83
509.24	6.88
509.442	6.87
509.643	6.82
509.845	6.83
510.046	6.89
510.247	6.91
510.448	6.92
510.65	6.93
510.851	6.96
511.052	6.91
511.254	6.97
511.455	6.96
511.656	6.99
511.857	6.97
512.058	7.02
512.26	6.94
512.461	6.98
512.662	7
512.863	6.95
513.064	6.96
513.265	6.98
513.466	6.95
513.667	6.99
513.868	7.01
514.069	6.97
514.27	7.02
514.471	6.98
514.672	6.98
514.873	7.05
515.074	7.01
515.275	6.94
515.476	7.03
515.677	7.05
515.878	7.05
516.079	7.12
516.28	7.14
516.481	7.16
516.682	7.13
516.882	7.1
517.083	7.07
517.284	7.09
517.485	7.08
517.686	7.14
517.886	7.18
518.087	7.15
518.288	7.21
518.488	7.17
518.689	7.13
518.89	7.15
519.091	7.27
519.291	7.26
519.492	7.27
519.692	7.27
519.893	7.24
520.094	7.14
520.294	7.16
520.495	7.18
520.695	7.25
520.896	7.25
521.096	7.34
521.297	7.31
521.497	7.34
521.698	7.33
521.898	7.38
522.099	7.39
522.299	7.37
522.499	7.36
522.7	7.42
522.9	7.41
523.101	7.4
523.301	7.47
523.501	7.49
523.702	7.47
523.902	7.45
524.102	7.57
524.302	7.59
524.503	7.59
524.703	7.58
524.903	7.6
525.103	7.5
525.304	7.46
525.504	7.52
525.704	7.56
525.904	7.59
526.104	7.62
526.304	7.66
526.504	7.67
526.705	7.65
526.905	7.67
527.105	7.66
527.305	7.65
527.505	7.58
527.705	7.58
527.905	7.62
528.105	7.63
528.305	7.65
528.505	7.69
528.705	7.78
528.905	7.81
529.105	7.88
529.304	7.91
529.504	8
529.704	7.96
529.904	7.91
530.104	7.88
530.304	7.86
530.503	7.86
530.703	7.88
530.903	7.94
531.103	8
531.303	8.05
531.502	8.1
531.702	8.16
531.902	8.2
532.101	8.17
532.301	8.18
532.501	8.24
532.7	8.25
532.9	8.25
533.1	8.3
533.299	8.28
533.499	8.23
533.698	8.2
533.898	8.25
534.097	8.27
534.297	8.33
534.496	8.34
534.696	8.4
534.895	8.42
535.095	8.45
535.294	8.52
535.494	8.56
535.693	8.59
535.892	8.58
536.092	8.59
536.291	8.6
536.491	8.58
536.69	8.57
536.889	8.55
537.088	8.58
537.288	8.56
537.487	8.6
537.686	8.64
537.886	8.71
538.085	8.75
538.284	8.79
538.483	8.83
538.682	8.89
538.882	8.87
539.081	8.87
539.28	8.84
539.479	8.85
539.678	8.87
539.877	8.96
540.076	9
540.275	9.06
540.474	9.12
540.673	9.13
540.872	9.11
541.071	9.17
541.27	9.22
541.469	9.17
541.668	9.23
541.867	9.26
542.066	9.29
542.265	9.34
542.464	9.4
542.663	9.45
542.862	9.62
543.06	9.7
543.259	9.79
543.458	9.9
543.657	9.95
543.856	9.92
544.054	9.93
544.253	9.92
544.452	9.97
544.651	9.96
544.849	9.93
545.048	10
545.247	10.07
545.445	10.07
545.644	10.11
545.843	10.18
546.041	10.19
546.24	10.21
546.438	10.27
546.637	10.3
546.836	10.38
547.034	10.48
547.233	10.58
547.431	10.65
547.63	10.73
547.828	10.72
548.027	10.75
548.225	10.75
548.423	10.8
548.622	10.83
548.82	10.93
549.019	10.95
549.217	11.01
549.415	11.05
549.614	11.22
549.812	11.29
550.01	11.34
550.209	11.45
550.407	11.48
550.605	11.43
550.803	11.49
551.002	11.66
551.2	11.63
551.398	11.77
551.596	11.96
551.794	12.01
551.993	12
552.191	12.17
552.389	12.22
552.587	12.25
552.785	12.31
552.983	12.41
553.181	12.4
553.379	12.48
553.577	12.54
553.775	12.69
553.973	12.78
554.171	12.92
554.369	13.03
554.567	13.15
554.765	13.21
554.963	13.22
555.161	13.27
555.359	13.31
555.557	13.34
555.755	13.43
555.952	13.6
556.15	13.73
556.348	13.8
556.546	13.93
556.744	14.03
556.941	14.02
557.139	14.12
557.337	14.24
557.535	14.33
557.732	14.4
557.93	14.54
558.128	14.66
558.325	14.7
558.523	14.79
558.721	14.95
558.918	15.12
559.116	15.21
559.313	15.36
559.511	15.46
559.708	15.51
559.906	15.59
560.104	15.69
560.301	15.81
560.498	15.91
560.696	16.04
560.893	16.17
561.091	16.24
561.288	16.37
561.486	16.5
561.683	16.59
561.88	16.64
562.078	16.79
562.275	16.84
562.473	16.93
562.67	17.02
562.867	17.12
563.064	17.21
563.262	17.3
563.459	17.37
563.656	17.44
563.853	17.52
564.051	17.63
564.248	17.75
564.445	17.9
564.642	18.06
564.839	18.14
565.036	18.18
565.234	18.29
565.431	18.36
565.628	18.41
565.825	18.5
566.022	18.65
566.219	18.73
566.416	18.81
566.613	18.92
566.81	19.06
567.007	19.07
567.204	19.1
567.401	19.14
567.598	19.19
567.795	19.15
567.991	19.24
568.188	19.22
568.385	19.28
568.582	19.34
568.779	19.5
568.976	19.58
569.172	19.75
569.369	19.85
569.566	19.91
569.763	19.75
569.96	19.79
570.156	19.84
570.353	19.8
570.55	19.86
570.746	20.03
570.943	20.12
571.14	20.19
571.336	20.21
571.533	20.23
571.729	20.29
571.926	20.28
572.123	20.24
572.319	20.34
572.516	20.42
572.712	20.45
572.909	20.4
573.105	20.51
573.302	20.48
573.498	20.44
573.695	20.44
573.891	20.53
574.087	20.41
574.284	20.47
574.48	20.65
574.677	20.64
574.873	20.66
575.069	20.81
575.266	20.93
575.462	20.78
575.658	20.81
575.854	20.82
576.051	20.71
576.247	20.62
576.443	20.61
576.639	20.62
576.835	20.62
577.032	20.65
577.228	20.72
577.424	20.69
577.62	20.65
577.816	20.58
578.012	20.63
578.208	20.51
578.404	20.57
578.6	20.66
578.796	20.8
578.993	20.79
579.189	20.79
579.384	20.78
579.58	20.72
579.776	20.66
579.972	20.59
580.168	20.61
580.364	20.61
580.56	20.52
580.756	20.48
580.952	20.52
581.148	20.53
581.343	20.47
581.539	20.56
581.735	20.47
581.931	20.36
582.127	20.35
582.322	20.29
582.518	20.2
582.714	20.22
582.909	20.22
583.105	20.14
583.301	20.18
583.496	20.11
583.692	20
583.888	19.99
584.083	20.02
584.279	19.87
584.474	19.84
584.67	19.92
584.866	19.94
585.061	19.81
585.257	19.94
585.452	19.93
585.648	19.82
585.843	19.8
586.039	19.92
586.234	19.83
586.429	19.83
586.625	19.91
586.82	19.99
587.015	19.9
587.211	19.92
587.406	19.94
587.601	19.91
587.797	19.82
587.992	19.82
588.187	19.9
588.383	19.96
588.578	19.99
588.773	20.02
588.968	20.06
589.163	20.07
589.359	20.01
589.554	19.94
589.749	19.96
589.944	19.95
590.139	19.85
590.334	19.89
590.529	19.97
590.724	20.04
590.919	20.09
591.114	20.16
591.309	20.17
591.504	20.16
591.699	20.11
591.894	20.1
592.089	20.14
592.284	20.14
592.479	20.18
592.674	20.25
592.869	20.27
593.064	20.27
593.259	20.4
593.454	20.51
593.648	20.48
593.843	20.53
594.038	20.61
594.233	20.6
594.428	20.62
594.622	20.78
594.817	20.93
595.012	20.96
595.206	20.99
595.401	21.02
595.596	21.04
595.79	21.03
595.985	21.06
596.18	21.19
596.374	21.27
596.569	21.32
596.763	21.44
596.958	21.61
597.153	21.67
597.347	21.71
597.542	21.76
597.736	21.76
597.931	21.78
598.125	21.8
598.319	21.89
598.514	21.94
598.708	22.03
598.903	22.12
599.097	22.28
599.291	22.38
599.486	22.46
599.68	22.49
599.874	22.51
600.069	22.46
600.263	22.51
600.457	22.67
600.651	22.71
600.846	22.76
601.04	22.87
601.234	22.86
601.428	22.8
601.622	22.87
601.817	22.9
602.011	22.85
602.205	22.83
602.399	22.77
602.593	22.8
602.787	22.76
602.981	22.79
603.175	22.86
603.369	22.88
603.563	22.86
603.757	22.9
603.951	22.89
604.145	22.92
604.339	22.94
604.533	22.86
604.727	22.83
604.921	22.84
605.115	22.74
605.309	22.69
605.502	22.71
605.696	22.71
605.89	22.66
606.084	22.61
606.278	22.58
606.471	22.55
606.665	22.47
606.859	22.42
607.053	22.37
607.246	22.32
607.44	22.18
607.634	22.11
607.827	22
608.021	21.88
608.214	21.8
608.408	21.78
608.602	21.65
608.795	21.74
608.989	21.8
609.182	21.76
609.376	21.77
609.569	21.82
609.763	21.72
609.956	21.66
610.15	21.62
610.343	21.56
610.537	21.49
610.73	21.31
610.923	21.22
611.117	21.18
611.31	21.05
611.504	20.93
611.697	20.92
611.89	20.84
612.083	20.69
612.277	20.65
612.47	20.56
612.663	20.45
612.856	20.35
613.05	20.33
613.243	20.17
613.436	20.15
613.629	20.12
613.822	20.11
614.015	19.99
614.209	19.94
614.402	19.8
614.595	19.78
614.788	19.66
614.981	19.6
615.174	19.52
615.367	19.45
615.56	19.25
615.753	19.17
615.946	19.1
616.139	19.02
616.332	18.96
616.525	18.97
616.718	18.93
616.911	18.91
617.103	18.9
617.296	18.86
617.489	18.77
617.682	18.75
617.875	18.72
618.067	18.72
618.26	18.67
618.453	18.7
618.646	18.66
618.838	18.54
619.031	18.47
619.224	18.44
619.417	18.41
619.609	18.31
619.802	18.29
619.994	18.27
620.187	18.21
620.38	18.16
620.572	18.15
620.765	18.14
620.957	18.08
621.15	18.08
621.342	17.94
621.535	17.93
621.727	17.85
621.92	17.8
622.112	17.72
622.305	17.78
622.497	17.69
622.69	17.71
622.882	17.71
623.074	17.79
623.267	17.75
623.459	17.71
623.651	17.63
623.844	17.67
624.036	17.68
624.228	17.72
624.42	17.72
624.613	17.85
624.805	17.75
624.997	17.63
625.189	17.64
625.381	17.59
625.574	17.39
625.766	17.26
625.958	17.33
626.15	17.21
626.342	17.18
626.534	17.19
626.726	17.23
626.918	17.04
627.11	17
627.302	17
627.494	17.05
627.686	17.06
627.878	17.11
628.07	17.14
628.262	17.11
628.454	17.03
628.646	16.99
628.838	17.04
629.029	16.98
629.221	16.9
629.413	16.83
629.605	16.73
629.797	16.67
629.989	16.63
630.18	16.71
630.372	16.74
630.564	16.69
630.755	16.61
630.947	16.61
631.139	16.47
631.33	16.35
631.522	16.34
631.714	16.24
631.905	16.19
632.097	16.11
632.289	16.16
632.48	16.15
632.672	16.12
632.863	16
633.055	16.03
633.246	15.97
633.438	15.98
633.629	16.02
633.821	16.02
634.012	16.01
634.203	15.99
634.395	15.96
634.586	15.93
634.777	15.93
634.969	15.98
635.16	15.97
635.351	15.83
635.543	15.68
635.734	15.58
635.925	15.54
636.117	15.54
636.308	15.63
636.499	15.68
636.69	15.69
636.881	15.62
637.073	15.59
637.264	15.56
637.455	15.55
637.646	15.58
637.837	15.52
638.028	15.35
638.219	15.39
638.41	15.38
638.601	15.33
638.792	15.29
638.983	15.34
639.174	15.23
639.365	15.25
639.556	15.17
639.747	15.19
639.938	15.25
640.129	15.25
640.32	15.23
640.511	15.26
640.701	15.23
640.892	15.16
641.083	15.08
641.274	15.01
641.465	15.01
641.655	14.94
641.846	14.9
642.037	14.95
642.228	14.82
642.418	14.68
642.609	14.69
642.8	14.66
642.99	14.57
643.181	14.58
643.372	14.63
643.562	14.6
643.753	14.56
643.943	14.49
644.134	14.45
644.324	14.47
644.515	14.44
644.705	14.4
644.896	14.5
645.086	14.47
645.277	14.4
645.467	14.34
645.658	14.27
645.848	14.22
646.038	14.25
646.229	14.21
646.419	14.13
646.61	14.21
646.8	14.16
646.99	14.17
647.18	14.03
647.371	14.1
647.561	14.01
647.751	13.94
647.941	13.84
648.132	13.87
648.322	13.79
648.512	13.86
648.702	13.88
648.892	13.92
649.082	14
649.272	13.99
649.462	13.93
649.653	13.88
649.843	13.86
650.033	13.77
650.223	13.74
650.413	13.79
650.603	13.85
650.793	13.86
650.983	13.93
651.172	13.97
651.362	13.82
651.552	13.72
651.742	13.59
651.932	13.42
652.122	13.4
652.312	13.36
652.502	13.28
652.691	13.26
652.881	13.38
653.071	13.31
653.261	13.29
653.45	13.27
653.64	13.21
653.83	13.05
654.019	12.91
654.209	12.86
654.399	12.76
654.588	12.71
654.778	12.55
654.968	12.44
655.157	12.34
655.347	12.19
655.536	12.04
655.726	11.94
655.915	11.9
656.105	11.77
656.294	11.68
656.484	11.53
656.673	11.45
656.863	11.39
657.052	11.3
657.241	11.18
657.431	11.13
657.62	11
657.809	10.72
657.999	10.62
658.188	10.59
658.377	10.42
658.567	10.4
658.756	10.35
658.945	10.19
659.134	10.01
659.324	9.87
659.513	9.71
659.702	9.51
659.891	9.4
660.08	9.31
660.269	9.19
660.458	9.01
660.648	8.88
660.837	8.74
661.026	8.55
661.215	8.4
661.404	8.34
661.593	8.31
661.782	8.21
661.971	8.04
662.16	8
662.349	7.81
662.538	7.63
662.726	7.58
662.915	7.65
663.104	7.5
663.293	7.46
663.482	7.44
663.671	7.28
663.86	7.13
664.048	7.11
664.237	7.11
664.426	7.05
664.615	7.02
664.803	6.86
664.992	6.69
665.181	6.61
665.369	6.51
665.558	6.46
665.747	6.45
665.935	6.53
666.124	6.52
666.312	6.53
666.501	6.51
666.69	6.63
666.878	6.49
667.067	6.33
667.255	6.32
667.444	6.33
667.632	6.2
667.82	6.27
668.009	6.3
668.197	6.28
668.386	6.19
668.574	6.25
668.762	6.18
668.951	6.17
669.139	6.22
669.327	6.27
669.516	6.24
669.704	6.32
669.892	6.35
670.08	6.29
670.269	6.39
670.457	6.46
670.645	6.39
670.833	6.46
671.021	6.53
671.21	6.47
671.398	6.39
671.586	6.47
671.774	6.52
671.962	6.53
672.15	6.61
672.338	6.72
672.526	6.72
672.714	6.71
672.902	6.71
673.09	6.78
673.278	6.87
673.466	7.01
673.654	7.11
673.842	7.21
674.03	7.2
674.218	7.22
674.405	7.16
674.593	7.17
674.781	7.18
674.969	7.23
675.157	7.33
675.344	7.4
675.532	7.38
675.72	7.42
675.908	7.5
676.095	7.48
676.283	7.59
676.471	7.8
676.658	7.92
676.846	7.9
677.033	7.95
677.221	7.96
677.409	7.85
677.596	7.88
677.784	8.02
677.971	8.12
678.159	8.28
678.346	8.41
678.534	8.47
678.721	8.54
678.909	8.67
679.096	8.65
679.283	8.74
679.471	8.84
679.658	8.9
679.846	8.82
680.033	9.12
680.22	9.29
680.408	9.29
680.595	9.42
680.782	9.61
680.969	9.64
681.157	9.68
681.344	9.82
681.531	9.93
681.718	9.97
681.905	10.05
682.093	10.18
682.28	10.43
682.467	10.61
682.654	10.79
682.841	10.97
683.028	11.11
683.215	11.27
683.402	11.26
683.589	11.44
683.776	11.46
683.963	11.6
684.15	11.7
684.337	11.93
684.524	12.16
684.711	12.36
684.898	12.52
685.085	12.59
685.271	12.92
685.458	13.07
685.645	13.27
685.832	13.6
686.019	13.95
686.205	14.19
686.392	14.58
686.579	14.99
686.766	15.27
686.952	15.6
687.139	15.89
687.326	16.09
687.512	16.29
687.699	16.67
687.886	16.92
688.072	17.19
688.259	17.67
688.445	18.31
688.632	18.7
688.818	19.29
689.005	19.72
689.191	20.1
689.378	20.4
689.564	20.85
689.751	21.29
689.937	22.09
690.124	22.52
690.31	22.87
690.496	23.3
690.683	23.8
690.869	24.13
691.055	24.65
691.242	25.4
691.428	26.09
691.614	26.67
691.8	27.18
691.987	27.89
692.173	28.56
692.359	29.33
692.545	30.13
692.731	30.83
692.918	31.58
693.104	32.21
693.29	32.63
693.476	33.26
693.662	34.02
693.848	34.64
694.034	35.28
694.22	36.15
694.406	36.75
694.592	37.35
694.778	37.93
694.964	38.67
695.15	39.4
695.336	40.17
695.522	40.9
695.708	41.55
695.894	42.15
696.08	42.85
696.265	43.58
696.451	44.22
696.637	45.27
696.823	45.85
697.009	46.19
697.194	46.83
697.38	47.66
697.566	48.02
697.751	48.83
697.937	49.81
698.123	50.41
698.308	51.02
698.494	51.93
698.68	52.73
698.865	53.52
699.051	54.26
699.236	54.77
699.422	55.27
699.607	55.55
699.793	56.11
699.978	56.33
700.164	57.03
700.349	57.74
700.535	58.43
700.72	58.68
700.906	59.61
701.091	60.38
701.276	60.66
701.462	61.47
701.647	62.05
701.832	62.55
702.018	63.27
702.203	64.02
702.388	64.25
702.573	64.96
702.759	65.38
702.944	65.33
703.129	65.72
703.314	66.25
703.499	66.5
703.684	67.01
703.87	67.58
704.055	68.29
704.24	69
704.425	69.8
704.61	70.33
704.795	70.59
704.98	70.49
705.165	70.94
705.35	71.34
705.535	71.62
705.72	72.27
705.905	72.77
706.09	73.03
706.275	73.44
706.459	74.2
706.644	74.45
706.829	74.98
707.014	75.42
707.199	75.91
707.384	76.28
707.568	76.77
707.753	77.6
707.938	77.8
708.123	77.8
708.307	78.03
708.492	78.52
708.677	78.27
708.861	78.55
709.046	78.59
709.231	78.45
709.415	78.6
709.6	79.1
709.784	79.4
709.969	80.53
710.153	80.96
710.338	81.59
710.522	81.98
710.707	82.21
710.891	81.82
711.076	82.1
711.26	82.42
711.445	82.36
711.629	82.65
711.813	83.22
711.998	83.69
712.182	83.21
712.366	83.88
712.551	84.51
712.735	84.2
712.919	84.71
713.103	85.61
713.288	85.62
713.472	85.93
713.656	86.16
713.84	86.36
714.024	86.15
714.208	86.41
714.393	86.36
714.577	86.88
714.761	86.89
714.945	86.7
715.129	86.86
715.313	87.25
715.497	87.49
715.681	87.35
715.865	87.74
716.049	87.64
716.233	87.1
716.417	87.38
716.601	87.66
716.785	88.03
716.968	88.57
717.152	89.42
717.336	89.62
717.52	90.16
717.704	90.35
717.888	90.52
718.071	90.31
718.255	90.72
718.439	90.32
718.622	90.63
718.806	90.27
718.99	90.26
719.174	90.31
719.357	90.61
719.541	90.55
719.724	91.17
719.908	91.75
720.092	90.96
720.275	90.91
720.459	90.9
720.642	90.96
720.826	90.93
721.009	91.3
721.193	91.27
721.376	92.07
721.559	92.47
721.743	92.79
721.926	93.33
722.11	94.29
722.293	94.54
722.476	93.88
722.66	94.13
722.843	94.14
723.026	94.16
723.21	93.56
723.393	94.06
723.576	94.17
723.759	94.68
723.942	94.66
724.126	95.18
724.309	94.91
724.492	94.72
724.675	94.18
724.858	94.44
725.041	94.24
725.224	95.04
725.407	94.89
725.59	95.13
725.774	94.58
725.957	95.08
726.14	94.85
726.322	95.22
726.505	95.57
726.688	96.06
726.871	95.69
727.054	95.98
727.237	96.19
727.42	96.19
727.603	96.09
727.786	96.16
727.968	96.43
728.151	96.37
728.334	96.41
728.517	96.22
728.699	96.29
728.882	96.26
729.065	95.64
729.248	95.7
729.43	96.2
729.613	96.44
729.796	96.78
729.978	97.41
730.161	97.75
730.343	97.26
730.526	96.84
730.708	96.19
730.891	96.06
731.073	95.85
731.256	96.46
731.438	97.58
731.621	97.96
731.803	98.42
731.986	98.88
732.168	99.3
732.35	99.18
732.533	98.84
732.715	98.73
732.898	98.34
733.08	98.03
733.262	97.3
733.444	97.76
733.627	97.97
733.809	98.46
733.991	98.55
734.173	98.86
734.355	98.87
734.538	98.82
734.72	98.91
734.902	99.77
735.084	99.99
735.266	100.3
735.448	100.64
735.63	100.95
735.812	100.41
735.994	100.44
736.176	100.57
736.358	101.22
736.54	101.52
736.722	101.51
736.904	101.54
737.086	101.33
737.268	101.53
737.45	101.46
737.632	101.06
737.814	101.68
737.995	101.92
738.177	100.75
738.359	100.45
738.541	100.67
738.723	100.43
738.904	101.14
739.086	101.92
739.268	101.87
739.449	101.36
739.631	101.44
739.813	100.68
739.994	99.62
740.176	100.37
740.358	101.56
740.539	101.62
740.721	101.68
740.902	102.28
741.084	102.25
741.265	102.79
741.447	103.33
741.628	103.42
741.81	103.61
741.991	103.06
742.172	101.89
742.354	101.39
742.535	101.09
742.717	100.38
742.898	101
743.079	102.06
743.261	101.64
743.442	100.79
743.623	102.24
743.804	101.83
743.986	100.83
744.167	100.36
744.348	101.81
744.529	100.36
744.71	100
744.891	99.68
745.073	101.31
745.254	100.41
745.435	100.41
745.616	99.74
745.797	100.05
745.978	99.28
746.159	99.64
746.34	101.79
746.521	102.69
746.702	103.15
746.883	102.63
747.064	102.2
747.245	101.68
747.426	101.91
747.606	101.48
747.787	103.02
747.968	104.06
748.149	103.16
748.33	101.69
748.51	102.17
748.691	101.78
748.872	103.18
749.053	102.42
749.233	103.31
749.414	102.98
749.595	102.03
749.775	100.21
749.956	101.5
750.137	100.92
750.317	100.64
750.498	100.81
750.678	100.92
750.859	101.14
751.04	102
751.22	100.99
751.4	101.13
751.581	101.74
751.761	100.69
751.942	100.1
752.122	99.94
752.303	99.78
752.483	98.49
752.663	99.3
752.844	100.06
753.024	102.73
753.204	103.01
753.385	103.64
753.565	103.22
753.745	101.9
753.925	100.08
754.106	100.78
754.286	99.82
754.466	100.03
754.646	99.76
754.826	101.17
755.006	99.2
755.187	100.4
755.367	99.07
755.547	100.01
755.727	99.05
755.907	99.54
756.087	98.47
756.267	98.23
756.447	98.26
756.627	99.12
756.807	99.58
756.987	101.2
757.167	102.35
757.346	101.53
757.526	100.66
757.706	100.19
757.886	98.96
758.066	99.29
758.246	99.28
758.425	98.72
758.605	98.29
758.785	99.18
758.965	99.13
759.144	97.56
759.324	98.11
759.504	99.63
759.683	97.72
759.863	97.59
760.043	99.81
760.222	99.49
760.402	97.67
760.581	99.07
760.761	97.98
760.94	96.93
761.12	97.06
761.299	99
761.479	98.81
761.658	99.07
761.838	100.51
762.017	101.46
762.197	100.65
762.376	100.95
762.555	102.16
762.735	99.87
762.914	98.13
763.093	96.57
763.273	95.06
763.452	92.47
763.631	92.45
763.81	92.99
763.99	93.75
764.169	93.8
764.348	94.09
764.527	95.36
764.706	95.43
764.885	96.97
765.064	98.09
765.243	99.12
765.423	99.88
765.602	99.82
765.781	98.12
765.96	97.84
766.139	98.24
766.318	99.05
766.497	98.61
766.676	97.14
766.854	97.07
767.033	98.15
767.212	98.8
767.391	99.96
767.57	103.22
767.749	102.32
767.928	102.49
768.106	99.51
768.285	97.93
768.464	97.13
768.643	97.14
768.821	95.24
769	95.68
769.179	95.61
769.357	94.39
769.536	94.09
769.715	93.62
769.893	93.81
770.072	93.07
770.25	92.42
770.429	93.02
770.607	92.93
770.786	93.01
770.964	94.44
771.143	96.54
771.321	95.35
771.5	97.61
771.678	97
771.857	94.28
772.035	93.26
772.213	94.4
772.392	90.4
772.57	90.21
772.748	90.89
772.927	91.12
773.105	92.88
773.283	93.64
773.461	96.69
773.64	99.42
773.818	99.29
773.996	96.93
774.174	97.5
774.352	94.79
774.531	93.99
774.709	94.21
774.887	94.2
775.065	94.59
775.243	95.22
775.421	94.15
775.599	94.63
775.777	94.29
775.955	94.02
776.133	92.8
776.311	93.27
776.489	91.72
776.667	91.92
776.844	92.82
777.022	92.07
777.2	90.9
777.378	89.86
777.556	92.62
777.734	93.47
777.911	97.07
778.089	100.68
778.267	102.11
778.445	102.08
778.622	100.06
778.8	94.57
778.978	93.29
779.155	95.8
779.333	93.68
779.511	93.5
779.688	97.06
779.866	95.5
780.043	92.76
780.221	94.34
780.398	94.71
780.576	93.09
780.753	91.74
780.931	93.06
781.108	93.12
781.286	92.96
781.463	93.92
781.64	96.99
781.818	97.26
781.995	96.19
782.172	95.59
782.35	96.78
782.527	94.83
782.704	92.61
782.882	88.6
783.059	88.95
783.236	88.45
783.413	90.2
783.59	92.26
783.768	93.95
783.945	93.09
784.122	92.73
784.299	90.92
784.476	88.06
784.653	88.96
784.83	87.05
785.007	85.16
785.184	85.17
785.361	87.07
785.538	86.25
785.715	89.95
785.892	91.41
786.069	95.42
786.246	92.44
786.423	93.22
786.6	90.86
786.776	92.15
786.953	86.67
787.13	90.29
787.307	89.64
787.484	88.49
787.66	85.67
787.837	86.66
788.014	85.37
788.191	84.14
788.367	84.83
788.544	84.61
788.721	86.07
788.897	83.98
789.074	84.81
789.25	83.87
789.427	84.34
789.603	80.95
789.78	83.73
789.956	81.65
790.133	83.24
790.309	81.76
790.486	83.05
790.662	82.61
790.839	84.87
791.015	85.53
791.192	84.61
791.368	84.88
791.544	84.86
791.721	85.23
791.897	84.61
792.073	86.83
792.249	89.56
792.426	88.67
792.602	89.76
792.778	87.75
792.954	88.12
793.13	84.51
793.307	84.91
793.483	81.95
793.659	83.86
793.835	86.59
794.011	90.54
794.187	91.74
794.363	92.91
794.539	94.52
794.715	92.91
794.891	92.67
795.067	94.69
795.243	93.24
795.419	91.31
795.595	91.82
795.771	90.51
795.947	86.89
796.122	82.83
796.298	82.17
796.474	87.15
796.65	85.94
796.826	84.41
797.001	87.12
797.177	81.56
797.353	74.94
797.529	76.92
797.704	77.43
797.88	78.34
798.056	82.27
798.231	80.78
798.407	83.85
798.582	81.3
798.758	82.11
798.934	86.05
799.109	86.85
799.285	80.52
799.46	84.1
799.636	86.49
799.811	83.77
799.986	87.8
800.162	86.22
800.337	89.51
800.513	89.36
800.688	88.6
800.863	94.04
801.039	97.44
801.214	93.56
801.389	90.3
801.565	88.2
801.74	82.91
801.915	78.77
802.09	73.49
802.265	75.66
802.441	81.35
802.616	81.17
802.791	81.71
802.966	91.16
803.141	90.58
803.316	87.27
803.491	80.79
803.666	82.09
803.841	77.32
804.016	75.52
804.191	75.21
804.366	78.06
804.541	84.61
804.716	78.61
804.891	76.35
805.066	80.03
805.241	78.7
805.416	80.37
805.591	86.47
805.765	94.45
805.94	94.44
806.115	96.98
806.29	89.19
806.464	87.41
806.639	89.67
806.814	90.88
806.989	92.51
807.163	92.98
807.338	94.17
807.512	84.15
807.687	82.63
807.862	88.66
808.036	97.35
808.211	94.08
808.385	101.22
808.56	97.45
808.734	77.48
808.909	72.17
809.083	79.21
809.258	84.6
809.432	86.39
809.606	103.05
809.781	104.35
809.955	100.55
810.13	90.9
810.304	90.19
810.478	87.89
810.652	77.78
810.827	76.2
811.001	77.23
811.175	77.27
811.349	77.66
811.524	87.79
811.698	83.72
811.872	79.37
812.046	73.71
812.22	72.11
812.394	64.77
812.568	68.94
812.742	72.19
812.916	82.81
813.09	82.36
813.264	77.8
813.438	74.59
813.612	66.52
813.786	58.13
813.96	60.8
814.134	69.63
814.308	73.2
814.482	80.27
814.656	80.22
814.83	82.46
815.003	82.79
815.177	83.84
815.351	91.71
815.525	99.58
815.698	91.44
815.872	79.48
816.046	74.03
816.219	69.08
816.393	61.38
816.567	58.42
816.74	68.93
816.914	73.73
817.088	75.7
817.261	81.69
817.435	92.81
817.608	84.22
817.782	74.53
817.955	70.34
818.129	64.56
818.302	69.75
818.475	71.99
818.649	76.3
818.822	80.12
818.996	95.08
819.169	88.58
819.342	87.53
819.516	91.55
819.689	89.38
819.862	76.6
820.035	85.3
820.209	84.73
820.382	80.82
820.555	74.22
820.728	78.63
820.901	63.29
821.075	67.45
821.248	83.67
821.421	87.92
821.594	84.43
821.767	93.27
821.94	79.74
822.113	72.95
822.286	76.96
822.459	78.3
822.632	72.53
822.805	86.49
822.978	85.52
823.151	79.31
823.324	70.12
823.496	66.58
823.669	59.02
823.842	65.66
824.015	63.34
824.188	62.33
824.361	74.54
824.533	70.87
824.706	69.45
824.879	74.76
825.051	91.82
825.224	81.56
825.397	81.08
825.569	77.29
825.742	80.33
825.915	72.54
826.087	71.57
826.26	70.13
826.432	68.82
826.605	64.88
826.777	70.21
826.95	71.36
827.122	57.89
827.295	67.58
827.467	69.78
827.64	52.22
827.812	71.37
827.984	107.52
828.157	85.61
828.329	94.37
828.501	91.01
828.674	74.35
828.846	76.27
829.018	78.16
829.19	67.7
829.363	64.05
829.535	76.13
829.707	67.69
829.879	57.73
830.051	55.51
830.223	82.53
830.395	78.56
830.568	77.89
830.74	71.98
830.912	78.58
831.084	60.34
831.256	55.07
831.428	50.44
831.6	66.08
831.772	65.29
831.943	57.7
832.115	63.52
832.287	60.26
832.459	56.34
832.631	64.44
832.803	77.71
832.975	75.94
833.146	72.77
833.318	72.83
833.49	69.55
833.662	75.33
833.833	73.84
834.005	85.03
834.177	88.71
834.348	80.56
834.52	63.8
834.692	57.55
834.863	54.25
835.035	53.57
835.206	48.67
835.378	60.39
835.549	59.87
835.721	50.63
835.892	52.97
836.064	58.57
836.235	59.32
836.407	72.4
836.578	94.45
836.749	66.94
836.921	55.35
837.092	38.57
837.264	31.4
837.435	-9.08
837.606	18.66
837.777	30.99
837.949	48.83
838.12	48.15
838.291	60.59
838.462	65.21
838.633	63.03
838.805	44.64
838.976	35.61
839.147	47.73
839.318	52.8
839.489	31.15
839.66	43.42
839.831	50.29
840.002	45.39
840.173	37.82
840.344	51.24
840.515	43.14
840.686	53.25
840.857	45.45
841.028	52.13
841.199	66.02
841.369	65.2
841.54	60.22
841.711	114.82
841.882	92.68
842.053	56.26
842.223	48.43
842.394	39.32
842.565	25.67
842.736	26.47
842.906	24.84
843.077	46.89
843.248	54.61
843.418	45.19
843.589	53.35
843.759	79.44
843.93	78.07
844.101	80.82
844.271	121.29
844.442	112.43
844.612	83.65
844.783	85.67
844.953	71.43
845.123	57.31
845.294	52.97
845.464	69.5
845.635	68.43
845.805	99.03
845.975	95.95
846.146	98.23
846.316	81.58
846.486	81.98
846.656	78.53
846.827	72.87
846.997	72.86
847.167	54.72
847.337	59.12
847.507	58.48
847.677	63.08
847.848	65.21
848.018	82.74
848.188	73.27
848.358	61.62
848.528	60
848.698	42.96
848.868	38.9
849.038	29.26
849.208	33.71
849.378	31.49
849.548	30.93
849.718	17.31
849.887	30.61
850.057	32.44
850.227	60.95
850.397	61.39
850.567	65.35
850.737	66.83
850.906	56.08
851.076	12.47
851.246	16.33
851.415	16.66
851.585	10.83
851.755	43.64
851.924	54.19
852.094	79.77
852.264	75.43
852.433	62.46
852.603	47.98
852.772	60.94
852.942	56.22
853.111	31.65
853.281	60.91
853.45	49.36
853.62	59.24
853.789	25.7
853.959	44.94
854.128	29.14
854.297	54.36
854.467	46.63
854.636	68.98
854.805	67.76
854.975	66.26
855.144	56.48
855.313	76.55
855.482	36.26
855.652	54.17
855.821	49.89
855.99	72.44
856.159	57.46
856.328	88.53
856.497	66.11
856.667	71.82
856.836	55.75
857.005	51.17
857.174	51.15
857.343	49.19
857.512	46.77
857.681	49.39
857.85	31.84
858.019	10.6
858.188	4.68
858.356	1.39
858.525	22.14
858.694	62.73
858.863	55.14
859.032	54.69
859.201	67.1
859.369	27.44
859.538	6.21
859.707	-14.3
859.876	5.66
860.044	19.44
860.213	38.08
860.382	53.44
860.55	56.06
860.719	65.2
860.888	60
861.056	61.56
861.225	21.58
861.393	49.55
861.562	23.75
861.73	35.44
861.899	38.51
862.067	40.27
862.236	25.64
862.404	39.3
862.572	59.57
862.741	22.52
862.909	26.15
863.078	18.57
863.246	10.1
863.414	10.39
863.582	39.33
863.751	72.35
863.919	84.1
864.087	110.56
864.255	129.52
864.424	88.51
864.592	80.97
864.76	74.37
864.928	71.04
865.096	81.64
865.264	90.87
865.432	77.29
865.6	134.48
865.768	125.84
865.936	96.54
866.104	130.11
866.272	143.04
866.44	39.65
866.608	31.03
866.776	52.65
866.944	36.99
867.112	32.31
867.28	35.22
867.448	42.84
867.615	38.68
867.783	33.49
867.951	45.13
868.119	84.43
868.286	120.68
868.454	71.09
868.622	66
868.789	68.76
868.957	51.59
869.125	42.56
869.292	32.05
869.46	44.85
869.627	33.55
869.795	3.8
869.963	-2.31
870.13	-2.06
870.298	-23.17
870.465	-4.06
870.632	-9.04
870.8	10.02
870.967	4.79
871.135	-7.13
871.302	9.59
871.469	56.51
871.637	109.31
871.804	112.44
871.971	100.75
872.139	85.2
872.306	28.71
872.473	-17.78
872.64	-121.28
872.807	-136.93
872.975	-185.34
873.142	-3.7
873.309	17.61
873.476	63.32
873.643	95.29
873.81	64.38
873.977	63.17
874.144	54.09
874.311	46.25
874.478	37.51
874.645	6.13
874.812	54.34
874.979	67.31
875.146	63.57
875.313	60.19
875.48	113.08
875.647	101.88
875.813	101.98
875.98	81.58
876.147	41.04
876.314	5.86
876.481	57.92
876.647	29.38
876.814	34.14
876.981	64.7
877.147	59.38
877.314	31.58
877.481	43.4
877.647	45.97
877.814	34.01
877.98	45.27
878.147	96.27
878.314	106.51
878.48	129.62
878.647	116.59
878.813	146.2
878.979	86.9
879.146	111.45
879.312	98.14
879.479	85.02
879.645	61.93
879.811	48.84
879.978	37.03
880.144	38.2
880.31	43.08
880.477	51.66
880.643	45.86
880.809	-0.74
880.975	24
881.142	-32.76
881.308	307.4
881.474	226.98
881.64	73.5
881.806	19.86
881.972	30.78
882.138	25.19
882.304	44.1
882.47	13.69
882.636	3.95
882.802	-3.6
882.968	1.95
883.134	14.11
883.3	16.35
883.466	95.08
883.632	156.04
883.798	146.44
883.964	122.7
884.129	585.15
884.295	111.8
884.461	58.5
884.627	75.98
884.793	81.76
884.958	86.72
885.124	75.9
885.29	56.36
885.455	71.05
885.621	110.93
885.787	52.16
885.952	3
886.118	40.62
886.283	33.43
886.449	3.97
886.614	-19.34
886.78	23.9
886.945	15.4
887.111	-0.51
887.276	8.08
887.442	8.01
887.607	5.43
887.773	14.16
887.938	-2.87
888.103	7.13
888.269	35.66
888.434	36.72
888.599	28.72
888.764	71.18
888.93	84.19
889.095	72.13
889.26	58.49
889.425	62.62
889.59	65.36
889.756	25.97
889.921	25.28
890.086	42.66
890.251	105.12
890.416	35.32
890.581	45.61
890.746	15.65
890.911	35.42
891.076	43.99
891.241	41.1
891.406	40.15
891.571	136.6
891.736	165.79
891.901	95.16
892.065	77.45
892.23	71.8
892.395	50.96
892.56	48.09
892.725	43.25
892.889	215.2
893.054	154.83
893.219	104.16
893.384	107.42
893.548	58.57
893.713	3.12
893.878	-74.35
