Data from Ofra_PS_T2_2A_9GT47_Reflection_1.txt Node
Date: Wed Jul 21 17:27:01 EDT 2021
User: Adam
Spectrometer: FLMT01687
Trigger mode: 0
Integration Time (sec): 1.100000E0
Scans to average: 2
Electric dark correction enabled: true
Nonlinearity correction enabled: false
Boxcar width: 2
XAxis mode: Wavelengths
Number of Pixels in Spectrum: 3648
>>>>>Begin Spectral Data<<<<<
179.494	544.8
179.716	645.18
179.937	667.74
180.158	705
180.38	1228.12
180.601	367.96
180.823	56.78
181.044	-194.79
181.265	-136.76
181.486	-24.93
181.708	182.22
181.929	1506.12
182.15	-739.44
182.372	54.73
182.593	-27.18
182.814	21.17
183.035	28.7
183.257	19.59
183.478	-127.02
183.699	-106.4
183.92	-126.71
184.141	-106.73
184.363	-185.21
184.584	-93.99
184.805	-48.67
185.026	-3.84
185.247	10.13
185.468	-2.74
185.689	-3.31
185.91	22.1
186.132	15.72
186.353	20.02
186.574	56.87
186.795	51.98
187.016	-44.53
187.237	-56.07
187.458	-111.94
187.679	-88.4
187.9	-90.83
188.121	-38.37
188.342	-13.38
188.563	14.14
188.784	38.37
189.005	42.06
189.226	70.86
189.447	29.23
189.667	-104.85
189.888	-375.37
190.109	-1449.35
190.33	-859.35
190.551	-1470.8
190.772	-384.99
190.993	-330.07
191.214	-258.08
191.434	-183.38
191.655	-51.17
191.876	-100.18
192.097	-152.1
192.318	-240.37
192.538	-321.11
192.759	-254.74
192.98	-102.31
193.201	-62.67
193.421	-18.5
193.642	-9.22
193.863	-13.69
194.083	-55.2
194.304	-64.31
194.525	-76.47
194.745	-108.56
194.966	-100.4
195.187	-108.87
195.407	-146.92
195.628	-190.1
195.848	-183.06
196.069	-181.11
196.29	-127.88
196.51	-115.8
196.731	-120.54
196.951	-134.47
197.172	-152.93
197.392	-169.55
197.613	-150.38
197.833	-168.7
198.054	-142.28
198.274	-78.53
198.495	-93.49
198.715	-69.85
198.936	-87.68
199.156	-81.14
199.377	-200.25
199.597	-188.01
199.817	-180.9
200.038	-101.52
200.258	-162.12
200.479	-97.32
200.699	-67.84
200.919	3.48
201.14	-36.72
201.36	-62.14
201.58	-2.19
201.801	26.16
202.021	-23.35
202.241	-25.67
202.461	-22.56
202.682	-157.63
202.902	-229.79
203.122	-137.76
203.342	-88.98
203.563	-34.86
203.783	3.08
204.003	-44.15
204.223	-69.08
204.443	-12.74
204.663	-70.76
204.884	-55.73
205.104	-13.25
205.324	9.79
205.544	-4.75
205.764	24.85
205.984	31.03
206.204	21.63
206.424	11.08
206.644	-48.71
206.864	-31.16
207.084	-107.72
207.304	-124.71
207.525	-350.63
207.745	-186.3
207.964	-107.17
208.184	-130.67
208.404	-143.58
208.624	-126.8
208.844	-117.64
209.064	-465.9
209.284	-420.47
209.504	-236.4
209.724	-96.86
209.944	-68.4
210.164	-20.94
210.384	-19.78
210.604	-21.14
210.823	-65.59
211.043	-80.32
211.263	-66.71
211.483	-78.53
211.703	-134.47
211.922	-96.79
212.142	-41.43
212.362	-50.35
212.582	-50.68
212.801	-45.47
213.021	-56.45
213.241	-75.27
213.461	-102.32
213.68	-124.62
213.9	-110.21
214.12	-88.25
214.339	-146.96
214.559	-130.04
214.779	-38.92
214.998	-27.82
215.218	-95.05
215.438	-60.2
215.657	-73.48
215.877	-114.35
216.096	-52.24
216.316	-38.47
216.535	-54.84
216.755	-44.35
216.974	-147.61
217.194	-236.92
217.413	-202.96
217.633	-227.95
217.852	-367.37
218.072	-156.41
218.291	-93.93
218.511	-48.07
218.73	-65.44
218.95	-40.56
219.169	-53.62
219.389	-118.82
219.608	-91.33
219.827	-95.53
220.047	-108.38
220.266	-82.77
220.485	-77.76
220.705	-75.77
220.924	-78.58
221.143	-27.59
221.363	-64.14
221.582	-52.24
221.801	-61.42
222.021	-24.44
222.24	-116.9
222.459	-33.05
222.678	-19.05
222.897	-84.02
223.117	-133.9
223.336	-119.15
223.555	-85.41
223.774	-31.71
223.993	-24.24
224.213	17.01
224.432	2.73
224.651	25.77
224.87	-23.04
225.089	-1.72
225.308	0.35
225.527	13.53
225.746	-2.77
225.965	2.46
226.184	-12.51
226.404	-3.72
226.623	-29.66
226.842	-14.54
227.061	17.15
227.28	16.53
227.499	-4.68
227.718	24.35
227.936	-8.8
228.155	-23.56
228.374	-47.63
228.593	-23.36
228.812	-36.85
229.031	-41.57
229.25	-85.62
229.469	-96.04
229.688	-91.68
229.907	-48.9
230.125	-20.52
230.344	-4.51
230.563	9.31
230.782	11
231.001	-105.84
231.22	-86.31
231.438	-48.7
231.657	-28.21
231.876	-40.67
232.095	22.14
232.313	27.99
232.532	-11.5
232.751	-69.73
232.969	-86.69
233.188	-200.33
233.407	-115.81
233.625	-71.77
233.844	-108.8
234.063	-85.78
234.281	-33.6
234.5	-50.24
234.719	-32.91
234.937	14.52
235.156	15.05
235.374	5.11
235.593	-15.17
235.811	-53.54
236.03	-65.97
236.249	-122.07
236.467	-121.28
236.686	-42.88
236.904	-16.95
237.123	-51.58
237.341	-30.47
237.559	-23.91
237.778	-60.14
237.996	-82.95
238.215	-26.35
238.433	-15.43
238.652	-15.67
238.87	-31.4
239.088	-24.29
239.307	-18.63
239.525	-44.61
239.743	-71.42
239.962	-43.45
240.18	-66.23
240.398	-152.32
240.617	-148.32
240.835	-126.95
241.053	-104.39
241.271	-51.56
241.49	-1.09
241.708	-29.22
241.926	-44.67
242.144	-44.62
242.363	-113.29
242.581	-167.78
242.799	-100.36
243.017	-61.36
243.235	-73.82
243.453	-48.7
243.672	-32
243.89	-28.06
244.108	-47.53
244.326	-35.02
244.544	-34.62
244.762	-39.84
244.98	-46.61
245.198	-43.39
245.416	-64.32
245.634	-60.88
245.852	-78.48
246.07	-77.76
246.288	-59.08
246.506	-107.61
246.724	-80.34
246.942	-53.03
247.16	-30.93
247.378	-27.35
247.596	-7.51
247.814	-40.56
248.032	-72.31
248.25	-70.77
248.468	-57.59
248.685	-40.74
248.903	7.98
249.121	14.22
249.339	-20.64
249.557	-28.31
249.775	-32.32
249.992	-111.53
250.21	-96.74
250.428	-73.34
250.646	-114.45
250.863	-119.75
251.081	-73.56
251.299	-89.37
251.517	-68.6
251.734	-38.47
251.952	-39.9
252.17	-43.02
252.387	-29.25
252.605	-43.11
252.823	-44.42
253.04	-37.29
253.258	-26.17
253.475	-53.6
253.693	-29.98
253.911	-12.09
254.128	-3.49
254.346	-23.06
254.563	-26.62
254.781	-40.44
254.998	-74.63
255.216	-105.33
255.433	-93.44
255.651	-49.49
255.868	-18.36
256.086	38.74
256.303	18.17
256.521	24.2
256.738	-1.35
256.956	-49.28
257.173	-118.13
257.39	-116.25
257.608	-151.03
257.825	-91.21
258.043	-46.56
258.26	-10.52
258.477	45.14
258.695	27.11
258.912	-27.9
259.129	-18.47
259.346	-61.95
259.564	-116.19
259.781	-131.54
259.998	-46.39
260.216	-38.33
260.433	26.96
260.65	25.06
260.867	38.44
261.084	0.21
261.302	-21.04
261.519	-60.11
261.736	-84.57
261.953	-115.63
262.17	-75.81
262.387	-106.23
262.604	-125.69
262.822	-141.87
263.039	-95.96
263.256	-137.25
263.473	-92.82
263.69	-56.74
263.907	8.03
264.124	8.18
264.341	2.14
264.558	-3.65
264.775	-1.15
264.992	-35.39
265.209	-16.56
265.426	7.42
265.643	5.59
265.86	0.19
266.077	3.59
266.294	-10.77
266.51	-67.51
266.727	-78.08
266.944	-52.42
267.161	-64.92
267.378	-81.78
267.595	-35.49
267.812	-54.99
268.028	-90.15
268.245	-63.36
268.462	-67.81
268.679	-87.03
268.896	-29.55
269.112	-31.9
269.329	-46.86
269.546	-37.48
269.763	-41.61
269.979	-67.65
270.196	-57.27
270.413	-84.7
270.629	-107.25
270.846	-109.71
271.063	-97.81
271.279	-115.63
271.496	-96.65
271.712	-55.55
271.929	-51.02
272.146	-81.19
272.362	-63.82
272.579	-12.48
272.795	-11.52
273.012	2.82
273.228	8.6
273.445	-16.72
273.661	-71.29
273.878	-105.9
274.094	-95.86
274.311	-126.05
274.527	-37.4
274.744	-35.95
274.96	-46.75
275.177	-25.76
275.393	7.97
275.609	-16.02
275.826	13.66
276.042	11.99
276.259	-11.77
276.475	-6.71
276.691	9.88
276.908	-16.57
277.124	4.11
277.34	-0.49
277.557	-17.73
277.773	-31.61
277.989	-26.83
278.205	-29.79
278.422	-12.1
278.638	-18.61
278.854	-7.71
279.07	-31.6
279.286	-53.03
279.503	-86.18
279.719	-82.34
279.935	-113.39
280.151	-121.37
280.367	-73.69
280.583	-98.89
280.799	-74.07
281.016	-101.79
281.232	-47.02
281.448	-44.7
281.664	4.64
281.88	-31.17
282.096	-2.86
282.312	12.65
282.528	11.83
282.744	-29.66
282.96	-7.7
283.176	-25.81
283.392	-50.42
283.608	-54.24
283.824	-42.07
284.04	-40.05
284.256	-32.77
284.471	-21.07
284.687	-27.26
284.903	-11.75
285.119	13.92
285.335	-9.32
285.551	-0.92
285.767	-14.44
285.982	-32.61
286.198	-81.09
286.414	-11.52
286.63	-18.98
286.846	14.23
287.061	-7.93
287.277	27.39
287.493	-10.68
287.709	16.37
287.924	1.17
288.14	47.82
288.356	30.18
288.571	49.15
288.787	26.41
289.003	17.79
289.218	-11.25
289.434	-38.47
289.65	-32.21
289.865	-44.63
290.081	-27.94
290.296	-37.15
290.512	-41.41
290.727	-82.12
290.943	-78.11
291.159	-84.97
291.374	-74.61
291.59	-86.13
291.805	-52.15
292.021	-43.56
292.236	-40.74
292.451	-35.94
292.667	-20.55
292.882	-16.73
293.098	-27.03
293.313	-52.71
293.529	-67.42
293.744	-89.98
293.959	-89.87
294.175	-71.56
294.39	-25.33
294.605	-9.26
294.821	17.56
295.036	15.85
295.251	4.99
295.467	-14.5
295.682	-21.53
295.897	-85.23
296.112	-105.36
296.328	-77.18
296.543	-102.22
296.758	-94.92
296.973	-51.6
297.188	2.5
297.404	-49.03
297.619	-68.87
297.834	-90.31
298.049	-97.56
298.264	-119.53
298.479	-36.71
298.694	-24.35
298.909	-3.26
299.125	0.25
299.34	-2.97
299.555	-17.7
299.77	-17.61
299.985	-48.69
300.2	-110.35
300.415	-111.64
300.63	-79.45
300.845	-69.38
301.06	-70.08
301.275	-22.46
301.49	-24.89
301.704	-42.81
301.919	-63.16
302.134	-73.41
302.349	-92.61
302.564	-155.91
302.779	-214.91
302.994	-253.45
303.209	-162.93
303.423	-92.52
303.638	7.93
303.853	-17.93
304.068	-15.19
304.283	-14.39
304.497	-18.35
304.712	-51.72
304.927	-28.83
305.142	-37.29
305.356	-28.5
305.571	-27.52
305.786	-40.55
306	-75.24
306.215	-45.71
306.43	-93.05
306.644	-115.5
306.859	-65.4
307.074	-31.88
307.288	-80.68
307.503	-73.28
307.717	-73.29
307.932	-70.79
308.147	-69.57
308.361	-42.08
308.576	-59.6
308.79	-99.03
309.005	-86.86
309.219	-65.23
309.434	-70.05
309.648	-46.35
309.863	-22.02
310.077	-33.12
310.292	-44.53
310.506	-44.24
310.72	-26.55
310.935	-23.29
311.149	-19.22
311.364	0.93
311.578	13.66
311.792	-0.71
312.007	-5.75
312.221	-25.47
312.435	-24.11
312.649	-32.35
312.864	-11.56
313.078	32.98
313.292	129.51
313.507	91.74
313.721	107.87
313.935	30.62
314.149	3.07
314.363	-32.93
314.578	-35.91
314.792	-25.43
315.006	-31.96
315.22	-8.14
315.434	10.8
315.648	28.49
315.862	26.82
316.077	22.08
316.291	-3.68
316.505	-9.21
316.719	-56.23
316.933	-79.85
317.147	-63.64
317.361	-110.57
317.575	-151.48
317.789	-192.06
318.003	-250.7
318.217	-207.85
318.431	-89.75
318.645	-30.25
318.859	-19.18
319.073	7.7
319.287	-10.3
319.5	-53.58
319.714	-90.58
319.928	-115.12
320.142	-143.74
320.356	-74.73
320.57	-35.1
320.784	-56.58
320.997	-50.4
321.211	-39.55
321.425	-94.95
321.639	-113.75
321.853	-33.22
322.066	-14.69
322.28	-30.51
322.494	-31.48
322.707	-7.25
322.921	-29.16
323.135	-28.95
323.349	-5.43
323.562	-21.69
323.776	-43.34
323.989	-36.82
324.203	-71.14
324.417	-90.12
324.63	-101.95
324.844	-103.47
325.057	-122.26
325.271	-85.13
325.485	-35.4
325.698	-3.47
325.912	10.55
326.125	-13.06
326.339	-7.27
326.552	-57.58
326.766	-65.67
326.979	-43.74
327.193	-5.17
327.406	-36.01
327.619	-18.64
327.833	-13.79
328.046	-43.39
328.26	-76.54
328.473	-41.17
328.686	-94.68
328.9	-86.18
329.113	-62.04
329.326	-73.01
329.54	-67.1
329.753	-56.25
329.966	-71.37
330.179	-86.76
330.393	-58.91
330.606	-41.89
330.819	-15.86
331.032	-5.09
331.246	6.83
331.459	39.58
331.672	22.25
331.885	12.4
332.098	-6.84
332.311	-23.78
332.525	-90.69
332.738	-79.5
332.951	-58.21
333.164	-17.55
333.377	-0.48
333.59	10.76
333.803	13.91
334.016	5.37
334.229	-19.9
334.442	-31.09
334.655	-27.58
334.868	-26.92
335.081	-27.39
335.294	-40.5
335.507	-39.09
335.72	-39.2
335.933	-43.71
336.146	-48.32
336.359	-34.82
336.572	-62.85
336.785	-70.97
336.997	-67.04
337.21	-47.9
337.423	-50.55
337.636	-51.17
337.849	-44.93
338.062	-54.75
338.274	-47.14
338.487	-54.07
338.7	-39.87
338.913	-81.94
339.125	-105.25
339.338	-158.99
339.551	-148.73
339.763	-119.95
339.976	-73.19
340.189	-33.16
340.402	-13.29
340.614	-8.99
340.827	-15.5
341.039	-42.59
341.252	-46.85
341.465	-32.62
341.677	-45.2
341.89	-93.15
342.102	-40.3
342.315	-59.29
342.527	-94.41
342.74	-72.5
342.952	-18.37
343.165	-33.8
343.377	-11.32
343.59	-15.59
343.802	3.16
344.015	-3.71
344.227	5.91
344.44	-0.31
344.652	1.51
344.864	-17.93
345.077	5.88
345.289	6.29
345.502	11.81
345.714	-4.17
345.926	0.99
346.139	-11.03
346.351	0.97
346.563	7.45
346.775	23.47
346.988	6.64
347.2	-6.8
347.412	-71.69
347.624	-107.84
347.837	-141.77
348.049	-104.36
348.261	-77.51
348.473	-57.39
348.685	-51.48
348.897	-27.24
349.11	-50.71
349.322	-61.34
349.534	-42.46
349.746	-30.88
349.958	-46.48
350.17	-65.8
350.382	-39.47
350.594	-38.15
350.806	-58.56
351.018	-55.93
351.23	-62.34
351.442	-131.17
351.654	-132.38
351.866	-78.1
352.078	-65.29
352.29	-32.49
352.502	-2.07
352.714	5.38
352.926	-22.05
353.138	-23.86
353.35	-32.01
353.561	-42.69
353.773	-67.45
353.985	-54.09
354.197	-70.78
354.409	-79.76
354.621	-71.79
354.832	-53.72
355.044	-56.56
355.256	-46.92
355.468	-22.59
355.679	-34.65
355.891	-39.67
356.103	-47.27
356.314	-45.11
356.526	-62.54
356.738	-52.2
356.949	-53.38
357.161	-41.05
357.373	-34.96
357.584	-44.31
357.796	-26.53
358.008	-30.56
358.219	-6.49
358.431	-9.71
358.642	6.02
358.854	-5.92
359.065	-25.65
359.277	-63.24
359.488	-68.21
359.7	-97.58
359.911	-105.72
360.123	-67.06
360.334	-62.94
360.546	-81.63
360.757	-80.69
360.969	-57.49
361.18	-39.52
361.391	-36.25
361.603	-31.62
361.814	-18.18
362.025	-35.87
362.237	-52.67
362.448	-40.71
362.659	-16.39
362.871	-13.72
363.082	-2.42
363.293	6.08
363.504	-17.54
363.716	-39.79
363.927	-47.9
364.138	-82.45
364.349	-92.7
364.56	-69.4
364.772	-70.17
364.983	-39.09
365.194	-37.62
365.405	-29.08
365.616	-12.18
365.827	-8.53
366.038	-53.24
366.25	-42.3
366.461	-83.73
366.672	-63.18
366.883	-42.84
367.094	-22.03
367.305	-39.19
367.516	-23.39
367.727	-65.97
367.938	-83.77
368.149	-83.1
368.36	-50.98
368.571	-41.06
368.781	-41.06
368.992	-50.29
369.203	-69.64
369.414	-101.29
369.625	-120.86
369.836	-94.1
370.047	-120.26
370.258	-100.22
370.468	-94.39
370.679	-96.79
370.89	-108
371.101	-66.47
371.312	-70.61
371.522	-57.73
371.733	-45.36
371.944	-22.9
372.155	-25.21
372.365	-33.26
372.576	-40.36
372.787	-53.6
372.997	-90.93
373.208	-93.81
373.419	-50.02
373.629	-86.1
373.84	-75.52
374.05	-76.48
374.261	-61.01
374.472	-92.25
374.682	-30.93
374.893	-34.8
375.103	5.08
375.314	0.48
375.524	-0.49
375.735	-1.26
375.945	6.36
376.156	-20.72
376.366	-16.39
376.577	-6.05
376.787	-13.36
376.997	-14.97
377.208	-18.37
377.418	-36.87
377.629	-36.66
377.839	-37.38
378.049	-30.95
378.26	-10.15
378.47	5.2
378.68	-4.49
378.89	-7.1
379.101	-17.3
379.311	-55.71
379.521	-98.33
379.732	-104
379.942	-100.61
380.152	-109.65
380.362	-52.52
380.572	-35.46
380.783	-17.16
380.993	-3.76
381.203	13.06
381.413	8.01
381.623	6.8
381.833	-0.52
382.043	-18.9
382.253	-34.63
382.463	-36.11
382.674	-49.31
382.884	-62.89
383.094	-52.63
383.304	-38.16
383.514	-31.93
383.724	-19.2
383.934	-20.01
384.144	-26.06
384.353	-37.86
384.563	-39.08
384.773	-32.79
384.983	-41.39
385.193	-27.24
385.403	-18.98
385.613	-18.52
385.823	-31.27
386.033	-16.24
386.242	-20
386.452	-25.73
386.662	-36.08
386.872	-16.39
387.082	-26.53
387.291	-33.66
387.501	-26.98
387.711	-9.43
387.921	-18.96
388.13	-14.15
388.34	1.15
388.55	-8.88
388.759	-13.84
388.969	-6.53
389.179	-8.76
389.388	-12.95
389.598	-2.58
389.807	-8.38
390.017	-14.44
390.227	-11.81
390.436	-12.93
390.646	-13.44
390.855	-7.16
391.065	-5.79
391.274	-9.56
391.484	-10.31
391.693	-8.82
391.903	-9.39
392.112	-5.89
392.322	-1.35
392.531	1.95
392.74	2.89
392.95	-0.15
393.159	-1.11
393.369	-1.49
393.578	-0.74
393.787	-3.52
393.997	-1.51
394.206	-3.09
394.415	-2.4
394.625	-4.71
394.834	-5.24
395.043	-4.69
395.252	-1.36
395.462	0.37
395.671	1.55
395.88	3.23
396.089	4.21
396.298	1.37
396.508	0.62
396.717	0.37
396.926	0.85
397.135	0.17
397.344	0.56
397.553	1.29
397.762	2.89
397.971	2.58
398.181	2.88
398.39	2.27
398.599	1.72
398.808	1.32
399.017	2.31
399.226	3.2
399.435	4.77
399.644	5.43
399.853	4.84
400.062	4.07
400.27	3.52
400.479	2.82
400.688	1.62
400.897	1.99
401.106	2.48
401.315	2.45
401.524	2.66
401.733	3.32
401.941	3.84
402.15	3.65
402.359	3.46
402.568	3.86
402.777	4.15
402.985	3.87
403.194	3.77
403.403	3.8
403.612	3.27
403.82	3.13
404.029	3.08
404.238	2.97
404.446	3.35
404.655	3.24
404.864	3.24
405.072	3.1
405.281	3.35
405.489	3.02
405.698	3.12
405.906	2.97
406.115	2.96
406.324	2.78
406.532	3.03
406.741	3.3
406.949	3.35
407.158	3.29
407.366	3.46
407.574	3.28
407.783	3.26
407.991	3.18
408.2	3.48
408.408	3.39
408.617	3.27
408.825	3.09
409.033	3.2
409.242	3.08
409.45	3.1
409.658	3.24
409.867	3.43
410.075	3.24
410.283	3.06
410.491	3
410.7	2.76
410.908	2.85
411.116	3.23
411.324	3.23
411.533	3.17
411.741	3.55
411.949	3.41
412.157	3.09
412.365	3.23
412.573	3.31
412.781	3.18
412.99	3.03
413.198	3.14
413.406	3.04
413.614	3.01
413.822	2.83
414.03	2.81
414.238	2.67
414.446	2.72
414.654	2.49
414.862	2.67
415.07	2.85
415.278	3
415.486	2.78
415.694	2.94
415.902	2.82
416.109	2.62
416.317	2.64
416.525	2.56
416.733	2.47
416.941	2.52
417.149	2.6
417.357	2.58
417.564	2.81
417.772	3.17
417.98	3.05
418.188	3.04
418.395	3.06
418.603	3.19
418.811	2.71
419.019	2.63
419.226	2.77
419.434	2.81
419.642	2.51
419.849	2.74
420.057	2.79
420.265	2.63
420.472	2.3
420.68	2.38
420.887	2.22
421.095	2.3
421.302	2.25
421.51	2.46
421.717	2.52
421.925	2.73
422.132	2.63
422.34	2.39
422.547	2.39
422.755	2.2
422.962	2.05
423.17	2.04
423.377	2.25
423.585	2.32
423.792	2.38
423.999	2.46
424.207	2.39
424.414	2.61
424.621	2.51
424.829	2.4
425.036	2.27
425.243	2.47
425.451	2.14
425.658	2.04
425.865	2.41
426.072	2.41
426.28	2.5
426.487	2.59
426.694	2.69
426.901	2.4
427.108	2.46
427.315	2.23
427.523	2.65
427.73	2.66
427.937	2.65
428.144	2.53
428.351	2.58
428.558	2.35
428.765	2.23
428.972	2.17
429.179	2.4
429.386	2.66
429.593	2.4
429.8	2.27
430.007	2.46
430.214	2.5
430.421	2.17
430.628	2.05
430.835	2.1
431.042	2.25
431.249	2.18
431.456	2.3
431.662	2.52
431.869	2.71
432.076	2.68
432.283	2.88
432.49	2.89
432.697	2.92
432.903	2.7
433.11	2.59
433.317	2.55
433.524	2.71
433.73	2.71
433.937	2.97
434.144	2.91
434.35	2.8
434.557	2.63
434.764	2.6
434.97	2.42
435.177	2.58
435.384	2.57
435.59	2.67
435.797	2.94
436.003	3.08
436.21	2.94
436.416	3.02
436.623	2.99
436.829	3.06
437.036	3.13
437.242	3.2
437.449	3.05
437.655	3.11
437.862	2.98
438.068	2.85
438.275	3
438.481	3.36
438.687	3.31
438.894	3.22
439.1	3.24
439.307	3.31
439.513	3.08
439.719	3.03
439.926	3.22
440.132	3.22
440.338	3.05
440.544	3.18
440.751	3.14
440.957	3.08
441.163	2.97
441.369	2.97
441.575	2.75
441.782	2.76
441.988	2.56
442.194	2.65
442.4	2.67
442.606	3
442.812	3.04
443.018	3.18
443.224	3.16
443.431	3.27
443.637	2.96
443.843	2.9
444.049	2.87
444.255	2.86
444.461	2.87
444.667	2.84
444.873	3.04
445.079	3.06
445.284	3.14
445.49	2.96
445.696	2.86
445.902	2.71
446.108	2.66
446.314	2.55
446.52	2.66
446.726	2.94
446.931	2.96
447.137	3.04
447.343	3.21
447.549	3.06
447.755	3
447.96	3.05
448.166	2.94
448.372	2.78
448.578	2.92
448.783	2.92
448.989	2.96
449.195	3.16
449.4	3.25
449.606	3.19
449.812	3.05
450.017	3.09
450.223	2.92
450.428	2.83
450.634	2.94
450.84	3.16
451.045	3.01
451.251	3
451.456	3.3
451.662	3.35
451.867	3.33
452.073	3.4
452.278	3.56
452.483	3.56
452.689	3.43
452.894	3.45
453.1	3.42
453.305	3.31
453.51	3.16
453.716	3.16
453.921	3.08
454.127	2.97
454.332	2.89
454.537	2.84
454.742	2.81
454.948	2.78
455.153	2.87
455.358	3
455.563	3.1
455.769	3.23
455.974	3.27
456.179	3.2
456.384	3.17
456.589	3.16
456.795	2.92
457	2.86
457.205	3.09
457.41	3.11
457.615	3.06
457.82	3.18
458.025	3.23
458.23	3.07
458.435	3.06
458.64	3
458.845	3.2
459.05	3.16
459.255	3.22
459.46	3.18
459.665	3.23
459.87	3.13
460.075	3.18
460.28	3.19
460.485	3.3
460.69	3.31
460.895	3.14
461.099	3.05
461.304	3.11
461.509	3.12
461.714	3.05
461.919	3.2
462.123	3.12
462.328	3.23
462.533	3.14
462.738	3.34
462.942	3.27
463.147	3.38
463.352	3.33
463.556	3.37
463.761	3.24
463.966	3.27
464.17	3.29
464.375	3.18
464.58	3.16
464.784	3.12
464.989	3.07
465.193	3.12
465.398	3.13
465.602	3.22
465.807	3.25
466.011	3.33
466.216	3.3
466.42	3.43
466.625	3.53
466.829	3.65
467.034	3.67
467.238	3.89
467.443	3.65
467.647	3.44
467.851	3.49
468.056	3.51
468.26	3.35
468.464	3.44
468.669	3.6
468.873	3.61
469.077	3.54
469.282	3.58
469.486	3.63
469.69	3.59
469.894	3.43
470.099	3.57
470.303	3.66
470.507	3.6
470.711	3.49
470.915	3.54
471.119	3.42
471.324	3.35
471.528	3.42
471.732	3.53
471.936	3.5
472.14	3.6
472.344	3.66
472.548	3.63
472.752	3.82
472.956	4.04
473.16	3.99
473.364	3.85
473.568	3.86
473.772	3.83
473.976	3.73
474.18	3.72
474.384	3.84
474.588	3.8
474.792	3.66
474.995	3.68
475.199	3.85
475.403	3.93
475.607	4.01
475.811	3.99
476.015	4.07
476.218	4.05
476.422	3.9
476.626	3.93
476.83	4.11
477.033	4.07
477.237	3.96
477.441	4.12
477.644	4.12
477.848	3.99
478.052	3.9
478.255	3.9
478.459	3.86
478.663	3.96
478.866	4.08
479.07	4.18
479.273	4.39
479.477	4.35
479.681	4.25
479.884	4.14
480.088	4.11
480.291	4.01
480.495	4.02
480.698	4.05
480.901	4.15
481.105	4.26
481.308	4.23
481.512	4.27
481.715	4.35
481.919	4.32
482.122	4.25
482.325	4.3
482.529	4.33
482.732	4.28
482.935	4.24
483.138	4.19
483.342	4.25
483.545	4.27
483.748	4.37
483.952	4.45
484.155	4.59
484.358	4.52
484.561	4.42
484.764	4.35
484.967	4.42
485.171	4.48
485.374	4.44
485.577	4.53
485.78	4.58
485.983	4.55
486.186	4.42
486.389	4.44
486.592	4.45
486.795	4.47
486.998	4.39
487.201	4.48
487.404	4.52
487.607	4.59
487.81	4.51
488.013	4.62
488.216	4.57
488.419	4.56
488.622	4.48
488.825	4.46
489.028	4.39
489.231	4.35
489.433	4.33
489.636	4.29
489.839	4.31
490.042	4.26
490.245	4.28
490.447	4.35
490.65	4.41
490.853	4.45
491.056	4.52
491.258	4.48
491.461	4.44
491.664	4.52
491.866	4.43
492.069	4.51
492.272	4.52
492.474	4.59
492.677	4.57
492.879	4.64
493.082	4.67
493.285	4.82
493.487	4.72
493.69	4.65
493.892	4.6
494.095	4.53
494.297	4.42
494.5	4.52
494.702	4.56
494.905	4.62
495.107	4.61
495.309	4.64
495.512	4.68
495.714	4.72
495.917	4.77
496.119	4.76
496.321	4.84
496.524	4.89
496.726	4.86
496.928	4.87
497.13	4.85
497.333	4.83
497.535	4.81
497.737	4.81
497.939	4.78
498.142	4.83
498.344	4.77
498.546	4.66
498.748	4.72
498.95	4.88
499.152	4.87
499.355	4.95
499.557	5.09
499.759	5.18
499.961	5.06
500.163	5.13
500.365	5.15
500.567	5.18
500.769	5.08
500.971	5.1
501.173	4.99
501.375	5.03
501.577	4.97
501.779	4.94
501.981	5
502.183	5.07
502.385	5.04
502.587	4.98
502.788	5.07
502.99	5.08
503.192	5.13
503.394	5.09
503.596	5.17
503.798	5.23
503.999	5.35
504.201	5.33
504.403	5.43
504.605	5.48
504.806	5.42
505.008	5.35
505.21	5.44
505.411	5.46
505.613	5.45
505.815	5.52
506.016	5.62
506.218	5.72
506.42	5.77
506.621	5.8
506.823	5.86
507.024	5.71
507.226	5.61
507.427	5.58
507.629	5.67
507.83	5.67
508.032	5.79
508.233	5.88
508.435	5.97
508.636	5.99
508.838	5.94
509.039	5.98
509.24	6.01
509.442	6
509.643	5.94
509.845	6.03
510.046	6.11
510.247	6.07
510.448	6.05
510.65	6.12
510.851	6.23
511.052	6.21
511.254	6.21
511.455	6.33
511.656	6.42
511.857	6.46
512.058	6.47
512.26	6.48
512.461	6.44
512.662	6.45
512.863	6.33
513.064	6.31
513.265	6.37
513.466	6.44
513.667	6.41
513.868	6.5
514.069	6.59
514.27	6.63
514.471	6.56
514.672	6.59
514.873	6.53
515.074	6.52
515.275	6.39
515.476	6.41
515.677	6.43
515.878	6.57
516.079	6.59
516.28	6.74
516.481	6.87
516.682	6.91
516.882	6.82
517.083	6.79
517.284	6.75
517.485	6.67
517.686	6.64
517.886	6.66
518.087	6.74
518.288	6.75
518.488	6.74
518.689	6.77
518.89	6.73
519.091	6.76
519.291	6.79
519.492	6.87
519.692	6.9
519.893	7.06
520.094	7.05
520.294	7.04
520.495	7.04
520.695	7.09
520.896	7.03
521.096	7.06
521.297	7.12
521.497	7.12
521.698	7.03
521.898	7.04
522.099	7.04
522.299	7.18
522.499	7.2
522.7	7.28
522.9	7.27
523.101	7.33
523.301	7.27
523.501	7.32
523.702	7.3
523.902	7.36
524.102	7.44
524.302	7.4
524.503	7.45
524.703	7.49
524.903	7.5
525.103	7.41
525.304	7.53
525.504	7.56
525.704	7.64
525.904	7.62
526.104	7.64
526.304	7.59
526.504	7.6
526.705	7.58
526.905	7.65
527.105	7.69
527.305	7.67
527.505	7.64
527.705	7.65
527.905	7.69
528.105	7.69
528.305	7.69
528.505	7.74
528.705	7.83
528.905	7.8
529.105	7.79
529.304	7.84
529.504	7.9
529.704	7.81
529.904	7.83
530.104	7.91
530.304	8.01
530.503	7.99
530.703	7.96
530.903	7.98
531.103	7.97
531.303	7.92
531.502	7.96
531.702	8.09
531.902	8.17
532.101	8.14
532.301	8.15
532.501	8.22
532.7	8.17
532.9	8.19
533.1	8.24
533.299	8.29
533.499	8.25
533.698	8.25
533.898	8.24
534.097	8.3
534.297	8.34
534.496	8.37
534.696	8.41
534.895	8.49
535.095	8.53
535.294	8.53
535.494	8.51
535.693	8.57
535.892	8.59
536.092	8.55
536.291	8.55
536.491	8.63
536.69	8.69
536.889	8.61
537.088	8.6
537.288	8.69
537.487	8.75
537.686	8.72
537.886	8.81
538.085	8.88
538.284	8.95
538.483	8.93
538.682	8.99
538.882	9.05
539.081	9.14
539.28	9.04
539.479	9.05
539.678	9.07
539.877	9.16
540.076	9.16
540.275	9.25
540.474	9.36
540.673	9.41
540.872	9.36
541.071	9.43
541.27	9.49
541.469	9.49
541.668	9.56
541.867	9.58
542.066	9.59
542.265	9.64
542.464	9.64
542.663	9.66
542.862	9.84
543.06	9.95
543.259	10.04
543.458	10.13
543.657	10.16
543.856	10.1
544.054	10
544.253	9.99
544.452	10.06
544.651	10.19
544.849	10.2
545.048	10.33
545.247	10.34
545.445	10.36
545.644	10.37
545.843	10.45
546.041	10.5
546.24	10.61
546.438	10.75
546.637	10.78
546.836	10.92
547.034	11.01
547.233	11.04
547.431	10.99
547.63	11.02
547.828	11.01
548.027	11.04
548.225	11.05
548.423	11.12
548.622	11.23
548.82	11.25
549.019	11.32
549.217	11.53
549.415	11.53
549.614	11.59
549.812	11.64
550.01	11.65
550.209	11.64
550.407	11.85
550.605	11.86
550.803	11.99
551.002	12.17
551.2	12.19
551.398	12.25
551.596	12.4
551.794	12.47
551.993	12.5
552.191	12.64
552.389	12.72
552.587	12.8
552.785	12.86
552.983	12.96
553.181	13.04
553.379	13.11
553.577	13.17
553.775	13.31
553.973	13.4
554.171	13.5
554.369	13.5
554.567	13.56
554.765	13.62
554.963	13.67
555.161	13.63
555.359	13.73
555.557	13.82
555.755	13.88
555.952	14.02
556.15	14.16
556.348	14.29
556.546	14.41
556.744	14.51
556.941	14.51
557.139	14.64
557.337	14.72
557.535	14.79
557.732	14.88
557.93	15.08
558.128	15.14
558.325	15.28
558.523	15.29
558.721	15.36
558.918	15.36
559.116	15.48
559.313	15.5
559.511	15.74
559.708	15.77
559.906	15.88
560.104	15.95
560.301	16.09
560.498	16.1
560.696	16.24
560.893	16.35
561.091	16.41
561.288	16.54
561.486	16.65
561.683	16.75
561.88	16.84
562.078	16.99
562.275	16.97
562.473	17.05
562.67	17.16
562.867	17.29
563.064	17.38
563.262	17.47
563.459	17.52
563.656	17.7
563.853	17.66
564.051	17.73
564.248	17.88
564.445	18.08
564.642	18.07
564.839	18.29
565.036	18.46
565.234	18.61
565.431	18.64
565.628	18.78
565.825	18.85
566.022	18.94
566.219	18.97
566.416	19.06
566.613	19.15
566.81	19.17
567.007	19.15
567.204	19.16
567.401	19.24
567.598	19.18
567.795	19.29
567.991	19.33
568.188	19.41
568.385	19.47
568.582	19.65
568.779	19.7
568.976	19.8
569.172	19.97
569.369	19.99
569.566	20.04
569.763	20.11
569.96	20.13
570.156	20.05
570.353	20.12
570.55	20.2
570.746	20.2
570.943	20.19
571.14	20.27
571.336	20.31
571.533	20.32
571.729	20.32
571.926	20.45
572.123	20.56
572.319	20.62
572.516	20.61
572.712	20.75
572.909	20.76
573.105	20.86
573.302	20.9
573.498	21.04
573.695	20.95
573.891	21.02
574.087	20.97
574.284	20.91
574.48	20.8
574.677	20.9
574.873	20.84
575.069	20.86
575.266	20.9
575.462	20.96
575.658	21.03
575.854	21.14
576.051	21.14
576.247	21.1
576.443	21.08
576.639	21
576.835	20.94
577.032	20.91
577.228	21.01
577.424	21.1
577.62	21.12
577.816	21.05
578.012	21.1
578.208	21.03
578.404	20.95
578.6	21.01
578.796	21.12
578.993	21.11
579.189	21.12
579.384	21.03
579.58	20.95
579.776	20.81
579.972	20.78
580.168	20.76
580.364	20.79
580.56	20.79
580.756	20.84
580.952	20.71
581.148	20.73
581.343	20.73
581.539	20.68
581.735	20.69
581.931	20.82
582.127	20.82
582.322	20.76
582.518	20.74
582.714	20.75
582.909	20.6
583.105	20.6
583.301	20.59
583.496	20.64
583.692	20.45
583.888	20.53
584.083	20.52
584.279	20.65
584.474	20.61
584.67	20.79
584.866	20.76
585.061	20.59
585.257	20.54
585.452	20.54
585.648	20.43
585.843	20.44
586.039	20.55
586.234	20.58
586.429	20.47
586.625	20.52
586.82	20.45
587.015	20.46
587.211	20.26
587.406	20.4
587.601	20.4
587.797	20.42
587.992	20.38
588.187	20.55
588.383	20.44
588.578	20.39
588.773	20.45
588.968	20.53
589.163	20.54
589.359	20.55
589.554	20.56
589.749	20.57
589.944	20.55
590.139	20.55
590.334	20.58
590.529	20.63
590.724	20.69
590.919	20.81
591.114	20.75
591.309	20.78
591.504	20.85
591.699	20.74
591.894	20.69
592.089	20.72
592.284	20.79
592.479	20.9
592.674	20.97
592.869	21
593.064	21.13
593.259	21.26
593.454	21.28
593.648	21.36
593.843	21.32
594.038	21.33
594.233	21.22
594.428	21.16
594.622	21.14
594.817	21.42
595.012	21.45
595.206	21.45
595.401	21.47
595.596	21.54
595.79	21.44
595.985	21.58
596.18	21.78
596.374	21.94
596.569	21.97
596.763	21.96
596.958	21.98
597.153	21.96
597.347	21.97
597.542	22.13
597.736	22.23
597.931	22.29
598.125	22.32
598.319	22.42
598.514	22.41
598.708	22.51
598.903	22.55
599.097	22.66
599.291	22.71
599.486	22.69
599.68	22.63
599.874	22.69
600.069	22.72
600.263	22.69
600.457	22.77
600.651	22.84
600.846	22.8
601.04	22.77
601.234	22.8
601.428	22.86
601.622	22.95
601.817	22.96
602.011	23.07
602.205	23.17
602.399	23.25
602.593	23.24
602.787	23.36
602.981	23.26
603.175	23.25
603.369	22.98
603.563	23.01
603.757	22.9
603.951	22.94
604.145	22.88
604.339	23.03
604.533	22.85
604.727	22.82
604.921	22.75
605.115	22.72
605.309	22.77
605.502	22.84
605.696	22.9
605.89	22.92
606.084	22.84
606.278	22.68
606.471	22.59
606.665	22.5
606.859	22.38
607.053	22.37
607.246	22.37
607.44	22.36
607.634	22.22
607.827	22.21
608.021	22.14
608.214	22.09
608.408	22.05
608.602	22.05
608.795	21.96
608.989	21.92
609.182	21.85
609.376	21.69
609.569	21.6
609.763	21.53
609.956	21.35
610.15	21.2
610.343	21.26
610.537	21.27
610.73	21.21
610.923	21.37
611.117	21.38
611.31	21.21
611.504	21.17
611.697	21.11
611.89	20.93
612.083	20.85
612.277	20.83
612.47	20.71
612.663	20.62
612.856	20.51
613.05	20.39
613.243	20.22
613.436	20.12
613.629	20.01
613.822	19.89
614.015	19.86
614.209	19.86
614.402	19.83
614.595	19.78
614.788	19.81
614.981	19.67
615.174	19.54
615.367	19.41
615.56	19.4
615.753	19.33
615.946	19.31
616.139	19.31
616.332	19.48
616.525	19.41
616.718	19.47
616.911	19.49
617.103	19.44
617.296	19.28
617.489	19.17
617.682	18.97
617.875	18.85
618.067	18.8
618.26	18.65
618.453	18.76
618.646	18.81
618.838	18.84
619.031	18.9
619.224	18.91
619.417	18.85
619.609	18.89
619.802	18.78
619.994	18.73
620.187	18.76
620.38	18.64
620.572	18.5
620.765	18.56
620.957	18.41
621.15	18.23
621.342	18.23
621.535	18.2
621.727	18.09
621.92	18.04
622.112	18.07
622.305	18.16
622.497	18.07
622.69	18.06
622.882	18.22
623.074	18.3
623.267	18.18
623.459	18.15
623.651	18.13
623.844	17.98
624.036	17.89
624.228	17.88
624.42	17.84
624.613	18.05
624.805	18
624.997	17.99
625.189	17.98
625.381	18.09
625.574	17.88
625.766	17.88
625.958	17.84
626.15	17.81
626.342	17.77
626.534	17.78
626.726	17.76
626.918	17.78
627.11	17.73
627.302	17.65
627.494	17.54
627.686	17.55
627.878	17.46
628.07	17.49
628.262	17.47
628.454	17.48
628.646	17.55
628.838	17.59
629.029	17.44
629.221	17.51
629.413	17.41
629.605	17.24
629.797	17.14
629.989	17.14
630.18	17.02
630.372	17.02
630.564	17.02
630.755	17.01
630.947	17.16
631.139	17.07
631.33	17.07
631.522	17.12
631.714	17.17
631.905	16.99
632.097	16.99
632.289	17.02
632.48	16.98
632.672	16.86
632.863	16.81
633.055	16.86
633.246	16.84
633.438	16.73
633.629	16.7
633.821	16.72
634.012	16.6
634.203	16.52
634.395	16.56
634.586	16.7
634.777	16.64
634.969	16.66
635.16	16.65
635.351	16.54
635.543	16.46
635.734	16.46
635.925	16.44
636.117	16.5
636.308	16.48
636.499	16.38
636.69	16.32
636.881	16.4
637.073	16.46
637.264	16.52
637.455	16.58
637.646	16.7
637.837	16.68
638.028	16.55
638.219	16.59
638.41	16.55
638.601	16.37
638.792	16.32
638.983	16.25
639.174	16.15
639.365	16.24
639.556	16.26
639.747	16.12
639.938	16.2
640.129	16.14
640.32	16.01
640.511	16.02
640.701	16.23
640.892	16.11
641.083	16.17
641.274	16.22
641.465	16.2
641.655	16.01
641.846	15.99
642.037	15.87
642.228	15.83
642.418	15.88
642.609	15.88
642.8	15.97
642.99	15.95
643.181	16
643.372	15.96
643.562	15.99
643.753	15.8
643.943	15.79
644.134	15.55
644.324	15.48
644.515	15.38
644.705	15.46
644.896	15.5
645.086	15.65
645.277	15.61
645.467	15.67
645.658	15.61
645.848	15.58
646.038	15.49
646.229	15.44
646.419	15.31
646.61	15.23
646.8	15.12
646.99	15.04
647.18	15.02
647.371	15.04
647.561	14.99
647.751	15.05
647.941	15.05
648.132	15.07
648.322	15.05
648.512	15.14
648.702	15.19
648.892	15.2
649.082	15.18
649.272	15.07
649.462	14.93
649.653	14.79
649.843	14.76
650.033	14.75
650.223	14.81
650.413	14.78
650.603	14.73
650.793	14.73
650.983	14.59
651.172	14.42
651.362	14.44
651.552	14.35
651.742	14.17
651.932	14.17
652.122	14.27
652.312	14.26
652.502	14.32
652.691	14.31
652.881	14.22
653.071	14.15
653.261	13.86
653.45	13.61
653.64	13.59
653.83	13.48
654.019	13.36
654.209	13.37
654.399	13.37
654.588	13.24
654.778	13.11
654.968	12.92
655.157	12.91
655.347	12.83
655.536	12.63
655.726	12.54
655.915	12.44
656.105	12.27
656.294	12.08
656.484	12.02
656.673	11.91
656.863	11.9
657.052	11.7
657.241	11.57
657.431	11.37
657.62	11.29
657.809	10.92
657.999	10.8
658.188	10.65
658.377	10.51
658.567	10.35
658.756	10.27
658.945	10.14
659.134	9.92
659.324	9.76
659.513	9.63
659.702	9.48
659.891	9.37
660.08	9.25
660.269	9.14
660.458	8.94
660.648	8.87
660.837	8.72
661.026	8.72
661.215	8.68
661.404	8.51
661.593	8.38
661.782	8.18
661.971	8.11
662.16	7.99
662.349	7.99
662.538	7.9
662.726	7.8
662.915	7.55
663.104	7.35
663.293	7.28
663.482	7.24
663.671	7.2
663.86	7.11
664.048	7.1
664.237	7.01
664.426	6.85
664.615	6.82
664.803	6.74
664.992	6.57
665.181	6.41
665.369	6.33
665.558	6.2
665.747	6.2
665.935	6.34
666.124	6.44
666.312	6.43
666.501	6.38
666.69	6.27
666.878	6.15
667.067	5.99
667.255	6.05
667.444	6.35
667.632	6.44
667.82	6.51
668.009	6.6
668.197	6.53
668.386	6.35
668.574	6.38
668.762	6.26
668.951	6.1
669.139	6.15
669.327	6.05
669.516	6.17
669.704	6.14
669.892	6.4
670.08	6.31
670.269	6.2
670.457	6.11
670.645	6.03
670.833	6.1
671.021	6.18
671.21	6.32
671.398	6.47
671.586	6.56
671.774	6.36
671.962	6.39
672.15	6.45
672.338	6.21
672.526	6.29
672.714	6.23
672.902	6.18
673.09	6.33
673.278	6.59
673.466	6.64
673.654	6.96
673.842	7.11
674.03	7.04
674.218	6.86
674.405	6.89
674.593	6.72
674.781	6.72
674.969	6.76
675.157	7
675.344	7.27
675.532	7.44
675.72	7.67
675.908	7.81
676.095	7.75
676.283	7.64
676.471	7.84
676.658	7.73
676.846	7.74
677.033	7.89
677.221	7.98
677.409	7.86
677.596	7.92
677.784	8.02
677.971	8.04
678.159	8.12
678.346	8.25
678.534	8.32
678.721	8.53
678.909	8.57
679.096	8.57
679.283	8.66
679.471	8.87
679.658	8.88
679.846	9.18
680.033	9.45
680.22	9.54
680.408	9.49
680.595	9.59
680.782	9.51
680.969	9.6
681.157	9.61
681.344	9.7
681.531	9.81
681.718	9.83
681.905	9.91
682.093	10.12
682.28	10.51
682.467	10.72
682.654	11.04
682.841	11.1
683.028	11.34
683.215	11.41
683.402	11.35
683.589	11.52
683.776	11.78
683.963	11.85
684.15	12.04
684.337	12.19
684.524	12.34
684.711	12.55
684.898	12.58
685.085	12.61
685.271	13.04
685.458	13.26
685.645	13.39
685.832	13.87
686.019	14.36
686.205	14.52
686.392	14.82
686.579	15.13
686.766	15.44
686.952	15.56
687.139	15.99
687.326	16.07
687.512	16.45
687.699	16.75
687.886	16.99
688.072	17.14
688.259	17.67
688.445	18.03
688.632	18.21
688.818	18.99
689.005	19.39
689.191	19.78
689.378	20.43
689.564	21.07
689.751	21.25
689.937	21.66
690.124	22.13
690.31	22.3
690.496	22.71
690.683	23.27
690.869	23.89
691.055	24.22
691.242	24.88
691.428	25.37
691.614	25.83
691.8	26.44
691.987	27.16
692.173	27.55
692.359	28.14
692.545	28.81
692.731	29.16
692.918	29.69
693.104	30.33
693.29	31.07
693.476	31.47
693.662	32.04
693.848	32.61
694.034	33.12
694.22	33.27
694.406	34.06
694.592	34.64
694.778	35.09
694.964	35.55
695.15	36.26
695.336	36.52
695.522	37.28
695.708	37.85
695.894	38.7
696.08	39.29
696.265	39.96
696.451	40.37
696.637	41.14
696.823	41.51
697.009	41.91
697.194	42.4
697.38	42.82
697.566	43.08
697.751	43.57
697.937	44.45
698.123	44.92
698.308	45.73
698.494	46.36
698.68	46.91
698.865	47.19
699.051	47.79
699.236	48.14
699.422	48.61
699.607	48.7
699.793	49.16
699.978	49.5
700.164	49.72
700.349	50.49
700.535	51.09
700.72	51.28
700.906	51.98
701.091	52.51
701.276	52.27
701.462	52.96
701.647	53.65
701.832	53.85
702.018	54.26
702.203	54.99
702.388	55.16
702.573	55.36
702.759	56.04
702.944	56.37
703.129	56.6
703.314	56.75
703.499	57
703.684	56.94
703.87	57.55
704.055	58.3
704.24	58.94
704.425	59.52
704.61	59.99
704.795	60.02
704.98	59.78
705.165	59.74
705.35	60.09
705.535	59.89
705.72	60.24
705.905	61
706.09	61.74
706.275	61.65
706.459	62.03
706.644	62.02
706.829	62.03
707.014	61.56
707.199	62.13
707.384	62.58
707.568	62.73
707.753	63.07
707.938	63.68
708.123	63.69
708.307	63.54
708.492	63.65
708.677	63.49
708.861	63.34
709.046	63.33
709.231	64.31
709.415	64.95
709.6	65.08
709.784	65.46
709.969	65.62
710.153	65.17
710.338	64.95
710.522	65.26
710.707	65.98
710.891	66.3
711.076	66.77
711.26	67
711.445	67.23
711.629	67.18
711.813	67.33
711.998	67.5
712.182	67.52
712.366	68.21
712.551	68.61
712.735	68.86
712.919	68.86
713.103	69.47
713.288	69.17
713.472	68.63
713.656	69.18
713.84	69.23
714.024	69.05
714.208	69.14
714.393	70.14
714.577	69.61
714.761	69.75
714.945	70.17
715.129	70.29
715.313	70.13
715.497	70.29
715.681	70.96
715.865	70.63
716.049	70.57
716.233	70.43
716.417	70.84
716.601	70.37
716.785	70.7
716.968	71.23
717.152	71.51
717.336	71.57
717.52	71.66
717.704	71.65
717.888	71.76
718.071	71.56
718.255	71.74
718.439	71.62
718.622	71.92
718.806	71.93
718.99	71.78
719.174	71.52
719.357	72.01
719.541	72.1
719.724	71.61
719.908	72.71
720.092	73.59
720.275	73.54
720.459	72.98
720.642	73.11
720.826	72.23
721.009	71.77
721.193	71.41
721.376	71.83
721.559	72.46
721.743	73.28
721.926	73.46
722.11	74.21
722.293	73.9
722.476	73.77
722.66	73.41
722.843	73.26
723.026	72.61
723.21	73.36
723.393	73.7
723.576	73.67
723.759	73.38
723.942	73.68
724.126	73.43
724.309	73.65
724.492	73.65
724.675	73.82
724.858	74.58
725.041	75.04
725.224	74.69
725.407	75.04
725.59	75.69
725.774	75.36
725.957	74.54
726.14	74.89
726.322	74.75
726.505	74.27
726.688	75.05
726.871	75.95
727.054	75.79
727.237	76
727.42	76.63
727.603	75.29
727.786	75.36
727.968	75.32
728.151	75.37
728.334	74.83
728.517	75.59
728.699	76.23
728.882	76.14
729.065	76.59
729.248	77.04
729.43	77.53
729.613	77.61
729.796	78.31
729.978	77.46
730.161	77.46
730.343	76.9
730.526	76.95
730.708	75.84
730.891	76.76
731.073	76.86
731.256	77.03
731.438	76.59
731.621	77.8
731.803	78.09
731.986	77.8
732.168	77.46
732.35	77.83
732.533	77.11
732.715	76.49
732.898	77.48
733.08	77.72
733.262	77.56
733.444	78.34
733.627	78.95
733.809	78.99
733.991	79.93
734.173	79.35
734.355	79.23
734.538	78.9
734.72	78.18
734.902	78.19
735.084	78.82
735.266	78.65
735.448	78.93
735.63	79.08
735.812	79.04
735.994	80.46
736.176	80.67
736.358	80.21
736.54	81.47
736.722	81.14
736.904	80.03
737.086	80.05
737.268	81.04
737.45	80.42
737.632	80.48
737.814	80.23
737.995	80.54
738.177	79.97
738.359	78.9
738.541	79.24
738.723	79.04
738.904	79.32
739.086	79.58
739.268	80.33
739.449	80.48
739.631	80.24
739.813	79.86
739.994	79.74
740.176	79.83
740.358	79.43
740.539	81.46
740.721	81.56
740.902	82.57
741.084	82.59
741.265	83
741.447	82.52
741.628	82.89
741.81	81.72
741.991	82.47
742.172	82.35
742.354	81.7
742.535	81.38
742.717	82.65
742.898	82.36
743.079	82.63
743.261	82.91
743.442	82.64
743.623	83.09
743.804	83.21
743.986	83.35
744.167	81.68
744.348	81.77
744.529	81
744.71	79.44
744.891	78.74
745.073	79.07
745.254	78.27
745.435	77.65
745.616	78.35
745.797	78.82
745.978	79.02
746.159	80.2
746.34	79.72
746.521	80.92
746.702	79.89
746.883	80.11
747.064	78.88
747.245	79.37
747.426	78.18
747.606	78.7
747.787	79.21
747.968	80.63
748.149	81.09
748.33	81.34
748.51	80.67
748.691	80.14
748.872	79.25
749.053	78.44
749.233	77.08
749.414	76.5
749.595	76.01
749.775	75.52
749.956	75.43
750.137	75.79
750.317	77.47
750.498	78.39
750.678	79.29
750.859	79.2
751.04	80.23
751.22	78.66
751.4	78.06
751.581	75.56
751.761	76.75
751.942	76.9
752.122	77.6
752.303	77.13
752.483	78.69
752.663	77.16
752.844	75.66
753.024	77.75
753.204	79.08
753.385	77.9
753.565	77.63
753.745	79
753.925	76.39
754.106	74.9
754.286	76.48
754.466	75.81
754.646	76.77
754.826	77.17
755.006	76.82
755.187	77.44
755.367	79.13
755.547	77.33
755.727	78.46
755.907	77.97
756.087	78.02
756.267	76.47
756.447	75.72
756.627	73.88
756.807	76.22
756.987	75.54
757.167	76.71
757.346	76.83
757.526	76.01
757.706	75.87
757.886	76.29
758.066	75.91
758.246	77.49
758.425	77.77
758.605	76.92
758.785	76.78
758.965	77.49
759.144	75.67
759.324	76.56
759.504	76.8
759.683	76.17
759.863	73.53
760.043	72.51
760.222	72.41
760.402	71.37
760.581	72.41
760.761	74.62
760.94	74.94
761.12	76.03
761.299	76.93
761.479	75.82
761.658	74.15
761.838	74.04
762.017	74.31
762.197	74.49
762.376	74.42
762.555	75.95
762.735	77.15
762.914	74.58
763.093	73.92
763.273	72.84
763.452	72.93
763.631	72.15
763.81	73.05
763.99	73
764.169	73.65
764.348	70.66
764.527	70.35
764.706	72.74
764.885	74.96
765.064	74.77
765.243	77.13
765.423	79.13
765.602	78.02
765.781	75.53
765.96	74.54
766.139	73.4
766.318	72.38
766.497	70.54
766.676	70.7
766.854	71.78
767.033	73.29
767.212	72.37
767.391	73.64
767.57	74.98
767.749	74.66
767.928	74.58
768.106	74.95
768.285	72.27
768.464	71.59
768.643	71.29
768.821	70.29
769	71.54
769.179	72.3
769.357	69.85
769.536	70.57
769.715	71.1
769.893	71.97
770.072	71.8
770.25	72.26
770.429	73.17
770.607	72.31
770.786	69.55
770.964	69.38
771.143	69.43
771.321	70.53
771.5	70.18
771.678	70.05
771.857	69.2
772.035	69.42
772.213	66.38
772.392	65.9
772.57	69.56
772.748	71.83
772.927	71.89
773.105	72.57
773.283	73.96
773.461	73.08
773.64	72.67
773.818	72.48
773.996	72.81
774.174	71.19
774.352	68.14
774.531	66.1
774.709	68.16
774.887	67.22
775.065	66.45
775.243	66.79
775.421	67.08
775.599	68.31
775.777	67.37
775.955	65.52
776.133	65.34
776.311	65.96
776.489	60.91
776.667	60.57
776.844	64.41
777.022	63.01
777.2	63.55
777.378	63.75
777.556	64.26
777.734	65.59
777.911	67.69
778.089	67.75
778.267	69.08
778.445	68.29
778.622	64.6
778.8	64.01
778.978	64.92
779.155	64.92
779.333	65.78
779.511	64.08
779.688	67.37
779.866	64.16
780.043	61.36
780.221	61.35
780.398	62.91
780.576	61.11
780.753	64.59
780.931	64.28
781.108	64.05
781.286	66.66
781.463	63.06
781.64	59.38
781.818	62.63
781.995	62.02
782.172	59.47
782.35	63.09
782.527	66.8
782.704	65.02
782.882	65.54
783.059	66.68
783.236	67.94
783.413	66.32
783.59	68.41
783.768	65.68
783.945	62.97
784.122	60.37
784.299	59.87
784.476	56.72
784.653	59.63
784.83	58.36
785.007	55.02
785.184	56.07
785.361	56.52
785.538	61.67
785.715	65.48
785.892	68.01
786.069	67.82
786.246	71.13
786.423	64.72
786.6	63.35
786.776	65.48
786.953	63.1
787.13	64.31
787.307	64.95
787.484	64.22
787.66	58.58
787.837	58.26
788.014	54.41
788.191	54.37
788.367	53.46
788.544	58.17
788.721	58.7
788.897	60.49
789.074	59.19
789.25	58.28
789.427	58.13
789.603	59.31
789.78	60.37
789.956	59.55
790.133	59.63
790.309	60.24
790.486	61.86
790.662	58.47
790.839	60.62
791.015	62.71
791.192	59.09
791.368	59.91
791.544	58.64
791.721	56.25
791.897	56.51
792.073	56.04
792.249	48.85
792.426	51.96
792.602	57.1
792.778	53.99
792.954	52.4
793.13	52.96
793.307	47.77
793.483	36.27
793.659	38.02
793.835	41.91
794.011	41.03
794.187	40.01
794.363	43.66
794.539	47.09
794.715	38.88
794.891	39.97
795.067	40.36
795.243	47.65
795.419	43.3
795.595	46.66
795.771	50.66
795.947	50.18
796.122	46.09
796.298	50.62
796.474	51.42
796.65	49.7
796.826	50.54
797.001	51.69
797.177	45.1
797.353	49.46
797.529	54.52
797.704	56.09
797.88	53.06
798.056	55.71
798.231	52.53
798.407	50.58
798.582	48.76
798.758	55.36
798.934	66.8
799.109	64.38
799.285	58
799.46	61.75
799.636	59.75
799.811	50.44
799.986	56.9
800.162	58.7
800.337	55.86
800.513	47.67
800.688	43.68
800.863	46.7
801.039	41.85
801.214	36.65
801.389	45.29
801.565	44.96
801.74	30.47
801.915	36.1
802.09	41.11
802.265	42.5
802.441	42.71
802.616	48.03
802.791	50.16
802.966	54.47
803.141	52.04
803.316	47.46
803.491	52.33
803.666	55.79
803.841	54.28
804.016	52.48
804.191	60.24
804.366	53.49
804.541	45.66
804.716	41.55
804.891	39.22
805.066	45.06
805.241	44.18
805.416	41.18
805.591	37.41
805.765	38.61
805.94	33.7
806.115	38.58
806.29	36.72
806.464	40.43
806.639	38.06
806.814	33.46
806.989	18.85
807.163	34.71
807.338	34.58
807.512	29.68
807.687	16.75
807.862	37.86
808.036	33.12
808.211	29.52
808.385	41.99
808.56	58.06
808.734	52.65
808.909	42.08
809.083	47.17
809.258	49.46
809.432	49.93
809.606	39.32
809.781	39.42
809.955	39.97
810.13	39.27
810.304	33.45
810.478	24.65
810.652	30.04
810.827	37.68
811.001	32.94
811.175	31.32
811.349	42.94
811.524	35.62
811.698	20.1
811.872	18.57
812.046	26.89
812.22	34.42
812.394	38.1
812.568	40.66
812.742	43.17
812.916	35.28
813.09	18.82
813.264	22.09
813.438	30.1
813.612	33.87
813.786	32.3
813.96	47.12
814.134	38.52
814.308	50.27
814.482	50.29
814.656	43.7
814.83	45.21
815.003	47.77
815.177	31.87
815.351	23.79
815.525	33.23
815.698	25.9
815.872	21.35
816.046	15.69
816.219	25.01
816.393	31.51
816.567	35.43
816.74	37.4
816.914	48.39
817.088	48.52
817.261	27.34
817.435	14.91
817.608	25.1
817.782	-2.6
817.955	-13
818.129	-0.21
818.302	7.8
818.475	17.16
818.649	27.24
818.822	21.16
818.996	39.08
819.169	29.65
819.342	11.79
819.516	31.94
819.689	45.55
819.862	32.56
820.035	28.31
820.209	36.42
820.382	29.81
820.555	34.14
820.728	15.39
820.901	22.32
821.075	18.15
821.248	11.98
821.421	-18.81
821.594	3.58
821.767	36.65
821.94	41.01
822.113	17.78
822.286	18.04
822.459	30.73
822.632	-2.38
822.805	-9.04
822.978	-0.28
823.151	8.21
823.324	-14.2
823.496	-34.66
823.669	-41.84
823.842	-35.12
824.015	-51.49
824.188	-39.78
824.361	-33.64
824.533	-21.29
824.706	-10.2
824.879	-2.06
825.051	-1.34
825.224	1.58
825.397	-14.2
825.569	-29.21
825.742	-9.6
825.915	-17.55
826.087	5.06
826.26	1.71
826.432	17.62
826.605	32.36
826.777	26.52
826.95	7.52
827.122	-6.95
827.295	-20.01
827.467	-28.48
827.64	-63.25
827.812	-54.2
827.984	-43.8
828.157	-69.46
828.329	-107.63
828.501	-93.2
828.674	-45.52
828.846	-55.85
829.018	4.86
829.19	-24.1
829.363	19.86
829.535	-6.41
829.707	5.04
829.879	-25.14
830.051	-15.68
830.223	-42.8
830.395	-55.76
830.568	-62.85
830.74	-80.63
830.912	-42.36
831.084	-43.18
831.256	-34.08
831.428	-44.75
831.6	-35.68
831.772	-70.2
831.943	-87.92
832.115	-75.24
832.287	-38.08
832.459	-25.22
832.631	-11.51
832.803	24.38
832.975	31.72
833.146	24.76
833.318	7.1
833.49	8.88
833.662	-27.95
833.833	-39.99
834.005	-41.37
834.177	-39.37
834.348	-31.22
834.52	-54.38
834.692	-52.6
834.863	-87.85
835.035	-70.34
835.206	-160.24
835.378	-122.34
835.549	-95.97
835.721	-63.28
835.892	-64.01
836.064	-40.03
836.235	-38.22
836.407	-41.04
836.578	-91.61
836.749	-92.71
836.921	-122.63
837.092	-110.91
837.264	-102.32
837.435	-96.99
837.606	-53.77
837.777	-4.85
837.949	10.69
838.12	16.85
838.291	25.71
838.462	8.72
838.633	-46.9
838.805	-54.46
838.976	-77.44
839.147	-139.06
839.318	-106.96
839.489	-141.26
839.66	-123.57
839.831	-47.24
840.002	-58.75
840.173	-87.8
840.344	-18.53
840.515	-61.33
840.686	-257.79
840.857	-185.91
841.028	-177.11
841.199	-170.35
841.369	-170.79
841.54	-117.94
841.711	-84.12
841.882	-72
842.053	-51.49
842.223	-59.24
842.394	-48.85
842.565	-56.16
842.736	-27.52
842.906	-28.18
843.077	-0.34
843.248	4.44
843.418	-6.39
843.589	-50.83
843.759	-29.01
843.93	-25.7
844.101	-23.95
844.271	2.72
844.442	10.35
844.612	20.34
844.783	-19.23
844.953	-74.16
845.123	-113.99
845.294	-149.53
845.464	-486.27
845.635	-306.86
845.805	-168.69
845.975	-75.91
846.146	-117.78
846.316	-95.86
846.486	-45.6
846.656	-10.51
846.827	-27.1
846.997	-30.64
847.167	-3.53
847.337	-35.03
847.507	-95.63
847.677	-63.29
847.848	23.82
848.018	17.61
848.188	26.53
848.358	8.71
848.528	-16.89
848.698	-98.85
848.868	-249.52
849.038	-400.84
849.208	-144.06
849.378	-90.12
849.548	-49.78
849.718	-12.48
849.887	8.48
850.057	-35.03
850.227	-84.65
850.397	-121.59
850.567	-261.69
850.737	-661.3
850.906	-1957.5
851.076	-1284.38
851.246	-587.43
851.415	-95.92
851.585	-63.19
851.755	-74.91
851.924	-24.59
852.094	-93.24
852.264	-242.92
852.433	-1632.69
852.603	-341.58
852.772	-326.62
852.942	-137.14
853.111	-115.18
853.281	-33.02
853.45	-21.12
853.62	-116.18
853.789	-126.96
853.959	-100.76
854.128	-121.99
854.297	-160.59
854.467	-173.77
854.636	-165.14
854.805	-103.97
854.975	-174.71
855.144	-278.63
855.313	-383.92
855.482	-902.19
855.652	-497.54
855.821	-363.66
855.99	-110.92
856.159	-65.5
856.328	-28.18
856.497	-57.71
856.667	-47.56
856.836	-45.65
857.005	-78.34
857.174	-132.45
857.343	-159.44
857.512	-102.23
857.681	-132.77
857.85	-160.07
858.019	-108.97
858.188	-96.97
858.356	-127.2
858.525	-239.5
858.694	-223.26
858.863	-402.09
859.032	-300.52
859.201	-401.76
859.369	-294.64
859.538	-243.19
859.707	-160.15
859.876	-148.07
860.044	-155.29
860.213	-40.88
860.382	-72.29
860.55	-72.32
860.719	-34.66
860.888	-16.11
861.056	-77.85
861.225	-70.94
861.393	-30.98
861.562	-90.88
861.73	-185.16
861.899	-384.82
862.067	-3320.69
862.236	-244.55
862.404	-467.72
862.572	-316.2
862.741	-145.86
862.909	-129.53
863.078	-310.27
863.246	-180.95
863.414	-141.2
863.582	-102.51
863.751	-100.15
863.919	-70.29
864.087	-24.05
864.255	-91.42
864.424	-570.12
864.592	-155.14
864.76	-201.09
864.928	-628.8
865.096	-278.03
865.264	-142.32
865.432	-1902.27
865.6	-226.5
865.768	-194.95
865.936	-234.85
866.104	-295.99
866.272	-306.56
866.44	-524.41
866.608	777.72
866.776	340.05
866.944	3523.26
867.112	-715.68
867.28	-302.61
867.448	-174.75
867.615	-75
867.783	-51.05
867.951	-75.81
868.119	-67.59
868.286	-86.71
868.454	-290.35
868.622	-292.12
868.789	-323.68
868.957	-7414.29
869.125	-3757.89
869.292	-286.73
869.46	-413.44
869.627	-153.9
869.795	-117.16
869.963	-80.74
870.13	-37.18
870.298	-14.22
870.465	-78.12
870.632	-93.3
870.8	-89.1
870.967	-187.79
871.135	-292.13
871.302	-275.22
871.469	-309.29
871.637	-417.44
871.804	-251.59
871.971	-273.32
872.139	-752.09
872.306	-177.63
872.473	-183.38
872.64	-620.6
872.807	-300.97
872.975	-84.6
873.142	-464.73
873.309	3567.57
873.476	-84.51
873.643	-40.32
873.81	-121.1
873.977	-31.19
874.144	2.34
874.311	-151.76
874.478	-207.97
874.645	-193.08
874.812	-169.2
874.979	-100.58
875.146	-129.82
875.313	-145.1
875.48	-55.87
875.647	-57.37
875.813	-111.82
875.98	-81.74
876.147	-110.58
876.314	-222.65
876.481	1576.86
876.647	-2349.44
876.814	1027.46
876.981	-443.08
877.147	-204.99
877.314	-76.84
877.481	-31.45
877.647	-0.27
877.814	-49.72
877.98	-111.5
878.147	-83.38
878.314	-20.71
878.48	-106.06
878.647	-85.42
878.813	-15.42
878.979	-26.03
879.146	-90.21
879.312	-81.35
879.479	-168.94
879.645	-316.6
879.811	-518.61
879.978	-1126.72
880.144	-401.97
880.31	-187.68
880.477	-499.7
880.643	-685.56
880.809	-358.35
880.975	-228.76
881.142	-1581.82
881.308	-213.87
881.474	-89.03
881.64	-101.36
881.806	-230.39
881.972	-67.16
882.138	-68.96
882.304	-108.07
882.47	-186.21
882.636	-676.23
882.802	-316.24
882.968	-107.61
883.134	-81.9
883.3	-111.24
883.466	-45.43
883.632	-1.8
883.798	-62.85
883.964	-110.37
884.129	-77.16
884.295	-93.44
884.461	-162.99
884.627	-169.14
884.793	-163.96
884.958	-143.93
885.124	-258.49
885.29	-378.07
885.455	-811.17
885.621	-257.94
885.787	-339.33
885.952	-170.5
886.118	-150.92
886.283	-121.26
886.449	-286.27
886.614	-270
886.78	-512.31
886.945	1977.05
887.111	-873.99
887.276	-663.07
887.442	-1230
887.607	-592.92
887.773	-374.52
887.938	-335.25
888.103	-438.39
888.269	-345.18
888.434	-593.51
888.599	-259.48
888.764	-148.24
888.93	-76.73
889.095	-81.22
889.26	-120.9
889.425	-83.11
889.59	-114.42
889.756	-163.39
889.921	-115.69
890.086	-94.32
890.251	-120.69
890.416	-333.64
890.581	-2564.52
890.746	478.93
890.911	802.55
891.076	296.62
891.241	-855.22
891.406	-138.03
891.571	-231.75
891.736	-627.52
891.901	-1436.28
892.065	1829.67
892.23	288.96
892.395	383.95
892.56	576.59
892.725	-892.97
892.889	-2890.24
893.054	-517.67
893.219	-232.69
893.384	-127
893.548	-161.51
893.713	-144.73
893.878	-63.08
