Data from Ofra_PS_T2_2A_2HS09_Reflection_3.txt Node
Date: Wed Jul 21 17:10:42 EDT 2021
User: Adam
Spectrometer: FLMT01687
Trigger mode: 0
Integration Time (sec): 1.100000E0
Scans to average: 2
Electric dark correction enabled: true
Nonlinearity correction enabled: false
Boxcar width: 2
XAxis mode: Wavelengths
Number of Pixels in Spectrum: 3648
>>>>>Begin Spectral Data<<<<<
179.494	661
179.716	751.53
179.937	679.28
180.158	640.56
180.38	1104.53
180.601	460.91
180.823	106.71
181.044	-38.27
181.265	141.36
181.486	44.3
181.708	99.13
181.929	820.92
182.15	-520.07
182.372	68.83
182.593	75.17
182.814	77.93
183.035	150.22
183.257	121.88
183.478	71.44
183.699	39.4
183.92	-23.55
184.141	-16.33
184.363	-78.7
184.584	-30.34
184.805	7.67
185.026	61.95
185.247	45.8
185.468	34.53
185.689	33.85
185.91	33.01
186.132	23.97
186.353	20.27
186.574	52.07
186.795	51.44
187.016	19.15
187.237	2.22
187.458	-21.61
187.679	-29.5
187.9	-31.69
188.121	-16.98
188.342	-0.84
188.563	60.14
188.784	93.88
189.005	125.4
189.226	172.67
189.447	157.15
189.667	55.22
189.888	-217.36
190.109	-1262.66
190.33	-813.06
190.551	-1449.78
190.772	-328.39
190.993	-259.25
191.214	-201.15
191.434	-123.97
191.655	-19.54
191.876	-82.64
192.097	-130.11
192.318	-188.78
192.538	-338.78
192.759	-261.04
192.98	-112.94
193.201	-65.24
193.421	-34.41
193.642	3.91
193.863	11.67
194.083	-14.65
194.304	-14.39
194.525	-30.93
194.745	-65.36
194.966	-89.3
195.187	-73.79
195.407	-106.68
195.628	-123.67
195.848	-129.67
196.069	-110.83
196.29	-88.51
196.51	-88.13
196.731	-65.86
196.951	-87
197.172	-105.29
197.392	-146.56
197.613	-138.7
197.833	-201.38
198.054	-164.58
198.274	-91.96
198.495	-105.72
198.715	-70.78
198.936	-62.06
199.156	-53.94
199.377	-146.05
199.597	-117.11
199.817	-129.83
200.038	-73.6
200.258	-131.16
200.479	-74.43
200.699	-59.94
200.919	-5.83
201.14	-35.36
201.36	-34.55
201.58	11.15
201.801	25.83
202.021	-15.59
202.241	-21.07
202.461	-14.67
202.682	-136.01
202.902	-200.3
203.122	-106.09
203.342	-85.1
203.563	-37.49
203.783	-5.77
204.003	-41.15
204.223	-45.76
204.443	8.09
204.663	-23.83
204.884	-2.24
205.104	19.15
205.324	38.5
205.544	24.68
205.764	47.91
205.984	48.54
206.204	58.37
206.424	45.3
206.644	28.35
206.864	10.28
207.084	-13.39
207.304	-11.06
207.525	-121.95
207.745	-79.97
207.964	-37.48
208.184	-92.65
208.404	-125.22
208.624	-131.33
208.844	-139.03
209.064	-452.13
209.284	-460.17
209.504	-258.96
209.724	-71.53
209.944	-43.22
210.164	-8.39
210.384	10.93
210.604	3.22
210.823	-53.07
211.043	-49.94
211.263	-31.43
211.483	-21.78
211.703	-53.4
211.922	-6.35
212.142	40.71
212.362	48.22
212.582	7.33
212.801	9.6
213.021	-29.53
213.241	-61.94
213.461	-104.83
213.68	-109.53
213.9	-106.68
214.12	-80.81
214.339	-148.43
214.559	-100.12
214.779	-52.72
214.998	-40.18
215.218	-90.32
215.438	-49.18
215.657	-77.1
215.877	-72.44
216.096	-30.22
216.316	-17.96
216.535	-26.74
216.755	-2.52
216.974	-94.52
217.194	-135.35
217.413	-133.41
217.633	-127.04
217.852	-220.59
218.072	-107.27
218.291	-72.8
218.511	-15.14
218.73	-49.95
218.95	-46.46
219.169	-36.4
219.389	-74.2
219.608	-67.58
219.827	-58.93
220.047	-32.79
220.266	-29.94
220.485	-32.38
220.705	-24.98
220.924	-42.98
221.143	-13.11
221.363	-26.07
221.582	-4.95
221.801	-8.58
222.021	15.44
222.24	-60.79
222.459	-37.22
222.678	-87.33
222.897	-132.95
223.117	-172.27
223.336	-103.05
223.555	-81.13
223.774	-6.8
223.993	-16.72
224.213	58.21
224.432	23.94
224.651	42.31
224.87	-4.07
225.089	17.69
225.308	14.35
225.527	37.6
225.746	41.89
225.965	39.14
226.184	2.19
226.404	-2.05
226.623	-44.4
226.842	-54.27
227.061	-9.7
227.28	4.96
227.499	1.37
227.718	23.3
227.936	31.04
228.155	24.35
228.374	36.03
228.593	24.87
228.812	23.53
229.031	4.79
229.25	-47.23
229.469	-53.17
229.688	-45.72
229.907	-40.46
230.125	-15.47
230.344	15.77
230.563	28.49
230.782	39.2
231.001	-1.85
231.22	-1.89
231.438	13.32
231.657	5.06
231.876	-20.13
232.095	28.89
232.313	35.17
232.532	17.92
232.751	-12.73
232.969	-23.26
233.188	-97.2
233.407	-20.26
233.625	-23.11
233.844	-33.56
234.063	5.94
234.281	33.21
234.5	6.44
234.719	11.52
234.937	28.15
235.156	6.83
235.374	-10.41
235.593	-29.96
235.811	-44.15
236.03	-54.7
236.249	-87.54
236.467	-67.05
236.686	-20.36
236.904	-1.69
237.123	-13.11
237.341	-7.48
237.559	-0.41
237.778	-15.59
237.996	-26.1
238.215	-1.16
238.433	6.97
238.652	-6.28
238.87	-21.47
239.088	-21.59
239.307	-27.22
239.525	-15.5
239.743	-34.32
239.962	-15.8
240.18	-17.31
240.398	-53.41
240.617	-79.99
240.835	-46.72
241.053	-13.75
241.271	23.19
241.49	39.14
241.708	21.11
241.926	2.28
242.144	12.34
242.363	-11.5
242.581	-31.79
242.799	19.18
243.017	28.86
243.235	-14.42
243.453	-20.94
243.672	-15.31
243.89	-29.75
244.108	-35.08
244.326	-7.44
244.544	-7.23
244.762	7.99
244.98	34.84
245.198	35.9
245.416	-4.07
245.634	7.07
245.852	-14.66
246.07	-32.2
246.288	-46.25
246.506	-48.51
246.724	-41.47
246.942	-27.43
247.16	-8.63
247.378	-8.25
247.596	18.12
247.814	15.19
248.032	-23.75
248.25	-17.15
248.468	-4.83
248.685	1.44
248.903	16.61
249.121	42.66
249.339	15.94
249.557	1.58
249.775	6.17
249.992	-46.7
250.21	-66.4
250.428	-46.98
250.646	-49.13
250.863	-58.2
251.081	-20.15
251.299	-4.46
251.517	7.01
251.734	-5.97
251.952	-1.08
252.17	-1.68
252.387	9.6
252.605	2.04
252.823	11.64
253.04	5.38
253.258	4.96
253.475	-5.8
253.693	19.63
253.911	20.78
254.128	29.05
254.346	37.11
254.563	10.82
254.781	-26.91
254.998	-50.92
255.216	-51.64
255.433	-53.62
255.651	-1.42
255.868	25.5
256.086	39.87
256.303	28.74
256.521	20.18
256.738	-7.26
256.956	-29.47
257.173	-57.75
257.39	-71.84
257.608	-109.94
257.825	-11.16
258.043	18.7
258.26	41.04
258.477	72.59
258.695	90.1
258.912	5.28
259.129	11.64
259.346	-30
259.564	-57.63
259.781	-72.72
259.998	-28.52
260.216	-10.12
260.433	31.54
260.65	24.67
260.867	28.42
261.084	8.27
261.302	-18.6
261.519	-27.82
261.736	-66.58
261.953	-86.63
262.17	-45.29
262.387	-90.24
262.604	-152.35
262.822	-141.89
263.039	-116.36
263.256	-178.2
263.473	-125
263.69	-56.76
263.907	-5.26
264.124	2.83
264.341	-1.08
264.558	-0.93
264.775	-0.5
264.992	-18.12
265.209	-5.25
265.426	19.43
265.643	19.97
265.86	45.74
266.077	26.5
266.294	17.7
266.51	-8.36
266.727	-10.41
266.944	-18.84
267.161	-16.76
267.378	-21.56
267.595	4.8
267.812	-17.71
268.028	-46.71
268.245	-7.26
268.462	-21.59
268.679	-20.76
268.896	29.71
269.112	46.71
269.329	36.95
269.546	50.79
269.763	31.16
269.979	10.91
270.196	-14.16
270.413	-57.73
270.629	-85.31
270.846	-87.58
271.063	-80.81
271.279	-82.74
271.496	-49.84
271.712	-14.31
271.929	28.43
272.146	13.55
272.362	28.89
272.579	39.91
272.795	44.26
273.012	15.79
273.228	24.89
273.445	-9.91
273.661	-43.38
273.878	-106.2
274.094	-88.85
274.311	-123.3
274.527	-34.91
274.744	-29.69
274.96	-16.73
275.177	2.3
275.393	19.14
275.609	9.11
275.826	27.94
276.042	24.66
276.259	-13.95
276.475	4.94
276.691	3.81
276.908	-18.62
277.124	-6.87
277.34	5.03
277.557	-17.17
277.773	-30.99
277.989	-26.17
278.205	-34.74
278.422	-2.85
278.638	-3.07
278.854	31.51
279.07	32.95
279.286	32.89
279.503	-26.94
279.719	-20.03
279.935	-63.48
280.151	-87.13
280.367	-55.7
280.583	-54.11
280.799	-44.2
281.016	-58.52
281.232	-19.64
281.448	-33.31
281.664	-12.91
281.88	-46.04
282.096	-24.57
282.312	-6.34
282.528	20.19
282.744	30.67
282.96	37.85
283.176	27.14
283.392	1.72
283.608	-11.06
283.824	-22.01
284.04	-21
284.256	-33.83
284.471	-36.85
284.687	-39.29
284.903	-19.54
285.119	-0.9
285.335	-10.92
285.551	-4.84
285.767	-12.4
285.982	-19.06
286.198	-55.54
286.414	10.29
286.63	20.63
286.846	47.04
287.061	34.07
287.277	57.36
287.493	30.88
287.709	47.7
287.924	29.22
288.14	63.69
288.356	71.46
288.571	74.52
288.787	38.13
289.003	42.11
289.218	13.6
289.434	-39.1
289.65	-28.42
289.865	-12.25
290.081	-4.14
290.296	1.49
290.512	26.78
290.727	-16.99
290.943	-18.68
291.159	-29.3
291.374	-23.89
291.59	-37.58
291.805	-20.22
292.021	-13.74
292.236	-9.47
292.451	7.46
292.667	19.83
292.882	38.22
293.098	32.84
293.313	-0.95
293.529	-47.61
293.744	-76.61
293.959	-70.06
294.175	-57.8
294.39	-9.99
294.605	8.89
294.821	39.42
295.036	39.07
295.251	47.96
295.467	27.81
295.682	10.38
295.897	-48.37
296.112	-59.75
296.328	-53.28
296.543	-77.94
296.758	-48.07
296.973	-2.56
297.188	15.99
297.404	-5.68
297.619	-6.69
297.834	-20.61
298.049	-44.93
298.264	-44.23
298.479	-6.33
298.694	-5.55
298.909	17.18
299.125	22.07
299.34	24.18
299.555	-11.05
299.77	11.21
299.985	-40.86
300.2	-93.75
300.415	-121.66
300.63	-70.57
300.845	-83.34
301.06	-78.47
301.275	-26.06
301.49	5.87
301.704	-6.82
301.919	-29.02
302.134	-42.37
302.349	-58.91
302.564	-130.15
302.779	-185.61
302.994	-151.45
303.209	-68.38
303.423	-38.69
303.638	20.55
303.853	-12.36
304.068	-14.1
304.283	-9.28
304.497	-8.17
304.712	-11.72
304.927	9.6
305.142	5.36
305.356	6.65
305.571	-2.44
305.786	-18.3
306	-33.18
306.215	-29.75
306.43	-60.02
306.644	-41.19
306.859	-27.05
307.074	-21.52
307.288	-58.65
307.503	-72.79
307.717	-68.56
307.932	-53.24
308.147	-48.9
308.361	-7.06
308.576	-10.58
308.79	-25.66
309.005	-31.08
309.219	-25.77
309.434	-38.04
309.648	-36.25
309.863	-24.24
310.077	-30.14
310.292	-17.68
310.506	-16.26
310.72	10.11
310.935	6.09
311.149	1.3
311.364	16.62
311.578	28.38
311.792	8.77
312.007	20.85
312.221	9.39
312.435	-0.15
312.649	-11.02
312.864	-25.53
313.078	-9.73
313.292	56.35
313.507	41.5
313.721	50.03
313.935	63.46
314.149	41.01
314.363	15.83
314.578	8.46
314.792	10.55
315.006	-9.51
315.22	10.13
315.434	11.22
315.648	17.91
315.862	4.92
316.077	10.65
316.291	-22.48
316.505	-21.34
316.719	-20.18
316.933	-28.86
317.147	-27.22
317.361	-80.72
317.575	-93.43
317.789	-147.22
318.003	-221.31
318.217	-172.73
318.431	-59.26
318.645	-6.22
318.859	2.46
319.073	29.08
319.287	10.14
319.5	-15.67
319.714	-67.09
319.928	-91.2
320.142	-106.48
320.356	-48.6
320.57	-13.54
320.784	-22.1
320.997	-38.85
321.211	-37.45
321.425	-102.28
321.639	-123.75
321.853	-55.8
322.066	-27.83
322.28	-36.26
322.494	-19.56
322.707	10.59
322.921	-0.36
323.135	5.81
323.349	20.72
323.562	-2.76
323.776	-28.21
323.989	-37.33
324.203	-70.16
324.417	-81.21
324.63	-90.27
324.844	-82.07
325.057	-82.29
325.271	-56.84
325.485	-24.38
325.698	1.65
325.912	15.1
326.125	-0.65
326.339	13.31
326.552	7.33
326.766	-7.05
326.979	14.11
327.193	48.34
327.406	39.11
327.619	32.61
327.833	50.23
328.046	15.27
328.26	-26.17
328.473	-13.58
328.686	-51.56
328.9	-45.15
329.113	-22.43
329.326	-31.06
329.54	-20.86
329.753	-33.14
329.966	-77.78
330.179	-67.2
330.393	-30.64
330.606	-23.21
330.819	11.09
331.032	34.87
331.246	39.82
331.459	66.41
331.672	60.17
331.885	45.24
332.098	4.4
332.311	-14.09
332.525	-80.86
332.738	-90.74
332.951	-52.78
333.164	5.6
333.377	3.32
333.59	14.94
333.803	16.14
334.016	12.36
334.229	-10.34
334.442	9.89
334.655	24.79
334.868	42.93
335.081	10.64
335.294	1.62
335.507	-6.47
335.72	-8.25
335.933	-31.94
336.146	-26.08
336.359	-19.83
336.572	-57.58
336.785	-83.55
336.997	-65.08
337.21	-30.09
337.423	-49.17
337.636	-30.44
337.849	-9.37
338.062	-25.69
338.274	-26.65
338.487	-15.22
338.7	-32.84
338.913	-81.74
339.125	-98.8
339.338	-172.94
339.551	-158.65
339.763	-97.02
339.976	-52.93
340.189	-15.4
340.402	11.19
340.614	6.03
340.827	0.15
341.039	-5.29
341.252	-15.19
341.465	-1.42
341.677	-0.19
341.89	-46.17
342.102	-29.2
342.315	-39.11
342.527	-68.23
342.74	-66.39
342.952	-7.01
343.165	-11.85
343.377	22.32
343.59	5.37
343.802	27.16
344.015	17.5
344.227	30.19
344.44	10.82
344.652	25.75
344.864	6.58
345.077	20.36
345.289	20.49
345.502	23.08
345.714	8.1
345.926	13.34
346.139	1.7
346.351	12.17
346.563	14.64
346.775	18.46
346.988	3.45
347.2	-15.19
347.412	-66.47
347.624	-77.37
347.837	-91.98
348.049	-47.09
348.261	-2.27
348.473	4.27
348.685	-5.99
348.897	1.73
349.11	-24
349.322	-50.75
349.534	-17.69
349.746	-20.6
349.958	-23.59
350.17	-18.07
350.382	0.16
350.594	-26.03
350.806	-15.31
351.018	-0.53
351.23	-14.95
351.442	-68.04
351.654	-37.15
351.866	-26.56
352.078	-25.04
352.29	-1.86
352.502	24.41
352.714	33.17
352.926	19.59
353.138	12.91
353.35	-0.01
353.561	-9.26
353.773	-44.53
353.985	-27.65
354.197	-30.23
354.409	-34.29
354.621	-34.75
354.832	-18.37
355.044	-34.9
355.256	-37.68
355.468	-19.53
355.679	-25.43
355.891	-17.82
356.103	-22.07
356.314	-16.66
356.526	-8.72
356.738	4.32
356.949	-16.14
357.161	4.43
357.373	-8.23
357.584	-37.12
357.796	-26.54
358.008	-22.86
358.219	-17.45
358.431	-10.39
358.642	6.97
358.854	5.2
359.065	-9.83
359.277	-38.2
359.488	-59.34
359.7	-79.07
359.911	-87.64
360.123	-55.25
360.334	-59.2
360.546	-62.2
360.757	-60.96
360.969	-41.22
361.18	-34.01
361.391	-11.78
361.603	-15.46
361.814	-1.48
362.025	-17.52
362.237	-20.64
362.448	-9.93
362.659	20.69
362.871	10.83
363.082	10.53
363.293	14.12
363.504	2.16
363.716	-26.43
363.927	-37.27
364.138	-65.75
364.349	-77.82
364.56	-69.57
364.772	-56.43
364.983	-26.98
365.194	-15.68
365.405	-0.46
365.616	18.32
365.827	21.46
366.038	1.24
366.25	4.05
366.461	-30.04
366.672	-13.67
366.883	-6.6
367.094	5.04
367.305	-6.42
367.516	-1.51
367.727	-38.74
367.938	-43.08
368.149	-50.26
368.36	-26.26
368.571	-12.87
368.781	-30.87
368.992	-43.45
369.203	-51.56
369.414	-75.89
369.625	-94.52
369.836	-74.66
370.047	-98.96
370.258	-78.37
370.468	-75.35
370.679	-78.01
370.89	-64.9
371.101	-41.5
371.312	-46.85
371.522	-41.71
371.733	-29.75
371.944	-15.28
372.155	-3.48
372.365	-11.27
372.576	-6.72
372.787	-10.95
372.997	-38.83
373.208	-44.82
373.419	-15.51
373.629	-40.64
373.84	-37.37
374.05	-37.32
374.261	-20.97
374.472	-40.25
374.682	-4.45
374.893	-11.47
375.103	23.76
375.314	13.94
375.524	4.57
375.735	10.43
375.945	14.25
376.156	-11.68
376.366	-5.28
376.577	1.36
376.787	-14.77
376.997	-5.17
377.208	-3.48
377.418	-17.63
377.629	-16.21
377.839	-5.02
378.049	-4.53
378.26	9.09
378.47	13.99
378.68	9.24
378.89	-2.79
379.101	-13.03
379.311	-46.28
379.521	-77.13
379.732	-82.08
379.942	-70.23
380.152	-84.16
380.362	-46.54
380.572	-26.57
380.783	-10.72
380.993	-8.86
381.203	6.18
381.413	9.76
381.623	6.92
381.833	4.25
382.043	-1.05
382.253	-8.25
382.463	-11.09
382.674	-24.82
382.884	-36.62
383.094	-32.69
383.304	-28.91
383.514	-25.38
383.724	-10.81
383.934	-15.91
384.144	-32.3
384.353	-38.69
384.563	-31.52
384.773	-25.47
384.983	-22.46
385.193	-0.74
385.403	9.83
385.613	1.51
385.823	-12.89
386.033	-9.21
386.242	-14.87
386.452	-21.62
386.662	-27.29
386.872	-8.47
387.082	-15.02
387.291	-22.45
387.501	-23.2
387.711	-10.68
387.921	-24.82
388.13	-23.34
388.34	-4.39
388.55	-8.94
388.759	-11.64
388.969	-1.62
389.179	-1.54
389.388	-5.11
389.598	-1.63
389.807	-7.62
390.017	-14.58
390.227	-11.18
390.436	-13.88
390.646	-7.59
390.855	-2.9
391.065	-1.64
391.274	-5.43
391.484	-7.81
391.693	-7.73
391.903	-6.94
392.112	-1.88
392.322	1.63
392.531	3.98
392.74	5.26
392.95	-0.33
393.159	-3.39
393.369	-2.78
393.578	-1.68
393.787	-4.03
393.997	-0.88
394.206	-1.88
394.415	-1.04
394.625	-2
394.834	-3.23
395.043	-2.25
395.252	0.9
395.462	2.58
395.671	4.21
395.88	5.36
396.089	6.07
396.298	4.2
396.508	3.85
396.717	2.08
396.926	2.45
397.135	1.92
397.344	1.72
397.553	1.67
397.762	3.82
397.971	3.05
398.181	3.22
398.39	2.57
398.599	2.26
398.808	1.29
399.017	2.32
399.226	3.51
399.435	5.51
399.644	5.68
399.853	5.12
400.062	4.39
400.27	3.34
400.479	2.41
400.688	1.85
400.897	2.19
401.106	2.39
401.315	2.37
401.524	2.37
401.733	2.66
401.941	3.28
402.15	3.21
402.359	3.23
402.568	3.56
402.777	3.94
402.985	3.3
403.194	3.15
403.403	3.1
403.612	2.66
403.82	2.29
404.029	2.53
404.238	2.64
404.446	3
404.655	2.91
404.864	3.07
405.072	2.85
405.281	2.93
405.489	2.58
405.698	2.63
405.906	2.5
406.115	2.5
406.324	2.32
406.532	2.53
406.741	2.78
406.949	2.77
407.158	2.77
407.366	2.94
407.574	2.86
407.783	2.84
407.991	2.66
408.2	2.87
408.408	2.83
408.617	2.76
408.825	2.5
409.033	2.63
409.242	2.62
409.45	2.82
409.658	2.76
409.867	2.93
410.075	2.85
410.283	2.65
410.491	2.48
410.7	2.33
410.908	2.38
411.116	2.65
411.324	2.7
411.533	2.6
411.741	2.93
411.949	2.89
412.157	2.64
412.365	2.79
412.573	2.9
412.781	2.9
412.99	2.67
413.198	2.83
413.406	2.67
413.614	2.55
413.822	2.35
414.03	2.44
414.238	2.24
414.446	2.38
414.654	2.22
414.862	2.37
415.07	2.48
415.278	2.61
415.486	2.35
415.694	2.52
415.902	2.29
416.109	2.31
416.317	2.34
416.525	2.29
416.733	2.28
416.941	2.45
417.149	2.42
417.357	2.48
417.564	2.64
417.772	2.78
417.98	2.7
418.188	2.46
418.395	2.43
418.603	2.54
418.811	2.26
419.019	2.19
419.226	2.59
419.434	2.6
419.642	2.32
419.849	2.39
420.057	2.48
420.265	2.2
420.472	1.93
420.68	2.08
420.887	2.04
421.095	2.06
421.302	2.18
421.51	2.36
421.717	2.36
421.925	2.41
422.132	2.22
422.34	1.87
422.547	1.86
422.755	1.85
422.962	1.77
423.17	1.75
423.377	1.92
423.585	1.9
423.792	1.8
423.999	1.92
424.207	1.99
424.414	2.15
424.621	2.1
424.829	2.17
425.036	2.14
425.243	2.31
425.451	2.07
425.658	1.95
425.865	2.13
426.072	2.22
426.28	2.35
426.487	2.33
426.694	2.47
426.901	2.13
427.108	2
427.315	1.81
427.523	2.11
427.73	2.09
427.937	2.21
428.144	2.09
428.351	2.01
428.558	2.12
428.765	2.03
428.972	1.86
429.179	2.1
429.386	2.34
429.593	1.94
429.8	1.9
430.007	2.16
430.214	2.26
430.421	2.11
430.628	2.01
430.835	1.94
431.042	1.99
431.249	1.96
431.456	1.97
431.662	2.26
431.869	2.46
432.076	2.48
432.283	2.55
432.49	2.57
432.697	2.52
432.903	2.29
433.11	2.21
433.317	2.08
433.524	2.25
433.73	2.15
433.937	2.47
434.144	2.46
434.35	2.51
434.557	2.23
434.764	2.28
434.97	2.07
435.177	2.22
435.384	2.12
435.59	2.34
435.797	2.5
436.003	2.67
436.21	2.59
436.416	2.73
436.623	2.72
436.829	2.83
437.036	2.86
437.242	2.83
437.449	2.68
437.655	2.61
437.862	2.51
438.068	2.43
438.275	2.63
438.481	2.88
438.687	2.92
438.894	2.88
439.1	2.87
439.307	2.97
439.513	2.83
439.719	2.83
439.926	2.94
440.132	2.93
440.338	2.67
440.544	2.84
440.751	2.86
440.957	2.9
441.163	2.9
441.369	3.13
441.575	2.81
441.782	2.78
441.988	2.58
442.194	2.56
442.4	2.41
442.606	2.69
442.812	2.79
443.018	2.99
443.224	2.99
443.431	3.16
443.637	2.97
443.843	2.88
444.049	2.89
444.255	2.95
444.461	2.93
444.667	2.94
444.873	3.09
445.079	3.01
445.284	3.06
445.49	2.85
445.696	2.73
445.902	2.7
446.108	2.72
446.314	2.62
446.52	2.76
446.726	3.12
446.931	3.03
447.137	3.03
447.343	3.13
447.549	3.02
447.755	2.82
447.96	2.9
448.166	2.8
448.372	2.84
448.578	2.9
448.783	2.93
448.989	2.97
449.195	3.22
449.4	3.15
449.606	3.16
449.812	3.12
450.017	3.11
450.223	3
450.428	2.91
450.634	3.06
450.84	3.15
451.045	3.11
451.251	3.08
451.456	3.4
451.662	3.4
451.867	3.5
452.073	3.53
452.278	3.59
452.483	3.57
452.689	3.54
452.894	3.49
453.1	3.45
453.305	3.41
453.51	3.37
453.716	3.27
453.921	3.3
454.127	3.33
454.332	3.3
454.537	3.22
454.742	3.28
454.948	3.27
455.153	3.29
455.358	3.37
455.563	3.51
455.769	3.59
455.974	3.53
456.179	3.4
456.384	3.39
456.589	3.32
456.795	3.07
457	3.07
457.205	3.31
457.41	3.3
457.615	3.21
457.82	3.36
458.025	3.42
458.23	3.33
458.435	3.27
458.64	3.27
458.845	3.35
459.05	3.28
459.255	3.21
459.46	3.25
459.665	3.29
459.87	3.29
460.075	3.34
460.28	3.38
460.485	3.45
460.69	3.38
460.895	3.23
461.099	3.23
461.304	3.48
461.509	3.46
461.714	3.5
461.919	3.7
462.123	3.61
462.328	3.54
462.533	3.49
462.738	3.62
462.942	3.51
463.147	3.73
463.352	3.69
463.556	3.7
463.761	3.61
463.966	3.62
464.17	3.46
464.375	3.36
464.58	3.39
464.784	3.38
464.989	3.37
465.193	3.47
465.398	3.46
465.602	3.57
465.807	3.58
466.011	3.71
466.216	3.74
466.42	3.85
466.625	3.84
466.829	3.97
467.034	3.95
467.238	4.13
467.443	4.04
467.647	3.94
467.851	3.98
468.056	4.03
468.26	3.86
468.464	3.9
468.669	4.06
468.873	4.22
469.077	4.14
469.282	4.28
469.486	4.38
469.69	4.41
469.894	4.16
470.099	4.25
470.303	4.3
470.507	4.17
470.711	4.03
470.915	3.99
471.119	3.92
471.324	3.74
471.528	3.85
471.732	3.97
471.936	4.03
472.14	4.09
472.344	4.21
472.548	4.22
472.752	4.34
472.956	4.63
473.16	4.64
473.364	4.55
473.568	4.6
473.772	4.6
473.976	4.41
474.18	4.39
474.384	4.51
474.588	4.45
474.792	4.31
474.995	4.33
475.199	4.5
475.403	4.57
475.607	4.62
475.811	4.65
476.015	4.71
476.218	4.7
476.422	4.54
476.626	4.68
476.83	4.86
477.033	4.87
477.237	4.75
477.441	4.93
477.644	4.81
477.848	4.79
478.052	4.73
478.255	4.77
478.459	4.7
478.663	4.84
478.866	4.84
479.07	4.92
479.273	5.11
479.477	5.14
479.681	5.13
479.884	5.05
480.088	4.96
480.291	4.86
480.495	4.89
480.698	4.97
480.901	5.05
481.105	5.3
481.308	5.23
481.512	5.19
481.715	5.19
481.919	5.25
482.122	5.13
482.325	5.15
482.529	5.21
482.732	5.17
482.935	5.04
483.138	4.98
483.342	5.06
483.545	5.1
483.748	5.13
483.952	5.24
484.155	5.4
484.358	5.47
484.561	5.46
484.764	5.41
484.967	5.47
485.171	5.57
485.374	5.5
485.577	5.62
485.78	5.71
485.983	5.75
486.186	5.53
486.389	5.51
486.592	5.43
486.795	5.42
486.998	5.36
487.201	5.5
487.404	5.58
487.607	5.65
487.81	5.68
488.013	5.75
488.216	5.65
488.419	5.65
488.622	5.54
488.825	5.48
489.028	5.39
489.231	5.46
489.433	5.38
489.636	5.36
489.839	5.31
490.042	5.29
490.245	5.2
490.447	5.25
490.65	5.31
490.853	5.39
491.056	5.46
491.258	5.51
491.461	5.53
491.664	5.63
491.866	5.62
492.069	5.68
492.272	5.65
492.474	5.68
492.677	5.67
492.879	5.74
493.082	5.8
493.285	5.98
493.487	5.96
493.69	5.9
493.892	5.8
494.095	5.74
494.297	5.6
494.5	5.67
494.702	5.77
494.905	5.85
495.107	5.9
495.309	5.97
495.512	6
495.714	6
495.917	6.03
496.119	5.97
496.321	6.05
496.524	6.03
496.726	6.02
496.928	6.01
497.13	6.02
497.333	5.98
497.535	6.04
497.737	6.07
497.939	6.07
498.142	6.13
498.344	6.16
498.546	6.1
498.748	6.14
498.95	6.3
499.152	6.32
499.355	6.31
499.557	6.39
499.759	6.44
499.961	6.36
500.163	6.42
500.365	6.44
500.567	6.46
500.769	6.36
500.971	6.37
501.173	6.25
501.375	6.29
501.577	6.24
501.779	6.29
501.981	6.31
502.183	6.41
502.385	6.34
502.587	6.27
502.788	6.31
502.99	6.39
503.192	6.47
503.394	6.54
503.596	6.66
503.798	6.72
503.999	6.74
504.201	6.69
504.403	6.74
504.605	6.78
504.806	6.73
505.008	6.73
505.21	6.83
505.411	6.83
505.613	6.89
505.815	6.92
506.016	6.99
506.218	6.99
506.42	7.06
506.621	7.06
506.823	7.11
507.024	7.02
507.226	7.05
507.427	7.02
507.629	7.09
507.83	7.15
508.032	7.19
508.233	7.23
508.435	7.29
508.636	7.35
508.838	7.27
509.039	7.29
509.24	7.29
509.442	7.36
509.643	7.23
509.845	7.3
510.046	7.4
510.247	7.42
510.448	7.34
510.65	7.42
510.851	7.54
511.052	7.5
511.254	7.54
511.455	7.69
511.656	7.75
511.857	7.81
512.058	7.84
512.26	7.81
512.461	7.74
512.662	7.75
512.863	7.62
513.064	7.59
513.265	7.65
513.466	7.77
513.667	7.79
513.868	7.89
514.069	8.03
514.27	8.13
514.471	8.07
514.672	8.12
514.873	8.08
515.074	8.17
515.275	8.07
515.476	8.05
515.677	8.05
515.878	8.23
516.079	8.11
516.28	8.2
516.481	8.35
516.682	8.39
516.882	8.29
517.083	8.24
517.284	8.17
517.485	8.07
517.686	8.04
517.886	8.06
518.087	8.15
518.288	8.27
518.488	8.26
518.689	8.31
518.89	8.26
519.091	8.33
519.291	8.36
519.492	8.41
519.692	8.47
519.893	8.62
520.094	8.62
520.294	8.55
520.495	8.59
520.695	8.61
520.896	8.58
521.096	8.62
521.297	8.69
521.497	8.71
521.698	8.65
521.898	8.64
522.099	8.58
522.299	8.66
522.499	8.68
522.7	8.78
522.9	8.84
523.101	8.96
523.301	8.89
523.501	8.86
523.702	8.85
523.902	8.86
524.102	8.91
524.302	8.9
524.503	8.99
524.703	8.98
524.903	9.04
525.103	8.96
525.304	9.07
525.504	9.14
525.704	9.21
525.904	9.2
526.104	9.22
526.304	9.21
526.504	9.22
526.705	9.18
526.905	9.23
527.105	9.26
527.305	9.32
527.505	9.26
527.705	9.29
527.905	9.27
528.105	9.3
528.305	9.24
528.505	9.29
528.705	9.34
528.905	9.33
529.105	9.32
529.304	9.37
529.504	9.45
529.704	9.42
529.904	9.49
530.104	9.48
530.304	9.54
530.503	9.47
530.703	9.46
530.903	9.44
531.103	9.57
531.303	9.51
531.502	9.56
531.702	9.64
531.902	9.69
532.101	9.57
532.301	9.63
532.501	9.68
532.7	9.65
532.9	9.68
533.1	9.76
533.299	9.76
533.499	9.8
533.698	9.81
533.898	9.81
534.097	9.85
534.297	9.92
534.496	9.91
534.696	9.97
534.895	10.09
535.095	10.16
535.294	10.11
535.494	10.09
535.693	10.14
535.892	10.14
536.092	10.06
536.291	10.13
536.491	10.22
536.69	10.22
536.889	10.11
537.088	10.11
537.288	10.17
537.487	10.23
537.686	10.24
537.886	10.38
538.085	10.48
538.284	10.56
538.483	10.55
538.682	10.64
538.882	10.71
539.081	10.78
539.28	10.69
539.479	10.68
539.678	10.63
539.877	10.66
540.076	10.65
540.275	10.72
540.474	10.84
540.673	10.9
540.872	10.88
541.071	10.97
541.27	11
541.469	11.07
541.668	11.11
541.867	11.21
542.066	11.19
542.265	11.3
542.464	11.25
542.663	11.32
542.862	11.4
543.06	11.48
543.259	11.49
543.458	11.59
543.657	11.62
543.856	11.6
544.054	11.57
544.253	11.57
544.452	11.58
544.651	11.64
544.849	11.64
545.048	11.8
545.247	11.86
545.445	11.92
545.644	11.92
545.843	11.92
546.041	11.93
546.24	12.03
546.438	12.18
546.637	12.31
546.836	12.49
547.034	12.59
547.233	12.6
547.431	12.59
547.63	12.61
547.828	12.65
548.027	12.67
548.225	12.7
548.423	12.73
548.622	12.84
548.82	12.86
549.019	12.96
549.217	13.1
549.415	13.16
549.614	13.19
549.812	13.23
550.01	13.21
550.209	13.28
550.407	13.38
550.605	13.46
550.803	13.57
551.002	13.72
551.2	13.79
551.398	13.95
551.596	14.08
551.794	14.18
551.993	14.26
552.191	14.31
552.389	14.4
552.587	14.5
552.785	14.56
552.983	14.64
553.181	14.74
553.379	14.76
553.577	14.78
553.775	14.97
553.973	15.08
554.171	15.24
554.369	15.26
554.567	15.37
554.765	15.39
554.963	15.53
555.161	15.53
555.359	15.67
555.557	15.86
555.755	15.95
555.952	16.03
556.15	16.12
556.348	16.26
556.546	16.33
556.744	16.41
556.941	16.47
557.139	16.62
557.337	16.69
557.535	16.67
557.732	16.78
557.93	17.01
558.128	17.07
558.325	17.21
558.523	17.25
558.721	17.35
558.918	17.32
559.116	17.49
559.313	17.51
559.511	17.78
559.708	17.86
559.906	17.93
560.104	17.94
560.301	18.05
560.498	18.13
560.696	18.27
560.893	18.49
561.091	18.62
561.288	18.83
561.486	18.93
561.683	19.08
561.88	19.08
562.078	19.24
562.275	19.18
562.473	19.32
562.67	19.46
562.867	19.68
563.064	19.8
563.262	19.97
563.459	20
563.656	20.11
563.853	20.12
564.051	20.16
564.248	20.27
564.445	20.47
564.642	20.58
564.839	20.79
565.036	21
565.234	21.16
565.431	21.19
565.628	21.28
565.825	21.41
566.022	21.6
566.219	21.72
566.416	21.83
566.613	22
566.81	22.09
567.007	22.01
567.204	22.08
567.401	22.25
567.598	22.25
567.795	22.28
567.991	22.4
568.188	22.53
568.385	22.61
568.582	22.72
568.779	22.86
568.976	22.95
569.172	23.04
569.369	23.09
569.566	23.11
569.763	23.13
569.96	23.17
570.156	23.12
570.353	23.13
570.55	23.16
570.746	23.22
570.943	23.27
571.14	23.41
571.336	23.45
571.533	23.61
571.729	23.59
571.926	23.67
572.123	23.7
572.319	23.77
572.516	23.81
572.712	23.94
572.909	23.93
573.105	24.05
573.302	24.18
573.498	24.25
573.695	24.18
573.891	24.31
574.087	24.31
574.284	24.22
574.48	24.14
574.677	24.26
574.873	24.22
575.069	24.24
575.266	24.33
575.462	24.42
575.658	24.55
575.854	24.67
576.051	24.77
576.247	24.75
576.443	24.74
576.639	24.6
576.835	24.55
577.032	24.43
577.228	24.5
577.424	24.59
577.62	24.64
577.816	24.57
578.012	24.59
578.208	24.58
578.404	24.66
578.6	24.74
578.796	24.85
578.993	24.92
579.189	24.87
579.384	24.68
579.58	24.52
579.776	24.44
579.972	24.33
580.168	24.37
580.364	24.41
580.56	24.47
580.756	24.46
580.952	24.5
581.148	24.47
581.343	24.43
581.539	24.47
581.735	24.57
581.931	24.64
582.127	24.71
582.322	24.69
582.518	24.66
582.714	24.54
582.909	24.48
583.105	24.42
583.301	24.46
583.496	24.47
583.692	24.52
583.888	24.48
584.083	24.53
584.279	24.56
584.474	24.54
584.67	24.56
584.866	24.62
585.061	24.38
585.257	24.41
585.452	24.47
585.648	24.41
585.843	24.36
586.039	24.47
586.234	24.41
586.429	24.25
586.625	24.38
586.82	24.39
587.015	24.38
587.211	24.32
587.406	24.31
587.601	24.16
587.797	24.17
587.992	24.21
588.187	24.36
588.383	24.41
588.578	24.42
588.773	24.45
588.968	24.4
589.163	24.42
589.359	24.4
589.554	24.38
589.749	24.38
589.944	24.46
590.139	24.41
590.334	24.53
590.529	24.57
590.724	24.62
590.919	24.78
591.114	24.83
591.309	24.85
591.504	25
591.699	24.93
591.894	25.01
592.089	24.99
592.284	25.06
592.479	25.16
592.674	25.23
592.869	25.22
593.064	25.35
593.259	25.39
593.454	25.46
593.648	25.57
593.843	25.56
594.038	25.58
594.233	25.57
594.428	25.54
594.622	25.61
594.817	25.85
595.012	25.92
595.206	26.04
595.401	26.08
595.596	26.19
595.79	26.22
595.985	26.33
596.18	26.54
596.374	26.64
596.569	26.7
596.763	26.59
596.958	26.75
597.153	26.74
597.347	26.69
597.542	26.72
597.736	26.89
597.931	26.94
598.125	27.02
598.319	27.25
598.514	27.28
598.708	27.33
598.903	27.32
599.097	27.34
599.291	27.35
599.486	27.41
599.68	27.49
599.874	27.52
600.069	27.62
600.263	27.59
600.457	27.69
600.651	27.69
600.846	27.82
601.04	27.9
601.234	28.03
601.428	28.17
601.622	28.25
601.817	28.28
602.011	28.31
602.205	28.41
602.399	28.37
602.593	28.33
602.787	28.38
602.981	28.26
603.175	28.33
603.369	28.24
603.563	28.33
603.757	28.33
603.951	28.43
604.145	28.38
604.339	28.53
604.533	28.42
604.727	28.46
604.921	28.35
605.115	28.36
605.309	28.32
605.502	28.41
605.696	28.32
605.89	28.4
606.084	28.3
606.278	28.28
606.471	28.16
606.665	28.12
606.859	27.96
607.053	27.93
607.246	27.88
607.44	27.9
607.634	27.74
607.827	27.85
608.021	27.67
608.214	27.69
608.408	27.53
608.602	27.6
608.795	27.53
608.989	27.58
609.182	27.47
609.376	27.5
609.569	27.38
609.763	27.28
609.956	27.16
610.15	27.04
610.343	26.87
610.537	26.82
610.73	26.75
610.923	26.66
611.117	26.59
611.31	26.6
611.504	26.54
611.697	26.43
611.89	26.44
612.083	26.45
612.277	26.53
612.47	26.44
612.663	26.37
612.856	26.24
613.05	26.07
613.243	25.84
613.436	25.74
613.629	25.68
613.822	25.58
614.015	25.51
614.209	25.41
614.402	25.41
614.595	25.39
614.788	25.42
614.981	25.32
615.174	25.17
615.367	25.02
615.56	24.86
615.753	24.76
615.946	24.73
616.139	24.78
616.332	24.88
616.525	24.9
616.718	24.89
616.911	24.85
617.103	24.84
617.296	24.74
617.489	24.66
617.682	24.56
617.875	24.47
618.067	24.3
618.26	24.13
618.453	24.14
618.646	24.06
618.838	24.05
619.031	24.22
619.224	24.22
619.417	24.13
619.609	24.19
619.802	24.17
619.994	24.02
620.187	24
620.38	24
620.572	23.91
620.765	23.98
620.957	23.86
621.15	23.75
621.342	23.61
621.535	23.6
621.727	23.38
621.92	23.38
622.112	23.36
622.305	23.41
622.497	23.4
622.69	23.46
622.882	23.43
623.074	23.52
623.267	23.46
623.459	23.29
623.651	23.22
623.844	23.21
624.036	23.07
624.228	23.06
624.42	23.09
624.613	23.2
624.805	23.18
624.997	23.17
625.189	23.06
625.381	23.11
625.574	23.01
625.766	22.95
625.958	22.93
626.15	23.03
626.342	23.02
626.534	23
626.726	23.03
626.918	23.03
627.11	22.95
627.302	22.87
627.494	22.73
627.686	22.69
627.878	22.62
628.07	22.6
628.262	22.49
628.454	22.48
628.646	22.48
628.838	22.5
629.029	22.37
629.221	22.43
629.413	22.4
629.605	22.24
629.797	22.12
629.989	22.14
630.18	22.09
630.372	22.04
630.564	22.09
630.755	22.13
630.947	22.13
631.139	21.94
631.33	21.88
631.522	21.93
631.714	21.9
631.905	21.85
632.097	21.93
632.289	21.92
632.48	21.71
632.672	21.58
632.863	21.39
633.055	21.31
633.246	21.29
633.438	21.21
633.629	21.12
633.821	21.22
634.012	21.17
634.203	21.03
634.395	21.14
634.586	21.24
634.777	21.15
634.969	21.22
635.16	21.31
635.351	21.17
635.543	21.15
635.734	21.18
635.925	21.1
636.117	21.14
636.308	21.18
636.499	21.05
636.69	20.92
636.881	20.86
637.073	20.79
637.264	20.67
637.455	20.66
637.646	20.82
637.837	20.82
638.028	20.67
638.219	20.77
638.41	20.79
638.601	20.57
638.792	20.58
638.983	20.61
639.174	20.45
639.365	20.4
639.556	20.35
639.747	20.21
639.938	20.19
640.129	20.11
640.32	20
640.511	20.06
640.701	20.2
640.892	20.07
641.083	20.2
641.274	20.15
641.465	20.11
641.655	19.86
641.846	19.88
642.037	19.79
642.228	19.8
642.418	19.81
642.609	19.82
642.8	19.79
642.99	19.68
643.181	19.71
643.372	19.72
643.562	19.76
643.753	19.66
643.943	19.63
644.134	19.49
644.324	19.3
644.515	19.23
644.705	19.36
644.896	19.28
645.086	19.28
645.277	19.3
645.467	19.26
645.658	19.08
645.848	19.14
646.038	19.15
646.229	19.09
646.419	19.06
646.61	19.03
646.8	19.02
646.99	18.93
647.18	18.82
647.371	18.8
647.561	18.67
647.751	18.66
647.941	18.61
648.132	18.68
648.322	18.66
648.512	18.85
648.702	18.77
648.892	18.84
649.082	18.82
649.272	18.77
649.462	18.59
649.653	18.54
649.843	18.44
650.033	18.44
650.223	18.42
650.413	18.44
650.603	18.54
650.793	18.57
650.983	18.49
651.172	18.46
651.362	18.33
651.552	18.07
651.742	17.98
651.932	17.97
652.122	17.98
652.312	18.11
652.502	18.19
652.691	18.22
652.881	18.2
653.071	18.13
653.261	17.98
653.45	17.87
653.64	17.82
653.83	17.61
654.019	17.48
654.209	17.36
654.399	17.27
654.588	17.19
654.778	17.12
654.968	17.05
655.157	17.03
655.347	16.98
655.536	16.75
655.726	16.62
655.915	16.39
656.105	16.23
656.294	16.05
656.484	15.93
656.673	15.85
656.863	15.9
657.052	15.74
657.241	15.53
657.431	15.26
657.62	15.01
657.809	14.6
657.999	14.44
658.188	14.28
658.377	14.16
658.567	14.12
658.756	14.01
658.945	13.81
659.134	13.64
659.324	13.48
659.513	13.3
659.702	13.18
659.891	13.01
660.08	12.85
660.269	12.73
660.458	12.47
660.648	12.24
660.837	12.1
661.026	12
661.215	11.77
661.404	11.57
661.593	11.5
661.782	11.22
661.971	11.05
662.16	10.95
662.349	10.92
662.538	10.66
662.726	10.66
662.915	10.45
663.104	10.36
663.293	10.27
663.482	10.31
663.671	10.19
663.86	10.05
664.048	9.88
664.237	9.75
664.426	9.46
664.615	9.33
664.803	9.28
664.992	9.27
665.181	9.16
665.369	9.09
665.558	8.99
665.747	8.93
665.935	8.86
666.124	8.87
666.312	8.91
666.501	8.8
666.69	8.65
666.878	8.5
667.067	8.34
667.255	8.42
667.444	8.7
667.632	8.77
667.82	8.88
668.009	8.89
668.197	8.73
668.386	8.63
668.574	8.72
668.762	8.54
668.951	8.46
669.139	8.5
669.327	8.24
669.516	8.2
669.704	8.22
669.892	8.39
670.08	8.35
670.269	8.38
670.457	8.24
670.645	8.1
670.833	8.13
671.021	8.14
671.21	8.2
671.398	8.45
671.586	8.65
671.774	8.52
671.962	8.52
672.15	8.58
672.338	8.43
672.526	8.51
672.714	8.5
672.902	8.66
673.09	8.79
673.278	9.09
673.466	9.12
673.654	9.31
673.842	9.31
674.03	9.37
674.218	9.19
674.405	9.31
674.593	9.32
674.781	9.39
674.969	9.37
675.157	9.67
675.344	9.82
675.532	9.87
675.72	10.07
675.908	10.27
676.095	10.2
676.283	10.24
676.471	10.56
676.658	10.56
676.846	10.61
677.033	10.78
677.221	10.88
677.409	10.75
677.596	10.88
677.784	11.02
677.971	11.09
678.159	11.16
678.346	11.23
678.534	11.35
678.721	11.49
678.909	11.5
679.096	11.58
679.283	11.88
679.471	11.93
679.658	12.03
679.846	12.22
680.033	12.43
680.22	12.55
680.408	12.82
680.595	12.98
680.782	13.13
680.969	13.32
681.157	13.33
681.344	13.35
681.531	13.41
681.718	13.47
681.905	13.63
682.093	14.08
682.28	14.4
682.467	14.85
682.654	15.08
682.841	15.17
683.028	15.29
683.215	15.4
683.402	15.36
683.589	15.78
683.776	16.11
683.963	16.28
684.15	16.65
684.337	16.96
684.524	17.09
684.711	17.5
684.898	17.7
685.085	17.92
685.271	18.32
685.458	18.56
685.645	18.82
685.832	19.32
686.019	19.78
686.205	20.04
686.392	20.38
686.579	20.71
686.766	21.06
686.952	21.35
687.139	21.83
687.326	22.42
687.512	22.81
687.699	23.24
687.886	23.71
688.072	24.11
688.259	24.46
688.445	25.03
688.632	25.45
688.818	26.17
689.005	26.63
689.191	27.26
689.378	27.95
689.564	28.49
689.751	28.86
689.937	29.47
690.124	30.1
690.31	30.52
690.496	31.12
690.683	31.82
690.869	32.45
691.055	33.06
691.242	33.84
691.428	34.67
691.614	35.25
691.8	36.17
691.987	37.04
692.173	37.71
692.359	38.5
692.545	39.34
692.731	39.87
692.918	40.63
693.104	41.03
693.29	41.77
693.476	42.53
693.662	43.24
693.848	43.57
694.034	44.57
694.22	44.97
694.406	45.64
694.592	46.44
694.778	47.29
694.964	48.04
695.15	49.13
695.336	49.55
695.522	50.19
695.708	50.69
695.894	51.22
696.08	51.59
696.265	52.47
696.451	53.05
696.637	53.72
696.823	54.38
697.009	54.98
697.194	55.45
697.38	56.02
697.566	56.78
697.751	57.3
697.937	58.17
698.123	58.75
698.308	59.42
698.494	60.05
698.68	60.51
698.865	60.84
699.051	61.64
699.236	62.13
699.422	62.51
699.607	62.82
699.793	63.33
699.978	63.42
700.164	63.77
700.349	64.49
700.535	65.3
700.72	65.84
700.906	66.67
701.091	67.22
701.276	67.67
701.462	68.27
701.647	68.66
701.832	69
702.018	69.49
702.203	69.69
702.388	69.62
702.573	70.05
702.759	70.73
702.944	70.86
703.129	71.37
703.314	72.13
703.499	72.12
703.684	72.2
703.87	73.39
704.055	73.71
704.24	74
704.425	74.75
704.61	75.16
704.795	74.98
704.98	75.21
705.165	75.35
705.35	75.54
705.535	75.81
705.72	76.17
705.905	76.6
706.09	77.25
706.275	77.47
706.459	77.67
706.644	77.58
706.829	77.77
707.014	77.68
707.199	77.99
707.384	78.33
707.568	78.74
707.753	79.47
707.938	79.77
708.123	79.81
708.307	79.69
708.492	79.69
708.677	79.5
708.861	79.45
709.046	79.66
709.231	80.46
709.415	81.17
709.6	81.03
709.784	81.4
709.969	81.62
710.153	81.33
710.338	81.23
710.522	81.4
710.707	81.72
710.891	81.64
711.076	82.12
711.26	81.96
711.445	82.05
711.629	81.98
711.813	82.43
711.998	82.62
712.182	82.98
712.366	83.94
712.551	84.59
712.735	84.37
712.919	84.14
713.103	84.57
713.288	84.2
713.472	83.5
713.656	84.44
713.84	84.55
714.024	84.23
714.208	84.02
714.393	84.68
714.577	84.45
714.761	84.55
714.945	84.97
715.129	85.32
715.313	85.23
715.497	85.13
715.681	85.74
715.865	85.39
716.049	85.49
716.233	85.66
716.417	86.08
716.601	85.62
716.785	85.75
716.968	85.98
717.152	86.26
717.336	86.24
717.52	86.31
717.704	86.59
717.888	86.77
718.071	86.81
718.255	86.87
718.439	86.7
718.622	86.74
718.806	86.81
718.99	86.54
719.174	86.29
719.357	86.73
719.541	87.12
719.724	87.04
719.908	87.96
720.092	88.85
720.275	89.17
720.459	88.92
720.642	89.06
720.826	88.83
721.009	88.43
721.193	87.9
721.376	88.36
721.559	88.77
721.743	89.07
721.926	89.39
722.11	89.63
722.293	88.89
722.476	88.39
722.66	87.59
722.843	87.3
723.026	87.25
723.21	88.05
723.393	89.07
723.576	89.88
723.759	89.23
723.942	89.47
724.126	89.33
724.309	88.6
724.492	87.85
724.675	88.62
724.858	89.12
725.041	89.51
725.224	89.59
725.407	90.47
725.59	90.75
725.774	90.68
725.957	89.89
726.14	89.65
726.322	89.22
726.505	88.91
726.688	89.56
726.871	89.92
727.054	90.47
727.237	90.57
727.42	90.56
727.603	90.14
727.786	90.55
727.968	90.58
728.151	91.22
728.334	91.55
728.517	91.3
728.699	91.69
728.882	91.91
729.065	91.6
729.248	92.26
729.43	92.96
729.613	93.58
729.796	94.24
729.978	94.07
730.161	93.69
730.343	93.14
730.526	93.15
730.708	92.14
730.891	92.67
731.073	92.58
731.256	92.26
731.438	92.03
731.621	92.76
731.803	92.96
731.986	93.06
732.168	93.58
732.35	93.51
732.533	93.47
732.715	93.44
732.898	94.08
733.08	93.74
733.262	93.96
733.444	93.12
733.627	92.96
733.809	93.27
733.991	94.24
734.173	93.72
734.355	94.4
734.538	95.1
734.72	94.27
734.902	94.66
735.084	95.12
735.266	94.57
735.448	94.56
735.63	95.19
735.812	94.75
735.994	95.71
736.176	96.92
736.358	96.58
736.54	97.48
736.722	96.54
736.904	95.78
737.086	95.48
737.268	96.44
737.45	95.71
737.632	96.57
737.814	96.54
737.995	96.39
738.177	95.72
738.359	95.01
738.541	95.07
738.723	94.68
738.904	94.93
739.086	95
739.268	95.5
739.449	96.21
739.631	96.44
739.813	96.72
739.994	97.46
740.176	97.91
740.358	97.14
740.539	98.64
740.721	98.93
740.902	99.02
741.084	98.44
741.265	98.49
741.447	97.88
741.628	98.38
741.81	96.9
741.991	98.05
742.172	99.72
742.354	99.87
742.535	98.72
742.717	99.48
742.898	98.76
743.079	97.77
743.261	97.86
743.442	97.7
743.623	98.78
743.804	98.84
743.986	99.69
744.167	97.76
744.348	98.03
744.529	97
744.71	96.06
744.891	94.59
745.073	94.8
745.254	94.81
745.435	95.18
745.616	95.35
745.797	95.94
745.978	96.84
746.159	96.85
746.34	95.41
746.521	97.25
746.702	95.96
746.883	95.68
747.064	95.92
747.245	96.81
747.426	94.88
747.606	95.63
747.787	96.4
747.968	96.11
748.149	96.14
748.33	96.57
748.51	95.37
748.691	95.34
748.872	95.92
749.053	95.8
749.233	95.11
749.414	95.94
749.595	94.37
749.775	92.73
749.956	92.38
750.137	93.33
750.317	95.2
750.498	97.43
750.678	98.85
750.859	99.96
751.04	99.78
751.22	97.93
751.4	96.77
751.581	95.53
751.761	95.42
751.942	96.15
752.122	95.77
752.303	94.18
752.483	94.66
752.663	93.71
752.844	92.26
753.024	94.05
753.204	95.44
753.385	94.39
753.565	94.66
753.745	94.94
753.925	93.65
754.106	92.52
754.286	93.75
754.466	93.42
754.646	94.79
754.826	94.51
755.006	94.79
755.187	95.87
755.367	97.08
755.547	96.11
755.727	97.78
755.907	98.62
756.087	97.36
756.267	95.38
756.447	95.18
756.627	92.75
756.807	93.29
756.987	93.11
757.167	94.34
757.346	94.82
757.526	94.45
757.706	94.19
757.886	94.35
758.066	95.12
758.246	96.75
758.425	96.65
758.605	95.34
758.785	94.4
758.965	93.22
759.144	90.55
759.324	91.55
759.504	92.99
759.683	95.1
759.863	92.9
760.043	93.03
760.222	92.81
760.402	91.52
760.581	90.14
760.761	93.17
760.94	91.82
761.12	93.79
761.299	95.07
761.479	95.41
761.658	93.45
761.838	94.27
762.017	92.95
762.197	93.1
762.376	92.36
762.555	93.42
762.735	94.42
762.914	93.23
763.093	92.4
763.273	91.66
763.452	91.23
763.631	89.98
763.81	90.11
763.99	90.15
764.169	91.57
764.348	89.62
764.527	89.4
764.706	90.99
764.885	92.1
765.064	89.91
765.243	91.25
765.423	93.22
765.602	92.07
765.781	88.72
765.96	89.23
766.139	88.6
766.318	88.85
766.497	87.68
766.676	89.69
766.854	91.24
767.033	92.59
767.212	89.84
767.391	91.48
767.57	91.43
767.749	91.06
767.928	91.22
768.106	91.14
768.285	88.9
768.464	88.92
768.643	87.63
768.821	88.21
769	90.5
769.179	90.64
769.357	90.04
769.536	91.01
769.715	89.96
769.893	89.57
770.072	89.15
770.25	90.34
770.429	92.14
770.607	92.56
770.786	91.38
770.964	92.48
771.143	90.95
771.321	90.11
771.5	90.57
771.678	89.71
771.857	89.51
772.035	90.43
772.213	90.19
772.392	87.59
772.57	89.26
772.748	89.66
772.927	86.92
773.105	85.49
773.283	87.06
773.461	89.68
773.64	90.67
773.818	92.72
773.996	92.99
774.174	92.32
774.352	87.46
774.531	83.02
774.709	85.61
774.887	84.86
775.065	83.79
775.243	84.61
775.421	86.83
775.599	87.25
775.777	86.14
775.955	84.71
776.133	83.63
776.311	84.39
776.489	80.05
776.667	82.47
776.844	84.16
777.022	82.96
777.2	82.65
777.378	83.17
777.556	82.83
777.734	84.76
777.911	89.75
778.089	86.84
778.267	86.6
778.445	84.77
778.622	82.29
778.8	80.54
778.978	84.54
779.155	83.56
779.333	84.65
779.511	84.27
779.688	85.25
779.866	80.95
780.043	78.72
780.221	78.49
780.398	79.55
780.576	80.29
780.753	83.27
780.931	83.57
781.108	81.79
781.286	83.64
781.463	79.61
781.64	76.44
781.818	79.42
781.995	82.37
782.172	79.73
782.35	80.89
782.527	85.52
782.704	83.9
782.882	83.55
783.059	83.91
783.236	86.71
783.413	85.86
783.59	87.1
783.768	83.79
783.945	85.98
784.122	84.02
784.299	83.75
784.476	82.69
784.653	82.63
784.83	79.71
785.007	76.52
785.184	76.72
785.361	77.22
785.538	83.39
785.715	86.98
785.892	88.73
786.069	89.75
786.246	92.03
786.423	88.32
786.6	84.99
786.776	87.82
786.953	86.59
787.13	88.28
787.307	88.38
787.484	86.22
787.66	83.66
787.837	83.66
788.014	76.43
788.191	71.05
788.367	69.36
788.544	71.3
788.721	71.66
788.897	76.46
789.074	80.62
789.25	80.84
789.427	78.45
789.603	78.15
789.78	77.59
789.956	75.52
790.133	75.36
790.309	76.17
790.486	78.13
790.662	75.04
790.839	76.41
791.015	78.56
791.192	77.55
791.368	77.52
791.544	75.5
791.721	75.64
791.897	73.94
792.073	70.13
792.249	63.26
792.426	70.52
792.602	70.77
792.778	72.67
792.954	75.54
793.13	77.69
793.307	69.36
793.483	64.35
793.659	63.61
793.835	67.44
794.011	64.5
794.187	66.91
794.363	71.23
794.539	74.92
794.715	68.43
794.891	71.55
795.067	70.14
795.243	74.14
795.419	67.79
795.595	68.63
795.771	69.57
795.947	70.25
796.122	64.51
796.298	69.88
796.474	71.67
796.65	70
796.826	67.45
797.001	70.03
797.177	67.86
797.353	71.06
797.529	71.78
797.704	80.21
797.88	77.59
798.056	78.08
798.231	75.18
798.407	78.54
798.582	72.84
798.758	81.67
798.934	87.17
799.109	83.53
799.285	80.95
799.46	84.22
799.636	77.31
799.811	69.16
799.986	73.4
800.162	75.18
800.337	73.69
800.513	73.21
800.688	77.02
800.863	89.79
801.039	81.51
801.214	75.8
801.389	82.09
801.565	77.41
801.74	59.42
801.915	71.32
802.09	73.74
802.265	73.78
802.441	70.36
802.616	74.08
802.791	72.89
802.966	73.75
803.141	70.42
803.316	72.63
803.491	73.52
803.666	71.48
803.841	74.23
804.016	70.09
804.191	72.65
804.366	66.89
804.541	66.89
804.716	64.18
804.891	63.09
805.066	69.33
805.241	72.55
805.416	69.26
805.591	66.84
805.765	69.52
805.94	63.87
806.115	63.34
806.29	62.42
806.464	66.37
806.639	60.98
806.814	57.91
806.989	50.23
807.163	58.81
807.338	55.44
807.512	54.43
807.687	39.68
807.862	55.75
808.036	50.53
808.211	55.81
808.385	62.28
808.56	84.31
808.734	76.99
808.909	72.63
809.083	60.14
809.258	68.77
809.432	58.63
809.606	49.23
809.781	48.32
809.955	51.78
810.13	52
810.304	45.73
810.478	49.06
810.652	57.48
810.827	69.97
811.001	57.98
811.175	60.1
811.349	61.38
811.524	56.96
811.698	40.64
811.872	47.34
812.046	59.48
812.22	67.09
812.394	63.9
812.568	70.13
812.742	70.62
812.916	62.86
813.09	55.55
813.264	52.66
813.438	56.29
813.612	50.2
813.786	49.86
813.96	55.11
814.134	59.47
814.308	72.76
814.482	77.56
814.656	71.13
814.83	78.57
815.003	76.94
815.177	61.73
815.351	56.74
815.525	56.27
815.698	46.26
815.872	46.13
816.046	37.73
816.219	48.21
816.393	69.94
816.567	77.38
816.74	75.97
816.914	82.66
817.088	87.64
817.261	79.95
817.435	65.32
817.608	62.73
817.782	52.8
817.955	56
818.129	45.25
818.302	48.71
818.475	58.74
818.649	61.5
818.822	47.47
818.996	60.1
819.169	59.52
819.342	50.13
819.516	63.51
819.689	70.58
819.862	55.01
820.035	49.12
820.209	50.01
820.382	47.87
820.555	42.62
820.728	35.14
820.901	37.75
821.075	33.47
821.248	33.63
821.421	25.21
821.594	32.5
821.767	60.38
821.94	71.48
822.113	47.17
822.286	50.17
822.459	59.83
822.632	44
822.805	25.42
822.978	34.93
823.151	40.62
823.324	29.98
823.496	11.94
823.669	11.45
823.842	7.07
824.015	-19.34
824.188	-25.47
824.361	-9.03
824.533	-0.16
824.706	10.19
824.879	27.98
825.051	33.11
825.224	36.36
825.397	31.08
825.569	29.76
825.742	48.01
825.915	59.32
826.087	67.25
826.26	59.07
826.432	64.79
826.605	50.64
826.777	45.34
826.95	37.24
827.122	29.03
827.295	29.65
827.467	42.93
827.64	4.09
827.812	-10.07
827.984	-10.05
828.157	-30.02
828.329	-85.49
828.501	-42.32
828.674	-24.83
828.846	-20.57
829.018	8.26
829.19	6.45
829.363	38.15
829.535	57.86
829.707	67.21
829.879	38.98
830.051	41.43
830.223	24.14
830.395	-15.15
830.568	-23.79
830.74	-17
830.912	30.32
831.084	19.77
831.256	32.72
831.428	24.34
831.6	20.28
831.772	-32.24
831.943	-49.72
832.115	-26.4
832.287	6.33
832.459	10.77
832.631	27.53
832.803	51.91
832.975	63.22
833.146	49.09
833.318	51.46
833.49	59.23
833.662	33.11
833.833	1.46
834.005	1.4
834.177	9.92
834.348	12.39
834.52	1.99
834.692	16.57
834.863	28.58
835.035	9.03
835.206	-62.8
835.378	-31.72
835.549	-31.67
835.721	-22.29
835.892	-26.84
836.064	8.7
836.235	15.97
836.407	31.31
836.578	-15.45
836.749	1.82
836.921	-79.81
837.092	-85.51
837.264	-81.02
837.435	-86.24
837.606	-45.06
837.777	-1.47
837.949	15.32
838.12	19.47
838.291	40.93
838.462	21.54
838.633	-8.87
838.805	-15.09
838.976	-10.25
839.147	-85.69
839.318	-71.81
839.489	-100.83
839.66	-63.04
839.831	-23.64
840.002	-5.48
840.173	-17.85
840.344	22.68
840.515	-14.86
840.686	-226.19
840.857	-146.57
841.028	-151.33
841.199	-120.91
841.369	-128.92
841.54	-85.06
841.711	-32.39
841.882	18.25
842.053	8.44
842.223	-1.67
842.394	8.41
842.565	-23.78
842.736	-29.57
842.906	-22.59
843.077	0.49
843.248	6.51
843.418	9.43
843.589	-6.91
843.759	17.47
843.93	7.3
844.101	1.24
844.271	3.53
844.442	27.2
844.612	33.12
844.783	4.5
844.953	-42.55
845.123	-40.47
845.294	-79.7
845.464	-336.79
845.635	-169.62
845.805	-15.1
845.975	-26.64
846.146	-60.86
846.316	-21.54
846.486	-1.52
846.656	23.42
846.827	16.86
846.997	17.44
847.167	21.76
847.337	0.89
847.507	-69.14
847.677	-45.47
847.848	20.95
848.018	13.8
848.188	23.27
848.358	4.66
848.528	-5.94
848.698	-64.85
848.868	-146.52
849.038	-289.34
849.208	-96.91
849.378	-46.63
849.548	-36.63
849.718	-18.85
849.887	2.37
850.057	-5.71
850.227	-33.83
850.397	-51.65
850.567	-135.02
850.737	-288.37
850.906	-1005.31
851.076	-928.32
851.246	-397.51
851.415	-46.12
851.585	-50.52
851.755	-73.52
851.924	-4.89
852.094	-35
852.264	-180.59
852.433	-937.74
852.603	-213.18
852.772	-267.32
852.942	-110.56
853.111	-51.98
853.281	-37.62
853.45	-1.12
853.62	-61.56
853.789	-72.22
853.959	-62.45
854.128	-51.78
854.297	-119.8
854.467	-132.89
854.636	-159.68
854.805	-90.8
854.975	-129.3
855.144	-199.79
855.313	-356.82
855.482	-549.82
855.652	-207.13
855.821	-147.46
855.99	42.4
856.159	59.15
856.328	53.01
856.497	30.13
856.667	37.21
856.836	30.03
857.005	-14.24
857.174	-41.66
857.343	-68.56
857.512	-9.8
857.681	-85.03
857.85	-103.4
858.019	-38.51
858.188	-27.61
858.356	-82.62
858.525	-156.4
858.694	-137.06
858.863	-278.13
859.032	-205.06
859.201	-303.83
859.369	-179.15
859.538	-140.48
859.707	-109.88
859.876	-149.77
860.044	-104.13
860.213	-13.15
860.382	-27.82
860.55	1.08
860.719	32.57
860.888	39.71
861.056	5.13
861.225	5.2
861.393	25.08
861.562	19.38
861.73	-68.6
861.899	-45.68
862.067	-725
862.236	-17.12
862.404	-149.64
862.572	-43.85
862.741	-37.48
862.909	-50.24
863.078	-193.71
863.246	-135.64
863.414	-147.11
863.582	-98.58
863.751	-90.04
863.919	-74.64
864.087	-14.22
864.255	-28.52
864.424	-248.71
864.592	-5.85
864.76	5.19
864.928	-465.8
865.096	-266.64
865.264	-220.01
865.432	-3252.84
865.6	-415.63
865.768	-151.13
865.936	-151.74
866.104	-207.85
866.272	-255.08
866.44	-643.8
866.608	911.55
866.776	401.43
866.944	3872.67
867.112	-656.04
867.28	-212.39
867.448	-80.94
867.615	-36.5
867.783	-3.45
867.951	-38.06
868.119	-21.36
868.286	-52.9
868.454	-128.53
868.622	-96.72
868.789	-19.27
868.957	-1737.5
869.125	-1816.45
869.292	-161.49
869.46	-360.08
869.627	-79.8
869.795	-59.08
869.963	-21.59
870.13	-2.06
870.298	32.98
870.465	-78.98
870.632	-85.08
870.8	-58.76
870.967	-140.53
871.135	-229.24
871.302	-169.41
871.469	-203.15
871.637	-315.04
871.804	-113.18
871.971	-118.03
872.139	-395
872.306	-41.98
872.473	-67.57
872.64	-385.09
872.807	-177.35
872.975	-27.02
873.142	-270.64
873.309	1987.16
873.476	7.23
873.643	59.83
873.81	6.01
873.977	24.12
874.144	32.45
874.311	-142.65
874.478	-206.48
874.645	-223.23
874.812	-143.09
874.979	-130.83
875.146	-93.44
875.313	-105.89
875.48	5.14
875.647	-12.96
875.813	-48.76
875.98	-32.05
876.147	-36.08
876.314	-99.74
876.481	996.9
876.647	-1193.54
876.814	497.54
876.981	-27.79
877.147	-63.55
877.314	-27.58
877.481	19.93
877.647	27.85
877.814	-24.21
877.98	-74.69
878.147	-6.74
878.314	46.23
878.48	3.89
878.647	13.04
878.813	68.28
878.979	70.33
879.146	-4.82
879.312	11.16
879.479	-59.34
879.645	-192.82
879.811	-419.32
879.978	-1005.53
880.144	-286.59
880.31	-93.17
880.477	-319.22
880.643	-421.57
880.809	-145.93
880.975	-157
881.142	-998.41
881.308	-68.6
881.474	21.25
881.64	17.43
881.806	-13.98
881.972	17.06
882.138	28.83
882.304	-61.46
882.47	-249.93
882.636	-1037.91
882.802	-366
882.968	-125.35
883.134	-56.14
883.3	-54.97
883.466	7.85
883.632	50.58
883.798	12.31
883.964	18.26
884.129	33.85
884.295	88.49
884.461	-18.85
884.627	-28.52
884.793	-65.62
884.958	-14.86
885.124	-135.27
885.29	-215.83
885.455	-317.6
885.621	-105.9
885.787	-163.56
885.952	-82.91
886.118	-79.91
886.283	-79.32
886.449	-151.06
886.614	-154.33
886.78	-288.56
886.945	1333.2
887.111	-730.2
887.276	-687.07
887.442	-1350.23
887.607	-595.87
887.773	-410.91
887.938	-324.35
888.103	-328.87
888.269	-160.02
888.434	-329.32
888.599	-91.77
888.764	6.4
888.93	3.04
889.095	-46.1
889.26	-90.1
889.425	-45.15
889.59	-11.54
889.756	-55.22
889.921	-10.01
890.086	62.29
890.251	19.77
890.416	-122.94
890.581	-1195.56
890.746	214.37
890.911	389.97
891.076	173.17
891.241	-432.28
891.406	17.76
891.571	-32.76
891.736	-280.85
891.901	-578.98
892.065	804.67
892.23	186.66
892.395	237.82
892.56	442.27
892.725	-635.35
892.889	-2020.12
893.054	-332.26
893.219	-163.83
893.384	-57.84
893.548	-117.13
893.713	-122.14
893.878	-69.28
