Data from Ofra_PS_T2_1A_2HS17_Reflection_2.txt Node
Date: Wed Jul 21 18:01:33 EDT 2021
User: Adam
Spectrometer: FLMT01687
Trigger mode: 0
Integration Time (sec): 1.100000E0
Scans to average: 2
Electric dark correction enabled: true
Nonlinearity correction enabled: false
Boxcar width: 2
XAxis mode: Wavelengths
Number of Pixels in Spectrum: 3648
>>>>>Begin Spectral Data<<<<<
179.494	430.2
179.716	520.94
179.937	484.02
180.158	483.19
180.38	699.84
180.601	215.88
180.823	62.34
181.044	-52.25
181.265	73.35
181.486	52.48
181.708	151.21
181.929	1036.22
182.15	-465.85
182.372	117.31
182.593	-3.4
182.814	77.32
183.035	121.96
183.257	70.86
183.478	-32.07
183.699	50.74
183.92	22.1
184.141	18.14
184.363	-2.86
184.584	45.17
184.805	48.9
185.026	64.1
185.247	75.18
185.468	65.05
185.689	89.83
185.91	70.72
186.132	83.2
186.353	64.16
186.574	98.67
186.795	53.47
187.016	25.92
187.237	1.33
187.458	0.31
187.679	2.4
187.9	13.03
188.121	16.89
188.342	43.28
188.563	65.09
188.784	99.67
189.005	101.15
189.226	121.68
189.447	73.68
189.667	-68.81
189.888	-282.64
190.109	-1064.61
190.33	-509.52
190.551	-892.7
190.772	-181.78
190.993	-97.55
191.214	-89.9
191.434	-85.18
191.655	24.2
191.876	28.64
192.097	-76.7
192.318	-120.03
192.538	-114.59
192.759	-148.92
192.98	-72.08
193.201	-18.5
193.421	4.92
193.642	19.25
193.863	32.09
194.083	17.7
194.304	12
194.525	14.59
194.745	10.64
194.966	-15.11
195.187	-22.83
195.407	-41.44
195.628	-95.83
195.848	-108.44
196.069	-117.72
196.29	-79.32
196.51	-89.85
196.731	-70.42
196.951	-79.38
197.172	-75.64
197.392	-126.89
197.613	-123.27
197.833	-151.56
198.054	-112.95
198.274	-55.85
198.495	-53.03
198.715	-17
198.936	-27.92
199.156	-29.43
199.377	-93.02
199.597	-77.8
199.817	-82.59
200.038	-19.46
200.258	-54.93
200.479	-10.15
200.699	25.31
200.919	52.87
201.14	21.39
201.36	4.75
201.58	20.08
201.801	44.52
202.021	19.7
202.241	20.81
202.461	25.4
202.682	-36.3
202.902	-122.97
203.122	-48.4
203.342	-45.47
203.563	-14.53
203.783	25.63
204.003	-5.52
204.223	-24.39
204.443	22.41
204.663	-10.52
204.884	-13.93
205.104	20.79
205.324	30.55
205.544	35.08
205.764	59.41
205.984	74.26
206.204	70.82
206.424	54.7
206.644	39.01
206.864	35.06
207.084	7.01
207.304	11.89
207.525	-29.3
207.745	24.06
207.964	53.68
208.184	2.42
208.404	-35.09
208.624	-46.18
208.844	-58.74
209.064	-297.41
209.284	-272.99
209.504	-109.9
209.724	15.2
209.944	26.82
210.164	44.91
210.384	31.83
210.604	19.14
210.823	-28.29
211.043	-56.06
211.263	-43.38
211.483	-46.05
211.703	-83.98
211.922	-72.11
212.142	-6.81
212.362	-14.25
212.582	1.46
212.801	24.48
213.021	-7.32
213.241	-21.95
213.461	-28.44
213.68	-67.66
213.9	-44.1
214.12	0.45
214.339	-58.51
214.559	-61.07
214.779	-16.51
214.998	-33.26
215.218	-89.78
215.438	-49.73
215.657	-33.62
215.877	-24.67
216.096	1.27
216.316	17.24
216.535	14.24
216.755	0.17
216.974	-57.15
217.194	-121.95
217.413	-130.38
217.633	-124.66
217.852	-185.56
218.072	-83.19
218.291	-15.75
218.511	36.83
218.73	16.09
218.95	4.57
219.169	-1.95
219.389	-37.96
219.608	-30.27
219.827	-16.9
220.047	8.03
220.266	26.57
220.485	19.29
220.705	24.25
220.924	4.02
221.143	23.93
221.363	-1.04
221.582	25.82
221.801	28.78
222.021	48.21
222.24	22.1
222.459	108.3
222.678	38.88
222.897	-1.54
223.117	-41.01
223.336	-20.53
223.555	-15.16
223.774	36.61
223.993	52.75
224.213	95.12
224.432	57.25
224.651	58.84
224.87	15.31
225.089	20.07
225.308	5.56
225.527	31.03
225.746	26.35
225.965	20.95
226.184	6.32
226.404	15.87
226.623	2.44
226.842	3
227.061	35.15
227.28	38.87
227.499	30.13
227.718	35.82
227.936	28.42
228.155	36.19
228.374	23.98
228.593	28.06
228.812	14.99
229.031	3.29
229.25	-43.66
229.469	-44.31
229.688	-42.16
229.907	0.63
230.125	36.61
230.344	55.31
230.563	62.59
230.782	69.23
231.001	10.91
231.22	4.14
231.438	22.41
231.657	20.08
231.876	27.59
232.095	70.77
232.313	58.02
232.532	39.74
232.751	14.49
232.969	-10.5
233.188	-96.29
233.407	-2.18
233.625	10.81
233.844	7.59
234.063	18.05
234.281	30.2
234.5	22.75
234.719	24.35
234.937	43.16
235.156	48.02
235.374	49.46
235.593	45.88
235.811	44.55
236.03	36.56
236.249	10.25
236.467	5.15
236.686	13.75
236.904	23.93
237.123	-2.17
237.341	-2.38
237.559	-1.77
237.778	-11.32
237.996	-30.11
238.215	9.5
238.433	29.2
238.652	32.12
238.87	0.93
239.088	-3.13
239.307	-6.2
239.525	-34.73
239.743	-55.41
239.962	-28.77
240.18	-38.29
240.398	-77.54
240.617	-63.26
240.835	-23.42
241.053	-0.93
241.271	52.39
241.49	61.51
241.708	39.09
241.926	19.93
242.144	-13.64
242.363	-63.46
242.581	-109.52
242.799	-51.47
243.017	-13.29
243.235	-34.79
243.453	-23.26
243.672	-5.32
243.89	-3.09
244.108	-14
244.326	10.29
244.544	12.76
244.762	4.14
244.98	3.8
245.198	15.1
245.416	-4.33
245.634	-10.06
245.852	-6.54
246.07	8.27
246.288	-7.42
246.506	-12.59
246.724	4.06
246.942	-4.54
247.16	2.6
247.378	20.4
247.596	27.88
247.814	33.01
248.032	20.99
248.25	25.86
248.468	10.1
248.685	32.75
248.903	49.01
249.121	53.14
249.339	22.85
249.557	20.68
249.775	5.97
249.992	-59.06
250.21	-53.12
250.428	-31.52
250.646	-69.3
250.863	-88.06
251.081	-48.34
251.299	-58.6
251.517	-50.12
251.734	-9.22
251.952	1.44
252.17	-14.38
252.387	-3.43
252.605	-18.24
252.823	-15.62
253.04	-1.54
253.258	18.18
253.475	12.4
253.693	35.8
253.911	28.92
254.128	30.86
254.346	39.14
254.563	16.66
254.781	-7.97
254.998	-19.15
255.216	-44.87
255.433	-42.51
255.651	22.3
255.868	38.07
256.086	74.19
256.303	84.38
256.521	61.45
256.738	29.27
256.956	10.71
257.173	-27.92
257.39	-49.01
257.608	-78.17
257.825	-30.31
258.043	10.5
258.26	27.6
258.477	70.67
258.695	68.61
258.912	26.92
259.129	26.49
259.346	-2.63
259.564	-39.36
259.781	-42.48
259.998	2.82
260.216	20.6
260.433	60.47
260.65	58.69
260.867	68.07
261.084	40.74
261.302	7.11
261.519	-31.05
261.736	-44.51
261.953	-68.32
262.17	-15.22
262.387	-45.97
262.604	-62.91
262.822	-66.24
263.039	-53.98
263.256	-102.7
263.473	-40.61
263.69	-28.94
263.907	-4.21
264.124	7.42
264.341	-0.93
264.558	-13.13
264.775	8.31
264.992	4.83
265.209	13.65
265.426	27.72
265.643	31.45
265.86	37.52
266.077	46.99
266.294	42.08
266.51	12.45
266.727	1.63
266.944	5.18
267.161	-15.76
267.378	-22.3
267.595	8.17
267.812	-8.48
268.028	-35.82
268.245	2
268.462	-1.28
268.679	-11.6
268.896	39.01
269.112	48.62
269.329	25.94
269.546	29.39
269.763	27.39
269.979	25.2
270.196	8.65
270.413	-1.63
270.629	-42.7
270.846	-38.19
271.063	-53.37
271.279	-64.29
271.496	-56.08
271.712	-16.59
271.929	2.15
272.146	-20.83
272.362	-19.7
272.579	-5.3
272.795	25.47
273.012	4.71
273.228	12.4
273.445	-5.47
273.661	-38.19
273.878	-94.35
274.094	-77.64
274.311	-77.46
274.527	-10.65
274.744	-6.33
274.96	6.71
275.177	14.32
275.393	24.63
275.609	28.65
275.826	52.85
276.042	41.42
276.259	39.39
276.475	41.2
276.691	43.45
276.908	20.13
277.124	23.11
277.34	15.09
277.557	-3.48
277.773	-30.23
277.989	-35.64
278.205	-26.21
278.422	-3.62
278.638	9.42
278.854	34.74
279.07	54.37
279.286	38.47
279.503	1.03
279.719	-13.25
279.935	-41.11
280.151	-85.95
280.367	-44.23
280.583	-62.25
280.799	-56.85
281.016	-84.05
281.232	-18.4
281.448	-21.01
281.664	12.16
281.88	0.18
282.096	25.12
282.312	29.76
282.528	39.38
282.744	46.63
282.96	46.55
283.176	35.82
283.392	29.42
283.608	17.27
283.824	9.38
284.04	12.52
284.256	17.82
284.471	3.28
284.687	5.51
284.903	40.32
285.119	57.03
285.335	26.16
285.551	45.85
285.767	28.42
285.982	1.57
286.198	-15.4
286.414	41.59
286.63	28.26
286.846	66.47
287.061	34.64
287.277	48.64
287.493	14.26
287.709	34.08
287.924	-5.55
288.14	37.46
288.356	28.19
288.571	56.08
288.787	36.2
289.003	35.12
289.218	27.64
289.434	-1.12
289.65	2.67
289.865	5.45
290.081	36.81
290.296	22.28
290.512	39.12
290.727	11.26
290.943	-2.46
291.159	-21.35
291.374	-32.35
291.59	-46.23
291.805	-37.03
292.021	-27.03
292.236	-25.83
292.451	11.16
292.667	18.95
292.882	30.71
293.098	25.11
293.313	23.86
293.529	-15.22
293.744	-30.13
293.959	-33.09
294.175	-18.77
294.39	5.47
294.605	20.74
294.821	39.64
295.036	45.89
295.251	43.83
295.467	4.4
295.682	-2.83
295.897	-50.21
296.112	-55.6
296.328	-50.61
296.543	-43.67
296.758	-39.2
296.973	9.53
297.188	31.97
297.404	6.3
297.619	-1.62
297.834	-26.6
298.049	-49.36
298.264	-59.5
298.479	-3.8
298.694	9.79
298.909	35.79
299.125	27.41
299.34	14.79
299.555	-15.29
299.77	6.53
299.985	-43.74
300.2	-71.64
300.415	-84.03
300.63	-60.77
300.845	-78.61
301.06	-60.98
301.275	-36.87
301.49	-17.87
301.704	-10.91
301.919	-26.47
302.134	-33.93
302.349	-27.72
302.564	-60.63
302.779	-82.61
302.994	-63.13
303.209	-24.11
303.423	-5.61
303.638	41.73
303.853	8.05
304.068	21.63
304.283	22.95
304.497	17
304.712	1.48
304.927	20.64
305.142	14.14
305.356	16.84
305.571	0.61
305.786	-4.36
306	-34.76
306.215	-43.99
306.43	-72.95
306.644	-34.43
306.859	3.3
307.074	27.12
307.288	4.13
307.503	-6.19
307.717	-28.34
307.932	-35.17
308.147	-42.8
308.361	-20.27
308.576	-10.61
308.79	-40.91
309.005	-42.27
309.219	-23.02
309.434	-18.66
309.648	-29.11
309.863	-2.71
310.077	-4.45
310.292	-10.32
310.506	-15.94
310.72	-3.12
310.935	9.76
311.149	11.61
311.364	34.82
311.578	49.33
311.792	42.48
312.007	41.96
312.221	36.54
312.435	33.78
312.649	8.12
312.864	34.18
313.078	32.93
313.292	81.6
313.507	51.1
313.721	82.94
313.935	55.77
314.149	52.86
314.363	25.68
314.578	22.23
314.792	20.39
315.006	1.69
315.22	10.24
315.434	19.72
315.648	34.91
315.862	42.74
316.077	43.83
316.291	25.68
316.505	32.65
316.719	15.85
316.933	-24.19
317.147	-23.19
317.361	-67.4
317.575	-80.13
317.789	-108.01
318.003	-156.78
318.217	-123.73
318.431	-8.38
318.645	19.54
318.859	16.66
319.073	47.52
319.287	33.51
319.5	-7.79
319.714	-58.55
319.928	-82.81
320.142	-120.99
320.356	-51.31
320.57	-5.26
320.784	-1.94
320.997	32.6
321.211	51.34
321.425	-20.63
321.639	-57.33
321.853	-1.1
322.066	9.93
322.28	-3.32
322.494	6.65
322.707	31.07
322.921	16.72
323.135	2.32
323.349	5.88
323.562	-5.54
323.776	-22.76
323.989	-25.14
324.203	-43.44
324.417	-38.82
324.63	-58.55
324.844	-54.89
325.057	-46.53
325.271	-25.65
325.485	-8.92
325.698	23.35
325.912	43.29
326.125	21.47
326.339	24.33
326.552	14.44
326.766	16.76
326.979	18.73
327.193	41.78
327.406	25.92
327.619	25.16
327.833	21.31
328.046	-7.6
328.26	-35.33
328.473	-8.18
328.686	-34.35
328.9	-27.83
329.113	-2.65
329.326	-17.69
329.54	-20.21
329.753	-22.95
329.966	-60.13
330.179	-50.39
330.393	-17.21
330.606	-11.99
330.819	20.72
331.032	35.46
331.246	33.55
331.459	57.56
331.672	54.88
331.885	38.27
332.098	21.1
332.311	9.65
332.525	-46.55
332.738	-37
332.951	-23.38
333.164	-2.33
333.377	22.35
333.59	45.8
333.803	43.48
334.016	42.46
334.229	42.94
334.442	46.19
334.655	51.48
334.868	47.21
335.081	27.92
335.294	16.48
335.507	1.12
335.72	-5.41
335.933	-0.73
336.146	5.47
336.359	11.36
336.572	-20.39
336.785	-55.74
336.997	-49.29
337.21	-3.94
337.423	-1.79
337.636	7.17
337.849	34.2
338.062	26.01
338.274	3.46
338.487	-1.74
338.7	-1.86
338.913	-29.16
339.125	-44.91
339.338	-88.56
339.551	-60.01
339.763	-18.04
339.976	6.99
340.189	26.51
340.402	46.28
340.614	17.93
340.827	11.15
341.039	1.84
341.252	0.14
341.465	11.25
341.677	19.11
341.89	-25.65
342.102	-11.68
342.315	-20.43
342.527	-46.56
342.74	-27.62
342.952	29.69
343.165	34.61
343.377	47.43
343.59	36.38
343.802	48.27
344.015	37.82
344.227	44.67
344.44	36.87
344.652	37.78
344.864	23.56
345.077	27.24
345.289	30.41
345.502	34.76
345.714	30.73
345.926	32.4
346.139	31.87
346.351	25.7
346.563	20.37
346.775	22.54
346.988	9.51
347.2	4.39
347.412	-41.3
347.624	-51.21
347.837	-53.02
348.049	-12.9
348.261	18.81
348.473	38.34
348.685	27.72
348.897	17.59
349.11	-12.04
349.322	-75
349.534	-65.7
349.746	-30.05
349.958	-17.4
350.17	-1.66
350.382	31.98
350.594	27.53
350.806	5.23
351.018	6.11
351.23	-11.55
351.442	-36.98
351.654	-28.05
351.866	19.4
352.078	16.62
352.29	29.49
352.502	24.53
352.714	33.27
352.926	16.44
353.138	10.66
353.35	0.82
353.561	7.37
353.773	-15.54
353.985	-12.31
354.197	-15.28
354.409	-11.79
354.621	-25.12
354.832	-11.37
355.044	-10.47
355.256	-15.21
355.468	0.21
355.679	-2.56
355.891	6.19
356.103	3.27
356.314	25.85
356.526	15.36
356.738	31.56
356.949	17.32
357.161	24.13
357.373	17.2
357.584	9.04
357.796	13.37
358.008	5.02
358.219	9.7
358.431	0.24
358.642	11.46
358.854	7.43
359.065	6.61
359.277	-13.51
359.488	-15.29
359.7	-26.78
359.911	-38.68
360.123	-14.51
360.334	-20.31
360.546	-25.98
360.757	-29.76
360.969	-7.11
361.18	-22.36
361.391	5.16
361.603	-7.41
361.814	1.42
362.025	-9.14
362.237	-1.75
362.448	-2.44
362.659	20.09
362.871	19.32
363.082	19.06
363.293	24.41
363.504	13.01
363.716	-2.52
363.927	-10.69
364.138	-39.45
364.349	-56.51
364.56	-47.21
364.772	-40.47
364.983	-16.54
365.194	-6.45
365.405	6.03
365.616	27.29
365.827	33.27
366.038	-8.18
366.25	-12.73
366.461	-27.42
366.672	-23.78
366.883	-12.62
367.094	12.02
367.305	2.63
367.516	3.68
367.727	-28.91
367.938	-41.77
368.149	-48.66
368.36	-25.32
368.571	-23.16
368.781	-33.25
368.992	-45.71
369.203	-53.26
369.414	-72.77
369.625	-79.48
369.836	-61.03
370.047	-75.98
370.258	-62.49
370.468	-67.78
370.679	-72.71
370.89	-69.52
371.101	-34.84
371.312	-34.56
371.522	-14.51
371.733	-7.98
371.944	18.18
372.155	5.44
372.365	4.24
372.576	2.73
372.787	0.1
372.997	-38.7
373.208	-22.8
373.419	3.21
373.629	-26.72
373.84	-18.16
374.05	-13.27
374.261	-18.46
374.472	-60.56
374.682	-7.29
374.893	-12.94
375.103	23.61
375.314	16.66
375.524	26.19
375.735	23.5
375.945	32.73
376.156	-6.46
376.366	11.2
376.577	18.59
376.787	11.71
376.997	16.58
377.208	30.93
377.418	7.14
377.629	17.47
377.839	10.1
378.049	1.31
378.26	11.64
378.47	23.84
378.68	9.14
378.89	9.38
379.101	9.99
379.311	-19.77
379.521	-44.9
379.732	-49.91
379.942	-51.68
380.152	-72.04
380.362	-27.22
380.572	-19.26
380.783	2.49
380.993	16.13
381.203	31.83
381.413	31.52
381.623	39.6
381.833	35.54
382.043	23.05
382.253	18.02
382.463	14.02
382.674	-2.54
382.884	-28.24
383.094	-18.89
383.304	-13.77
383.514	-8.48
383.724	6.24
383.934	4.24
384.144	-5.29
384.353	-17.5
384.563	-18.3
384.773	-17.69
384.983	-17.17
385.193	-3.37
385.403	3.36
385.613	1.12
385.823	-5.68
386.033	3.17
386.242	-4.53
386.452	-5.21
386.662	-16.31
386.872	-5.96
387.082	-11.81
387.291	-16.29
387.501	-19.67
387.711	-9.38
387.921	-14.54
388.13	-14.67
388.34	-5.73
388.55	-8.95
388.759	-11.03
388.969	-9.22
389.179	-9.91
389.388	-11.5
389.598	-6.04
389.807	-8.25
390.017	-10.5
390.227	-7.02
390.436	-8.24
390.646	-7.72
390.855	-6.32
391.065	-5.83
391.274	-8.52
391.484	-11.32
391.693	-7.87
391.903	-6.37
392.112	-0.3
392.322	2.34
392.531	6.36
392.74	5.67
392.95	1.35
393.159	-1.8
393.369	-2.69
393.578	-2.93
393.787	-4.38
393.997	-1.18
394.206	-3.48
394.415	-2.8
394.625	-3.51
394.834	-5.84
395.043	-4.38
395.252	-1.28
395.462	0.26
395.671	1.93
395.88	3.49
396.089	2.61
396.298	1.7
396.508	0.88
396.717	-0.2
396.926	-0.36
397.135	-0.69
397.344	-0.86
397.553	-0.06
397.762	1.62
397.971	2.2
398.181	2.72
398.39	2.25
398.599	1.71
398.808	1.25
399.017	2.02
399.226	2.62
399.435	3.97
399.644	4.11
399.853	2.93
400.062	2.17
400.27	1.92
400.479	1.4
400.688	0.4
400.897	0.91
401.106	0.8
401.315	0.58
401.524	0.55
401.733	1.35
401.941	1.79
402.15	2.05
402.359	1.83
402.568	2.06
402.777	2.31
402.985	1.71
403.194	1.61
403.403	1.79
403.612	1.32
403.82	1.02
404.029	1.34
404.238	1.17
404.446	1.38
404.655	1.31
404.864	1.32
405.072	1.25
405.281	1.53
405.489	1.18
405.698	1.38
405.906	1.31
406.115	1.27
406.324	1.15
406.532	1.34
406.741	1.49
406.949	1.56
407.158	1.49
407.366	1.52
407.574	1.46
407.783	1.39
407.991	1.2
408.2	1.49
408.408	1.47
408.617	1.41
408.825	1.15
409.033	1.27
409.242	1.09
409.45	1.16
409.658	1.11
409.867	1.31
410.075	1.17
410.283	1.11
410.491	0.98
410.7	0.94
410.908	0.96
411.116	1.27
411.324	1.3
411.533	1.33
411.741	1.56
411.949	1.54
412.157	1.38
412.365	1.4
412.573	1.43
412.781	1.41
412.99	1.35
413.198	1.38
413.406	1.42
413.614	1.38
413.822	1.26
414.03	1.23
414.238	1.09
414.446	1.11
414.654	0.97
414.862	1.04
415.07	1.1
415.278	1.28
415.486	1.07
415.694	1.3
415.902	1.24
416.109	1.09
416.317	1.09
416.525	1.03
416.733	0.93
416.941	1.14
417.149	1.14
417.357	1.11
417.564	1.39
417.772	1.72
417.98	1.54
418.188	1.67
418.395	1.76
418.603	1.85
418.811	1.26
419.019	1.18
419.226	1.34
419.434	1.39
419.642	1.13
419.849	1.47
420.057	1.43
420.265	1.39
420.472	1.1
420.68	1.22
420.887	1.17
421.095	1.33
421.302	1.3
421.51	1.67
421.717	1.67
421.925	1.76
422.132	1.67
422.34	1.38
422.547	1.3
422.755	1.23
422.962	1.09
423.17	0.98
423.377	1.18
423.585	0.97
423.792	0.97
423.999	1.01
424.207	1.06
424.414	1.06
424.621	1.19
424.829	1.05
425.036	1.12
425.243	1.39
425.451	1.34
425.658	1.09
425.865	1.34
426.072	1.29
426.28	1.34
426.487	1.28
426.694	1.41
426.901	1.27
427.108	1.22
427.315	1.05
427.523	1.36
427.73	1.3
427.937	1.31
428.144	1.24
428.351	1.14
428.558	1.14
428.765	1.18
428.972	1.13
429.179	1.26
429.386	1.48
429.593	1.2
429.8	1.15
430.007	1.24
430.214	1.33
430.421	1.15
430.628	1.03
430.835	0.92
431.042	0.99
431.249	0.94
431.456	0.87
431.662	0.96
431.869	1.09
432.076	1.17
432.283	1.25
432.49	1.2
432.697	1.22
432.903	1.05
433.11	0.96
433.317	0.95
433.524	1.25
433.73	1.22
433.937	1.46
434.144	1.35
434.35	1.25
434.557	1.01
434.764	1.12
434.97	1.03
435.177	1.23
435.384	1.15
435.59	1.26
435.797	1.44
436.003	1.55
436.21	1.47
436.416	1.64
436.623	1.65
436.829	1.48
437.036	1.52
437.242	1.53
437.449	1.32
437.655	1.29
437.862	1.38
438.068	1.2
438.275	1.27
438.481	1.56
438.687	1.63
438.894	1.47
439.1	1.55
439.307	1.65
439.513	1.45
439.719	1.38
439.926	1.57
440.132	1.5
440.338	1.34
440.544	1.52
440.751	1.44
440.957	1.39
441.163	1.35
441.369	1.41
441.575	1.15
441.782	1.15
441.988	0.95
442.194	1.02
442.4	1.03
442.606	1.37
442.812	1.47
443.018	1.66
443.224	1.66
443.431	1.74
443.637	1.4
443.843	1.34
444.049	1.36
444.255	1.27
444.461	1.27
444.667	1.31
444.873	1.52
445.079	1.48
445.284	1.64
445.49	1.37
445.696	1.3
445.902	1.07
446.108	0.99
446.314	0.85
446.52	0.92
446.726	1.12
446.931	1.22
447.137	1.3
447.343	1.36
447.549	1.34
447.755	1.25
447.96	1.26
448.166	1.07
448.372	0.98
448.578	1.04
448.783	1.03
448.989	1.11
449.195	1.41
449.4	1.46
449.606	1.44
449.812	1.34
450.017	1.24
450.223	1.06
450.428	1.01
450.634	1.13
450.84	1.34
451.045	1.29
451.251	1.24
451.456	1.52
451.662	1.51
451.867	1.51
452.073	1.54
452.278	1.68
452.483	1.68
452.689	1.62
452.894	1.58
453.1	1.58
453.305	1.5
453.51	1.35
453.716	1.24
453.921	1.22
454.127	1.16
454.332	1.09
454.537	1.03
454.742	1.12
454.948	1.08
455.153	1.15
455.358	1.32
455.563	1.46
455.769	1.58
455.974	1.65
456.179	1.58
456.384	1.46
456.589	1.42
456.795	1.21
457	1.13
457.205	1.37
457.41	1.35
457.615	1.34
457.82	1.41
458.025	1.43
458.23	1.2
458.435	1.25
458.64	1.14
458.845	1.28
459.05	1.29
459.255	1.33
459.46	1.31
459.665	1.37
459.87	1.32
460.075	1.29
460.28	1.38
460.485	1.45
460.69	1.46
460.895	1.32
461.099	1.23
461.304	1.27
461.509	1.3
461.714	1.19
461.919	1.31
462.123	1.32
462.328	1.37
462.533	1.29
462.738	1.49
462.942	1.45
463.147	1.55
463.352	1.5
463.556	1.47
463.761	1.38
463.966	1.37
464.17	1.37
464.375	1.25
464.58	1.24
464.784	1.21
464.989	1.2
465.193	1.22
465.398	1.26
465.602	1.37
465.807	1.39
466.011	1.44
466.216	1.43
466.42	1.51
466.625	1.52
466.829	1.6
467.034	1.64
467.238	1.78
467.443	1.75
467.647	1.63
467.851	1.62
468.056	1.65
468.26	1.56
468.464	1.51
468.669	1.61
468.873	1.77
469.077	1.69
469.282	1.75
469.486	1.77
469.69	1.74
469.894	1.54
470.099	1.64
470.303	1.6
470.507	1.55
470.711	1.46
470.915	1.49
471.119	1.31
471.324	1.28
471.528	1.3
471.732	1.34
471.936	1.33
472.14	1.48
472.344	1.57
472.548	1.62
472.752	1.79
472.956	1.97
473.16	1.85
473.364	1.71
473.568	1.68
473.772	1.66
473.976	1.5
474.18	1.5
474.384	1.55
474.588	1.52
474.792	1.38
474.995	1.42
475.199	1.52
475.403	1.61
475.607	1.65
475.811	1.6
476.015	1.66
476.218	1.66
476.422	1.58
476.626	1.69
476.83	1.81
477.033	1.72
477.237	1.58
477.441	1.66
477.644	1.59
477.848	1.49
478.052	1.43
478.255	1.54
478.459	1.5
478.663	1.58
478.866	1.69
479.07	1.7
479.273	1.86
479.477	1.88
479.681	1.81
479.884	1.74
480.088	1.74
480.291	1.59
480.495	1.59
480.698	1.61
480.901	1.68
481.105	1.8
481.308	1.78
481.512	1.7
481.715	1.76
481.919	1.69
482.122	1.66
482.325	1.65
482.529	1.69
482.732	1.68
482.935	1.67
483.138	1.61
483.342	1.73
483.545	1.83
483.748	1.82
483.952	1.87
484.155	2.01
484.358	1.98
484.561	1.87
484.764	1.83
484.967	1.9
485.171	1.97
485.374	1.9
485.577	1.99
485.78	2.03
485.983	2
486.186	1.78
486.389	1.76
486.592	1.77
486.795	1.75
486.998	1.75
487.201	1.87
487.404	1.96
487.607	1.99
487.81	2.02
488.013	2
488.216	2.02
488.419	2.02
488.622	1.95
488.825	1.86
489.028	1.89
489.231	1.85
489.433	1.77
489.636	1.75
489.839	1.75
490.042	1.6
490.245	1.56
490.447	1.62
490.65	1.63
490.853	1.66
491.056	1.78
491.258	1.81
491.461	1.83
491.664	1.94
491.866	1.88
492.069	1.97
492.272	1.93
492.474	1.95
492.677	1.89
492.879	1.98
493.082	1.95
493.285	2.11
493.487	2.04
493.69	1.99
493.892	1.92
494.095	1.88
494.297	1.78
494.5	1.86
494.702	1.96
494.905	2.04
495.107	2.02
495.309	2.05
495.512	2.04
495.714	1.99
495.917	1.99
496.119	1.99
496.321	2.07
496.524	2.1
496.726	2.13
496.928	2.16
497.13	2.15
497.333	2.08
497.535	2.08
497.737	2.05
497.939	2.03
498.142	2.04
498.344	2.02
498.546	1.95
498.748	2
498.95	2.05
499.152	2.05
499.355	2.14
499.557	2.27
499.759	2.33
499.961	2.31
500.163	2.35
500.365	2.32
500.567	2.3
500.769	2.21
500.971	2.22
501.173	2.15
501.375	2.15
501.577	2.09
501.779	2.09
501.981	2.1
502.183	2.16
502.385	2.16
502.587	2.11
502.788	2.21
502.99	2.21
503.192	2.22
503.394	2.2
503.596	2.26
503.798	2.32
503.999	2.37
504.201	2.37
504.403	2.43
504.605	2.45
504.806	2.34
505.008	2.29
505.21	2.33
505.411	2.31
505.613	2.3
505.815	2.35
506.016	2.44
506.218	2.5
506.42	2.51
506.621	2.56
506.823	2.54
507.024	2.48
507.226	2.42
507.427	2.39
507.629	2.39
507.83	2.41
508.032	2.4
508.233	2.46
508.435	2.52
508.636	2.6
508.838	2.56
509.039	2.58
509.24	2.56
509.442	2.58
509.643	2.48
509.845	2.52
510.046	2.62
510.247	2.68
510.448	2.66
510.65	2.75
510.851	2.87
511.052	2.85
511.254	2.83
511.455	2.93
511.656	2.99
511.857	2.98
512.058	2.98
512.26	2.97
512.461	2.89
512.662	2.87
512.863	2.77
513.064	2.78
513.265	2.83
513.466	2.92
513.667	2.87
513.868	2.94
514.069	2.97
514.27	3.01
514.471	2.94
514.672	2.99
514.873	2.96
515.074	3
515.275	2.89
515.476	2.9
515.677	2.87
515.878	3.06
516.079	3.02
516.28	3.11
516.481	3.22
516.682	3.25
516.882	3.06
517.083	3.05
517.284	2.98
517.485	2.95
517.686	2.94
517.886	3.01
518.087	3.03
518.288	3.07
518.488	3.03
518.689	3.06
518.89	2.98
519.091	3
519.291	3.01
519.492	3.06
519.692	3.13
519.893	3.24
520.094	3.22
520.294	3.25
520.495	3.21
520.695	3.23
520.896	3.23
521.096	3.27
521.297	3.32
521.497	3.33
521.698	3.3
521.898	3.31
522.099	3.29
522.299	3.35
522.499	3.36
522.7	3.38
522.9	3.33
523.101	3.37
523.301	3.3
523.501	3.25
523.702	3.25
523.902	3.36
524.102	3.42
524.302	3.44
524.503	3.57
524.703	3.54
524.903	3.56
525.103	3.48
525.304	3.56
525.504	3.59
525.704	3.64
525.904	3.57
526.104	3.59
526.304	3.59
526.504	3.56
526.705	3.61
526.905	3.71
527.105	3.75
527.305	3.7
527.505	3.62
527.705	3.62
527.905	3.63
528.105	3.66
528.305	3.64
528.505	3.72
528.705	3.76
528.905	3.69
529.105	3.64
529.304	3.74
529.504	3.79
529.704	3.71
529.904	3.74
530.104	3.79
530.304	3.84
530.503	3.8
530.703	3.78
530.903	3.75
531.103	3.78
531.303	3.72
531.502	3.76
531.702	3.94
531.902	3.98
532.101	3.97
532.301	3.99
532.501	3.96
532.7	3.87
532.9	3.88
533.1	3.91
533.299	3.96
533.499	4.02
533.698	3.97
533.898	3.99
534.097	3.95
534.297	4.01
534.496	4.03
534.696	4.09
534.895	4.23
535.095	4.34
535.294	4.25
535.494	4.2
535.693	4.21
535.892	4.12
536.092	4
536.291	3.97
536.491	4.08
536.69	4.13
536.889	4.1
537.088	4.14
537.288	4.23
537.487	4.24
537.686	4.22
537.886	4.29
538.085	4.37
538.284	4.47
538.483	4.4
538.682	4.46
538.882	4.43
539.081	4.45
539.28	4.34
539.479	4.38
539.678	4.33
539.877	4.44
540.076	4.42
540.275	4.47
540.474	4.59
540.673	4.66
540.872	4.6
541.071	4.66
541.27	4.71
541.469	4.7
541.668	4.71
541.867	4.75
542.066	4.78
542.265	4.83
542.464	4.77
542.663	4.81
542.862	4.91
543.06	4.92
543.259	4.91
543.458	4.99
543.657	5.01
543.856	4.99
544.054	4.99
544.253	4.99
544.452	4.99
544.651	5.04
544.849	5.03
545.048	5.13
545.247	5.14
545.445	5.2
545.644	5.22
545.843	5.24
546.041	5.25
546.24	5.36
546.438	5.47
546.637	5.49
546.836	5.67
547.034	5.69
547.233	5.73
547.431	5.68
547.63	5.74
547.828	5.67
548.027	5.7
548.225	5.69
548.423	5.7
548.622	5.79
548.82	5.8
549.019	5.87
549.217	5.97
549.415	6.06
549.614	6.07
549.812	6.09
550.01	6.06
550.209	6.05
550.407	6.14
550.605	6.14
550.803	6.29
551.002	6.42
551.2	6.51
551.398	6.6
551.596	6.68
551.794	6.7
551.993	6.73
552.191	6.77
552.389	6.8
552.587	6.9
552.785	6.95
552.983	7.02
553.181	7.08
553.379	7.13
553.577	7.12
553.775	7.19
553.973	7.27
554.171	7.34
554.369	7.29
554.567	7.33
554.765	7.39
554.963	7.42
555.161	7.38
555.359	7.53
555.557	7.7
555.755	7.77
555.952	7.91
556.15	8.04
556.348	8.18
556.546	8.24
556.744	8.25
556.941	8.19
557.139	8.24
557.337	8.24
557.535	8.22
557.732	8.39
557.93	8.55
558.128	8.62
558.325	8.68
558.523	8.77
558.721	8.84
558.918	8.89
559.116	8.99
559.313	9.04
559.511	9.14
559.708	9.1
559.906	9.13
560.104	9.21
560.301	9.29
560.498	9.34
560.696	9.39
560.893	9.5
561.091	9.54
561.288	9.63
561.486	9.7
561.683	9.82
561.88	9.92
562.078	10.05
562.275	10.07
562.473	10.15
562.67	10.28
562.867	10.32
563.064	10.39
563.262	10.47
563.459	10.54
563.656	10.62
563.853	10.72
564.051	10.78
564.248	10.93
564.445	11
564.642	10.98
564.839	11.05
565.036	11.19
565.234	11.3
565.431	11.36
565.628	11.48
565.825	11.57
566.022	11.6
566.219	11.64
566.416	11.72
566.613	11.84
566.81	11.91
567.007	11.88
567.204	11.82
567.401	11.88
567.598	11.94
567.795	11.96
567.991	12.07
568.188	12.21
568.385	12.29
568.582	12.33
568.779	12.42
568.976	12.54
569.172	12.62
569.369	12.58
569.566	12.58
569.763	12.62
569.96	12.61
570.156	12.64
570.353	12.68
570.55	12.7
570.746	12.72
570.943	12.76
571.14	12.69
571.336	12.79
571.533	12.83
571.729	12.82
571.926	12.83
572.123	12.97
572.319	13.04
572.516	13.03
572.712	13.07
572.909	13.04
573.105	13.04
573.302	13.03
573.498	13.13
573.695	13.07
573.891	13.12
574.087	13.19
574.284	13.13
574.48	13.05
574.677	13.14
574.873	13.19
575.069	13.19
575.266	13.2
575.462	13.2
575.658	13.23
575.854	13.29
576.051	13.26
576.247	13.25
576.443	13.24
576.639	13.23
576.835	13.09
577.032	13.01
577.228	13.11
577.424	13.22
577.62	13.15
577.816	13.23
578.012	13.29
578.208	13.27
578.404	13.22
578.6	13.27
578.796	13.28
578.993	13.31
579.189	13.28
579.384	13.19
579.58	13.11
579.776	13.06
579.972	13.03
580.168	12.94
580.364	13
580.56	13.06
580.756	13.01
580.952	12.98
581.148	13.02
581.343	13.01
581.539	13.07
581.735	13.14
581.931	13.1
582.127	13.14
582.322	13.14
582.518	13.09
582.714	13.03
582.909	12.99
583.105	12.94
583.301	12.82
583.496	12.77
583.692	12.72
583.888	12.74
584.083	12.74
584.279	12.8
584.474	12.76
584.67	12.83
584.866	12.75
585.061	12.66
585.257	12.67
585.452	12.68
585.648	12.57
585.843	12.62
586.039	12.73
586.234	12.73
586.429	12.61
586.625	12.76
586.82	12.74
587.015	12.63
587.211	12.52
587.406	12.61
587.601	12.46
587.797	12.49
587.992	12.43
588.187	12.55
588.383	12.49
588.578	12.51
588.773	12.51
588.968	12.6
589.163	12.62
589.359	12.63
589.554	12.64
589.749	12.63
589.944	12.63
590.139	12.56
590.334	12.64
590.529	12.62
590.724	12.67
590.919	12.8
591.114	12.85
591.309	12.85
591.504	12.93
591.699	12.88
591.894	12.84
592.089	12.77
592.284	12.76
592.479	12.82
592.674	12.84
592.869	12.92
593.064	13.08
593.259	13.18
593.454	13.2
593.648	13.23
593.843	13.19
594.038	13.21
594.233	13.16
594.428	13.1
594.622	13.14
594.817	13.26
595.012	13.24
595.206	13.33
595.401	13.43
595.596	13.52
595.79	13.55
595.985	13.7
596.18	13.75
596.374	13.88
596.569	13.9
596.763	13.89
596.958	13.89
597.153	13.92
597.347	13.89
597.542	14.03
597.736	14.12
597.931	14.17
598.125	14.33
598.319	14.49
598.514	14.49
598.708	14.5
598.903	14.57
599.097	14.53
599.291	14.49
599.486	14.48
599.68	14.53
599.874	14.5
600.069	14.53
600.263	14.53
600.457	14.71
600.651	14.72
600.846	14.83
601.04	14.82
601.234	14.87
601.428	14.83
601.622	14.9
601.817	14.87
602.011	14.97
602.205	15.05
602.399	15.02
602.593	14.97
602.787	15.05
602.981	15.02
603.175	15.04
603.369	14.99
603.563	15.09
603.757	15.15
603.951	15.18
604.145	15.12
604.339	15.25
604.533	15.15
604.727	15.05
604.921	14.92
605.115	14.89
605.309	14.9
605.502	14.9
605.696	14.8
605.89	14.83
606.084	14.77
606.278	14.64
606.471	14.61
606.665	14.58
606.859	14.5
607.053	14.5
607.246	14.5
607.44	14.46
607.634	14.38
607.827	14.41
608.021	14.28
608.214	14.18
608.408	14.08
608.602	14.07
608.795	14
608.989	13.98
609.182	13.96
609.376	13.97
609.569	14
609.763	13.87
609.956	13.8
610.15	13.68
610.343	13.62
610.537	13.5
610.73	13.51
610.923	13.47
611.117	13.47
611.31	13.36
611.504	13.37
611.697	13.27
611.89	13.24
612.083	13.18
612.277	13.16
612.47	13.05
612.663	12.98
612.856	12.87
613.05	12.82
613.243	12.79
613.436	12.67
613.629	12.62
613.822	12.55
614.015	12.42
614.209	12.27
614.402	12.32
614.595	12.24
614.788	12.21
614.981	12.13
615.174	12.1
615.367	11.96
615.56	11.88
615.753	11.81
615.946	11.81
616.139	11.72
616.332	11.87
616.525	11.92
616.718	11.93
616.911	11.83
617.103	11.81
617.296	11.66
617.489	11.6
617.682	11.5
617.875	11.55
618.067	11.52
618.26	11.38
618.453	11.37
618.646	11.36
618.838	11.3
619.031	11.42
619.224	11.43
619.417	11.4
619.609	11.44
619.802	11.46
619.994	11.33
620.187	11.34
620.38	11.22
620.572	11.09
620.765	11.08
620.957	10.95
621.15	10.85
621.342	10.86
621.535	10.91
621.727	10.81
621.92	10.87
622.112	10.82
622.305	10.88
622.497	10.82
622.69	10.88
622.882	10.8
623.074	10.88
623.267	10.81
623.459	10.7
623.651	10.65
623.844	10.68
624.036	10.68
624.228	10.61
624.42	10.62
624.613	10.68
624.805	10.64
624.997	10.61
625.189	10.59
625.381	10.7
625.574	10.55
625.766	10.48
625.958	10.44
626.15	10.48
626.342	10.39
626.534	10.43
626.726	10.47
626.918	10.49
627.11	10.43
627.302	10.42
627.494	10.31
627.686	10.28
627.878	10.17
628.07	10.19
628.262	10.16
628.454	10.27
628.646	10.24
628.838	10.3
629.029	10.28
629.221	10.4
629.413	10.28
629.605	10.17
629.797	10.1
629.989	10.08
630.18	9.92
630.372	9.92
630.564	10
630.755	9.98
630.947	9.95
631.139	9.85
631.33	9.75
631.522	9.81
631.714	9.84
631.905	9.86
632.097	9.84
632.289	9.94
632.48	9.81
632.672	9.67
632.863	9.52
633.055	9.52
633.246	9.47
633.438	9.42
633.629	9.47
633.821	9.5
634.012	9.47
634.203	9.4
634.395	9.41
634.586	9.38
634.777	9.24
634.969	9.29
635.16	9.35
635.351	9.31
635.543	9.3
635.734	9.38
635.925	9.38
636.117	9.36
636.308	9.37
636.499	9.29
636.69	9.22
636.881	9.13
637.073	9.09
637.264	9.07
637.455	9.15
637.646	9.25
637.837	9.3
638.028	9.23
638.219	9.27
638.41	9.17
638.601	9.04
638.792	9.02
638.983	9.02
639.174	8.91
639.365	8.98
639.556	8.98
639.747	8.96
639.938	8.95
640.129	8.94
640.32	8.86
640.511	8.89
640.701	8.94
640.892	8.83
641.083	8.84
641.274	8.89
641.465	8.85
641.655	8.7
641.846	8.79
642.037	8.75
642.228	8.68
642.418	8.7
642.609	8.74
642.8	8.73
642.99	8.72
643.181	8.69
643.372	8.71
643.562	8.68
643.753	8.62
643.943	8.52
644.134	8.45
644.324	8.26
644.515	8.27
644.705	8.29
644.896	8.33
645.086	8.41
645.277	8.48
645.467	8.5
645.658	8.45
645.848	8.48
646.038	8.45
646.229	8.41
646.419	8.36
646.61	8.31
646.8	8.23
646.99	8.17
647.18	8.15
647.371	8.09
647.561	7.98
647.751	7.99
647.941	7.89
648.132	7.89
648.322	7.84
648.512	7.98
648.702	8
648.892	8.1
649.082	8.1
649.272	8.04
649.462	7.96
649.653	7.82
649.843	7.67
650.033	7.68
650.223	7.71
650.413	7.65
650.603	7.71
650.793	7.78
650.983	7.67
651.172	7.61
651.362	7.59
651.552	7.47
651.742	7.41
651.932	7.44
652.122	7.5
652.312	7.53
652.502	7.52
652.691	7.46
652.881	7.31
653.071	7.27
653.261	7.14
653.45	7.1
653.64	7.09
653.83	7.03
654.019	6.95
654.209	6.95
654.399	6.92
654.588	6.79
654.778	6.75
654.968	6.66
655.157	6.56
655.347	6.55
655.536	6.48
655.726	6.48
655.915	6.35
656.105	6.29
656.294	6.23
656.484	6.17
656.673	6.06
656.863	6.1
657.052	6.03
657.241	5.84
657.431	5.71
657.62	5.57
657.809	5.32
657.999	5.17
658.188	5.05
658.377	4.97
658.567	4.92
658.756	4.85
658.945	4.77
659.134	4.71
659.324	4.76
659.513	4.73
659.702	4.68
659.891	4.61
660.08	4.56
660.269	4.51
660.458	4.38
660.648	4.35
660.837	4.26
661.026	4.18
661.215	3.97
661.404	3.86
661.593	3.86
661.782	3.74
661.971	3.72
662.16	3.6
662.349	3.51
662.538	3.25
662.726	3.27
662.915	3.16
663.104	3.15
663.293	3.17
663.482	3.34
663.671	3.24
663.86	3.18
664.048	3.14
664.237	3.13
664.426	2.92
664.615	3
664.803	2.97
664.992	2.96
665.181	2.95
665.369	2.94
665.558	2.86
665.747	2.84
665.935	2.91
666.124	2.9
666.312	2.97
666.501	2.98
666.69	2.87
666.878	2.77
667.067	2.6
667.255	2.65
667.444	2.89
667.632	3.05
667.82	3.12
668.009	3.2
668.197	3.04
668.386	2.82
668.574	2.88
668.762	2.78
668.951	2.66
669.139	2.73
669.327	2.64
669.516	2.57
669.704	2.54
669.892	2.73
670.08	2.78
670.269	2.7
670.457	2.61
670.645	2.53
670.833	2.56
671.021	2.56
671.21	2.7
671.398	2.97
671.586	2.99
671.774	2.88
671.962	2.87
672.15	2.87
672.338	2.67
672.526	2.8
672.714	2.77
672.902	2.76
673.09	2.9
673.278	3.05
673.466	3.06
673.654	3.25
673.842	3.18
674.03	3.09
674.218	2.98
674.405	2.97
674.593	2.88
674.781	3.06
674.969	3.07
675.157	3.21
675.344	3.27
675.532	3.39
675.72	3.4
675.908	3.53
676.095	3.46
676.283	3.47
676.471	3.6
676.658	3.59
676.846	3.53
677.033	3.61
677.221	3.71
677.409	3.5
677.596	3.6
677.784	3.72
677.971	3.7
678.159	3.69
678.346	3.81
678.534	3.83
678.721	3.91
678.909	3.94
679.096	3.96
679.283	4.13
679.471	4.17
679.658	4.16
679.846	4.36
680.033	4.55
680.22	4.53
680.408	4.53
680.595	4.5
680.782	4.35
680.969	4.36
681.157	4.37
681.344	4.41
681.531	4.47
681.718	4.57
681.905	4.55
682.093	4.69
682.28	4.86
682.467	5.09
682.654	5.16
682.841	5.47
683.028	5.5
683.215	5.47
683.402	5.28
683.589	5.37
683.776	5.31
683.963	5.39
684.15	5.65
684.337	5.9
684.524	6.07
684.711	6.21
684.898	6.27
685.085	6.31
685.271	6.48
685.458	6.56
685.645	6.64
685.832	6.94
686.019	7.1
686.205	7.29
686.392	7.5
686.579	7.65
686.766	7.89
686.952	8.01
687.139	8.45
687.326	8.52
687.512	8.71
687.699	8.88
687.886	9.13
688.072	9.07
688.259	9.45
688.445	9.88
688.632	9.9
688.818	10.44
689.005	10.72
689.191	11.03
689.378	11.57
689.564	12.08
689.751	12.34
689.937	12.81
690.124	13.28
690.31	13.28
690.496	13.55
690.683	13.99
690.869	14.38
691.055	14.75
691.242	15.47
691.428	16.23
691.614	16.69
691.8	17.4
691.987	17.99
692.173	18.5
692.359	18.99
692.545	19.62
692.731	19.96
692.918	20.52
693.104	20.91
693.29	21.47
693.476	22.05
693.662	22.78
693.848	23.39
694.034	24.04
694.22	24.5
694.406	25.06
694.592	25.61
694.778	26.27
694.964	26.95
695.15	27.71
695.336	28.43
695.522	29.38
695.708	30.07
695.894	30.84
696.08	31.42
696.265	32.24
696.451	32.69
696.637	33.69
696.823	34.37
697.009	35.14
697.194	35.49
697.38	36.09
697.566	36.37
697.751	37.1
697.937	37.92
698.123	38.67
698.308	39.25
698.494	40.26
698.68	40.81
698.865	41.65
699.051	42.63
699.236	43.49
699.422	43.98
699.607	44.54
699.793	44.83
699.978	45.04
700.164	45.78
700.349	46.5
700.535	47.09
700.72	47.61
700.906	48.32
701.091	48.56
701.276	48.74
701.462	49.88
701.647	50.92
701.832	51.46
702.018	52.07
702.203	52.8
702.388	52.83
702.573	53.26
702.759	54.29
702.944	55.07
703.129	55.25
703.314	55.98
703.499	56.08
703.684	56.14
703.87	57.15
704.055	58.7
704.24	59.03
704.425	60.12
704.61	60.66
704.795	60.56
704.98	60.31
705.165	60.74
705.35	61.01
705.535	61.6
705.72	62.45
705.905	63.21
706.09	63.74
706.275	64
706.459	63.96
706.644	64.08
706.829	64.2
707.014	64.37
707.199	64.55
707.384	65.31
707.568	65.5
707.753	66.02
707.938	66.71
708.123	67.09
708.307	67.24
708.492	67.71
708.677	68.12
708.861	68
709.046	68.37
709.231	69.25
709.415	69.5
709.6	69.38
709.784	69.79
709.969	69.94
710.153	69.47
710.338	69.47
710.522	69.9
710.707	70.59
710.891	71.1
711.076	71.67
711.26	71.91
711.445	72.32
711.629	72.38
711.813	72.64
711.998	73.1
712.182	73.28
712.366	73.47
712.551	74.11
712.735	74.17
712.919	73.87
713.103	74.31
713.288	74.47
713.472	73.99
713.656	74.78
713.84	75.28
714.024	75.49
714.208	75.49
714.393	76.21
714.577	76
714.761	75.99
714.945	75.86
715.129	75.85
715.313	75.6
715.497	75.55
715.681	76.09
715.865	76.1
716.049	76.16
716.233	76.35
716.417	76.57
716.601	76.18
716.785	76.55
716.968	76.95
717.152	77.02
717.336	77.04
717.52	77.3
717.704	77.65
717.888	77.85
718.071	78.48
718.255	78.78
718.439	78.41
718.622	78.55
718.806	78.88
718.99	78.56
719.174	78.53
719.357	79.36
719.541	79.68
719.724	79.67
719.908	80.23
720.092	80.92
720.275	81.38
720.459	81.12
720.642	80.62
720.826	80.47
721.009	80.15
721.193	79.16
721.376	79.11
721.559	79.51
721.743	79.54
721.926	79.46
722.11	80.28
722.293	80.16
722.476	80.38
722.66	80.5
722.843	80.57
723.026	80.07
723.21	80.6
723.393	81.17
723.576	81.18
723.759	81.18
723.942	81.13
724.126	80.95
724.309	80.38
724.492	80.01
724.675	80.43
724.858	81.27
725.041	81.78
725.224	82.29
725.407	82.74
725.59	82.62
725.774	82.33
725.957	81.43
726.14	81.28
726.322	81.24
726.505	81.26
726.688	81.91
726.871	82.21
727.054	82.24
727.237	81.88
727.42	82.37
727.603	81.86
727.786	82.45
727.968	82.47
728.151	83.07
728.334	82.69
728.517	83.03
728.699	83.47
728.882	83.22
729.065	83.6
729.248	84.14
729.43	83.85
729.613	83.96
729.796	84.92
729.978	84.58
730.161	83.88
730.343	84.31
730.526	84.87
730.708	84.16
730.891	84.25
731.073	84.42
731.256	83.94
731.438	84.05
731.621	84.86
731.803	84.82
731.986	85.36
732.168	85.2
732.35	85.12
732.533	84.53
732.715	85.22
732.898	85.66
733.08	86.16
733.262	86.33
733.444	86.34
733.627	86.07
733.809	86.06
733.991	86.29
734.173	84.97
734.355	85.37
734.538	85.43
734.72	84.36
734.902	84.78
735.084	85.91
735.266	85.95
735.448	86.16
735.63	86.59
735.812	86.43
735.994	87.28
736.176	87.74
736.358	87.22
736.54	87.9
736.722	87.17
736.904	86.07
737.086	85.91
737.268	87.08
737.45	87.72
737.632	87.98
737.814	87.63
737.995	87.61
738.177	87.59
738.359	86.3
738.541	87.09
738.723	87.35
738.904	87.97
739.086	87.31
739.268	87.38
739.449	87.68
739.631	87.48
739.813	87.12
739.994	88.36
740.176	88.78
740.358	88.28
740.539	89.59
740.721	89.34
740.902	89
741.084	88.62
741.265	88.38
741.447	88.52
741.628	88.55
741.81	87.34
741.991	88.39
742.172	89.4
742.354	88.4
742.535	88.87
742.717	89.35
742.898	89.82
743.079	90.1
743.261	91.09
743.442	89.8
743.623	91.09
743.804	90.9
743.986	91.01
744.167	88.81
744.348	89.06
744.529	88.33
744.71	87.49
744.891	86.47
745.073	87.06
745.254	87.53
745.435	86.97
745.616	86.51
745.797	86.72
745.978	86.26
746.159	86.92
746.34	86.34
746.521	88.24
746.702	87.62
746.883	88.48
747.064	87.71
747.245	87.95
747.426	86.73
747.606	86.64
747.787	86.46
747.968	87.07
748.149	87.77
748.33	88.17
748.51	89.51
748.691	90
748.872	89.52
749.053	88.6
749.233	87.67
749.414	87.02
749.595	85.71
749.775	85.17
749.956	85.9
750.137	85.77
750.317	86.11
750.498	87.68
750.678	88.36
750.859	87.99
751.04	87.58
751.22	86.89
751.4	85.4
751.581	83.52
751.761	84.16
751.942	85.16
752.122	85.06
752.303	85.32
752.483	86.69
752.663	86.45
752.844	85.95
753.024	86.97
753.204	87.37
753.385	86.94
753.565	86.74
753.745	87.36
753.925	85.96
754.106	84.6
754.286	84.38
754.466	83.94
754.646	83.71
754.826	83.2
755.006	82.67
755.187	83.59
755.367	84.29
755.547	84.64
755.727	86.17
755.907	87.29
756.087	87.98
756.267	86.42
756.447	85.87
756.627	84.06
756.807	85.58
756.987	83.71
757.167	84.25
757.346	84.08
757.526	83.91
757.706	83.23
757.886	84.51
758.066	86.37
758.246	88.11
758.425	89.19
758.605	88.8
758.785	88.88
758.965	87.06
759.144	83.97
759.324	84.03
759.504	84.42
759.683	83.98
759.863	82.99
760.043	84.07
760.222	83.91
760.402	82.25
760.581	83.04
760.761	84.98
760.94	83.03
761.12	84.64
761.299	87.15
761.479	86.76
761.658	85.03
761.838	86.58
762.017	84.79
762.197	83.82
762.376	83.85
762.555	85.57
762.735	86.11
762.914	85.51
763.093	84.87
763.273	83.84
763.452	82.67
763.631	81.91
763.81	82.15
763.99	82.49
764.169	83.67
764.348	81.44
764.527	81.01
764.706	82.5
764.885	84.42
765.064	82.01
765.243	83.41
765.423	84.93
765.602	83.36
765.781	79.66
765.96	79.44
766.139	78.64
766.318	78.76
766.497	77.59
766.676	78.19
766.854	79.37
767.033	80.57
767.212	79.52
767.391	81.78
767.57	84.29
767.749	84.68
767.928	86.66
768.106	85.7
768.285	81.44
768.464	79.68
768.643	78.32
768.821	77.13
769	79.27
769.179	82.1
769.357	80.86
769.536	82.02
769.715	81.03
769.893	81.31
770.072	80.33
770.25	80.02
770.429	80.67
770.607	80.76
770.786	79.73
770.964	80.72
771.143	81.23
771.321	80.8
771.5	82.59
771.678	82.38
771.857	80.54
772.035	80.02
772.213	78.87
772.392	77
772.57	77.11
772.748	77.96
772.927	75.78
773.105	73.97
773.283	74.22
773.461	75.03
773.64	76.84
773.818	78.69
773.996	82.14
774.174	81.43
774.352	78.09
774.531	75.39
774.709	77.5
774.887	75.95
775.065	73.76
775.243	74.31
775.421	73.46
775.599	74.32
775.777	71.96
775.955	72.78
776.133	72.02
776.311	72.25
776.489	68.02
776.667	70.24
776.844	72.49
777.022	71.88
777.2	73.16
777.378	73.65
777.556	73.37
777.734	74.27
777.911	78.62
778.089	75.82
778.267	77.77
778.445	77.41
778.622	73.23
778.8	70.88
778.978	77.03
779.155	76.36
779.333	76.91
779.511	79.57
779.688	80.18
779.866	74.83
780.043	73.88
780.221	72.69
780.398	69.79
780.576	71.36
780.753	71.5
780.931	70.67
781.108	70.65
781.286	73.24
781.463	69.71
781.64	68.15
781.818	72.88
781.995	75.26
782.172	76.95
782.35	78.71
782.527	84.51
782.704	79.45
782.882	77.61
783.059	76.12
783.236	77.48
783.413	75.1
783.59	77.99
783.768	74.37
783.945	75.14
784.122	77.64
784.299	78.4
784.476	77.66
784.653	79.58
784.83	76.17
785.007	69.5
785.184	69.54
785.361	67.69
785.538	74.88
785.715	78.17
785.892	80.66
786.069	83.28
786.246	86.88
786.423	81.33
786.6	80.51
786.776	82.99
786.953	79.48
787.13	80.82
787.307	79.4
787.484	78.82
787.66	76.69
787.837	76.6
788.014	70.85
788.191	73.69
788.367	73.03
788.544	75.21
788.721	74.37
788.897	76.84
789.074	74.63
789.25	72.74
789.427	72.16
789.603	73.21
789.78	73.84
789.956	76.31
790.133	75.64
790.309	75.48
790.486	78.62
790.662	77.5
790.839	74.64
791.015	75.56
791.192	70.03
791.368	70.16
791.544	67.89
791.721	71.11
791.897	75.94
792.073	73.58
792.249	63.37
792.426	66.23
792.602	68.45
792.778	65.56
792.954	69.02
793.13	75.6
793.307	70.35
793.483	61.08
793.659	61.55
793.835	64.99
794.011	62.84
794.187	67.4
794.363	65.38
794.539	71.26
794.715	67.91
794.891	71.23
795.067	72.81
795.243	85.02
795.419	78.77
795.595	74.48
795.771	72.58
795.947	71.45
796.122	64.07
796.298	65.52
796.474	70.57
796.65	69.95
796.826	68.22
797.001	66.39
797.177	58.94
797.353	62.07
797.529	63.66
797.704	64.66
797.88	62.56
798.056	63.44
798.231	58.4
798.407	57.94
798.582	62.58
798.758	71.5
798.934	75.71
799.109	78.98
799.285	75.01
799.46	76.32
799.636	70.83
799.811	70.07
799.986	68.41
800.162	70.68
800.337	70.8
800.513	66.61
800.688	69.95
800.863	81.71
801.039	76.48
801.214	64.82
801.389	74.97
801.565	73.03
801.74	58.65
801.915	70.12
802.09	72.53
802.265	76.17
802.441	71.49
802.616	72.12
802.791	66.08
802.966	67.26
803.141	60.9
803.316	59.7
803.491	65.54
803.666	68.1
803.841	64.18
804.016	61.5
804.191	65.48
804.366	56.6
804.541	52.14
804.716	52.56
804.891	49.33
805.066	52.95
805.241	52.49
805.416	55.62
805.591	54.26
805.765	60.27
805.94	62.11
806.115	65.8
806.29	58.68
806.464	69.75
806.639	65.94
806.814	59.04
806.989	53.41
807.163	67.49
807.338	61.1
807.512	63.85
807.687	51.46
807.862	68.26
808.036	64.49
808.211	70.56
808.385	71.66
808.56	88.52
808.734	87.35
808.909	77.97
809.083	66.94
809.258	75.28
809.432	66.99
809.606	51.84
809.781	55.85
809.955	65.58
810.13	60.81
810.304	58.47
810.478	60.39
810.652	64.69
810.827	58.47
811.001	51.2
811.175	54.1
811.349	57.94
811.524	60.92
811.698	53.62
811.872	58.37
812.046	69.81
812.22	73.07
812.394	60.23
812.568	68.65
812.742	73
812.916	63.45
813.09	53.05
813.264	55.82
813.438	59.91
813.612	53.06
813.786	55.23
813.96	66.11
814.134	66.3
814.308	73.36
814.482	76.27
814.656	67.51
814.83	68
815.003	71.43
815.177	56.74
815.351	56.89
815.525	54.8
815.698	46.93
815.872	40.01
816.046	33.1
816.219	34.25
816.393	53.5
816.567	60.68
816.74	66.83
816.914	81.92
817.088	91.44
817.261	81.38
817.435	68.2
817.608	72.84
817.782	52
817.955	38.85
818.129	32.28
818.302	42.05
818.475	53.63
818.649	60.35
818.822	50.81
818.996	80.04
819.169	85.65
819.342	62.38
819.516	73.89
819.689	84.79
819.862	70.51
820.035	63.8
820.209	58.36
820.382	57.91
820.555	59.58
820.728	44.17
820.901	42.52
821.075	51.3
821.248	54.94
821.421	47.06
821.594	47.87
821.767	57.1
821.94	69.16
822.113	42.76
822.286	49.06
822.459	71.82
822.632	73.32
822.805	49.85
822.978	46.55
823.151	43.66
823.324	20.13
823.496	1.28
823.669	3.54
823.842	27.85
824.015	8
824.188	5.08
824.361	20.59
824.533	28.85
824.706	32.98
824.879	46.21
825.051	64.07
825.224	57.21
825.397	48.46
825.569	23.89
825.742	51.12
825.915	65.08
826.087	85.02
826.26	78.6
826.432	91.06
826.605	79.75
826.777	54.92
826.95	55.48
827.122	49.15
827.295	39.56
827.467	36.03
827.64	11.03
827.812	-7.71
827.984	-0.74
828.157	-3.07
828.329	-36.34
828.501	-22.17
828.674	16.15
828.846	10.54
829.018	34.87
829.19	34.01
829.363	63.87
829.535	68.12
829.707	72.74
829.879	54.01
830.051	73.69
830.223	45.8
830.395	15.51
830.568	3.46
830.74	-10.28
830.912	-18.91
831.084	-15.08
831.256	-3.4
831.428	-9.3
831.6	-10.92
831.772	-23.95
831.943	-38.05
832.115	-28
832.287	2.57
832.459	13.4
832.631	32.17
832.803	45.55
832.975	62.36
833.146	52.77
833.318	62.3
833.49	65.4
833.662	61.93
833.833	30.91
834.005	30.32
834.177	30.48
834.348	36.6
834.52	24.46
834.692	53.81
834.863	47.25
835.035	32.78
835.206	-26.51
835.378	-12.03
835.549	-39.43
835.721	-29.59
835.892	-36.34
836.064	-21.25
836.235	-21.83
836.407	9.08
836.578	-12.36
836.749	3.99
836.921	-28.11
837.092	-54.74
837.264	-66.25
837.435	-71.32
837.606	-33.52
837.777	4.65
837.949	34.19
838.12	43.03
838.291	52.71
838.462	48.51
838.633	37.3
838.805	32.24
838.976	41.34
839.147	13.63
839.318	-14.66
839.489	-62.83
839.66	-68.35
839.831	-40.84
840.002	-32.56
840.173	-34.1
840.344	27.71
840.515	28.49
840.686	-55.97
840.857	-12.89
841.028	4.52
841.199	6.68
841.369	-11.91
841.54	-10.94
841.711	7.24
841.882	7.3
842.053	-4.9
842.223	-3.13
842.394	20.26
842.565	18.42
842.736	33.93
842.906	35.54
843.077	51.51
843.248	76.76
843.418	85.84
843.589	79.78
843.759	152.6
843.93	93.75
844.101	28.42
844.271	14.99
844.442	8
844.612	20.63
844.783	-0.44
844.953	-32.22
845.123	-24.74
845.294	-6.17
845.464	-191.87
845.635	-85.98
845.805	35.16
845.975	32.59
846.146	-6.67
846.316	-9.82
846.486	22.57
846.656	35.52
846.827	18.03
846.997	18.37
847.167	50.86
847.337	11.77
847.507	-37.02
847.677	-3.14
847.848	48.17
848.018	43.65
848.188	49.35
848.358	43.53
848.528	25.28
848.698	-22.49
848.868	-130.45
849.038	-235.87
849.208	-126.5
849.378	-75.58
849.548	-23.24
849.718	6.08
849.887	31.27
850.057	41.57
850.227	-1.4
850.397	-37.15
850.567	-89.15
850.737	-216.85
850.906	-698.44
851.076	-368.55
851.246	-132.33
851.415	12.58
851.585	-1.85
851.755	-35.24
851.924	-14.94
852.094	-19.1
852.264	-130.25
852.433	-1010.34
852.603	-163.55
852.772	-14.59
852.942	11.17
853.111	26.25
853.281	53.66
853.45	91.29
853.62	-15
853.789	-67.56
853.959	-51.1
854.128	-17.21
854.297	-71.34
854.467	-61.66
854.636	-16.65
854.805	22.13
854.975	-13.79
855.144	39.25
855.313	322.55
855.482	-26.82
855.652	-82.66
855.821	-29
855.99	22.98
856.159	29.4
856.328	28.57
856.497	-7.6
856.667	-2.64
856.836	-13.97
857.005	-52.88
857.174	-48.6
857.343	-37.88
857.512	-8.35
857.681	-52.03
857.85	-74.34
858.019	-23.24
858.188	-23.39
858.356	-41.36
858.525	-95.96
858.694	-61.48
858.863	-162.37
859.032	-112.24
859.201	-169.03
859.369	-42.28
859.538	6.22
859.707	-21.81
859.876	-27.66
860.044	7.1
860.213	57.41
860.382	21.65
860.55	28.25
860.719	41.72
860.888	52.34
861.056	-25.02
861.225	-24.54
861.393	13.94
861.562	5.62
861.73	-110.89
861.899	-289.4
862.067	-2092.24
862.236	-75.53
862.404	-199.93
862.572	-48.75
862.741	24.4
862.909	18.79
863.078	-80.78
863.246	-37.55
863.414	-53.35
863.582	-38.09
863.751	-59.23
863.919	-0.1
864.087	67.31
864.255	93.15
864.424	-13.45
864.592	66.51
864.76	-64.36
864.928	-168.6
865.096	-70.94
865.264	-0.2
865.432	-894.89
865.6	203.63
865.768	-53.2
865.936	-121.68
866.104	-187.25
866.272	-176.48
866.44	-384.15
866.608	673.78
866.776	303.47
866.944	2680.81
867.112	-536.76
867.28	-247.43
867.448	-88.76
867.615	-16.71
867.783	10.77
867.951	9.64
868.119	78.7
868.286	64.34
868.454	-40.28
868.622	-70.35
868.789	-81.48
868.957	-3412.5
869.125	-2086.18
869.292	-83.48
869.46	-87.42
869.627	57.98
869.795	40.03
869.963	62.14
870.13	69.21
870.298	81.51
870.465	-8.41
870.632	-15.16
870.8	8.59
870.967	-31.65
871.135	-80.38
871.302	-29.04
871.469	-24.72
871.637	-67.53
871.804	-4.64
871.971	-81.97
872.139	-336.63
872.306	-7.52
872.473	-56.64
872.64	-304.18
872.807	-24.59
872.975	94.09
873.142	-31.91
873.309	123.65
873.476	157.14
873.643	184.24
873.81	84.08
873.977	91.25
874.144	96.34
874.311	-43.24
874.478	-131.82
874.645	-168.81
874.812	-123.7
874.979	-91.19
875.146	-108.54
875.313	-61
875.48	36.41
875.647	5.55
875.813	-18.05
875.98	9.66
876.147	-20.25
876.314	-100.26
876.481	960.12
876.647	-1177.25
876.814	438.73
876.981	-47.6
877.147	-7.36
877.314	27.78
877.481	60.46
877.647	47.72
877.814	12.17
877.98	-15.71
878.147	24.2
878.314	19.94
878.48	-21.73
878.647	19.93
878.813	72.32
878.979	65.01
879.146	39.79
879.312	42.57
879.479	11.34
879.645	-89.52
879.811	-238.72
879.978	-472.33
880.144	-123.24
880.31	-47.39
880.477	-247.34
880.643	-288.64
880.809	-111.79
880.975	-68.48
881.142	-510.68
881.308	-40.58
881.474	45.36
881.64	14.42
881.806	-32.89
881.972	-2.14
882.138	38.75
882.304	34.37
882.47	-37.6
882.636	-322.75
882.802	-98.65
882.968	10.13
883.134	-1.9
883.3	-37.16
883.466	21.53
883.632	60.21
883.798	24.36
883.964	30.08
884.129	78.2
884.295	73.21
884.461	-6.87
884.627	-25.93
884.793	-54.62
884.958	-13.57
885.124	-100.68
885.29	-145.85
885.455	-214.44
885.621	-8.59
885.787	-134.38
885.952	-32.91
886.118	-60.83
886.283	-59.55
886.449	-195.38
886.614	-182.28
886.78	-401.83
886.945	1594.67
887.111	-688.87
887.276	-550.99
887.442	-807.95
887.607	-281.96
887.773	-190.37
887.938	-155.29
888.103	-62.46
888.269	49.47
888.434	15.81
888.599	70.2
888.764	132.28
888.93	54.76
889.095	11.19
889.26	-45.12
889.425	-34.14
889.59	-73.49
889.756	-119.06
889.921	-78.69
890.086	6.13
890.251	2.95
890.416	-121.68
890.581	-760.89
890.746	141.7
890.911	382.64
891.076	180.03
891.241	-240.11
891.406	24.91
891.571	13.33
891.736	-65.02
891.901	-146.68
892.065	168.96
892.23	90.93
892.395	158.66
892.56	281.14
892.725	-338.09
892.889	-1165.24
893.054	-134.62
893.219	-18.68
893.384	47.52
893.548	24.93
893.713	17.4
893.878	30.49
