Data from Ofra_PS_T2_2A_9GT47_Reflection_2.txt Node
Date: Wed Jul 21 17:27:12 EDT 2021
User: Adam
Spectrometer: FLMT01687
Trigger mode: 0
Integration Time (sec): 1.100000E0
Scans to average: 2
Electric dark correction enabled: true
Nonlinearity correction enabled: false
Boxcar width: 2
XAxis mode: Wavelengths
Number of Pixels in Spectrum: 3648
>>>>>Begin Spectral Data<<<<<
179.494	728.6
179.716	766.82
179.937	702.77
180.158	668.19
180.38	997.34
180.601	104.28
180.823	-0.06
181.044	-223.34
181.265	-205.33
181.486	-50.74
181.708	94.17
181.929	1138.27
182.15	-886.97
182.372	16.3
182.593	-89.81
182.814	-31.97
183.035	11.52
183.257	18.32
183.478	-92.5
183.699	18.21
183.92	-30.88
184.141	5.08
184.363	-66.73
184.584	-17.62
184.805	-35.7
185.026	28.27
185.247	36.43
185.468	40.89
185.689	29.05
185.91	30.57
186.132	14.36
186.353	-5.26
186.574	17.4
186.795	34.94
187.016	-15.9
187.237	-20.72
187.458	-54.51
187.679	-41.15
187.9	-40.27
188.121	-21.66
188.342	-1.18
188.563	56.31
188.784	86.63
189.005	109.46
189.226	175.28
189.447	122.24
189.667	1.58
189.888	-223.03
190.109	-1172.4
190.33	-793.39
190.551	-1128.1
190.772	-217.86
190.993	-158.89
191.214	-119.81
191.434	-53.93
191.655	-6.23
191.876	-54.31
192.097	-125.31
192.318	-208.35
192.538	-410.78
192.759	-230.14
192.98	-89.86
193.201	-43.36
193.421	-22.04
193.642	18.28
193.863	16.63
194.083	-17.15
194.304	-20.58
194.525	-17.68
194.745	-27.28
194.966	-57.69
195.187	-61.68
195.407	-102.99
195.628	-148.41
195.848	-156.13
196.069	-138.88
196.29	-69.14
196.51	-46.36
196.731	-41.76
196.951	-69.76
197.172	-106.33
197.392	-143.57
197.613	-176.42
197.833	-196.91
198.054	-137.8
198.274	-69.65
198.495	-94.45
198.715	-40.29
198.936	-63.67
199.156	-69.64
199.377	-187.33
199.597	-177.8
199.817	-213.32
200.038	-126.59
200.258	-212.15
200.479	-110.56
200.699	-114.97
200.919	-16.98
201.14	-39.81
201.36	-38.29
201.58	5.4
201.801	42.67
202.021	13.88
202.241	8.84
202.461	6.96
202.682	-83.4
202.902	-171.91
203.122	-123.61
203.342	-90.16
203.563	-36.5
203.783	-6.97
204.003	-42.92
204.223	-40.91
204.443	17.86
204.663	-14.65
204.884	-8.29
205.104	59.23
205.324	71.08
205.544	80.81
205.764	91.88
205.984	112.76
206.204	80.2
206.424	69.97
206.644	36.42
206.864	20.62
207.084	-45.81
207.304	-35.52
207.525	-104.92
207.745	-61.3
207.964	-11.84
208.184	-57.04
208.404	-69.72
208.624	-89.95
208.844	-73.94
209.064	-335.89
209.284	-319.37
209.504	-197.51
209.724	-56.53
209.944	-27.1
210.164	22.5
210.384	25.18
210.604	27.19
210.823	-3.38
211.043	-14.42
211.263	-19.26
211.483	-8.06
211.703	-67.73
211.922	-31.32
212.142	24.46
212.362	38.02
212.582	15.73
212.801	40.2
213.021	-4.9
213.241	-36.81
213.461	-64.71
213.68	-81.82
213.9	-56.04
214.12	-19.79
214.339	-95.15
214.559	-87.59
214.779	-36.9
214.998	-44.63
215.218	-89.98
215.438	-43.88
215.657	-38.52
215.877	-51.98
216.096	-4.61
216.316	8.45
216.535	1.19
216.755	7.98
216.974	-41.33
217.194	-138.64
217.413	-133.73
217.633	-117.2
217.852	-210.12
218.072	-80.41
218.291	-21.13
218.511	24.46
218.73	13.83
218.95	4.94
219.169	9.27
219.389	-44.21
219.608	-40.23
219.827	-33.7
220.047	-28.61
220.266	-26.6
220.485	-13.01
220.705	-13.78
220.924	-37.53
221.143	3.63
221.363	-27.88
221.582	-4.07
221.801	10.46
222.021	21.12
222.24	-28.04
222.459	58.39
222.678	4.91
222.897	-101.54
223.117	-128.24
223.336	-120.06
223.555	-82.86
223.774	-29.9
223.993	0.83
224.213	85.74
224.432	72.83
224.651	80.54
224.87	40.13
225.089	45.06
225.308	22.09
225.527	41.34
225.746	14.97
225.965	14.77
226.184	-6.36
226.404	2.72
226.623	-45.14
226.842	-19.93
227.061	16.56
227.28	18.78
227.499	10.07
227.718	36.46
227.936	19.68
228.155	13.71
228.374	10.29
228.593	12.37
228.812	16.81
229.031	15.27
229.25	-38.38
229.469	-38.83
229.688	-25.23
229.907	3.22
230.125	20.77
230.344	36.11
230.563	42.1
230.782	41.43
231.001	-46.49
231.22	-48.74
231.438	-32.89
231.657	-22.93
231.876	-25.34
232.095	30.61
232.313	42.76
232.532	46
232.751	44.34
232.969	30.41
233.188	18.07
233.407	60.38
233.625	49.15
233.844	17.98
234.063	27.9
234.281	19.62
234.5	-5.83
234.719	-10.96
234.937	20.41
235.156	17.12
235.374	14.28
235.593	6.17
235.811	-12.04
236.03	-22.55
236.249	-56.16
236.467	-22.03
236.686	2.7
236.904	22.29
237.123	-8.83
237.341	-5.41
237.559	-3.46
237.778	-26.48
237.996	-56.6
238.215	0.78
238.433	-1.12
238.652	-7.5
238.87	-11.69
239.088	-1.07
239.307	-4.27
239.525	-0.67
239.743	-17.13
239.962	-8
240.18	-36.26
240.398	-94.56
240.617	-96.45
240.835	-94.24
241.053	-56.6
241.271	23.54
241.49	59.19
241.708	52.56
241.926	87.84
242.144	34.1
242.363	-57.05
242.581	-118.04
242.799	-59.22
243.017	-48.11
243.235	-53.47
243.453	-33.08
243.672	-10.54
243.89	-5.33
244.108	-19.43
244.326	9.53
244.544	16.78
244.762	3.29
244.98	3.87
245.198	13.1
245.416	-36.19
245.634	-25.83
245.852	-32.62
246.07	-55.98
246.288	-57.22
246.506	-69.11
246.724	-55.45
246.942	-32.45
247.16	12.39
247.378	26.26
247.596	60.06
247.814	34.63
248.032	4.72
248.25	-19.14
248.468	-14.08
248.685	-22.96
248.903	18.43
249.121	14.08
249.339	-10.04
249.557	-16.93
249.775	1.56
249.992	-76.06
250.21	-64.41
250.428	-31.98
250.646	-60.19
250.863	-87.36
251.081	-42.52
251.299	-36.82
251.517	-42.15
251.734	-13.26
251.952	-24.52
252.17	-21.66
252.387	2.7
252.605	-8.88
252.823	2.2
253.04	23.53
253.258	46.56
253.475	29.6
253.693	64.03
253.911	46.76
254.128	39.38
254.346	31.84
254.563	20.95
254.781	-12.91
254.998	-28.36
255.216	-40.07
255.433	-28.68
255.651	17.36
255.868	55.38
256.086	94.1
256.303	96.88
256.521	70.42
256.738	29.32
256.956	-23.77
257.173	-74.65
257.39	-87.11
257.608	-128.51
257.825	-67.3
258.043	-10.54
258.26	-0.4
258.477	38.95
258.695	40.98
258.912	9.01
259.129	18.31
259.346	-22.42
259.564	-62.96
259.781	-73.82
259.998	-31.57
260.216	-28.67
260.433	16.79
260.65	17.62
260.867	33.54
261.084	8.3
261.302	-9.83
261.519	-11.63
261.736	-35.77
261.953	-55.24
262.17	-14.28
262.387	-40.28
262.604	-77.31
262.822	-77.36
263.039	-76.59
263.256	-143.84
263.473	-95.04
263.69	-63.33
263.907	-10.02
264.124	-0.87
264.341	21.2
264.558	12.2
264.775	40.63
264.992	17.31
265.209	33.14
265.426	52.12
265.643	56.91
265.86	66.04
266.077	83.34
266.294	71.13
266.51	16.7
266.727	-7.72
266.944	-3.79
267.161	-23.55
267.378	-18.28
267.595	13.25
267.812	-12.2
268.028	-47.66
268.245	-20.15
268.462	-36.56
268.679	-53.87
268.896	11.59
269.112	28.05
269.329	18.72
269.546	30.52
269.763	27.13
269.979	8.68
270.196	-3.91
270.413	-19.88
270.629	-33.97
270.846	-39.56
271.063	-33.41
271.279	-54.75
271.496	-45.31
271.712	-7.95
271.929	9.34
272.146	2.42
272.362	19.66
272.579	44.95
272.795	35.49
273.012	39.01
273.228	50.74
273.445	11.79
273.661	-20.64
273.878	-64.68
274.094	-62.56
274.311	-88.72
274.527	-6.92
274.744	-8.93
274.96	-1.18
275.177	3.81
275.393	20.08
275.609	14.92
275.826	40.67
276.042	25.37
276.259	15.52
276.475	11.52
276.691	23.75
276.908	-7.33
277.124	11.13
277.34	11.73
277.557	12.6
277.773	-14.53
277.989	-15.51
278.205	-17.59
278.422	7.93
278.638	12.52
278.854	26.57
279.07	41.56
279.286	22.85
279.503	-24.29
279.719	-30.46
279.935	-47.24
280.151	-75.84
280.367	-35.57
280.583	-49.78
280.799	-55.49
281.016	-87.2
281.232	-43.68
281.448	-55.72
281.664	-21.65
281.88	-64.02
282.096	-25.97
282.312	-2.92
282.528	19.99
282.744	6.73
282.96	38.09
283.176	20.63
283.392	5.69
283.608	-4.06
283.824	-8.29
284.04	-16.83
284.256	0.53
284.471	-1.81
284.687	-5.19
284.903	29.2
285.119	68.72
285.335	28.15
285.551	31.01
285.767	20.44
285.982	12.78
286.198	-20.43
286.414	49.14
286.63	54.79
286.846	73.49
287.061	39.53
287.277	64.66
287.493	30.76
287.709	51.58
287.924	22.73
288.14	60.93
288.356	34.78
288.571	57.58
288.787	21.72
289.003	25.2
289.218	-2.5
289.434	-38.61
289.65	-35.63
289.865	-31.98
290.081	-3.87
290.296	27.72
290.512	48.93
290.727	16.21
290.943	14.7
291.159	-13.33
291.374	-24.34
291.59	-46.53
291.805	-43.98
292.021	-35.81
292.236	-33.17
292.451	-17.57
292.667	-7.36
292.882	15.15
293.098	4.33
293.313	-10.43
293.529	-47.57
293.744	-67.17
293.959	-79.66
294.175	-69.3
294.39	-19.18
294.605	7.13
294.821	30.72
295.036	40.83
295.251	49.3
295.467	15.7
295.682	-4.81
295.897	-50.58
296.112	-66.77
296.328	-60.52
296.543	-67.18
296.758	-41.46
296.973	15.46
297.188	53.3
297.404	19.52
297.619	9.83
297.834	-19.49
298.049	-34.87
298.264	-80.17
298.479	-10.37
298.694	-0.96
298.909	21.77
299.125	18.47
299.34	30.29
299.555	-2.96
299.77	5.82
299.985	-31.73
300.2	-88.97
300.415	-117.71
300.63	-68.65
300.845	-78.23
301.06	-75.71
301.275	-35.01
301.49	-8.06
301.704	-23.99
301.919	-32.77
302.134	-39.87
302.349	-46.64
302.564	-119.46
302.779	-186.28
302.994	-163.13
303.209	-123
303.423	-78.68
303.638	8.59
303.853	-3.65
304.068	-21.66
304.283	-14.87
304.497	-11.35
304.712	-32.21
304.927	-10.33
305.142	-9.9
305.356	6.67
305.571	-8.57
305.786	-17.44
306	-43.81
306.215	-31.27
306.43	-64.9
306.644	-39.07
306.859	14.76
307.074	30.91
307.288	0.02
307.503	3.6
307.717	-31.5
307.932	-42.92
308.147	-52.56
308.361	-20.39
308.576	-31.69
308.79	-71.49
309.005	-55.78
309.219	-33.15
309.434	-46.61
309.648	-47.62
309.863	-12.57
310.077	-18.83
310.292	-17.29
310.506	-23.66
310.72	-2.19
310.935	28.6
311.149	28.26
311.364	41.25
311.578	57.64
311.792	54.71
312.007	39.87
312.221	15.16
312.435	15.12
312.649	-5.43
312.864	3.51
313.078	-5.63
313.292	83.07
313.507	32.54
313.721	15.09
313.935	23.72
314.149	13.82
314.363	-9.87
314.578	5.82
314.792	20.58
315.006	-2.72
315.22	17.92
315.434	16.21
315.648	9.29
315.862	-2.74
316.077	10.98
316.291	-7.13
316.505	0.02
316.719	11.08
316.933	-15.23
317.147	-25.27
317.361	-68.62
317.575	-73.13
317.789	-99.23
318.003	-101.62
318.217	-60.64
318.431	6.07
318.645	29.69
318.859	24.91
319.073	41.88
319.287	16.79
319.5	-10.96
319.714	-59.77
319.928	-92.08
320.142	-124.59
320.356	-43.48
320.57	-8.82
320.784	-10.85
320.997	-8.48
321.211	2.76
321.425	-82.48
321.639	-113.99
321.853	-40.72
322.066	-22.73
322.28	-35.25
322.494	-21.52
322.707	8.15
322.921	-22.86
323.135	-21.07
323.349	15.32
323.562	-8.85
323.776	-36.08
323.989	-17.98
324.203	-39.81
324.417	-61.69
324.63	-66
324.844	-48.02
325.057	-57.55
325.271	-23.64
325.485	5.6
325.698	32.91
325.912	42.34
326.125	19.45
326.339	14.09
326.552	-12.29
326.766	-12.3
326.979	-6.76
327.193	34.68
327.406	22.17
327.619	6.42
327.833	10.03
328.046	-18.05
328.26	-58.09
328.473	-26.48
328.686	-53.9
328.9	-36.13
329.113	-11.99
329.326	-23.08
329.54	-24.03
329.753	-12.89
329.966	-44.66
330.179	-29.08
330.393	-2.91
330.606	4.34
330.819	21.49
331.032	30.41
331.246	34.86
331.459	51.98
331.672	37.04
331.885	18
332.098	-15.65
332.311	-30.23
332.525	-86.77
332.738	-77.38
332.951	-35.96
333.164	7.21
333.377	15.1
333.59	35.5
333.803	36.8
334.016	30.28
334.229	19.92
334.442	16.92
334.655	25.04
334.868	37
335.081	30.07
335.294	17.99
335.507	10.96
335.72	4.31
335.933	-24.57
336.146	-28.14
336.359	3.02
336.572	-33.54
336.785	-66.14
336.997	-46.06
337.21	-31.73
337.423	-49.49
337.636	-46.06
337.849	-13.35
338.062	-10.56
338.274	-6.47
338.487	-18.19
338.7	-10.45
338.913	-42.52
339.125	-69.21
339.338	-134.02
339.551	-97.81
339.763	-32.87
339.976	-10.65
340.189	11.6
340.402	41.41
340.614	30.6
340.827	0.65
341.039	-12.61
341.252	-11.04
341.465	4.4
341.677	-4.13
341.89	-25.16
342.102	8.35
342.315	2.45
342.527	-37.98
342.74	-16.73
342.952	30.28
343.165	19.79
343.377	31.66
343.59	27.65
343.802	37.61
344.015	15.75
344.227	19.25
344.44	13.84
344.652	22.01
344.864	1.85
345.077	27.96
345.289	26.29
345.502	30.58
345.714	22.2
345.926	33.98
346.139	20.75
346.351	29.21
346.563	37.28
346.775	35.67
346.988	8.18
347.2	-8.36
347.412	-66.44
347.624	-94.12
347.837	-105.02
348.049	-80.8
348.261	-46.74
348.473	-26.63
348.685	-35.07
348.897	-24.26
349.11	-27.06
349.322	-40.1
349.534	-6.41
349.746	-1.95
349.958	-8.21
350.17	-12.32
350.382	-4.14
350.594	-12.3
350.806	2.48
351.018	23.96
351.23	14.74
351.442	-11.15
351.654	-27.42
351.866	-34.35
352.078	-39.06
352.29	-2.38
352.502	20.57
352.714	32.55
352.926	9.54
353.138	1.13
353.35	-15.81
353.561	-22.32
353.773	-41.99
353.985	-11.8
354.197	-17.82
354.409	-7.68
354.621	-20.6
354.832	-12.8
355.044	-28.4
355.256	-28.69
355.468	-22.08
355.679	-13.14
355.891	-12.44
356.103	-27.72
356.314	-15.43
356.526	-23.01
356.738	-17.69
356.949	-32.43
357.161	-3.72
357.373	-9.98
357.584	-26.76
357.796	-18.51
358.008	-15.67
358.219	0.69
358.431	-3.22
358.642	15.61
358.854	14.38
359.065	10.15
359.277	-30.84
359.488	-30.32
359.7	-44.67
359.911	-75.93
360.123	-52.58
360.334	-55.74
360.546	-74.53
360.757	-68.07
360.969	-36.87
361.18	-24.42
361.391	4.64
361.603	0.55
361.814	11.03
362.025	0.7
362.237	1.38
362.448	11.47
362.659	33.36
362.871	18.4
363.082	16.54
363.293	12.73
363.504	-5.64
363.716	-34.99
363.927	-45.93
364.138	-58.64
364.349	-77.97
364.56	-74.31
364.772	-62.93
364.983	-31
365.194	-21.08
365.405	-3.58
365.616	15.97
365.827	20.79
366.038	0.01
366.25	-6.01
366.461	-37.76
366.672	-10.23
366.883	7.95
367.094	16.73
367.305	-0.72
367.516	11.13
367.727	-25.86
367.938	-39.36
368.149	-44.34
368.36	-12.36
368.571	-1.94
368.781	-13.33
368.992	-32.9
369.203	-50.32
369.414	-78.49
369.625	-97.71
369.836	-90.23
370.047	-107.9
370.258	-79.83
370.468	-83.36
370.679	-92.34
370.89	-67.8
371.101	-28.65
371.312	-37.63
371.522	-22.39
371.733	-15.06
371.944	-12.58
372.155	-11.06
372.365	-10.08
372.576	-0.25
372.787	-1.47
372.997	-27.36
373.208	-34.35
373.419	-9.43
373.629	-47.28
373.84	-41.03
374.05	-40.69
374.261	-31.59
374.472	-56.86
374.682	-9.81
374.893	-7.38
375.103	29.12
375.314	25.88
375.524	22.02
375.735	23.42
375.945	21.69
376.156	-4.99
376.366	-6.87
376.577	1.84
376.787	-8.47
376.997	-19.37
377.208	-19.86
377.418	-32.2
377.629	-15.72
377.839	-19.21
378.049	-7.19
378.26	7.5
378.47	14.18
378.68	2.38
378.89	4.14
379.101	-1.55
379.311	-25.3
379.521	-47.29
379.732	-47.17
379.942	-51.77
380.152	-64.04
380.362	-26.56
380.572	-19.22
380.783	-11.58
380.993	4.88
381.203	16.97
381.413	27.18
381.623	23.61
381.833	25.8
382.043	4.08
382.253	-2.39
382.463	-11.91
382.674	-21.08
382.884	-46.08
383.094	-43.24
383.304	-34.28
383.514	-23.81
383.724	-7.79
383.934	-9.34
384.144	-13.42
384.353	-16.65
384.563	-23.49
384.773	-22.99
384.983	-21.36
385.193	1.23
385.403	-2.38
385.613	-3.26
385.823	-9.97
386.033	-2.24
386.242	-16.9
386.452	-16.06
386.662	-21.24
386.872	-4.02
387.082	-8.65
387.291	-13.89
387.501	-12.48
387.711	-8.84
387.921	-26.99
388.13	-25.28
388.34	-8.14
388.55	-14.04
388.759	-13.79
388.969	-1.21
389.179	-2.12
389.388	-8.8
389.598	2.63
389.807	-6.07
390.017	-15.89
390.227	-12.28
390.436	-7.52
390.646	-10.99
390.855	-3.52
391.065	0.4
391.274	-0.45
391.484	-5.38
391.693	-1.74
391.903	-3.81
392.112	0.41
392.322	1.2
392.531	4.76
392.74	5.04
392.95	3.78
393.159	0.97
393.369	0.84
393.578	-0.46
393.787	-2.79
393.997	-2.86
394.206	-4.63
394.415	-4.06
394.625	-3.65
394.834	-4.68
395.043	-1.89
395.252	1.85
395.462	2.58
395.671	3.41
395.88	4.23
396.089	4.29
396.298	0.93
396.508	1.28
396.717	1.07
396.926	1.88
397.135	1.14
397.344	2.04
397.553	2.41
397.762	3.61
397.971	4.35
398.181	5.12
398.39	4.54
398.599	4.17
398.808	3.38
399.017	3.24
399.226	4.4
399.435	6.28
399.644	6.39
399.853	6.05
400.062	5.92
400.27	5
400.479	4.15
400.688	3.58
400.897	3.91
401.106	3.82
401.315	3.54
401.524	3.61
401.733	4.4
401.941	4.82
402.15	5.17
402.359	4.97
402.568	5.28
402.777	5.11
402.985	4.84
403.194	4.56
403.403	4.98
403.612	4.52
403.82	4.4
404.029	4.47
404.238	4.2
404.446	4.26
404.655	4.08
404.864	4.09
405.072	3.69
405.281	3.81
405.489	3.53
405.698	3.57
405.906	3.39
406.115	3.69
406.324	3.7
406.532	3.88
406.741	4.26
406.949	4.48
407.158	4.33
407.366	4.29
407.574	4.22
407.783	3.97
407.991	3.71
408.2	3.86
408.408	3.9
408.617	3.79
408.825	3.7
409.033	3.85
409.242	3.89
409.45	3.99
409.658	3.86
409.867	4
410.075	3.83
410.283	3.61
410.491	3.48
410.7	3.54
410.908	3.58
411.116	3.88
411.324	3.84
411.533	3.83
411.741	4.06
411.949	3.92
412.157	3.5
412.365	3.68
412.573	3.55
412.781	3.5
412.99	3.43
413.198	3.62
413.406	3.5
413.614	3.64
413.822	3.39
414.03	3.37
414.238	3.15
414.446	3.25
414.654	3.07
414.862	3.23
415.07	3.31
415.278	3.65
415.486	3.51
415.694	3.62
415.902	3.41
416.109	3.31
416.317	3.14
416.525	2.84
416.733	2.85
416.941	3.05
417.149	2.96
417.357	3.03
417.564	3.41
417.772	3.62
417.98	3.53
418.188	3.6
418.395	3.63
418.603	3.69
418.811	3.34
419.019	3.29
419.226	3.54
419.434	3.57
419.642	3.22
419.849	3.35
420.057	3.37
420.265	3.23
420.472	2.88
420.68	3.08
420.887	2.96
421.095	3.07
421.302	3.03
421.51	3.43
421.717	3.49
421.925	3.52
422.132	3.4
422.34	3.2
422.547	3.1
422.755	2.96
422.962	2.9
423.17	2.79
423.377	2.86
423.585	2.9
423.792	2.9
423.999	2.96
424.207	2.93
424.414	3.13
424.621	2.96
424.829	2.93
425.036	2.93
425.243	3.08
425.451	2.77
425.658	2.6
425.865	2.79
426.072	2.72
426.28	3.04
426.487	3.09
426.694	3.28
426.901	2.98
427.108	2.96
427.315	2.63
427.523	3.04
427.73	3.11
427.937	3.26
428.144	3.25
428.351	3.25
428.558	3.1
428.765	2.93
428.972	2.84
429.179	3.06
429.386	3.3
429.593	3.17
429.8	3.09
430.007	3.25
430.214	3.17
430.421	2.9
430.628	2.79
430.835	2.83
431.042	3.01
431.249	3.09
431.456	3.29
431.662	3.43
431.869	3.67
432.076	3.64
432.283	3.72
432.49	3.62
432.697	3.6
432.903	3.22
433.11	3.05
433.317	3.07
433.524	3.2
433.73	3.19
433.937	3.51
434.144	3.43
434.35	3.31
434.557	3.06
434.764	3.02
434.97	3.01
435.177	3.18
435.384	3.06
435.59	3.33
435.797	3.58
436.003	3.62
436.21	3.63
436.416	3.77
436.623	3.65
436.829	3.61
437.036	3.72
437.242	3.71
437.449	3.58
437.655	3.66
437.862	3.57
438.068	3.42
438.275	3.5
438.481	3.77
438.687	3.66
438.894	3.73
439.1	3.77
439.307	3.98
439.513	3.81
439.719	3.91
439.926	4.03
440.132	4.02
440.338	3.73
440.544	3.91
440.751	3.78
440.957	3.72
441.163	3.64
441.369	3.68
441.575	3.36
441.782	3.37
441.988	3.24
442.194	3.29
442.4	3.23
442.606	3.54
442.812	3.73
443.018	3.84
443.224	3.91
443.431	4
443.637	3.88
443.843	3.74
444.049	3.72
444.255	3.54
444.461	3.6
444.667	3.55
444.873	3.75
445.079	3.72
445.284	3.84
445.49	3.62
445.696	3.5
445.902	3.27
446.108	3.32
446.314	3.33
446.52	3.43
446.726	3.75
446.931	3.78
447.137	3.78
447.343	3.81
447.549	3.74
447.755	3.58
447.96	3.62
448.166	3.55
448.372	3.51
448.578	3.64
448.783	3.63
448.989	3.74
449.195	3.91
449.4	3.9
449.606	3.81
449.812	3.77
450.017	3.75
450.223	3.55
450.428	3.48
450.634	3.56
450.84	3.73
451.045	3.63
451.251	3.61
451.456	3.93
451.662	4.11
451.867	4.16
452.073	4.15
452.278	4.34
452.483	4.39
452.689	4.19
452.894	4.18
453.1	4.28
453.305	4.15
453.51	3.94
453.716	3.91
453.921	3.87
454.127	3.76
454.332	3.7
454.537	3.64
454.742	3.67
454.948	3.66
455.153	3.74
455.358	3.89
455.563	4.06
455.769	4.25
455.974	4.34
456.179	4.27
456.384	4.18
456.589	4.22
456.795	3.83
457	3.69
457.205	3.93
457.41	3.94
457.615	3.77
457.82	4
458.025	3.99
458.23	3.77
458.435	3.78
458.64	3.74
458.845	3.86
459.05	3.87
459.255	3.93
459.46	3.96
459.665	4.03
459.87	3.98
460.075	3.95
460.28	3.94
460.485	4.04
460.69	4.01
460.895	3.81
461.099	3.77
461.304	3.86
461.509	3.82
461.714	3.81
461.919	4.05
462.123	4.05
462.328	4.02
462.533	3.9
462.738	4.01
462.942	3.91
463.147	4.03
463.352	4.08
463.556	4.09
463.761	4.17
463.966	4.22
464.17	4.25
464.375	4.14
464.58	4.18
464.784	4.07
464.989	4
465.193	3.93
465.398	3.97
465.602	4.11
465.807	4.07
466.011	4.14
466.216	4.24
466.42	4.24
466.625	4.26
466.829	4.34
467.034	4.37
467.238	4.45
467.443	4.49
467.647	4.33
467.851	4.39
468.056	4.38
468.26	4.26
468.464	4.26
468.669	4.42
468.873	4.54
469.077	4.52
469.282	4.62
469.486	4.75
469.69	4.8
469.894	4.62
470.099	4.67
470.303	4.68
470.507	4.53
470.711	4.38
470.915	4.32
471.119	4.29
471.324	4.21
471.528	4.25
471.732	4.27
471.936	4.36
472.14	4.42
472.344	4.57
472.548	4.58
472.752	4.76
472.956	4.95
473.16	4.95
473.364	4.79
473.568	4.83
473.772	4.84
473.976	4.7
474.18	4.68
474.384	4.72
474.588	4.71
474.792	4.58
474.995	4.68
475.199	4.72
475.403	4.84
475.607	4.82
475.811	4.8
476.015	4.8
476.218	4.88
476.422	4.77
476.626	4.84
476.83	4.97
477.033	4.84
477.237	4.74
477.441	4.83
477.644	4.82
477.848	4.77
478.052	4.8
478.255	4.85
478.459	4.79
478.663	4.85
478.866	4.89
479.07	4.92
479.273	5.04
479.477	5.1
479.681	5.1
479.884	5.02
480.088	4.98
480.291	4.88
480.495	4.84
480.698	4.84
480.901	4.96
481.105	5.11
481.308	5.1
481.512	5.09
481.715	5.18
481.919	5.19
482.122	5.1
482.325	5.16
482.529	5.22
482.732	5.14
482.935	5.07
483.138	5.01
483.342	5.03
483.545	5.1
483.748	5.16
483.952	5.2
484.155	5.36
484.358	5.39
484.561	5.28
484.764	5.2
484.967	5.29
485.171	5.32
485.374	5.3
485.577	5.4
485.78	5.49
485.983	5.45
486.186	5.38
486.389	5.29
486.592	5.27
486.795	5.26
486.998	5.14
487.201	5.19
487.404	5.29
487.607	5.38
487.81	5.37
488.013	5.51
488.216	5.49
488.419	5.44
488.622	5.36
488.825	5.29
489.028	5.28
489.231	5.28
489.433	5.26
489.636	5.18
489.839	5.21
490.042	5.08
490.245	5.02
490.447	5.11
490.65	5.1
490.853	5.13
491.056	5.2
491.258	5.21
491.461	5.2
491.664	5.28
491.866	5.17
492.069	5.3
492.272	5.28
492.474	5.32
492.677	5.33
492.879	5.51
493.082	5.5
493.285	5.62
493.487	5.52
493.69	5.46
493.892	5.33
494.095	5.31
494.297	5.23
494.5	5.31
494.702	5.37
494.905	5.42
495.107	5.41
495.309	5.41
495.512	5.42
495.714	5.5
495.917	5.59
496.119	5.56
496.321	5.65
496.524	5.71
496.726	5.65
496.928	5.63
497.13	5.66
497.333	5.62
497.535	5.59
497.737	5.61
497.939	5.58
498.142	5.61
498.344	5.56
498.546	5.47
498.748	5.51
498.95	5.7
499.152	5.7
499.355	5.8
499.557	5.92
499.759	5.98
499.961	5.84
500.163	5.89
500.365	5.91
500.567	5.96
500.769	5.88
500.971	5.92
501.173	5.84
501.375	5.85
501.577	5.76
501.779	5.78
501.981	5.76
502.183	5.79
502.385	5.78
502.587	5.81
502.788	5.88
502.99	5.97
503.192	6.05
503.394	6.05
503.596	6.09
503.798	6.13
503.999	6.17
504.201	6.19
504.403	6.25
504.605	6.28
504.806	6.25
505.008	6.2
505.21	6.21
505.411	6.23
505.613	6.24
505.815	6.33
506.016	6.4
506.218	6.54
506.42	6.5
506.621	6.55
506.823	6.53
507.024	6.52
507.226	6.44
507.427	6.46
507.629	6.53
507.83	6.56
508.032	6.51
508.233	6.58
508.435	6.68
508.636	6.77
508.838	6.73
509.039	6.75
509.24	6.77
509.442	6.76
509.643	6.61
509.845	6.69
510.046	6.8
510.247	6.83
510.448	6.89
510.65	6.99
510.851	7.06
511.052	7.07
511.254	7.06
511.455	7.22
511.656	7.28
511.857	7.33
512.058	7.37
512.26	7.41
512.461	7.33
512.662	7.44
512.863	7.36
513.064	7.31
513.265	7.32
513.466	7.37
513.667	7.24
513.868	7.29
514.069	7.39
514.27	7.45
514.471	7.39
514.672	7.51
514.873	7.51
515.074	7.58
515.275	7.47
515.476	7.5
515.677	7.47
515.878	7.71
516.079	7.63
516.28	7.73
516.481	7.82
516.682	7.83
516.882	7.63
517.083	7.63
517.284	7.57
517.485	7.55
517.686	7.55
517.886	7.59
518.087	7.63
518.288	7.74
518.488	7.71
518.689	7.74
518.89	7.73
519.091	7.79
519.291	7.82
519.492	7.89
519.692	7.95
519.893	8.04
520.094	8
520.294	7.91
520.495	7.89
520.695	7.88
520.896	7.83
521.096	7.94
521.297	8.01
521.497	8
521.698	7.97
521.898	7.94
522.099	7.88
522.299	7.95
522.499	8
522.7	8.08
522.9	8.12
523.101	8.22
523.301	8.27
523.501	8.25
523.702	8.25
523.902	8.33
524.102	8.34
524.302	8.25
524.503	8.37
524.703	8.35
524.903	8.41
525.103	8.32
525.304	8.43
525.504	8.44
525.704	8.48
525.904	8.41
526.104	8.4
526.304	8.35
526.504	8.36
526.705	8.37
526.905	8.46
527.105	8.57
527.305	8.59
527.505	8.51
527.705	8.55
527.905	8.53
528.105	8.55
528.305	8.55
528.505	8.61
528.705	8.67
528.905	8.63
529.105	8.6
529.304	8.67
529.504	8.75
529.704	8.69
529.904	8.75
530.104	8.84
530.304	8.88
530.503	8.83
530.703	8.78
530.903	8.77
531.103	8.76
531.303	8.71
531.502	8.76
531.702	8.92
531.902	8.94
532.101	8.93
532.301	8.95
532.501	9.02
532.7	8.99
532.9	9.05
533.1	9.09
533.299	9.17
533.499	9.13
533.698	9.16
533.898	9.16
534.097	9.19
534.297	9.21
534.496	9.28
534.696	9.26
534.895	9.39
535.095	9.47
535.294	9.42
535.494	9.39
535.693	9.43
535.892	9.41
536.092	9.35
536.291	9.37
536.491	9.5
536.69	9.62
536.889	9.55
537.088	9.55
537.288	9.66
537.487	9.71
537.686	9.69
537.886	9.79
538.085	9.86
538.284	9.97
538.483	9.92
538.682	9.92
538.882	9.93
539.081	10
539.28	9.88
539.479	9.87
539.678	9.86
539.877	10
540.076	10.04
540.275	10.12
540.474	10.3
540.673	10.4
540.872	10.29
541.071	10.34
541.27	10.39
541.469	10.39
541.668	10.43
541.867	10.57
542.066	10.58
542.265	10.6
542.464	10.57
542.663	10.65
542.862	10.76
543.06	10.9
543.259	11.01
543.458	11.1
543.657	11.14
543.856	11.15
544.054	11.13
544.253	11.07
544.452	11.04
544.651	11.12
544.849	11.05
545.048	11.14
545.247	11.23
545.445	11.37
545.644	11.39
545.843	11.45
546.041	11.46
546.24	11.67
546.438	11.73
546.637	11.8
546.836	11.96
547.034	12.01
547.233	11.96
547.431	12.01
547.63	12.03
547.828	12.02
548.027	12.08
548.225	12.15
548.423	12.14
548.622	12.33
548.82	12.38
549.019	12.49
549.217	12.58
549.415	12.73
549.614	12.71
549.812	12.82
550.01	12.83
550.209	12.86
550.407	12.89
550.605	12.95
550.803	13.08
551.002	13.16
551.2	13.21
551.398	13.3
551.596	13.49
551.794	13.56
551.993	13.71
552.191	13.77
552.389	13.97
552.587	14
552.785	14
552.983	14.07
553.181	14.27
553.379	14.29
553.577	14.38
553.775	14.59
553.973	14.7
554.171	14.73
554.369	14.74
554.567	14.79
554.765	14.81
554.963	14.95
555.161	14.97
555.359	15.08
555.557	15.24
555.755	15.34
555.952	15.41
556.15	15.56
556.348	15.72
556.546	15.85
556.744	15.82
556.941	15.81
557.139	16.01
557.337	16.05
557.535	16.02
557.732	16.24
557.93	16.47
558.128	16.49
558.325	16.57
558.523	16.63
558.721	16.76
558.918	16.75
559.116	16.86
559.313	16.9
559.511	17.13
559.708	17.13
559.906	17.29
560.104	17.37
560.301	17.55
560.498	17.6
560.696	17.73
560.893	17.81
561.091	17.96
561.288	18.07
561.486	18.11
561.683	18.2
561.88	18.37
562.078	18.41
562.275	18.44
562.473	18.59
562.67	18.8
562.867	18.93
563.064	19.11
563.262	19.22
563.459	19.37
563.656	19.43
563.853	19.43
564.051	19.47
564.248	19.66
564.445	19.75
564.642	19.81
564.839	19.95
565.036	20.13
565.234	20.29
565.431	20.42
565.628	20.49
565.825	20.64
566.022	20.77
566.219	20.8
566.416	20.84
566.613	20.96
566.81	20.97
567.007	20.95
567.204	20.93
567.401	21
567.598	21.1
567.795	21.18
567.991	21.27
568.188	21.39
568.385	21.51
568.582	21.54
568.779	21.66
568.976	21.67
569.172	21.8
569.369	21.74
569.566	21.87
569.763	21.88
569.96	21.98
570.156	21.88
570.353	21.88
570.55	21.9
570.746	21.94
570.943	21.94
571.14	22
571.336	22.16
571.533	22.22
571.729	22.2
571.926	22.32
572.123	22.41
572.319	22.48
572.516	22.45
572.712	22.53
572.909	22.54
573.105	22.65
573.302	22.63
573.498	22.75
573.695	22.68
573.891	22.72
574.087	22.72
574.284	22.68
574.48	22.61
574.677	22.65
574.873	22.65
575.069	22.67
575.266	22.79
575.462	22.78
575.658	22.94
575.854	23
576.051	22.96
576.247	22.89
576.443	22.91
576.639	22.78
576.835	22.65
577.032	22.65
577.228	22.72
577.424	22.72
577.62	22.72
577.816	22.79
578.012	22.81
578.208	22.8
578.404	22.79
578.6	22.87
578.796	22.89
578.993	22.86
579.189	22.74
579.384	22.63
579.58	22.46
579.776	22.4
579.972	22.36
580.168	22.32
580.364	22.4
580.56	22.49
580.756	22.39
580.952	22.34
581.148	22.36
581.343	22.4
581.539	22.4
581.735	22.43
581.931	22.53
582.127	22.65
582.322	22.57
582.518	22.58
582.714	22.63
582.909	22.6
583.105	22.45
583.301	22.39
583.496	22.41
583.692	22.28
583.888	22.22
584.083	22.4
584.279	22.44
584.474	22.28
584.67	22.35
584.866	22.31
585.061	22
585.257	21.99
585.452	22.03
585.648	22.02
585.843	22.11
586.039	22.31
586.234	22.26
586.429	22.27
586.625	22.31
586.82	22.21
587.015	22.13
587.211	22.02
587.406	21.99
587.601	21.85
587.797	21.84
587.992	21.75
588.187	21.92
588.383	21.9
588.578	21.92
588.773	21.89
588.968	22.02
589.163	21.98
589.359	22.03
589.554	22.08
589.749	22.08
589.944	22.06
590.139	22.07
590.334	22.13
590.529	22.06
590.724	22.06
590.919	22.15
591.114	22.16
591.309	22.15
591.504	22.31
591.699	22.28
591.894	22.31
592.089	22.23
592.284	22.27
592.479	22.33
592.674	22.47
592.869	22.55
593.064	22.71
593.259	22.84
593.454	22.83
593.648	22.94
593.843	22.8
594.038	22.85
594.233	22.8
594.428	22.86
594.622	22.84
594.817	23.2
595.012	23.31
595.206	23.33
595.401	23.43
595.596	23.48
595.79	23.38
595.985	23.46
596.18	23.62
596.374	23.67
596.569	23.76
596.763	23.78
596.958	23.77
597.153	23.77
597.347	23.75
597.542	23.84
597.736	23.91
597.931	24
598.125	24.12
598.319	24.3
598.514	24.29
598.708	24.39
598.903	24.39
599.097	24.36
599.291	24.3
599.486	24.33
599.68	24.22
599.874	24.33
600.069	24.38
600.263	24.41
600.457	24.54
600.651	24.71
600.846	24.7
601.04	24.77
601.234	24.79
601.428	24.82
601.622	24.77
601.817	24.79
602.011	24.8
602.205	24.79
602.399	24.77
602.593	24.76
602.787	24.73
602.981	24.72
603.175	24.83
603.369	24.76
603.563	24.86
603.757	24.95
603.951	24.97
604.145	24.89
604.339	24.96
604.533	24.73
604.727	24.63
604.921	24.57
605.115	24.64
605.309	24.73
605.502	24.83
605.696	24.74
605.89	24.66
606.084	24.5
606.278	24.26
606.471	24.24
606.665	24.24
606.859	24.08
607.053	24.05
607.246	24.08
607.44	23.98
607.634	23.92
607.827	23.95
608.021	23.84
608.214	23.7
608.408	23.6
608.602	23.53
608.795	23.55
608.989	23.52
609.182	23.52
609.376	23.52
609.569	23.46
609.763	23.3
609.956	23.24
610.15	23.07
610.343	22.98
610.537	22.88
610.73	22.88
610.923	22.8
611.117	22.73
611.31	22.61
611.504	22.55
611.697	22.44
611.89	22.36
612.083	22.34
612.277	22.31
612.47	22.26
612.663	22.16
612.856	22.09
613.05	21.9
613.243	21.86
613.436	21.69
613.629	21.64
613.822	21.48
614.015	21.5
614.209	21.28
614.402	21.33
614.595	21.27
614.788	21.3
614.981	21.16
615.174	21.07
615.367	20.91
615.56	20.83
615.753	20.72
615.946	20.67
616.139	20.69
616.332	20.81
616.525	20.77
616.718	20.81
616.911	20.75
617.103	20.74
617.296	20.61
617.489	20.53
617.682	20.38
617.875	20.43
618.067	20.36
618.26	20.21
618.453	20.21
618.646	20.26
618.838	20.16
619.031	20.27
619.224	20.3
619.417	20.23
619.609	20.16
619.802	20.11
619.994	19.92
620.187	19.83
620.38	19.86
620.572	19.78
620.765	19.85
620.957	19.76
621.15	19.67
621.342	19.59
621.535	19.66
621.727	19.55
621.92	19.54
622.112	19.54
622.305	19.55
622.497	19.38
622.69	19.4
622.882	19.43
623.074	19.5
623.267	19.49
623.459	19.36
623.651	19.21
623.844	19.16
624.036	19.09
624.228	18.95
624.42	19.08
624.613	19.18
624.805	19.11
624.997	19.06
625.189	19.06
625.381	19.05
625.574	18.95
625.766	18.97
625.958	18.96
626.15	19.07
626.342	19.02
626.534	18.99
626.726	18.95
626.918	18.98
627.11	18.77
627.302	18.76
627.494	18.78
627.686	18.78
627.878	18.69
628.07	18.79
628.262	18.71
628.454	18.69
628.646	18.74
628.838	18.76
629.029	18.67
629.221	18.75
629.413	18.67
629.605	18.5
629.797	18.42
629.989	18.47
630.18	18.32
630.372	18.33
630.564	18.34
630.755	18.42
630.947	18.4
631.139	18.33
631.33	18.29
631.522	18.4
631.714	18.35
631.905	18.33
632.097	18.36
632.289	18.33
632.48	18.2
632.672	18.1
632.863	17.91
633.055	17.85
633.246	17.8
633.438	17.71
633.629	17.66
633.821	17.76
634.012	17.81
634.203	17.69
634.395	17.72
634.586	17.73
634.777	17.66
634.969	17.56
635.16	17.64
635.351	17.55
635.543	17.54
635.734	17.51
635.925	17.49
636.117	17.47
636.308	17.52
636.499	17.47
636.69	17.36
636.881	17.37
637.073	17.47
637.264	17.35
637.455	17.36
637.646	17.49
637.837	17.49
638.028	17.31
638.219	17.37
638.41	17.27
638.601	17.16
638.792	17.16
638.983	17.11
639.174	17.14
639.365	17.25
639.556	17.21
639.747	17.15
639.938	17.22
640.129	17.13
640.32	16.94
640.511	17.01
640.701	17.11
640.892	17.01
641.083	17.08
641.274	17.14
641.465	17.08
641.655	16.85
641.846	16.86
642.037	16.8
642.228	16.77
642.418	16.82
642.609	16.85
642.8	16.93
642.99	16.86
643.181	16.86
643.372	16.78
643.562	16.76
643.753	16.66
643.943	16.59
644.134	16.49
644.324	16.47
644.515	16.49
644.705	16.49
644.896	16.5
645.086	16.58
645.277	16.52
645.467	16.44
645.658	16.39
645.848	16.4
646.038	16.33
646.229	16.31
646.419	16.29
646.61	16.22
646.8	16.12
646.99	16.01
647.18	15.97
647.371	15.89
647.561	15.91
647.751	15.91
647.941	15.85
648.132	15.8
648.322	15.84
648.512	15.89
648.702	15.86
648.892	15.91
649.082	15.91
649.272	15.73
649.462	15.55
649.653	15.5
649.843	15.35
650.033	15.33
650.223	15.37
650.413	15.26
650.603	15.22
650.793	15.34
650.983	15.28
651.172	15.25
651.362	15.28
651.552	15.2
651.742	15.04
651.932	15.03
652.122	14.98
652.312	15.02
652.502	14.98
652.691	14.94
652.881	14.83
653.071	14.77
653.261	14.58
653.45	14.43
653.64	14.37
653.83	14.23
654.019	14.14
654.209	14.04
654.399	13.99
654.588	13.87
654.778	13.82
654.968	13.64
655.157	13.62
655.347	13.54
655.536	13.37
655.726	13.18
655.915	13.02
656.105	12.84
656.294	12.67
656.484	12.49
656.673	12.4
656.863	12.38
657.052	12.31
657.241	12.12
657.431	12.06
657.62	11.96
657.809	11.65
657.999	11.46
658.188	11.3
658.377	11.13
658.567	10.94
658.756	10.84
658.945	10.7
659.134	10.57
659.324	10.38
659.513	10.31
659.702	10.14
659.891	9.95
660.08	9.83
660.269	9.77
660.458	9.53
660.648	9.47
660.837	9.43
661.026	9.39
661.215	9.27
661.404	9.13
661.593	9.05
661.782	8.72
661.971	8.57
662.16	8.44
662.349	8.42
662.538	8.14
662.726	8.15
662.915	8.06
663.104	7.93
663.293	7.86
663.482	7.99
663.671	7.94
663.86	7.77
664.048	7.67
664.237	7.6
664.426	7.36
664.615	7.35
664.803	7.27
664.992	7.25
665.181	7.12
665.369	6.98
665.558	6.8
665.747	6.86
665.935	6.86
666.124	6.94
666.312	7.09
666.501	7.05
666.69	6.81
666.878	6.63
667.067	6.41
667.255	6.39
667.444	6.63
667.632	6.76
667.82	6.89
668.009	6.85
668.197	6.71
668.386	6.5
668.574	6.62
668.762	6.5
668.951	6.51
669.139	6.64
669.327	6.53
669.516	6.57
669.704	6.56
669.892	6.78
670.08	6.79
670.269	6.79
670.457	6.56
670.645	6.49
670.833	6.5
671.021	6.46
671.21	6.57
671.398	6.85
671.586	6.9
671.774	6.7
671.962	6.74
672.15	6.77
672.338	6.56
672.526	6.66
672.714	6.69
672.902	6.72
673.09	6.84
673.278	7.11
673.466	7.19
673.654	7.42
673.842	7.44
674.03	7.53
674.218	7.4
674.405	7.44
674.593	7.37
674.781	7.48
674.969	7.5
675.157	7.67
675.344	7.7
675.532	7.74
675.72	7.78
675.908	7.88
676.095	7.84
676.283	7.86
676.471	8.07
676.658	8.12
676.846	8.09
677.033	8.23
677.221	8.31
677.409	8.21
677.596	8.22
677.784	8.35
677.971	8.42
678.159	8.47
678.346	8.58
678.534	8.74
678.721	8.85
678.909	8.82
679.096	8.93
679.283	9.23
679.471	9.3
679.658	9.43
679.846	9.77
680.033	10.04
680.22	9.92
680.408	9.95
680.595	9.88
680.782	9.75
680.969	9.73
681.157	9.89
681.344	9.99
681.531	10.05
681.718	10.19
681.905	10.33
682.093	10.41
682.28	10.65
682.467	10.91
682.654	11.03
682.841	11.17
683.028	11.46
683.215	11.6
683.402	11.65
683.589	11.8
683.776	11.92
683.963	11.99
684.15	12.13
684.337	12.39
684.524	12.58
684.711	12.92
684.898	13.12
685.085	13.42
685.271	13.81
685.458	14.03
685.645	14.03
685.832	14.3
686.019	14.62
686.205	14.72
686.392	15.06
686.579	15.42
686.766	15.84
686.952	16
687.139	16.46
687.326	16.71
687.512	17.11
687.699	17.46
687.886	17.79
688.072	18.01
688.259	18.54
688.445	18.95
688.632	19.07
688.818	19.6
689.005	19.91
689.191	20.35
689.378	21.02
689.564	21.78
689.751	22.27
689.937	22.94
690.124	23.44
690.31	23.81
690.496	24.1
690.683	24.66
690.869	25.01
691.055	25.53
691.242	26.25
691.428	26.98
691.614	27.58
691.8	28.42
691.987	29.03
692.173	29.41
692.359	29.84
692.545	30.36
692.731	30.76
692.918	31.38
693.104	32.02
693.29	32.75
693.476	33.41
693.662	33.96
693.848	34.43
694.034	35.02
694.22	35.51
694.406	36.06
694.592	37.06
694.778	37.67
694.964	38.05
695.15	38.73
695.336	39.31
695.522	40.02
695.708	40.52
695.894	41.26
696.08	42
696.265	42.78
696.451	43.29
696.637	44.11
696.823	44.75
697.009	45.08
697.194	45.77
697.38	45.93
697.566	46.42
697.751	47.07
697.937	47.89
698.123	48.39
698.308	49.26
698.494	49.89
698.68	50.21
698.865	50.87
699.051	51.31
699.236	51.56
699.422	51.96
699.607	52.23
699.793	52.5
699.978	52.81
700.164	53.15
700.349	53.65
700.535	54.38
700.72	54.73
700.906	55.38
701.091	55.95
701.276	56.36
701.462	57.43
701.647	58.27
701.832	58.67
702.018	59.25
702.203	59.97
702.388	59.59
702.573	59.78
702.759	60.29
702.944	60.75
703.129	60.72
703.314	61.26
703.499	61.57
703.684	61.72
703.87	62.68
704.055	63.76
704.24	64.49
704.425	65.19
704.61	65.6
704.795	65.43
704.98	65.42
705.165	65.38
705.35	65.36
705.535	65.85
705.72	66.16
705.905	66.59
706.09	67.24
706.275	67.74
706.459	67.57
706.644	67.66
706.829	67.71
707.014	67.71
707.199	68.07
707.384	68.91
707.568	69.27
707.753	69.88
707.938	70.23
708.123	70.28
708.307	70.17
708.492	70.55
708.677	70.46
708.861	70.54
709.046	70.65
709.231	71.22
709.415	71.56
709.6	71.58
709.784	71.82
709.969	72.11
710.153	72.32
710.338	72.43
710.522	72.89
710.707	73.41
710.891	73.68
711.076	73.6
711.26	73.35
711.445	73.42
711.629	73.57
711.813	73.45
711.998	73.81
712.182	73.88
712.366	74.86
712.551	75.19
712.735	75.79
712.919	75.75
713.103	76.65
713.288	75.97
713.472	75.73
713.656	76.28
713.84	76.75
714.024	76.88
714.208	76.86
714.393	77.19
714.577	77.13
714.761	77.04
714.945	77.25
715.129	77.56
715.313	77.68
715.497	77.71
715.681	78.54
715.865	78.16
716.049	78.66
716.233	78.6
716.417	78.79
716.601	77.96
716.785	78.05
716.968	78.22
717.152	78.77
717.336	78.71
717.52	78.95
717.704	79.05
717.888	79.35
718.071	79.43
718.255	79.55
718.439	79.88
718.622	80.47
718.806	80.38
718.99	79.9
719.174	80.01
719.357	80.19
719.541	79.81
719.724	79.63
719.908	80.49
720.092	81.05
720.275	80.87
720.459	80.78
720.642	80.56
720.826	79.96
721.009	79.39
721.193	78.96
721.376	79.73
721.559	80.4
721.743	81.01
721.926	81.75
722.11	82.32
722.293	81.5
722.476	81.13
722.66	80.85
722.843	80.36
723.026	80.05
723.21	80.82
723.393	81.54
723.576	81.34
723.759	81.09
723.942	81.63
724.126	81.04
724.309	81
724.492	81.16
724.675	81.5
724.858	81.78
725.041	82.64
725.224	82.55
725.407	82.77
725.59	83.12
725.774	82.83
725.957	82.4
726.14	82.51
726.322	83.45
726.505	82.98
726.688	83.89
726.871	83.94
727.054	84.12
727.237	83.34
727.42	84.17
727.603	83.62
727.786	83.82
727.968	83.77
728.151	83.48
728.334	82.91
728.517	83.5
728.699	83.89
728.882	83.76
729.065	84.73
729.248	85.05
729.43	85.08
729.613	85.9
729.796	86.57
729.978	85.71
730.161	85.43
730.343	84.73
730.526	85.07
730.708	84.02
730.891	84.62
731.073	84.9
731.256	84.75
731.438	84.37
731.621	85.62
731.803	85.77
731.986	85.94
732.168	86.22
732.35	85.88
732.533	85.37
732.715	85.39
732.898	85.57
733.08	85.62
733.262	86.26
733.444	86.53
733.627	86.68
733.809	86.94
733.991	88.32
734.173	87.39
734.355	86.55
734.538	86.62
734.72	86.38
734.902	85.76
735.084	85.98
735.266	86.76
735.448	87.24
735.63	87.01
735.812	87.15
735.994	88.94
736.176	89.15
736.358	89.11
736.54	90.2
736.722	89.1
736.904	88.25
737.086	88.02
737.268	88.56
737.45	88.09
737.632	88.7
737.814	88.12
737.995	88.01
738.177	87.15
738.359	86.89
738.541	87.39
738.723	87.93
738.904	88.84
739.086	88.62
739.268	88.43
739.449	88.56
739.631	88.27
739.813	88.33
739.994	88.82
740.176	90.05
740.358	89.74
740.539	90.6
740.721	91.1
740.902	91.86
741.084	91.24
741.265	91.65
741.447	90.75
741.628	90.37
741.81	89.45
741.991	89.91
742.172	90.74
742.354	90.69
742.535	90.29
742.717	90.28
742.898	90.21
743.079	90.05
743.261	90.09
743.442	89.58
743.623	91.18
743.804	91.42
743.986	91.56
744.167	90.26
744.348	90.23
744.529	89.33
744.71	88.56
744.891	86.95
745.073	87.7
745.254	88.02
745.435	87.38
745.616	86.66
745.797	87.51
745.978	87.85
746.159	88.52
746.34	88.08
746.521	90.68
746.702	89.76
746.883	88.95
747.064	88.09
747.245	89.31
747.426	87.56
747.606	88.13
747.787	90.13
747.968	89.71
748.149	88.79
748.33	88.68
748.51	87.15
748.691	86.27
748.872	87.01
749.053	87.65
749.233	87.14
749.414	88.61
749.595	87.62
749.775	87.91
749.956	86.66
750.137	86.69
750.317	88.02
750.498	90.06
750.678	89.21
750.859	90.48
751.04	91.38
751.22	89.07
751.4	87.26
751.581	86.57
751.761	86.96
751.942	87.11
752.122	87.73
752.303	87.66
752.483	88.58
752.663	86.71
752.844	85.44
753.024	86.15
753.204	86.49
753.385	85.18
753.565	86.11
753.745	86.77
753.925	86.06
754.106	85.03
754.286	85.53
754.466	85.12
754.646	85.18
754.826	84.11
755.006	84.21
755.187	85.81
755.367	86.4
755.547	86.52
755.727	87.48
755.907	87.83
756.087	87.63
756.267	87.16
756.447	85.84
756.627	84.9
756.807	85.4
756.987	84.61
757.167	84.45
757.346	85.92
757.526	84.87
757.706	86.92
757.886	86.6
758.066	88.18
758.246	90.15
758.425	92.09
758.605	89.29
758.785	89.95
758.965	88.78
759.144	85.77
759.324	86.33
759.504	86.77
759.683	86.65
759.863	85.23
760.043	83.84
760.222	83.12
760.402	83.06
760.581	82.28
760.761	85.29
760.94	85.3
761.12	87.19
761.299	88.86
761.479	88.98
761.658	86.36
761.838	87.99
762.017	86.48
762.197	85.69
762.376	85.62
762.555	87.23
762.735	87.28
762.914	85.45
763.093	84.3
763.273	84.09
763.452	82.63
763.631	81.08
763.81	81.05
763.99	81.18
764.169	81.43
764.348	79.38
764.527	79.16
764.706	81.28
764.885	83.49
765.064	83.5
765.243	86.41
765.423	88.25
765.602	86.94
765.781	84.13
765.96	82.61
766.139	80.49
766.318	80.84
766.497	80.85
766.676	80.96
766.854	82.88
767.033	83.59
767.212	81.48
767.391	80.67
767.57	82.03
767.749	82.36
767.928	83.37
768.106	83.41
768.285	82.79
768.464	82.19
768.643	80.74
768.821	81.65
769	84.39
769.179	85.34
769.357	84.34
769.536	83.87
769.715	82.13
769.893	80.97
770.072	80.55
770.25	81.11
770.429	81.27
770.607	81.75
770.786	80.64
770.964	82.96
771.143	80.47
771.321	82.29
771.5	81.87
771.678	81.3
771.857	77.98
772.035	80.62
772.213	79.72
772.392	78.27
772.57	81.94
772.748	83.54
772.927	81.76
773.105	81.09
773.283	81.74
773.461	79.91
773.64	78.49
773.818	78.68
773.996	79.51
774.174	79.61
774.352	77.52
774.531	75.65
774.709	78.46
774.887	76.39
775.065	76.69
775.243	77.74
775.421	80.34
775.599	80.23
775.777	79.05
775.955	76.61
776.133	75.41
776.311	74.13
776.489	70.8
776.667	73.25
776.844	76.82
777.022	74.07
777.2	74.03
777.378	74.69
777.556	74.96
777.734	75.14
777.911	80.07
778.089	80.98
778.267	80.18
778.445	78.71
778.622	76.94
778.8	75.95
778.978	78.16
779.155	76.89
779.333	78.05
779.511	77.52
779.688	79.93
779.866	74.36
780.043	75.05
780.221	73.8
780.398	72.97
780.576	72.24
780.753	75.71
780.931	75.78
781.108	74.56
781.286	74.07
781.463	68.47
781.64	64.52
781.818	66.98
781.995	69.95
782.172	72
782.35	77.35
782.527	82.03
782.704	80.58
782.882	79.87
783.059	77.69
783.236	76.49
783.413	77.56
783.59	76.85
783.768	72.21
783.945	75.07
784.122	75.75
784.299	75.28
784.476	73.08
784.653	74.94
784.83	71.21
785.007	65.61
785.184	65.14
785.361	65.31
785.538	71.09
785.715	76.16
785.892	79.57
786.069	81.54
786.246	84.2
786.423	81.28
786.6	77.45
786.776	79.11
786.953	76.61
787.13	77.97
787.307	77.78
787.484	77.65
787.66	74.59
787.837	72.62
788.014	70
788.191	66.41
788.367	64.27
788.544	67.36
788.721	65.99
788.897	68.78
789.074	70.87
789.25	71.09
789.427	70.1
789.603	74.37
789.78	73.92
789.956	71.63
790.133	70.04
790.309	70.67
790.486	71.46
790.662	69.69
790.839	70.37
791.015	75.36
791.192	70.25
791.368	70.27
791.544	67.86
791.721	67.85
791.897	66.03
792.073	68.41
792.249	62.43
792.426	65.09
792.602	67.41
792.778	67.25
792.954	67.55
793.13	69.5
793.307	63.87
793.483	56.48
793.659	54.55
793.835	56.37
794.011	53.8
794.187	58.46
794.363	61.39
794.539	69.15
794.715	61.19
794.891	60.91
795.067	56.89
795.243	60.97
795.419	56.01
795.595	60.23
795.771	60.8
795.947	63.93
796.122	62.34
796.298	63.35
796.474	61.53
796.65	62.06
796.826	58.42
797.001	57.99
797.177	53.4
797.353	61.08
797.529	63.49
797.704	63.4
797.88	60.31
798.056	59.14
798.231	53.42
798.407	56.7
798.582	58.91
798.758	68.31
798.934	75.83
799.109	75.76
799.285	70.58
799.46	72.97
799.636	68.25
799.811	67.22
799.986	71.47
800.162	73.92
800.337	76.47
800.513	71.2
800.688	68.73
800.863	71.21
801.039	63.65
801.214	55.38
801.389	61.65
801.565	56.76
801.74	46.46
801.915	56.2
802.09	62.05
802.265	66.04
802.441	64.78
802.616	68.08
802.791	65.81
802.966	59.87
803.141	53.88
803.316	52.29
803.491	56.76
803.666	56.46
803.841	60.93
804.016	63.44
804.191	69.81
804.366	66.71
804.541	62.42
804.716	57.53
804.891	51.89
805.066	53.84
805.241	51.66
805.416	52.44
805.591	49.61
805.765	57.03
805.94	56.98
806.115	55.18
806.29	51.88
806.464	55.74
806.639	46.83
806.814	41.62
806.989	32.92
807.163	48.23
807.338	50.49
807.512	50.1
807.687	39.04
807.862	56.5
808.036	54.6
808.211	53.06
808.385	66.17
808.56	80.34
808.734	77.36
808.909	63.49
809.083	60.53
809.258	56.16
809.432	57.91
809.606	42.85
809.781	40.39
809.955	46.1
810.13	45.26
810.304	42.17
810.478	46.55
810.652	63.9
810.827	66.05
811.001	63.95
811.175	60.27
811.349	63.29
811.524	45.79
811.698	34.91
811.872	37.46
812.046	43.19
812.22	46.4
812.394	54.91
812.568	61.08
812.742	61.75
812.916	60.66
813.09	58.59
813.264	59.49
813.438	56.57
813.612	51.8
813.786	47.7
813.96	56.63
814.134	52.3
814.308	63.26
814.482	66.66
814.656	61.67
814.83	62.82
815.003	70.02
815.177	59.17
815.351	50.72
815.525	50.22
815.698	43.12
815.872	34.96
816.046	25.43
816.219	34.46
816.393	49.36
816.567	54.76
816.74	54.88
816.914	67.66
817.088	72.17
817.261	56.26
817.435	37.36
817.608	39.15
817.782	27.52
817.955	24.47
818.129	21.44
818.302	35.05
818.475	50.13
818.649	51.79
818.822	38.39
818.996	58.42
819.169	56.39
819.342	28
819.516	37.77
819.689	50.74
819.862	37.67
820.035	22.2
820.209	27.39
820.382	21.28
820.555	24.23
820.728	23.3
820.901	33.88
821.075	31.87
821.248	33.54
821.421	23.28
821.594	31.72
821.767	53.1
821.94	83.84
822.113	73.74
822.286	63.2
822.459	60.89
822.632	52.41
822.805	25.45
822.978	29.06
823.151	38.42
823.324	28.01
823.496	1.19
823.669	-1.77
823.842	-5.3
824.015	-25.35
824.188	-3.52
824.361	7.47
824.533	6.09
824.706	21.13
824.879	41.18
825.051	37.7
825.224	48.72
825.397	61.03
825.569	58.43
825.742	57.99
825.915	63.03
826.087	76.66
826.26	58.24
826.432	45.91
826.605	44.2
826.777	26.65
826.95	14.69
827.122	0.71
827.295	7.68
827.467	9.55
827.64	-19.46
827.812	-30.16
827.984	-21.45
828.157	-32.8
828.329	-72.54
828.501	-44.43
828.674	-0.6
828.846	-8.91
829.018	13.33
829.19	1.59
829.363	39.88
829.535	28.19
829.707	37.19
829.879	12.84
830.051	16.44
830.223	-11.4
830.395	-38.24
830.568	-41.75
830.74	-41.73
830.912	4.27
831.084	-7.21
831.256	-2.17
831.428	-8.67
831.6	-15.77
831.772	-66.13
831.943	-80.84
832.115	-30.28
832.287	-6.14
832.459	1.67
832.631	10.13
832.803	43.55
832.975	36.03
833.146	23.95
833.318	26.87
833.49	46.39
833.662	10.39
833.833	-20.44
834.005	-20.44
834.177	-13.71
834.348	-24.03
834.52	-25.39
834.692	3.6
834.863	27.95
835.035	18.9
835.206	-10.88
835.378	2.53
835.549	-16.7
835.721	-17.79
835.892	-28.83
836.064	-26.34
836.235	-38.44
836.407	-44.34
836.578	-83.08
836.749	-79.33
836.921	-97.98
837.092	-101.67
837.264	-82.33
837.435	-82.68
837.606	-38.8
837.777	-0.79
837.949	20.77
838.12	27.99
838.291	36.05
838.462	28.98
838.633	-4.15
838.805	-12.23
838.976	-12.4
839.147	-49.29
839.318	-61.75
839.489	-101.11
839.66	-99.04
839.831	-58.46
840.002	-45.73
840.173	-60.23
840.344	16.46
840.515	58.3
840.686	-62.5
840.857	-59.03
841.028	-88.25
841.199	-76.96
841.369	-106.16
841.54	-83.06
841.711	-17.76
841.882	28.11
842.053	5.1
842.223	5.21
842.394	26.6
842.565	5.06
842.736	9.7
842.906	12.48
843.077	28
843.248	48.11
843.418	23.38
843.589	-19.08
843.759	14.83
843.93	14.2
844.101	13.89
844.271	40.96
844.442	45.45
844.612	53.98
844.783	10.81
844.953	-30.57
845.123	-62.36
845.294	-60.99
845.464	-296.34
845.635	-88.5
845.805	-18.12
845.975	-9.65
846.146	-54.52
846.316	-34.15
846.486	-9.97
846.656	14.88
846.827	-2.37
846.997	-0.18
847.167	15.04
847.337	-19.77
847.507	-60.45
847.677	-22
847.848	34.51
848.018	25.8
848.188	47.71
848.358	32.38
848.528	7.38
848.698	-49.53
848.868	-106.31
849.038	-214.23
849.208	-76.68
849.378	4.27
849.548	35.32
849.718	33.66
849.887	39.39
850.057	16.17
850.227	-5.57
850.397	-62.33
850.567	-199.17
850.737	-375.54
850.906	-918.44
851.076	-920.9
851.246	-279.45
851.415	16.03
851.585	-5.29
851.755	-40.44
851.924	25.48
852.094	-13.35
852.264	-157.91
852.433	-1214.18
852.603	-239.79
852.772	-283.53
852.942	-113.65
853.111	-74.5
853.281	-7
853.45	17.51
853.62	-70.29
853.789	-85.94
853.959	-65.22
854.128	-113.41
854.297	-120.51
854.467	-77.5
854.636	-21.42
854.805	5.5
854.975	26.51
855.144	14.04
855.313	132.34
855.482	-547.26
855.652	-265.05
855.821	-222.31
855.99	-17.83
856.159	9.27
856.328	43.95
856.497	13.8
856.667	17.02
856.836	-6.5
857.005	-35.66
857.174	-65.34
857.343	-72.88
857.512	-23.07
857.681	-42.23
857.85	-83.17
858.019	-47.64
858.188	-27.56
858.356	-51.16
858.525	-108.93
858.694	-89.49
858.863	-166.54
859.032	-127.64
859.201	-254.71
859.369	-146.88
859.538	-107.18
859.707	-82.12
859.876	-97.39
860.044	-69.53
860.213	4.73
860.382	-0.77
860.55	-1.35
860.719	22.05
860.888	48.77
861.056	0.84
861.225	-21.98
861.393	26.11
861.562	35.77
861.73	-63.82
861.899	-177.36
862.067	-1602.59
862.236	-100.89
862.404	-293.88
862.572	-181.15
862.741	-54.71
862.909	-29.72
863.078	-149.96
863.246	-91.43
863.414	-71.24
863.582	-49.44
863.751	-104.52
863.919	-74.18
864.087	-38.6
864.255	-49.58
864.424	-536.55
864.592	-92.96
864.76	-183.35
864.928	-575.8
865.096	-224.44
865.264	-48.45
865.432	-1574.43
865.6	73.63
865.768	-77.93
865.936	-101.58
866.104	-120.88
866.272	-128.36
866.44	-462.89
866.608	650.41
866.776	354.7
866.944	3948.26
867.112	-654.56
867.28	-271.78
867.448	-133.34
867.615	-44.63
867.783	8.86
867.951	-21.29
868.119	31.11
868.286	5.6
868.454	-133.6
868.622	-158.17
868.789	-195.02
868.957	-5226.79
869.125	-3480.92
869.292	-280.04
869.46	-384.3
869.627	-87.54
869.795	-70.08
869.963	-31.22
870.13	-22.64
870.298	15.05
870.465	-88.47
870.632	-96.86
870.8	-56.03
870.967	-82.03
871.135	-181.95
871.302	-106.33
871.469	-95.52
871.637	-98.13
871.804	-54.55
871.971	-126.24
872.139	-478.49
872.306	-71.5
872.473	-114.23
872.64	-517.49
872.807	-194.72
872.975	-69.93
873.142	-364.27
873.309	3056.08
873.476	-50.33
873.643	12.5
873.81	-0.5
873.977	19.36
874.144	38.87
874.311	-75.47
874.478	-151.48
874.645	-182.66
874.812	-179.73
874.979	-99.24
875.146	-80.31
875.313	-116.45
875.48	-3.53
875.647	4.12
875.813	-32.56
875.98	-23.4
876.147	-26.88
876.314	-113.97
876.481	1098.14
876.647	-1280.62
876.814	503.5
876.981	-84.13
877.147	-51.08
877.314	-23.55
877.481	-5.38
877.647	13.83
877.814	-28.92
877.98	-76.5
878.147	-20.08
878.314	28.34
878.48	-54.95
878.647	-45.74
878.813	33.08
878.979	42.79
879.146	-18.26
879.312	-12.07
879.479	-40.82
879.645	-183.14
879.811	-407.81
879.978	-952.48
880.144	-245.15
880.31	-103.86
880.477	-261.63
880.643	-295.69
880.809	-80.5
880.975	-38.75
881.142	-526.14
881.308	-42.72
881.474	7.78
881.64	3.54
881.806	-126.62
881.972	-33.75
882.138	-38.85
882.304	-50.07
882.47	-231.5
882.636	-624.39
882.802	-226.35
882.968	-20.92
883.134	-25.46
883.3	2.72
883.466	20.48
883.632	62.54
883.798	-10.13
883.964	-25.32
884.129	-43.26
884.295	-18.29
884.461	-100.47
884.627	-91.65
884.793	-50.04
884.958	-19.52
885.124	-126.21
885.29	-204.66
885.455	-283.86
885.621	-131.02
885.787	-203.53
885.952	-65.58
886.118	-80.21
886.283	-62.09
886.449	-156.06
886.614	-138.17
886.78	-369.13
886.945	1322.54
887.111	-710.84
887.276	-661.22
887.442	-1265.23
887.607	-514.98
887.773	-409.79
887.938	-361.03
888.103	-377.01
888.269	-208.66
888.434	-415
888.599	-131.46
888.764	-29.83
888.93	2.33
889.095	-27.49
889.26	-49.86
889.425	-16.99
889.59	33.44
889.756	-24.06
889.921	-23.11
890.086	42
890.251	9.93
890.416	-214.13
890.581	-1838.31
890.746	248.48
890.911	443.15
891.076	193.37
891.241	-344.59
891.406	42.9
891.571	10.72
891.736	-330.16
891.901	-488.27
892.065	596.43
892.23	140.93
892.395	280.58
892.56	345.01
892.725	-402.93
892.889	-635.98
893.054	-167.43
893.219	-29.64
893.384	-4.44
893.548	-62.15
893.713	-105.5
893.878	-66.71
