Data from Ofra_PS_T2_1A_9CX06_Reflection_1.txt Node
Date: Wed Jul 21 18:18:36 EDT 2021
User: Adam
Spectrometer: FLMT01687
Trigger mode: 0
Integration Time (sec): 1.100000E0
Scans to average: 2
Electric dark correction enabled: true
Nonlinearity correction enabled: false
Boxcar width: 2
XAxis mode: Wavelengths
Number of Pixels in Spectrum: 3648
>>>>>Begin Spectral Data<<<<<
179.494	553.4
179.716	639.06
179.937	606.6
180.158	596.94
180.38	1025.47
180.601	503.73
180.823	149.55
181.044	34
181.265	116.73
181.486	28.89
181.708	53.29
181.929	189.29
182.15	-134.86
182.372	65.96
182.593	42.94
182.814	-10.8
183.035	16.74
183.257	3.96
183.478	-18.46
183.699	-35.77
183.92	-9.54
184.141	-26.75
184.363	-77.71
184.584	-34.88
184.805	2.18
185.026	48.56
185.247	60.07
185.468	32.88
185.689	29.31
185.91	16.91
186.132	-17.07
186.353	-23.89
186.574	35.44
186.795	34.94
187.016	14
187.237	-8.67
187.458	-46.78
187.679	-54.64
187.9	-63.3
188.121	-53.08
188.342	-31.18
188.563	2.8
188.784	11.72
189.005	25.71
189.226	49.26
189.447	13.46
189.667	-91.63
189.888	-316.13
190.109	-1172.4
190.33	-565
190.551	-889.16
190.772	-241.1
190.993	-214.02
191.214	-188.59
191.434	-146.76
191.655	-59.6
191.876	-83.08
192.097	-105.9
192.318	-192.37
192.538	-237.46
192.759	-183.91
192.98	-71.95
193.201	-27.76
193.421	3.58
193.642	-2.03
193.863	-7.47
194.083	-23.2
194.304	-15.33
194.525	-5.07
194.745	2.95
194.966	-11.4
195.187	-23.56
195.407	-60.19
195.628	-129.36
195.848	-147.17
196.069	-145.7
196.29	-117.39
196.51	-104.09
196.731	-98.27
196.951	-73.05
197.172	-72.59
197.392	-118.73
197.613	-144.68
197.833	-161.71
198.054	-155.32
198.274	-103.41
198.495	-97.62
198.715	-48.53
198.936	-61.47
199.156	-44.82
199.377	-126.26
199.597	-117.73
199.817	-123.56
200.038	-68.99
200.258	-119.97
200.479	-47.02
200.699	-60.91
200.919	3.51
201.14	5.23
201.36	-18.96
201.58	15.96
201.801	41.08
202.021	11.22
202.241	-4.19
202.461	0.02
202.682	-80.92
202.902	-154.36
203.122	-117.97
203.342	-95.57
203.563	-32.71
203.783	-20.53
204.003	-52.9
204.223	-40.27
204.443	21.1
204.663	-19.21
204.884	7.79
205.104	42.32
205.324	48.66
205.544	22.84
205.764	42.18
205.984	47.1
206.204	46.97
206.424	27.14
206.644	3.5
206.864	7.68
207.084	-64.06
207.304	-58.06
207.525	-148.05
207.745	-74.81
207.964	-38.91
208.184	-67.02
208.404	-100.36
208.624	-89.67
208.844	-86.69
209.064	-361.46
209.284	-306.15
209.504	-143.48
209.724	-43.85
209.944	-29.26
210.164	7.07
210.384	0.98
210.604	-23.49
210.823	-52.24
211.043	-63.32
211.263	-59.12
211.483	-60.79
211.703	-87.49
211.922	-85.49
212.142	-26.51
212.362	-10.83
212.582	-7.58
212.801	-10.08
213.021	-6.4
213.241	-32.54
213.461	-71.43
213.68	-71.27
213.9	-55.77
214.12	-49.89
214.339	-102.97
214.559	-80.66
214.779	-42.46
214.998	-40.82
215.218	-81.06
215.438	-54.66
215.657	-46.28
215.877	-50.3
216.096	-9.9
216.316	6.07
216.535	8.93
216.755	-2.03
216.974	-51.34
217.194	-111.68
217.413	-129.09
217.633	-115.16
217.852	-195.15
218.072	-95.01
218.291	-52.29
218.511	-2.68
218.73	-35.46
218.95	-27.66
219.169	-30.15
219.389	-66.42
219.608	-47.83
219.827	-24.09
220.047	-10.25
220.266	-0.76
220.485	14.23
220.705	23.23
220.924	-3.85
221.143	21.47
221.363	-5.16
221.582	0.18
221.801	-10.64
222.021	-1.86
222.24	-77.9
222.459	7.27
222.678	-16.8
222.897	-57.87
223.117	-45.95
223.336	-64.04
223.555	-49.85
223.774	-28.83
223.993	-40.1
224.213	-2.59
224.432	-1.49
224.651	9.45
224.87	3.43
225.089	24.26
225.308	13.33
225.527	30.04
225.746	30.48
225.965	17.61
226.184	-5.38
226.404	6.79
226.623	-12.99
226.842	-14.35
227.061	11.34
227.28	6.22
227.499	-5.19
227.718	5.77
227.936	-2.57
228.155	15.72
228.374	12.25
228.593	12.2
228.812	12.88
229.031	-4.58
229.25	-60.75
229.469	-75.25
229.688	-70.02
229.907	-31.28
230.125	-5.51
230.344	-1.83
230.563	22.71
230.782	26.41
231.001	-48.32
231.22	-49.9
231.438	-35.12
231.657	-30.45
231.876	-38.59
232.095	5.59
232.313	4.56
232.532	-22.97
232.751	-47.7
232.969	-52.71
233.188	-97.12
233.407	-19.51
233.625	-7.23
233.844	10.32
234.063	-4.75
234.281	0.2
234.5	-19.75
234.719	-2.44
234.937	-5.17
235.156	4.63
235.374	10.76
235.593	-7.16
235.811	-32.05
236.03	-46.13
236.249	-83.61
236.467	-90.5
236.686	-25.55
236.904	1.97
237.123	-8.67
237.341	-0.87
237.559	8.03
237.778	-9.29
237.996	-30.03
238.215	4.41
238.433	8.78
238.652	12.55
238.87	-7.59
239.088	-14.85
239.307	-26.82
239.525	-33.72
239.743	-65.1
239.962	-16.53
240.18	-25.06
240.398	-55.1
240.617	-65.24
240.835	-51.34
241.053	-71.19
241.271	-3.59
241.49	15.46
241.708	-4.33
241.926	16.98
242.144	19.02
242.363	-34.11
242.581	-28.28
242.799	-3.22
243.017	0.02
243.235	-20.71
243.453	-19.77
243.672	-20.21
243.89	-27.59
244.108	-35.72
244.326	-16.45
244.544	-13.15
244.762	-28.18
244.98	-20.08
245.198	-11.82
245.416	-35.51
245.634	-39.59
245.852	-51.34
246.07	-61.35
246.288	-68.55
246.506	-76.3
246.724	-59.59
246.942	-15.76
247.16	20.78
247.378	29.6
247.596	56.72
247.814	37.49
248.032	-6.25
248.25	-15.08
248.468	-6.86
248.685	-11.47
248.903	29.67
249.121	29.11
249.339	0.19
249.557	-16.13
249.775	-13.57
249.992	-87.09
250.21	-65.39
250.428	-44.74
250.646	-78.89
250.863	-102.59
251.081	-66.76
251.299	-74.98
251.517	-83.2
251.734	-50.82
251.952	-37.32
252.17	-31.5
252.387	-28.25
252.605	-36.26
252.823	-19.5
253.04	-9.27
253.258	10.78
253.475	16.48
253.693	30
253.911	18.68
254.128	17.86
254.346	-3.21
254.563	-17.98
254.781	-28.96
254.998	-38.15
255.216	-72.55
255.433	-34.6
255.651	2.26
255.868	20.96
256.086	30.46
256.303	25.79
256.521	8.38
256.738	-11.95
256.956	-46.43
257.173	-67.51
257.39	-59.72
257.608	-87.91
257.825	-3.39
258.043	41.54
258.26	45.2
258.477	80.71
258.695	76.67
258.912	4.17
259.129	10.95
259.346	-28.57
259.564	-82.24
259.781	-97.19
259.998	-14.56
260.216	-9.62
260.433	31.37
260.65	33.12
260.867	42.32
261.084	-3.17
261.302	-11.18
261.519	-23.81
261.736	-48.99
261.953	-60.35
262.17	-28.36
262.387	-42.42
262.604	-80.41
262.822	-71.47
263.039	-43.31
263.256	-66.4
263.473	-32.69
263.69	-3.28
263.907	29.19
264.124	30.23
264.341	27.08
264.558	2.91
264.775	12.95
264.992	-1.2
265.209	1.2
265.426	13.08
265.643	25.59
265.86	30.7
266.077	34.7
266.294	-4.29
266.51	-37.25
266.727	-53.4
266.944	-56.22
267.161	-55.6
267.378	-36.12
267.595	-7.8
267.812	-9.25
268.028	-13.14
268.245	-1.79
268.462	-21.97
268.679	-25
268.896	3.82
269.112	2.11
269.329	-7.56
269.546	5.28
269.763	5.16
269.979	-8.46
270.196	0.36
270.413	-24.21
270.629	-32.28
270.846	-54.32
271.063	-56.78
271.279	-72.78
271.496	-44.46
271.712	-16.93
271.929	9.59
272.146	4.81
272.362	-0.52
272.579	-4.47
272.795	3.18
273.012	12.8
273.228	1.83
273.445	-17.64
273.661	-36.06
273.878	-72.7
274.094	-59.28
274.311	-60.74
274.527	-4.42
274.744	0.97
274.96	-7.74
275.177	-1.8
275.393	1.09
275.609	-2.59
275.826	20.5
276.042	18.69
276.259	0.41
276.475	16.48
276.691	-0.46
276.908	-24.53
277.124	-6.38
277.34	-14.95
277.557	-25.33
277.773	-17.06
277.989	-19.05
278.205	-20.72
278.422	-3.27
278.638	-6.39
278.854	5.67
279.07	17.57
279.286	9.5
279.503	-21.04
279.719	-26.59
279.935	-66.77
280.151	-84.4
280.367	-57.76
280.583	-75.99
280.799	-57.35
281.016	-75.62
281.232	-40.36
281.448	-43.58
281.664	-5.83
281.88	-43.81
282.096	-4.48
282.312	7.02
282.528	17.52
282.744	4.66
282.96	10
283.176	0.85
283.392	-12.28
283.608	-16.86
283.824	-22.27
284.04	-10.63
284.256	-7.1
284.471	-10.94
284.687	-24.19
284.903	-1.69
285.119	7.77
285.335	-14.93
285.551	6.68
285.767	-0.81
285.982	-28.14
286.198	-62.07
286.414	-10.9
286.63	-11.97
286.846	6.69
287.061	3.83
287.277	34.81
287.493	10.84
287.709	12.67
287.924	-1.49
288.14	25.4
288.356	19.96
288.571	44.53
288.787	30.97
289.003	33.6
289.218	15.11
289.434	-15.81
289.65	-22.6
289.865	-35.24
290.081	-13.95
290.296	-19.09
290.512	3.87
290.727	-18.12
290.943	-15.37
291.159	-40.73
291.374	-33.7
291.59	-69.99
291.805	-63.38
292.021	-43.07
292.236	-30.93
292.451	-24.42
292.667	-9.62
292.882	13.56
293.098	-9
293.313	-36.44
293.529	-56.67
293.744	-59.18
293.959	-75.5
294.175	-52.81
294.39	-6.39
294.605	16.86
294.821	40.49
295.036	56.01
295.251	55.02
295.467	11.41
295.682	-0.54
295.897	-63.17
296.112	-73.6
296.328	-66.97
296.543	-64.56
296.758	-80.14
296.973	-16.99
297.188	0.71
297.404	-19.33
297.619	-20.39
297.834	-22.02
298.049	-32.57
298.264	-44.2
298.479	-3.75
298.694	0.01
298.909	15.12
299.125	13.61
299.34	15.47
299.555	-6.47
299.77	-0.37
299.985	-16.04
300.2	-77.9
300.415	-84.16
300.63	-57.3
300.845	-56.08
301.06	-55.27
301.275	-22.44
301.49	2.2
301.704	-6.15
301.919	-13.89
302.134	-32.63
302.349	-22.69
302.564	-73.8
302.779	-98.62
302.994	-87.42
303.209	-39.13
303.423	-9.98
303.638	15.02
303.853	0.59
304.068	-4.43
304.283	-14.54
304.497	-16.88
304.712	-29.49
304.927	-15.42
305.142	-20.91
305.356	-8.66
305.571	-16.66
305.786	-18.6
306	-34.7
306.215	-17.29
306.43	-38.65
306.644	-49.43
306.859	-12.56
307.074	-4.18
307.288	-32.6
307.503	-50.79
307.717	-45.74
307.932	-56.22
308.147	-64.3
308.361	-52.54
308.576	-43.57
308.79	-62.94
309.005	-51.5
309.219	-43.72
309.434	-56.22
309.648	-55.72
309.863	-40.42
310.077	-30.81
310.292	-27.03
310.506	-20.55
310.72	-3.51
310.935	12.86
311.149	9.33
311.364	24.36
311.578	38.59
311.792	25.09
312.007	22.75
312.221	-1.69
312.435	-4.56
312.649	-21.74
312.864	-16.77
313.078	-26.41
313.292	30.27
313.507	0.03
313.721	24.05
313.935	39.03
314.149	32.6
314.363	15.85
314.578	21.34
314.792	16.27
315.006	-10.64
315.22	-2.37
315.434	3.99
315.648	17.16
315.862	8.71
316.077	22.85
316.291	21.87
316.505	19.89
316.719	8.48
316.933	3.9
317.147	5.73
317.361	-33.25
317.575	-64.48
317.789	-116.89
318.003	-160.1
318.217	-148.48
318.431	-54.18
318.645	3.51
318.859	9.45
319.073	25.1
319.287	10.9
319.5	-8.38
319.714	-58.31
319.928	-77.03
320.142	-92.21
320.356	-37.34
320.57	-29.61
320.784	-38.83
320.997	-11.89
321.211	-3.32
321.425	-63.01
321.639	-79.31
321.853	-26.72
322.066	-15.03
322.28	-21.97
322.494	-8.85
322.707	10.8
322.921	0.36
323.135	-8.32
323.349	-7.23
323.562	-18.01
323.776	-25.93
323.989	-15.34
324.203	-28.91
324.417	-32.05
324.63	-58.27
324.844	-63.83
325.057	-82.26
325.271	-54.48
325.485	-20.63
325.698	12.69
325.912	26.52
326.125	6.23
326.339	0.92
326.552	-28.18
326.766	-25.39
326.979	-14.11
327.193	38.33
327.406	23.56
327.619	21.71
327.833	21.36
328.046	-5.85
328.26	-48.96
328.473	-5.89
328.686	-16.8
328.9	-25.1
329.113	-9.19
329.326	-27.55
329.54	-32.5
329.753	-29.69
329.966	-39.72
330.179	-47.3
330.393	-28.07
330.606	-35.3
330.819	-19.31
331.032	3.76
331.246	15.41
331.459	38.56
331.672	30.1
331.885	14.6
332.098	-14.74
332.311	-36.7
332.525	-76.01
332.738	-61.48
332.951	-26.8
333.164	-3.32
333.377	1.12
333.59	17.2
333.803	15.57
334.016	3.29
334.229	4.52
334.442	8.76
334.655	25.89
334.868	32.28
335.081	32.93
335.294	9.82
335.507	11.16
335.72	-5
335.933	-12.96
336.146	-25.29
336.359	-28.4
336.572	-42.08
336.785	-69.49
336.997	-69.2
337.21	-34.51
337.423	-24.56
337.636	-10.01
337.849	-3.66
338.062	-14.52
338.274	-29.6
338.487	-35.28
338.7	-42.67
338.913	-71.18
339.125	-74.6
339.338	-97.46
339.551	-78.58
339.763	-64.57
339.976	-33.27
340.189	-20.96
340.402	-9.86
340.614	-12.26
340.827	-21.88
341.039	-33.72
341.252	-19.47
341.465	-9.71
341.677	-8.09
341.89	-25.16
342.102	14.61
342.315	1.51
342.527	-13.43
342.74	-28.37
342.952	-1.21
343.165	-24.49
343.377	-1.54
343.59	3.41
343.802	39.12
344.015	34.6
344.227	43.71
344.44	32.05
344.652	32.41
344.864	1.24
345.077	30.34
345.289	27.2
345.502	33.42
345.714	20.29
345.926	23.83
346.139	11.83
346.351	14.54
346.563	14.79
346.775	14.76
346.988	1.67
347.2	-18.95
347.412	-55.62
347.624	-75.7
347.837	-67.82
348.049	-32.31
348.261	-4.9
348.473	9.15
348.685	6.57
348.897	4.55
349.11	-17.12
349.322	-43.1
349.534	-25.23
349.746	-21.66
349.958	-32.01
350.17	-14.15
350.382	4
350.594	-8.14
350.806	-4.91
351.018	-7.51
351.23	-38.32
351.442	-93.26
351.654	-98.99
351.866	-83.89
352.078	-63.36
352.29	-25.65
352.502	-4.4
352.714	12.95
352.926	-2.3
353.138	3.61
353.35	-7.66
353.561	-1.97
353.773	-31.79
353.985	-14.64
354.197	-21.09
354.409	-17.62
354.621	-18.44
354.832	-7.51
355.044	-9.9
355.256	-20.69
355.468	-8.7
355.679	-6.82
355.891	7.83
356.103	-14.33
356.314	4.1
356.526	3.82
356.738	-6.67
356.949	-25.52
357.161	12.63
357.373	4.52
357.584	-9.54
357.796	2.22
358.008	-3.58
358.219	-0.39
358.431	1.9
358.642	13.97
358.854	9.17
359.065	0.49
359.277	-23.34
359.488	-38.7
359.7	-69.11
359.911	-73.29
360.123	-37.8
360.334	-50.67
360.546	-62.17
360.757	-53.21
360.969	-36.87
361.18	-51.82
361.391	-27.55
361.603	-28.01
361.814	-22.2
362.025	-33.97
362.237	-29.99
362.448	-15.72
362.659	6.05
362.871	7.83
363.082	4.43
363.293	3.97
363.504	-21.01
363.716	-42.25
363.927	-57.47
364.138	-65.18
364.349	-75.77
364.56	-60.81
364.772	-47.65
364.983	-25.77
365.194	-25.52
365.405	-5.04
365.616	10.53
365.827	-1.09
366.038	-17.99
366.25	-23.9
366.461	-69.83
366.672	-54.97
366.883	-14.22
367.094	-6.47
367.305	-0.59
367.516	14.6
367.727	-9.02
367.938	-28.85
368.149	-24.89
368.36	-21.7
368.571	-22.99
368.781	-22.35
368.992	-35.66
369.203	-48.04
369.414	-60.79
369.625	-55.57
369.836	-47.12
370.047	-66.38
370.258	-54.16
370.468	-54.78
370.679	-73.25
370.89	-69.9
371.101	-45.17
371.312	-52.35
371.522	-42.16
371.733	-21.51
371.944	-17.13
372.155	-10.39
372.365	-14.1
372.576	-14.32
372.787	-19.97
372.997	-43.44
373.208	-50.3
373.419	-22.67
373.629	-48.19
373.84	-60.6
374.05	-51.71
374.261	-44.27
374.472	-56.17
374.682	-15.45
374.893	-6.08
375.103	20.1
375.314	19.68
375.524	12.25
375.735	13.35
375.945	19.33
376.156	-2.49
376.366	-6.98
376.577	4.23
376.787	-4.87
376.997	-6.66
377.208	-12.7
377.418	-20.5
377.629	-16.43
377.839	-16.64
378.049	-15.41
378.26	2.85
378.47	13.22
378.68	3.79
378.89	-1.62
379.101	-7.87
379.311	-34.99
379.521	-56.89
379.732	-46.54
379.942	-40.09
380.152	-59.69
380.362	-21.82
380.572	-11.77
380.783	-1.63
380.993	6.21
381.203	29.12
381.413	32.82
381.623	30.92
381.833	16.65
382.043	6.27
382.253	-11.99
382.463	-16.06
382.674	-26.31
382.884	-46.29
383.094	-37.32
383.304	-17.62
383.514	-13.8
383.724	-6.51
383.934	-5.16
384.144	-14.82
384.353	-26.11
384.563	-26.37
384.773	-18.45
384.983	-14.99
385.193	-7.35
385.403	6
385.613	10.93
385.823	-2.59
386.033	0.59
386.242	-0.28
386.452	-10.87
386.662	-24.51
386.872	-9.07
387.082	-6.93
387.291	-12.4
387.501	-14.33
387.711	-5.48
387.921	-13.74
388.13	-19.43
388.34	-6.41
388.55	-7.14
388.759	-3.79
388.969	0.71
389.179	3.72
389.388	0.81
389.598	7.99
389.807	-2.31
390.017	-4.04
390.227	-6.2
390.436	-7.68
390.646	-8.65
390.855	-2.86
391.065	-3.89
391.274	-3.71
391.484	-4.45
391.693	-3.65
391.903	-4.88
392.112	0.98
392.322	0.78
392.531	4.31
392.74	5.01
392.95	1.79
393.159	-0.92
393.369	0.27
393.578	-0.35
393.787	-2.02
393.997	-0.09
394.206	-1.52
394.415	-1.36
394.625	-2.88
394.834	-3.58
395.043	-2.77
395.252	-0.69
395.462	0.77
395.671	2.58
395.88	3.09
396.089	3.4
396.298	1.29
396.508	0.82
396.717	0.18
396.926	0.98
397.135	0.39
397.344	1.12
397.553	1.49
397.762	2.45
397.971	2.23
398.181	2.93
398.39	2.68
398.599	2.15
398.808	1.76
399.017	2
399.226	2.5
399.435	3.85
399.644	4.27
399.853	3.47
400.062	3.15
400.27	2.9
400.479	2.09
400.688	1.29
400.897	1.76
401.106	1.88
401.315	1.71
401.524	1.74
401.733	2.61
401.941	2.67
402.15	2.61
402.359	2.5
402.568	2.84
402.777	2.65
402.985	2.44
403.194	2.32
403.403	2.24
403.612	1.75
403.82	1.43
404.029	1.6
404.238	1.57
404.446	1.8
404.655	1.74
404.864	1.84
405.072	1.71
405.281	1.94
405.489	1.63
405.698	1.66
405.906	1.68
406.115	1.67
406.324	1.57
406.532	1.8
406.741	2.08
406.949	2
407.158	2.02
407.366	1.96
407.574	1.8
407.783	1.79
407.991	1.76
408.2	1.9
408.408	1.88
408.617	1.93
408.825	1.7
409.033	1.78
409.242	1.71
409.45	1.77
409.658	1.65
409.867	1.81
410.075	1.73
410.283	1.57
410.491	1.53
410.7	1.52
410.908	1.53
411.116	1.72
411.324	1.78
411.533	1.79
411.741	1.98
411.949	1.91
412.157	1.65
412.365	1.65
412.573	1.66
412.781	1.66
412.99	1.61
413.198	1.79
413.406	1.83
413.614	1.88
413.822	1.77
414.03	1.71
414.238	1.55
414.446	1.69
414.654	1.45
414.862	1.51
415.07	1.67
415.278	1.9
415.486	1.67
415.694	1.91
415.902	1.87
416.109	1.82
416.317	1.72
416.525	1.6
416.733	1.49
416.941	1.58
417.149	1.46
417.357	1.47
417.564	1.74
417.772	1.93
417.98	1.79
418.188	1.79
418.395	1.86
418.603	1.89
418.811	1.54
419.019	1.58
419.226	1.79
419.434	1.82
419.642	1.61
419.849	1.81
420.057	1.79
420.265	1.71
420.472	1.53
420.68	1.56
420.887	1.39
421.095	1.34
421.302	1.35
421.51	1.53
421.717	1.72
421.925	1.9
422.132	1.77
422.34	1.47
422.547	1.49
422.755	1.24
422.962	1.13
423.17	1.17
423.377	1.43
423.585	1.36
423.792	1.37
423.999	1.35
424.207	1.52
424.414	1.47
424.621	1.42
424.829	1.52
425.036	1.6
425.243	1.58
425.451	1.46
425.658	1.3
425.865	1.28
426.072	1.26
426.28	1.35
426.487	1.39
426.694	1.59
426.901	1.52
427.108	1.57
427.315	1.44
427.523	1.68
427.73	1.63
427.937	1.61
428.144	1.43
428.351	1.45
428.558	1.48
428.765	1.36
428.972	1.26
429.179	1.52
429.386	1.76
429.593	1.53
429.8	1.41
430.007	1.59
430.214	1.57
430.421	1.22
430.628	1.11
430.835	1.13
431.042	1.23
431.249	1.22
431.456	1.3
431.662	1.44
431.869	1.64
432.076	1.54
432.283	1.48
432.49	1.5
432.697	1.52
432.903	1.31
433.11	1.3
433.317	1.39
433.524	1.64
433.73	1.49
433.937	1.81
434.144	1.72
434.35	1.67
434.557	1.4
434.764	1.53
434.97	1.39
435.177	1.56
435.384	1.46
435.59	1.55
435.797	1.68
436.003	1.69
436.21	1.6
436.416	1.81
436.623	1.81
436.829	1.86
437.036	1.96
437.242	1.97
437.449	1.73
437.655	1.73
437.862	1.63
438.068	1.58
438.275	1.68
438.481	1.96
438.687	2.01
438.894	2.04
439.1	2.04
439.307	2.14
439.513	1.97
439.719	1.94
439.926	1.94
440.132	1.85
440.338	1.74
440.544	1.86
440.751	1.82
440.957	1.88
441.163	1.9
441.369	1.91
441.575	1.71
441.782	1.64
441.988	1.49
442.194	1.5
442.4	1.51
442.606	1.79
442.812	1.94
443.018	2.05
443.224	2.18
443.431	2.26
443.637	2
443.843	1.92
444.049	1.95
444.255	1.79
444.461	1.79
444.667	1.85
444.873	1.91
445.079	1.9
445.284	2.02
445.49	1.82
445.696	1.72
445.902	1.68
446.108	1.6
446.314	1.53
446.52	1.64
446.726	1.86
446.931	1.87
447.137	1.91
447.343	2.04
447.549	1.98
447.755	1.83
447.96	1.91
448.166	1.86
448.372	1.68
448.578	1.71
448.783	1.72
448.989	1.76
449.195	1.88
449.4	1.93
449.606	1.9
449.812	1.84
450.017	1.84
450.223	1.75
450.428	1.7
450.634	1.79
450.84	2
451.045	1.9
451.251	1.83
451.456	2.06
451.662	2.09
451.867	2.03
452.073	2.02
452.278	2.2
452.483	2.23
452.689	2.16
452.894	2.15
453.1	2.18
453.305	2.06
453.51	1.95
453.716	1.83
453.921	1.89
454.127	1.77
454.332	1.69
454.537	1.64
454.742	1.75
454.948	1.63
455.153	1.75
455.358	1.96
455.563	2.04
455.769	2.15
455.974	2.16
456.179	2.07
456.384	1.99
456.589	2.04
456.795	1.79
457	1.82
457.205	2
457.41	1.96
457.615	1.84
457.82	1.98
458.025	1.97
458.23	1.86
458.435	1.91
458.64	1.9
458.845	2.01
459.05	1.98
459.255	1.98
459.46	1.99
459.665	2.02
459.87	2
460.075	2
460.28	2.02
460.485	2.04
460.69	2.04
460.895	1.87
461.099	1.8
461.304	1.9
461.509	1.92
461.714	1.89
461.919	2.05
462.123	2.07
462.328	2.07
462.533	1.99
462.738	2.05
462.942	2.04
463.147	2.09
463.352	2.11
463.556	2.12
463.761	2.17
463.966	2.14
464.17	2.15
464.375	2.04
464.58	2.02
464.784	1.92
464.989	1.88
465.193	1.88
465.398	1.88
465.602	2.04
465.807	2.04
466.011	2.11
466.216	2.14
466.42	2.27
466.625	2.31
466.829	2.44
467.034	2.43
467.238	2.57
467.443	2.51
467.647	2.35
467.851	2.32
468.056	2.33
468.26	2.2
468.464	2.22
468.669	2.34
468.873	2.45
469.077	2.46
469.282	2.5
469.486	2.55
469.69	2.54
469.894	2.36
470.099	2.4
470.303	2.54
470.507	2.47
470.711	2.31
470.915	2.41
471.119	2.34
471.324	2.17
471.528	2.19
471.732	2.33
471.936	2.26
472.14	2.32
472.344	2.33
472.548	2.31
472.752	2.4
472.956	2.53
473.16	2.54
473.364	2.54
473.568	2.55
473.772	2.55
473.976	2.49
474.18	2.48
474.384	2.54
474.588	2.5
474.792	2.38
474.995	2.46
475.199	2.5
475.403	2.54
475.607	2.59
475.811	2.63
476.015	2.64
476.218	2.7
476.422	2.62
476.626	2.71
476.83	2.77
477.033	2.67
477.237	2.5
477.441	2.57
477.644	2.51
477.848	2.56
478.052	2.53
478.255	2.66
478.459	2.67
478.663	2.84
478.866	2.84
479.07	2.9
479.273	3.04
479.477	3.05
479.681	2.89
479.884	2.81
480.088	2.8
480.291	2.69
480.495	2.71
480.698	2.78
480.901	2.82
481.105	2.95
481.308	2.92
481.512	2.88
481.715	2.91
481.919	2.95
482.122	2.82
482.325	2.86
482.529	2.92
482.732	2.9
482.935	2.79
483.138	2.8
483.342	2.82
483.545	2.86
483.748	2.86
483.952	2.96
484.155	3.12
484.358	3.12
484.561	3.08
484.764	3.04
484.967	3.1
485.171	3.06
485.374	3.08
485.577	3.14
485.78	3.24
485.983	3.2
486.186	3.12
486.389	3.1
486.592	3.08
486.795	3.06
486.998	3
487.201	3.08
487.404	3.12
487.607	3.12
487.81	3.15
488.013	3.2
488.216	3.22
488.419	3.22
488.622	3.16
488.825	3.07
489.028	3.1
489.231	3.03
489.433	2.93
489.636	2.94
489.839	2.95
490.042	2.88
490.245	2.88
490.447	2.99
490.65	2.95
490.853	2.99
491.056	3.05
491.258	3.09
491.461	3.08
491.664	3.18
491.866	3.13
492.069	3.21
492.272	3.13
492.474	3.19
492.677	3.19
492.879	3.22
493.082	3.21
493.285	3.37
493.487	3.3
493.69	3.24
493.892	3.21
494.095	3.19
494.297	3.14
494.5	3.22
494.702	3.23
494.905	3.27
495.107	3.24
495.309	3.22
495.512	3.25
495.714	3.32
495.917	3.36
496.119	3.33
496.321	3.43
496.524	3.43
496.726	3.45
496.928	3.46
497.13	3.5
497.333	3.43
497.535	3.42
497.737	3.4
497.939	3.37
498.142	3.37
498.344	3.37
498.546	3.29
498.748	3.37
498.95	3.46
499.152	3.51
499.355	3.56
499.557	3.66
499.759	3.69
499.961	3.65
500.163	3.61
500.365	3.61
500.567	3.66
500.769	3.56
500.971	3.61
501.173	3.59
501.375	3.61
501.577	3.49
501.779	3.53
501.981	3.53
502.183	3.58
502.385	3.54
502.587	3.56
502.788	3.59
502.99	3.6
503.192	3.62
503.394	3.66
503.596	3.73
503.798	3.81
503.999	3.85
504.201	3.85
504.403	3.85
504.605	3.83
504.806	3.76
505.008	3.74
505.21	3.83
505.411	3.82
505.613	3.85
505.815	3.87
506.016	3.9
506.218	3.92
506.42	3.97
506.621	3.98
506.823	4.06
507.024	4.02
507.226	4.01
507.427	4.01
507.629	4.02
507.83	4.03
508.032	4.06
508.233	4.14
508.435	4.2
508.636	4.31
508.838	4.24
509.039	4.29
509.24	4.27
509.442	4.29
509.643	4.17
509.845	4.23
510.046	4.27
510.247	4.31
510.448	4.31
510.65	4.41
510.851	4.47
511.052	4.48
511.254	4.44
511.455	4.5
511.656	4.55
511.857	4.59
512.058	4.58
512.26	4.59
512.461	4.56
512.662	4.57
512.863	4.5
513.064	4.5
513.265	4.52
513.466	4.54
513.667	4.53
513.868	4.53
514.069	4.59
514.27	4.64
514.471	4.65
514.672	4.65
514.873	4.72
515.074	4.76
515.275	4.66
515.476	4.63
515.677	4.68
515.878	4.74
516.079	4.69
516.28	4.76
516.481	4.87
516.682	4.85
516.882	4.74
517.083	4.73
517.284	4.67
517.485	4.63
517.686	4.62
517.886	4.68
518.087	4.78
518.288	4.89
518.488	4.93
518.689	5
518.89	5
519.091	5.01
519.291	4.95
519.492	4.97
519.692	4.96
519.893	5.05
520.094	5.05
520.294	5.08
520.495	5.02
520.695	5.08
520.896	5.02
521.096	4.99
521.297	5.02
521.497	5.04
521.698	4.95
521.898	5
522.099	5.02
522.299	5.11
522.499	5.11
522.7	5.18
522.9	5.16
523.101	5.23
523.301	5.22
523.501	5.23
523.702	5.24
523.902	5.28
524.102	5.3
524.302	5.3
524.503	5.39
524.703	5.41
524.903	5.41
525.103	5.33
525.304	5.39
525.504	5.39
525.704	5.46
525.904	5.47
526.104	5.5
526.304	5.5
526.504	5.54
526.705	5.5
526.905	5.54
527.105	5.53
527.305	5.48
527.505	5.38
527.705	5.39
527.905	5.41
528.105	5.42
528.305	5.42
528.505	5.5
528.705	5.53
528.905	5.47
529.105	5.52
529.304	5.62
529.504	5.69
529.704	5.68
529.904	5.75
530.104	5.74
530.304	5.74
530.503	5.67
530.703	5.6
530.903	5.59
531.103	5.62
531.303	5.56
531.502	5.63
531.702	5.76
531.902	5.81
532.101	5.84
532.301	5.9
532.501	5.9
532.7	5.89
532.9	5.88
533.1	5.9
533.299	5.91
533.499	5.96
533.698	5.92
533.898	5.95
534.097	5.99
534.297	6.05
534.496	6.05
534.696	6.18
534.895	6.23
535.095	6.28
535.294	6.24
535.494	6.18
535.693	6.18
535.892	6.2
536.092	6.17
536.291	6.21
536.491	6.35
536.69	6.32
536.889	6.24
537.088	6.24
537.288	6.27
537.487	6.27
537.686	6.31
537.886	6.43
538.085	6.47
538.284	6.56
538.483	6.53
538.682	6.56
538.882	6.56
539.081	6.6
539.28	6.53
539.479	6.6
539.678	6.58
539.877	6.68
540.076	6.73
540.275	6.8
540.474	6.84
540.673	6.91
540.872	6.88
541.071	6.9
541.27	6.96
541.469	7.01
541.668	7.05
541.867	7.1
542.066	7.12
542.265	7.15
542.464	7.1
542.663	7.15
542.862	7.26
543.06	7.3
543.259	7.35
543.458	7.38
543.657	7.39
543.856	7.4
544.054	7.37
544.253	7.34
544.452	7.39
544.651	7.51
544.849	7.48
545.048	7.6
545.247	7.69
545.445	7.74
545.644	7.72
545.843	7.69
546.041	7.72
546.24	7.83
546.438	7.93
546.637	8
546.836	8.19
547.034	8.26
547.233	8.25
547.431	8.24
547.63	8.27
547.828	8.29
548.027	8.34
548.225	8.37
548.423	8.41
548.622	8.54
548.82	8.6
549.019	8.63
549.217	8.81
549.415	8.89
549.614	8.91
549.812	8.89
550.01	8.91
550.209	8.87
550.407	8.97
550.605	9
550.803	9.16
551.002	9.27
551.2	9.36
551.398	9.42
551.596	9.53
551.794	9.56
551.993	9.63
552.191	9.69
552.389	9.77
552.587	9.85
552.785	9.93
552.983	9.94
553.181	10.05
553.379	10.1
553.577	10.15
553.775	10.25
553.973	10.38
554.171	10.5
554.369	10.54
554.567	10.59
554.765	10.59
554.963	10.7
555.161	10.67
555.359	10.79
555.557	10.94
555.755	11.07
555.952	11.17
556.15	11.25
556.348	11.31
556.546	11.34
556.744	11.4
556.941	11.41
557.139	11.53
557.337	11.59
557.535	11.65
557.732	11.79
557.93	11.93
558.128	11.99
558.325	12.11
558.523	12.18
558.721	12.27
558.918	12.29
559.116	12.37
559.313	12.42
559.511	12.57
559.708	12.64
559.906	12.73
560.104	12.83
560.301	12.96
560.498	13.04
560.696	13.07
560.893	13.19
561.091	13.28
561.288	13.39
561.486	13.42
561.683	13.55
561.88	13.68
562.078	13.79
562.275	13.86
562.473	13.99
562.67	14.06
562.867	14.14
563.064	14.26
563.262	14.33
563.459	14.42
563.656	14.62
563.853	14.65
564.051	14.76
564.248	14.96
564.445	15.09
564.642	15.12
564.839	15.33
565.036	15.48
565.234	15.55
565.431	15.7
565.628	15.86
565.825	15.9
566.022	15.92
566.219	15.94
566.416	15.97
566.613	15.95
566.81	16.07
567.007	16.17
567.204	16.2
567.401	16.23
567.598	16.31
567.795	16.3
567.991	16.31
568.188	16.46
568.385	16.54
568.582	16.64
568.779	16.81
568.976	16.87
569.172	16.97
569.369	16.95
569.566	17.05
569.763	17.08
569.96	17.11
570.156	17.12
570.353	17.22
570.55	17.28
570.746	17.29
570.943	17.37
571.14	17.44
571.336	17.57
571.533	17.57
571.729	17.56
571.926	17.63
572.123	17.64
572.319	17.6
572.516	17.62
572.712	17.74
572.909	17.72
573.105	17.84
573.302	17.98
573.498	18.07
573.695	17.99
573.891	18.09
574.087	18.01
574.284	17.96
574.48	17.85
574.677	17.91
574.873	17.88
575.069	17.94
575.266	18.02
575.462	18.05
575.658	18.16
575.854	18.25
576.051	18.21
576.247	18.08
576.443	18.14
576.639	18.11
576.835	18.03
577.032	18.04
577.228	18.21
577.424	18.21
577.62	18.17
577.816	18.19
578.012	18.22
578.208	18.09
578.404	18.09
578.6	18.12
578.796	18.16
578.993	18.17
579.189	18.19
579.384	18.11
579.58	18.03
579.776	17.98
579.972	17.92
580.168	17.96
580.364	17.97
580.56	17.99
580.756	17.98
580.952	17.95
581.148	17.88
581.343	17.88
581.539	17.95
581.735	17.94
581.931	18.01
582.127	18.1
582.322	18.12
582.518	18.14
582.714	18.1
582.909	18.05
583.105	17.98
583.301	17.98
583.496	17.94
583.692	17.97
583.888	17.91
584.083	17.91
584.279	17.88
584.474	17.86
584.67	17.86
584.866	17.93
585.061	17.78
585.257	17.81
585.452	17.73
585.648	17.76
585.843	17.69
586.039	17.74
586.234	17.72
586.429	17.71
586.625	17.7
586.82	17.67
587.015	17.7
587.211	17.6
587.406	17.64
587.601	17.55
587.797	17.47
587.992	17.41
588.187	17.55
588.383	17.49
588.578	17.48
588.773	17.54
588.968	17.62
589.163	17.69
589.359	17.7
589.554	17.8
589.749	17.84
589.944	17.84
590.139	17.74
590.334	17.77
590.529	17.78
590.724	17.79
590.919	17.88
591.114	17.91
591.309	18.02
591.504	18.06
591.699	18.05
591.894	18.11
592.089	18.13
592.284	18.13
592.479	18.17
592.674	18.19
592.869	18.14
593.064	18.2
593.259	18.23
593.454	18.35
593.648	18.49
593.843	18.58
594.038	18.65
594.233	18.71
594.428	18.65
594.622	18.66
594.817	18.75
595.012	18.82
595.206	18.83
595.401	18.88
595.596	18.95
595.79	19.03
595.985	19.14
596.18	19.27
596.374	19.43
596.569	19.5
596.763	19.54
596.958	19.54
597.153	19.59
597.347	19.57
597.542	19.66
597.736	19.69
597.931	19.82
598.125	19.81
598.319	19.94
598.514	19.92
598.708	19.98
598.903	19.96
599.097	20.02
599.291	20.07
599.486	20.15
599.68	20.15
599.874	20.28
600.069	20.31
600.263	20.32
600.457	20.43
600.651	20.49
600.846	20.5
601.04	20.57
601.234	20.58
601.428	20.63
601.622	20.7
601.817	20.64
602.011	20.74
602.205	20.74
602.399	20.68
602.593	20.7
602.787	20.83
602.981	20.79
603.175	20.88
603.369	20.85
603.563	20.83
603.757	20.85
603.951	20.9
604.145	20.87
604.339	20.96
604.533	20.83
604.727	20.72
604.921	20.68
605.115	20.72
605.309	20.75
605.502	20.92
605.696	20.89
605.89	20.8
606.084	20.73
606.278	20.58
606.471	20.5
606.665	20.44
606.859	20.39
607.053	20.38
607.246	20.38
607.44	20.28
607.634	20.2
607.827	20.26
608.021	20.06
608.214	20.02
608.408	19.99
608.602	19.97
608.795	19.83
608.989	19.87
609.182	19.77
609.376	19.76
609.569	19.68
609.763	19.57
609.956	19.49
610.15	19.42
610.343	19.35
610.537	19.31
610.73	19.27
610.923	19.28
611.117	19.23
611.31	19.13
611.504	19.08
611.697	19.03
611.89	18.86
612.083	18.68
612.277	18.62
612.47	18.51
612.663	18.37
612.856	18.33
613.05	18.32
613.243	18.16
613.436	18.03
613.629	18.03
613.822	17.94
614.015	17.8
614.209	17.69
614.402	17.69
614.595	17.63
614.788	17.64
614.981	17.61
615.174	17.55
615.367	17.48
615.56	17.36
615.753	17.22
615.946	17.13
616.139	17.14
616.332	17.18
616.525	17.18
616.718	17.17
616.911	17.21
617.103	17.19
617.296	17.1
617.489	17.01
617.682	16.95
617.875	16.87
618.067	16.73
618.26	16.61
618.453	16.62
618.646	16.61
618.838	16.64
619.031	16.81
619.224	16.83
619.417	16.85
619.609	16.83
619.802	16.72
619.994	16.59
620.187	16.59
620.38	16.38
620.572	16.29
620.765	16.23
620.957	16.14
621.15	16.02
621.342	16.01
621.535	16.11
621.727	16.08
621.92	15.98
622.112	15.9
622.305	16.03
622.497	15.84
622.69	15.87
622.882	15.95
623.074	16.08
623.267	15.97
623.459	15.93
623.651	15.86
623.844	15.8
624.036	15.71
624.228	15.59
624.42	15.66
624.613	15.8
624.805	15.79
624.997	15.77
625.189	15.75
625.381	15.73
625.574	15.55
625.766	15.51
625.958	15.48
626.15	15.59
626.342	15.58
626.534	15.55
626.726	15.53
626.918	15.58
627.11	15.49
627.302	15.42
627.494	15.41
627.686	15.41
627.878	15.24
628.07	15.21
628.262	15.2
628.454	15.17
628.646	15.14
628.838	15.25
629.029	15.18
629.221	15.24
629.413	15.12
629.605	15.06
629.797	14.95
629.989	15
630.18	14.85
630.372	14.83
630.564	14.78
630.755	14.81
630.947	14.8
631.139	14.71
631.33	14.62
631.522	14.73
631.714	14.68
631.905	14.62
632.097	14.63
632.289	14.75
632.48	14.66
632.672	14.58
632.863	14.47
633.055	14.46
633.246	14.37
633.438	14.27
633.629	14.21
633.821	14.3
634.012	14.27
634.203	14.2
634.395	14.2
634.586	14.23
634.777	14.12
634.969	14.12
635.16	14.22
635.351	14.19
635.543	14.15
635.734	14.2
635.925	14.22
636.117	14.23
636.308	14.2
636.499	14.14
636.69	14.06
636.881	13.97
637.073	13.93
637.264	13.86
637.455	13.9
637.646	13.94
637.837	13.95
638.028	13.89
638.219	14.02
638.41	13.98
638.601	13.94
638.792	13.92
638.983	13.82
639.174	13.68
639.365	13.72
639.556	13.7
639.747	13.67
639.938	13.76
640.129	13.73
640.32	13.64
640.511	13.68
640.701	13.85
640.892	13.78
641.083	13.85
641.274	13.82
641.465	13.75
641.655	13.55
641.846	13.55
642.037	13.42
642.228	13.35
642.418	13.28
642.609	13.26
642.8	13.17
642.99	13.12
643.181	13.15
643.372	13.17
643.562	13.11
643.753	13.1
643.943	13.03
644.134	12.96
644.324	12.89
644.515	12.88
644.705	12.98
644.896	13.04
645.086	13.06
645.277	13.01
645.467	13
645.658	12.87
645.848	12.88
646.038	12.86
646.229	12.82
646.419	12.81
646.61	12.78
646.8	12.72
646.99	12.7
647.18	12.64
647.371	12.55
647.561	12.5
647.751	12.55
647.941	12.49
648.132	12.54
648.322	12.53
648.512	12.65
648.702	12.55
648.892	12.52
649.082	12.48
649.272	12.39
649.462	12.21
649.653	12.14
649.843	12.1
650.033	12.13
650.223	12.22
650.413	12.21
650.603	12.3
650.793	12.31
650.983	12.27
651.172	12.16
651.362	12.09
651.552	11.99
651.742	11.92
651.932	11.85
652.122	11.85
652.312	11.93
652.502	11.9
652.691	11.84
652.881	11.79
653.071	11.73
653.261	11.54
653.45	11.39
653.64	11.48
653.83	11.4
654.019	11.33
654.209	11.22
654.399	11.22
654.588	11.02
654.778	10.93
654.968	10.81
655.157	10.78
655.347	10.72
655.536	10.57
655.726	10.47
655.915	10.34
656.105	10.27
656.294	10.19
656.484	10.08
656.673	10.01
656.863	9.97
657.052	9.76
657.241	9.52
657.431	9.37
657.62	9.22
657.809	8.93
657.999	8.82
658.188	8.74
658.377	8.59
658.567	8.55
658.756	8.4
658.945	8.28
659.134	8.18
659.324	8.03
659.513	7.81
659.702	7.79
659.891	7.68
660.08	7.56
660.269	7.56
660.458	7.41
660.648	7.3
660.837	7.18
661.026	7.08
661.215	6.9
661.404	6.82
661.593	6.76
661.782	6.53
661.971	6.43
662.16	6.33
662.349	6.23
662.538	6.03
662.726	6.1
662.915	5.95
663.104	5.84
663.293	5.81
663.482	5.9
663.671	5.76
663.86	5.63
664.048	5.64
664.237	5.62
664.426	5.35
664.615	5.34
664.803	5.33
664.992	5.18
665.181	4.98
665.369	4.91
665.558	4.85
665.747	4.76
665.935	4.8
666.124	4.9
666.312	4.91
666.501	4.92
666.69	4.88
666.878	4.85
667.067	4.71
667.255	4.87
667.444	5.01
667.632	5.12
667.82	5.23
668.009	5.2
668.197	5.06
668.386	4.99
668.574	5.07
668.762	4.91
668.951	4.91
669.139	4.9
669.327	4.69
669.516	4.63
669.704	4.68
669.892	4.84
670.08	4.88
670.269	4.92
670.457	4.83
670.645	4.69
670.833	4.69
671.021	4.68
671.21	4.73
671.398	4.93
671.586	5.07
671.774	4.94
671.962	4.93
672.15	5.02
672.338	4.9
672.526	4.9
672.714	4.9
672.902	4.94
673.09	5.01
673.278	5.24
673.466	5.28
673.654	5.5
673.842	5.54
674.03	5.54
674.218	5.36
674.405	5.43
674.593	5.45
674.781	5.55
674.969	5.57
675.157	5.71
675.344	5.8
675.532	5.75
675.72	5.82
675.908	5.92
676.095	5.88
676.283	5.91
676.471	6.15
676.658	6.16
676.846	6.27
677.033	6.4
677.221	6.42
677.409	6.22
677.596	6.3
677.784	6.21
677.971	6.26
678.159	6.35
678.346	6.57
678.534	6.67
678.721	6.88
678.909	6.93
679.096	6.95
679.283	7.14
679.471	7.28
679.658	7.23
679.846	7.41
680.033	7.72
680.22	7.77
680.408	7.69
680.595	7.92
680.782	7.86
680.969	7.8
681.157	7.76
681.344	7.89
681.531	7.88
681.718	8.13
681.905	8.32
682.093	8.61
682.28	8.88
682.467	9.2
682.654	9.29
682.841	9.41
683.028	9.6
683.215	9.69
683.402	9.54
683.589	9.71
683.776	9.81
683.963	9.74
684.15	9.89
684.337	10.26
684.524	10.36
684.711	10.61
684.898	10.82
685.085	11.03
685.271	11.29
685.458	11.4
685.645	11.55
685.832	11.89
686.019	12.07
686.205	12.18
686.392	12.56
686.579	12.81
686.766	13.12
686.952	13.46
687.139	14
687.326	14.23
687.512	14.61
687.699	14.82
687.886	15.11
688.072	15.25
688.259	15.78
688.445	16.28
688.632	16.6
688.818	17.23
689.005	17.75
689.191	18.05
689.378	18.55
689.564	19.15
689.751	19.45
689.937	19.83
690.124	20.36
690.31	20.74
690.496	21.22
690.683	21.89
690.869	22.33
691.055	22.97
691.242	23.84
691.428	24.4
691.614	24.9
691.8	25.73
691.987	26.31
692.173	26.83
692.359	27.58
692.545	28.27
692.731	28.91
692.918	29.78
693.104	30.29
693.29	31.21
693.476	32.11
693.662	32.68
693.848	33.21
694.034	33.85
694.22	34.2
694.406	34.71
694.592	35.8
694.778	36.42
694.964	37.3
695.15	37.96
695.336	38.81
695.522	39.44
695.708	40.17
695.894	40.89
696.08	41.78
696.265	42.46
696.451	43.2
696.637	44.11
696.823	44.96
697.009	45.48
697.194	46.06
697.38	46.57
697.566	47.05
697.751	47.75
697.937	48.73
698.123	49.55
698.308	50.45
698.494	51.31
698.68	51.69
698.865	52.31
699.051	53.02
699.236	53.34
699.422	53.88
699.607	54.49
699.793	55.09
699.978	55.55
700.164	56.33
700.349	57.05
700.535	57.74
700.72	58.16
700.906	58.95
701.091	59.47
701.276	59.82
701.462	60.65
701.647	61.6
701.832	61.9
702.018	62.24
702.203	62.71
702.388	62.85
702.573	62.99
702.759	63.77
702.944	64.31
703.129	64.74
703.314	65.19
703.499	65.62
703.684	65.56
703.87	66.75
704.055	67.7
704.24	68.01
704.425	68.66
704.61	69.4
704.795	69.2
704.98	69.18
705.165	69.66
705.35	69.98
705.535	70.23
705.72	70.75
705.905	71.46
706.09	71.82
706.275	72.05
706.459	72.31
706.644	72.6
706.829	72.67
707.014	73.05
707.199	73.44
707.384	73.75
707.568	73.78
707.753	74.28
707.938	74.47
708.123	74.46
708.307	74.46
708.492	74.61
708.677	74.93
708.861	75.15
709.046	75.4
709.231	76.38
709.415	76.98
709.6	76.83
709.784	77.01
709.969	77.34
710.153	76.8
710.338	76.91
710.522	77.45
710.707	78.11
710.891	78.21
711.076	78.61
711.26	78.67
711.445	78.7
711.629	78.48
711.813	79.06
711.998	79.7
712.182	79.74
712.366	80.09
712.551	80.88
712.735	80.82
712.919	80.72
713.103	81.38
713.288	81.02
713.472	80.76
713.656	81.69
713.84	81.77
714.024	81.57
714.208	81.64
714.393	82.07
714.577	81.84
714.761	82.27
714.945	82.75
715.129	83.26
715.313	83.43
715.497	83.32
715.681	83.64
715.865	83.18
716.049	83.36
716.233	83.15
716.417	83.4
716.601	83.21
716.785	83.71
716.968	83.79
717.152	83.92
717.336	83.72
717.52	83.33
717.704	83.44
717.888	83.72
718.071	83.82
718.255	84.02
718.439	84.29
718.622	84.32
718.806	84.37
718.99	84.23
719.174	84.39
719.357	84.54
719.541	84.92
719.724	85.03
719.908	85.91
720.092	86.08
720.275	86.33
720.459	86.21
720.642	85.91
720.826	85.45
721.009	85.17
721.193	85.07
721.376	85.39
721.559	85.64
721.743	85.93
721.926	86.68
722.11	87.23
722.293	86.22
722.476	86.19
722.66	86.03
722.843	86.04
723.026	86.2
723.21	87.14
723.393	87.96
723.576	88.02
723.759	87.27
723.942	86.85
724.126	86.94
724.309	86.73
724.492	86.87
724.675	86.84
724.858	87.2
725.041	87.18
725.224	87.55
725.407	87.96
725.59	88.97
725.774	89.15
725.957	88.73
726.14	88.26
726.322	88.54
726.505	87.93
726.688	88.32
726.871	88.71
727.054	88.91
727.237	88.53
727.42	88.97
727.603	88.49
727.786	88.82
727.968	89.35
728.151	89.66
728.334	89.93
728.517	90.42
728.699	90.62
728.882	90.08
729.065	89.81
729.248	89.75
729.43	90.04
729.613	90.64
729.796	91.35
729.978	91
730.161	91.03
730.343	91.03
730.526	91.68
730.708	91.35
730.891	92.53
731.073	92.71
731.256	92.18
731.438	91.56
731.621	92.17
731.803	91.92
731.986	91.71
732.168	91.13
732.35	90.97
732.533	90.92
732.715	90.54
732.898	90.83
733.08	91.91
733.262	91.99
733.444	91.57
733.627	92.13
733.809	92.38
733.991	92.69
734.173	93.07
734.355	92.81
734.538	92.8
734.72	92.7
734.902	92.36
735.084	92.47
735.266	92.92
735.448	93.03
735.63	92.77
735.812	92.95
735.994	93.51
736.176	93.85
736.358	93.25
736.54	94.16
736.722	94.08
736.904	93.32
737.086	92.69
737.268	94.21
737.45	94.21
737.632	94.84
737.814	94.2
737.995	94.7
738.177	93.81
738.359	93.54
738.541	93.57
738.723	94.2
738.904	94.92
739.086	94.87
739.268	94.44
739.449	94.27
739.631	93.85
739.813	93.53
739.994	94.57
740.176	95.66
740.358	95.4
740.539	96.44
740.721	96.8
740.902	96.93
741.084	96.06
741.265	95.69
741.447	95.96
741.628	95.95
741.81	94.61
741.991	95.14
742.172	96.29
742.354	96.04
742.535	95.69
742.717	96.1
742.898	95.87
743.079	95.86
743.261	96.24
743.442	95.54
743.623	95.88
743.804	96.78
743.986	97.14
744.167	95
744.348	95.92
744.529	96.67
744.71	95.05
744.891	93.81
745.073	93.9
745.254	93.04
745.435	92.19
745.616	91.67
745.797	91.53
745.978	92.58
746.159	93.55
746.34	92.48
746.521	94.49
746.702	93.93
746.883	94.05
747.064	94.22
747.245	95.32
747.426	94.54
747.606	95.86
747.787	95.77
747.968	95.09
748.149	95.16
748.33	96.2
748.51	95.3
748.691	94.05
748.872	94.47
749.053	93.19
749.233	91.84
749.414	91.51
749.595	92.16
749.775	90.61
749.956	90.98
750.137	92.14
750.317	94
750.498	96.16
750.678	97.3
750.859	98.36
751.04	96.87
751.22	94.6
751.4	92.04
751.581	89.96
751.761	88.74
751.942	89.66
752.122	90.03
752.303	89.76
752.483	91.64
752.663	92.23
752.844	90.43
753.024	92.02
753.204	93.25
753.385	92.23
753.565	93.14
753.745	94.8
753.925	93.2
754.106	92.03
754.286	92.28
754.466	91.7
754.646	92.19
754.826	92.36
755.006	92.45
755.187	93.03
755.367	92.61
755.547	91.66
755.727	92.85
755.907	94.1
756.087	93.75
756.267	92.96
756.447	92.58
756.627	90.52
756.807	90.56
756.987	90.64
757.167	91.01
757.346	90.94
757.526	90.79
757.706	90.33
757.886	91.2
758.066	92.71
758.246	93.47
758.425	94.24
758.605	93.75
758.785	93.49
758.965	92.93
759.144	91.05
759.324	90.77
759.504	91.21
759.683	90.02
759.863	89.33
760.043	89.65
760.222	90.62
760.402	90.19
760.581	89.19
760.761	89.79
760.94	89.26
761.12	91.3
761.299	92.39
761.479	93.12
761.658	91.75
761.838	92.77
762.017	90.96
762.197	90.98
762.376	91.34
762.555	91.91
762.735	92.18
762.914	91.06
763.093	90.07
763.273	89.79
763.452	89.44
763.631	88.59
763.81	88.34
763.99	88.31
764.169	88.54
764.348	86.89
764.527	87.04
764.706	88.77
764.885	88.61
765.064	86.86
765.243	87.92
765.423	89.05
765.602	87.69
765.781	86.54
765.96	86.73
766.139	86.07
766.318	85.81
766.497	85.5
766.676	86.34
766.854	87.95
767.033	88.49
767.212	87.18
767.391	89.01
767.57	88.98
767.749	88.48
767.928	90.25
768.106	89.75
768.285	86.32
768.464	86.42
768.643	85.27
768.821	83.63
769	86.19
769.179	85.89
769.357	84.87
769.536	86.18
769.715	86.61
769.893	86.52
770.072	87.14
770.25	87.48
770.429	87.24
770.607	85.94
770.786	83.24
770.964	85.92
771.143	85.43
771.321	86.57
771.5	88.05
771.678	89.26
771.857	86.96
772.035	87.64
772.213	86.97
772.392	85.7
772.57	86.51
772.748	87.99
772.927	87.02
773.105	85.4
773.283	87.25
773.461	86.46
773.64	86.74
773.818	87.5
773.996	89.69
774.174	87.39
774.352	86.87
774.531	82.84
774.709	84.4
774.887	82.38
775.065	83.38
775.243	84.02
775.421	86.57
775.599	87.36
775.777	84.9
775.955	81.57
776.133	79.65
776.311	78.72
776.489	75.18
776.667	77.56
776.844	80.62
777.022	81.22
777.2	82.46
777.378	83.54
777.556	84.98
777.734	86.16
777.911	88.53
778.089	88.53
778.267	88.12
778.445	84.86
778.622	83.12
778.8	81.95
778.978	83.32
779.155	82.52
779.333	81.85
779.511	82.54
779.688	82.75
779.866	77.77
780.043	76.5
780.221	80.5
780.398	77.13
780.576	79.87
780.753	81.78
780.931	82.34
781.108	79.88
781.286	83.36
781.463	76.07
781.64	73.05
781.818	75.71
781.995	77.98
782.172	77.33
782.35	80.58
782.527	83.99
782.704	81.14
782.882	81.2
783.059	78.74
783.236	78.74
783.413	80.01
783.59	79.76
783.768	75.85
783.945	80.03
784.122	81.04
784.299	80.33
784.476	79.57
784.653	80.56
784.83	75.71
785.007	73.57
785.184	72.56
785.361	72.71
785.538	77.34
785.715	81.78
785.892	82.62
786.069	85.24
786.246	87.47
786.423	83.85
786.6	81.19
786.776	80.05
786.953	76.33
787.13	78.6
787.307	78.49
787.484	78.15
787.66	78.08
787.837	76.9
788.014	71.18
788.191	72.33
788.367	72.01
788.544	74.56
788.721	77.13
788.897	81.45
789.074	83.34
789.25	81.47
789.427	81.97
789.603	82.04
789.78	78.84
789.956	75.35
790.133	75.73
790.309	74.63
790.486	78.06
790.662	77.44
790.839	77.81
791.015	79.28
791.192	76.74
791.368	73.77
791.544	72.2
791.721	66.89
791.897	64.39
792.073	63.48
792.249	59.09
792.426	63.97
792.602	72.04
792.778	77.33
792.954	76.87
793.13	78.59
793.307	71.93
793.483	65.58
793.659	64.7
793.835	70.97
794.011	69.47
794.187	72.67
794.363	69.26
794.539	68.19
794.715	62.85
794.891	62.18
795.067	64.52
795.243	72.35
795.419	68.81
795.595	66.79
795.771	67.78
795.947	67.82
796.122	64.34
796.298	70.85
796.474	76.35
796.65	75.3
796.826	74.03
797.001	74.18
797.177	69
797.353	70.97
797.529	73.07
797.704	72.71
797.88	72.77
798.056	72.14
798.231	69.67
798.407	72.69
798.582	75.45
798.758	79.86
798.934	85.53
799.109	80.77
799.285	75.58
799.46	75.88
799.636	72.56
799.811	70.8
799.986	74.66
800.162	76.56
800.337	74.03
800.513	70.71
800.688	67.87
800.863	71.74
801.039	69.87
801.214	69.97
801.389	73.98
801.565	73.05
801.74	59.17
801.915	63.36
802.09	64.26
802.265	62.87
802.441	59.99
802.616	69.51
802.791	69.03
802.966	63.01
803.141	60.91
803.316	63.87
803.491	60.69
803.666	63.64
803.841	70.72
804.016	73.05
804.191	68.73
804.366	68.86
804.541	61.61
804.716	58.71
804.891	54.19
805.066	59.76
805.241	57
805.416	56.41
805.591	53.78
805.765	56.74
805.94	57.86
806.115	60.18
806.29	59.92
806.464	61.39
806.639	59.87
806.814	54.41
806.989	47.05
807.163	58.24
807.338	61.76
807.512	59.7
807.687	46.69
807.862	57.02
808.036	53.7
808.211	56.59
808.385	62.14
808.56	76.59
808.734	78.24
808.909	73.38
809.083	63.61
809.258	75.57
809.432	78.65
809.606	72.18
809.781	71.05
809.955	76.91
810.13	68.81
810.304	60.4
810.478	55.06
810.652	60.25
810.827	54.49
811.001	43.5
811.175	39.46
811.349	39.96
811.524	35.04
811.698	30.6
811.872	39.29
812.046	49.4
812.22	53.06
812.394	52.69
812.568	55.78
812.742	55.53
812.916	49.04
813.09	38.26
813.264	35.15
813.438	43.12
813.612	44.31
813.786	44.04
813.96	60.28
814.134	63.2
814.308	62.74
814.482	58.57
814.656	56.88
814.83	65.14
815.003	64.86
815.177	60.05
815.351	59.56
815.525	59.52
815.698	40.82
815.872	36.85
816.046	29.08
816.219	38.06
816.393	49.26
816.567	75.15
816.74	75.5
816.914	79.51
817.088	84.97
817.261	79.12
817.435	52.54
817.608	58.37
817.782	50.75
817.955	42.89
818.129	42.98
818.302	45.26
818.475	44.41
818.649	51.79
818.822	41.74
818.996	54.91
819.169	61.41
819.342	60.51
819.516	60.68
819.689	67.51
819.862	53.19
820.035	47.85
820.209	44.89
820.382	48.51
820.555	53.5
820.728	42.54
820.901	34.28
821.075	34.5
821.248	27.49
821.421	11.3
821.594	24.96
821.767	50.1
821.94	66.18
822.113	49.56
822.286	47.79
822.459	48.07
822.632	35.64
822.805	14
822.978	15.87
823.151	20.74
823.324	18.06
823.496	0.93
823.669	2.39
823.842	8.28
824.015	5.73
824.188	-2.64
824.361	3.31
824.533	8.83
824.706	14.18
824.879	18.95
825.051	35.68
825.224	31.26
825.397	18.1
825.569	25.08
825.742	34.42
825.915	29.33
826.087	46.49
826.26	39.69
826.432	32.41
826.605	24.64
826.777	19.23
826.95	26.28
827.122	16.96
827.295	15.76
827.467	12.92
827.64	3.41
827.812	-11.75
827.984	0.01
828.157	-16.49
828.329	-36.99
828.501	-27.47
828.674	-11.06
828.846	-18.88
829.018	29.35
829.19	18.87
829.363	23.59
829.535	29.04
829.707	39.45
829.879	5.15
830.051	8.23
830.223	19.8
830.395	-10.36
830.568	-23.35
830.74	-21.27
830.912	4.08
831.084	-13.68
831.256	-2.34
831.428	6.06
831.6	-3.06
831.772	-38.6
831.943	-49.02
832.115	-30.08
832.287	-18.84
832.459	-10.77
832.631	14.02
832.803	22.18
832.975	57.11
833.146	43.35
833.318	35.52
833.49	46.17
833.662	46.22
833.833	-5.7
834.005	4.42
834.177	24.4
834.348	12.82
834.52	12.72
834.692	12.53
834.863	1.39
835.035	-18.34
835.206	-57.13
835.378	-42.24
835.549	-34.97
835.721	1.66
835.892	14.89
836.064	26.77
836.235	27.82
836.407	52.98
836.578	-10.05
836.749	-30.75
836.921	-98.83
837.092	-93.72
837.264	-88.84
837.435	-73
837.606	-14.23
837.777	16.99
837.949	27.12
838.12	25.21
838.291	28.1
838.462	-2.78
838.633	-31.08
838.805	-26.77
838.976	-41.13
839.147	-87.86
839.318	-66.9
839.489	-92.2
839.66	-103.94
839.831	-35.97
840.002	-37.93
840.173	-51.81
840.344	23.33
840.515	65.46
840.686	-48.93
840.857	-74.08
841.028	-55.72
841.199	-59.01
841.369	-76.73
841.54	-49.61
841.711	6.86
841.882	6.3
842.053	1.95
842.223	-23.35
842.394	-16.41
842.565	-33.58
842.736	-12.05
842.906	-9.2
843.077	16.29
843.248	27.46
843.418	27.55
843.589	5
843.759	13.18
843.93	-33.52
844.101	-15.86
844.271	0.64
844.442	20.72
844.612	24.13
844.783	4.14
844.953	-22.28
845.123	-58.12
845.294	-78.69
845.464	-283.81
845.635	-108.41
845.805	-39.92
845.975	-10.26
846.146	-47.33
846.316	-36.15
846.486	-18.26
846.656	9.07
846.827	1.89
846.997	5.25
847.167	40.95
847.337	18.21
847.507	-4.74
847.677	1.7
847.848	40.61
848.018	32.14
848.188	35.43
848.358	20.09
848.528	5.22
848.698	-58.4
848.868	-151
849.038	-227.47
849.208	-83.52
849.378	-80.07
849.548	-25
849.718	-6.33
849.887	9.81
850.057	-11.58
850.227	-9.56
850.397	-8.63
850.567	-85.41
850.737	-217.72
850.906	-772.19
851.076	-459.18
851.246	-138.09
851.415	46.12
851.585	1.8
851.755	-37.96
851.924	-29.15
852.094	-82.41
852.264	-257.47
852.433	-1364.18
852.603	-227.91
852.772	-199.57
852.942	-114.55
853.111	-79.02
853.281	-22.8
853.45	2.58
853.62	-32.83
853.789	-35.16
853.959	-24.57
854.128	-77.33
854.297	-114.35
854.467	-142.56
854.636	-189.31
854.805	-97.83
854.975	-144.67
855.144	-209.52
855.313	-350.17
855.482	-503.47
855.652	-197.45
855.821	-151.67
855.99	-22.3
856.159	-15.56
856.328	6.01
856.497	-9.34
856.667	18.1
856.836	15.9
857.005	16.56
857.174	-8.92
857.343	-55.75
857.512	-73.42
857.681	-93.22
857.85	-182.29
858.019	-111.32
858.188	-72.2
858.356	-77.01
858.525	-140.77
858.694	-98.26
858.863	-205.38
859.032	-145.29
859.201	-162
859.369	-37.44
859.538	-51.01
859.707	-15.19
859.876	-8.76
860.044	-18.88
860.213	4.73
860.382	-2.89
860.55	5.52
860.719	19.3
860.888	22.57
861.056	-19.51
861.225	-15.1
861.393	0.03
861.562	-22.02
861.73	-106.01
861.899	-235.47
862.067	-1830.17
862.236	-93.78
862.404	-247.19
862.572	-148.15
862.741	-65.88
862.909	-66.82
863.078	-199.27
863.246	-123.36
863.414	-105.08
863.582	-55.38
863.751	-83.35
863.919	-71.83
864.087	-23.62
864.255	-16.04
864.424	-327.39
864.592	-17.4
864.76	-11.08
864.928	-105.4
865.096	-141.32
865.264	-34.7
865.432	-1151.7
865.6	-1.37
865.768	-47.61
865.936	-60.25
866.104	-96.83
866.272	-167.73
866.44	-455.81
866.608	785.73
866.776	367.78
866.944	3480.81
867.112	-669.81
867.28	-265.52
867.448	-133.34
867.615	-67.39
867.783	-53.3
867.951	-58.52
868.119	-31.78
868.286	-37.98
868.454	-204.15
868.622	-211.16
868.789	-139.76
868.957	-4219.64
869.125	-3046.71
869.292	-203.38
869.46	-305.55
869.627	-94.47
869.795	-78.61
869.963	-31.5
870.13	10.46
870.298	60.13
870.465	-28.22
870.632	-34.42
870.8	-29.34
870.967	-106.61
871.135	-179.85
871.302	-108.91
871.469	-102.82
871.637	-103.47
871.804	-25.84
871.971	-92.44
872.139	-355.7
872.306	-39.43
872.473	-65.54
872.64	-402.9
872.807	-173.3
872.975	1.41
873.142	-218.09
873.309	1693.92
873.476	17.96
873.643	42.14
873.81	-19.77
873.977	22.88
874.144	7.06
874.311	-110.06
874.478	-117.42
874.645	-139.58
874.812	-115.72
874.979	-61.26
875.146	-75.16
875.313	-111.55
875.48	-30.97
875.647	-28.88
875.813	-60.19
875.98	-33.78
876.147	-40.87
876.314	-97.88
876.481	909.71
876.647	-1283.99
876.814	565.67
876.981	-129.13
877.147	-80.51
877.314	-20.79
877.481	9.5
877.647	17.28
877.814	-26.19
877.98	-80.75
878.147	-46.05
878.314	-20.34
878.48	-105.52
878.647	-71.9
878.813	15.14
878.979	0.65
879.146	-22.45
879.312	-14.19
879.479	-71.22
879.645	-232.29
879.811	-419.16
879.978	-1096.76
880.144	-324.37
880.31	-164.7
880.477	-410.26
880.643	-490.05
880.809	-200.37
880.975	-187.02
881.142	-1197.05
881.308	-169.87
881.474	-53.19
881.64	-69.85
881.806	-38.92
881.972	21.61
882.138	57.22
882.304	28.6
882.47	-147.94
882.636	-767.01
882.802	-261.7
882.968	-84.74
883.134	-52.76
883.3	-39.75
883.466	5.64
883.632	33.98
883.798	9.69
883.964	-2.54
884.129	27.89
884.295	10.77
884.461	-43.26
884.627	-52.49
884.793	-42.5
884.958	-20.53
885.124	-65.87
885.29	-143.8
885.455	-251.82
885.621	-98.07
885.787	-83.23
885.952	-49.17
886.118	-49.29
886.283	-40.94
886.449	-145.38
886.614	-176.21
886.78	-367.98
886.945	1548.77
887.111	-849.57
887.276	-702.13
887.442	-1322.5
887.607	-597.05
887.773	-464.25
887.938	-362.6
888.103	-377.01
888.269	-293.6
888.434	-436.08
888.599	-130.04
888.764	-50.93
888.93	-34.11
889.095	-36.1
889.26	-73.07
889.425	-23.32
889.59	35.08
889.756	1.65
889.921	8.41
890.086	19.56
890.251	-4.54
890.416	-238.84
890.581	-1944.76
890.746	409.2
890.911	787.1
891.076	291.49
891.241	-619.96
891.406	-50.6
891.571	-95.91
891.736	-284.75
891.901	-589.16
892.065	754.67
892.23	185.58
892.395	274.12
892.56	373.63
892.725	-484.96
892.889	-1440.85
893.054	-212.85
893.219	-81.58
893.384	-51.66
893.548	-116.66
893.713	-138.93
893.878	-89.14
