Data from Ofra_1a_PS_OGT3_Reflection_3.txt Node
Date: Tue Jul 20 10:43:19 EDT 2021
User: Adam
Spectrometer: FLMT01687
Trigger mode: 0
Integration Time (sec): 1.004000E0
Scans to average: 2
Electric dark correction enabled: true
Nonlinearity correction enabled: false
Boxcar width: 2
XAxis mode: Wavelengths
Number of Pixels in Spectrum: 3648
>>>>>Begin Spectral Data<<<<<
179.494	-315.23
179.716	-430.53
179.937	845.82
180.158	-984.08
180.38	205.43
180.601	111.42
180.823	81.52
181.044	46.05
181.265	-9.31
181.486	301.23
181.708	239.44
181.929	-18354.55
182.15	63.05
182.372	45.81
182.593	427.02
182.814	-188.96
183.035	-35.6
183.257	13.24
183.478	-4.71
183.699	-6.1
183.92	-61.54
184.141	-37.36
184.363	-13.95
184.584	-17.81
184.805	6.27
185.026	40.38
185.247	30.5
185.468	22.77
185.689	39.12
185.91	9.92
186.132	23.73
186.353	8.89
186.574	14.34
186.795	20.91
187.016	44.13
187.237	28.03
187.458	39.84
187.679	36.78
187.9	9.51
188.121	5.19
188.342	23.71
188.563	0.98
188.784	30.6
189.005	31.72
189.226	31.83
189.447	32.76
189.667	27.61
189.888	14.95
190.109	13.83
190.33	12.06
190.551	-4.78
190.772	13.79
190.993	-23.45
191.214	-25.88
191.434	-51.38
191.655	-74.32
191.876	-18.26
192.097	24.81
192.318	36.13
192.538	12.93
192.759	12.85
192.98	17.62
193.201	7.12
193.421	2.75
193.642	20.83
193.863	27.37
194.083	10.88
194.304	12.77
194.525	7.91
194.745	-2.03
194.966	6.03
195.187	4.34
195.407	1.73
195.628	12.21
195.848	9.85
196.069	-3.85
196.29	19.27
196.51	14.86
196.731	9.51
196.951	6.95
197.172	21.24
197.392	-10.76
197.613	6.4
197.833	-1.2
198.054	-0.9
198.274	-13.45
198.495	2.01
198.715	-16.56
198.936	3.92
199.156	4.34
199.377	0.06
199.597	0.05
199.817	10.49
200.038	-27.06
200.258	-2.79
200.479	9.13
200.699	13.59
200.919	-3.97
201.14	8.22
201.36	-26.1
201.58	-34.46
201.801	-54.77
202.021	-45.74
202.241	-45.28
202.461	-3.4
202.682	16.64
202.902	28.98
203.122	42.57
203.342	50.79
203.563	43.77
203.783	28.75
204.003	16.37
204.223	28.67
204.443	25.89
204.663	20.76
204.884	21.67
205.104	27.85
205.324	15.56
205.544	-21.35
205.764	13.17
205.984	2.89
206.204	-8.87
206.424	-35.22
206.644	-36.16
206.864	-93.9
207.084	-58.86
207.304	-49.52
207.525	-28.96
207.745	9.44
207.964	24.74
208.184	54.72
208.404	28.19
208.624	30.88
208.844	11.88
209.064	30.01
209.284	14.06
209.504	4.99
209.724	-8.19
209.944	-19.63
210.164	-38.88
210.384	-60.29
210.604	-132.67
210.823	-131.64
211.043	-79.17
211.263	-129.97
211.483	-67.99
211.703	-14.26
211.922	-19.91
212.142	4.55
212.362	8.39
212.582	14.02
212.801	7.24
213.021	7.61
213.241	-19.77
213.461	-11.15
213.68	4.62
213.9	5.12
214.12	7.19
214.339	-3.44
214.559	10.15
214.779	-18
214.998	-2.69
215.218	4.74
215.438	12.82
215.657	-21.92
215.877	-15.58
216.096	-12.23
216.316	-28.82
216.535	-41.01
216.755	-6.96
216.974	-15.96
217.194	-6.12
217.413	15.24
217.633	6.14
217.852	-7.77
218.072	4.33
218.291	-4.62
218.511	-12.26
218.73	14.15
218.95	3.21
219.169	0.67
219.389	4.81
219.608	12.1
219.827	2.35
220.047	11.93
220.266	2.19
220.485	5.9
220.705	7.28
220.924	-0.7
221.143	7.48
221.363	25.65
221.582	23.8
221.801	35.59
222.021	49.28
222.24	41.16
222.459	31.71
222.678	25.95
222.897	9.01
223.117	10.22
223.336	22.85
223.555	29.63
223.774	23.01
223.993	32.54
224.213	16.83
224.432	11.14
224.651	12.21
224.87	22.55
225.089	34.11
225.308	39.03
225.527	41.09
225.746	43.06
225.965	43.6
226.184	16.29
226.404	6.19
226.623	10.23
226.842	8.43
227.061	12.89
227.28	30.1
227.499	30.47
227.718	18.15
227.936	17.47
228.155	16.58
228.374	9.2
228.593	19.48
228.812	18.26
229.031	27.69
229.25	-2.23
229.469	-5.65
229.688	-9.89
229.907	6.6
230.125	-20.49
230.344	4.39
230.563	5.73
230.782	10.79
231.001	8.45
231.22	17.63
231.438	19.24
231.657	37.81
231.876	42.8
232.095	49.79
232.313	44.79
232.532	28.8
232.751	-0.34
232.969	-20.81
233.188	-45.87
233.407	-26.92
233.625	-20.62
233.844	-15.92
234.063	-13.23
234.281	6
234.5	7.73
234.719	1.12
234.937	-21.06
235.156	-22.94
235.374	-26.99
235.593	-4.2
235.811	9.52
236.03	21.81
236.249	17.19
236.467	13.9
236.686	-9.38
236.904	-16.92
237.123	-19.83
237.341	-19.12
237.559	-25.11
237.778	3.29
237.996	14.94
238.215	-4.61
238.433	-72.97
238.652	-33.35
238.87	-50.2
239.088	-46.46
239.307	-11.06
239.525	19.97
239.743	12.87
239.962	-5.77
240.18	-2.28
240.398	-11.69
240.617	-30.15
240.835	-37.56
241.053	-17.64
241.271	-4.06
241.49	6.47
241.708	-1.13
241.926	-6.48
242.144	-2.83
242.363	-48.96
242.581	-73.69
242.799	-52.23
243.017	-10.32
243.235	5.65
243.453	4.79
243.672	6.07
243.89	11.09
244.108	13.88
244.326	16.28
244.544	44.26
244.762	33.57
244.98	35.23
245.198	30.36
245.416	30.91
245.634	7.74
245.852	12.7
246.07	21.12
246.288	20.76
246.506	10.73
246.724	10.6
246.942	0.22
247.16	-5.08
247.378	-20.29
247.596	-18.11
247.814	-10.58
248.032	-2.96
248.25	23.33
248.468	37.78
248.685	40.28
248.903	29.41
249.121	33.19
249.339	33.97
249.557	35.04
249.775	20.75
249.992	25.63
250.21	17.39
250.428	10.3
250.646	-5.5
250.863	1.26
251.081	3.66
251.299	13.01
251.517	9.22
251.734	16.97
251.952	23.28
252.17	27.76
252.387	13.37
252.605	10.73
252.823	12.04
253.04	17.25
253.258	-6
253.475	14.13
253.693	14.16
253.911	8.38
254.128	3.44
254.346	22.11
254.563	23.94
254.781	16.86
254.998	16.98
255.216	-0.2
255.433	-16.64
255.651	-18.48
255.868	-11.2
256.086	8.59
256.303	23.29
256.521	13.49
256.738	2.95
256.956	1.85
257.173	-25.13
257.39	-34.25
257.608	-14.33
257.825	-20.72
258.043	-11.6
258.26	2.78
258.477	0.87
258.695	-7.49
258.912	-5.15
259.129	-19.78
259.346	-31.13
259.564	-23.29
259.781	-26.36
259.998	-19.28
260.216	-6.51
260.433	-13.93
260.65	-18.24
260.867	-11.74
261.084	-2.5
261.302	-8.29
261.519	23.82
261.736	28.79
261.953	17.18
262.17	16.9
262.387	25.58
262.604	27.52
262.822	31.84
263.039	40.29
263.256	44.12
263.473	44.78
263.69	29.62
263.907	34.64
264.124	26.26
264.341	35.8
264.558	22.68
264.775	48.42
264.992	37.47
265.209	24.52
265.426	-6.82
265.643	-9.61
265.86	-73.13
266.077	-56.42
266.294	-35.81
266.51	-7.2
266.727	6.66
266.944	31.51
267.161	33.45
267.378	50.5
267.595	36.66
267.812	22.15
268.028	-8.28
268.245	-19.25
268.462	-32.75
268.679	-13.61
268.896	-1.01
269.112	-12.37
269.329	-31.93
269.546	-11.29
269.763	-3.6
269.979	-14.41
270.196	8.87
270.413	16.86
270.629	-14.64
270.846	-16.99
271.063	-11.71
271.279	-8.53
271.496	-8.33
271.712	12.73
271.929	17.63
272.146	31.46
272.362	35.98
272.579	17.51
272.795	21.71
273.012	23.35
273.228	29.46
273.445	21.61
273.661	42.04
273.878	35.87
274.094	21.11
274.311	12.45
274.527	-6.92
274.744	-0.63
274.96	4.36
275.177	0.04
275.393	2.98
275.609	20.32
275.826	2.94
276.042	-5.77
276.259	1.6
276.475	-12
276.691	-33.51
276.908	-22.5
277.124	-13.26
277.34	-21.37
277.557	-24.34
277.773	-17.83
277.989	-17.3
278.205	-23.24
278.422	-17.26
278.638	-0.3
278.854	-0.59
279.07	14.52
279.286	17.28
279.503	29.27
279.719	30.36
279.935	31.87
280.151	0.04
280.367	15.73
280.583	5.59
280.799	-2.54
281.016	-34.08
281.232	-9.17
281.448	-27.35
281.664	-19.86
281.88	-19.39
282.096	5.19
282.312	11.82
282.528	10.56
282.744	3.74
282.96	-6.32
283.176	-10.47
283.392	-33.69
283.608	-32.52
283.824	-62.19
284.04	-102.54
284.256	-58.86
284.471	-38.8
284.687	-36.81
284.903	-16.63
285.119	13.72
285.335	5.43
285.551	9.07
285.767	6.56
285.982	-15.79
286.198	-52.03
286.414	-28.76
286.63	-23.63
286.846	-33.8
287.061	-8.28
287.277	-11.24
287.493	-45.11
287.709	-39.12
287.924	-10.73
288.14	2.87
288.356	10.48
288.571	14.78
288.787	-4.92
289.003	0.22
289.218	-22.87
289.434	-32.5
289.65	-2.84
289.865	5.84
290.081	5.52
290.296	16.31
290.512	24.58
290.727	14.26
290.943	11.9
291.159	5.95
291.374	-6
291.59	-7.32
291.805	-17.56
292.021	-6.82
292.236	-3.1
292.451	11.85
292.667	15.71
292.882	25.39
293.098	22.31
293.313	21.62
293.529	18.72
293.744	23.98
293.959	26.36
294.175	22.49
294.39	-4.39
294.605	5.44
294.821	-6.99
295.036	-16.02
295.251	-3.84
295.467	0.44
295.682	-3.14
295.897	-19.11
296.112	-15.82
296.328	-12.46
296.543	-20.94
296.758	-25.92
296.973	2.03
297.188	-13.63
297.404	-42.94
297.619	-12.78
297.834	-22.02
298.049	-52.49
298.264	-11.31
298.479	-23.54
298.694	9.75
298.909	11.48
299.125	20.24
299.34	16.78
299.555	25.21
299.77	32.11
299.985	23.56
300.2	27.2
300.415	28.53
300.63	22.05
300.845	3.8
301.06	9.41
301.275	2.37
301.49	-4.58
301.704	-9.23
301.919	-23.73
302.134	-29.88
302.349	-15.01
302.564	-9.44
302.779	0.82
302.994	16.62
303.209	29.25
303.423	24.49
303.638	21.23
303.853	3.51
304.068	-30.16
304.283	-46.41
304.497	-69.25
304.712	-41.06
304.927	-16.49
305.142	1.64
305.356	5.45
305.571	13.52
305.786	21.25
306	32.16
306.215	34.42
306.43	25.36
306.644	2.99
306.859	-8.29
307.074	-1
307.288	-2.34
307.503	24.22
307.717	32.5
307.932	31.87
308.147	23.96
308.361	24.16
308.576	18.31
308.79	22.57
309.005	6.27
309.219	11.15
309.434	16.96
309.648	3.55
309.863	-4.17
310.077	5.7
310.292	22.62
310.506	7.6
310.72	11.09
310.935	30.35
311.149	27.08
311.364	13.73
311.578	30.64
311.792	38.28
312.007	24.45
312.221	23.39
312.435	25.48
312.649	24.65
312.864	21.43
313.078	12.84
313.292	-4.99
313.507	-17.37
313.721	-27.76
313.935	-43.36
314.149	-32.09
314.363	3.43
314.578	7.1
314.792	-21.4
315.006	-19.8
315.22	-4.22
315.434	-9.55
315.648	-15.6
315.862	-0.47
316.077	4.15
316.291	1.28
316.505	-18.98
316.719	0.47
316.933	11.96
317.147	-1.65
317.361	-1.21
317.575	0.83
317.789	-5.52
318.003	-11.82
318.217	5.62
318.431	1.96
318.645	-3.25
318.859	6.81
319.073	9.56
319.287	-0.8
319.5	-8.72
319.714	-14.81
319.928	-25.21
320.142	-31.88
320.356	-25.07
320.57	-33.73
320.784	-16.62
320.997	-35.38
321.211	-11.12
321.425	-44.45
321.639	-11.79
321.853	-2.21
322.066	3.32
322.28	-15.4
322.494	1.44
322.707	-5.09
322.921	-14.44
323.135	-6.96
323.349	3.16
323.562	11.24
323.776	15.94
323.989	26.74
324.203	11.03
324.417	14.34
324.63	12.13
324.844	-8.11
325.057	-38.99
325.271	-9.97
325.485	-25.54
325.698	-25.68
325.912	12.07
326.125	24.16
326.339	30.57
326.552	37.91
326.766	23.14
326.979	8.15
327.193	12.07
327.406	-9.03
327.619	-12.31
327.833	3.02
328.046	-8.83
328.26	-25
328.473	-14.39
328.686	-7.24
328.9	7.06
329.113	12.71
329.326	32.36
329.54	41.83
329.753	37.75
329.966	31.39
330.179	35.22
330.393	27.59
330.606	12.42
330.819	5.11
331.032	7.07
331.246	6.71
331.459	24.27
331.672	24.45
331.885	17.74
332.098	20.23
332.311	14.97
332.525	9
332.738	19.79
332.951	19.63
333.164	30.28
333.377	34.46
333.59	16.5
333.803	7.16
334.016	17.12
334.229	-11.64
334.442	-10.36
334.655	-10.05
334.868	-15.41
335.081	-27.72
335.294	-27.7
335.507	-26.78
335.72	-8.76
335.933	-4.96
336.146	3.43
336.359	15.61
336.572	4.13
336.785	-4.18
336.997	-13.89
337.21	-20.25
337.423	-62.36
337.636	-43.94
337.849	-53.2
338.062	-32.4
338.274	-25.12
338.487	-8.42
338.7	-12.92
338.913	5.67
339.125	-4.54
339.338	-10.48
339.551	-8.32
339.763	2.88
339.976	-0.63
340.189	-3.68
340.402	5.78
340.614	2.49
340.827	0.55
341.039	7.1
341.252	15.5
341.465	6.22
341.677	6.15
341.89	3
342.102	8.16
342.315	4.22
342.527	13.49
342.74	7.61
342.952	7.41
343.165	1.51
343.377	12.4
343.59	15.15
343.802	19.21
344.015	25.3
344.227	22.44
344.44	3.38
344.652	10.46
344.864	16.99
345.077	13.45
345.289	19.98
345.502	46.64
345.714	32.97
345.926	14
346.139	4.81
346.351	0.05
346.563	7.88
346.775	9.05
346.988	39.26
347.2	39.63
347.412	43.62
347.624	23.66
347.837	29.32
348.049	16.99
348.261	-2.14
348.473	-22.15
348.685	-34.38
348.897	-63.89
349.11	-58.55
349.322	-31.18
349.534	-29.13
349.746	-10.19
349.958	-16.63
350.17	-23.87
350.382	-29.4
350.594	-16.25
350.806	-7.77
351.018	14.03
351.23	21.93
351.442	33.1
351.654	29.95
351.866	26.33
352.078	30.07
352.29	35.53
352.502	21.81
352.714	31.35
352.926	24.47
353.138	25.22
353.35	6.31
353.561	5.07
353.773	-6.55
353.985	-1.88
354.197	-7.06
354.409	-0.85
354.621	-20.66
354.832	-12.1
355.044	-37.37
355.256	-40.87
355.468	-63.31
355.679	-3.92
355.891	-5.02
356.103	2.52
356.314	-1.79
356.526	4.85
356.738	-16.8
356.949	-17.74
357.161	1.15
357.373	1.5
357.584	4.77
357.796	17.83
358.008	27.01
358.219	22.61
358.431	27.1
358.642	37.26
358.854	26.05
359.065	5.18
359.277	3.48
359.488	-2.76
359.7	-17.28
359.911	-24.2
360.123	7.46
360.334	-3.06
360.546	-0.1
360.757	2.94
360.969	9.54
361.18	-21.76
361.391	-3.18
361.603	-1.18
361.814	15.7
362.025	24.27
362.237	37.34
362.448	34
362.659	22.39
362.871	0.32
363.082	-11.04
363.293	-32.62
363.504	-37.26
363.716	-20.24
363.927	11.91
364.138	-9.9
364.349	-7.4
364.56	-20.68
364.772	2.01
364.983	-4.19
365.194	3.39
365.405	-3.28
365.616	1.61
365.827	-19.99
366.038	-20.33
366.25	-12.06
366.461	-4.12
366.672	-5.74
366.883	-2.37
367.094	-17.47
367.305	-23.13
367.516	-12.52
367.727	-16.15
367.938	-20.02
368.149	-23.34
368.36	-27.72
368.571	-57.54
368.781	-53.6
368.992	-52.94
369.203	-44.79
369.414	-47.29
369.625	-30.99
369.836	-9.67
370.047	-14.33
370.258	-0.11
370.468	3.49
370.679	7.55
370.89	-1.78
371.101	13.32
371.312	1.35
371.522	7.47
371.733	-3.17
371.944	-25.87
372.155	-25.91
372.365	-16.15
372.576	-18.8
372.787	-2.24
372.997	0.77
373.208	-5.55
373.419	-11.11
373.629	-19.36
373.84	-25.55
374.05	-9.66
374.261	-13.02
374.472	-0.42
374.682	13.07
374.893	12.34
375.103	15.67
375.314	18.26
375.524	2.9
375.735	7.98
375.945	5.35
376.156	1.41
376.366	-2.65
376.577	2.02
376.787	-1.41
376.997	8.06
377.208	6.63
377.418	7.75
377.629	11.39
377.839	19.09
378.049	10.86
378.26	4.37
378.47	-0.09
378.68	0.14
378.89	-11.24
379.101	0.57
379.311	6
379.521	8.39
379.732	12.05
379.942	18.17
380.152	8.32
380.362	19.11
380.572	27.36
380.783	30.96
380.993	32.13
381.203	27.07
381.413	17.28
381.623	13.7
381.833	7.44
382.043	-7.45
382.253	-2.61
382.463	9.14
382.674	6.81
382.884	13.93
383.094	18.95
383.304	15.31
383.514	12.01
383.724	8.28
383.934	-6.16
384.144	-2.14
384.353	-2.18
384.563	-1.08
384.773	5.15
384.983	7.34
385.193	1.37
385.403	4.59
385.613	7.04
385.823	0.9
386.033	0.09
386.242	-3.12
386.452	-4.69
386.662	-7.82
386.872	-0.74
387.082	3.06
387.291	5.03
387.501	9.63
387.711	10.25
387.921	6.04
388.13	9.25
388.34	12.83
388.55	8.02
388.759	-2.98
388.969	-2.25
389.179	-5.74
389.388	-6.16
389.598	-8.27
389.807	-5.93
390.017	-7.77
390.227	-7.81
390.436	-5.09
390.646	-3.62
390.855	0.01
391.065	1.1
391.274	0.63
391.484	-2.03
391.693	-1.87
391.903	-1.04
392.112	-0.44
392.322	-0.95
392.531	-0.81
392.74	0.15
392.95	-0.66
393.159	-1.3
393.369	-0.08
393.578	0.61
393.787	-0.07
393.997	1.61
394.206	2.26
394.415	2.55
394.625	1.76
394.834	0.61
395.043	-0.64
395.252	1.2
395.462	1.63
395.671	1.2
395.88	2.6
396.089	2.68
396.298	0.71
396.508	0.63
396.717	1.17
396.926	0.66
397.135	0.41
397.344	0.41
397.553	-0.65
397.762	0.29
397.971	0.02
398.181	0.16
398.39	0.1
398.599	1.21
398.808	0.55
399.017	1.92
399.226	2.16
399.435	2.04
399.644	1.86
399.853	1.97
400.062	1.46
400.27	0.97
400.479	1.22
400.688	1.19
400.897	1.13
401.106	1.18
401.315	1.64
401.524	1.7
401.733	1.51
401.941	1.68
402.15	1.6
402.359	1.71
402.568	1.72
402.777	2.08
402.985	2.02
403.194	1.83
403.403	1.62
403.612	1.62
403.82	1.22
404.029	1.38
404.238	1.51
404.446	1.68
404.655	1.7
404.864	1.92
405.072	1.72
405.281	1.78
405.489	1.58
405.698	1.68
405.906	1.79
406.115	1.75
406.324	1.77
406.532	1.85
406.741	1.93
406.949	1.9
407.158	1.94
407.366	1.85
407.574	1.86
407.783	1.76
407.991	1.77
408.2	1.8
408.408	1.9
408.617	1.88
408.825	1.77
409.033	1.68
409.242	1.69
409.45	1.57
409.658	1.56
409.867	1.55
410.075	1.55
410.283	1.51
410.491	1.48
410.7	1.43
410.908	1.57
411.116	1.62
411.324	1.63
411.533	1.68
411.741	1.8
411.949	1.71
412.157	1.62
412.365	1.56
412.573	1.54
412.781	1.4
412.99	1.47
413.198	1.57
413.406	1.69
413.614	1.81
413.822	2.05
414.03	1.96
414.238	2.02
414.446	1.97
414.654	1.85
414.862	1.57
415.07	1.54
415.278	1.46
415.486	1.34
415.694	1.39
415.902	1.57
416.109	1.58
416.317	1.45
416.525	1.41
416.733	1.29
416.941	1.35
417.149	1.24
417.357	1.36
417.564	1.5
417.772	1.66
417.98	1.56
418.188	1.53
418.395	1.25
418.603	1.09
418.811	1
419.019	0.94
419.226	1.13
419.434	1.46
419.642	1.48
419.849	1.43
420.057	1.5
420.265	1.43
420.472	1.32
420.68	1.49
420.887	1.43
421.095	1.53
421.302	1.57
421.51	1.52
421.717	1.49
421.925	1.63
422.132	1.58
422.34	1.48
422.547	1.37
422.755	1.38
422.962	1.35
423.17	1.16
423.377	1.17
423.585	1.34
423.792	1.26
423.999	1.23
424.207	1.25
424.414	1.29
424.621	1.3
424.829	1.27
425.036	1.3
425.243	1.45
425.451	1.55
425.658	1.49
425.865	1.52
426.072	1.58
426.28	1.53
426.487	1.58
426.694	1.48
426.901	1.51
427.108	1.36
427.315	1.37
427.523	1.1
427.73	1.22
427.937	1.11
428.144	1.21
428.351	1.17
428.558	1.35
428.765	1.29
428.972	1.37
429.179	1.3
429.386	1.39
429.593	1.35
429.8	1.38
430.007	1.44
430.214	1.51
430.421	1.47
430.628	1.47
430.835	1.39
431.042	1.3
431.249	1.34
431.456	1.33
431.662	1.33
431.869	1.47
432.076	1.54
432.283	1.52
432.49	1.52
432.697	1.59
432.903	1.55
433.11	1.6
433.317	1.63
433.524	1.64
433.73	1.6
433.937	1.7
434.144	1.59
434.35	1.44
434.557	1.37
434.764	1.38
434.97	1.15
435.177	1.26
435.384	1.46
435.59	1.53
435.797	1.54
436.003	1.69
436.21	1.64
436.416	1.63
436.623	1.62
436.829	1.64
437.036	1.65
437.242	1.75
437.449	1.59
437.655	1.66
437.862	1.71
438.068	1.73
438.275	1.74
438.481	1.9
438.687	1.81
438.894	1.92
439.1	1.95
439.307	1.96
439.513	1.85
439.719	1.84
439.926	1.66
440.132	1.77
440.338	1.73
440.544	1.8
440.751	1.79
440.957	1.91
441.163	1.83
441.369	1.82
441.575	1.8
441.782	1.98
441.988	1.98
442.194	1.94
442.4	1.9
442.606	2.06
442.812	2.02
443.018	2.05
443.224	2.15
443.431	2.24
443.637	2.12
443.843	2.12
444.049	2.14
444.255	2.12
444.461	2.01
444.667	2.02
444.873	1.96
445.079	1.92
445.284	1.89
445.49	1.98
445.696	1.93
445.902	1.95
446.108	1.98
446.314	1.96
446.52	2
446.726	2.1
446.931	2.06
447.137	2.02
447.343	2.14
447.549	2.08
447.755	2.01
447.96	2.09
448.166	2.13
448.372	2.08
448.578	1.99
448.783	2.07
448.989	2.12
449.195	2.06
449.4	2.08
449.606	2.24
449.812	2.22
450.017	2.2
450.223	2.24
450.428	2.24
450.634	2.16
450.84	2.17
451.045	2.11
451.251	2.15
451.456	2.18
451.662	2.26
451.867	2.33
452.073	2.39
452.278	2.31
452.483	2.33
452.689	2.34
452.894	2.38
453.1	2.38
453.305	2.45
453.51	2.46
453.716	2.46
453.921	2.41
454.127	2.37
454.332	2.41
454.537	2.38
454.742	2.31
454.948	2.32
455.153	2.35
455.358	2.32
455.563	2.36
455.769	2.42
455.974	2.35
456.179	2.31
456.384	2.34
456.589	2.29
456.795	2.24
457	2.28
457.205	2.29
457.41	2.26
457.615	2.21
457.82	2.35
458.025	2.38
458.23	2.39
458.435	2.49
458.64	2.51
458.845	2.45
459.05	2.43
459.255	2.45
459.46	2.34
459.665	2.4
459.87	2.36
460.075	2.44
460.28	2.46
460.485	2.56
460.69	2.47
460.895	2.46
461.099	2.31
461.304	2.2
461.509	2.17
461.714	2.39
461.919	2.41
462.123	2.5
462.328	2.46
462.533	2.37
462.738	2.19
462.942	2.13
463.147	2.16
463.352	2.36
463.556	2.45
463.761	2.47
463.966	2.41
464.17	2.43
464.375	2.46
464.58	2.39
464.784	2.48
464.989	2.67
465.193	2.61
465.398	2.58
465.602	2.74
465.807	2.68
466.011	2.64
466.216	2.62
466.42	2.57
466.625	2.49
466.829	2.42
467.034	2.49
467.238	2.59
467.443	2.63
467.647	2.63
467.851	2.79
468.056	2.79
468.26	2.75
468.464	2.79
468.669	2.8
468.873	2.69
469.077	2.65
469.282	2.66
469.486	2.64
469.69	2.7
469.894	2.73
470.099	2.75
470.303	2.73
470.507	2.71
470.711	2.65
470.915	2.71
471.119	2.7
471.324	2.74
471.528	2.8
471.732	2.86
471.936	2.85
472.14	2.87
472.344	2.94
472.548	2.96
472.752	2.93
472.956	2.94
473.16	2.95
473.364	2.84
473.568	2.78
473.772	2.78
473.976	2.88
474.18	2.88
474.384	2.92
474.588	2.99
474.792	2.96
474.995	2.93
475.199	2.96
475.403	2.97
475.607	2.96
475.811	3.03
476.015	2.96
476.218	2.92
476.422	2.93
476.626	2.91
476.83	2.95
477.033	3.04
477.237	3.09
477.441	3.07
477.644	3.09
477.848	3.03
478.052	2.97
478.255	2.99
478.459	2.95
478.663	2.98
478.866	3.05
479.07	3.02
479.273	3.02
479.477	3.1
479.681	3.1
479.884	3.13
480.088	3.21
480.291	3.19
480.495	3.17
480.698	3.1
480.901	3.05
481.105	3
481.308	2.98
481.512	2.98
481.715	3.13
481.919	3.2
482.122	3.21
482.325	3.28
482.529	3.27
482.732	3.2
482.935	3.08
483.138	3.13
483.342	3.1
483.545	3.18
483.748	3.21
483.952	3.25
484.155	3.29
484.358	3.29
484.561	3.27
484.764	3.24
484.967	3.28
485.171	3.28
485.374	3.23
485.577	3.21
485.78	3.2
485.983	3.14
486.186	3.11
486.389	3.2
486.592	3.2
486.795	3.27
486.998	3.23
487.201	3.26
487.404	3.31
487.607	3.36
487.81	3.33
488.013	3.38
488.216	3.34
488.419	3.27
488.622	3.24
488.825	3.27
489.028	3.27
489.231	3.3
489.433	3.29
489.636	3.28
489.839	3.29
490.042	3.33
490.245	3.3
490.447	3.31
490.65	3.33
490.853	3.31
491.056	3.28
491.258	3.35
491.461	3.33
491.664	3.32
491.866	3.29
492.069	3.35
492.272	3.29
492.474	3.28
492.677	3.26
492.879	3.25
493.082	3.3
493.285	3.31
493.487	3.39
493.69	3.43
493.892	3.43
494.095	3.36
494.297	3.39
494.5	3.38
494.702	3.37
494.905	3.45
495.107	3.46
495.309	3.49
495.512	3.46
495.714	3.48
495.917	3.48
496.119	3.53
496.321	3.54
496.524	3.48
496.726	3.48
496.928	3.44
497.13	3.36
497.333	3.34
497.535	3.46
497.737	3.49
497.939	3.54
498.142	3.58
498.344	3.63
498.546	3.62
498.748	3.69
498.95	3.65
499.152	3.64
499.355	3.57
499.557	3.53
499.759	3.56
499.961	3.61
500.163	3.68
500.365	3.72
500.567	3.76
500.769	3.69
500.971	3.72
501.173	3.66
501.375	3.73
501.577	3.72
501.779	3.67
501.981	3.69
502.183	3.69
502.385	3.67
502.587	3.68
502.788	3.77
502.99	3.69
503.192	3.75
503.394	3.72
503.596	3.7
503.798	3.63
503.999	3.66
504.201	3.66
504.403	3.72
504.605	3.72
504.806	3.82
505.008	3.83
505.21	3.8
505.411	3.75
505.613	3.79
505.815	3.73
506.016	3.78
506.218	3.83
506.42	3.81
506.621	3.83
506.823	3.82
507.024	3.79
507.226	3.78
507.427	3.83
507.629	3.82
507.83	3.87
508.032	3.84
508.233	3.85
508.435	3.84
508.636	3.87
508.838	3.83
509.039	3.88
509.24	3.86
509.442	3.88
509.643	3.85
509.845	3.89
510.046	3.9
510.247	3.93
510.448	3.97
510.65	3.99
510.851	3.96
511.052	3.92
511.254	3.94
511.455	3.89
511.656	3.83
511.857	3.86
512.058	3.88
512.26	3.86
512.461	3.85
512.662	3.93
512.863	3.85
513.064	3.84
513.265	3.81
513.466	3.86
513.667	3.84
513.868	3.83
514.069	3.78
514.27	3.84
514.471	3.83
514.672	3.83
514.873	3.84
515.074	3.93
515.275	3.89
515.476	3.9
515.677	3.92
515.878	4
516.079	3.98
516.28	4.01
516.481	4.01
516.682	3.95
516.882	3.91
517.083	3.92
517.284	3.97
517.485	3.96
517.686	4.05
517.886	4.07
518.087	4.02
518.288	3.97
518.488	3.87
518.689	3.85
518.89	3.84
519.091	3.92
519.291	3.87
519.492	3.97
519.692	3.94
519.893	3.95
520.094	3.92
520.294	4.01
520.495	3.99
520.695	4.02
520.896	4
521.096	4.03
521.297	4.06
521.497	4.02
521.698	4.02
521.898	4.06
522.099	4.08
522.299	4.06
522.499	4.12
522.7	4.15
522.9	4.14
523.101	4.06
523.301	4.08
523.501	4.09
523.702	4.08
523.902	4.09
524.102	4.21
524.302	4.22
524.503	4.19
524.703	4.16
524.903	4.17
525.103	4.1
525.304	4.11
525.504	4.14
525.704	4.19
525.904	4.14
526.104	4.16
526.304	4.16
526.504	4.12
526.705	4.07
526.905	4.07
527.105	4.08
527.305	4.05
527.505	4.05
527.705	4.1
527.905	4.14
528.105	4.14
528.305	4.19
528.505	4.25
528.705	4.28
528.905	4.34
529.105	4.35
529.304	4.32
529.504	4.32
529.704	4.32
529.904	4.26
530.104	4.24
530.304	4.26
530.503	4.28
530.703	4.27
530.903	4.28
531.103	4.32
531.303	4.32
531.502	4.33
531.702	4.36
531.902	4.4
532.101	4.38
532.301	4.44
532.501	4.49
532.7	4.54
532.9	4.57
533.1	4.63
533.299	4.64
533.499	4.56
533.698	4.51
533.898	4.48
534.097	4.45
534.297	4.41
534.496	4.44
534.696	4.47
534.895	4.54
535.095	4.55
535.294	4.58
535.494	4.59
535.693	4.61
535.892	4.59
536.092	4.56
536.291	4.59
536.491	4.59
536.69	4.62
536.889	4.58
537.088	4.6
537.288	4.59
537.487	4.61
537.686	4.56
537.886	4.61
538.085	4.62
538.284	4.65
538.483	4.63
538.682	4.7
538.882	4.69
539.081	4.71
539.28	4.7
539.479	4.74
539.678	4.73
539.877	4.76
540.076	4.81
540.275	4.82
540.474	4.83
540.673	4.87
540.872	4.88
541.071	4.91
541.27	4.97
541.469	4.97
541.668	4.96
541.867	4.97
542.066	4.97
542.265	4.96
542.464	4.98
542.663	5.03
542.862	5.09
543.06	5.13
543.259	5.18
543.458	5.23
543.657	5.24
543.856	5.25
544.054	5.25
544.253	5.26
544.452	5.3
544.651	5.29
544.849	5.26
545.048	5.33
545.247	5.39
545.445	5.4
545.644	5.51
545.843	5.55
546.041	5.51
546.24	5.45
546.438	5.49
546.637	5.46
546.836	5.54
547.034	5.56
547.233	5.67
547.431	5.65
547.63	5.69
547.828	5.69
548.027	5.76
548.225	5.79
548.423	5.86
548.622	5.89
548.82	5.92
549.019	5.95
549.217	6.03
549.415	6
549.614	6.09
549.812	6.14
550.01	6.15
550.209	6.16
550.407	6.27
550.605	6.22
550.803	6.27
551.002	6.36
551.2	6.35
551.398	6.46
551.596	6.54
551.794	6.6
551.993	6.61
552.191	6.69
552.389	6.68
552.587	6.78
552.785	6.78
552.983	6.89
553.181	6.92
553.379	6.97
553.577	6.99
553.775	7.12
553.973	7.17
554.171	7.3
554.369	7.38
554.567	7.47
554.765	7.43
554.963	7.47
555.161	7.47
555.359	7.5
555.557	7.52
555.755	7.65
555.952	7.76
556.15	7.84
556.348	7.86
556.546	7.97
556.744	7.96
556.941	7.93
557.139	8.03
557.337	8.18
557.535	8.17
557.732	8.26
557.93	8.4
558.128	8.42
558.325	8.45
558.523	8.63
558.721	8.76
558.918	8.86
559.116	8.97
559.313	9.11
559.511	9.14
559.708	9.22
559.906	9.24
560.104	9.27
560.301	9.36
560.498	9.47
560.696	9.58
560.893	9.67
561.091	9.81
561.288	9.91
561.486	9.9
561.683	9.93
561.88	10.07
562.078	10.13
562.275	10.16
562.473	10.25
562.67	10.34
562.867	10.34
563.064	10.37
563.262	10.43
563.459	10.64
563.656	10.76
563.853	10.85
564.051	11
564.248	11.09
564.445	11.06
564.642	11.11
564.839	11.22
565.036	11.35
565.234	11.47
565.431	11.59
565.628	11.64
565.825	11.68
566.022	11.7
566.219	11.82
566.416	11.9
566.613	12
566.81	12.15
567.007	12.19
567.204	12.16
567.401	12.18
567.598	12.24
567.795	12.24
567.991	12.3
568.188	12.42
568.385	12.45
568.582	12.57
568.779	12.65
568.976	12.72
569.172	12.81
569.369	12.84
569.566	12.91
569.763	12.88
569.96	12.96
570.156	12.93
570.353	13.02
570.55	13.01
570.746	13.2
570.943	13.23
571.14	13.31
571.336	13.32
571.533	13.4
571.729	13.39
571.926	13.42
572.123	13.52
572.319	13.62
572.516	13.66
572.712	13.7
572.909	13.72
573.105	13.76
573.302	13.8
573.498	13.83
573.695	13.88
573.891	13.91
574.087	13.76
574.284	13.8
574.48	13.83
574.677	13.84
574.873	13.9
575.069	14.04
575.266	14.05
575.462	14
575.658	14
575.854	14.01
576.051	14.05
576.247	14.05
576.443	14.16
576.639	14.2
576.835	14.12
577.032	14.09
577.228	14.1
577.424	14.02
577.62	13.98
577.816	14.05
578.012	14.06
578.208	14.1
578.404	14.1
578.6	14.18
578.796	14.25
578.993	14.32
579.189	14.25
579.384	14.28
579.58	14.2
579.776	14.18
579.972	14.11
580.168	14.09
580.364	14.11
580.56	14.13
580.756	14.01
580.952	14.03
581.148	14.09
581.343	14.07
581.539	14.07
581.735	14.12
581.931	14.08
582.127	14
582.322	14.02
582.518	13.93
582.714	13.9
582.909	13.9
583.105	13.91
583.301	13.89
583.496	13.91
583.692	13.92
583.888	13.9
584.083	13.89
584.279	13.82
584.474	13.78
584.67	13.82
584.866	13.78
585.061	13.79
585.257	13.83
585.452	13.89
585.648	13.78
585.843	13.78
586.039	13.78
586.234	13.82
586.429	13.84
586.625	13.85
586.82	13.92
587.015	13.93
587.211	13.83
587.406	13.76
587.601	13.82
587.797	13.82
587.992	13.81
588.187	13.81
588.383	13.86
588.578	13.85
588.773	13.81
588.968	13.86
589.163	13.91
589.359	13.88
589.554	13.84
589.749	13.93
589.944	13.9
590.139	13.91
590.334	13.99
590.529	14.07
590.724	14.19
590.919	14.25
591.114	14.3
591.309	14.28
591.504	14.25
591.699	14.21
591.894	14.13
592.089	14.24
592.284	14.3
592.479	14.34
592.674	14.36
592.869	14.42
593.064	14.41
593.259	14.6
593.454	14.65
593.648	14.7
593.843	14.79
594.038	14.8
594.233	14.77
594.428	14.84
594.622	14.9
594.817	15.01
595.012	15.12
595.206	15.16
595.401	15.29
595.596	15.35
595.79	15.44
595.985	15.4
596.18	15.44
596.374	15.49
596.569	15.54
596.763	15.59
596.958	15.82
597.153	15.93
597.347	15.95
597.542	16.06
597.736	16.15
597.931	16.09
598.125	16.17
598.319	16.3
598.514	16.36
598.708	16.39
598.903	16.58
599.097	16.62
599.291	16.63
599.486	16.74
599.68	16.83
599.874	16.84
600.069	16.96
600.263	17.1
600.457	17.12
600.651	17.16
600.846	17.21
601.04	17.17
601.234	17.14
601.428	17.19
601.622	17.23
601.817	17.21
602.011	17.28
602.205	17.28
602.399	17.25
602.593	17.28
602.787	17.32
602.981	17.3
603.175	17.47
603.369	17.43
603.563	17.47
603.757	17.54
603.951	17.53
604.145	17.36
604.339	17.43
604.533	17.38
604.727	17.35
604.921	17.36
605.115	17.41
605.309	17.35
605.502	17.33
605.696	17.28
605.89	17.32
606.084	17.34
606.278	17.33
606.471	17.3
606.665	17.2
606.859	17.11
607.053	17.02
607.246	16.96
607.44	16.89
607.634	16.89
607.827	16.86
608.021	16.76
608.214	16.67
608.408	16.63
608.602	16.54
608.795	16.5
608.989	16.47
609.182	16.47
609.376	16.43
609.569	16.43
609.763	16.37
609.956	16.37
610.15	16.27
610.343	16.22
610.537	16.15
610.73	15.95
610.923	15.82
611.117	15.75
611.31	15.63
611.504	15.54
611.697	15.58
611.89	15.55
612.083	15.52
612.277	15.5
612.47	15.41
612.663	15.37
612.856	15.22
613.05	15.18
613.243	15.05
613.436	14.99
613.629	14.84
613.822	14.87
614.015	14.76
614.209	14.7
614.402	14.68
614.595	14.73
614.788	14.64
614.981	14.53
615.174	14.51
615.367	14.43
615.56	14.28
615.753	14.24
615.946	14.25
616.139	14.19
616.332	14.14
616.525	14.05
616.718	13.99
616.911	13.89
617.103	13.84
617.296	13.76
617.489	13.67
617.682	13.7
617.875	13.71
618.067	13.71
618.26	13.71
618.453	13.76
618.646	13.64
618.838	13.6
619.031	13.46
619.224	13.44
619.417	13.45
619.609	13.43
619.802	13.37
619.994	13.35
620.187	13.21
620.38	13.18
620.572	13.13
620.765	13.17
620.957	13.15
621.15	13.13
621.342	13.06
621.535	13.08
621.727	12.91
621.92	12.92
622.112	13
622.305	13.02
622.497	12.94
622.69	12.98
622.882	13.02
623.074	13.04
623.267	13.01
623.459	12.95
623.651	12.96
623.844	12.87
624.036	12.81
624.228	12.75
624.42	12.79
624.613	12.74
624.805	12.78
624.997	12.71
625.189	12.72
625.381	12.64
625.574	12.62
625.766	12.52
625.958	12.5
626.15	12.52
626.342	12.55
626.534	12.56
626.726	12.52
626.918	12.5
627.11	12.37
627.302	12.32
627.494	12.23
627.686	12.25
627.878	12.26
628.07	12.28
628.262	12.32
628.454	12.26
628.646	12.22
628.838	12.16
629.029	12.06
629.221	11.94
629.413	11.89
629.605	11.8
629.797	11.75
629.989	11.74
630.18	11.75
630.372	11.76
630.564	11.8
630.755	11.79
630.947	11.8
631.139	11.76
631.33	11.72
631.522	11.68
631.714	11.6
631.905	11.58
632.097	11.5
632.289	11.53
632.48	11.52
632.672	11.53
632.863	11.42
633.055	11.42
633.246	11.42
633.438	11.43
633.629	11.46
633.821	11.52
634.012	11.54
634.203	11.51
634.395	11.46
634.586	11.5
634.777	11.5
634.969	11.46
635.16	11.41
635.351	11.33
635.543	11.14
635.734	11.05
635.925	11.1
636.117	11.13
636.308	11.2
636.499	11.25
636.69	11.32
636.881	11.31
637.073	11.38
637.264	11.38
637.455	11.36
637.646	11.37
637.837	11.32
638.028	11.14
638.219	11.13
638.41	11.16
638.601	11.14
638.792	11.1
638.983	11.14
639.174	11.09
639.365	11.13
639.556	11.02
639.747	11.03
639.938	11.01
640.129	10.95
640.32	10.88
640.511	10.95
640.701	10.97
640.892	10.96
641.083	10.98
641.274	10.93
641.465	10.9
641.655	10.91
641.846	10.96
642.037	10.99
642.228	10.94
642.418	10.84
642.609	10.79
642.8	10.65
642.99	10.53
643.181	10.61
643.372	10.65
643.562	10.65
643.753	10.67
643.943	10.71
644.134	10.59
644.324	10.56
644.515	10.56
644.705	10.54
644.896	10.59
645.086	10.58
645.277	10.6
645.467	10.6
645.658	10.54
645.848	10.43
646.038	10.45
646.229	10.51
646.419	10.4
646.61	10.52
646.8	10.62
646.99	10.6
647.18	10.42
647.371	10.46
647.561	10.35
647.751	10.25
647.941	10.29
648.132	10.36
648.322	10.3
648.512	10.39
648.702	10.47
648.892	10.4
649.082	10.4
649.272	10.35
649.462	10.25
649.653	10.19
649.843	10.17
650.033	10.13
650.223	10.22
650.413	10.19
650.603	10.21
650.793	10.19
650.983	10.15
651.172	10.12
651.362	10.02
651.552	9.93
651.742	9.93
651.932	9.91
652.122	9.92
652.312	9.93
652.502	9.8
652.691	9.72
652.881	9.63
653.071	9.56
653.261	9.44
653.45	9.46
653.64	9.35
653.83	9.27
654.019	9.1
654.209	9.08
654.399	8.97
654.588	8.88
654.778	8.82
654.968	8.81
655.157	8.76
655.347	8.61
655.536	8.52
655.726	8.36
655.915	8.27
656.105	8.14
656.294	8.07
656.484	7.99
656.673	7.97
656.863	7.85
657.052	7.69
657.241	7.68
657.431	7.6
657.62	7.52
657.809	7.31
657.999	7.26
658.188	7.16
658.377	7.03
658.567	6.92
658.756	6.88
658.945	6.86
659.134	6.69
659.324	6.61
659.513	6.54
659.702	6.47
659.891	6.22
660.08	6.08
660.269	5.92
660.458	5.75
660.648	5.57
660.837	5.5
661.026	5.39
661.215	5.39
661.404	5.27
661.593	5.31
661.782	5.24
661.971	5.16
662.16	5.03
662.349	4.93
662.538	4.73
662.726	4.6
662.915	4.69
663.104	4.62
663.293	4.65
663.482	4.57
663.671	4.6
663.86	4.43
664.048	4.41
664.237	4.42
664.426	4.45
664.615	4.43
664.803	4.39
664.992	4.34
665.181	4.25
665.369	4.12
665.558	4.02
665.747	4.03
665.935	3.98
666.124	3.92
666.312	3.99
666.501	4.04
666.69	4.06
666.878	4.08
667.067	4.07
667.255	4.05
667.444	4.05
667.632	4.06
667.82	3.99
668.009	3.94
668.197	3.97
668.386	3.93
668.574	3.95
668.762	3.93
668.951	3.98
669.139	3.95
669.327	3.92
669.516	3.85
669.704	3.93
669.892	3.9
670.08	3.85
670.269	3.91
670.457	3.93
670.645	3.94
670.833	3.99
671.021	4.11
671.21	4.1
671.398	4.13
671.586	4.1
671.774	4.18
671.962	4.13
672.15	4.17
672.338	4.17
672.526	4.21
672.714	4.2
672.902	4.28
673.09	4.34
673.278	4.4
673.466	4.5
673.654	4.55
673.842	4.59
674.03	4.64
674.218	4.55
674.405	4.52
674.593	4.53
674.781	4.56
674.969	4.63
675.157	4.71
675.344	4.78
675.532	4.8
675.72	4.82
675.908	4.75
676.095	4.75
676.283	4.84
676.471	4.94
676.658	4.88
676.846	4.97
677.033	5.04
677.221	5.02
677.409	5.07
677.596	5.13
677.784	5.2
677.971	5.2
678.159	5.26
678.346	5.2
678.534	5.34
678.721	5.32
678.909	5.45
679.096	5.44
679.283	5.53
679.471	5.63
679.658	5.68
679.846	5.64
680.033	5.86
680.22	5.96
680.408	5.88
680.595	5.91
680.782	6
680.969	6.16
681.157	6.2
681.344	6.26
681.531	6.38
681.718	6.5
681.905	6.37
682.093	6.47
682.28	6.67
682.467	6.79
682.654	6.82
682.841	6.96
683.028	7
683.215	7.17
683.402	7.21
683.589	7.27
683.776	7.31
683.963	7.52
684.15	7.62
684.337	7.77
684.524	8
684.711	8.27
684.898	8.26
685.085	8.27
685.271	8.44
685.458	8.6
685.645	8.59
685.832	8.9
686.019	9.08
686.205	9.28
686.392	9.58
686.579	9.99
686.766	10.26
686.952	10.51
687.139	10.87
687.326	11.16
687.512	11.28
687.699	11.65
687.886	12.11
688.072	12.33
688.259	12.63
688.445	13.25
688.632	13.5
688.818	13.82
689.005	14.29
689.191	14.76
689.378	15.05
689.564	15.68
689.751	16.26
689.937	16.9
690.124	17.44
690.31	17.91
690.496	18.26
690.683	18.97
690.869	19.45
691.055	19.96
691.242	20.44
691.428	21.14
691.614	21.69
691.8	22.3
691.987	22.94
692.173	23.88
692.359	24.76
692.545	25.51
692.731	26.21
692.918	26.93
693.104	27.6
693.29	28.17
693.476	28.87
693.662	29.85
693.848	30.7
694.034	31.65
694.22	32.48
694.406	33.14
694.592	33.82
694.778	34.64
694.964	35.35
695.15	36.24
695.336	37.14
695.522	38.12
695.708	39.04
695.894	40.01
696.08	40.78
696.265	41.88
696.451	42.59
696.637	43.42
696.823	44.19
697.009	44.92
697.194	45.5
697.38	46.4
697.566	47.17
697.751	48
697.937	49.07
698.123	49.91
698.308	50.34
698.494	51.27
698.68	52.04
698.865	52.68
699.051	53.53
699.236	54.36
699.422	55.11
699.607	55.76
699.793	56.7
699.978	57.18
700.164	58.09
700.349	58.77
700.535	59.41
700.72	59.91
700.906	60.67
701.091	61.25
701.276	61.49
701.462	62.07
701.647	62.75
701.832	63.47
702.018	64.38
702.203	65.41
702.388	65.88
702.573	66.15
702.759	66.69
702.944	66.66
703.129	67.12
703.314	67.94
703.499	68.65
703.684	69.24
703.87	69.86
704.055	70.17
704.24	70.5
704.425	71.02
704.61	71.39
704.795	72.09
704.98	72.51
705.165	72.89
705.35	73.3
705.535	73.96
705.72	74.23
705.905	74.94
706.09	75.47
706.275	75.94
706.459	76.02
706.644	76.39
706.829	76.54
707.014	77.1
707.199	77.36
707.384	77.55
707.568	77.97
707.753	78.52
707.938	78.61
708.123	78.97
708.307	79.47
708.492	80.11
708.677	80.48
708.861	80.85
709.046	80.7
709.231	80.85
709.415	80.73
709.6	80.67
709.784	81
709.969	82.02
710.153	82.03
710.338	82.68
710.522	83.31
710.707	83.19
710.891	82.82
711.076	83.45
711.26	83.63
711.445	83.5
711.629	83.91
711.813	84.49
711.998	84.5
712.182	84.47
712.366	84.84
712.551	85.51
712.735	85.24
712.919	85.7
713.103	86.4
713.288	86.44
713.472	86.43
713.656	86.47
713.84	86.66
714.024	86.3
714.208	86.27
714.393	86.15
714.577	86.54
714.761	86.7
714.945	86.3
715.129	86.51
715.313	86.61
715.497	86.51
715.681	86.56
715.865	87.02
716.049	87.3
716.233	87.33
716.417	87.68
716.601	87.87
716.785	88.19
716.968	88.11
717.152	88.67
717.336	88.85
717.52	89.14
717.704	89.43
717.888	90.18
718.071	89.71
718.255	90.06
718.439	89.74
718.622	89.83
718.806	89.73
718.99	90.25
719.174	90.39
719.357	90.44
719.541	90.86
719.724	90.74
719.908	90.66
720.092	90.4
720.275	90.45
720.459	90.08
720.642	90.29
720.826	90.48
721.009	90.65
721.193	91.03
721.376	91.37
721.559	90.82
721.743	91.33
721.926	91.63
722.11	91.61
722.293	91.72
722.476	91.91
722.66	91.42
722.843	91.35
723.026	91.75
723.21	91.49
723.393	92.16
723.576	92.16
723.759	92.24
723.942	92.17
724.126	92.53
724.309	92.21
724.492	92.43
724.675	92.16
724.858	92.33
725.041	92.2
725.224	92.72
725.407	92.8
725.59	93.03
725.774	92.86
725.957	92.68
726.14	92.18
726.322	92.66
726.505	92.93
726.688	93.06
726.871	92.73
727.054	93.16
727.237	92.5
727.42	92.14
727.603	91.97
727.786	92.58
727.968	92.18
728.151	92.93
728.334	93.9
728.517	93.87
728.699	93.76
728.882	94.21
729.065	92.94
729.248	92.76
729.43	93.65
729.613	94.05
729.796	94.4
729.978	95.44
730.161	95.32
730.343	94.84
730.526	95.03
730.708	95.08
730.891	95.21
731.073	95.15
731.256	95.5
731.438	96.07
731.621	96.02
731.803	95.91
731.986	96.25
732.168	96.3
732.35	95.28
732.533	94.86
732.715	95.15
732.898	94.55
733.08	93.96
733.262	94.11
733.444	95.15
733.627	94.82
733.809	95.86
733.991	96.52
734.173	96.4
734.355	95.82
734.538	96.23
734.72	95.69
734.902	96.07
735.084	96.25
735.266	96.73
735.448	97.04
735.63	97.47
735.812	97.39
735.994	97.49
736.176	97.57
736.358	97.55
736.54	97.75
736.722	96.91
736.904	97.3
737.086	96.78
737.268	97.1
737.45	97.18
737.632	98.11
737.814	98.46
737.995	97.98
738.177	98.13
738.359	98.08
738.541	98.16
738.723	97.65
738.904	98.28
739.086	98.59
739.268	97.82
739.449	96.58
739.631	96.45
739.813	96.69
739.994	96.07
740.176	96.95
740.358	97.86
740.539	97.63
740.721	97.59
740.902	98.16
741.084	97.85
741.265	97.99
741.447	98.94
741.628	98.52
741.81	97.6
741.991	96.87
742.172	95.5
742.354	95.03
742.535	95.61
742.717	95.34
742.898	95.57
743.079	97.27
743.261	97.27
743.442	96.62
743.623	96.9
743.804	97.13
743.986	96.48
744.167	96.58
744.348	96.45
744.529	96.68
744.71	96.23
744.891	96.25
745.073	96.89
745.254	97.46
745.435	97.6
745.616	97.79
745.797	97.35
745.978	96.26
746.159	95.64
746.34	96.49
746.521	96.82
746.702	97.2
746.883	97.34
747.064	98.38
747.245	97.78
747.426	97.81
747.606	97.94
747.787	98.49
747.968	98.33
748.149	97.06
748.33	97.28
748.51	96.2
748.691	96.58
748.872	97.04
749.053	97.52
749.233	97.44
749.414	99.22
749.595	99.17
749.775	97.41
749.956	96.6
750.137	96.16
750.317	94.47
750.498	94.16
750.678	95.05
750.859	96.29
751.04	96.28
751.22	96.67
751.4	96.35
751.581	96.75
751.761	96.46
751.942	97.2
752.122	97.04
752.303	96.56
752.483	95.64
752.663	96.27
752.844	96.06
753.024	97.22
753.204	98.26
753.385	98.07
753.565	97.5
753.745	96.5
753.925	95.08
754.106	94.4
754.286	94.45
754.466	93.91
754.646	92.25
754.826	95.13
755.006	94.14
755.187	95.16
755.367	94.92
755.547	97.78
755.727	94.81
755.907	94.96
756.087	92.86
756.267	92.36
756.447	92.32
756.627	93.82
756.807	94.6
756.987	95.95
757.167	96.11
757.346	94.6
757.526	94.34
757.706	94.77
757.886	94.98
758.066	96.37
758.246	96.93
758.425	95.05
758.605	93.59
758.785	94.25
758.965	95.02
759.144	94.02
759.324	95.98
759.504	96.65
759.683	94.49
759.863	92.76
760.043	93.81
760.222	93.45
760.402	93.5
760.581	95.26
760.761	95.8
760.94	96.43
761.12	95.94
761.299	96.44
761.479	95.96
761.658	94.29
761.838	94.3
762.017	95.45
762.197	94.03
762.376	93.97
762.555	96.05
762.735	96.23
762.914	95.02
763.093	95.74
763.273	95.29
763.452	93.55
763.631	92.27
763.81	92.91
763.99	92.45
764.169	93.32
764.348	93.25
764.527	92.28
764.706	91.52
764.885	92.15
765.064	92.05
765.243	93.3
765.423	94.07
765.602	95.56
765.781	94.81
765.96	94.21
766.139	93.4
766.318	94.25
766.497	91.49
766.676	91.35
766.854	92.43
767.033	94.97
767.212	97.13
767.391	100.38
767.57	103.35
767.749	101.71
767.928	100.28
768.106	97.27
768.285	94.94
768.464	93.35
768.643	91.37
768.821	90.54
769	89.83
769.179	90.35
769.357	90.55
769.536	91.47
769.715	90.56
769.893	90.61
770.072	88.98
770.25	86.7
770.429	86.92
770.607	88.59
770.786	89.08
770.964	92.28
771.143	93.62
771.321	92.47
771.5	92.87
771.678	93.86
771.857	90.85
772.035	91.81
772.213	93.28
772.392	90.28
772.57	89.04
772.748	89.99
772.927	89.56
773.105	90.86
773.283	91.74
773.461	93.21
773.64	92.78
773.818	94.23
773.996	94.56
774.174	95.54
774.352	93.09
774.531	92.7
774.709	91.78
774.887	88.75
775.065	88.13
775.243	90.08
775.421	91.18
775.599	91.05
775.777	91.58
775.955	91.89
776.133	91.66
776.311	90.2
776.489	90.55
776.667	92.11
776.844	91.27
777.022	91
777.2	91.72
777.378	88.89
777.556	89.86
777.734	90.94
777.911	91.63
778.089	93.37
778.267	95.57
778.445	98.25
778.622	97.76
778.8	95.87
778.978	94.67
779.155	95.19
779.333	91.65
779.511	91.42
779.688	94.39
779.866	94.53
780.043	95.43
780.221	95.26
780.398	96.16
780.576	93.7
780.753	91.96
780.931	90.23
781.108	92.28
781.286	91.83
781.463	91.25
781.64	92.47
781.818	92.7
781.995	90.41
782.172	88.87
782.35	90.71
782.527	90.95
782.704	89.76
782.882	86.76
783.059	86.24
783.236	86.86
783.413	85.32
783.59	85.57
783.768	88.65
783.945	88.55
784.122	86.24
784.299	85.75
784.476	82.3
784.653	81.86
784.83	82.09
785.007	81.2
785.184	80.69
785.361	82.61
785.538	82.22
785.715	84.61
785.892	83.64
786.069	87.04
786.246	90.01
786.423	90.67
786.6	88.54
786.776	90.66
786.953	87.97
787.13	86.88
787.307	84.27
787.484	81.36
787.66	80.13
787.837	80.17
788.014	81.92
788.191	81.43
788.367	81.36
788.544	79.99
788.721	80.53
788.897	78.58
789.074	79.43
789.25	81.37
789.427	81.26
789.603	77.69
789.78	75.55
789.956	75.8
790.133	74.18
790.309	77.41
790.486	79.44
790.662	80.17
790.839	78.62
791.015	82.35
791.192	79.69
791.368	78.16
791.544	81.32
791.721	85.01
791.897	80.5
792.073	79.43
792.249	77.56
792.426	76.07
792.602	74.99
792.778	76.57
792.954	76.17
793.13	80.36
793.307	77.6
793.483	74.89
793.659	76.32
793.835	82.84
794.011	85.08
794.187	87.31
794.363	90.58
794.539	92.64
794.715	86.88
794.891	87.23
795.067	83.73
795.243	83.84
795.419	81.8
795.595	89.11
795.771	85.43
795.947	88.58
796.122	83.58
796.298	82.07
796.474	81.98
796.65	83.57
796.826	79.48
797.001	82.78
797.177	76.99
797.353	67.37
797.529	70.11
797.704	75.84
797.88	74.26
798.056	82.54
798.231	87.62
798.407	87.55
798.582	82.21
798.758	86.78
798.934	85.59
799.109	82.81
799.285	81.22
799.46	79.67
799.636	77.18
799.811	76.52
799.986	77.02
800.162	69.73
800.337	75.45
800.513	75.26
800.688	73.6
800.863	75.45
801.039	78.66
801.214	72.26
801.389	69.13
801.565	68.96
801.74	65.78
801.915	69.6
802.09	68.77
802.265	68.41
802.441	67.19
802.616	70.75
802.791	68.07
802.966	72.52
803.141	74.01
803.316	74.43
803.491	74.22
803.666	78.1
803.841	72.81
804.016	70.18
804.191	71.27
804.366	70.12
804.541	68.73
804.716	74.98
804.891	77.1
805.066	76.37
805.241	71.52
805.416	73.1
805.591	75.61
805.765	81.24
805.94	79.64
806.115	82.81
806.29	78.17
806.464	71.71
806.639	69.38
806.814	74.75
806.989	75.87
807.163	78.7
807.338	81.1
807.512	81.3
807.687	80.14
807.862	76.02
808.036	81.74
808.211	81.02
808.385	84.06
808.56	81.94
808.734	74.5
808.909	60.79
809.083	59.27
809.258	54.86
809.432	53.08
809.606	60.54
809.781	67.41
809.955	70.31
810.13	65.79
810.304	67.45
810.478	69.76
810.652	64.38
810.827	66.96
811.001	69.67
811.175	72.84
811.349	72.18
811.524	85.4
811.698	85.36
811.872	91.05
812.046	86.05
812.22	83.75
812.394	73.17
812.568	66.97
812.742	64.38
812.916	70.14
813.09	64.16
813.264	64.1
813.438	68.55
813.612	62.92
813.786	56.07
813.96	63.84
814.134	65.94
814.308	63.07
814.482	64.02
814.656	64.14
814.83	64.57
815.003	70.46
815.177	72.77
815.351	79.43
815.525	84.59
815.698	87.66
815.872	75.26
816.046	71.31
816.219	70.48
816.393	61.43
816.567	55.27
816.74	55.1
816.914	54.04
817.088	49.97
817.261	52.97
817.435	58.53
817.608	58.68
817.782	58.55
817.955	60.72
818.129	62.99
818.302	57.08
818.475	72.55
818.649	72.55
818.822	76.9
818.996	86.64
819.169	94.42
819.342	82.04
819.516	88.33
819.689	78.32
819.862	73.56
820.035	75.8
820.209	76.34
820.382	55.73
820.555	53.46
820.728	48.06
820.901	36.45
821.075	46.05
821.248	76.22
821.421	75.96
821.594	71.83
821.767	77.86
821.94	60.66
822.113	55.03
822.286	64.51
822.459	71.25
822.632	72.28
822.805	73.98
822.978	69.18
823.151	69.12
823.324	53.39
823.496	36.27
823.669	44.85
823.842	56.78
824.015	51.35
824.188	51.71
824.361	68.91
824.533	64.1
824.706	54.8
824.879	58.83
825.051	77.41
825.224	75.97
825.397	74.48
825.569	65.7
825.742	73.39
825.915	72.62
826.087	61.01
826.26	52.94
826.432	61.02
826.605	56.03
826.777	52.14
826.95	62.71
827.122	61.01
827.295	72.73
827.467	87.11
827.64	79.08
827.812	73.1
827.984	90.52
828.157	80.43
828.329	58.1
828.501	54.75
828.674	54.83
828.846	56.18
829.018	50.18
829.19	47.25
829.363	48.33
829.535	56.86
829.707	58.02
829.879	44.64
830.051	47.84
830.223	60.62
830.395	56.64
830.568	52.13
830.74	66.44
830.912	71.53
831.084	64.99
831.256	64.54
831.428	60.57
831.6	43.5
831.772	43.55
831.943	42.27
832.115	43.64
832.287	47.82
832.459	61.79
832.631	60.71
832.803	59.98
832.975	58.26
833.146	61.68
833.318	61.9
833.49	50.65
833.662	69.62
833.833	72.93
834.005	72.86
834.177	80.89
834.348	93.42
834.52	70.77
834.692	63.57
834.863	63.2
835.035	68.16
835.206	58.06
835.378	57.61
835.549	56.93
835.721	47.79
835.892	39.89
836.064	49.24
836.235	57.07
836.407	53.76
836.578	59.75
836.749	54.91
836.921	34.98
837.092	20.5
837.264	23.41
837.435	19.62
837.606	26.93
837.777	35.57
837.949	40.14
838.12	49.97
838.291	51.56
838.462	52.63
838.633	57.93
838.805	67.09
838.976	56.55
839.147	60.32
839.318	63.83
839.489	44.13
839.66	52.56
839.831	47.24
840.002	39.08
840.173	46.16
840.344	42.83
840.515	24.97
840.686	27.97
840.857	44.21
841.028	36.27
841.199	44.41
841.369	61.31
841.54	71.95
841.711	73.87
841.882	86.79
842.053	92.91
842.223	81.82
842.394	70.45
842.565	38.38
842.736	42
842.906	22.22
843.077	45.48
843.248	60.77
843.418	72.66
843.589	57.52
843.759	69.02
843.93	39.96
844.101	31.29
844.271	50.73
844.442	56.07
844.612	52.85
844.783	59.24
844.953	53.88
845.123	43.02
845.294	59.57
845.464	70.72
845.635	83.73
845.805	91.2
845.975	99.68
846.146	66.4
846.316	60.12
846.486	32.57
846.656	39.13
846.827	31.7
846.997	32.87
847.167	16.89
847.337	32.88
847.507	37.83
847.677	34.32
847.848	37.91
848.018	48.63
848.188	45.83
848.358	36.69
848.528	52.38
848.698	41.66
848.868	55.55
849.038	57.05
849.208	65.88
849.378	66.51
849.548	69.03
849.718	73.29
849.887	101.88
850.057	76.96
850.227	71.88
850.397	72.93
850.567	56.52
850.737	60.37
850.906	62.34
851.076	39.29
851.246	69.8
851.415	64.92
851.585	54.52
851.755	58.01
851.924	65.71
852.094	58.95
852.264	47.66
852.433	18.64
852.603	25.16
852.772	43.02
852.942	48.88
853.111	48.25
853.281	58.42
853.45	36.57
853.62	15.37
853.789	-1.4
853.959	23.08
854.128	39.44
854.297	62.96
854.467	65.93
854.636	75.88
854.805	76.25
854.975	56.22
855.144	39.01
855.313	46.71
855.482	29.61
855.652	15.63
855.821	31.91
855.99	39.4
856.159	23.67
856.328	39.74
856.497	43.8
856.667	40.69
856.836	58.27
857.005	65.2
857.174	53.96
857.343	30.38
857.512	24.62
857.681	-10.73
857.85	12.29
858.019	-24.27
858.188	-8.22
858.356	39.95
858.525	47.6
858.694	49.79
858.863	44.83
859.032	59.37
859.201	0.08
859.369	-29.31
859.538	-5.99
859.707	-10.28
859.876	-8.55
860.044	13.87
860.213	35.97
860.382	39.71
860.55	42.37
860.719	54.66
860.888	63.3
861.056	49.9
861.225	8.22
861.393	24.91
861.562	14.96
861.73	18.52
861.899	14.48
862.067	20.59
862.236	4.56
862.404	9.78
862.572	21.7
862.741	16.11
862.909	39.5
863.078	35.15
863.246	13.1
863.414	24.01
863.582	19.87
863.751	6.16
863.919	30.85
864.087	29.74
864.255	16.11
864.424	39.54
864.592	39.37
864.76	15.91
864.928	52.42
865.096	43.83
865.264	27.39
865.432	24.73
865.6	31.16
865.768	7.09
865.936	18.2
866.104	27.07
866.272	37.22
866.44	36.21
866.608	20.13
866.776	18.83
866.944	52.65
867.112	47.25
867.28	50.81
867.448	61.63
867.615	62.29
867.783	52.33
867.951	61.58
868.119	85.03
868.286	62.78
868.454	53.62
868.622	46
868.789	45.59
868.957	29.13
869.125	58.51
869.292	44.65
869.46	42.28
869.627	34.08
869.795	31.98
869.963	25.63
870.13	74.98
870.298	84.02
870.465	77.84
870.632	63.64
870.8	57.58
870.967	22.39
871.135	13.32
871.302	12.5
871.469	23.86
871.637	6.9
871.804	37.14
871.971	23.9
872.139	13.08
872.306	7.21
872.473	-1.58
872.64	-31.82
872.807	6.06
872.975	-26.46
873.142	37.99
873.309	38.02
873.476	53.48
873.643	62.17
873.81	71.36
873.977	73.84
874.144	89.32
874.311	73.64
874.478	67.87
874.645	12.78
874.812	57.17
874.979	56.6
875.146	77.41
875.313	63.6
875.48	107.78
875.647	89.01
875.813	61.56
875.98	15.04
876.147	-14.3
876.314	36.38
876.481	22.37
876.647	22.88
876.814	46.8
876.981	62.55
877.147	33.4
877.314	58.52
877.481	66.73
877.647	70.91
877.814	74.55
877.98	67.83
878.147	56.45
878.314	74.69
878.48	72.13
878.647	67.21
878.813	76.88
878.979	56.91
879.146	51.81
879.312	60.42
879.479	45.33
879.645	39.44
879.811	61.1
879.978	57.51
880.144	36.76
880.31	26.73
880.477	43.26
880.643	7.03
880.809	-65.94
880.975	-13.5
881.142	-52.26
881.308	366.22
881.474	323.13
881.64	44.61
881.806	8.48
881.972	15.93
882.138	11.98
882.304	14.21
882.47	-42.28
882.636	-76.18
882.802	-54.33
882.968	-44
883.134	-29.44
883.3	-0.28
883.466	76.13
883.632	37.48
883.798	-79.89
883.964	-55.48
884.129	-533.19
884.295	-113.61
884.461	-116.52
884.627	14.33
884.793	-13.53
884.958	22.87
885.124	30.63
885.29	26.62
885.455	22.54
885.621	52.47
885.787	-9.23
885.952	-31.86
886.118	2.51
886.283	-3.79
886.449	-11.14
886.614	7.08
886.78	14.97
886.945	13.32
887.111	-2.61
887.276	-24.13
887.442	-116.24
887.607	-56.57
887.773	-42.75
887.938	-60.59
888.103	-43.24
888.269	10.69
888.434	10.01
888.599	4.82
888.764	32.38
888.93	55.18
889.095	32.05
889.26	12.43
889.425	1.06
889.59	-6.84
889.756	-7.56
889.921	-24.44
890.086	-45.36
890.251	2.06
890.416	-9.56
890.581	-39.71
890.746	94.5
890.911	67.54
891.076	79.08
891.241	67.15
891.406	54.77
891.571	5.15
891.736	5.7
891.901	48.93
892.065	72.82
892.23	105.93
892.395	104.15
892.56	69.88
892.725	41.3
892.889	82.87
893.054	54.56
893.219	-0.56
893.384	11.81
893.548	-1.8
893.713	-32.81
893.878	-101.49
