Data from Ofra_PS_T2_2A_9CX06_Reflection_1.txt Node
Date: Wed Jul 21 17:26:15 EDT 2021
User: Adam
Spectrometer: FLMT01687
Trigger mode: 0
Integration Time (sec): 1.100000E0
Scans to average: 2
Electric dark correction enabled: true
Nonlinearity correction enabled: false
Boxcar width: 2
XAxis mode: Wavelengths
Number of Pixels in Spectrum: 3648
>>>>>Begin Spectral Data<<<<<
179.494	510.4
179.716	614.59
179.937	586.29
180.158	619
180.38	979.37
180.601	423.2
180.823	130.69
181.044	-40.76
181.265	-74.26
181.486	59.79
181.708	111.09
181.929	559.18
182.15	-538.03
182.372	29.05
182.593	55.05
182.814	44.75
183.035	97.91
183.257	91.73
183.478	-2.77
183.699	21.63
183.92	-3.63
184.141	-27.3
184.363	-67.84
184.584	38.62
184.805	43.63
185.026	66.27
185.247	78.3
185.468	42.7
185.689	19.78
185.91	13.08
186.132	11.76
186.353	-1.2
186.574	66.29
186.795	66.38
187.016	31.42
187.237	4.11
187.458	-10.72
187.679	-37.75
187.9	-19.62
188.121	-8.99
188.342	48.11
188.563	47.6
188.784	101.83
189.005	92.18
189.226	130.55
189.447	100
189.667	121.84
189.888	-98.03
190.109	-1022.08
190.33	-652.9
190.551	-1200.88
190.772	-261.74
190.993	-240.81
191.214	-163.97
191.434	-106.25
191.655	-38.4
191.876	-111.55
192.097	-163.81
192.318	-212.3
192.538	-296.77
192.759	-210.11
192.98	-44.7
193.201	-6.05
193.421	1.58
193.642	21.97
193.863	38.47
194.083	-6.7
194.304	-13.67
194.525	-9.42
194.745	-27.41
194.966	-69.54
195.187	-58.5
195.407	-84.28
195.628	-135.75
195.848	-135.74
196.069	-107.53
196.29	-55.63
196.51	-68.85
196.731	-51.5
196.951	-53.47
197.172	-87.78
197.392	-121.44
197.613	-111.21
197.833	-142.79
198.054	-122.48
198.274	-54.91
198.495	-71.11
198.715	-37.63
198.936	-59.37
199.156	-47.86
199.377	-161.31
199.597	-161.65
199.817	-194.48
200.038	-109.32
200.258	-213.91
200.479	-113.94
200.699	-106.18
200.919	-23.32
201.14	-58.31
201.36	-36.36
201.58	8.5
201.801	44.03
202.021	20.25
202.241	37.43
202.461	33.1
202.682	-58.34
202.902	-166.09
203.122	-105.86
203.342	-113.13
203.563	-76.92
203.783	-28.01
204.003	-72.68
204.223	-85.5
204.443	8.03
204.663	-7.93
204.884	2.13
205.104	68.7
205.324	112.95
205.544	96.52
205.764	92.68
205.984	90.92
206.204	80.3
206.424	55.02
206.644	20.25
206.864	34.24
207.084	18.55
207.304	3.84
207.525	-93.12
207.745	-54.78
207.964	-30.16
208.184	-83.06
208.404	-102.24
208.624	-93.72
208.844	-54.3
209.064	-303.69
209.284	-257.51
209.504	-140.9
209.724	2.82
209.944	-11.84
210.164	34.75
210.384	36.24
210.604	32.28
210.823	-17.07
211.043	-43.16
211.263	-48.81
211.483	-46.97
211.703	-98.37
211.922	-66.91
212.142	3.18
212.362	27.94
212.582	3.21
212.801	9.3
213.021	-19.1
213.241	-39.86
213.461	-75.27
213.68	-81.65
213.9	-27.71
214.12	-8.32
214.339	-78.21
214.559	-58.87
214.779	-16.53
214.998	-50.79
215.218	-107.03
215.438	-67.06
215.657	-90.2
215.877	-87.6
216.096	-36
216.316	-17.8
216.535	-18.12
216.755	-4.17
216.974	-112.05
217.194	-161
217.413	-155.54
217.633	-154.41
217.852	-280.04
218.072	-112.71
218.291	-63.53
218.511	-26.38
218.73	-44.26
218.95	-29
219.169	-26.86
219.389	-57.74
219.608	-44.67
219.827	-31.96
220.047	-14.93
220.266	-12.31
220.485	-16.45
220.705	-4.23
220.924	-22.52
221.143	14.86
221.363	-1.06
221.582	12.02
221.801	21.03
222.021	38.58
222.24	-14.39
222.459	43.2
222.678	5.17
222.897	-67.56
223.117	-123.85
223.336	-131.65
223.555	-94.86
223.774	-31.83
223.993	-34.7
224.213	17.23
224.432	4.75
224.651	24.77
224.87	-11.81
225.089	13.52
225.308	9.23
225.527	36.97
225.746	37.05
225.965	33.61
226.184	1.64
226.404	14.33
226.623	-17.67
226.842	-9.69
227.061	9.34
227.28	24.19
227.499	14.68
227.718	30.94
227.936	22.02
228.155	41.21
228.374	27.9
228.593	19.41
228.812	7.78
229.031	-6.13
229.25	-60.39
229.469	-51.08
229.688	-32.57
229.907	7.92
230.125	37.51
230.344	44.22
230.563	49.58
230.782	63.9
231.001	-2.18
231.22	0.39
231.438	22.16
231.657	16.11
231.876	2.21
232.095	50.14
232.313	37.39
232.532	39.44
232.751	0.21
232.969	-19.76
233.188	-101.34
233.407	-13.02
233.625	-26.11
233.844	-47.89
234.063	-41.54
234.281	-22.65
234.5	-36.99
234.719	-30.33
234.937	16.19
235.156	22.52
235.374	23.72
235.593	12.65
235.811	18.73
236.03	-10.12
236.249	-30.79
236.467	-23.89
236.686	-3.42
236.904	1.21
237.123	-16.1
237.341	-27.15
237.559	-21.15
237.778	-53.76
237.996	-74.83
238.215	-32.53
238.433	-1.52
238.652	-0.7
238.87	-21.33
239.088	-2.96
239.307	-16.46
239.525	-29.66
239.743	-58.47
239.962	-30.34
240.18	-40.26
240.398	-74.37
240.617	-87.79
240.835	-55.25
241.053	-36.99
241.271	-29.05
241.49	0.8
241.708	-8.19
241.926	-26.32
242.144	-10.05
242.363	-63.48
242.581	-89.87
242.799	-66.64
243.017	-31.75
243.235	-57.11
243.453	-34.31
243.672	-24.5
243.89	-12.71
244.108	-32.8
244.326	-1.83
244.544	-7.45
244.762	-12.61
244.98	-10.12
245.198	-7.75
245.416	-53.37
245.634	-33.43
245.852	-33.92
246.07	-48.36
246.288	-30.41
246.506	-47.34
246.724	-51.75
246.942	-46.87
247.16	-0.74
247.378	11.05
247.596	51.42
247.814	54.37
248.032	18.51
248.25	17.96
248.468	10.43
248.685	3.27
248.903	18.36
249.121	36.48
249.339	-10.12
249.557	-32.76
249.775	-20.34
249.992	-79.61
250.21	-80.35
250.428	-54.34
250.646	-76.51
250.863	-106.49
251.081	-67.67
251.299	-56.01
251.517	-39.46
251.734	-25.27
251.952	-29.52
252.17	-24.74
252.387	-20.4
252.605	-34.81
252.823	-20.29
253.04	1
253.258	18.17
253.475	3.26
253.693	31.74
253.911	23.58
254.128	24.22
254.346	8.92
254.563	-5.94
254.781	-25.92
254.998	-52.45
255.216	-45.41
255.433	-38.02
255.651	12.49
255.868	23.42
256.086	53.42
256.303	33.74
256.521	28.87
256.738	-3.76
256.956	-33.67
257.173	-57.13
257.39	-85.05
257.608	-106.9
257.825	-33.06
258.043	15.28
258.26	30.06
258.477	77.81
258.695	66.45
258.912	29.21
259.129	13.21
259.346	-18.13
259.564	-49.39
259.781	-63.27
259.998	-4.71
260.216	21.04
260.433	52.46
260.65	29.21
260.867	43.48
261.084	6.3
261.302	-14.18
261.519	-34.51
261.736	-44.98
261.953	-66.25
262.17	-46.86
262.387	-93.77
262.604	-137.41
262.822	-125.14
263.039	-97.85
263.256	-121.93
263.473	-82.01
263.69	-33.7
263.907	-3.14
264.124	4.56
264.341	0.47
264.558	2.84
264.775	15.34
264.992	1.56
265.209	3.32
265.426	32.9
265.643	39.26
265.86	42.53
266.077	58.54
266.294	43.97
266.51	-15.99
266.727	-20.87
266.944	-16.76
267.161	-48.04
267.378	-24.17
267.595	26
267.812	7.09
268.028	-19.45
268.245	14.66
268.462	-16.1
268.679	-41.77
268.896	0.12
269.112	11.22
269.329	5.98
269.546	9.55
269.763	-0.83
269.979	-10.8
270.196	-16.42
270.413	-43.4
270.629	-66.57
270.846	-74.3
271.063	-68.97
271.279	-85.27
271.496	-74.06
271.712	-27.84
271.929	4.58
272.146	-10.2
272.362	1.55
272.579	32.36
272.795	37.88
273.012	25.27
273.228	19.85
273.445	-6.91
273.661	-30.36
273.878	-75.85
274.094	-61.02
274.311	-77.48
274.527	6.3
274.744	9.45
274.96	13.86
275.177	33.46
275.393	37.64
275.609	29.01
275.826	41.87
276.042	36.78
276.259	15.24
276.475	30.63
276.691	29.42
276.908	7.76
277.124	18.83
277.34	17.35
277.557	9.85
277.773	-9.69
277.989	-1.41
278.205	2.08
278.422	22.5
278.638	24.67
278.854	50.14
279.07	45.38
279.286	21.42
279.503	-12.23
279.719	-39.88
279.935	-66.2
280.151	-98.45
280.367	-59.94
280.583	-89.91
280.799	-58.17
281.016	-77.64
281.232	-24.43
281.448	-19.56
281.664	7.16
281.88	-21.51
282.096	2.39
282.312	22.06
282.528	32.21
282.744	33.71
282.96	41.33
283.176	25.08
283.392	9.09
283.608	-8.48
283.824	-14.99
284.04	1.58
284.256	14.34
284.471	11.89
284.687	12.67
284.903	44.28
285.119	61.42
285.335	27.2
285.551	38.71
285.767	20.56
285.982	8.24
286.198	-53.9
286.414	5.59
286.63	1.94
286.846	37.12
287.061	9.94
287.277	49.92
287.493	32.44
287.709	39.63
287.924	7.13
288.14	47.6
288.356	36.12
288.571	40.55
288.787	28.26
289.003	36.81
289.218	15.34
289.434	-21.15
289.65	-2.41
289.865	-5.98
290.081	8.63
290.296	11.31
290.512	20.43
290.727	-29.71
290.943	-37.04
291.159	-46.45
291.374	-62.33
291.59	-81.61
291.805	-55.78
292.021	-38.72
292.236	-35.64
292.451	-17.95
292.667	-1.18
292.882	7.91
293.098	3.69
293.313	-21.67
293.529	-28.54
293.744	-43.3
293.959	-57.84
294.175	-43.76
294.39	7.38
294.605	25.24
294.821	38.58
295.036	55.01
295.251	54.52
295.467	17.12
295.682	8.29
295.897	-51.12
296.112	-68.63
296.328	-61.03
296.543	-72.99
296.758	-83.52
296.973	-7.49
297.188	24.86
297.404	3.78
297.619	4.45
297.834	9.51
298.049	-15.32
298.264	-45.77
298.479	-1.86
298.694	6.73
298.909	19.63
299.125	28.4
299.34	37.25
299.555	7.48
299.77	1.87
299.985	-40.19
300.2	-93.8
300.415	-104.64
300.63	-63.05
300.845	-62.55
301.06	-61.19
301.275	-30.78
301.49	-22.76
301.704	-30.38
301.919	-45.54
302.134	-45.41
302.349	-34.65
302.564	-97.56
302.779	-136.55
302.994	-116.3
303.209	-92.86
303.423	-78.83
303.638	11.71
303.853	-2.38
304.068	4.76
304.283	7.88
304.497	-2.09
304.712	-18.71
304.927	-9.22
305.142	-24.4
305.356	-13.06
305.571	-7.99
305.786	-12.19
306	-27.6
306.215	-17.83
306.43	-54.22
306.644	-64.07
306.859	-32.65
307.074	-16.39
307.288	-43.5
307.503	-36.6
307.717	-35.38
307.932	-42.81
308.147	-37.56
308.361	-13.06
308.576	-31.92
308.79	-73.45
309.005	-47.12
309.219	-36.01
309.434	-37.29
309.648	-33.72
309.863	-1.78
310.077	-2.17
310.292	-22.42
310.506	-16.99
310.72	2.89
310.935	10.06
311.149	4.61
311.364	28.69
311.578	23.2
311.792	5.2
312.007	0.89
312.221	-19.24
312.435	-9.47
312.649	-17.99
312.864	17.15
313.078	35.17
313.292	106.05
313.507	62.98
313.721	101.22
313.935	49.78
314.149	35.97
314.363	12.18
314.578	21.75
314.792	25.8
315.006	4.41
315.22	22.62
315.434	34.06
315.648	28.96
315.862	31.27
316.077	28.49
316.291	-7.22
316.505	-14.86
316.719	-32.94
316.933	-64.14
317.147	-38.98
317.361	-82.62
317.575	-100.91
317.789	-116.17
318.003	-170.57
318.217	-155.58
318.431	-47.73
318.645	8.27
318.859	-1.29
319.073	25.35
319.287	7.01
319.5	-19.74
319.714	-70.96
319.928	-91.26
320.142	-109.98
320.356	-36.92
320.57	-5.55
320.784	-24.97
320.997	-20.54
321.211	-36.92
321.425	-98.29
321.639	-129.86
321.853	-46.45
322.066	-29.8
322.28	-24.49
322.494	-13.63
322.707	13.91
322.921	-13.85
323.135	-12.79
323.349	-0.88
323.562	-19.76
323.776	-39.37
323.989	-31.59
324.203	-52.38
324.417	-68.67
324.63	-70.68
324.844	-60.11
325.057	-72.3
325.271	-40.59
325.485	-3.49
325.698	18.66
325.912	27.32
326.125	13.17
326.339	23.86
326.552	6.49
326.766	-7.69
326.979	3.23
327.193	42.07
327.406	17.08
327.619	6.36
327.833	26.96
328.046	-5.61
328.26	-46.75
328.473	-21.91
328.686	-50.11
328.9	-47.65
329.113	-9.27
329.326	-16.23
329.54	-16.56
329.753	-24.19
329.966	-49.13
330.179	-40.34
330.393	-0.26
330.606	-8.89
330.819	25.18
331.032	39.44
331.246	35.28
331.459	52.73
331.672	52.55
331.885	34.85
332.098	7.25
332.311	6.98
332.525	-59.39
332.738	-47.08
332.951	-3.12
333.164	26.1
333.377	31.07
333.59	48.72
333.803	58.72
334.016	40.06
334.229	42.93
334.442	38.99
334.655	58.09
334.868	55.82
335.081	44.45
335.294	22.09
335.507	15.37
335.72	-2.74
335.933	-23.28
336.146	-22.7
336.359	-6.27
336.572	-23.05
336.785	-51.57
336.997	-34.08
337.21	-19.18
337.423	-34.4
337.636	-37.16
337.849	0.28
338.062	-17.24
338.274	-13.55
338.487	-25.59
338.7	-28.05
338.913	-86.94
339.125	-92.81
339.338	-134.43
339.551	-105.56
339.763	-54.26
339.976	-23.97
340.189	-6.26
340.402	-1.77
340.614	-3.17
340.827	-18.27
341.039	-33.23
341.252	-44.1
341.465	-11.19
341.677	-9.2
341.89	-34.06
342.102	15.4
342.315	13.97
342.527	-28.17
342.74	-33.15
342.952	-1.81
343.165	-20.34
343.377	10.5
343.59	5.2
343.802	29.87
344.015	22.81
344.227	37.23
344.44	13.3
344.652	22.7
344.864	2.4
345.077	28.03
345.289	20.46
345.502	28.11
345.714	25.31
345.926	28.53
346.139	8.75
346.351	27.49
346.563	36.7
346.775	44.85
346.988	30.4
347.2	23.81
347.412	-15.56
347.624	-43.66
347.837	-71.53
348.049	-43.82
348.261	-15.86
348.473	-17.58
348.685	-33.61
348.897	-23.46
349.11	-35.87
349.322	-50.58
349.534	-32.9
349.746	-19.56
349.958	-32.32
350.17	-24.07
350.382	-7.5
350.594	-1.62
350.806	12.25
351.018	23.89
351.23	4.77
351.442	-37.73
351.654	-64.39
351.866	-54.17
352.078	-44.16
352.29	-17.6
352.502	10.72
352.714	26.73
352.926	6.76
353.138	-2.9
353.35	-7.1
353.561	-10.75
353.773	-35.69
353.985	-18.11
354.197	-27.4
354.409	-32.23
354.621	-37.24
354.832	-25.67
355.044	-35.46
355.256	-28.75
355.468	-14.16
355.679	-20.66
355.891	-14.96
356.103	-17.86
356.314	-2.02
356.526	-1.15
356.738	6.08
356.949	5.37
357.161	7.41
357.373	-2.63
357.584	-9.92
357.796	-0.18
358.008	-8.95
358.219	16.31
358.431	13.71
358.642	18.98
358.854	15.17
359.065	8.65
359.277	-44.89
359.488	-57.54
359.7	-90.2
359.911	-101.82
360.123	-68.05
360.334	-60.05
360.546	-74.41
360.757	-71.91
360.969	-54.61
361.18	-51.7
361.391	-32.65
361.603	-29.7
361.814	-4.83
362.025	-8.98
362.237	-12.16
362.448	-4.68
362.659	26.55
362.871	21.64
363.082	20.33
363.293	17.19
363.504	3.87
363.716	-33.57
363.927	-43.35
364.138	-69.98
364.349	-66.46
364.56	-59.29
364.772	-44.23
364.983	-23.45
365.194	-13.98
365.405	-7.11
365.616	13.32
365.827	13.44
366.038	-18.68
366.25	-7.7
366.461	-40.71
366.672	-19.35
366.883	0.85
367.094	22.12
367.305	-2.82
367.516	11.89
367.727	-20.85
367.938	-39.86
368.149	-39.98
368.36	-19.29
368.571	-20.83
368.781	-26.2
368.992	-37.17
369.203	-54.64
369.414	-75.58
369.625	-83.62
369.836	-75.41
370.047	-92.27
370.258	-67.64
370.468	-51.41
370.679	-65.17
370.89	-60.33
371.101	-30.21
371.312	-37.12
371.522	-45.02
371.733	-31.29
371.944	-19.6
372.155	-28.46
372.365	-33.3
372.576	-36.06
372.787	-47.3
372.997	-73.66
373.208	-63.41
373.419	-33.16
373.629	-48.86
373.84	-35.17
374.05	-29.73
374.261	-27.1
374.472	-51.91
374.682	-0.31
374.893	-2.08
375.103	27.03
375.314	29.41
375.524	33.84
375.735	24.37
375.945	32.95
376.156	3.89
376.366	5.58
376.577	-10.32
376.787	-17.23
376.997	-23.83
377.208	-21.06
377.418	-40.94
377.629	-17.9
377.839	-22.75
378.049	-13.71
378.26	5.66
378.47	26.56
378.68	13.53
378.89	16.48
379.101	7.36
379.311	-23.9
379.521	-64.55
379.732	-57.5
379.942	-46.34
380.152	-61.55
380.362	-24.62
380.572	-23.27
380.783	-10.42
380.993	-7.45
381.203	7.98
381.413	12.85
381.623	17.91
381.833	20.76
382.043	4.04
382.253	-3.16
382.463	-12.68
382.674	-19.12
382.884	-42.14
383.094	-38.45
383.304	-24.44
383.514	-14.01
383.724	4.77
383.934	1.04
384.144	-5.64
384.353	-18.05
384.563	-20.2
384.773	-24.22
384.983	-24.72
385.193	-2.15
385.403	1.9
385.613	-1.24
385.823	-6.71
386.033	-0.89
386.242	-8.97
386.452	-11.54
386.662	-17.63
386.872	-4.12
387.082	-6.39
387.291	-14.52
387.501	-6.87
387.711	-3.53
387.921	-15.74
388.13	-13.29
388.34	-2.16
388.55	-11.76
388.759	-11.19
388.969	-5.79
389.179	-8.18
389.388	-7.71
389.598	3.86
389.807	-1.65
390.017	-7.23
390.227	-4.99
390.436	-9.93
390.646	-13.73
390.855	-7.62
391.065	-5.8
391.274	-5.76
391.484	-4.64
391.693	-1.23
391.903	-0.42
392.112	6.43
392.322	7.64
392.531	10.74
392.74	11.96
392.95	7.67
393.159	5.59
393.369	5.25
393.578	3.51
393.787	2.16
393.997	4.89
394.206	2.47
394.415	3.84
394.625	2.73
394.834	0.25
395.043	0.68
395.252	3.67
395.462	4.46
395.671	6.95
395.88	7.73
396.089	8.54
396.298	5.49
396.508	5.34
396.717	4.78
396.926	4.9
397.135	3.51
397.344	4.46
397.553	3.83
397.762	4.94
397.971	5.41
398.181	6.17
398.39	5.56
398.599	5.69
398.808	5.61
399.017	6.55
399.226	7.57
399.435	8.67
399.644	9.03
399.853	7.93
400.062	6.82
400.27	6.21
400.479	5.67
400.688	4.82
400.897	5.04
401.106	5.58
401.315	5.46
401.524	5.58
401.733	6.49
401.941	7.07
402.15	6.89
402.359	6.65
402.568	7
402.777	7.05
402.985	6.7
403.194	6.63
403.403	6.75
403.612	6.12
403.82	5.65
404.029	5.88
404.238	5.64
404.446	5.99
404.655	6.02
404.864	6.18
405.072	5.78
405.281	6.17
405.489	5.73
405.698	5.89
405.906	5.78
406.115	6.01
406.324	5.78
406.532	5.96
406.741	6.14
406.949	6.18
407.158	6.11
407.366	6
407.574	5.84
407.783	5.64
407.991	5.39
408.2	5.35
408.408	5.4
408.617	5.38
408.825	5.34
409.033	5.55
409.242	5.72
409.45	5.96
409.658	5.8
409.867	5.92
410.075	5.73
410.283	5.46
410.491	5.23
410.7	5.23
410.908	5.22
411.116	5.55
411.324	5.57
411.533	5.46
411.741	5.74
411.949	5.64
412.157	5.3
412.365	5.42
412.573	5.51
412.781	5.54
412.99	5.42
413.198	5.56
413.406	5.49
413.614	5.48
413.822	5.18
414.03	5.18
414.238	4.9
414.446	4.98
414.654	4.76
414.862	4.93
415.07	4.97
415.278	5.26
415.486	4.99
415.694	5.29
415.902	5.14
416.109	4.96
416.317	4.86
416.525	4.72
416.733	4.49
416.941	4.61
417.149	4.63
417.357	4.63
417.564	4.87
417.772	5.1
417.98	4.88
418.188	4.89
418.395	4.96
418.603	4.95
418.811	4.57
419.019	4.55
419.226	4.75
419.434	4.73
419.642	4.48
419.849	4.6
420.057	4.65
420.265	4.6
420.472	4.28
420.68	4.35
420.887	4.21
421.095	4.27
421.302	4.2
421.51	4.52
421.717	4.76
421.925	4.96
422.132	4.88
422.34	4.64
422.547	4.72
422.755	4.49
422.962	4.35
423.17	4.34
423.377	4.51
423.585	4.45
423.792	4.38
423.999	4.46
424.207	4.46
424.414	4.61
424.621	4.45
424.829	4.51
425.036	4.48
425.243	4.42
425.451	4.18
425.658	4.05
425.865	4.22
426.072	4.17
426.28	4.49
426.487	4.51
426.694	4.57
426.901	4.39
427.108	4.4
427.315	4.23
427.523	4.54
427.73	4.51
427.937	4.5
428.144	4.39
428.351	4.29
428.558	4.34
428.765	4.39
428.972	4.4
429.179	4.62
429.386	4.91
429.593	4.65
429.8	4.43
430.007	4.49
430.214	4.5
430.421	4.24
430.628	4.09
430.835	4.12
431.042	4.35
431.249	4.41
431.456	4.43
431.662	4.64
431.869	4.89
432.076	4.83
432.283	4.92
432.49	4.93
432.697	4.91
432.903	4.72
433.11	4.55
433.317	4.65
433.524	4.91
433.73	4.91
433.937	5.12
434.144	5.15
434.35	5.03
434.557	4.81
434.764	4.82
434.97	4.69
435.177	4.89
435.384	4.73
435.59	4.88
435.797	5.1
436.003	5.16
436.21	5.1
436.416	5.19
436.623	5.14
436.829	5.16
437.036	5.28
437.242	5.33
437.449	5.39
437.655	5.45
437.862	5.47
438.068	5.36
438.275	5.43
438.481	5.53
438.687	5.53
438.894	5.48
439.1	5.63
439.307	5.9
439.513	5.87
439.719	5.86
439.926	5.92
440.132	5.79
440.338	5.49
440.544	5.57
440.751	5.54
440.957	5.57
441.163	5.54
441.369	5.61
441.575	5.46
441.782	5.49
441.988	5.4
442.194	5.54
442.4	5.58
442.606	5.88
442.812	5.93
443.018	6
443.224	6
443.431	6.13
443.637	5.92
443.843	5.82
444.049	5.77
444.255	5.73
444.461	5.72
444.667	5.7
444.873	5.97
445.079	5.98
445.284	6.09
445.49	5.89
445.696	5.8
445.902	5.62
446.108	5.58
446.314	5.52
446.52	5.56
446.726	5.77
446.931	5.78
447.137	5.84
447.343	5.88
447.549	5.9
447.755	5.77
447.96	5.74
448.166	5.71
448.372	5.65
448.578	5.7
448.783	5.79
448.989	6.02
449.195	6.26
449.4	6.28
449.606	6.22
449.812	6.13
450.017	6.05
450.223	5.87
450.428	5.76
450.634	5.91
450.84	6.15
451.045	6.13
451.251	6.03
451.456	6.37
451.662	6.31
451.867	6.16
452.073	6.1
452.278	6.32
452.483	6.27
452.689	6.27
452.894	6.4
453.1	6.51
453.305	6.39
453.51	6.28
453.716	6.21
453.921	6.12
454.127	5.97
454.332	5.86
454.537	5.81
454.742	5.87
454.948	5.93
455.153	6
455.358	6.11
455.563	6.36
455.769	6.49
455.974	6.39
456.179	6.27
456.384	6.28
456.589	6.15
456.795	5.9
457	5.87
457.205	6.17
457.41	6.12
457.615	6.07
457.82	6.18
458.025	6.3
458.23	6.12
458.435	6.18
458.64	6.09
458.845	6.27
459.05	6.22
459.255	6.23
459.46	6.27
459.665	6.35
459.87	6.22
460.075	6.2
460.28	6.2
460.485	6.3
460.69	6.33
460.895	6.17
461.099	6.06
461.304	6.2
461.509	6.11
461.714	5.95
461.919	6.22
462.123	6.19
462.328	6.18
462.533	6.09
462.738	6.32
462.942	6.18
463.147	6.4
463.352	6.4
463.556	6.49
463.761	6.52
463.966	6.59
464.17	6.46
464.375	6.36
464.58	6.34
464.784	6.23
464.989	6.17
465.193	6.23
465.398	6.21
465.602	6.39
465.807	6.32
466.011	6.36
466.216	6.43
466.42	6.61
466.625	6.61
466.829	6.82
467.034	6.92
467.238	7.05
467.443	6.94
467.647	6.72
467.851	6.66
468.056	6.63
468.26	6.53
468.464	6.59
468.669	6.75
468.873	6.94
469.077	6.92
469.282	6.98
469.486	6.98
469.69	6.99
469.894	6.72
470.099	6.84
470.303	6.91
470.507	6.9
470.711	6.79
470.915	6.82
471.119	6.72
471.324	6.6
471.528	6.61
471.732	6.77
471.936	6.77
472.14	6.81
472.344	6.89
472.548	6.96
472.752	7.09
472.956	7.37
473.16	7.35
473.364	7.25
473.568	7.17
473.772	6.99
473.976	6.82
474.18	6.76
474.384	6.87
474.588	6.91
474.792	6.92
474.995	6.97
475.199	7.13
475.403	7.22
475.607	7.21
475.811	7.23
476.015	7.32
476.218	7.35
476.422	7.24
476.626	7.38
476.83	7.52
477.033	7.49
477.237	7.42
477.441	7.5
477.644	7.5
477.848	7.43
478.052	7.35
478.255	7.43
478.459	7.49
478.663	7.58
478.866	7.62
479.07	7.75
479.273	7.87
479.477	7.78
479.681	7.77
479.884	7.78
480.088	7.67
480.291	7.56
480.495	7.57
480.698	7.58
480.901	7.64
481.105	7.82
481.308	7.8
481.512	7.77
481.715	7.77
481.919	7.77
482.122	7.71
482.325	7.72
482.529	7.81
482.732	7.75
482.935	7.67
483.138	7.57
483.342	7.76
483.545	7.81
483.748	7.9
483.952	7.94
484.155	8.16
484.358	8.11
484.561	8.02
484.764	7.97
484.967	8.03
485.171	8.04
485.374	7.99
485.577	8.17
485.78	8.26
485.983	8.28
486.186	8.12
486.389	8.12
486.592	8.04
486.795	8.06
486.998	7.98
487.201	8.1
487.404	8.15
487.607	8.2
487.81	8.14
488.013	8.26
488.216	8.2
488.419	8.15
488.622	8.06
488.825	8.04
489.028	7.95
489.231	7.93
489.433	7.97
489.636	7.93
489.839	7.98
490.042	7.98
490.245	8.02
490.447	7.97
490.65	8.04
490.853	8.02
491.056	8.04
491.258	8.09
491.461	8.22
491.664	8.27
491.866	8.25
492.069	8.4
492.272	8.28
492.474	8.24
492.677	8.28
492.879	8.36
493.082	8.38
493.285	8.59
493.487	8.59
493.69	8.49
493.892	8.42
494.095	8.36
494.297	8.25
494.5	8.26
494.702	8.34
494.905	8.43
495.107	8.43
495.309	8.49
495.512	8.59
495.714	8.59
495.917	8.66
496.119	8.67
496.321	8.76
496.524	8.82
496.726	8.87
496.928	8.86
497.13	8.88
497.333	8.87
497.535	8.88
497.737	8.92
497.939	8.94
498.142	9.01
498.344	9.05
498.546	8.95
498.748	9.02
498.95	9.16
499.152	9.2
499.355	9.23
499.557	9.36
499.759	9.48
499.961	9.42
500.163	9.43
500.365	9.39
500.567	9.41
500.769	9.27
500.971	9.32
501.173	9.3
501.375	9.43
501.577	9.36
501.779	9.39
501.981	9.39
502.183	9.39
502.385	9.35
502.587	9.35
502.788	9.45
502.99	9.45
503.192	9.58
503.394	9.52
503.596	9.63
503.798	9.64
503.999	9.72
504.201	9.65
504.403	9.78
504.605	9.78
504.806	9.74
505.008	9.68
505.21	9.8
505.411	9.78
505.613	9.78
505.815	9.87
506.016	9.97
506.218	10.04
506.42	9.94
506.621	9.96
506.823	9.94
507.024	9.91
507.226	9.8
507.427	9.84
507.629	9.9
507.83	9.91
508.032	9.88
508.233	10.01
508.435	10.15
508.636	10.23
508.838	10.21
509.039	10.25
509.24	10.22
509.442	10.24
509.643	10.14
509.845	10.23
510.046	10.29
510.247	10.3
510.448	10.28
510.65	10.4
510.851	10.47
511.052	10.44
511.254	10.47
511.455	10.58
511.656	10.56
511.857	10.66
512.058	10.74
512.26	10.7
512.461	10.66
512.662	10.69
512.863	10.52
513.064	10.49
513.265	10.56
513.466	10.65
513.667	10.66
513.868	10.72
514.069	10.77
514.27	10.83
514.471	10.78
514.672	10.8
514.873	10.75
515.074	10.81
515.275	10.73
515.476	10.75
515.677	10.74
515.878	10.91
516.079	10.83
516.28	10.88
516.481	10.99
516.682	11.07
516.882	10.95
517.083	10.98
517.284	10.96
517.485	10.85
517.686	10.81
517.886	10.82
518.087	10.86
518.288	10.9
518.488	10.91
518.689	10.94
518.89	10.97
519.091	11.03
519.291	11.01
519.492	11.07
519.692	11.07
519.893	11.11
520.094	11.07
520.294	11.05
520.495	11.02
520.695	11.05
520.896	11.03
521.096	11.1
521.297	11.16
521.497	11.17
521.698	11.15
521.898	11.1
522.099	11.06
522.299	11.18
522.499	11.22
522.7	11.28
522.9	11.32
523.101	11.44
523.301	11.34
523.501	11.34
523.702	11.29
523.902	11.39
524.102	11.34
524.302	11.36
524.503	11.47
524.703	11.54
524.903	11.52
525.103	11.53
525.304	11.6
525.504	11.6
525.704	11.62
525.904	11.62
526.104	11.59
526.304	11.54
526.504	11.54
526.705	11.54
526.905	11.66
527.105	11.67
527.305	11.69
527.505	11.64
527.705	11.61
527.905	11.56
528.105	11.62
528.305	11.58
528.505	11.59
528.705	11.63
528.905	11.6
529.105	11.58
529.304	11.65
529.504	11.78
529.704	11.75
529.904	11.77
530.104	11.8
530.304	11.87
530.503	11.79
530.703	11.77
530.903	11.76
531.103	11.84
531.303	11.74
531.502	11.79
531.702	11.91
531.902	11.98
532.101	11.89
532.301	11.92
532.501	11.99
532.7	12
532.9	12.03
533.1	12.08
533.299	12.19
533.499	12.2
533.698	12.22
533.898	12.18
534.097	12.21
534.297	12.29
534.496	12.28
534.696	12.32
534.895	12.43
535.095	12.47
535.294	12.41
535.494	12.38
535.693	12.39
535.892	12.44
536.092	12.42
536.291	12.39
536.491	12.45
536.69	12.52
536.889	12.44
537.088	12.44
537.288	12.54
537.487	12.63
537.686	12.61
537.886	12.68
538.085	12.73
538.284	12.8
538.483	12.71
538.682	12.79
538.882	12.9
539.081	13
539.28	12.87
539.479	12.92
539.678	12.92
539.877	12.97
540.076	12.99
540.275	13.06
540.474	13.11
540.673	13.18
540.872	13.1
541.071	13.11
541.27	13.19
541.469	13.27
541.668	13.26
541.867	13.28
542.066	13.32
542.265	13.36
542.464	13.34
542.663	13.4
542.862	13.57
543.06	13.66
543.259	13.77
543.458	13.83
543.657	13.88
543.856	13.92
544.054	13.9
544.253	13.84
544.452	13.87
544.651	13.98
544.849	13.89
545.048	13.99
545.247	14.05
545.445	14.09
545.644	14.07
545.843	14.14
546.041	14.18
546.24	14.31
546.438	14.44
546.637	14.51
546.836	14.69
547.034	14.75
547.233	14.7
547.431	14.71
547.63	14.78
547.828	14.7
548.027	14.73
548.225	14.77
548.423	14.82
548.622	14.86
548.82	14.86
549.019	14.98
549.217	15.11
549.415	15.14
549.614	15.16
549.812	15.29
550.01	15.26
550.209	15.32
550.407	15.41
550.605	15.46
550.803	15.59
551.002	15.71
551.2	15.75
551.398	15.83
551.596	15.99
551.794	16
551.993	16.08
552.191	16.14
552.389	16.27
552.587	16.37
552.785	16.48
552.983	16.49
553.181	16.6
553.379	16.59
553.577	16.6
553.775	16.67
553.973	16.75
554.171	16.83
554.369	16.83
554.567	16.86
554.765	16.92
554.963	17
555.161	16.99
555.359	17.21
555.557	17.4
555.755	17.48
555.952	17.71
556.15	17.87
556.348	17.91
556.546	17.99
556.744	18
556.941	17.95
557.139	18.02
557.337	18.07
557.535	18.06
557.732	18.25
557.93	18.35
558.128	18.45
558.325	18.56
558.523	18.64
558.721	18.73
558.918	18.78
559.116	18.88
559.313	18.95
559.511	19.1
559.708	19.07
559.906	19.11
560.104	19.19
560.301	19.3
560.498	19.36
560.696	19.51
560.893	19.65
561.091	19.75
561.288	19.9
561.486	19.99
561.683	20.04
561.88	20.11
562.078	20.23
562.275	20.23
562.473	20.33
562.67	20.49
562.867	20.65
563.064	20.76
563.262	20.9
563.459	21.05
563.656	21.17
563.853	21.28
564.051	21.46
564.248	21.57
564.445	21.71
564.642	21.8
564.839	21.98
565.036	22.12
565.234	22.31
565.431	22.37
565.628	22.39
565.825	22.47
566.022	22.6
566.219	22.6
566.416	22.69
566.613	22.88
566.81	22.9
567.007	22.87
567.204	22.94
567.401	23.01
567.598	23.12
567.795	23.28
567.991	23.39
568.188	23.56
568.385	23.73
568.582	23.84
568.779	23.92
568.976	24
569.172	24.12
569.369	24.14
569.566	24.13
569.763	24.23
569.96	24.28
570.156	24.28
570.353	24.29
570.55	24.45
570.746	24.53
570.943	24.64
571.14	24.64
571.336	24.72
571.533	24.74
571.729	24.67
571.926	24.7
572.123	24.91
572.319	25
572.516	24.98
572.712	25.04
572.909	25.06
573.105	25.1
573.302	25.11
573.498	25.21
573.695	25.3
573.891	25.42
574.087	25.35
574.284	25.38
574.48	25.35
574.677	25.35
574.873	25.33
575.069	25.43
575.266	25.53
575.462	25.6
575.658	25.74
575.854	25.87
576.051	25.9
576.247	25.93
576.443	25.95
576.639	25.87
576.835	25.74
577.032	25.7
577.228	25.76
577.424	25.85
577.62	25.74
577.816	25.79
578.012	25.79
578.208	25.76
578.404	25.76
578.6	25.91
578.796	25.92
578.993	25.91
579.189	25.88
579.384	25.8
579.58	25.73
579.776	25.66
579.972	25.64
580.168	25.56
580.364	25.62
580.56	25.6
580.756	25.69
580.952	25.63
581.148	25.67
581.343	25.66
581.539	25.74
581.735	25.73
581.931	25.81
582.127	25.88
582.322	25.79
582.518	25.73
582.714	25.76
582.909	25.84
583.105	25.73
583.301	25.74
583.496	25.77
583.692	25.64
583.888	25.47
584.083	25.56
584.279	25.66
584.474	25.61
584.67	25.6
584.866	25.64
585.061	25.51
585.257	25.5
585.452	25.56
585.648	25.58
585.843	25.64
586.039	25.68
586.234	25.59
586.429	25.5
586.625	25.59
586.82	25.59
587.015	25.58
587.211	25.52
587.406	25.62
587.601	25.56
587.797	25.47
587.992	25.45
588.187	25.57
588.383	25.5
588.578	25.51
588.773	25.52
588.968	25.6
589.163	25.59
589.359	25.58
589.554	25.51
589.749	25.6
589.944	25.58
590.139	25.64
590.334	25.73
590.529	25.82
590.724	25.89
590.919	25.98
591.114	25.94
591.309	25.97
591.504	26.02
591.699	25.99
591.894	26.03
592.089	26.01
592.284	26.01
592.479	26.06
592.674	26.08
592.869	26.1
593.064	26.28
593.259	26.44
593.454	26.49
593.648	26.56
593.843	26.53
594.038	26.57
594.233	26.5
594.428	26.57
594.622	26.6
594.817	26.88
595.012	26.83
595.206	26.96
595.401	26.96
595.596	27.06
595.79	27.07
595.985	27.23
596.18	27.37
596.374	27.53
596.569	27.59
596.763	27.55
596.958	27.63
597.153	27.64
597.347	27.63
597.542	27.72
597.736	27.76
597.931	27.79
598.125	27.77
598.319	27.99
598.514	27.97
598.708	28.03
598.903	28.08
599.097	28.25
599.291	28.18
599.486	28.21
599.68	28.22
599.874	28.28
600.069	28.24
600.263	28.29
600.457	28.43
600.651	28.52
600.846	28.59
601.04	28.63
601.234	28.68
601.428	28.65
601.622	28.71
601.817	28.75
602.011	28.76
602.205	28.83
602.399	28.88
602.593	28.96
602.787	28.97
602.981	28.99
603.175	29.01
603.369	28.94
603.563	28.94
603.757	28.96
603.951	29.08
604.145	28.99
604.339	29.03
604.533	28.91
604.727	28.85
604.921	28.77
605.115	28.89
605.309	28.94
605.502	28.97
605.696	28.9
605.89	28.79
606.084	28.57
606.278	28.41
606.471	28.33
606.665	28.28
606.859	28.21
607.053	28.16
607.246	28.2
607.44	28.2
607.634	28.09
607.827	28.07
608.021	28.06
608.214	28
608.408	27.8
608.602	27.81
608.795	27.83
608.989	27.68
609.182	27.56
609.376	27.68
609.569	27.61
609.763	27.47
609.956	27.4
610.15	27.38
610.343	27.18
610.537	27.13
610.73	27.1
610.923	27.09
611.117	26.98
611.31	26.9
611.504	26.81
611.697	26.63
611.89	26.5
612.083	26.42
612.277	26.43
612.47	26.37
612.663	26.38
612.856	26.36
613.05	26.27
613.243	26.18
613.436	26.07
613.629	25.95
613.822	25.79
614.015	25.81
614.209	25.62
614.402	25.63
614.595	25.51
614.788	25.48
614.981	25.22
615.174	25.15
615.367	24.96
615.56	25.02
615.753	25.03
615.946	25.13
616.139	25.22
616.332	25.38
616.525	25.34
616.718	25.35
616.911	25.22
617.103	25.17
617.296	25.01
617.489	24.86
617.682	24.74
617.875	24.74
618.067	24.57
618.26	24.47
618.453	24.55
618.646	24.53
618.838	24.6
619.031	24.7
619.224	24.7
619.417	24.68
619.609	24.7
619.802	24.59
619.994	24.58
620.187	24.53
620.38	24.33
620.572	24.16
620.765	24.18
620.957	24.04
621.15	23.94
621.342	23.98
621.535	24.09
621.727	23.97
621.92	23.94
622.112	23.88
622.305	23.89
622.497	23.79
622.69	23.81
622.882	23.81
623.074	23.98
623.267	23.92
623.459	23.83
623.651	23.68
623.844	23.67
624.036	23.58
624.228	23.45
624.42	23.48
624.613	23.6
624.805	23.52
624.997	23.42
625.189	23.48
625.381	23.46
625.574	23.34
625.766	23.28
625.958	23.3
626.15	23.4
626.342	23.41
626.534	23.45
626.726	23.48
626.918	23.5
627.11	23.34
627.302	23.31
627.494	23.18
627.686	23.22
627.878	23.05
628.07	23.09
628.262	23.08
628.454	23.17
628.646	23.16
628.838	23.21
629.029	23.18
629.221	23.21
629.413	23.05
629.605	22.85
629.797	22.83
629.989	22.77
630.18	22.73
630.372	22.69
630.564	22.79
630.755	22.75
630.947	22.78
631.139	22.61
631.33	22.62
631.522	22.61
631.714	22.63
631.905	22.6
632.097	22.63
632.289	22.68
632.48	22.56
632.672	22.46
632.863	22.31
633.055	22.24
633.246	22.12
633.438	22.06
633.629	22.11
633.821	22.16
634.012	22.18
634.203	22.22
634.395	22.28
634.586	22.25
634.777	22.09
634.969	22.08
635.16	22.1
635.351	22.05
635.543	21.99
635.734	22.13
635.925	22.12
636.117	22.16
636.308	22.15
636.499	22.13
636.69	22.07
636.881	22.09
637.073	22.06
637.264	22.08
637.455	22.21
637.646	22.26
637.837	22.3
638.028	22.22
638.219	22.29
638.41	22.17
638.601	22.09
638.792	22
638.983	22.04
639.174	21.86
639.365	21.91
639.556	21.83
639.747	21.81
639.938	21.78
640.129	21.8
640.32	21.68
640.511	21.72
640.701	21.76
640.892	21.74
641.083	21.81
641.274	21.91
641.465	21.88
641.655	21.79
641.846	21.68
642.037	21.62
642.228	21.52
642.418	21.53
642.609	21.6
642.8	21.68
642.99	21.63
643.181	21.69
643.372	21.69
643.562	21.58
643.753	21.46
643.943	21.4
644.134	21.24
644.324	21.16
644.515	21.22
644.705	21.39
644.896	21.43
645.086	21.42
645.277	21.34
645.467	21.26
645.658	21.09
645.848	21.12
646.038	21.26
646.229	21.38
646.419	21.39
646.61	21.38
646.8	21.35
646.99	21.24
647.18	21.06
647.371	20.99
647.561	20.93
647.751	20.86
647.941	20.79
648.132	20.85
648.322	20.81
648.512	20.88
648.702	20.91
648.892	20.85
649.082	20.79
649.272	20.69
649.462	20.49
649.653	20.36
649.843	20.34
650.033	20.38
650.223	20.32
650.413	20.28
650.603	20.22
650.793	20.19
650.983	20.06
651.172	19.99
651.362	19.94
651.552	19.77
651.742	19.71
651.932	19.67
652.122	19.74
652.312	19.81
652.502	19.87
652.691	19.82
652.881	19.73
653.071	19.68
653.261	19.38
653.45	19.22
653.64	19.24
653.83	19.02
654.019	18.87
654.209	18.8
654.399	18.76
654.588	18.54
654.778	18.51
654.968	18.34
655.157	18.27
655.347	18.09
655.536	17.95
655.726	17.8
655.915	17.63
656.105	17.5
656.294	17.41
656.484	17.08
656.673	16.96
656.863	16.94
657.052	16.71
657.241	16.54
657.431	16.32
657.62	16.08
657.809	15.79
657.999	15.64
658.188	15.5
658.377	15.47
658.567	15.37
658.756	15.21
658.945	14.99
659.134	14.68
659.324	14.49
659.513	14.28
659.702	14.01
659.891	13.94
660.08	13.88
660.269	13.79
660.458	13.6
660.648	13.53
660.837	13.35
661.026	13.18
661.215	13.11
661.404	12.96
661.593	12.87
661.782	12.71
661.971	12.67
662.16	12.46
662.349	12.33
662.538	12.14
662.726	12.07
662.915	11.81
663.104	11.65
663.293	11.57
663.482	11.61
663.671	11.5
663.86	11.4
664.048	11.31
664.237	11.24
664.426	10.98
664.615	10.94
664.803	10.77
664.992	10.61
665.181	10.46
665.369	10.38
665.558	10.12
665.747	10.11
665.935	10.08
666.124	10.05
666.312	9.98
666.501	9.98
666.69	9.83
666.878	9.81
667.067	9.72
667.255	9.78
667.444	10.02
667.632	10.11
667.82	10.11
668.009	10.03
668.197	9.9
668.386	9.64
668.574	9.62
668.762	9.54
668.951	9.47
669.139	9.48
669.327	9.46
669.516	9.5
669.704	9.43
669.892	9.56
670.08	9.5
670.269	9.31
670.457	9.22
670.645	9.11
670.833	9.22
671.021	9.19
671.21	9.3
671.398	9.57
671.586	9.68
671.774	9.45
671.962	9.43
672.15	9.45
672.338	9.15
672.526	9.17
672.714	9.11
672.902	9.25
673.09	9.42
673.278	9.65
673.466	9.71
673.654	9.91
673.842	9.88
674.03	9.88
674.218	9.71
674.405	9.77
674.593	9.71
674.781	9.84
674.969	9.86
675.157	9.98
675.344	10.02
675.532	10.08
675.72	10.08
675.908	10.22
676.095	10.19
676.283	10.2
676.471	10.48
676.658	10.5
676.846	10.41
677.033	10.62
677.221	10.76
677.409	10.53
677.596	10.67
677.784	10.72
677.971	10.62
678.159	10.66
678.346	10.77
678.534	10.89
678.721	11.14
678.909	11.38
679.096	11.46
679.283	11.78
679.471	11.86
679.658	11.92
679.846	12.16
680.033	12.43
680.22	12.41
680.408	12.39
680.595	12.51
680.782	12.41
680.969	12.44
681.157	12.51
681.344	12.63
681.531	12.69
681.718	12.81
681.905	13.05
682.093	13.33
682.28	13.67
682.467	13.85
682.654	13.98
682.841	14.11
683.028	14.3
683.215	14.35
683.402	14.43
683.589	14.79
683.776	15
683.963	15.05
684.15	15.36
684.337	15.74
684.524	15.89
684.711	16.14
684.898	16.34
685.085	16.47
685.271	16.71
685.458	16.95
685.645	17.12
685.832	17.71
686.019	18.14
686.205	18.24
686.392	18.6
686.579	18.9
686.766	19.24
686.952	19.51
687.139	20.22
687.326	20.51
687.512	20.99
687.699	21.25
687.886	21.59
688.072	21.64
688.259	22.1
688.445	22.56
688.632	22.78
688.818	23.56
689.005	24.14
689.191	24.57
689.378	25.21
689.564	25.78
689.751	26.25
689.937	26.66
690.124	27.25
690.31	27.6
690.496	28.24
690.683	28.75
690.869	29.44
691.055	29.99
691.242	30.61
691.428	31.14
691.614	31.67
691.8	32.37
691.987	33.05
692.173	33.76
692.359	34.5
692.545	35.12
692.731	35.71
692.918	36.28
693.104	36.74
693.29	37.36
693.476	38.09
693.662	38.82
693.848	39.44
694.034	40.1
694.22	40.68
694.406	41.38
694.592	42.12
694.778	42.96
694.964	43.62
695.15	44.39
695.336	44.84
695.522	45.58
695.708	45.92
695.894	46.71
696.08	47.47
696.265	48.13
696.451	48.69
696.637	49.67
696.823	50.28
697.009	50.74
697.194	51.4
697.38	51.73
697.566	52.11
697.751	52.7
697.937	53.44
698.123	54.12
698.308	55.06
698.494	55.83
698.68	56.1
698.865	56.61
699.051	56.9
699.236	56.85
699.422	57.31
699.607	57.74
699.793	58.2
699.978	58.67
700.164	59.29
700.349	59.93
700.535	60.61
700.72	60.92
700.906	61.36
701.091	61.85
701.276	62
701.462	62.84
701.647	63.4
701.832	64.18
702.018	64.49
702.203	64.9
702.388	64.74
702.573	65.16
702.759	65.84
702.944	66.36
703.129	66.83
703.314	67.28
703.499	67.44
703.684	67.56
703.87	68.65
704.055	69.34
704.24	69.86
704.425	70.53
704.61	70.25
704.795	69.91
704.98	69.94
705.165	70.08
705.35	70.19
705.535	71.01
705.72	71.28
705.905	71.57
706.09	71.91
706.275	72.05
706.459	71.77
706.644	71.82
706.829	71.94
707.014	71.87
707.199	72.68
707.384	73.01
707.568	73.23
707.753	74.04
707.938	74.78
708.123	74.35
708.307	74.8
708.492	75.3
708.677	74.92
708.861	74.26
709.046	74.52
709.231	74.82
709.415	75.08
709.6	75
709.784	75.63
709.969	75.78
710.153	75.58
710.338	75.56
710.522	75.99
710.707	76.46
710.891	76.69
711.076	77.14
711.26	76.89
711.445	77.19
711.629	77.16
711.813	77.6
711.998	78
712.182	78.26
712.366	78.84
712.551	79.59
712.735	79.4
712.919	78.93
713.103	79.32
713.288	78.64
713.472	78.06
713.656	78.75
713.84	79.21
714.024	79.25
714.208	79.24
714.393	79.85
714.577	79.69
714.761	80.09
714.945	80.26
715.129	80.7
715.313	80.59
715.497	80.24
715.681	80.39
715.865	80.28
716.049	80.58
716.233	80.25
716.417	80.7
716.601	80.51
716.785	80.75
716.968	80.83
717.152	81.27
717.336	80.9
717.52	80.67
717.704	80.91
717.888	80.86
718.071	80.67
718.255	81.05
718.439	80.97
718.622	81.11
718.806	81.47
718.99	81.2
719.174	81.23
719.357	81.66
719.541	81.67
719.724	81.53
719.908	82.42
720.092	82.83
720.275	83.35
720.459	83.42
720.642	83.23
720.826	82.74
721.009	82.03
721.193	81.35
721.376	81.49
721.559	82.16
721.743	82.85
721.926	83.83
722.11	84.19
722.293	83.73
722.476	83.05
722.66	82.71
722.843	82.24
723.026	81.7
723.21	82.28
723.393	83.27
723.576	83.01
723.759	82.74
723.942	83.18
724.126	82.74
724.309	82.29
724.492	82.56
724.675	82.47
724.858	82.99
725.041	83.71
725.224	83.47
725.407	83.89
725.59	84.99
725.774	84.51
725.957	83.69
726.14	83.83
726.322	83.95
726.505	83.35
726.688	84.17
726.871	84.57
727.054	84.69
727.237	84.33
727.42	84.83
727.603	84.83
727.786	85.27
727.968	85.54
728.151	85.33
728.334	84.94
728.517	84.66
728.699	84.54
728.882	84.24
729.065	84.9
729.248	85.45
729.43	85.77
729.613	86.47
729.796	86.99
729.978	86
730.161	85.75
730.343	85.19
730.526	85.58
730.708	84.94
730.891	85.63
731.073	85.71
731.256	85.14
731.438	84.22
731.621	85.56
731.803	85.93
731.986	85.77
732.168	85.88
732.35	86.05
732.533	85.39
732.715	85.03
732.898	85.57
733.08	85.4
733.262	85.37
733.444	84.61
733.627	85.08
733.809	85.36
733.991	86.84
734.173	86.08
734.355	86.44
734.538	86.27
734.72	85.36
734.902	85.2
735.084	86.46
735.266	87.06
735.448	87.71
735.63	87.81
735.812	87.56
735.994	88.39
736.176	88.57
736.358	88.61
736.54	90.14
736.722	89.4
736.904	87.69
737.086	87.27
737.268	87.72
737.45	87.12
737.632	88.09
737.814	87.97
737.995	87.93
738.177	86.62
738.359	86.24
738.541	86.54
738.723	87.36
738.904	88.22
739.086	88.97
739.268	88.68
739.449	88.91
739.631	88.47
739.813	88.59
739.994	88.9
740.176	89.98
740.358	89.66
740.539	90.6
740.721	90.08
740.902	90.55
741.084	89.35
741.265	88.6
741.447	88.86
741.628	88.84
741.81	87.46
741.991	88.57
742.172	90.1
742.354	88.62
742.535	88.28
742.717	88.33
742.898	87.88
743.079	87.16
743.261	88.13
743.442	88.22
743.623	90.16
743.804	90.44
743.986	91.99
744.167	90.82
744.348	90.32
744.529	89.09
744.71	87.06
744.891	85.62
745.073	85.84
745.254	86.07
745.435	86.19
745.616	87.27
745.797	86.41
745.978	86.18
746.159	87.17
746.34	86.38
746.521	87.74
746.702	87.2
746.883	87.76
747.064	87.02
747.245	87.35
747.426	86.37
747.606	87.15
747.787	86.95
747.968	87.25
748.149	88.12
748.33	87.99
748.51	87.97
748.691	87.3
748.872	87.98
749.053	87.29
749.233	86.29
749.414	85.2
749.595	85.66
749.775	83.19
749.956	82.56
750.137	83.16
750.317	85.5
750.498	86.7
750.678	88.03
750.859	88.4
751.04	89.37
751.22	87.28
751.4	85.58
751.581	84.16
751.761	84.45
751.942	84.46
752.122	84.86
752.303	84.66
752.483	85.45
752.663	84.62
752.844	83.84
753.024	84.69
753.204	85
753.385	85.02
753.565	84.84
753.745	85.04
753.925	83.44
754.106	83.79
754.286	83.94
754.466	85.15
754.646	85.28
754.826	85.4
755.006	84.3
755.187	84.62
755.367	85.26
755.547	85.14
755.727	86.21
755.907	86.9
756.087	88.48
756.267	85.69
756.447	85.48
756.627	83.92
756.807	85.26
756.987	83.61
757.167	86.05
757.346	85.42
757.526	85.07
757.706	85.1
757.886	85.72
758.066	84.92
758.246	87
758.425	87.42
758.605	85.77
758.785	86.17
758.965	86.32
759.144	83.67
759.324	84.4
759.504	85.22
759.683	84.72
759.863	82.08
760.043	81.93
760.222	81.32
760.402	80.53
760.581	79.81
760.761	82.32
760.94	81
761.12	84.05
761.299	84.54
761.479	83.99
761.658	82.2
761.838	84.04
762.017	81.51
762.197	81.9
762.376	81.78
762.555	82.81
762.735	83.09
762.914	83.01
763.093	82.52
763.273	81.72
763.452	81.72
763.631	82.22
763.81	81.81
763.99	81.94
764.169	83.67
764.348	80.89
764.527	77.95
764.706	79.53
764.885	80.57
765.064	78.36
765.243	80.85
765.423	83.31
765.602	81.93
765.781	79.62
765.96	80.01
766.139	78.08
766.318	77.85
766.497	77.29
766.676	78.28
766.854	80.43
767.033	81.95
767.212	81.15
767.391	82.01
767.57	82.94
767.749	82.36
767.928	84.35
768.106	83.73
768.285	81.4
768.464	80.3
768.643	78.1
768.821	76.67
769	78.14
769.179	78.89
769.357	77.97
769.536	78.64
769.715	77.79
769.893	79.7
770.072	78.83
770.25	79.15
770.429	79.3
770.607	78.8
770.786	77.11
770.964	78.71
771.143	79.76
771.321	81.82
771.5	84.29
771.678	82.78
771.857	81.02
772.035	79.65
772.213	78.22
772.392	74.49
772.57	75.91
772.748	77.55
772.927	76.83
773.105	75.43
773.283	77.08
773.461	77.21
773.64	76.98
773.818	77.32
773.996	78.94
774.174	76.81
774.352	75.08
774.531	72.58
774.709	74.32
774.887	72.38
775.065	71.6
775.243	72.83
775.421	74.11
775.599	74.08
775.777	73.82
775.955	73.98
776.133	72.58
776.311	73.49
776.489	70.85
776.667	70.96
776.844	72.77
777.022	72.49
777.2	71.67
777.378	72.77
777.556	74.42
777.734	78.16
777.911	80.04
778.089	79.27
778.267	79.35
778.445	77.19
778.622	72.53
778.8	71.49
778.978	75.15
779.155	75.73
779.333	75.94
779.511	76.34
779.688	77.16
779.866	70.8
780.043	66.25
780.221	65.56
780.398	61.92
780.576	63.92
780.753	66.88
780.931	68.45
781.108	66.85
781.286	70.88
781.463	66.16
781.64	64.83
781.818	68.36
781.995	71.41
782.172	69.19
782.35	69.82
782.527	74.28
782.704	72.41
782.882	73.66
783.059	75.01
783.236	75.96
783.413	73.95
783.59	72.29
783.768	69.26
783.945	69.43
784.122	69.13
784.299	69.92
784.476	70.38
784.653	69.02
784.83	66.94
785.007	66
785.184	65.92
785.361	65.38
785.538	71.54
785.715	75.82
785.892	75.24
786.069	76.37
786.246	78.35
786.423	76.84
786.6	75.93
786.776	79.63
786.953	76.04
787.13	74.97
787.307	74.35
787.484	72.43
787.66	67.83
787.837	68.74
788.014	64.98
788.191	61.72
788.367	59.74
788.544	62.55
788.721	61.37
788.897	68.73
789.074	71.78
789.25	71.01
789.427	73.33
789.603	70.16
789.78	67.72
789.956	64.76
790.133	64.58
790.309	64.72
790.486	73.94
790.662	74.2
790.839	74.31
791.015	77.55
791.192	76.72
791.368	76.38
791.544	74.7
791.721	74.21
791.897	72.18
792.073	68.09
792.249	58.93
792.426	61.53
792.602	63.7
792.778	62.87
792.954	64.19
793.13	68.63
793.307	59.18
793.483	54.33
793.659	52.96
793.835	52.75
794.011	49.97
794.187	52.39
794.363	54.46
794.539	61.57
794.715	55.86
794.891	54.46
795.067	54.68
795.243	61.35
795.419	57.1
795.595	56.94
795.771	61.05
795.947	63.61
796.122	56.88
796.298	58.71
796.474	62.98
796.65	60.41
796.826	57.66
797.001	54.94
797.177	50.35
797.353	54.72
797.529	60.37
797.704	60.24
797.88	62.16
798.056	61.95
798.231	54.03
798.407	53.13
798.582	54
798.758	64.7
798.934	68.9
799.109	71.15
799.285	64.46
799.46	69.73
799.636	61.03
799.811	62.11
799.986	67.46
800.162	73.16
800.337	73.13
800.513	69.22
800.688	66.66
800.863	74.62
801.039	64.14
801.214	56.41
801.389	62.82
801.565	57.25
801.74	40.52
801.915	50.15
802.09	50.84
802.265	59.09
802.441	61.28
802.616	61.93
802.791	58.16
802.966	60.39
803.141	52.24
803.316	50.05
803.491	58.1
803.666	65.89
803.841	63.92
804.016	59.63
804.191	63.2
804.366	54.19
804.541	48.41
804.716	51.2
804.891	51.55
805.066	57.18
805.241	58.56
805.416	57.1
805.591	53.32
805.765	57.42
805.94	55.83
806.115	53.51
806.29	43.8
806.464	47.13
806.639	41.75
806.814	33.79
806.989	28.1
807.163	47.91
807.338	47.07
807.512	43.92
807.687	36.41
807.862	57.8
808.036	54.64
808.211	59.94
808.385	67.85
808.56	81.79
808.734	74.07
808.909	70.89
809.083	57.22
809.258	61.79
809.432	62.75
809.606	43.72
809.781	37.38
809.955	51.83
810.13	47.69
810.304	41.11
810.478	45.58
810.652	55.75
810.827	55.54
811.001	52.64
811.175	48.57
811.349	52.9
811.524	44.28
811.698	25.28
811.872	26.47
812.046	33.89
812.22	40.8
812.394	43.73
812.568	54.11
812.742	61.45
812.916	58.74
813.09	55.09
813.264	56.28
813.438	55.3
813.612	44.43
813.786	42.74
813.96	53.67
814.134	51.25
814.308	62.53
814.482	74.26
814.656	65.69
814.83	65.35
815.003	65.08
815.177	58.66
815.351	47.05
815.525	49.95
815.698	37.46
815.872	36.3
816.046	21.34
816.219	29.21
816.393	44.67
816.567	50.42
816.74	52.09
816.914	61.65
817.088	68.1
817.261	48.95
817.435	31.24
817.608	30.58
817.782	20.59
817.955	24.29
818.129	24.72
818.302	41.46
818.475	57.89
818.649	60.44
818.822	42.76
818.996	69.1
819.169	63.81
819.342	38.07
819.516	53.32
819.689	70.99
819.862	56.31
820.035	48.6
820.209	51.6
820.382	48.83
820.555	50.13
820.728	35.42
820.901	32.75
821.075	30.42
821.248	33.93
821.421	6.08
821.594	19.33
821.767	47.96
821.94	78.71
822.113	52.11
822.286	59.66
822.459	69.39
822.632	60.04
822.805	39.52
822.978	42.19
823.151	37.38
823.324	29.68
823.496	12.69
823.669	7.99
823.842	14.41
824.015	-0.21
824.188	4.01
824.361	16.42
824.533	18.2
824.706	26.31
824.879	33.44
825.051	41.53
825.224	28.97
825.397	27.32
825.569	13.32
825.742	33.64
825.915	33.65
826.087	58.78
826.26	28.21
826.432	28.38
826.605	24.16
826.777	6.87
826.95	5.02
827.122	6.9
827.295	13.01
827.467	14.97
827.64	-5.78
827.812	-20.85
827.984	-9.58
828.157	-34.09
828.329	-74.84
828.501	-46.67
828.674	-19.55
828.846	-51.56
829.018	-9.24
829.19	-13.68
829.363	19.03
829.535	14.45
829.707	39.2
829.879	12.43
830.051	13.57
830.223	-9.58
830.395	-30.76
830.568	-35.63
830.74	-46.11
830.912	-8.2
831.084	-23.27
831.256	-11.81
831.428	-17.81
831.6	-24.27
831.772	-60.24
831.943	-53.31
832.115	-29.58
832.287	-10.52
832.459	21.18
832.631	33.71
832.803	47.44
832.975	49.66
833.146	46.77
833.318	33.43
833.49	39.87
833.662	31.93
833.833	14.5
834.005	16.31
834.177	24.68
834.348	15.64
834.52	-19.47
834.692	-46.04
834.863	-91.37
835.035	-65.52
835.206	-132.93
835.378	-70.71
835.549	-55.15
835.721	-43.91
835.892	-60.71
836.064	-29
836.235	-28.11
836.407	9.33
836.578	6.19
836.749	16.56
836.921	-7.78
837.092	-69.07
837.264	-63.58
837.435	-64.52
837.606	-9.32
837.777	23.55
837.949	51.21
838.12	48
838.291	48.85
838.462	29.4
838.633	-7.18
838.805	-1.48
838.976	18.43
839.147	-6.8
839.318	-27.26
839.489	-55.31
839.66	-90.08
839.831	-72.63
840.002	-72.88
840.173	-119.65
840.344	-48.51
840.515	-85.01
840.686	-232.41
840.857	-188.42
841.028	-122.03
841.199	-89.1
841.369	-86.14
841.54	-75.65
841.711	-24.24
841.882	-10.45
842.053	-31.27
842.223	-34.07
842.394	-4.18
842.565	-11.84
842.736	6.91
842.906	21.79
843.077	37.08
843.248	43.03
843.418	49.68
843.589	10.19
843.759	34.31
843.93	16.61
844.101	11.01
844.271	15.81
844.442	31.95
844.612	50.63
844.783	9.74
844.953	-21.61
845.123	-31.71
845.294	-50.93
845.464	-359.4
845.635	-97.03
845.805	-35.47
845.975	-12.2
846.146	-51.95
846.316	-36.91
846.486	-22.11
846.656	14.82
846.827	3.01
846.997	-1.62
847.167	37
847.337	14.03
847.507	-47.17
847.677	-33.83
847.848	33.29
848.018	17.85
848.188	22.67
848.358	5.39
848.528	-0.78
848.698	-68.12
848.868	-183.45
849.038	-329.83
849.208	-117.53
849.378	-99.1
849.548	-65.67
849.718	-33.29
849.887	7.76
850.057	-13.72
850.227	-41.88
850.397	-47.58
850.567	-120.43
850.737	-450.43
850.906	-1628.75
851.076	-985.16
851.246	-434.03
851.415	-50.47
851.585	-29.92
851.755	-43.08
851.924	-32.7
852.094	-79.57
852.264	-230.53
852.433	-1498.08
852.603	-277.97
852.772	-255.29
852.942	-107.52
853.111	-77.67
853.281	-24
853.45	-20.15
853.62	-96.82
853.789	-109.31
853.959	-91.79
854.128	-76.58
854.297	-98.72
854.467	-99.09
854.636	-92.11
854.805	-28.43
854.975	-53.53
855.144	-52.05
855.313	160.84
855.482	-134.31
855.652	-159.86
855.821	-137.21
855.99	13.28
856.159	9.42
856.328	12.35
856.497	-24
856.667	-12.77
856.836	-30.15
857.005	-52.61
857.174	-75.46
857.343	-69.11
857.512	-55.14
857.681	-116.39
857.85	-161.31
858.019	-82.86
858.188	-72.32
858.356	-82.18
858.525	-138.09
858.694	-99.88
858.863	-220.67
859.032	-178.2
859.201	-295.73
859.369	-209.95
859.538	-177.66
859.707	-122.46
859.876	-136.7
860.044	-74.21
860.213	19.74
860.382	-8.03
860.55	-20.44
860.719	8.88
860.888	13.67
861.056	-65.46
861.225	-56.19
861.393	1.2
861.562	-6.76
861.73	-103.32
861.899	-200
862.067	-2341.38
862.236	-209.95
862.404	-421.33
862.572	-223.4
862.741	-92.68
862.909	-61.19
863.078	-134.76
863.246	-47.04
863.414	-58.35
863.582	2.24
863.751	-35
863.919	-28.8
864.087	12.48
864.255	56.36
864.424	-202.39
864.592	25.78
864.76	-36.24
864.928	-300.8
865.096	-199.04
865.264	-136.12
865.432	-2075
865.6	58
865.768	-47.29
865.936	-76.5
866.104	-80.4
866.272	-124.06
866.44	-557.87
866.608	926.63
866.776	471.12
866.944	4634.88
867.112	-841.95
867.28	-320.52
867.448	-149.38
867.615	-77.14
867.783	-61.69
867.951	-67.54
868.119	-65.9
868.286	-94.74
868.454	-199.26
868.622	-172.08
868.789	-180.83
868.957	-2214.29
869.125	-2047.37
869.292	-194.1
869.46	-248.75
869.627	-71.68
869.795	-88.21
869.963	-48.48
870.13	-17.15
870.298	-0.63
870.465	-72.44
870.632	-52.51
870.8	-50.83
870.967	-126.28
871.135	-191.08
871.302	-156.11
871.469	-180.75
871.637	-205.34
871.804	-76.74
871.971	-91.5
872.139	-296.28
872.306	9.7
872.473	-22.12
872.64	-176.82
872.807	-22.73
872.975	25
873.142	-268.73
873.309	2532.43
873.476	-14.74
873.643	18.77
873.81	0.92
873.977	53.88
874.144	45.76
874.311	-102.59
874.478	-146.61
874.645	-196.37
874.812	-169.39
874.979	-100.29
875.146	-117.28
875.313	-141.55
875.48	-27.88
875.647	-21.64
875.813	-45.44
875.98	-20.84
876.147	-28.61
876.314	-119.52
876.481	1119.01
876.647	-1406.74
876.814	505.7
876.981	-98.46
877.147	-34.77
877.314	21.94
877.481	26.94
877.647	44.78
877.814	-12.71
877.98	-85.67
878.147	-24.02
878.314	36.13
878.48	-64.48
878.647	-44.28
878.813	39.56
878.979	6.71
879.146	-28.27
879.312	-24.9
879.479	-46.01
879.645	-148.3
879.811	-327.76
879.978	-946.56
880.144	-215.17
880.31	-98.91
880.477	-344.98
880.643	-370.07
880.809	-143.55
880.975	-197.68
881.142	-1220
881.308	-150.2
881.474	-108.06
881.64	-137.09
881.806	-179.81
881.972	-87.25
882.138	-103.93
882.304	-103.17
882.47	-231.83
882.636	-972.13
882.802	-336.62
882.968	-101.71
883.134	-63.2
883.3	-85.06
883.466	-7.27
883.632	46.48
883.798	6.93
883.964	1.5
884.129	61.98
884.295	80.77
884.461	-14.81
884.627	-38.87
884.793	-86.56
884.958	-34.49
885.124	-132.81
885.29	-286.68
885.455	-440.29
885.621	-96.26
885.787	-230.85
885.952	-103.31
886.118	-88.83
886.283	-83.04
886.449	-211.19
886.614	-239.64
886.78	-500
886.945	1870.49
887.111	-891.91
887.276	-844.32
887.442	-1323.64
887.607	-610.38
887.773	-384.39
887.938	-322.98
888.103	-358.82
888.269	-253.31
888.434	-412.43
888.599	-191.47
888.764	-112.11
888.93	-41.18
889.095	-60.44
889.26	-83.6
889.425	-44.06
889.59	2.55
889.756	-46.25
889.921	-23.27
890.086	4.02
890.251	-4.7
890.416	-196.57
890.581	-1525.81
890.746	260.71
890.911	470.7
891.076	219.55
891.241	-388.06
891.406	-33.02
891.571	-56.4
891.736	-318.35
891.901	-537.17
892.065	871.43
892.23	126.09
892.395	236.79
892.56	308.09
892.725	-326.56
892.889	-763.41
893.054	-278.55
893.219	-125.8
893.384	-97.83
893.548	-176.99
893.713	-210.08
893.878	-141.12
