Data from Ofra_1a_PS_OGT3_Reflection_1.txt Node
Date: Tue Jul 20 10:42:59 EDT 2021
User: Adam
Spectrometer: FLMT01687
Trigger mode: 0
Integration Time (sec): 1.004000E0
Scans to average: 2
Electric dark correction enabled: true
Nonlinearity correction enabled: false
Boxcar width: 2
XAxis mode: Wavelengths
Number of Pixels in Spectrum: 3648
>>>>>Begin Spectral Data<<<<<
179.494	-433.5
179.716	-484.73
179.937	1452.17
180.158	-2200
180.38	352.41
180.601	163.05
180.823	233.36
181.044	128.46
181.265	162.77
181.486	217.27
181.708	61.73
181.929	-7000
182.15	78.14
182.372	-444.33
182.593	39.55
182.814	-58.74
183.035	-24.48
183.257	-12.21
183.478	-23.6
183.699	-46.12
183.92	-85.53
184.141	-56.46
184.363	-41.13
184.584	-53.28
184.805	-16.66
185.026	18.95
185.247	-21.13
185.468	-37.78
185.689	-44.42
185.91	-71.93
186.132	-36.85
186.353	-8.1
186.574	4.64
186.795	13.86
187.016	33.8
187.237	15.3
187.458	5.09
187.679	-24.31
187.9	6.26
188.121	-7.08
188.342	10.3
188.563	19.68
188.784	46.82
189.005	21.94
189.226	16.95
189.447	10.14
189.667	14.1
189.888	-8.33
190.109	-9.57
190.33	13.21
190.551	-3.65
190.772	-4.62
190.993	-1.5
191.214	-12.04
191.434	-82.02
191.655	-64.83
191.876	-50.77
192.097	-27.2
192.318	4.16
192.538	-16.81
192.759	-17.86
192.98	3.47
193.201	5.04
193.421	2.91
193.642	26.32
193.863	24.75
194.083	5.81
194.304	-5.36
194.525	-19.45
194.745	-36.15
194.966	-19.2
195.187	-14.85
195.407	-36.15
195.628	-23.04
195.848	-26.96
196.069	-46.4
196.29	-32.71
196.51	-17.67
196.731	-15.44
196.951	-27.5
197.172	-7.1
197.392	-32.94
197.613	-14.12
197.833	-25.07
198.054	-26.81
198.274	-38.95
198.495	-18.91
198.715	-19.6
198.936	9.93
199.156	8.6
199.377	6.9
199.597	12.36
199.817	7.29
200.038	-32.8
200.258	7.69
200.479	15.48
200.699	0.84
200.919	-20.86
201.14	-15.45
201.36	-24.26
201.58	-55.36
201.801	-41.63
202.021	-14.69
202.241	-6.02
202.461	0.63
202.682	33.97
202.902	15.55
203.122	13.07
203.342	15.24
203.563	10.96
203.783	-6.46
204.003	-9.52
204.223	1.21
204.443	-4.27
204.663	-10.79
204.884	-1.61
205.104	-15.95
205.324	-17.67
205.544	-54.32
205.764	-48.61
205.984	-65.5
206.204	-49
206.424	-83.97
206.644	-72.69
206.864	-112.58
207.084	-46.84
207.304	-77.95
207.525	-52.88
207.745	-23.02
207.964	1.46
208.184	-2.62
208.404	4.16
208.624	17.91
208.844	12.9
209.064	5.1
209.284	16.51
209.504	21.4
209.724	9.97
209.944	-3.28
210.164	-3.45
210.384	-19.9
210.604	-53.43
210.823	-88.28
211.043	-64.73
211.263	-143.57
211.483	-85.94
211.703	-45.73
211.922	-43.93
212.142	-44.66
212.362	-20.3
212.582	-24.5
212.801	-49.49
213.021	-44.42
213.241	-36.24
213.461	-21.22
213.68	-0.35
213.9	9.5
214.12	10.47
214.339	9.91
214.559	8.49
214.779	-27.18
214.998	-30.95
215.218	-29.38
215.438	-8.86
215.657	-8.37
215.877	0.86
216.096	9.94
216.316	29.23
216.535	8.28
216.755	3.62
216.974	-10.35
217.194	-30.83
217.413	-38.35
217.633	-23
217.852	-23.43
218.072	-3.35
218.291	-0.51
218.511	-2.08
218.73	-17.7
218.95	-36.52
219.169	-40.24
219.389	-34.2
219.608	-54.13
219.827	-32.8
220.047	-22.04
220.266	-57.92
220.485	-68.34
220.705	-52.79
220.924	-71.8
221.143	-33.28
221.363	-12.22
221.582	-3.39
221.801	15.02
222.021	12.86
222.24	28.25
222.459	48.78
222.678	40.22
222.897	20.89
223.117	20.58
223.336	-1.47
223.555	-17.09
223.774	-10.04
223.993	5.74
224.213	15.38
224.432	21.5
224.651	12.82
224.87	12.57
225.089	8.64
225.308	9.05
225.527	-0.87
225.746	-4.48
225.965	-8.55
226.184	-18.53
226.404	-13.05
226.623	1.67
226.842	-0.57
227.061	-2.08
227.28	21.87
227.499	22.33
227.718	20.49
227.936	29.7
228.155	26.41
228.374	21.51
228.593	22.25
228.812	27.35
229.031	28.67
229.25	20.12
229.469	13.26
229.688	11.18
229.907	9.35
230.125	6.04
230.344	23.79
230.563	29.6
230.782	26.24
231.001	29.46
231.22	27.32
231.438	24.88
231.657	21.32
231.876	23.04
232.095	21
232.313	7.4
232.532	-15.87
232.751	-35.54
232.969	-31.74
233.188	-37.17
233.407	-21.58
233.625	-15.03
233.844	-7.53
234.063	-15.43
234.281	-5.94
234.5	-3.82
234.719	0.96
234.937	6.24
235.156	10.23
235.374	9.92
235.593	14.08
235.811	22.21
236.03	14.87
236.249	21.07
236.467	11.37
236.686	2.51
236.904	3.27
237.123	4.19
237.341	-2.34
237.559	12.62
237.778	24.93
237.996	5.3
238.215	-7.65
238.433	-45.66
238.652	-10.64
238.87	-13.95
239.088	-4.45
239.307	5.69
239.525	16.58
239.743	13.91
239.962	2.53
240.18	10.66
240.398	-5.84
240.617	-10.5
240.835	-26.1
241.053	-5.11
241.271	-12.1
241.49	5.58
241.708	0.87
241.926	-3.51
242.144	-20.92
242.363	-41.59
242.581	-103.15
242.799	-101.18
243.017	-46.57
243.235	-29.01
243.453	-34.53
243.672	-15.77
243.89	-15.35
244.108	-9.01
244.326	23.75
244.544	38.62
244.762	27.87
244.98	35.48
245.198	31.18
245.416	9.27
245.634	-4.22
245.852	-0.15
246.07	14.19
246.288	11.05
246.506	15.97
246.724	29.66
246.942	20.85
247.16	2.93
247.378	-6.14
247.596	-0.24
247.814	-43.34
248.032	-24.6
248.25	12.06
248.468	12.35
248.685	15.73
248.903	20.24
249.121	23.98
249.339	12.54
249.557	11.53
249.775	7.63
249.992	7.36
250.21	-4.23
250.428	8.21
250.646	5.7
250.863	-12.07
251.081	-0.29
251.299	3.76
251.517	-2.26
251.734	7.36
251.952	19.21
252.17	13.01
252.387	-3.15
252.605	-15.81
252.823	-34.58
253.04	-22.48
253.258	-17.88
253.475	5.06
253.693	14.55
253.911	9.78
254.128	6.81
254.346	20.49
254.563	29.45
254.781	23.5
254.998	23.42
255.216	-4.64
255.433	-28.41
255.651	-39.05
255.868	-31.78
256.086	-22.52
256.303	8.83
256.521	12.46
256.738	16.76
256.956	18.05
257.173	14.51
257.39	3.85
257.608	2.06
257.825	-14.3
258.043	-4.96
258.26	0.3
258.477	4.62
258.695	9.11
258.912	16.94
259.129	8.38
259.346	2.6
259.564	-1.38
259.781	-23.22
259.998	-5.9
260.216	4.28
260.433	-0.57
260.65	-4.82
260.867	9.73
261.084	17.33
261.302	27.64
261.519	47.79
261.736	34.73
261.953	30.19
262.17	27.4
262.387	18.08
262.604	9.38
262.822	15.99
263.039	17.7
263.256	11.95
263.473	4.17
263.69	4.25
263.907	-0.12
264.124	-19.5
264.341	-5.8
264.558	3.83
264.775	18.13
264.992	10.75
265.209	11.69
265.426	9.96
265.643	7.48
265.86	-31.97
266.077	2.73
266.294	27.21
266.51	31.55
266.727	48.86
266.944	48.77
267.161	47.94
267.378	37.6
267.595	13.08
267.812	-13.3
268.028	-32.67
268.245	-48.69
268.462	-36.5
268.679	-14.62
268.896	-7.38
269.112	-8.42
269.329	-27.49
269.546	3.95
269.763	3.85
269.979	-0.3
270.196	11.42
270.413	14.2
270.629	-21.18
270.846	-31.45
271.063	-23.66
271.279	-17.32
271.496	-23.07
271.712	-0.34
271.929	5.56
272.146	14.54
272.362	11.74
272.579	11.35
272.795	-13.31
273.012	-10.51
273.228	-12.95
273.445	-17.61
273.661	-15.96
273.878	-12.49
274.094	-20.41
274.311	-7.64
274.527	-16.91
274.744	5.11
274.96	9.99
275.177	10.34
275.393	12.08
275.609	26.07
275.826	12.68
276.042	7.43
276.259	16.66
276.475	-1.14
276.691	-23.08
276.908	-9.12
277.124	10.57
277.34	3.4
277.557	-13.38
277.773	0.78
277.989	-4.36
278.205	-12.09
278.422	-15.61
278.638	0.9
278.854	-6.78
279.07	7.19
279.286	-2.35
279.503	-0.55
279.719	1.55
279.935	5.05
280.151	-26.4
280.367	-11.15
280.583	-14.55
280.799	-16.18
281.016	-53.37
281.232	-31.31
281.448	-53.94
281.664	-45.24
281.88	-34.14
282.096	-2.94
282.312	-1.96
282.528	7.3
282.744	2.28
282.96	-22.36
283.176	-43.91
283.392	-67.16
283.608	-52.42
283.824	-64.91
284.04	-85.41
284.256	-41.48
284.471	-42.87
284.687	-33.9
284.903	-19.18
285.119	2.81
285.335	0.81
285.551	20.61
285.767	12.13
285.982	17.98
286.198	-18.26
286.414	0.38
286.63	-9.66
286.846	-18.58
287.061	2.64
287.277	26.17
287.493	1.77
287.709	-0.96
287.924	11.86
288.14	1.97
288.356	9.04
288.571	1.31
288.787	6.14
289.003	10.04
289.218	-0.17
289.434	-11.01
289.65	23.22
289.865	14.25
290.081	6.47
290.296	18.5
290.512	10.69
290.727	-4.63
290.943	3.34
291.159	7.07
291.374	-24.12
291.59	-13.79
291.805	-23.32
292.021	-27.24
292.236	-42.18
292.451	-21.77
292.667	-15.29
292.882	-3.75
293.098	2.11
293.313	10.98
293.529	17
293.744	3.93
293.959	3.84
294.175	3.14
294.39	-24.48
294.605	-7.54
294.821	-2.9
295.036	5.61
295.251	1.76
295.467	7.56
295.682	-3.15
295.897	-7.6
296.112	-23.11
296.328	-20.2
296.543	-36.69
296.758	-32.93
296.973	-31.53
297.188	-40
297.404	-60.34
297.619	-57.81
297.834	-129.28
298.049	-128.94
298.264	-106.81
298.479	-104.56
298.694	-27.77
298.909	5.14
299.125	10.27
299.34	11.98
299.555	17.14
299.77	17.51
299.985	16.29
300.2	22.37
300.415	24.99
300.63	23.34
300.845	6.19
301.06	0.76
301.275	3.86
301.49	-0.29
301.704	-11.74
301.919	-5.2
302.134	-14.93
302.349	-23.32
302.564	-16.85
302.779	-9.99
302.994	6.15
303.209	16.86
303.423	24.13
303.638	18.35
303.853	7.35
304.068	-14.05
304.283	-10.75
304.497	-43.09
304.712	-11.82
304.927	-2.75
305.142	4.29
305.356	6.97
305.571	31.15
305.786	21.23
306	23.44
306.215	4.13
306.43	-8.53
306.644	-31.27
306.859	-52.22
307.074	-28.29
307.288	-8.41
307.503	18.16
307.717	5.82
307.932	18.06
308.147	9.97
308.361	14.05
308.576	-7.27
308.79	6.83
309.005	-6.39
309.219	-8.17
309.434	-22.78
309.648	-11.68
309.863	-12.8
310.077	-19.31
310.292	3.59
310.506	2.42
310.72	-6.47
310.935	1.67
311.149	8.51
311.364	-3.44
311.578	-6.12
311.792	-4.93
312.007	1.49
312.221	-12.26
312.435	-20.39
312.649	-1.17
312.864	3.59
313.078	2.9
313.292	-7.66
313.507	-6.44
313.721	-20.06
313.935	-32.43
314.149	-38.94
314.363	-13.88
314.578	-6.12
314.792	-25.61
315.006	-37.07
315.22	-13.36
315.434	-20.04
315.648	-29.28
315.862	-9.63
316.077	-4.57
316.291	-10.53
316.505	-37.16
316.719	-22.11
316.933	-23.06
317.147	-21.8
317.361	-15.53
317.575	6.54
317.789	24.79
318.003	32.78
318.217	40.06
318.431	29.8
318.645	18.15
318.859	-0.88
319.073	-9.64
319.287	-11.76
319.5	-9.6
319.714	-12.35
319.928	-16.69
320.142	-17.59
320.356	-3.46
320.57	-20.14
320.784	-11.8
320.997	-31.82
321.211	-10.27
321.425	-47.16
321.639	2.09
321.853	7.98
322.066	17.14
322.28	10.16
322.494	20.07
322.707	1.27
322.921	-4.29
323.135	-1.93
323.349	-5.94
323.562	5.48
323.776	-10.37
323.989	-1.45
324.203	-11.86
324.417	-10.67
324.63	-32.97
324.844	-20.9
325.057	-43.97
325.271	-19.8
325.485	-23.59
325.698	-3.21
325.912	4.56
326.125	6.4
326.339	-0.12
326.552	-2.3
326.766	-13.93
326.979	-0.89
327.193	8.04
327.406	-2.43
327.619	3.16
327.833	-7.08
328.046	-14.94
328.26	-25.43
328.473	-3.51
328.686	-7.55
328.9	19.3
329.113	23.7
329.326	18.38
329.54	9.98
329.753	13.43
329.966	-3
330.179	-14.48
330.393	-3.27
330.606	11.23
330.819	-2.66
331.032	-0.28
331.246	1.18
331.459	1.33
331.672	-22.53
331.885	-9.59
332.098	-4.83
332.311	-0.98
332.525	3.58
332.738	12.42
332.951	6.15
333.164	7.15
333.377	17.63
333.59	5.26
333.803	-6.58
334.016	-6.5
334.229	-12.43
334.442	-22.9
334.655	-12.93
334.868	-8.65
335.081	3.13
335.294	0.18
335.507	12.76
335.72	20.66
335.933	7.28
336.146	3.42
336.359	16.01
336.572	2.7
336.785	-4.2
336.997	-13.45
337.21	-3.24
337.423	-28.97
337.636	-15.96
337.849	-25.63
338.062	0.59
338.274	1.01
338.487	-10.55
338.7	-29.14
338.913	-8.58
339.125	-22.53
339.338	-38.16
339.551	-22.26
339.763	-2.65
339.976	-20.41
340.189	-20.78
340.402	-6.06
340.614	-2.42
340.827	2.74
341.039	9.07
341.252	11.94
341.465	9.61
341.677	11.25
341.89	-2.27
342.102	7.68
342.315	11.6
342.527	29.93
342.74	12.85
342.952	17.47
343.165	15.36
343.377	17.68
343.59	-1.58
343.802	8.24
344.015	16.38
344.227	10.63
344.44	-3.16
344.652	-0.69
344.864	-0.11
345.077	-3.18
345.289	1.04
345.502	17.67
345.714	21.08
345.926	12.55
346.139	11.08
346.351	7.94
346.563	-6.68
346.775	3.1
346.988	21.22
347.2	12.22
347.412	8.52
347.624	6.89
347.837	1.52
348.049	-3.45
348.261	-11.66
348.473	-14.37
348.685	-9.15
348.897	-19.89
349.11	-13.19
349.322	2.53
349.534	8.29
349.746	9.95
349.958	-9.45
350.17	-28.59
350.382	-37.03
350.594	-30.02
350.806	-16.64
351.018	8.17
351.23	15.66
351.442	22.25
351.654	17.18
351.866	5.23
352.078	4.28
352.29	-9.37
352.502	-7.13
352.714	-3.95
352.926	-7.79
353.138	-6.16
353.35	-4.72
353.561	-15.74
353.773	-24.07
353.985	-16.07
354.197	-13.14
354.409	-10.12
354.621	-20.09
354.832	-10.14
355.044	-20.72
355.256	-23.27
355.468	-28.97
355.679	3.84
355.891	17.32
356.103	19.69
356.314	13.28
356.526	13
356.738	-17.42
356.949	-29.61
357.161	-18.8
357.373	-18.99
357.584	-1.37
357.796	17.35
358.008	15.32
358.219	13.3
358.431	20.23
358.642	15.48
358.854	6.2
359.065	-2.69
359.277	-4.88
359.488	-4.11
359.7	-8.2
359.911	-16.13
360.123	-1.77
360.334	-9.4
360.546	-25.34
360.757	-17.07
360.969	-8.81
361.18	-24.23
361.391	-3.34
361.603	11.3
361.814	14.48
362.025	12.87
362.237	21.66
362.448	23.03
362.659	19.74
362.871	0.31
363.082	-5.36
363.293	-21.27
363.504	-47.59
363.716	-41.8
363.927	1.66
364.138	-7.66
364.349	0.36
364.56	-8.11
364.772	1.46
364.983	-6.16
365.194	4.7
365.405	5.55
365.616	19.68
365.827	3.36
366.038	3.14
366.25	12.52
366.461	13.37
366.672	4.47
366.883	-4.28
367.094	-17.78
367.305	-34.5
367.516	-38.7
367.727	-46.16
367.938	-29.18
368.149	-33.61
368.36	-34.55
368.571	-49.04
368.781	-42.3
368.992	-40.31
369.203	-20.49
369.414	-25.21
369.625	-11.07
369.836	11.51
370.047	15.37
370.258	-1.6
370.468	1.4
370.679	0.44
370.89	-20.47
371.101	7.57
371.312	11.3
371.522	23.24
371.733	18.41
371.944	4.8
372.155	-2.5
372.365	0.82
372.576	-8.86
372.787	-10.94
372.997	-1.75
373.208	-23.04
373.419	-33.69
373.629	-32.3
373.84	-35.98
374.05	-27.54
374.261	-46.42
374.472	-33.3
374.682	-29.97
374.893	-30.41
375.103	-23.64
375.314	-5.34
375.524	-2.19
375.735	1.26
375.945	4.32
376.156	-5.84
376.366	-14.11
376.577	-12.37
376.787	-10.75
376.997	-3.94
377.208	5.94
377.418	15.06
377.629	10.53
377.839	11
378.049	17.73
378.26	10.87
378.47	7.06
378.68	17.59
378.89	8.53
379.101	-5.47
379.311	-8.83
379.521	-6.54
379.732	-7.22
379.942	-1.84
380.152	-9.37
380.362	-1.05
380.572	5.04
380.783	7.41
380.993	11.57
381.203	15.7
381.413	12.98
381.623	13.16
381.833	10.05
382.043	4.93
382.253	9.35
382.463	18.42
382.674	12.96
382.884	18.12
383.094	18.21
383.304	19.04
383.514	9.51
383.724	3.98
383.934	-6.5
384.144	-1.93
384.353	-7.42
384.563	-0.69
384.773	10.5
384.983	9.41
385.193	3.52
385.403	7.09
385.613	8.95
385.823	-1.76
386.033	4.99
386.242	5.52
386.452	6.75
386.662	3.43
386.872	7.95
387.082	-1.38
387.291	-4.69
387.501	-3.09
387.711	-3.1
387.921	-0.5
388.13	8.33
388.34	13.19
388.55	6.48
388.759	-2.3
388.969	-1.68
389.179	-3.76
389.388	-9.16
389.598	-8.52
389.807	-5.65
390.017	-7.94
390.227	-11
390.436	-3.15
390.646	-2.82
390.855	0.4
391.065	1.94
391.274	2.69
391.484	-0.89
391.693	-2.02
391.903	-1.83
392.112	-0.08
392.322	1.34
392.531	0.84
392.74	1.97
392.95	2.28
393.159	-0.96
393.369	-1.04
393.578	0.8
393.787	1.74
393.997	1.14
394.206	2.3
394.415	2.76
394.625	1.37
394.834	0.58
395.043	0.75
395.252	2.17
395.462	2.41
395.671	2.94
395.88	4.46
396.089	3.92
396.298	3.44
396.508	2.82
396.717	2.27
396.926	2.07
397.135	3.19
397.344	2.92
397.553	3.14
397.762	4.24
397.971	3.43
398.181	3.36
398.39	3.21
398.599	3.8
398.808	3.76
399.017	4.86
399.226	4.68
399.435	4.81
399.644	4.77
399.853	4.71
400.062	3.98
400.27	4.08
400.479	4.16
400.688	4.17
400.897	3.87
401.106	4.23
401.315	4.46
401.524	4.61
401.733	4.34
401.941	4.86
402.15	4.85
402.359	4.41
402.568	4.55
402.777	4.94
402.985	4.5
403.194	4.32
403.403	4.61
403.612	4.24
403.82	3.78
404.029	3.88
404.238	3.95
404.446	3.98
404.655	3.93
404.864	3.99
405.072	3.97
405.281	3.95
405.489	3.77
405.698	3.94
405.906	4.03
406.115	4.04
406.324	4.03
406.532	4.2
406.741	4.2
406.949	4.17
407.158	4.37
407.366	4.32
407.574	4.25
407.783	4.24
407.991	4.23
408.2	4.23
408.408	4.26
408.617	4.31
408.825	4.15
409.033	4.14
409.242	4.05
409.45	4.07
409.658	3.91
409.867	4.07
410.075	4.16
410.283	4.04
410.491	3.85
410.7	3.81
410.908	3.81
411.116	3.8
411.324	3.9
411.533	3.98
411.741	3.96
411.949	3.99
412.157	3.87
412.365	3.76
412.573	3.8
412.781	3.85
412.99	3.76
413.198	3.71
413.406	3.78
413.614	3.78
413.822	3.74
414.03	3.73
414.238	3.85
414.446	3.88
414.654	3.8
414.862	3.89
415.07	3.89
415.278	3.96
415.486	3.8
415.694	3.77
415.902	3.76
416.109	3.78
416.317	3.62
416.525	3.7
416.733	3.74
416.941	3.66
417.149	3.54
417.357	3.56
417.564	3.53
417.772	3.58
417.98	3.67
418.188	3.71
418.395	3.55
418.603	3.46
418.811	3.37
419.019	3.27
419.226	3.36
419.434	3.45
419.642	3.36
419.849	3.26
420.057	3.06
420.265	2.97
420.472	3.05
420.68	3.2
420.887	3.32
421.095	3.46
421.302	3.47
421.51	3.42
421.717	3.42
421.925	3.42
422.132	3.44
422.34	3.12
422.547	3.08
422.755	3.21
422.962	3.28
423.17	3.25
423.377	3.47
423.585	3.59
423.792	3.35
423.999	3.3
424.207	3.2
424.414	3.36
424.621	3.24
424.829	3.36
425.036	3.35
425.243	3.37
425.451	3.23
425.658	3.22
425.865	3.23
426.072	3.27
426.28	3.26
426.487	3.33
426.694	3.28
426.901	3.27
427.108	3.11
427.315	3.27
427.523	3.17
427.73	3.21
427.937	3.1
428.144	3.14
428.351	3.15
428.558	3.23
428.765	3.24
428.972	3.36
429.179	3.18
429.386	3.21
429.593	3.28
429.8	3.27
430.007	3.32
430.214	3.57
430.421	3.53
430.628	3.48
430.835	3.52
431.042	3.31
431.249	3.35
431.456	3.45
431.662	3.6
431.869	3.68
432.076	3.91
432.283	3.99
432.49	3.96
432.697	3.82
432.903	3.73
433.11	3.77
433.317	3.77
433.524	3.81
433.73	3.76
433.937	3.93
434.144	3.87
434.35	3.7
434.557	3.72
434.764	3.93
434.97	3.74
435.177	3.81
435.384	4.09
435.59	4.03
435.797	3.95
436.003	4.05
436.21	3.89
436.416	3.76
436.623	3.89
436.829	3.97
437.036	3.95
437.242	4.1
437.449	4.17
437.655	4.13
437.862	4.17
438.068	4.24
438.275	4.34
438.481	4.28
438.687	4.23
438.894	4.24
439.1	4.24
439.307	4.17
439.513	4.19
439.719	4.22
439.926	4.25
440.132	4.38
440.338	4.44
440.544	4.32
440.751	4.36
440.957	4.35
441.163	4.21
441.369	4.19
441.575	4.32
441.782	4.37
441.988	4.38
442.194	4.39
442.4	4.35
442.606	4.4
442.812	4.38
443.018	4.3
443.224	4.4
443.431	4.45
443.637	4.36
443.843	4.38
444.049	4.52
444.255	4.51
444.461	4.47
444.667	4.5
444.873	4.49
445.079	4.41
445.284	4.33
445.49	4.34
445.696	4.38
445.902	4.4
446.108	4.39
446.314	4.49
446.52	4.58
446.726	4.64
446.931	4.55
447.137	4.61
447.343	4.62
447.549	4.61
447.755	4.6
447.96	4.69
448.166	4.75
448.372	4.68
448.578	4.59
448.783	4.62
448.989	4.7
449.195	4.72
449.4	4.95
449.606	5.04
449.812	5
450.017	4.93
450.223	4.81
450.428	4.66
450.634	4.66
450.84	4.7
451.045	4.79
451.251	4.88
451.456	4.96
451.662	4.96
451.867	4.92
452.073	4.9
452.278	4.85
452.483	4.72
452.689	4.69
452.894	4.75
453.1	4.69
453.305	4.81
453.51	4.95
453.716	5.1
453.921	5.21
454.127	5.19
454.332	5.12
454.537	5.04
454.742	4.9
454.948	4.74
455.153	4.84
455.358	4.94
455.563	5.06
455.769	5.14
455.974	5.25
456.179	5.24
456.384	5.1
456.589	4.97
456.795	5
457	4.88
457.205	4.91
457.41	5.01
457.615	5.11
457.82	5.1
458.025	5.15
458.23	5.12
458.435	5.1
458.64	5.07
458.845	5.01
459.05	5.03
459.255	5.08
459.46	5.05
459.665	4.94
459.87	5.01
460.075	5.15
460.28	5.17
460.485	5.25
460.69	5.34
460.895	5.37
461.099	5.27
461.304	5.16
461.509	5.1
461.714	5.16
461.919	5.13
462.123	5.14
462.328	5.2
462.533	5.16
462.738	5.09
462.942	5.05
463.147	5.02
463.352	5.03
463.556	5.12
463.761	5.19
463.966	5.22
464.17	5.29
464.375	5.38
464.58	5.35
464.784	5.39
464.989	5.45
465.193	5.36
465.398	5.29
465.602	5.52
465.807	5.47
466.011	5.46
466.216	5.54
466.42	5.68
466.625	5.5
466.829	5.46
467.034	5.55
467.238	5.57
467.443	5.48
467.647	5.51
467.851	5.64
468.056	5.66
468.26	5.66
468.464	5.71
468.669	5.78
468.873	5.72
469.077	5.64
469.282	5.66
469.486	5.66
469.69	5.66
469.894	5.68
470.099	5.69
470.303	5.64
470.507	5.74
470.711	5.69
470.915	5.76
471.119	5.88
471.324	5.99
471.528	5.97
471.732	6.04
471.936	6.11
472.14	6.07
472.344	6.17
472.548	6.2
472.752	6.11
472.956	6.11
473.16	6.15
473.364	6.18
473.568	6.18
473.772	6.34
473.976	6.44
474.18	6.42
474.384	6.31
474.588	6.31
474.792	6.3
474.995	6.2
475.199	6.2
475.403	6.28
475.607	6.27
475.811	6.21
476.015	6.17
476.218	6.13
476.422	6.06
476.626	6.04
476.83	6.19
477.033	6.28
477.237	6.37
477.441	6.35
477.644	6.46
477.848	6.37
478.052	6.31
478.255	6.3
478.459	6.38
478.663	6.44
478.866	6.46
479.07	6.47
479.273	6.52
479.477	6.57
479.681	6.48
479.884	6.49
480.088	6.54
480.291	6.44
480.495	6.35
480.698	6.36
480.901	6.38
481.105	6.42
481.308	6.52
481.512	6.56
481.715	6.6
481.919	6.65
482.122	6.59
482.325	6.65
482.529	6.62
482.732	6.57
482.935	6.48
483.138	6.45
483.342	6.36
483.545	6.48
483.748	6.58
483.952	6.64
484.155	6.78
484.358	6.8
484.561	6.76
484.764	6.71
484.967	6.73
485.171	6.71
485.374	6.71
485.577	6.73
485.78	6.76
485.983	6.65
486.186	6.63
486.389	6.67
486.592	6.65
486.795	6.73
486.998	6.79
487.201	6.87
487.404	6.95
487.607	6.97
487.81	6.89
488.013	6.98
488.216	6.95
488.419	6.89
488.622	6.93
488.825	6.98
489.028	6.93
489.231	6.94
489.433	6.94
489.636	6.96
489.839	7
490.042	7.08
490.245	7.1
490.447	7.16
490.65	7.21
490.853	7.27
491.056	7.31
491.258	7.4
491.461	7.39
491.664	7.46
491.866	7.48
492.069	7.55
492.272	7.48
492.474	7.59
492.677	7.56
492.879	7.6
493.082	7.71
493.285	7.89
493.487	7.94
493.69	8.06
493.892	8.09
494.095	8.1
494.297	8.14
494.5	8.14
494.702	8.23
494.905	8.35
495.107	8.33
495.309	8.32
495.512	8.42
495.714	8.48
495.917	8.51
496.119	8.7
496.321	8.74
496.524	8.73
496.726	8.73
496.928	8.73
497.13	8.68
497.333	8.71
497.535	8.86
497.737	8.96
497.939	9.04
498.142	9.13
498.344	9.24
498.546	9.29
498.748	9.38
498.95	9.5
499.152	9.55
499.355	9.63
499.557	9.65
499.759	9.67
499.961	9.67
500.163	9.73
500.365	9.8
500.567	9.84
500.769	9.81
500.971	9.91
501.173	9.85
501.375	9.93
501.577	9.98
501.779	10.08
501.981	10.05
502.183	10.12
502.385	10.11
502.587	10.13
502.788	10.14
502.99	10.19
503.192	10.29
503.394	10.22
503.596	10.16
503.798	10.12
503.999	10.07
504.201	9.96
504.403	10.01
504.605	10.07
504.806	10.07
505.008	10.14
505.21	10.12
505.411	10.1
505.613	10.13
505.815	10.09
506.016	10.07
506.218	10.11
506.42	10.1
506.621	10.08
506.823	10.05
507.024	9.99
507.226	9.94
507.427	9.97
507.629	9.92
507.83	9.96
508.032	9.93
508.233	9.99
508.435	9.93
508.636	9.9
508.838	9.88
509.039	9.93
509.24	9.87
509.442	9.88
509.643	9.84
509.845	9.79
510.046	9.8
510.247	9.82
510.448	9.76
510.65	9.81
510.851	9.8
511.052	9.69
511.254	9.69
511.455	9.71
511.656	9.62
511.857	9.6
512.058	9.59
512.26	9.47
512.461	9.44
512.662	9.45
512.863	9.37
513.064	9.34
513.265	9.32
513.466	9.32
513.667	9.34
513.868	9.36
514.069	9.33
514.27	9.35
514.471	9.31
514.672	9.29
514.873	9.22
515.074	9.23
515.275	9.22
515.476	9.23
515.677	9.16
515.878	9.28
516.079	9.31
516.28	9.31
516.481	9.29
516.682	9.27
516.882	9.18
517.083	9.11
517.284	9.15
517.485	9.08
517.686	9.14
517.886	9.2
518.087	9.12
518.288	9.08
518.488	9.09
518.689	8.97
518.89	8.91
519.091	9
519.291	8.92
519.492	8.95
519.692	9
519.893	9.05
520.094	8.98
520.294	9
520.495	8.95
520.695	9.02
520.896	8.92
521.096	8.99
521.297	9.04
521.497	9
521.698	8.94
521.898	8.98
522.099	8.97
522.299	8.93
522.499	8.98
522.7	8.92
522.9	8.9
523.101	8.83
523.301	8.84
523.501	8.83
523.702	8.84
523.902	8.82
524.102	8.9
524.302	8.91
524.503	8.9
524.703	8.9
524.903	8.89
525.103	8.86
525.304	8.82
525.504	8.87
525.704	8.89
525.904	8.88
526.104	8.87
526.304	8.83
526.504	8.82
526.705	8.8
526.905	8.83
527.105	8.88
527.305	8.9
527.505	8.85
527.705	8.82
527.905	8.9
528.105	8.87
528.305	8.88
528.505	8.9
528.705	9.02
528.905	9.01
529.105	9
529.304	9.01
529.504	9.03
529.704	8.96
529.904	8.94
530.104	8.88
530.304	8.86
530.503	8.87
530.703	8.86
530.903	8.85
531.103	8.92
531.303	8.96
531.502	8.95
531.702	9.01
531.902	9.05
532.101	9
532.301	9.04
532.501	9.15
532.7	9.18
532.9	9.2
533.1	9.28
533.299	9.25
533.499	9.11
533.698	9.09
533.898	9.08
534.097	9.05
534.297	9.02
534.496	9.08
534.696	9.06
534.895	9.1
535.095	9.15
535.294	9.25
535.494	9.28
535.693	9.28
535.892	9.24
536.092	9.21
536.291	9.16
536.491	9.15
536.69	9.18
536.889	9.16
537.088	9.17
537.288	9.17
537.487	9.16
537.686	9.15
537.886	9.17
538.085	9.17
538.284	9.22
538.483	9.28
538.682	9.25
538.882	9.3
539.081	9.31
539.28	9.32
539.479	9.28
539.678	9.37
539.877	9.34
540.076	9.32
540.275	9.33
540.474	9.29
540.673	9.24
540.872	9.24
541.071	9.31
541.27	9.33
541.469	9.37
541.668	9.4
541.867	9.42
542.066	9.44
542.265	9.46
542.464	9.52
542.663	9.62
542.862	9.75
543.06	9.79
543.259	9.92
543.458	9.97
543.657	9.96
543.856	9.98
544.054	9.98
544.253	9.86
544.452	9.88
544.651	9.91
544.849	9.87
545.048	9.92
545.247	10
545.445	9.98
545.644	9.99
545.843	9.96
546.041	9.94
546.24	9.9
546.438	9.92
546.637	9.95
546.836	10
547.034	10.03
547.233	10.11
547.431	10.16
547.63	10.16
547.828	10.21
548.027	10.23
548.225	10.22
548.423	10.26
548.622	10.33
548.82	10.35
549.019	10.41
549.217	10.45
549.415	10.39
549.614	10.44
549.812	10.45
550.01	10.49
550.209	10.61
550.407	10.74
550.605	10.66
550.803	10.73
551.002	10.8
551.2	10.76
551.398	10.85
551.596	10.96
551.794	11.06
551.993	11.04
552.191	11.1
552.389	11.04
552.587	11.1
552.785	11.14
552.983	11.22
553.181	11.28
553.379	11.37
553.577	11.4
553.775	11.4
553.973	11.45
554.171	11.52
554.369	11.58
554.567	11.68
554.765	11.7
554.963	11.75
555.161	11.8
555.359	11.86
555.557	11.85
555.755	11.97
555.952	12.03
556.15	12.11
556.348	12.19
556.546	12.43
556.744	12.44
556.941	12.46
557.139	12.52
557.337	12.55
557.535	12.5
557.732	12.59
557.93	12.73
558.128	12.81
558.325	12.95
558.523	13.03
558.721	13.15
558.918	13.18
559.116	13.25
559.313	13.32
559.511	13.42
559.708	13.47
559.906	13.56
560.104	13.55
560.301	13.57
560.498	13.64
560.696	13.66
560.893	13.79
561.091	13.92
561.288	14.12
561.486	14.15
561.683	14.31
561.88	14.36
562.078	14.41
562.275	14.33
562.473	14.43
562.67	14.5
562.867	14.54
563.064	14.66
563.262	14.8
563.459	14.92
563.656	14.95
563.853	15.05
564.051	15.13
564.248	15.19
564.445	15.21
564.642	15.27
564.839	15.43
565.036	15.46
565.234	15.57
565.431	15.71
565.628	15.82
565.825	15.77
566.022	15.91
566.219	15.93
566.416	15.93
566.613	16
566.81	16.12
567.007	16.15
567.204	16.24
567.401	16.3
567.598	16.39
567.795	16.42
567.991	16.41
568.188	16.47
568.385	16.56
568.582	16.63
568.779	16.72
568.976	16.8
569.172	16.84
569.369	16.89
569.566	16.93
569.763	16.91
569.96	17.04
570.156	17.12
570.353	17.17
570.55	17.17
570.746	17.32
570.943	17.34
571.14	17.32
571.336	17.32
571.533	17.38
571.729	17.38
571.926	17.46
572.123	17.64
572.319	17.7
572.516	17.72
572.712	17.76
572.909	17.6
573.105	17.64
573.302	17.63
573.498	17.59
573.695	17.52
573.891	17.59
574.087	17.41
574.284	17.42
574.48	17.58
574.677	17.72
574.873	17.76
575.069	17.86
575.266	17.89
575.462	17.8
575.658	17.79
575.854	17.81
576.051	17.82
576.247	17.81
576.443	17.89
576.639	17.91
576.835	17.96
577.032	17.9
577.228	17.95
577.424	17.9
577.62	17.8
577.816	17.69
578.012	17.73
578.208	17.69
578.404	17.64
578.6	17.67
578.796	17.8
578.993	17.8
579.189	17.86
579.384	17.87
579.58	17.89
579.776	17.82
579.972	17.77
580.168	17.76
580.364	17.81
580.56	17.79
580.756	17.7
580.952	17.75
581.148	17.72
581.343	17.69
581.539	17.7
581.735	17.76
581.931	17.64
582.127	17.51
582.322	17.48
582.518	17.46
582.714	17.41
582.909	17.5
583.105	17.57
583.301	17.66
583.496	17.68
583.692	17.67
583.888	17.6
584.083	17.62
584.279	17.42
584.474	17.39
584.67	17.36
584.866	17.35
585.061	17.31
585.257	17.44
585.452	17.42
585.648	17.38
585.843	17.38
586.039	17.46
586.234	17.4
586.429	17.41
586.625	17.57
586.82	17.69
587.015	17.56
587.211	17.52
587.406	17.5
587.601	17.45
587.797	17.34
587.992	17.41
588.187	17.38
588.383	17.4
588.578	17.4
588.773	17.46
588.968	17.51
589.163	17.61
589.359	17.54
589.554	17.46
589.749	17.51
589.944	17.5
590.139	17.45
590.334	17.58
590.529	17.66
590.724	17.66
590.919	17.66
591.114	17.75
591.309	17.76
591.504	17.75
591.699	17.7
591.894	17.72
592.089	17.68
592.284	17.74
592.479	17.79
592.674	17.87
592.869	17.9
593.064	17.95
593.259	18.03
593.454	18.12
593.648	18.18
593.843	18.27
594.038	18.34
594.233	18.33
594.428	18.41
594.622	18.44
594.817	18.58
595.012	18.59
595.206	18.68
595.401	18.72
595.596	18.86
595.79	18.79
595.985	18.84
596.18	18.88
596.374	19.04
596.569	19.05
596.763	19.13
596.958	19.3
597.153	19.4
597.347	19.32
597.542	19.33
597.736	19.42
597.931	19.48
598.125	19.56
598.319	19.66
598.514	19.82
598.708	19.93
598.903	20
599.097	19.99
599.291	20
599.486	20.05
599.68	20.05
599.874	20.08
600.069	20.18
600.263	20.29
600.457	20.27
600.651	20.34
600.846	20.26
601.04	20.21
601.234	20.2
601.428	20.28
601.622	20.29
601.817	20.4
602.011	20.48
602.205	20.59
602.399	20.52
602.593	20.61
602.787	20.55
602.981	20.52
603.175	20.54
603.369	20.6
603.563	20.55
603.757	20.69
603.951	20.72
604.145	20.7
604.339	20.77
604.533	20.76
604.727	20.68
604.921	20.66
605.115	20.6
605.309	20.49
605.502	20.54
605.696	20.51
605.89	20.57
606.084	20.53
606.278	20.58
606.471	20.44
606.665	20.46
606.859	20.3
607.053	20.19
607.246	20.09
607.44	20
607.634	19.88
607.827	19.81
608.021	19.79
608.214	19.73
608.408	19.75
608.602	19.63
608.795	19.69
608.989	19.68
609.182	19.71
609.376	19.72
609.569	19.79
609.763	19.67
609.956	19.66
610.15	19.51
610.343	19.43
610.537	19.34
610.73	19.24
610.923	19.09
611.117	19.15
611.31	19.01
611.504	18.89
611.697	18.85
611.89	18.82
612.083	18.57
612.277	18.55
612.47	18.46
612.663	18.51
612.856	18.47
613.05	18.4
613.243	18.32
613.436	18.32
613.629	18.14
613.822	18.06
614.015	18.01
614.209	17.88
614.402	17.77
614.595	17.73
614.788	17.71
614.981	17.66
615.174	17.6
615.367	17.54
615.56	17.46
615.753	17.4
615.946	17.28
616.139	17.33
616.332	17.28
616.525	17.21
616.718	17.12
616.911	17.16
617.103	17.13
617.296	17.06
617.489	17.08
617.682	17.07
617.875	17.07
618.067	17.06
618.26	17.1
618.453	16.97
618.646	16.98
618.838	16.87
619.031	16.78
619.224	16.67
619.417	16.75
619.609	16.64
619.802	16.63
619.994	16.63
620.187	16.57
620.38	16.52
620.572	16.51
620.765	16.58
620.957	16.56
621.15	16.58
621.342	16.49
621.535	16.5
621.727	16.37
621.92	16.3
622.112	16.29
622.305	16.33
622.497	16.27
622.69	16.27
622.882	16.27
623.074	16.26
623.267	16.18
623.459	16.16
623.651	16.1
623.844	16.05
624.036	16.03
624.228	16.01
624.42	15.96
624.613	15.92
624.805	15.87
624.997	15.84
625.189	15.84
625.381	15.82
625.574	15.83
625.766	15.72
625.958	15.67
626.15	15.74
626.342	15.69
626.534	15.68
626.726	15.71
626.918	15.69
627.11	15.5
627.302	15.51
627.494	15.49
627.686	15.51
627.878	15.48
628.07	15.56
628.262	15.57
628.454	15.61
628.646	15.6
628.838	15.6
629.029	15.51
629.221	15.48
629.413	15.32
629.605	15.2
629.797	15.13
629.989	15.12
630.18	15.09
630.372	15.13
630.564	15.14
630.755	15.11
630.947	15.14
631.139	15.12
631.33	15.08
631.522	15.13
631.714	15.13
631.905	15.11
632.097	15.06
632.289	14.97
632.48	14.88
632.672	14.83
632.863	14.75
633.055	14.74
633.246	14.83
633.438	14.86
633.629	14.9
633.821	14.85
634.012	14.79
634.203	14.73
634.395	14.58
634.586	14.57
634.777	14.61
634.969	14.68
635.16	14.59
635.351	14.65
635.543	14.52
635.734	14.5
635.925	14.45
636.117	14.53
636.308	14.62
636.499	14.66
636.69	14.58
636.881	14.46
637.073	14.45
637.264	14.44
637.455	14.44
637.646	14.51
637.837	14.65
638.028	14.61
638.219	14.57
638.41	14.6
638.601	14.61
638.792	14.57
638.983	14.56
639.174	14.45
639.365	14.43
639.556	14.3
639.747	14.22
639.938	14.3
640.129	14.32
640.32	14.27
640.511	14.38
640.701	14.43
640.892	14.33
641.083	14.27
641.274	14.19
641.465	14.04
641.655	13.96
641.846	13.93
642.037	13.88
642.228	13.91
642.418	13.96
642.609	13.99
642.8	14.01
642.99	14.09
643.181	14.08
643.372	14.05
643.562	13.96
643.753	13.88
643.943	13.72
644.134	13.64
644.324	13.63
644.515	13.65
644.705	13.68
644.896	13.86
645.086	13.89
645.277	13.9
645.467	13.91
645.658	13.87
645.848	13.88
646.038	13.86
646.229	13.84
646.419	13.8
646.61	13.81
646.8	13.71
646.99	13.63
647.18	13.52
647.371	13.47
647.561	13.41
647.751	13.4
647.941	13.45
648.132	13.49
648.322	13.49
648.512	13.53
648.702	13.59
648.892	13.58
649.082	13.55
649.272	13.53
649.462	13.56
649.653	13.46
649.843	13.41
650.033	13.47
650.223	13.42
650.413	13.37
650.603	13.38
650.793	13.32
650.983	13.2
651.172	13.3
651.362	13.19
651.552	13.14
651.742	13.12
651.932	13.12
652.122	13.02
652.312	13
652.502	12.91
652.691	12.98
652.881	12.91
653.071	12.83
653.261	12.81
653.45	12.78
653.64	12.65
653.83	12.61
654.019	12.48
654.209	12.36
654.399	12.34
654.588	12.17
654.778	12.03
654.968	12.02
655.157	11.92
655.347	11.77
655.536	11.68
655.726	11.56
655.915	11.46
656.105	11.37
656.294	11.15
656.484	11.08
656.673	11.12
656.863	10.99
657.052	10.89
657.241	10.93
657.431	10.87
657.62	10.69
657.809	10.51
657.999	10.41
658.188	10.28
658.377	10.16
658.567	10.12
658.756	10.08
658.945	9.96
659.134	9.79
659.324	9.57
659.513	9.41
659.702	9.27
659.891	9.21
660.08	9.1
660.269	9.03
660.458	8.82
660.648	8.74
660.837	8.58
661.026	8.41
661.215	8.38
661.404	8.38
661.593	8.43
661.782	8.28
661.971	8.2
662.16	8.11
662.349	7.98
662.538	7.68
662.726	7.75
662.915	7.77
663.104	7.54
663.293	7.57
663.482	7.51
663.671	7.34
663.86	7.23
664.048	7.34
664.237	7.29
664.426	7.33
664.615	7.35
664.803	7.23
664.992	7.13
665.181	6.99
665.369	6.9
665.558	6.88
665.747	6.91
665.935	6.9
666.124	6.9
666.312	6.85
666.501	6.81
666.69	6.79
666.878	6.82
667.067	6.73
667.255	6.66
667.444	6.7
667.632	6.71
667.82	6.64
668.009	6.67
668.197	6.64
668.386	6.44
668.574	6.45
668.762	6.45
668.951	6.44
669.139	6.51
669.327	6.56
669.516	6.52
669.704	6.46
669.892	6.47
670.08	6.36
670.269	6.32
670.457	6.31
670.645	6.3
670.833	6.4
671.021	6.57
671.21	6.62
671.398	6.59
671.586	6.69
671.774	6.62
671.962	6.55
672.15	6.65
672.338	6.62
672.526	6.66
672.714	6.64
672.902	6.68
673.09	6.67
673.278	6.81
673.466	6.81
673.654	6.77
673.842	6.83
674.03	6.9
674.218	6.93
674.405	6.86
674.593	7.02
674.781	7.02
674.969	7.12
675.157	7.03
675.344	7.18
675.532	7.13
675.72	7.17
675.908	6.97
676.095	7.06
676.283	7.05
676.471	7.14
676.658	7.16
676.846	7.28
677.033	7.28
677.221	7.33
677.409	7.37
677.596	7.46
677.784	7.61
677.971	7.67
678.159	7.61
678.346	7.57
678.534	7.58
678.721	7.65
678.909	7.82
679.096	8.01
679.283	8.03
679.471	8.14
679.658	8.12
679.846	8
680.033	8.22
680.22	8.43
680.408	8.34
680.595	8.46
680.782	8.64
680.969	8.65
681.157	8.75
681.344	8.86
681.531	8.91
681.718	9.09
681.905	9.07
682.093	9.19
682.28	9.34
682.467	9.51
682.654	9.48
682.841	9.58
683.028	9.58
683.215	9.76
683.402	9.76
683.589	9.88
683.776	9.9
683.963	10.15
684.15	10.21
684.337	10.45
684.524	10.6
684.711	10.83
684.898	10.81
685.085	10.91
685.271	11.03
685.458	11.24
685.645	11.38
685.832	11.55
686.019	11.73
686.205	12.02
686.392	12.25
686.579	12.61
686.766	13.04
686.952	13.39
687.139	13.56
687.326	13.9
687.512	14.05
687.699	14.3
687.886	14.65
688.072	14.87
688.259	15.11
688.445	15.63
688.632	15.91
688.818	16.22
689.005	16.75
689.191	17.1
689.378	17.41
689.564	17.92
689.751	18.42
689.937	18.93
690.124	19.65
690.31	20
690.496	20.55
690.683	21.18
690.869	21.53
691.055	21.85
691.242	22.56
691.428	23.02
691.614	23.41
691.8	24.01
691.987	24.91
692.173	25.55
692.359	26.28
692.545	27.17
692.731	27.89
692.918	28.25
693.104	28.96
693.29	29.46
693.476	29.92
693.662	30.73
693.848	31.57
694.034	32.25
694.22	33.05
694.406	33.77
694.592	34.47
694.778	35.2
694.964	35.91
695.15	36.8
695.336	37.56
695.522	38.38
695.708	39.03
695.894	39.68
696.08	40.3
696.265	41.16
696.451	41.71
696.637	42.5
696.823	43.4
697.009	44.24
697.194	44.77
697.38	45.56
697.566	46.21
697.751	46.83
697.937	47.55
698.123	48.56
698.308	49.34
698.494	50.15
698.68	50.81
698.865	51.49
699.051	52.28
699.236	53.17
699.422	53.77
699.607	54.6
699.793	55.25
699.978	55.44
700.164	55.64
700.349	56.69
700.535	57.12
700.72	57.69
700.906	58.35
701.091	59.15
701.276	59.3
701.462	59.91
701.647	60.53
701.832	61.36
702.018	62.22
702.203	63.08
702.388	63.8
702.573	64.51
702.759	64.95
702.944	65.07
703.129	65.29
703.314	65.69
703.499	66.01
703.684	66.56
703.87	67.22
704.055	67.56
704.24	68.29
704.425	68.69
704.61	68.64
704.795	69.38
704.98	70.09
705.165	70.21
705.35	70.43
705.535	71.16
705.72	70.88
705.905	71.34
706.09	71.97
706.275	72.35
706.459	73.01
706.644	73.42
706.829	73.6
707.014	73.75
707.199	74.32
707.384	74.43
707.568	74.86
707.753	75.27
707.938	75.69
708.123	75.99
708.307	76.03
708.492	76.7
708.677	76.96
708.861	77.04
709.046	76.95
709.231	77.43
709.415	77.33
709.6	77.16
709.784	77.45
709.969	78.08
710.153	77.84
710.338	78.03
710.522	78.61
710.707	78.67
710.891	78.68
711.076	79.41
711.26	80.18
711.445	80.43
711.629	80.62
711.813	81.32
711.998	81.5
712.182	81.12
712.366	81.65
712.551	82.09
712.735	81.78
712.919	82.11
713.103	82.97
713.288	82.69
713.472	82.89
713.656	83.12
713.84	82.97
714.024	82.55
714.208	82.61
714.393	82.62
714.577	82.9
714.761	83.06
714.945	83.54
715.129	83.82
715.313	84.5
715.497	84.22
715.681	84.43
715.865	83.9
716.049	84.11
716.233	83.44
716.417	83.72
716.601	83.73
716.785	84.03
716.968	84.02
717.152	84.44
717.336	84.73
717.52	85.15
717.704	85.42
717.888	85.48
718.071	85.56
718.255	85.77
718.439	85.53
718.622	85.59
718.806	85.45
718.99	85.41
719.174	85.29
719.357	85.28
719.541	85.43
719.724	86.14
719.908	86.5
720.092	86.67
720.275	86.75
720.459	87.03
720.642	87.09
720.826	87.09
721.009	86.92
721.193	86.73
721.376	86.75
721.559	86.88
721.743	86.6
721.926	86.72
722.11	87.35
722.293	87.44
722.476	86.83
722.66	87.65
722.843	87.65
723.026	88.08
723.21	87.77
723.393	88.54
723.576	88.08
723.759	88.57
723.942	88.38
724.126	88.39
724.309	87.91
724.492	88.13
724.675	88.04
724.858	88.59
725.041	88.83
725.224	89.56
725.407	89.29
725.59	89.21
725.774	88.82
725.957	89.63
726.14	89.42
726.322	89.7
726.505	89.57
726.688	89.77
726.871	89.39
727.054	89.29
727.237	89.49
727.42	89.68
727.603	89.35
727.786	89.22
727.968	89.08
728.151	88.81
728.334	88.6
728.517	89.12
728.699	88.86
728.882	89.01
729.065	88.99
729.248	89.66
729.43	89.05
729.613	89.26
729.796	89.29
729.978	89.49
730.161	89.29
730.343	90
730.526	90.07
730.708	90.1
730.891	90.16
731.073	90.26
731.256	90
731.438	90.3
731.621	90.19
731.803	90.03
731.986	89.97
732.168	90.59
732.35	90.6
732.533	90.62
732.715	91.41
732.898	91.6
733.08	91.03
733.262	90.93
733.444	91.53
733.627	91.49
733.809	91.7
733.991	92
734.173	92.05
734.355	91.72
734.538	91.89
734.72	91.77
734.902	91.95
735.084	91.46
735.266	91.88
735.448	91.61
735.63	92.11
735.812	92.01
735.994	92.02
736.176	92.17
736.358	92.25
736.54	92.24
736.722	91.51
736.904	92.04
737.086	91.46
737.268	91.97
737.45	92.19
737.632	92.5
737.814	92.86
737.995	92.84
738.177	92.6
738.359	91.84
738.541	92.41
738.723	91.75
738.904	92.19
739.086	92.32
739.268	92.66
739.449	91.92
739.631	92.24
739.813	92.11
739.994	90.95
740.176	91.45
740.358	92.54
740.539	92.32
740.721	92.96
740.902	94.29
741.084	93.63
741.265	93.79
741.447	94.68
741.628	94.32
741.81	94.05
741.991	94.25
742.172	92.81
742.354	92.54
742.535	91.68
742.717	90.2
742.898	90.28
743.079	91.62
743.261	91.25
743.442	90.58
743.623	91.22
743.804	91.36
743.986	90.5
744.167	90.36
744.348	91.96
744.529	92.36
744.71	92.23
744.891	92.04
745.073	92.21
745.254	91.79
745.435	92.02
745.616	91.56
745.797	91.68
745.978	91.69
746.159	90.59
746.34	90.54
746.521	90.71
746.702	91.73
746.883	91.9
747.064	92.84
747.245	93.21
747.426	93.17
747.606	92.41
747.787	92.63
747.968	92.77
748.149	91.91
748.33	91.21
748.51	90.24
748.691	90.09
748.872	90.72
749.053	90.04
749.233	90.79
749.414	91.99
749.595	91.37
749.775	91.1
749.956	91.94
750.137	92.71
750.317	91.37
750.498	91.23
750.678	91.37
750.859	91.99
751.04	91.31
751.22	91.22
751.4	93.2
751.581	93.44
751.761	93.74
751.942	93.56
752.122	94.05
752.303	91.95
752.483	90.83
752.663	90.16
752.844	89.49
753.024	91.16
753.204	92.92
753.385	93.69
753.565	93.52
753.745	92.56
753.925	90.85
754.106	90.32
754.286	89.63
754.466	89.44
754.646	90.94
754.826	91.99
755.006	91.58
755.187	92.25
755.367	91.56
755.547	92.43
755.727	91.85
755.907	90.7
756.087	88.88
756.267	88.64
756.447	88.61
756.627	89.28
756.807	90.63
756.987	93.55
757.167	94.18
757.346	92.3
757.526	93
757.706	92.28
757.886	90.95
758.066	91.27
758.246	91.05
758.425	88.15
758.605	87.68
758.785	87.91
758.965	88.01
759.144	88.16
759.324	89.92
759.504	90.64
759.683	88.94
759.863	88.7
760.043	88.28
760.222	88.52
760.402	86.89
760.581	88.33
760.761	87.94
760.94	88.85
761.12	87.74
761.299	89.53
761.479	89.59
761.658	90.32
761.838	92.15
762.017	93.16
762.197	92.48
762.376	92.95
762.555	92.6
762.735	91.24
762.914	89.74
763.093	90.57
763.273	89.29
763.452	88.63
763.631	88.23
763.81	89.34
763.99	88.07
764.169	88.14
764.348	88.16
764.527	89.04
764.706	87.65
764.885	88.08
765.064	88.8
765.243	88.05
765.423	86.78
765.602	88.18
765.781	87.84
765.96	87.25
766.139	88.25
766.318	89.87
766.497	88.75
766.676	87.48
766.854	86.31
767.033	87.07
767.212	87.12
767.391	89.2
767.57	92.65
767.749	93.81
767.928	93.29
768.106	91.23
768.285	89.87
768.464	88.04
768.643	87.3
768.821	86.29
769	86.83
769.179	85.41
769.357	86.04
769.536	86.41
769.715	86.18
769.893	86.18
770.072	85.86
770.25	84.82
770.429	85.68
770.607	87.21
770.786	88.14
770.964	90.42
771.143	91.05
771.321	89.34
771.5	89.28
771.678	88.5
771.857	86.42
772.035	86.76
772.213	87.26
772.392	84.98
772.57	83.65
772.748	83.58
772.927	83.29
773.105	84.13
773.283	85.19
773.461	87.47
773.64	88.92
773.818	88.62
773.996	88.59
774.174	89.08
774.352	87.89
774.531	87.24
774.709	87.08
774.887	85.29
775.065	84.89
775.243	85
775.421	85.96
775.599	86.83
775.777	86.6
775.955	85.65
776.133	86.38
776.311	85.74
776.489	85.28
776.667	86.3
776.844	87.52
777.022	85.85
777.2	84.96
777.378	83.48
777.556	84.73
777.734	85.24
777.911	85.28
778.089	86.4
778.267	88.29
778.445	87.18
778.622	85.89
778.8	82.85
778.978	82.65
779.155	83.47
779.333	84.61
779.511	85.35
779.688	89.56
779.866	88.93
780.043	88.54
780.221	87.35
780.398	86.17
780.576	85.22
780.753	84.63
780.931	83.62
781.108	84.67
781.286	86.95
781.463	87.71
781.64	88.48
781.818	91.29
781.995	90.41
782.172	90.35
782.35	91.88
782.527	91.07
782.704	87.09
782.882	84.98
783.059	83.66
783.236	81.85
783.413	82.19
783.59	82.09
783.768	82.58
783.945	80.86
784.122	80.01
784.299	83.21
784.476	81.63
784.653	82.02
784.83	81.29
785.007	82.61
785.184	78.17
785.361	79.89
785.538	79.36
785.715	82.75
785.892	80.53
786.069	83.77
786.246	82.12
786.423	82.12
786.6	81.61
786.776	80.67
786.953	77.68
787.13	81.54
787.307	84.61
787.484	80.32
787.66	82.41
787.837	81.39
788.014	82.45
788.191	79.12
788.367	81.02
788.544	79.96
788.721	81.85
788.897	79.12
789.074	79.78
789.25	80.21
789.427	80.72
789.603	76.42
789.78	74.58
789.956	74.6
790.133	72.12
790.309	75.08
790.486	76.58
790.662	77.13
790.839	76.41
791.015	80.06
791.192	77.47
791.368	79.59
791.544	81.24
791.721	81.92
791.897	82.36
792.073	81.14
792.249	79.95
792.426	78.77
792.602	79.79
792.778	76.56
792.954	79.52
793.13	79.69
793.307	77.06
793.483	76.3
793.659	79.05
793.835	78.16
794.011	82.58
794.187	84.7
794.363	83.3
794.539	83.09
794.715	82.96
794.891	81.6
795.067	79.97
795.243	81.42
795.419	83.04
795.595	88.17
795.771	87.1
795.947	84.72
796.122	78.18
796.298	74.86
796.474	75
796.65	74.24
796.826	75.37
797.001	78.56
797.177	74.14
797.353	66.83
797.529	64.61
797.704	70.21
797.88	70.64
798.056	75.2
798.231	75.76
798.407	77.22
798.582	73.75
798.758	77.89
798.934	77.81
799.109	78.58
799.285	82.65
799.46	80.2
799.636	78.18
799.811	79.08
799.986	74.65
800.162	65.14
800.337	73.06
800.513	73.84
800.688	70.36
800.863	76.78
801.039	83.68
801.214	74.38
801.389	74.29
801.565	75.25
801.74	70.91
801.915	69.34
802.09	66.44
802.265	66.04
802.441	63.2
802.616	65.18
802.791	66.86
802.966	76.71
803.141	75.03
803.316	78.13
803.491	80.3
803.666	78.47
803.841	69.86
804.016	71.5
804.191	71.83
804.366	70.43
804.541	75.58
804.716	80.76
804.891	80.3
805.066	82.93
805.241	82.55
805.416	82.4
805.591	81.92
805.765	86.06
805.94	81.37
806.115	82.59
806.29	82.18
806.464	77.55
806.639	71.04
806.814	67.35
806.989	72.37
807.163	71.43
807.338	70.15
807.512	70.67
807.687	77.82
807.862	73.28
808.036	76.03
808.211	80.09
808.385	89.01
808.56	83.3
808.734	71.9
808.909	74
809.083	82.35
809.258	73.06
809.432	78.27
809.606	88.91
809.781	87.3
809.955	74.86
810.13	71.73
810.304	69.24
810.478	68.33
810.652	61.49
810.827	67.64
811.001	68.12
811.175	69.78
811.349	72.47
811.524	80.03
811.698	75.26
811.872	85.46
812.046	84.45
812.22	81.26
812.394	75.77
812.568	80.38
812.742	69.68
812.916	75.22
813.09	79.78
813.264	76.95
813.438	71.08
813.612	69.98
813.786	60.4
813.96	62.72
814.134	62.13
814.308	69.38
814.482	70.33
814.656	72.46
814.83	72.04
815.003	79
815.177	74
815.351	81.64
815.525	95.4
815.698	85.96
815.872	74.72
816.046	73.38
816.219	70.9
816.393	55.96
816.567	58.46
816.74	62.35
816.914	63.32
817.088	68.35
817.261	80.7
817.435	81.63
817.608	78.92
817.782	73.01
817.955	69.38
818.129	65.73
818.302	64.97
818.475	70.84
818.649	68.01
818.822	65.33
818.996	70.62
819.169	73.54
819.342	69.78
819.516	84.94
819.689	83.1
819.862	74.74
820.035	78.72
820.209	76.04
820.382	51.28
820.555	49.41
820.728	60.19
820.901	44.06
821.075	52.74
821.248	68
821.421	66.3
821.594	56.75
821.767	68.65
821.94	59.37
822.113	66.02
822.286	69.21
822.459	72.86
822.632	74.73
822.805	76.55
822.978	82.2
823.151	79.01
823.324	61.62
823.496	55.28
823.669	62.45
823.842	43.52
824.015	45.51
824.188	42.07
824.361	46.35
824.533	38.31
824.706	39.76
824.879	38.35
825.051	50.66
825.224	48.25
825.397	49.62
825.569	52.16
825.742	60.88
825.915	61.65
826.087	48.04
826.26	45.96
826.432	43.73
826.605	40.68
826.777	41.08
826.95	53.17
827.122	48.86
827.295	62.8
827.467	67.81
827.64	50.12
827.812	53.68
827.984	68.84
828.157	52.18
828.329	61.67
828.501	71.74
828.674	69.61
828.846	72.1
829.018	73.7
829.19	59.36
829.363	66.86
829.535	69.22
829.707	74.12
829.879	60.5
830.051	65.05
830.223	57.98
830.395	49.78
830.568	40.21
830.74	56.86
830.912	56.88
831.084	53.58
831.256	55
831.428	57.87
831.6	55.45
831.772	41.83
831.943	41.04
832.115	44.63
832.287	43.75
832.459	43.17
832.631	63.01
832.803	65.59
832.975	58.04
833.146	55.87
833.318	45.02
833.49	36.45
833.662	38.58
833.833	50.36
834.005	44.59
834.177	60.07
834.348	54.64
834.52	46.7
834.692	40.36
834.863	43.59
835.035	43.55
835.206	45.9
835.378	52.42
835.549	50.61
835.721	50.91
835.892	45.91
836.064	44.76
836.235	34.36
836.407	40.45
836.578	49.71
836.749	40.36
836.921	39.79
837.092	30.44
837.264	39.74
837.435	9.05
837.606	36.42
837.777	41.26
837.949	56.23
838.12	43.44
838.291	53.26
838.462	50.02
838.633	51.96
838.805	44.89
838.976	52.46
839.147	57.77
839.318	58.62
839.489	52.23
839.66	60.15
839.831	43.69
840.002	36.35
840.173	32.69
840.344	37.16
840.515	17.11
840.686	38.57
840.857	44.06
841.028	43.07
841.199	29.66
841.369	31.84
841.54	7.48
841.711	17.06
841.882	36.35
842.053	50.58
842.223	44.22
842.394	44.67
842.565	28.52
842.736	40.38
842.906	40.39
843.077	75.3
843.248	99.1
843.418	87.99
843.589	76.54
843.759	91.56
843.93	73.97
844.101	61.63
844.271	110.05
844.442	101.99
844.612	96.4
844.783	91.53
844.953	81.31
845.123	63.69
845.294	74.09
845.464	45.1
845.635	48.41
845.805	66.17
845.975	80.97
846.146	58.86
846.316	77.47
846.486	67.52
846.656	57.96
846.827	53.9
846.997	57.45
847.167	42.22
847.337	41.65
847.507	38.24
847.677	35.97
847.848	48.52
848.018	56.05
848.188	63.88
848.358	60.89
848.528	61.33
848.698	38.82
848.868	48.55
849.038	23.71
849.208	38.36
849.378	38.49
849.548	39.1
849.718	33.92
849.887	25.86
850.057	6.88
850.227	-20.01
850.397	-22.65
850.567	-44.68
850.737	13.8
850.906	3.08
851.076	5.14
851.246	42.81
851.415	62.54
851.585	52.37
851.755	50.04
851.924	56.82
852.094	26.28
852.264	17.06
852.433	5.78
852.603	-11.62
852.772	11.8
852.942	57.97
853.111	67.72
853.281	51.94
853.45	32.33
853.62	20.61
853.789	-13.34
853.959	-6.19
854.128	7.18
854.297	33.36
854.467	34.96
854.636	35.4
854.805	45.64
854.975	28.71
855.144	16.91
855.313	18.26
855.482	14.25
855.652	-18.04
855.821	-7.09
855.99	7.37
856.159	19.67
856.328	37.38
856.497	42.85
856.667	38.7
856.836	23.52
857.005	7.62
857.174	13.68
857.343	8.26
857.512	18.58
857.681	33.16
857.85	28.65
858.019	23.2
858.188	24.19
858.356	28.91
858.525	26.48
858.694	34.53
858.863	31.11
859.032	24.83
859.201	-16.16
859.369	-37.79
859.538	-26.83
859.707	-46.09
859.876	-18.86
860.044	26.45
860.213	53.54
860.382	74.01
860.55	68.66
860.719	69.2
860.888	42.2
861.056	31.91
861.225	-0.62
861.393	2.01
861.562	22.89
861.73	30.34
861.899	14.45
862.067	36.58
862.236	37.47
862.404	37.69
862.572	42.91
862.741	25.84
862.909	-1.76
863.078	12.84
863.246	7.41
863.414	40.03
863.582	51.83
863.751	78
863.919	76.08
864.087	52.26
864.255	22.32
864.424	21.15
864.592	21.15
864.76	-4.35
864.928	7.89
865.096	1.87
865.264	-3.44
865.432	-11.74
865.6	-2.32
865.768	-6.43
865.936	4.59
866.104	27.45
866.272	-8.97
866.44	-11.49
866.608	11.72
866.776	8.39
866.944	2.81
867.112	23.25
867.28	20.73
867.448	20.42
867.615	19.51
867.783	17.3
867.951	28.01
868.119	54.56
868.286	25.45
868.454	11.81
868.622	-0.79
868.789	-20.98
868.957	-1.98
869.125	27.06
869.292	8.33
869.46	14.36
869.627	6.45
869.795	-35.36
869.963	-50.65
870.13	-36.22
870.298	-42.3
870.465	-35.41
870.632	-1.8
870.8	-17.59
870.967	0.36
871.135	7.46
871.302	0.66
871.469	-11.69
871.637	13.19
871.804	18.93
871.971	11.38
872.139	10.05
872.306	-26.8
872.473	-75.53
872.64	-219.26
872.807	-220.33
872.975	-508.07
873.142	-76.15
873.309	-4.9
873.476	61.08
873.643	74.07
873.81	61.68
873.977	15.91
874.144	-23.23
874.311	-139.25
874.478	-124.99
874.645	-136.62
874.812	0.06
874.979	39.07
875.146	30.76
875.313	40.6
875.48	66.95
875.647	2.53
875.813	-78.25
875.98	-47.22
876.147	-172.96
876.314	-142.15
876.481	-104.41
876.647	7.24
876.814	-2.67
876.981	19.94
877.147	13.44
877.314	0.05
877.481	-23.09
877.647	-33.48
877.814	-18.9
877.98	-5.86
878.147	26.71
878.314	44.42
878.48	88.64
878.647	60.74
878.813	76.86
878.979	47.53
879.146	55.22
879.312	50.69
879.479	43.78
879.645	38
879.811	25.91
879.978	20.64
880.144	4.3
880.31	12.22
880.477	43.53
880.643	53.52
880.809	67.84
880.975	83.29
881.142	80.92
881.308	254.91
881.474	485.22
881.64	-118.04
881.806	-77.77
881.972	-48.42
882.138	-2.63
882.304	1.92
882.47	18.82
882.636	-15.86
882.802	8.94
882.968	74.52
883.134	40.97
883.3	29.27
883.466	45.1
883.632	22.25
883.798	-80.87
883.964	-57.67
884.129	-507.42
884.295	21
884.461	1.82
884.627	14.71
884.793	-23.81
884.958	8.82
885.124	-18.34
885.29	-48.61
885.455	-34.13
885.621	82.41
885.787	79.49
885.952	53.21
886.118	62.34
886.283	27.14
886.449	-18.31
886.614	-11.13
886.78	6.74
886.945	-18.31
887.111	8.94
887.276	6.13
887.442	-13.81
887.607	-12.26
887.773	11.78
887.938	5.57
888.103	18.49
888.269	33.37
888.434	22.49
888.599	20.9
888.764	34.36
888.93	29.59
889.095	2.77
889.26	7.87
889.425	-18.24
889.59	-60.37
889.756	-31.18
889.921	-33.25
890.086	-103.29
890.251	-30.1
890.416	-2.69
890.581	-23.1
890.746	6.12
890.911	10.97
891.076	-4.52
891.241	-21.99
891.406	-22.09
891.571	-1.15
891.736	31.67
891.901	66.1
892.065	68.66
892.23	120.95
892.395	84.21
892.56	54.95
892.725	87.98
892.889	218.82
893.054	146.44
893.219	135.86
893.384	168.24
893.548	110.51
893.713	72.5
893.878	-58.74
