Data from Ofra_2a_PS_OCX5J_Reflection_3.txt Node
Date: Tue Jul 20 09:27:41 EDT 2021
User: Adam
Spectrometer: FLMT01687
Trigger mode: 0
Integration Time (sec): 9.450000E-1
Scans to average: 3
Electric dark correction enabled: true
Nonlinearity correction enabled: false
Boxcar width: 3
XAxis mode: Wavelengths
Number of Pixels in Spectrum: 3648
>>>>>Begin Spectral Data<<<<<
179.494	240.83
179.716	252.82
179.937	275.82
180.158	626.56
180.38	-305.81
180.601	-83.27
180.823	-128.77
181.044	-48.61
181.265	22.01
181.486	50
181.708	-1052.17
181.929	-69.3
182.15	-877.27
182.372	58.12
182.593	118.84
182.814	22.16
183.035	33.88
183.257	28.37
183.478	24.79
183.699	60.65
183.92	47.04
184.141	49.93
184.363	28.15
184.584	12.64
184.805	18.08
185.026	-10.24
185.247	-37.76
185.468	-49.61
185.689	-37.65
185.91	-23.81
186.132	-19.04
186.353	-42.95
186.574	-25.13
186.795	-33.07
187.016	-27.55
187.237	-38.23
187.458	-49.24
187.679	-33.75
187.9	2.66
188.121	13.34
188.342	29.04
188.563	38.66
188.784	49.57
189.005	55.01
189.226	41.64
189.447	16.76
189.667	12.95
189.888	15.08
190.109	1.25
190.33	-13.82
190.551	-34.38
190.772	-42.3
190.993	-7.86
191.214	-5.92
191.434	-9.74
191.655	11.01
191.876	24.13
192.097	35.46
192.318	50.49
192.538	50.45
192.759	44.88
192.98	40.82
193.201	39.16
193.421	32.95
193.642	36.09
193.863	19.73
194.083	-1.51
194.304	-10.73
194.525	11.59
194.745	2.61
194.966	11.37
195.187	18.84
195.407	26.46
195.628	30.56
195.848	39.72
196.069	19.78
196.29	7.24
196.51	-0.67
196.731	-5.24
196.951	-10.98
197.172	-19.01
197.392	3.49
197.613	10.49
197.833	20.88
198.054	17.58
198.274	4.78
198.495	1.65
198.715	-1.61
198.936	-12.52
199.156	-9.22
199.377	-15.41
199.597	-20.56
199.817	-6.42
200.038	0.78
200.258	-0.71
200.479	3.92
200.699	-2.08
200.919	0.32
201.14	10.87
201.36	11.98
201.58	14.16
201.801	13.23
202.021	18.64
202.241	20.29
202.461	13
202.682	4
202.902	3.22
203.122	-5.08
203.342	11.77
203.563	3.09
203.783	13.55
204.003	28.81
204.223	36.66
204.443	32.24
204.663	37.72
204.884	19.64
205.104	17.07
205.324	27.01
205.544	15.2
205.764	13.95
205.984	31.5
206.204	34.39
206.424	39.25
206.644	34.7
206.864	23.83
207.084	39.54
207.304	33.79
207.525	22.99
207.745	19.22
207.964	23.02
208.184	41.63
208.404	44.5
208.624	18.88
208.844	18.9
209.064	15.9
209.284	19.89
209.504	9.05
209.724	-25.58
209.944	-57.62
210.164	-28.54
210.384	-21.55
210.604	-35.37
210.823	-28.96
211.043	-22.11
211.263	9.57
211.483	23.02
211.703	23.64
211.922	23.78
212.142	31.1
212.362	33.25
212.582	33.61
212.801	28.14
213.021	25.94
213.241	21.38
213.461	16.37
213.68	15.92
213.9	17.28
214.12	11.68
214.339	11.86
214.559	15.9
214.779	14.18
214.998	20.45
215.218	17.7
215.438	13.7
215.657	20.04
215.877	11.21
216.096	13.16
216.316	13.45
216.535	8.54
216.755	-5.01
216.974	-13.44
217.194	-21.87
217.413	-12.35
217.633	-8.63
217.852	-16.89
218.072	-30.49
218.291	16.74
218.511	20.62
218.73	20.78
218.95	23.45
219.169	29.6
219.389	40.6
219.608	42.98
219.827	28.07
220.047	40.1
220.266	46.8
220.485	44.64
220.705	32.95
220.924	22.32
221.143	27.85
221.363	25.8
221.582	19.94
221.801	8.59
222.021	11.6
222.24	-1.76
222.459	0.58
222.678	-24.96
222.897	-16.38
223.117	-15.87
223.336	-8.98
223.555	-20.59
223.774	-1.49
223.993	8.9
224.213	10.64
224.432	14.86
224.651	9.46
224.87	4.95
225.089	9.7
225.308	18.27
225.527	4.15
225.746	4.13
225.965	-9.39
226.184	8.4
226.404	11.66
226.623	10.39
226.842	-0.2
227.061	6.32
227.28	23.52
227.499	37.13
227.718	22.54
227.936	19.81
228.155	21.92
228.374	15.24
228.593	13.97
228.812	0.39
229.031	-10.8
229.25	0.39
229.469	-0.43
229.688	2.91
229.907	1.24
230.125	10.75
230.344	20.9
230.563	19.55
230.782	10.41
231.001	13.99
231.22	10.43
231.438	21.2
231.657	16.3
231.876	10.93
232.095	12.48
232.313	27.85
232.532	32.91
232.751	42.7
232.969	47.2
233.188	52.28
233.407	58.86
233.625	53.97
233.844	38.77
234.063	31.75
234.281	20.74
234.5	11.45
234.719	12.57
234.937	13.86
235.156	10.91
235.374	16.43
235.593	12.78
235.811	9.08
236.03	6.48
236.249	23.88
236.467	8.64
236.686	25.94
236.904	17.63
237.123	20.48
237.341	21.54
237.559	25.69
237.778	23.05
237.996	26.81
238.215	22.06
238.433	23.7
238.652	25.61
238.87	18.3
239.088	15.31
239.307	7.35
239.525	0.83
239.743	-13.56
239.962	-15.5
240.18	-8.53
240.398	3.18
240.617	11.24
240.835	15.13
241.053	29.72
241.271	37.98
241.49	26.67
241.708	16.19
241.926	-2.09
242.144	-9.56
242.363	-12.53
242.581	-15.31
242.799	-21.9
243.017	-4.99
243.235	-4.1
243.453	6.91
243.672	2.05
243.89	2.41
244.108	7.05
244.326	5.59
244.544	2.08
244.762	9.1
244.98	10.26
245.198	4.67
245.416	4.04
245.634	13.78
245.852	21.14
246.07	14.18
246.288	9.45
246.506	19.04
246.724	38.38
246.942	33.86
247.16	21.92
247.378	10.32
247.596	20.18
247.814	7.98
248.032	8.49
248.25	-7.27
248.468	-3.05
248.685	-5.69
248.903	-8.93
249.121	-3.49
249.339	5.37
249.557	11.22
249.775	5.97
249.992	6.93
250.21	2.9
250.428	6.18
250.646	6.54
250.863	4.26
251.081	-9.08
251.299	2.51
251.517	4.15
251.734	11.17
251.952	17.53
252.17	-12.15
252.387	-4.79
252.605	-6.27
252.823	-21.41
253.04	-26.21
253.258	-31.58
253.475	-20.12
253.693	6.47
253.911	1.04
254.128	-0.94
254.346	14.67
254.563	16.81
254.781	15.27
254.998	11.89
255.216	9.59
255.433	12.25
255.651	11.23
255.868	3.39
256.086	3.51
256.303	12.61
256.521	-0.71
256.738	3.42
256.956	4.95
257.173	11.71
257.39	20.31
257.608	17.61
257.825	7.73
258.043	20.59
258.26	7.84
258.477	7.14
258.695	13.86
258.912	16.17
259.129	9.29
259.346	19.38
259.564	-0.37
259.781	18.46
259.998	19.52
260.216	11.88
260.433	0.38
260.65	4.25
260.867	-9.5
261.084	13
261.302	10.66
261.519	1.37
261.736	-3.89
261.953	-1.41
262.17	2.57
262.387	0.6
262.604	-24.09
262.822	-22.38
263.039	-15.49
263.256	-9.67
263.473	-12.29
263.69	-17.53
263.907	-3.14
264.124	4.26
264.341	15.63
264.558	19.64
264.775	18.62
264.992	25.2
265.209	25.64
265.426	25.06
265.643	32.04
265.86	15.01
266.077	14.11
266.294	15.35
266.51	13.84
266.727	4.9
266.944	-11.01
267.161	-21.01
267.378	-21.71
267.595	-21.41
267.812	-30.69
268.028	-27.45
268.245	-19.23
268.462	-20.45
268.679	-17.86
268.896	-19.45
269.112	-14
269.329	-2.65
269.546	-4.9
269.763	-0.37
269.979	6.96
270.196	13.1
270.413	12.18
270.629	12.99
270.846	16.25
271.063	16.25
271.279	18.21
271.496	13.27
271.712	8.94
271.929	21.8
272.146	14.59
272.362	-1.58
272.579	-4.34
272.795	-11.23
273.012	-10.99
273.228	-14.11
273.445	-16.74
273.661	-10.57
273.878	-2.03
274.094	-3.23
274.311	-6.7
274.527	-1.11
274.744	-2.7
274.96	-1.99
275.177	-5.47
275.393	-1.2
275.609	1.64
275.826	23.07
276.042	33.08
276.259	21.43
276.475	12.98
276.691	13.62
276.908	7.85
277.124	9.74
277.34	-4.78
277.557	-9.07
277.773	-6.34
277.989	-9.65
278.205	-25.82
278.422	-12.24
278.638	-9.2
278.854	-23.69
279.07	-31.75
279.286	-22.6
279.503	-19.12
279.719	4.11
279.935	-26.07
280.151	-22.56
280.367	-8.12
280.583	-4.17
280.799	-0.19
281.016	6.53
281.232	0.63
281.448	7.77
281.664	4.46
281.88	15.35
282.096	17.36
282.312	20.77
282.528	11.19
282.744	-0.28
282.96	16.5
283.176	12.72
283.392	2.9
283.608	11.37
283.824	4.11
284.04	9.43
284.256	16.39
284.471	13.69
284.687	14.45
284.903	13.28
285.119	-6.19
285.335	0.26
285.551	7.34
285.767	11.24
285.982	15.89
286.198	16.95
286.414	25.26
286.63	28.94
286.846	27.86
287.061	30.07
287.277	27.01
287.493	22.99
287.709	26.79
287.924	32.1
288.14	37.18
288.356	33.08
288.571	16.59
288.787	20.14
289.003	23.86
289.218	21.84
289.434	15.4
289.65	20.84
289.865	33
290.081	41.17
290.296	32.47
290.512	33.87
290.727	45.64
290.943	41.12
291.159	32.7
291.374	32.98
291.59	26.68
291.805	32
292.021	19.13
292.236	9.49
292.451	7.87
292.667	9.03
292.882	-1.05
293.098	1.89
293.313	-0.85
293.529	2.67
293.744	-3.45
293.959	-3.69
294.175	-15.16
294.39	-13.51
294.605	-15.01
294.821	-19.38
295.036	-23.05
295.251	-25.47
295.467	-22.26
295.682	1.78
295.897	-1.49
296.112	-0.22
296.328	7.46
296.543	13.3
296.758	8.97
296.973	4.74
297.188	2.66
297.404	11.64
297.619	-4.62
297.834	-2.19
298.049	-11.23
298.264	-13.38
298.479	-14.82
298.694	-10.08
298.909	-17.15
299.125	2.09
299.34	-2.55
299.555	3.69
299.77	12.33
299.985	12.94
300.2	9.05
300.415	15.59
300.63	7.21
300.845	14.45
301.06	10.28
301.275	11.41
301.49	18.33
301.704	14.86
301.919	5.6
302.134	-0.8
302.349	-6.47
302.564	-0.32
302.779	-5.49
302.994	-3.95
303.209	-8.88
303.423	2.13
303.638	19.87
303.853	24.27
304.068	23.48
304.283	25.74
304.497	18.72
304.712	24.78
304.927	15.59
305.142	8.46
305.356	10.65
305.571	12.91
305.786	11.26
306	9.31
306.215	9.21
306.43	17.8
306.644	25.59
306.859	27.79
307.074	24.83
307.288	21.88
307.503	18.61
307.717	15.62
307.932	8.9
308.147	4.94
308.361	-3.7
308.576	-4.22
308.79	-6.62
309.005	5.29
309.219	0.36
309.434	9.03
309.648	6.63
309.863	11.01
310.077	2.22
310.292	8.16
310.506	13.6
310.72	9.9
310.935	7.5
311.149	12.87
311.364	16.19
311.578	21.55
311.792	19.1
312.007	4.69
312.221	14.59
312.435	5.89
312.649	5.82
312.864	-7.04
313.078	0.67
313.292	4.82
313.507	2.01
313.721	-1.78
313.935	18.9
314.149	13.29
314.363	21.29
314.578	26.96
314.792	24.38
315.006	30.45
315.22	33.41
315.434	21.35
315.648	11.74
315.862	8.67
316.077	5.12
316.291	10.46
316.505	6.96
316.719	-9.59
316.933	-1.7
317.147	7.64
317.361	0.97
317.575	-6.7
317.789	-11.14
318.003	-7.93
318.217	6.9
318.431	4.05
318.645	6
318.859	-0.05
319.073	3.93
319.287	7.96
319.5	10.99
319.714	6.61
319.928	14.86
320.142	13.44
320.356	31.48
320.57	26.46
320.784	26.76
320.997	23.94
321.211	19.62
321.425	8.92
321.639	15.55
321.853	3.98
322.066	4.26
322.28	2.23
322.494	2.6
322.707	5.63
322.921	5.19
323.135	-3.11
323.349	0.22
323.562	7.96
323.776	7.14
323.989	8.23
324.203	14.29
324.417	11.86
324.63	10.44
324.844	5.6
325.057	-0.21
325.271	-6.03
325.485	-9.48
325.698	-15.74
325.912	-4.22
326.125	3.97
326.339	6.23
326.552	18.16
326.766	29.82
326.979	36.81
327.193	38.62
327.406	32.37
327.619	17.93
327.833	12.54
328.046	-3.59
328.26	-17.1
328.473	-21.41
328.686	-20.87
328.9	-26.58
329.113	-14.05
329.326	-0.13
329.54	-6.02
329.753	5.85
329.966	-2.07
330.179	5.29
330.393	12.44
330.606	17.33
330.819	14.76
331.032	24.62
331.246	13.21
331.459	23.45
331.672	17.66
331.885	21.11
332.098	20.53
332.311	8.96
332.525	14.91
332.738	19.53
332.951	14.56
333.164	7.8
333.377	-0.23
333.59	-1.71
333.803	6.25
334.016	-4.18
334.229	-0.77
334.442	9.75
334.655	21.69
334.868	31.05
335.081	40.93
335.294	42.34
335.507	38.38
335.72	28.72
335.933	31.01
336.146	28.36
336.359	23.21
336.572	13.05
336.785	17.99
336.997	18.26
337.21	27
337.423	27.76
337.636	27.45
337.849	26
338.062	30.53
338.274	29.36
338.487	19.8
338.7	17.96
338.913	11.29
339.125	8.65
339.338	15.08
339.551	8.15
339.763	5.66
339.976	7.85
340.189	6.19
340.402	4.52
340.614	14.66
340.827	2.35
341.039	6.18
341.252	8.75
341.465	8.85
341.677	2.46
341.89	1.15
342.102	-4.31
342.315	9.14
342.527	6.29
342.74	5.33
342.952	5.54
343.165	14.52
343.377	20.83
343.59	15.23
343.802	10.57
344.015	12.08
344.227	9.4
344.44	10.46
344.652	9.52
344.864	7.24
345.077	5.8
345.289	6.02
345.502	17.13
345.714	8.84
345.926	6.06
346.139	11.43
346.351	-4.82
346.563	7.23
346.775	5.72
346.988	-1.02
347.2	8.67
347.412	11.95
347.624	6.2
347.837	13.7
348.049	10.56
348.261	8.37
348.473	7.26
348.685	11.4
348.897	3.06
349.11	3.78
349.322	1.54
349.534	-4.66
349.746	3.64
349.958	-3.91
350.17	-13.33
350.382	-10.84
350.594	-7.02
350.806	7.47
351.018	15.3
351.23	9.68
351.442	15.29
351.654	18.7
351.866	27.98
352.078	26.49
352.29	21.42
352.502	17.5
352.714	22.81
352.926	19.72
353.138	22.7
353.35	17.5
353.561	14.07
353.773	14.99
353.985	22.69
354.197	16.64
354.409	17.88
354.621	15.25
354.832	8.85
355.044	14.01
355.256	14.46
355.468	0.63
355.679	8.93
355.891	12.88
356.103	13.45
356.314	19.51
356.526	17.32
356.738	4.84
356.949	7.45
357.161	6.23
357.373	1.54
357.584	7.59
357.796	-0.05
358.008	3.04
358.219	20.61
358.431	28.32
358.642	25.16
358.854	35.15
359.065	27.82
359.277	32.7
359.488	34.01
359.7	31.86
359.911	21.67
360.123	18.43
360.334	1.34
360.546	-5.41
360.757	1.93
360.969	6.05
361.18	-2.59
361.391	5.31
361.603	7.76
361.814	21.74
362.025	25.16
362.237	19.37
362.448	19.52
362.659	12.35
362.871	7.34
363.082	9.45
363.293	2.2
363.504	7.55
363.716	7.5
363.927	4.09
364.138	12.67
364.349	16.75
364.56	15.25
364.772	17.19
364.983	12.55
365.194	15.49
365.405	6.68
365.616	-2.01
365.827	-8.23
366.038	-4.59
366.25	-7.63
366.461	-1.7
366.672	-6.23
366.883	13.61
367.094	14.1
367.305	16.98
367.516	14.65
367.727	17.96
367.938	16.63
368.149	24.89
368.36	9.77
368.571	17.37
368.781	16.02
368.992	14.42
369.203	9.7
369.414	1.38
369.625	-4.34
369.836	2.35
370.047	2.09
370.258	1.13
370.468	3.79
370.679	13.11
370.89	28.14
371.101	24.88
371.312	19.56
371.522	18.74
371.733	13.48
371.944	4.7
372.155	-11.5
372.365	-24.13
372.576	-24.04
372.787	-26.71
372.997	-25.17
373.208	-16.69
373.419	-5.39
373.629	9.06
373.84	2.03
374.05	7.78
374.261	10.79
374.472	7.08
374.682	5.94
374.893	1.55
375.103	2.36
375.314	4.36
375.524	10
375.735	10.48
375.945	8.7
376.156	12.57
376.366	13.5
376.577	15.13
376.787	14.2
376.997	7.32
377.208	6.75
377.418	8.35
377.629	4.3
377.839	3.55
378.049	4.95
378.26	10.25
378.47	11.32
378.68	12.49
378.89	2.74
379.101	-8.11
379.311	-12.85
379.521	-13.87
379.732	-16.28
379.942	-16.38
380.152	-16.58
380.362	-5.89
380.572	2.83
380.783	2.96
380.993	4.09
381.203	1.93
381.413	8.33
381.623	14.12
381.833	14.25
382.043	7.64
382.253	12.42
382.463	11.92
382.674	17.92
382.884	13.5
383.094	8.46
383.304	8.12
383.514	13.46
383.724	11.55
383.934	11.72
384.144	12.49
384.353	13.76
384.563	11.53
384.773	13.41
384.983	12.45
385.193	13.68
385.403	12.5
385.613	7.63
385.823	6.43
386.033	10.55
386.242	7.32
386.452	7.18
386.662	4.93
386.872	1.39
387.082	1.3
387.291	0.38
387.501	2.09
387.711	4.11
387.921	2.84
388.13	3.65
388.34	3.31
388.55	4.83
388.759	5.18
388.969	2.05
389.179	4.4
389.388	6.12
389.598	4.05
389.807	5.25
390.017	3.05
390.227	1.52
390.436	0.26
390.646	-0.96
390.855	-2.03
391.065	0.05
391.274	0.2
391.484	3.1
391.693	3.88
391.903	4.66
392.112	4.02
392.322	5.06
392.531	4.9
392.74	4.25
392.95	3.9
393.159	4.06
393.369	4.49
393.578	4.47
393.787	4.72
393.997	5.06
394.206	4.32
394.415	4.2
394.625	3.32
394.834	2.45
395.043	3.49
395.252	3.18
395.462	2.49
395.671	3.4
395.88	2.83
396.089	3.25
396.298	3.62
396.508	2.79
396.717	1.98
396.926	1.68
397.135	0.9
397.344	1.07
397.553	1.27
397.762	1.32
397.971	1.65
398.181	2.21
398.39	2.48
398.599	3.2
398.808	3.27
399.017	3.52
399.226	3.6
399.435	3.55
399.644	3.25
399.853	3.4
400.062	3.15
400.27	3.09
400.479	2.71
400.688	2.62
400.897	2.81
401.106	3.04
401.315	2.87
401.524	2.91
401.733	3.27
401.941	3.32
402.15	3.13
402.359	3.02
402.568	3.07
402.777	3.09
402.985	3.04
403.194	2.76
403.403	2.56
403.612	2.7
403.82	2.62
404.029	2.58
404.238	2.61
404.446	2.59
404.655	2.5
404.864	2.59
405.072	2.61
405.281	2.55
405.489	2.49
405.698	2.41
405.906	2.41
406.115	2.38
406.324	2.37
406.532	2.37
406.741	2.41
406.949	2.35
407.158	2.42
407.366	2.56
407.574	2.66
407.783	2.61
407.991	2.54
408.2	2.51
408.408	2.53
408.617	2.52
408.825	2.4
409.033	2.3
409.242	2.38
409.45	2.41
409.658	2.42
409.867	2.44
410.075	2.41
410.283	2.37
410.491	2.41
410.7	2.41
410.908	2.41
411.116	2.3
411.324	2.28
411.533	2.16
411.741	2.14
411.949	2.15
412.157	2.12
412.365	2.07
412.573	2.19
412.781	2.24
412.99	2.44
413.198	2.45
413.406	2.39
413.614	2.38
413.822	2.31
414.03	2.18
414.238	2.17
414.446	1.98
414.654	1.98
414.862	1.94
415.07	2.09
415.278	2.08
415.486	2.21
415.694	2.12
415.902	2.1
416.109	2.12
416.317	2.18
416.525	2.08
416.733	2.17
416.941	2.05
417.149	2.2
417.357	2.34
417.564	2.31
417.772	2.35
417.98	2.27
418.188	2.19
418.395	2.21
418.603	2.05
418.811	1.95
419.019	1.95
419.226	1.93
419.434	1.93
419.642	2.01
419.849	2.05
420.057	2.1
420.265	2.13
420.472	2.15
420.68	2.13
420.887	2.21
421.095	2.24
421.302	2.29
421.51	2.36
421.717	2.38
421.925	2.29
422.132	2.22
422.34	2.17
422.547	2.11
422.755	2.02
422.962	1.9
423.17	1.8
423.377	1.92
423.585	1.98
423.792	1.91
423.999	1.87
424.207	1.75
424.414	1.78
424.621	1.85
424.829	1.69
425.036	1.63
425.243	1.72
425.451	1.68
425.658	1.84
425.865	1.76
426.072	1.79
426.28	1.93
426.487	1.89
426.694	1.91
426.901	1.89
427.108	1.81
427.315	1.82
427.523	1.89
427.73	1.92
427.937	1.96
428.144	1.89
428.351	2.07
428.558	2.1
428.765	2.1
428.972	1.97
429.179	1.84
429.386	1.93
429.593	1.93
429.8	1.86
430.007	1.91
430.214	2.02
430.421	2.06
430.628	1.98
430.835	1.95
431.042	1.99
431.249	1.95
431.456	1.96
431.662	1.91
431.869	1.99
432.076	2.08
432.283	1.99
432.49	1.97
432.697	2.04
432.903	2.04
433.11	2.08
433.317	2.04
433.524	2.02
433.73	2.13
433.937	2.14
434.144	2.18
434.35	2.15
434.557	2.09
434.764	2.09
434.97	2.15
435.177	2.1
435.384	2.12
435.59	2.05
435.797	2.06
436.003	2.06
436.21	2.02
436.416	1.99
436.623	2.05
436.829	2.07
437.036	2.07
437.242	1.98
437.449	2.04
437.655	2.09
437.862	2.07
438.068	2.07
438.275	2.05
438.481	2.06
438.687	2.16
438.894	2.1
439.1	2.1
439.307	2.1
439.513	2.03
439.719	2.09
439.926	2.11
440.132	2.11
440.338	2.17
440.544	2.18
440.751	2.23
440.957	2.23
441.163	2.2
441.369	2.19
441.575	2.18
441.782	2.14
441.988	2.14
442.194	2.21
442.4	2.25
442.606	2.25
442.812	2.24
443.018	2.27
443.224	2.27
443.431	2.28
443.637	2.22
443.843	2.22
444.049	2.18
444.255	2.19
444.461	2.2
444.667	2.18
444.873	2.14
445.079	2.13
445.284	2.12
445.49	2.18
445.696	2.21
445.902	2.22
446.108	2.3
446.314	2.34
446.52	2.43
446.726	2.48
446.931	2.42
447.137	2.4
447.343	2.35
447.549	2.29
447.755	2.24
447.96	2.19
448.166	2.21
448.372	2.28
448.578	2.31
448.783	2.28
448.989	2.29
449.195	2.33
449.4	2.32
449.606	2.26
449.812	2.26
450.017	2.22
450.223	2.27
450.428	2.33
450.634	2.34
450.84	2.33
451.045	2.32
451.251	2.29
451.456	2.3
451.662	2.32
451.867	2.31
452.073	2.24
452.278	2.28
452.483	2.33
452.689	2.34
452.894	2.36
453.1	2.32
453.305	2.31
453.51	2.38
453.716	2.38
453.921	2.39
454.127	2.35
454.332	2.32
454.537	2.35
454.742	2.34
454.948	2.32
455.153	2.32
455.358	2.32
455.563	2.36
455.769	2.43
455.974	2.39
456.179	2.37
456.384	2.38
456.589	2.4
456.795	2.38
457	2.42
457.205	2.36
457.41	2.41
457.615	2.53
457.82	2.55
458.025	2.52
458.23	2.52
458.435	2.45
458.64	2.46
458.845	2.41
459.05	2.33
459.255	2.32
459.46	2.32
459.665	2.38
459.87	2.46
460.075	2.46
460.28	2.47
460.485	2.53
460.69	2.49
460.895	2.56
461.099	2.48
461.304	2.42
461.509	2.43
461.714	2.47
461.919	2.45
462.123	2.47
462.328	2.4
462.533	2.45
462.738	2.47
462.942	2.53
463.147	2.53
463.352	2.56
463.556	2.6
463.761	2.59
463.966	2.61
464.17	2.6
464.375	2.49
464.58	2.48
464.784	2.47
464.989	2.44
465.193	2.52
465.398	2.56
465.602	2.6
465.807	2.7
466.011	2.7
466.216	2.75
466.42	2.83
466.625	2.76
466.829	2.72
467.034	2.76
467.238	2.72
467.443	2.81
467.647	2.78
467.851	2.73
468.056	2.82
468.26	2.81
468.464	2.78
468.669	2.85
468.873	2.79
469.077	2.79
469.282	2.85
469.486	2.86
469.69	2.9
469.894	2.91
470.099	2.9
470.303	2.9
470.507	2.89
470.711	2.88
470.915	2.86
471.119	2.86
471.324	2.84
471.528	2.88
471.732	2.9
471.936	2.94
472.14	2.91
472.344	2.94
472.548	2.97
472.752	3.02
472.956	3.01
473.16	3.03
473.364	3.03
473.568	3.07
473.772	3.14
473.976	3.15
474.18	3.15
474.384	3.13
474.588	3.15
474.792	3.14
474.995	3.16
475.199	3.1
475.403	3.09
475.607	3.1
475.811	3.12
476.015	3.17
476.218	3.19
476.422	3.19
476.626	3.19
476.83	3.19
477.033	3.21
477.237	3.22
477.441	3.21
477.644	3.23
477.848	3.22
478.052	3.27
478.255	3.29
478.459	3.31
478.663	3.32
478.866	3.3
479.07	3.31
479.273	3.32
479.477	3.34
479.681	3.32
479.884	3.3
480.088	3.29
480.291	3.32
480.495	3.35
480.698	3.34
480.901	3.31
481.105	3.34
481.308	3.32
481.512	3.32
481.715	3.35
481.919	3.36
482.122	3.42
482.325	3.43
482.529	3.45
482.732	3.48
482.935	3.54
483.138	3.54
483.342	3.5
483.545	3.49
483.748	3.49
483.952	3.49
484.155	3.53
484.358	3.49
484.561	3.52
484.764	3.56
484.967	3.58
485.171	3.59
485.374	3.62
485.577	3.64
485.78	3.66
485.983	3.63
486.186	3.61
486.389	3.6
486.592	3.58
486.795	3.54
486.998	3.5
487.201	3.55
487.404	3.58
487.607	3.56
487.81	3.59
488.013	3.64
488.216	3.64
488.419	3.64
488.622	3.59
488.825	3.56
489.028	3.57
489.231	3.56
489.433	3.55
489.636	3.54
489.839	3.56
490.042	3.58
490.245	3.6
490.447	3.57
490.65	3.61
490.853	3.62
491.056	3.64
491.258	3.62
491.461	3.62
491.664	3.6
491.866	3.63
492.069	3.61
492.272	3.59
492.474	3.59
492.677	3.58
492.879	3.55
493.082	3.58
493.285	3.62
493.487	3.62
493.69	3.63
493.892	3.65
494.095	3.65
494.297	3.73
494.5	3.74
494.702	3.71
494.905	3.71
495.107	3.69
495.309	3.66
495.512	3.68
495.714	3.67
495.917	3.66
496.119	3.69
496.321	3.73
496.524	3.76
496.726	3.78
496.928	3.83
497.13	3.84
497.333	3.86
497.535	3.84
497.737	3.84
497.939	3.85
498.142	3.87
498.344	3.86
498.546	3.88
498.748	3.89
498.95	3.89
499.152	3.87
499.355	3.86
499.557	3.88
499.759	3.92
499.961	3.95
500.163	3.97
500.365	3.98
500.567	4.04
500.769	4.08
500.971	4.08
501.173	4.07
501.375	4.03
501.577	4.05
501.779	4.09
501.981	4.07
502.183	4.08
502.385	4.04
502.587	4.06
502.788	4.05
502.99	4.05
503.192	4.09
503.394	4.13
503.596	4.15
503.798	4.26
503.999	4.29
504.201	4.33
504.403	4.35
504.605	4.33
504.806	4.32
505.008	4.3
505.21	4.31
505.411	4.35
505.613	4.36
505.815	4.4
506.016	4.43
506.218	4.45
506.42	4.52
506.621	4.52
506.823	4.48
507.024	4.51
507.226	4.51
507.427	4.53
507.629	4.57
507.83	4.53
508.032	4.56
508.233	4.62
508.435	4.61
508.636	4.64
508.838	4.67
509.039	4.67
509.24	4.69
509.442	4.65
509.643	4.64
509.845	4.67
510.046	4.65
510.247	4.67
510.448	4.7
510.65	4.71
510.851	4.8
511.052	4.83
511.254	4.83
511.455	4.85
511.656	4.87
511.857	4.87
512.058	4.92
512.26	4.9
512.461	4.89
512.662	4.89
512.863	4.9
513.064	4.91
513.265	4.96
513.466	4.95
513.667	4.97
513.868	5.02
514.069	5.08
514.27	5.1
514.471	5.15
514.672	5.15
514.873	5.2
515.074	5.22
515.275	5.18
515.476	5.18
515.677	5.21
515.878	5.22
516.079	5.24
516.28	5.2
516.481	5.19
516.682	5.25
516.882	5.24
517.083	5.26
517.284	5.26
517.485	5.25
517.686	5.28
517.886	5.31
518.087	5.34
518.288	5.37
518.488	5.37
518.689	5.37
518.89	5.4
519.091	5.41
519.291	5.41
519.492	5.42
519.692	5.43
519.893	5.45
520.094	5.47
520.294	5.45
520.495	5.47
520.695	5.48
520.896	5.47
521.096	5.49
521.297	5.48
521.497	5.48
521.698	5.52
521.898	5.54
522.099	5.56
522.299	5.59
522.499	5.6
522.7	5.62
522.9	5.63
523.101	5.64
523.301	5.66
523.501	5.68
523.702	5.67
523.902	5.68
524.102	5.69
524.302	5.72
524.503	5.72
524.703	5.76
524.903	5.79
525.103	5.82
525.304	5.86
525.504	5.85
525.704	5.84
525.904	5.89
526.104	5.9
526.304	5.92
526.504	5.91
526.705	5.93
526.905	5.97
527.105	6
527.305	5.97
527.505	5.97
527.705	5.95
527.905	5.98
528.105	5.98
528.305	6
528.505	6
528.705	6.05
528.905	6.06
529.105	6.11
529.304	6.12
529.504	6.12
529.704	6.13
529.904	6.19
530.104	6.15
530.304	6.16
530.503	6.15
530.703	6.18
530.903	6.23
531.103	6.24
531.303	6.25
531.502	6.27
531.702	6.28
531.902	6.3
532.101	6.3
532.301	6.31
532.501	6.34
532.7	6.33
532.9	6.4
533.1	6.41
533.299	6.46
533.499	6.51
533.698	6.53
533.898	6.55
534.097	6.59
534.297	6.58
534.496	6.59
534.696	6.59
534.895	6.6
535.095	6.62
535.294	6.63
535.494	6.66
535.693	6.67
535.892	6.72
536.092	6.75
536.291	6.76
536.491	6.79
536.69	6.82
536.889	6.84
537.088	6.89
537.288	6.94
537.487	6.97
537.686	7.01
537.886	7.02
538.085	7.07
538.284	7.09
538.483	7.1
538.682	7.1
538.882	7.13
539.081	7.14
539.28	7.14
539.479	7.15
539.678	7.23
539.877	7.3
540.076	7.36
540.275	7.38
540.474	7.38
540.673	7.43
540.872	7.48
541.071	7.44
541.27	7.43
541.469	7.46
541.668	7.54
541.867	7.6
542.066	7.61
542.265	7.66
542.464	7.72
542.663	7.77
542.862	7.8
543.06	7.82
543.259	7.85
543.458	7.9
543.657	7.94
543.856	7.99
544.054	8.06
544.253	8.09
544.452	8.07
544.651	8.12
544.849	8.16
545.048	8.2
545.247	8.23
545.445	8.23
545.644	8.28
545.843	8.34
546.041	8.42
546.24	8.47
546.438	8.52
546.637	8.59
546.836	8.64
547.034	8.71
547.233	8.76
547.431	8.79
547.63	8.87
547.828	8.94
548.027	8.96
548.225	9.04
548.423	9.08
548.622	9.16
548.82	9.22
549.019	9.26
549.217	9.31
549.415	9.42
549.614	9.43
549.812	9.53
550.01	9.58
550.209	9.65
550.407	9.73
550.605	9.84
550.803	9.89
551.002	9.97
551.2	10.05
551.398	10.08
551.596	10.12
551.794	10.2
551.993	10.21
552.191	10.33
552.389	10.39
552.587	10.42
552.785	10.5
552.983	10.59
553.181	10.61
553.379	10.71
553.577	10.78
553.775	10.88
553.973	10.96
554.171	11.06
554.369	11.11
554.567	11.21
554.765	11.26
554.963	11.31
555.161	11.39
555.359	11.45
555.557	11.54
555.755	11.65
555.952	11.74
556.15	11.85
556.348	11.98
556.546	12.08
556.744	12.24
556.941	12.34
557.139	12.47
557.337	12.55
557.535	12.66
557.732	12.75
557.93	12.83
558.128	12.85
558.325	12.93
558.523	13
558.721	13.12
558.918	13.21
559.116	13.3
559.313	13.44
559.511	13.53
559.708	13.66
559.906	13.76
560.104	13.83
560.301	13.94
560.498	14
560.696	14.02
560.893	14.15
561.091	14.24
561.288	14.32
561.486	14.44
561.683	14.48
561.88	14.57
562.078	14.67
562.275	14.78
562.473	14.85
562.67	14.96
562.867	15.03
563.064	15.18
563.262	15.31
563.459	15.44
563.656	15.54
563.853	15.66
564.051	15.72
564.248	15.81
564.445	15.87
564.642	15.94
564.839	16.04
565.036	16.12
565.234	16.22
565.431	16.35
565.628	16.5
565.825	16.6
566.022	16.68
566.219	16.77
566.416	16.86
566.613	16.93
566.81	17
567.007	17.04
567.204	17.12
567.401	17.2
567.598	17.24
567.795	17.3
567.991	17.38
568.188	17.44
568.385	17.55
568.582	17.61
568.779	17.7
568.976	17.78
569.172	17.87
569.369	17.91
569.566	17.94
569.763	17.96
569.96	18.01
570.156	18.01
570.353	18.06
570.55	18.12
570.746	18.19
570.943	18.27
571.14	18.31
571.336	18.35
571.533	18.43
571.729	18.46
571.926	18.47
572.123	18.49
572.319	18.52
572.516	18.52
572.712	18.57
572.909	18.6
573.105	18.65
573.302	18.67
573.498	18.72
573.695	18.78
573.891	18.86
574.087	18.88
574.284	18.91
574.48	18.94
574.677	18.95
574.873	18.97
575.069	19.01
575.266	19.01
575.462	19.07
575.658	19.1
575.854	19.12
576.051	19.17
576.247	19.17
576.443	19.19
576.639	19.18
576.835	19.15
577.032	19.15
577.228	19.15
577.424	19.14
577.62	19.13
577.816	19.11
578.012	19.15
578.208	19.17
578.404	19.19
578.6	19.23
578.796	19.28
578.993	19.27
579.189	19.24
579.384	19.2
579.58	19.16
579.776	19.12
579.972	19.1
580.168	19.03
580.364	19.02
580.56	18.97
580.756	18.98
580.952	19.05
581.148	19.05
581.343	19.02
581.539	19.01
581.735	19
581.931	19.06
582.127	19.05
582.322	19
582.518	19
582.714	19
582.909	19
583.105	18.94
583.301	18.86
583.496	18.85
583.692	18.8
583.888	18.78
584.083	18.79
584.279	18.82
584.474	18.8
584.67	18.84
584.866	18.82
585.061	18.83
585.257	18.8
585.452	18.73
585.648	18.68
585.843	18.78
586.039	18.77
586.234	18.77
586.429	18.79
586.625	18.81
586.82	18.8
587.015	18.8
587.211	18.78
587.406	18.82
587.601	18.81
587.797	18.75
587.992	18.78
588.187	18.82
588.383	18.85
588.578	18.83
588.773	18.79
588.968	18.83
589.163	18.88
589.359	18.83
589.554	18.84
589.749	18.85
589.944	18.9
590.139	18.92
590.334	18.91
590.529	18.93
590.724	18.98
590.919	19.02
591.114	19.02
591.309	19
591.504	19.03
591.699	19.04
591.894	19.14
592.089	19.18
592.284	19.2
592.479	19.25
592.674	19.31
592.869	19.32
593.064	19.43
593.259	19.4
593.454	19.45
593.648	19.47
593.843	19.54
594.038	19.61
594.233	19.72
594.428	19.78
594.622	19.86
594.817	19.9
595.012	20.01
595.206	20.1
595.401	20.11
595.596	20.18
595.79	20.23
595.985	20.32
596.18	20.41
596.374	20.49
596.569	20.52
596.763	20.67
596.958	20.73
597.153	20.75
597.347	20.78
597.542	20.86
597.736	20.96
597.931	21.02
598.125	21.09
598.319	21.14
598.514	21.19
598.708	21.27
598.903	21.36
599.097	21.37
599.291	21.43
599.486	21.49
599.68	21.54
599.874	21.64
600.069	21.69
600.263	21.67
600.457	21.69
600.651	21.78
600.846	21.77
601.04	21.8
601.234	21.82
601.428	21.83
601.622	21.87
601.817	21.91
602.011	21.89
602.205	21.92
602.399	22
602.593	22
602.787	22.04
602.981	22.07
603.175	22.05
603.369	22.03
603.563	22.04
603.757	21.95
603.951	21.98
604.145	21.96
604.339	21.97
604.533	21.97
604.727	22.04
604.921	22.03
605.115	22.02
605.309	22.02
605.502	22.02
605.696	21.95
605.89	22
606.084	21.91
606.278	21.86
606.471	21.86
606.665	21.81
606.859	21.72
607.053	21.74
607.246	21.63
607.44	21.58
607.634	21.56
607.827	21.49
608.021	21.41
608.214	21.43
608.408	21.36
608.602	21.31
608.795	21.24
608.989	21.15
609.182	21.19
609.376	21.13
609.569	21.02
609.763	21
609.956	20.91
610.15	20.85
610.343	20.82
610.537	20.66
610.73	20.62
610.923	20.56
611.117	20.42
611.31	20.34
611.504	20.31
611.697	20.23
611.89	20.15
612.083	20.04
612.277	19.98
612.47	19.97
612.663	19.93
612.856	19.78
613.05	19.72
613.243	19.65
613.436	19.55
613.629	19.51
613.822	19.41
614.015	19.33
614.209	19.32
614.402	19.28
614.595	19.21
614.788	19.19
614.981	19.1
615.174	19.02
615.367	18.95
615.56	18.87
615.753	18.82
615.946	18.8
616.139	18.78
616.332	18.72
616.525	18.69
616.718	18.66
616.911	18.67
617.103	18.58
617.296	18.52
617.489	18.47
617.682	18.42
617.875	18.35
618.067	18.27
618.26	18.16
618.453	18.13
618.646	18.09
618.838	18
619.031	17.96
619.224	17.96
619.417	17.92
619.609	17.9
619.802	17.85
619.994	17.82
620.187	17.84
620.38	17.82
620.572	17.8
620.765	17.79
620.957	17.72
621.15	17.65
621.342	17.61
621.535	17.57
621.727	17.52
621.92	17.47
622.112	17.42
622.305	17.44
622.497	17.43
622.69	17.39
622.882	17.36
623.074	17.3
623.267	17.24
623.459	17.24
623.651	17.2
623.844	17.25
624.036	17.22
624.228	17.2
624.42	17.25
624.613	17.23
624.805	17.21
624.997	17.17
625.189	17.17
625.381	17.19
625.574	17.15
625.766	17.09
625.958	17.13
626.15	17.1
626.342	17.13
626.534	17.06
626.726	17.05
626.918	17.03
627.11	17.02
627.302	16.96
627.494	16.95
627.686	16.88
627.878	16.81
628.07	16.74
628.262	16.73
628.454	16.68
628.646	16.64
628.838	16.56
629.029	16.47
629.221	16.43
629.413	16.37
629.605	16.25
629.797	16.22
629.989	16.17
630.18	16.11
630.372	16.15
630.564	16.15
630.755	16.15
630.947	16.15
631.139	16.09
631.33	16.09
631.522	16.1
631.714	16.11
631.905	16.06
632.097	16
632.289	15.96
632.48	15.92
632.672	15.87
632.863	15.85
633.055	15.82
633.246	15.82
633.438	15.85
633.629	15.9
633.821	15.92
634.012	15.93
634.203	15.91
634.395	15.85
634.586	15.79
634.777	15.76
634.969	15.72
635.16	15.66
635.351	15.64
635.543	15.63
635.734	15.63
635.925	15.64
636.117	15.61
636.308	15.57
636.499	15.57
636.69	15.6
636.881	15.57
637.073	15.56
637.264	15.52
637.455	15.52
637.646	15.52
637.837	15.51
638.028	15.44
638.219	15.41
638.41	15.38
638.601	15.37
638.792	15.32
638.983	15.22
639.174	15.21
639.365	15.16
639.556	15.16
639.747	15.11
639.938	15.09
640.129	15.12
640.32	15.22
640.511	15.17
640.701	15.14
640.892	15.1
641.083	15.11
641.274	15.07
641.465	14.99
641.655	14.92
641.846	14.9
642.037	14.92
642.228	14.88
642.418	14.83
642.609	14.83
642.8	14.81
642.99	14.81
643.181	14.8
643.372	14.75
643.562	14.72
643.753	14.72
643.943	14.7
644.134	14.68
644.324	14.61
644.515	14.58
644.705	14.57
644.896	14.56
645.086	14.51
645.277	14.57
645.467	14.55
645.658	14.53
645.848	14.49
646.038	14.48
646.229	14.51
646.419	14.53
646.61	14.43
646.8	14.39
646.99	14.37
647.18	14.37
647.371	14.36
647.561	14.29
647.751	14.22
647.941	14.18
648.132	14.22
648.322	14.21
648.512	14.23
648.702	14.2
648.892	14.2
649.082	14.22
649.272	14.15
649.462	14.11
649.653	14.11
649.843	14.05
650.033	14.05
650.223	14.03
650.413	14.03
650.603	14.08
650.793	14.02
650.983	14.01
651.172	13.94
651.362	13.85
651.552	13.82
651.742	13.71
651.932	13.7
652.122	13.69
652.312	13.5
652.502	13.48
652.691	13.46
652.881	13.4
653.071	13.31
653.261	13.23
653.45	13.19
653.64	13.25
653.83	13.19
654.019	13.05
654.209	12.98
654.399	12.88
654.588	12.76
654.778	12.65
654.968	12.48
655.157	12.32
655.347	12.21
655.536	12.02
655.726	11.95
655.915	11.82
656.105	11.71
656.294	11.57
656.484	11.5
656.673	11.42
656.863	11.32
657.052	11.11
657.241	10.94
657.431	10.8
657.62	10.65
657.809	10.44
657.999	10.29
658.188	10.14
658.377	10.11
658.567	9.97
658.756	9.79
658.945	9.65
659.134	9.52
659.324	9.38
659.513	9.27
659.702	9.01
659.891	8.85
660.08	8.72
660.269	8.59
660.458	8.46
660.648	8.31
660.837	8.18
661.026	8.08
661.215	8.03
661.404	7.91
661.593	7.82
661.782	7.7
661.971	7.57
662.16	7.38
662.349	7.23
662.538	7.1
662.726	6.95
662.915	6.8
663.104	6.63
663.293	6.52
663.482	6.47
663.671	6.43
663.86	6.33
664.048	6.21
664.237	6.13
664.426	6.1
664.615	5.97
664.803	5.85
664.992	5.77
665.181	5.7
665.369	5.68
665.558	5.62
665.747	5.58
665.935	5.6
666.124	5.54
666.312	5.44
666.501	5.35
666.69	5.26
666.878	5.22
667.067	5.17
667.255	5.11
667.444	5.09
667.632	5.09
667.82	5.06
668.009	5.1
668.197	5.02
668.386	5
668.574	4.94
668.762	4.94
668.951	4.91
669.139	4.93
669.327	4.84
669.516	4.83
669.704	4.8
669.892	4.84
670.08	4.79
670.269	4.82
670.457	4.75
670.645	4.78
670.833	4.75
671.021	4.67
671.21	4.67
671.398	4.67
671.586	4.68
671.774	4.67
671.962	4.69
672.15	4.73
672.338	4.84
672.526	4.87
672.714	4.87
672.902	4.81
673.09	4.86
673.278	4.85
673.466	4.91
673.654	4.91
673.842	4.93
674.03	5.02
674.218	5.14
674.405	5.2
674.593	5.2
674.781	5.21
674.969	5.22
675.157	5.19
675.344	5.21
675.532	5.2
675.72	5.25
675.908	5.38
676.095	5.47
676.283	5.47
676.471	5.56
676.658	5.6
676.846	5.7
677.033	5.77
677.221	5.78
677.409	5.87
677.596	5.97
677.784	6.01
677.971	6.07
678.159	6.15
678.346	6.19
678.534	6.28
678.721	6.3
678.909	6.37
679.096	6.46
679.283	6.57
679.471	6.62
679.658	6.74
679.846	6.79
680.033	6.9
680.22	6.92
680.408	7.04
680.595	7.06
680.782	7.14
680.969	7.16
681.157	7.28
681.344	7.36
681.531	7.51
681.718	7.62
681.905	7.78
682.093	7.96
682.28	8.2
682.467	8.25
682.654	8.38
682.841	8.5
683.028	8.75
683.215	8.92
683.402	8.94
683.589	8.96
683.776	9.17
683.963	9.32
684.15	9.48
684.337	9.6
684.524	9.79
684.711	10.1
684.898	10.36
685.085	10.58
685.271	10.85
685.458	11.14
685.645	11.35
685.832	11.64
686.019	11.89
686.205	12.16
686.392	12.48
686.579	12.74
686.766	13.11
686.952	13.56
687.139	13.78
687.326	14.15
687.512	14.51
687.699	14.88
687.886	15.24
688.072	15.6
688.259	15.9
688.445	16.37
688.632	16.86
688.818	17.33
689.005	17.74
689.191	18.31
689.378	18.73
689.564	19.15
689.751	19.6
689.937	19.97
690.124	20.48
690.31	20.97
690.496	21.41
690.683	21.97
690.869	22.64
691.055	23.3
691.242	23.85
691.428	24.47
691.614	25.16
691.8	25.72
691.987	26.29
692.173	26.87
692.359	27.38
692.545	27.97
692.731	28.53
692.918	29.06
693.104	29.65
693.29	30.27
693.476	30.79
693.662	31.47
693.848	32.09
694.034	32.65
694.22	33.34
694.406	33.98
694.592	34.67
694.778	35.38
694.964	35.9
695.15	36.62
695.336	37.4
695.522	37.99
695.708	38.66
695.894	39.19
696.08	39.71
696.265	40.34
696.451	40.92
696.637	41.2
696.823	41.78
697.009	42.28
697.194	42.95
697.38	43.37
697.566	43.89
697.751	44.34
697.937	45.06
698.123	45.49
698.308	45.89
698.494	46.27
698.68	46.91
698.865	47.46
699.051	47.89
699.236	48.24
699.422	48.78
699.607	49.29
699.793	49.82
699.978	50.34
700.164	50.78
700.349	51.3
700.535	51.87
700.72	52.26
700.906	52.58
701.091	52.83
701.276	53.06
701.462	53.47
701.647	53.72
701.832	54.03
702.018	54.41
702.203	54.75
702.388	55.14
702.573	55.59
702.759	55.82
702.944	56.36
703.129	56.74
703.314	57.1
703.499	57.57
703.684	57.95
703.87	58.17
704.055	58.49
704.24	58.57
704.425	58.97
704.61	59.12
704.795	59.49
704.98	59.7
705.165	59.87
705.35	60.07
705.535	60.32
705.72	60.4
705.905	60.53
706.09	60.68
706.275	60.87
706.459	61.36
706.644	61.75
706.829	62.1
707.014	62.16
707.199	62.45
707.384	62.61
707.568	63.02
707.753	63.11
707.938	63.31
708.123	63.41
708.307	63.84
708.492	64.18
708.677	64.49
708.861	64.52
709.046	64.48
709.231	64.53
709.415	64.65
709.6	64.56
709.784	64.63
709.969	64.71
710.153	65.14
710.338	65.4
710.522	65.55
710.707	65.57
710.891	66.04
711.076	66.14
711.26	66.37
711.445	66.11
711.629	66.47
711.813	66.61
711.998	66.98
712.182	67.2
712.366	67.59
712.551	67.65
712.735	67.94
712.919	68.04
713.103	68.32
713.288	68.62
713.472	68.57
713.656	68.41
713.84	68.52
714.024	68.69
714.208	68.86
714.393	68.75
714.577	68.77
714.761	68.78
714.945	68.88
715.129	68.95
715.313	68.99
715.497	69.13
715.681	69.52
715.865	69.52
716.049	69.63
716.233	69.82
716.417	70.08
716.601	70.04
716.785	70.1
716.968	70
717.152	70.09
717.336	70.31
717.52	70.48
717.704	70.51
717.888	70.73
718.071	70.68
718.255	70.55
718.439	70.32
718.622	70.41
718.806	70.16
718.99	70.19
719.174	70.23
719.357	70.46
719.541	70.78
719.724	71.17
719.908	71.1
720.092	71.48
720.275	71.66
720.459	71.77
720.642	71.67
720.826	71.6
721.009	71.68
721.193	71.83
721.376	71.73
721.559	71.63
721.743	71.64
721.926	71.65
722.11	71.72
722.293	71.29
722.476	71.22
722.66	71.29
722.843	71.24
723.026	71.52
723.21	71.49
723.393	71.68
723.576	72.15
723.759	72.31
723.942	72.75
724.126	73.02
724.309	72.9
724.492	73.12
724.675	73.14
724.858	73.47
725.041	73.52
725.224	73.34
725.407	73.4
725.59	73.37
725.774	73.64
725.957	73.71
726.14	73.67
726.322	73.56
726.505	73.95
726.688	74.23
726.871	74.5
727.054	74.39
727.237	74.11
727.42	74.34
727.603	74.53
727.786	74.53
727.968	74.47
728.151	74.49
728.334	74.56
728.517	75
728.699	74.85
728.882	75.12
729.065	74.92
729.248	74.85
729.43	74.69
729.613	74.6
729.796	74.65
729.978	74.91
730.161	74.99
730.343	75.01
730.526	75.27
730.708	75.84
730.891	76.17
731.073	76.34
731.256	76.17
731.438	76.19
731.621	76.69
731.803	76.72
731.986	76.41
732.168	76.52
732.35	76.51
732.533	76.67
732.715	76.67
732.898	76.51
733.08	76.55
733.262	76.52
733.444	76.66
733.627	76.68
733.809	76.78
733.991	76.9
734.173	76.68
734.355	76.79
734.538	76.92
734.72	76.58
734.902	76.77
735.084	76.55
735.266	76.77
735.448	77.25
735.63	77.27
735.812	77.7
735.994	77.83
736.176	77.81
736.358	78.42
736.54	77.93
736.722	77.95
736.904	77.74
737.086	77.31
737.268	77.71
737.45	77.4
737.632	76.81
737.814	76.92
737.995	77.16
738.177	77.69
738.359	78.34
738.541	78.2
738.723	78.71
738.904	79.05
739.086	79.55
739.268	79.69
739.449	79.18
739.631	79.29
739.813	78.83
739.994	79.09
740.176	78.74
740.358	78.77
740.539	78.71
740.721	78.57
740.902	77.73
741.084	78.1
741.265	77.98
741.447	78.04
741.628	78.18
741.81	77.69
741.991	78.47
742.172	78.97
742.354	79.4
742.535	79.27
742.717	79.6
742.898	79.77
743.079	79.74
743.261	79.58
743.442	79.54
743.623	79.08
743.804	79.33
743.986	79.09
744.167	78.46
744.348	78.89
744.529	78.8
744.71	78.41
744.891	78.66
745.073	78.26
745.254	78.4
745.435	78.3
745.616	77.9
745.797	78.04
745.978	78.51
746.159	78.4
746.34	78.64
746.521	78.36
746.702	78.33
746.883	79.17
747.064	78.52
747.245	78.66
747.426	78.79
747.606	78.39
747.787	79.2
747.968	79.81
748.149	79.15
748.33	80.21
748.51	79.93
748.691	80.19
748.872	80.2
749.053	79.77
749.233	79.69
749.414	79.74
749.595	78.67
749.775	78.75
749.956	78.14
750.137	78.14
750.317	78.53
750.498	78.37
750.678	78.16
750.859	78.68
751.04	78.64
751.22	78.7
751.4	79.04
751.581	78.81
751.761	79.09
751.942	78.97
752.122	78.92
752.303	78.86
752.483	79.4
752.663	80.29
752.844	79.63
753.024	79.58
753.204	79.89
753.385	79.87
753.565	79.27
753.745	78.83
753.925	77.3
754.106	78
754.286	78.18
754.466	78.23
754.646	77.65
754.826	78.32
755.006	78.26
755.187	78.51
755.367	78.22
755.547	77.9
755.727	78.45
755.907	79.49
756.087	79.93
756.267	80.17
756.447	80.44
756.627	80.44
756.807	80.19
756.987	79.65
757.167	79.3
757.346	78.58
757.526	78.76
757.706	78.55
757.886	78.43
758.066	78.48
758.246	78.72
758.425	78.25
758.605	78.39
758.785	78.02
758.965	77.21
759.144	77.95
759.324	77.78
759.504	77.55
759.683	77.6
759.863	77.78
760.043	78.12
760.222	78.83
760.402	78.2
760.581	78.51
760.761	77.69
760.94	77.73
761.12	77.36
761.299	76.85
761.479	77.13
761.658	76.87
761.838	76.75
762.017	76.59
762.197	77.26
762.376	77.62
762.555	77.68
762.735	77.37
762.914	77.08
763.093	77.45
763.273	78.06
763.452	77.44
763.631	76.41
763.81	77.32
763.99	77.25
764.169	78.03
764.348	78.02
764.527	77.43
764.706	77.43
764.885	78.6
765.064	78.13
765.243	78.04
765.423	77.8
765.602	77.81
765.781	78.55
765.96	78.48
766.139	77.22
766.318	77.3
766.497	77.02
766.676	77.89
766.854	76.89
767.033	76.71
767.212	76.43
767.391	77.27
767.57	76.24
767.749	77.32
767.928	75.94
768.106	76.23
768.285	76.37
768.464	77.34
768.643	77.74
768.821	78.35
769	78.56
769.179	78.58
769.357	77.84
769.536	76.55
769.715	75.35
769.893	75.08
770.072	75.32
770.25	74.98
770.429	75.3
770.607	76.3
770.786	78.17
770.964	78.25
771.143	77.78
771.321	77.13
771.5	75.91
771.678	76.35
771.857	75.99
772.035	75.37
772.213	75.82
772.392	75.77
772.57	75.58
772.748	76.44
772.927	76.4
773.105	76.71
773.283	76.08
773.461	75.59
773.64	75.27
773.818	75.03
773.996	74.59
774.174	74.28
774.352	73.97
774.531	74.37
774.709	75.61
774.887	76.39
775.065	76.82
775.243	77.29
775.421	76.42
775.599	76.45
775.777	76.77
775.955	75.61
776.133	74.25
776.311	73.89
776.489	74.39
776.667	74.02
776.844	74.7
777.022	72.81
777.2	72.82
777.378	73.87
777.556	74.33
777.734	73.17
777.911	75.46
778.089	74.33
778.267	76.66
778.445	76.97
778.622	76.6
778.8	76.56
778.978	76.81
779.155	73.64
779.333	73.28
779.511	73.3
779.688	71.8
779.866	71.97
780.043	72.12
780.221	72.37
780.398	74.4
780.576	74.84
780.753	73.46
780.931	74.8
781.108	75.06
781.286	75.67
781.463	75.47
781.64	74.28
781.818	73.44
781.995	73.91
782.172	74.54
782.35	72.44
782.527	72.85
782.704	73.54
782.882	75.26
783.059	74.63
783.236	73.54
783.413	71.97
783.59	73.32
783.768	71.18
783.945	70.24
784.122	69.35
784.299	70.79
784.476	71.94
784.653	72.27
784.83	70.36
785.007	70.95
785.184	71.23
785.361	70.68
785.538	69.93
785.715	70.5
785.892	69.98
786.069	71.56
786.246	71.5
786.423	72.08
786.6	72.19
786.776	73.82
786.953	72.63
787.13	74.66
787.307	74.86
787.484	74.73
787.66	72.91
787.837	74.25
788.014	72.42
788.191	72.13
788.367	69.15
788.544	70.7
788.721	69.48
788.897	72.71
789.074	72.09
789.25	74.12
789.427	75.37
789.603	78.63
789.78	80.24
789.956	81.73
790.133	79.26
790.309	78.12
790.486	77.47
790.662	77.75
790.839	78.39
791.015	77.29
791.192	76.72
791.368	78.12
791.544	78.74
791.721	77.69
791.897	77.02
792.073	73.73
792.249	73.72
792.426	74.91
792.602	72.77
792.778	72.8
792.954	73.28
793.13	72.88
793.307	73.55
793.483	70.35
793.659	70.43
793.835	70.29
794.011	69.67
794.187	66.93
794.363	68.44
794.539	67.56
794.715	69.71
794.891	66.35
795.067	67.21
795.243	67.42
795.419	71.38
795.595	68.92
795.771	70.48
795.947	68.75
796.122	70.79
796.298	68.56
796.474	68.21
796.65	67.87
796.826	70.88
797.001	72.14
797.177	70.4
797.353	71.89
797.529	75.04
797.704	74.5
797.88	72.23
798.056	71.41
798.231	70.33
798.407	72.08
798.582	70.58
798.758	68.35
798.934	69.21
799.109	70.24
799.285	72.07
799.46	72.59
799.636	75.34
799.811	79.27
799.986	80.31
800.162	80.33
800.337	80.85
800.513	79.8
800.688	78.05
800.863	77.41
801.039	72.36
801.214	72.25
801.389	71.24
801.565	72.09
801.74	68.77
801.915	69.04
802.09	66.12
802.265	65.84
802.441	67.07
802.616	67.73
802.791	67.53
802.966	67.66
803.141	65.17
803.316	66.23
803.491	66.43
803.666	65.79
803.841	65.69
804.016	67.4
804.191	68.38
804.366	69.79
804.541	70.07
804.716	65.8
804.891	70.35
805.066	71.21
805.241	68.55
805.416	69.59
805.591	71.86
805.765	72.48
805.94	78.31
806.115	71.68
806.29	70.46
806.464	71.02
806.639	70.55
806.814	67.36
806.989	65.67
807.163	66.09
807.338	68.9
807.512	66.58
807.687	63.78
807.862	62.49
808.036	63.86
808.211	65.89
808.385	59.72
808.56	59.32
808.734	61.05
808.909	61.94
809.083	62.87
809.258	64.17
809.432	64.31
809.606	67.85
809.781	65.95
809.955	70.01
810.13	74.59
810.304	75.27
810.478	76.69
810.652	74.7
810.827	75.75
811.001	76.67
811.175	70.26
811.349	65.54
811.524	65.59
811.698	64.02
811.872	65.67
812.046	63.33
812.22	61.06
812.394	62.83
812.568	64.25
812.742	64.44
812.916	63.21
813.09	59.49
813.264	60.59
813.438	67.26
813.612	68.46
813.786	67.93
813.96	68.03
814.134	67.6
814.308	72.98
814.482	74.05
814.656	70.33
814.83	74.06
815.003	76.54
815.177	76.3
815.351	78.06
815.525	72.98
815.698	73.95
815.872	69.86
816.046	66.38
816.219	64.24
816.393	58.84
816.567	56.77
816.74	58.73
816.914	59.62
817.088	59.82
817.261	59.05
817.435	59.95
817.608	65.07
817.782	63.5
817.955	64.28
818.129	63.32
818.302	71.07
818.475	67.22
818.649	62.46
818.822	60.21
818.996	55.23
819.169	55.29
819.342	53.85
819.516	52.94
819.689	56.46
819.862	55.97
820.035	51.8
820.209	55.31
820.382	52.14
820.555	54.87
820.728	53.62
820.901	53.72
821.075	58.58
821.248	63.14
821.421	68.25
821.594	71.9
821.767	67.22
821.94	68.02
822.113	70.42
822.286	69.89
822.459	70.51
822.632	70.9
822.805	71.99
822.978	69.91
823.151	68.49
823.324	60.92
823.496	52.13
823.669	59.12
823.842	57.44
824.015	57.29
824.188	61
824.361	58.09
824.533	59.85
824.706	81.08
824.879	69.3
825.051	66.32
825.224	73.71
825.397	70.38
825.569	73.25
825.742	72.35
825.915	64.47
826.087	64.38
826.26	70.9
826.432	62.82
826.605	60.41
826.777	51.37
826.95	51.58
827.122	50.65
827.295	56.6
827.467	46.71
827.64	43.8
827.812	50.09
827.984	58.53
828.157	62.14
828.329	64.87
828.501	60.21
828.674	64.9
828.846	66.15
829.018	62.18
829.19	56.33
829.363	55.85
829.535	58.89
829.707	61.11
829.879	57.41
830.051	59.58
830.223	53.05
830.395	59.85
830.568	62.04
830.74	59.67
830.912	54.39
831.084	55.51
831.256	54.97
831.428	63.07
831.6	61.8
831.772	58.85
831.943	57.57
832.115	59.56
832.287	59.43
832.459	51.97
832.631	53.08
832.803	53.44
832.975	59.27
833.146	64.3
833.318	55.06
833.49	71.46
833.662	72.58
833.833	73.33
834.005	68.51
834.177	66.52
834.348	61.54
834.52	73.61
834.692	65.91
834.863	66.46
835.035	63.79
835.206	63.04
835.378	57.31
835.549	54.08
835.721	52.35
835.892	47.68
836.064	53.51
836.235	53.55
836.407	51.4
836.578	54.05
836.749	56.34
836.921	63.86
837.092	71.4
837.264	68.69
837.435	60.82
837.606	67.35
837.777	56.4
837.949	53.85
838.12	45.8
838.291	39.41
838.462	39.57
838.633	45.11
838.805	42.77
838.976	52.85
839.147	54.14
839.318	48.75
839.489	55.36
839.66	61.06
839.831	54.87
840.002	59.01
840.173	55.34
840.344	53.73
840.515	56.26
840.686	59.73
840.857	50.29
841.028	61.03
841.199	62.04
841.369	60.95
841.54	66.81
841.711	76.28
841.882	69.09
842.053	71.85
842.223	67.68
842.394	64.52
842.565	72.06
842.736	65.05
842.906	58.21
843.077	58.39
843.248	62.92
843.418	57.02
843.589	60.01
843.759	56.52
843.93	65.91
844.101	59.69
844.271	48.92
844.442	44.58
844.612	46.26
844.783	23.27
844.953	20.47
845.123	24.51
845.294	26.7
845.464	43.02
845.635	46.51
845.805	50.4
845.975	57.21
846.146	59.56
846.316	48.13
846.486	51.56
846.656	54.04
846.827	48.19
846.997	51.78
847.167	59.9
847.337	62.68
847.507	62.81
847.677	65.14
847.848	59.95
848.018	62.34
848.188	68.06
848.358	68.06
848.528	72.62
848.698	64.39
848.868	51.53
849.038	53.06
849.208	45.49
849.378	27.92
849.548	20.74
849.718	11.59
849.887	17.55
850.057	26.59
850.227	25.73
850.397	21.49
850.567	23.41
850.737	27.26
850.906	28.96
851.076	28.59
851.246	26.68
851.415	28.91
851.585	46.73
851.755	44.68
851.924	59.06
852.094	55.72
852.264	55.44
852.433	55.92
852.603	68.67
852.772	47.91
852.942	54.44
853.111	45.81
853.281	48.82
853.45	46.99
853.62	59.93
853.789	53.44
853.959	59.9
854.128	47.18
854.297	39.98
854.467	34.86
854.636	29.36
854.805	13.62
854.975	15.96
855.144	36.78
855.313	43.98
855.482	48.09
855.652	45.65
855.821	46.38
855.99	52.14
856.159	39.53
856.328	19.3
856.497	20.78
856.667	25.87
856.836	34.8
857.005	37.87
857.174	47.79
857.343	43.61
857.512	36.27
857.681	27.55
857.85	16.94
858.019	6.67
858.188	2.95
858.356	-16.62
858.525	-1.84
858.694	21.09
858.863	30.02
859.032	33
859.201	31.95
859.369	29.93
859.538	28.89
859.707	40.85
859.876	40.92
860.044	43.17
860.213	48.9
860.382	55.86
860.55	75.58
860.719	76.22
860.888	79.11
861.056	70.7
861.225	76.22
861.393	58.66
861.562	42.26
861.73	27.4
861.899	17.48
862.067	12.42
862.236	17.82
862.404	25.42
862.572	16.69
862.741	27.86
862.909	30.14
863.078	29.39
863.246	25.37
863.414	28.78
863.582	16.73
863.751	32.87
863.919	30.86
864.087	38.02
864.255	45.07
864.424	56.86
864.592	49.05
864.76	52.14
864.928	54.85
865.096	55.76
865.264	49.51
865.432	46.11
865.6	20.8
865.768	31.68
865.936	22.99
866.104	26.37
866.272	32.29
866.44	5.03
866.608	4.66
866.776	50.72
866.944	38.67
867.112	31.59
867.28	18.29
867.448	38.7
867.615	77.16
867.783	55.94
867.951	39.06
868.119	65.41
868.286	78.42
868.454	68.41
868.622	48.71
868.789	48.47
868.957	68.18
869.125	69.04
869.292	62.68
869.46	52.07
869.627	53.45
869.795	52.81
869.963	45.56
870.13	50.84
870.298	43.28
870.465	22.98
870.632	23.97
870.8	3.68
870.967	8.83
871.135	23.79
871.302	11.65
871.469	12.77
871.637	21.3
871.804	36.97
871.971	41.9
872.139	45.62
872.306	26.73
872.473	26.81
872.64	21.81
872.807	16.58
872.975	27.97
873.142	18.46
873.309	20.37
873.476	55.67
873.643	74.64
873.81	98.77
873.977	83.44
874.144	19.06
874.311	8.07
874.478	2.99
874.645	-11.05
874.812	18.06
874.979	21.52
875.146	-25.18
875.313	-10.77
875.48	35.46
875.647	28.86
875.813	31.56
875.98	9.23
876.147	29.06
876.314	54.52
876.481	50.45
876.647	57.3
876.814	56.67
876.981	47.99
877.147	43.97
877.314	59.53
877.481	51.62
877.647	55.38
877.814	42.57
877.98	37.63
878.147	52.6
878.314	63.12
878.48	42
878.647	65.64
878.813	54.99
878.979	59.83
879.146	63.06
879.312	75.97
879.479	68.24
879.645	58.97
879.811	52.85
879.978	48.54
880.144	70.02
880.31	54.46
880.477	32.09
880.643	48.49
880.809	97.05
880.975	65.83
881.142	105.61
881.308	110.58
881.474	136.13
881.64	117.24
881.806	75.23
881.972	98.77
882.138	40.85
882.304	-56.48
882.47	-49.14
882.636	-71.62
882.802	-80.05
882.968	-129.51
883.134	-314.42
883.3	-68.88
883.466	17.15
883.632	22.43
883.798	27.15
883.964	22.64
884.129	30.23
884.295	40.45
884.461	44.62
884.627	66.39
884.793	67.07
884.958	86.34
885.124	80.61
885.29	42.66
885.455	28.79
885.621	24.49
885.787	11.04
885.952	-15.51
886.118	-24.67
886.283	0.2
886.449	-6.34
886.614	-12.08
886.78	19.15
886.945	15.4
887.111	26.57
887.276	22.92
887.442	14.95
887.607	20.45
887.773	21.74
887.938	16.8
888.103	34.89
888.269	36.47
888.434	46.95
888.599	61.78
888.764	50.31
888.93	53.8
889.095	33.9
889.26	32.11
889.425	38.55
889.59	4.86
889.756	9.07
889.921	10.29
890.086	-3.04
890.251	17.74
890.416	-0.2
890.581	-1.25
890.746	12.99
890.911	-63.69
891.076	-76.26
891.241	-98.95
891.406	-41.2
891.571	-20.39
891.736	-6.32
891.901	43.11
892.065	66.42
892.23	51.09
892.395	55.57
892.56	62.9
892.725	33.43
892.889	7.07
893.054	-62.89
893.219	-97.33
893.384	-128.8
893.548	-438.33
893.713	886.14
893.878	336.96
