Data from Ofra_2a_PS_6GT17_Reflection_1.txt Node
Date: Tue Jul 20 09:53:52 EDT 2021
User: Adam
Spectrometer: FLMT01687
Trigger mode: 0
Integration Time (sec): 9.450000E-1
Scans to average: 3
Electric dark correction enabled: true
Nonlinearity correction enabled: false
Boxcar width: 3
XAxis mode: Wavelengths
Number of Pixels in Spectrum: 3648
>>>>>Begin Spectral Data<<<<<
179.494	892.31
179.716	490.23
179.937	501.65
180.158	1818.36
180.38	-1028.78
180.601	-170.54
180.823	-50.89
181.044	64.64
181.265	-14.23
181.486	77.86
181.708	27.17
181.929	36.4
182.15	116.48
182.372	34.57
182.593	42.04
182.814	310.93
183.035	141.43
183.257	108.19
183.478	101.38
183.699	94.1
183.92	73.39
184.141	82.43
184.363	69.55
184.584	52.58
184.805	50.97
185.026	33.78
185.247	6.07
185.468	5.91
185.689	-6.74
185.91	-5.39
186.132	8.87
186.353	1.86
186.574	9.14
186.795	4.3
187.016	9.17
187.237	30.1
187.458	27.18
187.679	12.99
187.9	-4.44
188.121	5.6
188.342	40.35
188.563	34.26
188.784	11.93
189.005	15.04
189.226	19.41
189.447	24.58
189.667	24.1
189.888	16.53
190.109	18.2
190.33	16.08
190.551	6.85
190.772	9.08
190.993	28.03
191.214	25.2
191.434	14.74
191.655	24.87
191.876	26.53
192.097	26.29
192.318	25.32
192.538	10.38
192.759	10.97
192.98	15.61
193.201	18.35
193.421	25.14
193.642	21.41
193.863	9.47
194.083	17.78
194.304	22
194.525	31.17
194.745	9.04
194.966	19.8
195.187	29.57
195.407	27.02
195.628	23.59
195.848	25.02
196.069	26.49
196.29	23.13
196.51	9.56
196.731	19.8
196.951	16.56
197.172	7.44
197.392	2.92
197.613	-23.94
197.833	-13.31
198.054	-10.16
198.274	-39.16
198.495	-44.49
198.715	-61.8
198.936	-80.86
199.156	-39.58
199.377	-58.67
199.597	-63.7
199.817	-44.57
200.038	-36.6
200.258	-13.6
200.479	3.01
200.699	10.1
200.919	10.9
201.14	16.64
201.36	26.59
201.58	53.26
201.801	38.56
202.021	29.1
202.241	25.12
202.461	39.11
202.682	35.6
202.902	39.22
203.122	28.18
203.342	31.46
203.563	25.23
203.783	27.78
204.003	22.48
204.223	30.05
204.443	20.08
204.663	20.17
204.884	14.54
205.104	12.34
205.324	31.59
205.544	40.33
205.764	40.94
205.984	47.43
206.204	51.72
206.424	54.41
206.644	57.32
206.864	35.99
207.084	42.48
207.304	37.78
207.525	28.08
207.745	28.31
207.964	30.69
208.184	21.22
208.404	22.69
208.624	-5.33
208.844	-9.62
209.064	5.55
209.284	14.87
209.504	9.14
209.724	17.86
209.944	17.06
210.164	25.66
210.384	34.86
210.604	23.34
210.823	-3.91
211.043	-0.81
211.263	6.24
211.483	6.08
211.703	17.82
211.922	14.04
212.142	22.18
212.362	34.05
212.582	25.62
212.801	11.18
213.021	14.6
213.241	-14.66
213.461	-9.13
213.68	-5.55
213.9	-6.34
214.12	-8.29
214.339	11.33
214.559	14.12
214.779	32.38
214.998	26.63
215.218	26.11
215.438	31.82
215.657	40.3
215.877	33.95
216.096	46.93
216.316	35.85
216.535	38.79
216.755	27.21
216.974	23.19
217.194	19.22
217.413	33.7
217.633	8.68
217.852	-0.76
218.072	-18.55
218.291	13.72
218.511	14.4
218.73	1.11
218.95	-14.11
219.169	-2.21
219.389	9.41
219.608	24.22
219.827	11.97
220.047	4.36
220.266	24.16
220.485	27.51
220.705	13.8
220.924	20.43
221.143	7.15
221.363	11.78
221.582	14.92
221.801	17.53
222.021	15.03
222.24	18.11
222.459	2.62
222.678	12.3
222.897	0.51
223.117	-3.64
223.336	-10.73
223.555	-12.42
223.774	6.03
223.993	29.66
224.213	28.72
224.432	31.41
224.651	30.14
224.87	44.66
225.089	49.86
225.308	37.76
225.527	30.31
225.746	33.44
225.965	32.48
226.184	28.59
226.404	-1.11
226.623	1.71
226.842	15
227.061	17.34
227.28	27.74
227.499	39.37
227.718	50.1
227.936	47.85
228.155	41.08
228.374	41.49
228.593	34.38
228.812	21.38
229.031	10.47
229.25	14.32
229.469	37.29
229.688	39.59
229.907	35.83
230.125	33.1
230.344	40.12
230.563	41.24
230.782	21.88
231.001	14.39
231.22	6.68
231.438	9.03
231.657	23.94
231.876	19.13
232.095	25.17
232.313	41.29
232.532	41.66
232.751	48.44
232.969	54.28
233.188	41.63
233.407	37.28
233.625	27.02
233.844	23.68
234.063	14.53
234.281	13.59
234.5	11.97
234.719	20.27
234.937	22.83
235.156	27.81
235.374	23.67
235.593	26.73
235.811	28.58
236.03	18.45
236.249	24.09
236.467	34.99
236.686	39.57
236.904	35.85
237.123	42.75
237.341	39.13
237.559	41
237.778	32.49
237.996	26.07
238.215	13.48
238.433	17.78
238.652	15.98
238.87	15.38
239.088	9.8
239.307	11.44
239.525	10.67
239.743	7.72
239.962	13.28
240.18	14.84
240.398	20.64
240.617	34.45
240.835	35.22
241.053	42.19
241.271	56.42
241.49	47.59
241.708	41.9
241.926	31.72
242.144	27.71
242.363	18.56
242.581	21.98
242.799	2.88
243.017	9.86
243.235	10.62
243.453	17.58
243.672	11.41
243.89	23.95
244.108	19.31
244.326	29.01
244.544	24.48
244.762	28.76
244.98	35.1
245.198	24.01
245.416	20.98
245.634	18.84
245.852	21.77
246.07	16.89
246.288	6.73
246.506	5.05
246.724	28.46
246.942	25.27
247.16	23.68
247.378	16.31
247.596	30.71
247.814	22.75
248.032	11.38
248.25	3.4
248.468	14.75
248.685	24.7
248.903	25.65
249.121	19.5
249.339	27.66
249.557	37.35
249.775	15.69
249.992	5.61
250.21	-4.95
250.428	-3.92
250.646	-6.24
250.863	-12.42
251.081	-20.21
251.299	4.75
251.517	12.33
251.734	23.74
251.952	32.87
252.17	31.15
252.387	37.15
252.605	37.96
252.823	34.06
253.04	21.04
253.258	12.48
253.475	7.9
253.693	22.69
253.911	12.06
254.128	9.17
254.346	9.96
254.563	11.48
254.781	7.53
254.998	7.78
255.216	1.6
255.433	14.56
255.651	11.54
255.868	14.21
256.086	20.89
256.303	23.73
256.521	16.42
256.738	21.04
256.956	1.75
257.173	11.42
257.39	13.42
257.608	10.55
257.825	6.02
258.043	14.23
258.26	9.72
258.477	21.87
258.695	22.41
258.912	29.31
259.129	17.24
259.346	26.12
259.564	20.5
259.781	25.42
259.998	19.98
260.216	24.7
260.433	20.19
260.65	32.01
260.867	16.28
261.084	29.47
261.302	9.65
261.519	0.34
261.736	-10.64
261.953	-7.02
262.17	-8.37
262.387	2.29
262.604	-15.81
262.822	4.78
263.039	14.01
263.256	17.45
263.473	7.75
263.69	24.36
263.907	19.14
264.124	20.26
264.341	13.57
264.558	16.74
264.775	15.42
264.992	17.3
265.209	19.44
265.426	25.97
265.643	31.63
265.86	26.08
266.077	25.99
266.294	35.03
266.51	26.61
266.727	10.51
266.944	5.63
267.161	-4.22
267.378	4.36
267.595	-4.21
267.812	-16.36
268.028	3.65
268.245	15.45
268.462	13.02
268.679	3.67
268.896	5.35
269.112	14.75
269.329	24.99
269.546	18.9
269.763	19.74
269.979	25.14
270.196	30.85
270.413	31.64
270.629	22.22
270.846	13.94
271.063	18.29
271.279	11.97
271.496	-5.23
271.712	-4.53
271.929	3.41
272.146	10.62
272.362	-3.87
272.579	3.08
272.795	2.46
273.012	19.55
273.228	15.23
273.445	13.91
273.661	7.73
273.878	21.45
274.094	18.91
274.311	20.17
274.527	12.57
274.744	15.35
274.96	10.24
275.177	26.9
275.393	20.87
275.609	14.98
275.826	11.11
276.042	26.64
276.259	27.69
276.475	30.59
276.691	20.83
276.908	16.16
277.124	17.63
277.34	17.61
277.557	10.25
277.773	4.55
277.989	8.1
278.205	3.77
278.422	18.75
278.638	34.26
278.854	36.95
279.07	26.25
279.286	25.41
279.503	17.02
279.719	31.71
279.935	18.69
280.151	23.15
280.367	24.45
280.583	33.05
280.799	45.64
281.016	47.15
281.232	37.9
281.448	31.33
281.664	16.33
281.88	14.04
282.096	16.82
282.312	-1.27
282.528	-21.28
282.744	-17.52
282.96	5.38
283.176	9.85
283.392	25.3
283.608	31.92
283.824	31.37
284.04	48.26
284.256	51.32
284.471	49.08
284.687	40.8
284.903	36.29
285.119	21.05
285.335	23.25
285.551	16.77
285.767	18.9
285.982	17.4
286.198	15.45
286.414	23.95
286.63	29.15
286.846	25.65
287.061	32.01
287.277	30.2
287.493	32.4
287.709	33.32
287.924	31.75
288.14	44.06
288.356	63.07
288.571	53.92
288.787	51.98
289.003	54.85
289.218	53.67
289.434	44.12
289.65	30.28
289.865	17.99
290.081	18.92
290.296	14.14
290.512	15.97
290.727	21.61
290.943	19.77
291.159	12.69
291.374	18.55
291.59	13.25
291.805	15.6
292.021	6.37
292.236	-0.8
292.451	9.3
292.667	13.75
292.882	0.09
293.098	6.19
293.313	9.24
293.529	18.4
293.744	25.82
293.959	17.23
294.175	27.06
294.39	48.05
294.605	46.92
294.821	38.27
295.036	34.34
295.251	32.86
295.467	30.37
295.682	29.12
295.897	23.29
296.112	20.25
296.328	25.4
296.543	20
296.758	18.89
296.973	26.04
297.188	21.7
297.404	23.66
297.619	27.37
297.834	34.38
298.049	34.2
298.264	29.46
298.479	12.93
298.694	24.01
298.909	17.02
299.125	18.42
299.34	5.29
299.555	7.66
299.77	3.17
299.985	5.61
300.2	-9.03
300.415	-0.11
300.63	-11.17
300.845	-0.06
301.06	-3.27
301.275	6.26
301.49	19.83
301.704	20.16
301.919	12.95
302.134	9.94
302.349	3.25
302.564	1.65
302.779	-6.78
302.994	-16.38
303.209	-8.06
303.423	7.98
303.638	21.92
303.853	25.59
304.068	31.82
304.283	37.56
304.497	27.72
304.712	25.5
304.927	12.93
305.142	12.47
305.356	7.76
305.571	6.69
305.786	-0.78
306	9.45
306.215	11.87
306.43	21.19
306.644	20.62
306.859	27.98
307.074	21.52
307.288	31.76
307.503	31.66
307.717	28.17
307.932	30.48
308.147	36.81
308.361	31.05
308.576	35.2
308.79	28.23
309.005	24.96
309.219	25.13
309.434	17.46
309.648	8.84
309.863	18.77
310.077	12.22
310.292	11.42
310.506	28.04
310.72	22.25
310.935	25.71
311.149	28.86
311.364	27.66
311.578	29.08
311.792	26.49
312.007	13.16
312.221	20.7
312.435	18.61
312.649	4.32
312.864	-19.29
313.078	-12.84
313.292	-5.31
313.507	2.82
313.721	8.08
313.935	28.58
314.149	44.75
314.363	50.06
314.578	76.62
314.792	68.13
315.006	65.62
315.22	63.45
315.434	46.75
315.648	38.52
315.862	39.71
316.077	20.83
316.291	32.69
316.505	31.99
316.719	12.37
316.933	24.28
317.147	20.36
317.361	26.61
317.575	23.33
317.789	16.43
318.003	18.62
318.217	29.21
318.431	34.64
318.645	39.3
318.859	25.18
319.073	23.57
319.287	29.89
319.5	25.39
319.714	23.02
319.928	25.82
320.142	24.01
320.356	40.96
320.57	40.16
320.784	38.21
320.997	43.51
321.211	52.56
321.425	32.56
321.639	36.37
321.853	26.66
322.066	25.5
322.28	19.51
322.494	17.56
322.707	3.99
322.921	7.83
323.135	6.13
323.349	12.69
323.562	10.03
323.776	14.05
323.989	9.97
324.203	17.95
324.417	14.62
324.63	3.2
324.844	-4.4
325.057	10.43
325.271	3.13
325.485	2.54
325.698	0.01
325.912	12.51
326.125	24.28
326.339	32.05
326.552	28.35
326.766	37.42
326.979	41.23
327.193	40.29
327.406	39.45
327.619	24.7
327.833	15.18
328.046	7.84
328.26	7.2
328.473	1.03
328.686	10.5
328.9	1.85
329.113	13.04
329.326	11.89
329.54	17.9
329.753	18.74
329.966	25.41
330.179	21.79
330.393	35.62
330.606	40.81
330.819	44.35
331.032	47.57
331.246	46.46
331.459	47.89
331.672	46.91
331.885	31.32
332.098	24.39
332.311	16.1
332.525	14.55
332.738	9.1
332.951	8.27
333.164	4.12
333.377	-3.66
333.59	-0.57
333.803	10.51
334.016	-1.99
334.229	-8.87
334.442	4.54
334.655	18.45
334.868	46.39
335.081	52.44
335.294	49.04
335.507	48.8
335.72	48.02
335.933	46.01
336.146	38.7
336.359	18.03
336.572	13.03
336.785	19.71
336.997	17.3
337.21	27.71
337.423	21.29
337.636	18.92
337.849	19.4
338.062	16.63
338.274	9.94
338.487	7.92
338.7	7.25
338.913	0.5
339.125	-4.56
339.338	6.37
339.551	14.63
339.763	9.78
339.976	12.23
340.189	10.07
340.402	12.15
340.614	20.04
340.827	8.6
341.039	4.82
341.252	13.94
341.465	12.9
341.677	6.93
341.89	9.63
342.102	2.17
342.315	14.94
342.527	13.63
342.74	11.21
342.952	13.84
343.165	23.68
343.377	24.79
343.59	38.23
343.802	29.52
344.015	31.43
344.227	28.13
344.44	28.08
344.652	27.08
344.864	28.81
345.077	18.68
345.289	26.16
345.502	27.04
345.714	27.28
345.926	23.33
346.139	21.94
346.351	23.8
346.563	34.52
346.775	22.24
346.988	20.55
347.2	13.35
347.412	16.79
347.624	14.57
347.837	11.36
348.049	4.95
348.261	10.24
348.473	-2.05
348.685	6.06
348.897	2.67
349.11	8.66
349.322	1.6
349.534	3.16
349.746	12.4
349.958	18.9
350.17	18.55
350.382	14.21
350.594	22.92
350.806	35.18
351.018	36.26
351.23	37.78
351.442	39.83
351.654	39.75
351.866	51.57
352.078	37.18
352.29	42.42
352.502	38.55
352.714	30.83
352.926	33.69
353.138	28.44
353.35	21.72
353.561	21.73
353.773	12.04
353.985	10.72
354.197	12.3
354.409	12.77
354.621	15.23
354.832	8.97
355.044	18.39
355.256	14.44
355.468	17.02
355.679	19.27
355.891	16.76
356.103	23.88
356.314	19.24
356.526	16.1
356.738	16.01
356.949	21.09
357.161	16.97
357.373	23.1
357.584	21.3
357.796	29.21
358.008	31.65
358.219	48.33
358.431	47.76
358.642	48.79
358.854	43.05
359.065	38.62
359.277	35.64
359.488	27.49
359.7	18.42
359.911	20.48
360.123	20.88
360.334	19.68
360.546	13.18
360.757	20.43
360.969	28.84
361.18	25.23
361.391	17.88
361.603	19.41
361.814	23.45
362.025	30.45
362.237	21.76
362.448	20.62
362.659	15.94
362.871	22.94
363.082	26.17
363.293	24.63
363.504	22.49
363.716	25.97
363.927	25.32
364.138	31.06
364.349	26.09
364.56	19.63
364.772	25.47
364.983	18.49
365.194	21.33
365.405	18.87
365.616	13.77
365.827	20.17
366.038	24.42
366.25	14.73
366.461	27.91
366.672	23.69
366.883	25.78
367.094	21.93
367.305	17.02
367.516	20.15
367.727	16.62
367.938	11.08
368.149	16.64
368.36	12.96
368.571	23.1
368.781	19.73
368.992	11.24
369.203	13.38
369.414	12.51
369.625	7.63
369.836	5.84
370.047	-0.88
370.258	-1.62
370.468	-2.01
370.679	-1.86
370.89	9.75
371.101	2.54
371.312	0.71
371.522	3.63
371.733	1.9
371.944	5.21
372.155	-3.38
372.365	-11.37
372.576	-3.35
372.787	-4.22
372.997	-4.95
373.208	3.29
373.419	3.35
373.629	13.18
373.84	10.46
374.05	18.53
374.261	16.51
374.472	11.28
374.682	4.58
374.893	2.87
375.103	4.94
375.314	3.63
375.524	-2.78
375.735	1.37
375.945	7.76
376.156	16.76
376.366	20.4
376.577	17.96
376.787	27.12
376.997	26.43
377.208	26.18
377.418	20.33
377.629	17.4
377.839	20.62
378.049	27.34
378.26	24.51
378.47	31.02
378.68	33.01
378.89	28.21
379.101	19.21
379.311	10.16
379.521	6.72
379.732	-3.13
379.942	-8.95
380.152	-7.98
380.362	5
380.572	8.6
380.783	13.15
380.993	13.84
381.203	20.8
381.413	26.31
381.623	29.66
381.833	21.11
382.043	21.45
382.253	25.07
382.463	26.59
382.674	23.08
382.884	13.82
383.094	8.02
383.304	6.78
383.514	15.53
383.724	5.91
383.934	2.96
384.144	6.67
384.353	7.43
384.563	5.89
384.773	8.93
384.983	6.72
385.193	13.39
385.403	14.22
385.613	7.83
385.823	9.64
386.033	14.02
386.242	14.42
386.452	9.48
386.662	10.7
386.872	6.97
387.082	5.37
387.291	6.03
387.501	3.37
387.711	3.41
387.921	4.52
388.13	2.32
388.34	4.57
388.55	10.76
388.759	10.79
388.969	8.84
389.179	8.59
389.388	6.48
389.598	5.56
389.807	4.03
390.017	3.46
390.227	1.87
390.436	4.26
390.646	5.28
390.855	6.1
391.065	6.6
391.274	5.47
391.484	5.66
391.693	6.46
391.903	4.75
392.112	3.81
392.322	5.43
392.531	6.02
392.74	5.31
392.95	4.42
393.159	4.7
393.369	4.89
393.578	5.72
393.787	5.12
393.997	5.65
394.206	6.86
394.415	7
394.625	5.64
394.834	5.9
395.043	5.47
395.252	5.92
395.462	5.02
395.671	5.99
395.88	5.81
396.089	5.97
396.298	6.46
396.508	6.01
396.717	5.62
396.926	5.7
397.135	4.73
397.344	4.67
397.553	5.44
397.762	5.2
397.971	5.54
398.181	5.27
398.39	5.41
398.599	5.87
398.808	5.83
399.017	5.86
399.226	5.99
399.435	5.79
399.644	5.67
399.853	5.52
400.062	5.13
400.27	5.22
400.479	4.9
400.688	4.8
400.897	4.98
401.106	5.25
401.315	5.18
401.524	5.39
401.733	5.56
401.941	5.48
402.15	5.34
402.359	5.22
402.568	5.14
402.777	5.06
402.985	4.92
403.194	4.73
403.403	4.68
403.612	4.66
403.82	4.63
404.029	4.62
404.238	4.78
404.446	4.71
404.655	4.6
404.864	4.62
405.072	4.72
405.281	4.6
405.489	4.57
405.698	4.47
405.906	4.54
406.115	4.58
406.324	4.64
406.532	4.62
406.741	4.71
406.949	4.65
407.158	4.73
407.366	4.81
407.574	4.86
407.783	4.77
407.991	4.67
408.2	4.61
408.408	4.64
408.617	4.57
408.825	4.49
409.033	4.38
409.242	4.36
409.45	4.35
409.658	4.39
409.867	4.35
410.075	4.26
410.283	4.16
410.491	4.19
410.7	4.25
410.908	4.25
411.116	4.17
411.324	4.2
411.533	4.16
411.741	4.15
411.949	4.16
412.157	4.16
412.365	4.15
412.573	4.23
412.781	4.23
412.99	4.34
413.198	4.42
413.406	4.37
413.614	4.35
413.822	4.33
414.03	4.27
414.238	4.29
414.446	4.19
414.654	4.21
414.862	4.22
415.07	4.15
415.278	4.12
415.486	4.16
415.694	4.06
415.902	3.99
416.109	3.93
416.317	3.81
416.525	3.89
416.733	3.95
416.941	3.83
417.149	3.94
417.357	3.97
417.564	3.95
417.772	4.05
417.98	3.97
418.188	3.85
418.395	3.91
418.603	3.77
418.811	3.71
419.019	3.74
419.226	3.75
419.434	3.67
419.642	3.7
419.849	3.63
420.057	3.74
420.265	3.73
420.472	3.66
420.68	3.62
420.887	3.74
421.095	3.84
421.302	4
421.51	4.04
421.717	4.14
421.925	4.06
422.132	3.93
422.34	3.96
422.547	3.82
422.755	3.7
422.962	3.62
423.17	3.56
423.377	3.68
423.585	3.75
423.792	3.74
423.999	3.72
424.207	3.65
424.414	3.69
424.621	3.72
424.829	3.65
425.036	3.64
425.243	3.67
425.451	3.73
425.658	3.82
425.865	3.72
426.072	3.8
426.28	3.79
426.487	3.86
426.694	3.79
426.901	3.69
427.108	3.66
427.315	3.66
427.523	3.62
427.73	3.74
427.937	3.75
428.144	3.77
428.351	3.92
428.558	3.85
428.765	3.86
428.972	3.83
429.179	3.73
429.386	3.73
429.593	3.66
429.8	3.68
430.007	3.87
430.214	3.87
430.421	3.91
430.628	3.78
430.835	3.8
431.042	3.92
431.249	3.91
431.456	3.87
431.662	3.94
431.869	4.04
432.076	4.21
432.283	4.15
432.49	4.05
432.697	4.03
432.903	4.01
433.11	4.05
433.317	3.99
433.524	3.89
433.73	3.96
433.937	3.98
434.144	4.04
434.35	3.97
434.557	3.89
434.764	3.86
434.97	3.97
435.177	3.93
435.384	3.99
435.59	3.97
435.797	4.06
436.003	4.1
436.21	4.12
436.416	4.07
436.623	4.18
436.829	4.22
437.036	4.22
437.242	4.19
437.449	4.19
437.655	4.23
437.862	4.29
438.068	4.3
438.275	4.25
438.481	4.28
438.687	4.35
438.894	4.37
439.1	4.43
439.307	4.42
439.513	4.35
439.719	4.42
439.926	4.42
440.132	4.38
440.338	4.41
440.544	4.33
440.751	4.31
440.957	4.28
441.163	4.31
441.369	4.31
441.575	4.31
441.782	4.31
441.988	4.31
442.194	4.4
442.4	4.47
442.606	4.46
442.812	4.51
443.018	4.51
443.224	4.49
443.431	4.53
443.637	4.45
443.843	4.52
444.049	4.55
444.255	4.46
444.461	4.49
444.667	4.53
444.873	4.51
445.079	4.56
445.284	4.45
445.49	4.39
445.696	4.47
445.902	4.55
446.108	4.55
446.314	4.59
446.52	4.58
446.726	4.65
446.931	4.67
447.137	4.65
447.343	4.58
447.549	4.57
447.755	4.56
447.96	4.53
448.166	4.53
448.372	4.59
448.578	4.61
448.783	4.61
448.989	4.63
449.195	4.62
449.4	4.69
449.606	4.67
449.812	4.65
450.017	4.58
450.223	4.61
450.428	4.64
450.634	4.67
450.84	4.64
451.045	4.58
451.251	4.65
451.456	4.66
451.662	4.66
451.867	4.63
452.073	4.64
452.278	4.63
452.483	4.74
452.689	4.69
452.894	4.72
453.1	4.71
453.305	4.72
453.51	4.72
453.716	4.72
453.921	4.7
454.127	4.69
454.332	4.69
454.537	4.74
454.742	4.74
454.948	4.73
455.153	4.74
455.358	4.77
455.563	4.78
455.769	4.81
455.974	4.75
456.179	4.67
456.384	4.65
456.589	4.7
456.795	4.62
457	4.61
457.205	4.57
457.41	4.62
457.615	4.69
457.82	4.73
458.025	4.71
458.23	4.8
458.435	4.74
458.64	4.79
458.845	4.77
459.05	4.8
459.255	4.77
459.46	4.78
459.665	4.8
459.87	4.83
460.075	4.8
460.28	4.8
460.485	4.82
460.69	4.76
460.895	4.77
461.099	4.72
461.304	4.73
461.509	4.67
461.714	4.71
461.919	4.66
462.123	4.71
462.328	4.69
462.533	4.7
462.738	4.71
462.942	4.79
463.147	4.75
463.352	4.82
463.556	4.84
463.761	4.86
463.966	4.9
464.17	4.91
464.375	4.86
464.58	4.83
464.784	4.82
464.989	4.82
465.193	4.86
465.398	4.83
465.602	4.89
465.807	4.95
466.011	5
466.216	5.02
466.42	5.06
466.625	5.04
466.829	5.1
467.034	5.06
467.238	5.08
467.443	5.07
467.647	5.04
467.851	5.02
468.056	5.01
468.26	4.97
468.464	5
468.669	5.02
468.873	5.01
469.077	5.05
469.282	5.06
469.486	5.08
469.69	5.07
469.894	5.08
470.099	5.1
470.303	5.17
470.507	5.15
470.711	5.19
470.915	5.29
471.119	5.35
471.324	5.33
471.528	5.34
471.732	5.33
471.936	5.41
472.14	5.4
472.344	5.37
472.548	5.38
472.752	5.41
472.956	5.41
473.16	5.39
473.364	5.34
473.568	5.39
473.772	5.46
473.976	5.46
474.18	5.45
474.384	5.44
474.588	5.51
474.792	5.53
474.995	5.5
475.199	5.47
475.403	5.43
475.607	5.46
475.811	5.46
476.015	5.5
476.218	5.49
476.422	5.52
476.626	5.48
476.83	5.5
477.033	5.51
477.237	5.5
477.441	5.45
477.644	5.47
477.848	5.44
478.052	5.47
478.255	5.5
478.459	5.58
478.663	5.63
478.866	5.64
479.07	5.69
479.273	5.7
479.477	5.72
479.681	5.73
479.884	5.62
480.088	5.62
480.291	5.66
480.495	5.64
480.698	5.64
480.901	5.65
481.105	5.66
481.308	5.72
481.512	5.72
481.715	5.72
481.919	5.74
482.122	5.77
482.325	5.77
482.529	5.83
482.732	5.84
482.935	5.86
483.138	5.87
483.342	5.89
483.545	5.89
483.748	5.89
483.952	5.87
484.155	5.89
484.358	5.89
484.561	5.93
484.764	5.94
484.967	5.92
485.171	5.95
485.374	5.93
485.577	5.94
485.78	5.96
485.983	5.98
486.186	5.97
486.389	6.01
486.592	6.05
486.795	6.14
486.998	6.16
487.201	6.16
487.404	6.22
487.607	6.28
487.81	6.37
488.013	6.4
488.216	6.39
488.419	6.41
488.622	6.46
488.825	6.44
489.028	6.45
489.231	6.44
489.433	6.45
489.636	6.45
489.839	6.5
490.042	6.53
490.245	6.59
490.447	6.64
490.65	6.72
490.853	6.78
491.056	6.87
491.258	6.98
491.461	7.07
491.664	7.09
491.866	7.21
492.069	7.3
492.272	7.39
492.474	7.47
492.677	7.53
492.879	7.64
493.082	7.76
493.285	7.81
493.487	7.85
493.69	7.88
493.892	8.01
494.095	8.07
494.297	8.13
494.5	8.26
494.702	8.34
494.905	8.5
495.107	8.64
495.309	8.67
495.512	8.84
495.714	8.97
495.917	9.06
496.119	9.19
496.321	9.27
496.524	9.36
496.726	9.5
496.928	9.58
497.13	9.69
497.333	9.81
497.535	9.9
497.737	10.01
497.939	10.09
498.142	10.15
498.344	10.26
498.546	10.35
498.748	10.42
498.95	10.49
499.152	10.52
499.355	10.63
499.557	10.76
499.759	10.88
499.961	10.93
500.163	11.03
500.365	11.1
500.567	11.18
500.769	11.26
500.971	11.26
501.173	11.27
501.375	11.29
501.577	11.35
501.779	11.38
501.981	11.4
502.183	11.4
502.385	11.43
502.587	11.44
502.788	11.45
502.99	11.38
503.192	11.41
503.394	11.45
503.596	11.42
503.798	11.51
503.999	11.47
504.201	11.46
504.403	11.49
504.605	11.5
504.806	11.48
505.008	11.5
505.21	11.42
505.411	11.48
505.613	11.48
505.815	11.44
506.016	11.4
506.218	11.32
506.42	11.28
506.621	11.25
506.823	11.19
507.024	11.13
507.226	11.07
507.427	10.99
507.629	11
507.83	10.9
508.032	10.86
508.233	10.76
508.435	10.73
508.636	10.69
508.838	10.71
509.039	10.65
509.24	10.63
509.442	10.52
509.643	10.48
509.845	10.42
510.046	10.41
510.247	10.36
510.448	10.33
510.65	10.31
510.851	10.33
511.052	10.32
511.254	10.29
511.455	10.24
511.656	10.15
511.857	10.1
512.058	10.09
512.26	10.02
512.461	9.99
512.662	9.91
512.863	9.9
513.064	9.85
513.265	9.84
513.466	9.82
513.667	9.79
513.868	9.77
514.069	9.78
514.27	9.71
514.471	9.73
514.672	9.67
514.873	9.66
515.074	9.67
515.275	9.63
515.476	9.61
515.677	9.6
515.878	9.58
516.079	9.6
516.28	9.53
516.481	9.47
516.682	9.46
516.882	9.41
517.083	9.41
517.284	9.4
517.485	9.38
517.686	9.34
517.886	9.33
518.087	9.3
518.288	9.29
518.488	9.27
518.689	9.26
518.89	9.25
519.091	9.28
519.291	9.27
519.492	9.27
519.692	9.32
519.893	9.32
520.094	9.32
520.294	9.26
520.495	9.24
520.695	9.23
520.896	9.19
521.096	9.17
521.297	9.13
521.497	9.1
521.698	9.08
521.898	9.1
522.099	9.12
522.299	9.12
522.499	9.1
522.7	9.12
522.9	9.11
523.101	9.14
523.301	9.1
523.501	9.09
523.702	9.09
523.902	9.1
524.102	9.09
524.302	9.09
524.503	9.05
524.703	9.07
524.903	9.05
525.103	9.03
525.304	9.02
525.504	9.01
525.704	9.02
525.904	9.04
526.104	9.04
526.304	9.04
526.504	9.06
526.705	9.07
526.905	9.06
527.105	9.04
527.305	9.02
527.505	9
527.705	8.97
527.905	8.94
528.105	8.91
528.305	8.94
528.505	8.96
528.705	9
528.905	9
529.105	9.04
529.304	9.08
529.504	9.09
529.704	9.07
529.904	9.05
530.104	9.04
530.304	9.04
530.503	9.01
530.703	9.03
530.903	9.07
531.103	9.07
531.303	9.13
531.502	9.11
531.702	9.12
531.902	9.14
532.101	9.14
532.301	9.1
532.501	9.07
532.7	9.02
532.9	9.04
533.1	9.06
533.299	9.13
533.499	9.11
533.698	9.14
533.898	9.19
534.097	9.23
534.297	9.25
534.496	9.26
534.696	9.25
534.895	9.27
535.095	9.29
535.294	9.29
535.494	9.29
535.693	9.3
535.892	9.29
536.092	9.26
536.291	9.29
536.491	9.29
536.69	9.29
536.889	9.25
537.088	9.24
537.288	9.29
537.487	9.31
537.686	9.3
537.886	9.28
538.085	9.31
538.284	9.37
538.483	9.42
538.682	9.4
538.882	9.41
539.081	9.43
539.28	9.44
539.479	9.42
539.678	9.46
539.877	9.43
540.076	9.46
540.275	9.47
540.474	9.46
540.673	9.49
540.872	9.56
541.071	9.57
541.27	9.61
541.469	9.63
541.668	9.66
541.867	9.71
542.066	9.71
542.265	9.69
542.464	9.66
542.663	9.71
542.862	9.75
543.06	9.75
543.259	9.74
543.458	9.73
543.657	9.79
543.856	9.81
544.054	9.81
544.253	9.8
544.452	9.77
544.651	9.8
544.849	9.84
545.048	9.84
545.247	9.86
545.445	9.84
545.644	9.88
545.843	9.95
546.041	9.96
546.24	10.01
546.438	10.07
546.637	10.15
546.836	10.19
547.034	10.21
547.233	10.27
547.431	10.3
547.63	10.32
547.828	10.3
548.027	10.27
548.225	10.31
548.423	10.35
548.622	10.37
548.82	10.42
549.019	10.43
549.217	10.52
549.415	10.59
549.614	10.62
549.812	10.63
550.01	10.65
550.209	10.67
550.407	10.73
550.605	10.74
550.803	10.76
551.002	10.8
551.2	10.88
551.398	10.89
551.596	10.91
551.794	10.96
551.993	10.97
552.191	11.04
552.389	11.1
552.587	11.1
552.785	11.2
552.983	11.28
553.181	11.28
553.379	11.33
553.577	11.37
553.775	11.43
553.973	11.53
554.171	11.55
554.369	11.56
554.567	11.65
554.765	11.69
554.963	11.76
555.161	11.8
555.359	11.8
555.557	11.86
555.755	11.96
555.952	12
556.15	12.09
556.348	12.14
556.546	12.23
556.744	12.29
556.941	12.39
557.139	12.44
557.337	12.5
557.535	12.58
557.732	12.67
557.93	12.7
558.128	12.77
558.325	12.83
558.523	12.9
558.721	12.99
558.918	13.04
559.116	13.08
559.313	13.19
559.511	13.26
559.708	13.33
559.906	13.4
560.104	13.5
560.301	13.57
560.498	13.65
560.696	13.7
560.893	13.77
561.091	13.84
561.288	13.94
561.486	14.02
561.683	14.11
561.88	14.19
562.078	14.28
562.275	14.4
562.473	14.46
562.67	14.54
562.867	14.58
563.064	14.66
563.262	14.77
563.459	14.83
563.656	14.92
563.853	15.02
564.051	15.08
564.248	15.17
564.445	15.27
564.642	15.36
564.839	15.49
565.036	15.59
565.234	15.68
565.431	15.8
565.628	15.92
565.825	16.05
566.022	16.13
566.219	16.18
566.416	16.28
566.613	16.42
566.81	16.48
567.007	16.52
567.204	16.55
567.401	16.67
567.598	16.71
567.795	16.76
567.991	16.79
568.188	16.91
568.385	17.04
568.582	17.15
568.779	17.2
568.976	17.33
569.172	17.43
569.369	17.46
569.566	17.51
569.763	17.54
569.96	17.57
570.156	17.61
570.353	17.64
570.55	17.72
570.746	17.79
570.943	17.9
571.14	17.97
571.336	18.02
571.533	18.12
571.729	18.22
571.926	18.25
572.123	18.32
572.319	18.34
572.516	18.35
572.712	18.45
572.909	18.49
573.105	18.52
573.302	18.55
573.498	18.6
573.695	18.66
573.891	18.74
574.087	18.74
574.284	18.77
574.48	18.83
574.677	18.93
574.873	19
575.069	19.06
575.266	19.09
575.462	19.18
575.658	19.24
575.854	19.24
576.051	19.23
576.247	19.23
576.443	19.2
576.639	19.19
576.835	19.19
577.032	19.18
577.228	19.2
577.424	19.28
577.62	19.33
577.816	19.4
578.012	19.43
578.208	19.46
578.404	19.49
578.6	19.52
578.796	19.53
578.993	19.52
579.189	19.49
579.384	19.46
579.58	19.47
579.776	19.44
579.972	19.44
580.168	19.39
580.364	19.37
580.56	19.37
580.756	19.39
580.952	19.4
581.148	19.41
581.343	19.41
581.539	19.42
581.735	19.45
581.931	19.51
582.127	19.5
582.322	19.5
582.518	19.5
582.714	19.45
582.909	19.4
583.105	19.34
583.301	19.24
583.496	19.24
583.692	19.21
583.888	19.24
584.083	19.35
584.279	19.41
584.474	19.41
584.67	19.47
584.866	19.5
585.061	19.55
585.257	19.52
585.452	19.42
585.648	19.42
585.843	19.45
586.039	19.43
586.234	19.37
586.429	19.32
586.625	19.33
586.82	19.32
587.015	19.28
587.211	19.3
587.406	19.33
587.601	19.39
587.797	19.41
587.992	19.43
588.187	19.47
588.383	19.5
588.578	19.47
588.773	19.44
588.968	19.49
589.163	19.53
589.359	19.52
589.554	19.55
589.749	19.54
589.944	19.6
590.139	19.67
590.334	19.61
590.529	19.67
590.724	19.69
590.919	19.74
591.114	19.77
591.309	19.8
591.504	19.81
591.699	19.88
591.894	19.86
592.089	19.93
592.284	19.9
592.479	19.94
592.674	19.92
592.869	19.95
593.064	20.06
593.259	20.06
593.454	20.09
593.648	20.2
593.843	20.24
594.038	20.31
594.233	20.38
594.428	20.4
594.622	20.47
594.817	20.55
595.012	20.6
595.206	20.69
595.401	20.72
595.596	20.81
595.79	20.84
595.985	20.95
596.18	21.04
596.374	21.1
596.569	21.17
596.763	21.28
596.958	21.29
597.153	21.34
597.347	21.38
597.542	21.35
597.736	21.4
597.931	21.47
598.125	21.59
598.319	21.65
598.514	21.78
598.708	21.87
598.903	22
599.097	22.09
599.291	22.18
599.486	22.18
599.68	22.23
599.874	22.27
600.069	22.3
600.263	22.3
600.457	22.31
600.651	22.33
600.846	22.37
601.04	22.43
601.234	22.43
601.428	22.46
601.622	22.5
601.817	22.57
602.011	22.63
602.205	22.63
602.399	22.61
602.593	22.64
602.787	22.67
602.981	22.64
603.175	22.6
603.369	22.58
603.563	22.62
603.757	22.65
603.951	22.61
604.145	22.57
604.339	22.59
604.533	22.57
604.727	22.5
604.921	22.46
605.115	22.4
605.309	22.43
605.502	22.44
605.696	22.45
605.89	22.48
606.084	22.44
606.278	22.4
606.471	22.36
606.665	22.28
606.859	22.21
607.053	22.14
607.246	22.09
607.44	22.11
607.634	22.04
607.827	22.04
608.021	22.01
608.214	21.95
608.408	21.89
608.602	21.81
608.795	21.67
608.989	21.66
609.182	21.63
609.376	21.57
609.569	21.52
609.763	21.53
609.956	21.42
610.15	21.42
610.343	21.35
610.537	21.24
610.73	21.15
610.923	21.12
611.117	20.97
611.31	20.97
611.504	20.89
611.697	20.89
611.89	20.8
612.083	20.77
612.277	20.68
612.47	20.63
612.663	20.56
612.856	20.44
613.05	20.34
613.243	20.38
613.436	20.28
613.629	20.23
613.822	20.16
614.015	20.1
614.209	20.11
614.402	20.05
614.595	19.91
614.788	19.83
614.981	19.74
615.174	19.7
615.367	19.65
615.56	19.54
615.753	19.42
615.946	19.39
616.139	19.4
616.332	19.34
616.525	19.34
616.718	19.28
616.911	19.29
617.103	19.28
617.296	19.22
617.489	19.17
617.682	19.14
617.875	19.05
618.067	18.95
618.26	18.87
618.453	18.81
618.646	18.77
618.838	18.74
619.031	18.73
619.224	18.68
619.417	18.71
619.609	18.68
619.802	18.7
619.994	18.63
620.187	18.59
620.38	18.54
620.572	18.54
620.765	18.47
620.957	18.42
621.15	18.39
621.342	18.39
621.535	18.37
621.727	18.35
621.92	18.31
622.112	18.33
622.305	18.28
622.497	18.22
622.69	18.14
622.882	18.12
623.074	18.11
623.267	18.05
623.459	18.03
623.651	18.02
623.844	18.03
624.036	18.09
624.228	18.05
624.42	18.03
624.613	18.02
624.805	17.99
624.997	17.97
625.189	17.95
625.381	17.91
625.574	17.89
625.766	17.87
625.958	17.93
626.15	17.92
626.342	17.92
626.534	17.87
626.726	17.87
626.918	17.83
627.11	17.8
627.302	17.74
627.494	17.73
627.686	17.69
627.878	17.68
628.07	17.61
628.262	17.58
628.454	17.52
628.646	17.45
628.838	17.37
629.029	17.29
629.221	17.26
629.413	17.25
629.605	17.21
629.797	17.22
629.989	17.23
630.18	17.2
630.372	17.24
630.564	17.24
630.755	17.19
630.947	17.15
631.139	17.06
631.33	17.03
631.522	16.97
631.714	16.91
631.905	16.85
632.097	16.86
632.289	16.81
632.48	16.79
632.672	16.73
632.863	16.71
633.055	16.68
633.246	16.68
633.438	16.64
633.629	16.66
633.821	16.69
634.012	16.69
634.203	16.75
634.395	16.81
634.586	16.8
634.777	16.82
634.969	16.8
635.16	16.79
635.351	16.76
635.543	16.69
635.734	16.62
635.925	16.67
636.117	16.66
636.308	16.64
636.499	16.57
636.69	16.69
636.881	16.73
637.073	16.74
637.264	16.69
637.455	16.68
637.646	16.68
637.837	16.71
638.028	16.64
638.219	16.62
638.41	16.61
638.601	16.6
638.792	16.54
638.983	16.53
639.174	16.56
639.365	16.51
639.556	16.5
639.747	16.52
639.938	16.51
640.129	16.56
640.32	16.57
640.511	16.56
640.701	16.56
640.892	16.56
641.083	16.54
641.274	16.52
641.465	16.46
641.655	16.45
641.846	16.4
642.037	16.38
642.228	16.32
642.418	16.24
642.609	16.2
642.8	16.19
642.99	16.15
643.181	16.17
643.372	16.16
643.562	16.16
643.753	16.19
643.943	16.14
644.134	16.14
644.324	16.11
644.515	16.06
644.705	16.04
644.896	15.98
645.086	15.93
645.277	16.02
645.467	16.01
645.658	15.96
645.848	15.96
646.038	15.96
646.229	15.95
646.419	15.98
646.61	15.87
646.8	15.8
646.99	15.78
647.18	15.79
647.371	15.74
647.561	15.72
647.751	15.63
647.941	15.64
648.132	15.69
648.322	15.74
648.512	15.74
648.702	15.73
648.892	15.79
649.082	15.79
649.272	15.74
649.462	15.68
649.653	15.66
649.843	15.56
650.033	15.52
650.223	15.44
650.413	15.46
650.603	15.44
650.793	15.37
650.983	15.3
651.172	15.29
651.362	15.25
651.552	15.19
651.742	15.1
651.932	15.07
652.122	15.08
652.312	14.93
652.502	14.88
652.691	14.83
652.881	14.79
653.071	14.68
653.261	14.59
653.45	14.49
653.64	14.52
653.83	14.4
654.019	14.27
654.209	14.18
654.399	14.12
654.588	14.02
654.778	13.96
654.968	13.8
655.157	13.68
655.347	13.55
655.536	13.42
655.726	13.32
655.915	13.21
656.105	13.07
656.294	12.98
656.484	12.9
656.673	12.82
656.863	12.7
657.052	12.52
657.241	12.37
657.431	12.22
657.62	12.05
657.809	11.9
657.999	11.71
658.188	11.64
658.377	11.63
658.567	11.51
658.756	11.4
658.945	11.34
659.134	11.16
659.324	11.08
659.513	10.86
659.702	10.6
659.891	10.48
660.08	10.31
660.269	10.18
660.458	10.14
660.648	9.99
660.837	9.91
661.026	9.9
661.215	9.81
661.404	9.73
661.593	9.6
661.782	9.46
661.971	9.39
662.16	9.28
662.349	9.11
662.538	9
662.726	8.88
662.915	8.8
663.104	8.72
663.293	8.61
663.482	8.53
663.671	8.44
663.86	8.36
664.048	8.27
664.237	8.17
664.426	8.1
664.615	8.07
664.803	7.96
664.992	7.93
665.181	7.84
665.369	7.76
665.558	7.72
665.747	7.68
665.935	7.63
666.124	7.64
666.312	7.55
666.501	7.49
666.69	7.52
666.878	7.48
667.067	7.47
667.255	7.46
667.444	7.42
667.632	7.39
667.82	7.36
668.009	7.37
668.197	7.36
668.386	7.23
668.574	7.19
668.762	7.14
668.951	7.14
669.139	7.15
669.327	7.11
669.516	7.08
669.704	7.14
669.892	7.1
670.08	7.08
670.269	7.09
670.457	7.08
670.645	7.06
670.833	7.07
671.021	7.06
671.21	7.11
671.398	7.11
671.586	7.13
671.774	7.12
671.962	7.11
672.15	7.08
672.338	7.16
672.526	7.16
672.714	7.18
672.902	7.22
673.09	7.31
673.278	7.33
673.466	7.43
673.654	7.36
673.842	7.4
674.03	7.49
674.218	7.51
674.405	7.51
674.593	7.58
674.781	7.58
674.969	7.64
675.157	7.69
675.344	7.71
675.532	7.75
675.72	7.8
675.908	7.83
676.095	7.94
676.283	8.01
676.471	8.02
676.658	8.11
676.846	8.19
677.033	8.24
677.221	8.35
677.409	8.36
677.596	8.47
677.784	8.58
677.971	8.62
678.159	8.69
678.346	8.78
678.534	8.82
678.721	8.87
678.909	8.86
679.096	8.89
679.283	8.97
679.471	9.03
679.658	9.1
679.846	9.18
680.033	9.32
680.22	9.39
680.408	9.48
680.595	9.49
680.782	9.58
680.969	9.61
681.157	9.65
681.344	9.76
681.531	9.87
681.718	10.03
681.905	10.19
682.093	10.33
682.28	10.55
682.467	10.65
682.654	10.67
682.841	10.86
683.028	11.01
683.215	11.16
683.402	11.23
683.589	11.3
683.776	11.54
683.963	11.7
684.15	11.75
684.337	11.84
684.524	12.04
684.711	12.2
684.898	12.4
685.085	12.62
685.271	12.87
685.458	13.12
685.645	13.41
685.832	13.64
686.019	13.95
686.205	14.2
686.392	14.46
686.579	14.7
686.766	15
686.952	15.29
687.139	15.53
687.326	15.83
687.512	16.17
687.699	16.45
687.886	16.74
688.072	17.17
688.259	17.46
688.445	17.86
688.632	18.34
688.818	18.66
689.005	19.25
689.191	19.83
689.378	20.28
689.564	20.73
689.751	21.36
689.937	21.74
690.124	22.29
690.31	22.69
690.496	23.24
690.683	23.77
690.869	24.35
691.055	24.85
691.242	25.33
691.428	25.94
691.614	26.57
691.8	27.05
691.987	27.65
692.173	28.31
692.359	28.85
692.545	29.57
692.731	30.24
692.918	30.81
693.104	31.41
693.29	32.15
693.476	32.68
693.662	33.35
693.848	33.96
694.034	34.42
694.22	34.97
694.406	35.67
694.592	36.18
694.778	36.88
694.964	37.51
695.15	38.26
695.336	39.04
695.522	39.66
695.708	40.35
695.894	41.08
696.08	41.7
696.265	42.29
696.451	43.01
696.637	43.61
696.823	44.28
697.009	44.86
697.194	45.45
697.38	46.06
697.566	46.57
697.751	47.07
697.937	47.58
698.123	48.25
698.308	48.75
698.494	49.28
698.68	49.9
698.865	50.6
699.051	51.15
699.236	51.74
699.422	52.26
699.607	52.75
699.793	53.03
699.978	53.44
700.164	54.02
700.349	54.4
700.535	54.9
700.72	55.4
700.906	55.95
701.091	56.51
701.276	57.05
701.462	57.27
701.647	57.76
701.832	58.1
702.018	58.29
702.203	58.65
702.388	59.09
702.573	59.59
702.759	60.15
702.944	60.51
703.129	60.91
703.314	61.54
703.499	61.95
703.684	62.46
703.87	62.83
704.055	63.06
704.24	63.5
704.425	64.1
704.61	64.23
704.795	64.6
704.98	64.87
705.165	65.06
705.35	65.38
705.535	65.72
705.72	65.93
705.905	66.27
706.09	66.51
706.275	66.66
706.459	66.98
706.644	67.11
706.829	67.26
707.014	67.41
707.199	67.79
707.384	67.99
707.568	68.37
707.753	68.6
707.938	68.93
708.123	69.09
708.307	69.52
708.492	69.6
708.677	69.93
708.861	69.91
709.046	70.04
709.231	70.42
709.415	70.63
709.6	70.53
709.784	70.78
709.969	70.98
710.153	71.48
710.338	71.72
710.522	71.6
710.707	71.55
710.891	71.69
711.076	71.76
711.26	72.02
711.445	72.13
711.629	72.23
711.813	72.53
711.998	72.69
712.182	72.9
712.366	73.2
712.551	73.25
712.735	73.1
712.919	73.34
713.103	73.54
713.288	73.98
713.472	73.99
713.656	74.01
713.84	73.88
714.024	74.32
714.208	74.33
714.393	74.63
714.577	74.64
714.761	74.92
714.945	75.04
715.129	75.37
715.313	75.39
715.497	75.65
715.681	75.66
715.865	75.68
716.049	75.93
716.233	76.07
716.417	76.28
716.601	76.18
716.785	76.29
716.968	76.05
717.152	76.39
717.336	76.4
717.52	76.42
717.704	76.33
717.888	76.48
718.071	76.5
718.255	76.78
718.439	76.45
718.622	76.4
718.806	76.45
718.99	76.73
719.174	76.93
719.357	77.03
719.541	77.3
719.724	77.89
719.908	78.05
720.092	78.11
720.275	78.22
720.459	78.27
720.642	78.25
720.826	77.94
721.009	77.74
721.193	77.6
721.376	77.61
721.559	77.43
721.743	77.55
721.926	77.34
722.11	77.56
722.293	77.25
722.476	77.33
722.66	77.46
722.843	77.69
723.026	77.7
723.21	77.95
723.393	78.25
723.576	78.46
723.759	78.9
723.942	79.05
724.126	79
724.309	79.06
724.492	79.25
724.675	78.98
724.858	79.48
725.041	79.32
725.224	79.44
725.407	79.2
725.59	78.91
725.774	78.94
725.957	79.32
726.14	79.23
726.322	79.11
726.505	79.52
726.688	79.76
726.871	80.16
727.054	80.45
727.237	80.05
727.42	80.54
727.603	80.85
727.786	80.65
727.968	80.95
728.151	81.22
728.334	80.88
728.517	81.35
728.699	81.31
728.882	81.58
729.065	81.56
729.248	81.55
729.43	81.61
729.613	82.03
729.796	81.92
729.978	81.68
730.161	81.69
730.343	81.72
730.526	81.73
730.708	81.98
730.891	81.95
731.073	82.15
731.256	82.55
731.438	82.75
731.621	83.41
731.803	83.86
731.986	83.65
732.168	83.79
732.35	84
732.533	83.95
732.715	84.12
732.898	83.6
733.08	83.68
733.262	83.54
733.444	83.61
733.627	83.5
733.809	83.61
733.991	83.53
734.173	83.56
734.355	83.7
734.538	83.61
734.72	84.2
734.902	84.4
735.084	84.31
735.266	84.03
735.448	84.37
735.63	84.05
735.812	84.39
735.994	83.58
736.176	83.78
736.358	84.01
736.54	84.29
736.722	84.05
736.904	84.39
737.086	84.77
737.268	85.18
737.45	85.07
737.632	85.05
737.814	84.85
737.995	85.19
738.177	85.26
738.359	84.97
738.541	84.57
738.723	84.38
738.904	84.18
739.086	84.79
739.268	85.02
739.449	85.08
739.631	85.26
739.813	85.54
739.994	86.02
740.176	85.87
740.358	85.97
740.539	85.56
740.721	85.41
740.902	84.92
741.084	85.14
741.265	85.11
741.447	85.56
741.628	85.56
741.81	85.87
741.991	85.69
742.172	86.04
742.354	86.01
742.535	86.21
742.717	86.07
742.898	86.23
743.079	86.49
743.261	87.13
743.442	87.28
743.623	87
743.804	87.16
743.986	86.89
744.167	86.3
744.348	86.1
744.529	85.62
744.71	85.57
744.891	85.93
745.073	85.37
745.254	85.83
745.435	85.35
745.616	84.98
745.797	84.93
745.978	85.08
746.159	84.62
746.34	85.15
746.521	84.78
746.702	84.7
746.883	84.95
747.064	84.77
747.245	85.37
747.426	85.72
747.606	85.35
747.787	86.04
747.968	86.59
748.149	86.92
748.33	87.61
748.51	86.65
748.691	86.59
748.872	86.6
749.053	86.21
749.233	86.29
749.414	86.15
749.595	85.25
749.775	85.42
749.956	84.7
750.137	84.02
750.317	83.57
750.498	83.62
750.678	83.56
750.859	83.74
751.04	83.76
751.22	83.97
751.4	84.46
751.581	84.52
751.761	85.11
751.942	85.3
752.122	85.38
752.303	85.59
752.483	86.57
752.663	86.43
752.844	86.06
753.024	85.52
753.204	84.8
753.385	84.42
753.565	84.38
753.745	84.06
753.925	84.65
754.106	85.2
754.286	85.1
754.466	85.6
754.646	85.75
754.826	85.87
755.006	85.61
755.187	85.3
755.367	84.94
755.547	85.07
755.727	84.13
755.907	84.58
756.087	84.38
756.267	84.13
756.447	83.6
756.627	83.98
756.807	83.8
756.987	85.03
757.167	85.44
757.346	84.29
757.526	84.58
757.706	85.08
757.886	84.98
758.066	84.8
758.246	84.56
758.425	84.43
758.605	85.34
758.785	85.25
758.965	83.99
759.144	84.08
759.324	84.51
759.504	83.86
759.683	82.78
759.863	82.76
760.043	82.75
760.222	83.13
760.402	83.13
760.581	82.29
760.761	82.06
760.94	81.63
761.12	81.32
761.299	81.16
761.479	81.44
761.658	80.68
761.838	80.94
762.017	81.19
762.197	82.62
762.376	82.54
762.555	83.15
762.735	82.39
762.914	82.85
763.093	82.74
763.273	82.46
763.452	81.29
763.631	81.18
763.81	81.05
763.99	82.25
764.169	82.21
764.348	82.59
764.527	82.76
764.706	83.49
764.885	84.45
765.064	83.27
765.243	82.84
765.423	83.63
765.602	82.44
765.781	82.47
765.96	82.06
766.139	81.35
766.318	81.65
766.497	81.66
766.676	81.86
766.854	82.19
767.033	81.49
767.212	81.2
767.391	81.44
767.57	82.09
767.749	82.58
767.928	81.3
768.106	82.32
768.285	83.22
768.464	83.94
768.643	84.06
768.821	84.42
769	83.9
769.179	83.06
769.357	81.37
769.536	81.06
769.715	79.9
769.893	78.81
770.072	77.41
770.25	76.87
770.429	77.83
770.607	79.17
770.786	79.33
770.964	79.69
771.143	80.37
771.321	80.36
771.5	80.27
771.678	79.98
771.857	79.66
772.035	79.49
772.213	79.52
772.392	79.38
772.57	78.89
772.748	78.32
772.927	77.47
773.105	78.11
773.283	77.39
773.461	76.97
773.64	76.27
773.818	77.08
773.996	77.52
774.174	78.51
774.352	77.91
774.531	77.55
774.709	78.85
774.887	79.63
775.065	78.9
775.243	79.44
775.421	79.49
775.599	78.1
775.777	78.62
775.955	76.66
776.133	75.06
776.311	74.42
776.489	74.61
776.667	74.33
776.844	74.7
777.022	73.2
777.2	74.05
777.378	75.93
777.556	77.01
777.734	76.86
777.911	77.69
778.089	78.63
778.267	79.77
778.445	79.05
778.622	76.98
778.8	77.11
778.978	76.73
779.155	75.28
779.333	73
779.511	72.45
779.688	72.64
779.866	73.8
780.043	74.51
780.221	74.43
780.398	76.32
780.576	76.44
780.753	76.01
780.931	76.88
781.108	77.31
781.286	75.78
781.463	76.07
781.64	74.26
781.818	74.83
781.995	76.54
782.172	76.45
782.35	75.34
782.527	76.13
782.704	75.65
782.882	75.85
783.059	75.36
783.236	75
783.413	74.32
783.59	73.37
783.768	72.99
783.945	73.06
784.122	72.27
784.299	74.04
784.476	74.16
784.653	73.34
784.83	73.7
785.007	74.5
785.184	73.97
785.361	75.41
785.538	74.38
785.715	74.46
785.892	75.2
786.069	75.34
786.246	73.67
786.423	74.99
786.6	75.55
786.776	76.09
786.953	74.34
787.13	75.71
787.307	77.12
787.484	78.84
787.66	76.23
787.837	75.93
788.014	74.86
788.191	75.75
788.367	74.53
788.544	72.68
788.721	72.48
788.897	75.91
789.074	73.59
789.25	75.63
789.427	77.02
789.603	79.48
789.78	81.87
789.956	81
790.133	78.37
790.309	79.74
790.486	79.39
790.662	79.19
790.839	77.84
791.015	77.81
791.192	77.96
791.368	81.14
791.544	81.73
791.721	79.96
791.897	80.39
792.073	78.23
792.249	79
792.426	79.62
792.602	76.79
792.778	76.45
792.954	75.45
793.13	74.53
793.307	72.53
793.483	70.63
793.659	70.2
793.835	70.38
794.011	67.68
794.187	68.29
794.363	67.69
794.539	69.03
794.715	69.43
794.891	66.05
795.067	66.19
795.243	67.52
795.419	69.75
795.595	69.76
795.771	72.88
795.947	71.76
796.122	74.76
796.298	75.46
796.474	76.88
796.65	75.14
796.826	77.14
797.001	73.92
797.177	76.26
797.353	76.52
797.529	74.45
797.704	72.73
797.88	70.03
798.056	68.9
798.231	70.26
798.407	67.19
798.582	67.16
798.758	72.16
798.934	73.91
799.109	75.04
799.285	77.38
799.46	75.98
799.636	78.69
799.811	78.21
799.986	77.36
800.162	75.96
800.337	77.41
800.513	74.27
800.688	76.21
800.863	76.56
801.039	74.26
801.214	69.28
801.389	69.09
801.565	74.95
801.74	73.15
801.915	72.23
802.09	68.83
802.265	71
802.441	69.81
802.616	70.17
802.791	67.68
802.966	69.61
803.141	64.64
803.316	67.64
803.491	64.06
803.666	66.7
803.841	68.52
804.016	64.52
804.191	65.23
804.366	71.29
804.541	67.52
804.716	66.93
804.891	69.56
805.066	67.86
805.241	67.94
805.416	64.24
805.591	64.93
805.765	69.15
805.94	74.77
806.115	66.84
806.29	67.67
806.464	67.15
806.639	68.77
806.814	63.09
806.989	60.72
807.163	58.09
807.338	64.68
807.512	59.64
807.687	57.05
807.862	54.55
808.036	55.52
808.211	55.51
808.385	53.02
808.56	56.83
808.734	59.02
808.909	60.73
809.083	64.13
809.258	70.05
809.432	65.88
809.606	66.19
809.781	57.59
809.955	63.7
810.13	69.1
810.304	69.4
810.478	70.03
810.652	76.76
810.827	78.17
811.001	82.79
811.175	77.24
811.349	72.2
811.524	71.94
811.698	70.24
811.872	72.76
812.046	68.6
812.22	64.07
812.394	64.7
812.568	72.6
812.742	71.39
812.916	68.6
813.09	63.94
813.264	66.1
813.438	77.18
813.612	77.56
813.786	74.19
813.96	76.97
814.134	80.08
814.308	79.15
814.482	80.94
814.656	77.22
814.83	79.33
815.003	75.57
815.177	73.03
815.351	73.14
815.525	69.36
815.698	67.9
815.872	61.15
816.046	57.56
816.219	59.11
816.393	54.45
816.567	47.55
816.74	52.03
816.914	57.83
817.088	57.38
817.261	59.84
817.435	55.3
817.608	60.1
817.782	70.94
817.955	66.43
818.129	62.21
818.302	67.58
818.475	63.94
818.649	63.46
818.822	63.81
818.996	58.52
819.169	62.37
819.342	58.28
819.516	57.72
819.689	57.61
819.862	58.01
820.035	55.97
820.209	57.73
820.382	56.67
820.555	60.32
820.728	55.75
820.901	55.44
821.075	63.76
821.248	62.2
821.421	58.04
821.594	58.6
821.767	57.67
821.94	55.35
822.113	61.33
822.286	53.64
822.459	64.51
822.632	69.05
822.805	64.64
822.978	61.18
823.151	66.89
823.324	57.63
823.496	56.43
823.669	50.74
823.842	49.96
824.015	49.93
824.188	55.68
824.361	55.92
824.533	57.3
824.706	74.76
824.879	76.59
825.051	82.31
825.224	81.67
825.397	80.15
825.569	84.08
825.742	83.42
825.915	70.78
826.087	68.41
826.26	66.91
826.432	69.86
826.605	63.03
826.777	58.41
826.95	52.75
827.122	51.43
827.295	55.6
827.467	43.85
827.64	39.77
827.812	43.57
827.984	41.45
828.157	48.5
828.329	47.97
828.501	43.7
828.674	41.17
828.846	43.05
829.018	34.94
829.19	33.69
829.363	33.97
829.535	30.82
829.707	25.43
829.879	24.85
830.051	29.11
830.223	35.35
830.395	32.55
830.568	40.29
830.74	46.8
830.912	52.58
831.084	57.81
831.256	51.74
831.428	51.34
831.6	54.01
831.772	44.71
831.943	41.34
832.115	43.65
832.287	38.33
832.459	43.33
832.631	47.44
832.803	53.03
832.975	55.37
833.146	56.61
833.318	52.8
833.49	64.36
833.662	63.09
833.833	64.58
834.005	61.78
834.177	65.81
834.348	65.85
834.52	65.22
834.692	62.34
834.863	54.23
835.035	42.83
835.206	40.33
835.378	26.06
835.549	27.96
835.721	27.69
835.892	27.8
836.064	36.42
836.235	48.51
836.407	46.44
836.578	55.92
836.749	53.69
836.921	60.61
837.092	67.09
837.264	61.97
837.435	58.01
837.606	64.46
837.777	53.42
837.949	44.17
838.12	39.79
838.291	38.76
838.462	44.33
838.633	47.2
838.805	43.54
838.976	43.72
839.147	52.03
839.318	49.23
839.489	46.23
839.66	46.37
839.831	29.24
840.002	21.7
840.173	26.5
840.344	33.59
840.515	34.79
840.686	37.48
840.857	33.32
841.028	45.78
841.199	60.14
841.369	47.58
841.54	44.16
841.711	57.67
841.882	52.31
842.053	44.35
842.223	37.84
842.394	24.06
842.565	53.77
842.736	48.59
842.906	40.5
843.077	42.81
843.248	49.69
843.418	59.86
843.589	82.1
843.759	72
843.93	72.37
844.101	68.38
844.271	75.82
844.442	81.58
844.612	71.21
844.783	38.25
844.953	35.68
845.123	57.22
845.294	55.5
845.464	61.97
845.635	61.13
845.805	68.21
845.975	61.23
846.146	55.59
846.316	40.75
846.486	51.41
846.656	46.59
846.827	38.14
846.997	39.9
847.167	51.6
847.337	60.3
847.507	58.83
847.677	61.93
847.848	64.11
848.018	68.3
848.188	56.98
848.358	76.73
848.528	83.57
848.698	62.14
848.868	49.81
849.038	39.35
849.208	48.24
849.378	45.23
849.548	33.98
849.718	15.55
849.887	25.29
850.057	32.33
850.227	19.37
850.397	7.97
850.567	25.48
850.737	29.25
850.906	30.57
851.076	32.45
851.246	32.73
851.415	45.61
851.585	50.92
851.755	46.28
851.924	49.38
852.094	57.4
852.264	59.91
852.433	67.96
852.603	84.03
852.772	73.13
852.942	64.83
853.111	64.64
853.281	57.08
853.45	54.68
853.62	41.97
853.789	32.66
853.959	37.21
854.128	22.68
854.297	15.16
854.467	25.06
854.636	24.2
854.805	33.05
854.975	32.08
855.144	47.5
855.313	62.35
855.482	60.89
855.652	63.13
855.821	69.08
855.99	79.14
856.159	73.5
856.328	58.25
856.497	59.97
856.667	70.23
856.836	55.69
857.005	44.08
857.174	52.09
857.343	59.89
857.512	47.8
857.681	32.7
857.85	18.38
858.019	37.73
858.188	46.6
858.356	19.09
858.525	23.27
858.694	34.49
858.863	40.1
859.032	38.5
859.201	22.89
859.369	40.75
859.538	36.33
859.707	38.4
859.876	47.52
860.044	58.96
860.213	51.21
860.382	54.39
860.55	68.46
860.719	81.16
860.888	72.7
861.056	63.63
861.225	71.7
861.393	88
861.562	73.8
861.73	40.79
861.899	32.91
862.067	45.44
862.236	39.17
862.404	26.73
862.572	29
862.741	28.27
862.909	30.78
863.078	24.99
863.246	14.7
863.414	27.85
863.582	27.21
863.751	27.56
863.919	49.33
864.087	53.84
864.255	60.26
864.424	68.97
864.592	66.39
864.76	68.5
864.928	53.6
865.096	30.46
865.264	32.41
865.432	20.8
865.6	-0.63
865.768	-8.02
865.936	-10.92
866.104	-10.67
866.272	12.9
866.44	-20.26
866.608	7.56
866.776	50.26
866.944	46.24
867.112	11.04
867.28	5.26
867.448	27.23
867.615	52.55
867.783	30.33
867.951	1.62
868.119	40.83
868.286	38.77
868.454	42.25
868.622	30.2
868.789	30.41
868.957	43.28
869.125	49
869.292	36.73
869.46	37.97
869.627	22.36
869.795	20.24
869.963	10.53
870.13	6.26
870.298	-13.61
870.465	-39.6
870.632	-43.23
870.8	-29.28
870.967	-19.66
871.135	-14.18
871.302	-14.39
871.469	-8.05
871.637	6.01
871.804	15.08
871.971	21.72
872.139	31.16
872.306	28.54
872.473	19.78
872.64	29.39
872.807	38.88
872.975	53.93
873.142	51.93
873.309	79.54
873.476	133.65
873.643	189.46
873.81	145.04
873.977	83.34
874.144	79.88
874.311	45.23
874.478	-44.89
874.645	-32.81
874.812	9.48
874.979	-3.9
875.146	-24.56
875.313	-17.26
875.48	78.15
875.647	133.43
875.813	88.35
875.98	30.11
876.147	64.77
876.314	61.35
876.481	42.95
876.647	42.11
876.814	52.72
876.981	45.62
877.147	40.4
877.314	25.15
877.481	47.43
877.647	53.07
877.814	24.45
877.98	36.92
878.147	63.71
878.314	80.97
878.48	83.34
878.647	90.28
878.813	87.19
878.979	119.5
879.146	70.24
879.312	80.34
879.479	89.64
879.645	69.57
879.811	56.79
879.978	60.56
880.144	75.64
880.31	74.52
880.477	49.63
880.643	50.57
880.809	118.83
880.975	62.17
881.142	66.75
881.308	76.81
881.474	121.55
881.64	84.64
881.806	39.79
881.972	68.93
882.138	84.18
882.304	50.74
882.47	-8.02
882.636	-58.91
882.802	-94.91
882.968	-153.64
883.134	-362.5
883.3	-143.4
883.466	-37.78
883.632	-23.57
883.798	-2.46
883.964	24.98
884.129	59.88
884.295	33.94
884.461	34.28
884.627	25.24
884.793	48.24
884.958	33.86
885.124	25.43
885.29	3.53
885.455	20.1
885.621	13.08
885.787	10.18
885.952	-3.23
886.118	21.75
886.283	34.54
886.449	20.43
886.614	41.95
886.78	52.83
886.945	38.35
887.111	48.02
887.276	16.28
887.442	11.57
887.607	0.47
887.773	-15.45
887.938	-32.7
888.103	17.34
888.269	37.74
888.434	43.35
888.599	45.03
888.764	55.32
888.93	62.18
889.095	43.83
889.26	62.22
889.425	63.99
889.59	57.43
889.756	30.66
889.921	28.97
890.086	51.86
890.251	53.23
890.416	-20.65
890.581	-53.38
890.746	-60.82
890.911	-78.49
891.076	-142.41
891.241	-157.07
891.406	-22.35
891.571	-0.48
891.736	8.24
891.901	30.69
892.065	46.22
892.23	49.95
892.395	11.71
892.56	14.99
892.725	27.33
892.889	40
893.054	31.88
893.219	44.55
893.384	70.85
893.548	289.17
893.713	-88.86
893.878	-5.43
