Data from Ofra_PS_T2_2A_8HS23_Reflection_3.txt Node
Date: Wed Jul 21 17:20:38 EDT 2021
User: Adam
Spectrometer: FLMT01687
Trigger mode: 0
Integration Time (sec): 1.100000E0
Scans to average: 2
Electric dark correction enabled: true
Nonlinearity correction enabled: false
Boxcar width: 2
XAxis mode: Wavelengths
Number of Pixels in Spectrum: 3648
>>>>>Begin Spectral Data<<<<<
179.494	570.6
179.716	664.94
179.937	628.88
180.158	589.31
180.38	933.28
180.601	347.65
180.823	42.01
181.044	-104.15
181.265	156.07
181.486	13.47
181.708	96.13
181.929	1302.55
182.15	-548.24
182.372	60.05
182.593	-52
182.814	-24.66
183.035	33.52
183.257	13.17
183.478	-64.95
183.699	-9.73
183.92	18.83
184.141	38.13
184.363	7.89
184.584	56.11
184.805	34.57
185.026	57.38
185.247	54.08
185.468	44.08
185.689	40.81
185.91	55.44
186.132	56.59
186.353	47.34
186.574	85.9
186.795	62.65
187.016	24.46
187.237	-8.9
187.458	-29.61
187.679	-33.28
187.9	-11.11
188.121	5.63
188.342	70.64
188.563	77.43
188.784	113
189.005	125.16
189.226	125.71
189.447	59.07
189.667	-78.28
189.888	-318.84
190.109	-1276.95
190.33	-748.55
190.551	-1313.5
190.772	-292.55
190.993	-271.9
191.214	-252.67
191.434	-151.26
191.655	-44.45
191.876	-72.87
192.097	-104.76
192.318	-92.67
192.538	-127.35
192.759	-115.93
192.98	-40.47
193.201	-3.33
193.421	-6.58
193.642	11.14
193.863	26.7
194.083	-7.95
194.304	-6.95
194.525	-4.83
194.745	-26.57
194.966	-65.16
195.187	-50.11
195.407	-95.31
195.628	-207.72
195.848	-185.59
196.069	-186.97
196.29	-114.11
196.51	-104.37
196.731	-81.99
196.951	-85.05
197.172	-81.33
197.392	-125.61
197.613	-111.37
197.833	-129.74
198.054	-114.28
198.274	-75.84
198.495	-86.35
198.715	-59.03
198.936	-55.35
199.156	-50.91
199.377	-125.06
199.597	-106.82
199.817	-115.56
200.038	-44.7
200.258	-82.15
200.479	-3.92
200.699	-48.63
200.919	23.29
201.14	-34.9
201.36	-49.63
201.58	-9.12
201.801	38.25
202.021	-5.84
202.241	9.48
202.461	6.22
202.682	-70.21
202.902	-159.87
203.122	-69.59
203.342	-73.87
203.563	-23.89
203.783	-6.11
204.003	-43.17
204.223	-48.53
204.443	29.25
204.663	16.39
204.884	58.02
205.104	97.63
205.324	109.03
205.544	90.36
205.764	73.5
205.984	49.67
206.204	47.17
206.424	43.04
206.644	13.45
206.864	21.46
207.084	-1.22
207.304	-23.41
207.525	-171.33
207.745	-97.8
207.964	-34.77
208.184	-67.28
208.404	-91.56
208.624	-91.59
208.844	-72.29
209.064	-362.73
209.284	-408.61
209.504	-163.65
209.724	-50.95
209.944	-41.22
210.164	6.89
210.384	29.63
210.604	19.25
210.823	-16.66
211.043	-39.21
211.263	-28.75
211.483	-36.07
211.703	-88.47
211.922	-45.85
212.142	17.05
212.362	35.65
212.582	30.72
212.801	45.53
213.021	13.1
213.241	-2.07
213.461	-64.67
213.68	-87.48
213.9	-72.95
214.12	-45.22
214.339	-92.5
214.559	-54.27
214.779	-11.51
214.998	-8.92
215.218	-48.94
215.438	-32.8
215.657	-24.61
215.877	-14.19
216.096	4.9
216.316	5.03
216.535	-6.5
216.755	-21.78
216.974	-140.97
217.194	-192.98
217.413	-153.77
217.633	-132.6
217.852	-198.51
218.072	-73.51
218.291	-31.56
218.511	5.44
218.73	-23.53
218.95	-20.32
219.169	-30.12
219.389	-72.71
219.608	-55.24
219.827	-34.4
220.047	-22.89
220.266	-2.87
220.485	14.06
220.705	30.71
220.924	11.47
221.143	37.38
221.363	22.59
221.582	28.29
221.801	22.41
222.021	32.85
222.24	-30.9
222.459	16.65
222.678	14.29
222.897	-72.51
223.117	-116.91
223.336	-69.66
223.555	-40.82
223.774	-7.39
223.993	33.08
224.213	107.39
224.432	78.34
224.651	83.57
224.87	45.29
225.089	50.76
225.308	23.35
225.527	46.57
225.746	41.77
225.965	40.34
226.184	30.23
226.404	28.32
226.623	-12.77
226.842	-16.18
227.061	9.58
227.28	5.13
227.499	-11.58
227.718	16.42
227.936	14.36
228.155	5.49
228.374	-0.6
228.593	23.41
228.812	23.6
229.031	10.08
229.25	-24.12
229.469	-4.25
229.688	-8.94
229.907	12.62
230.125	26.81
230.344	35.94
230.563	35.54
230.782	51.73
231.001	-23.98
231.22	-16.04
231.438	16.07
231.657	20.92
231.876	-2
232.095	55.14
232.313	51.69
232.532	26.71
232.751	-24.72
232.969	-24.35
233.188	-165.15
233.407	-37.94
233.625	-24.62
233.844	-20.27
234.063	-25.91
234.281	12.74
234.5	-25.77
234.719	-10.92
234.937	15.6
235.156	22.11
235.374	31.75
235.593	37.78
235.811	9.47
236.03	-7.46
236.249	-32.86
236.467	-46.06
236.686	-13.41
236.904	17.69
237.123	-6.18
237.341	3.26
237.559	0.03
237.778	-27.34
237.996	-67.74
238.215	-10.07
238.433	-5.97
238.652	-22.72
238.87	-28.43
239.088	-12.1
239.307	-15.05
239.525	-33.92
239.743	-44.66
239.962	-26.06
240.18	-59.35
240.398	-124.69
240.617	-120.66
240.835	-110.24
241.053	-102.31
241.271	-25.85
241.49	24.85
241.708	-0.54
241.926	12.8
242.144	18.17
242.363	-46.96
242.581	-89.33
242.799	-36.99
243.017	-8.17
243.235	-18.5
243.453	-7.94
243.672	1.63
243.89	3.09
244.108	-8.27
244.326	11.5
244.544	15.37
244.762	9.14
244.98	25.93
245.198	34.1
245.416	12.43
245.634	6.72
245.852	8.22
246.07	-8.27
246.288	-27.47
246.506	-58.11
246.724	-21.28
246.942	-18.4
247.16	21.26
247.378	34.75
247.596	61.55
247.814	43.48
248.032	17.29
248.25	-6.03
248.468	0.04
248.685	-1.62
248.903	36.87
249.121	48.21
249.339	25.19
249.557	13.21
249.775	10.01
249.992	-76.24
250.21	-78.48
250.428	-59
250.646	-79.67
250.863	-94.94
251.081	-39.81
251.299	-27.64
251.517	-14.27
251.734	-4.52
251.952	-14.03
252.17	-11.13
252.387	-4.91
252.605	-11.87
252.823	-7.39
253.04	21.61
253.258	22.74
253.475	14.51
253.693	42.79
253.911	45.9
254.128	34.81
254.346	30.5
254.563	7.02
254.781	-25.38
254.998	-62.34
255.216	-75.66
255.433	-74.17
255.651	-21.74
255.868	19.86
256.086	53.09
256.303	35.03
256.521	41.16
256.738	17.22
256.956	-13.92
257.173	-26.47
257.39	-10.51
257.608	-28.9
257.825	50.32
258.043	84.54
258.26	72.68
258.477	75.47
258.695	70.46
258.912	-20.23
259.129	-15.2
259.346	-45.22
259.564	-75.85
259.781	-89.06
259.998	-17.84
260.216	7.63
260.433	38.6
260.65	41.76
260.867	54.99
261.084	22.15
261.302	12.82
261.519	-15.29
261.736	-34.59
261.953	-53.12
262.17	-10.99
262.387	-66.13
262.604	-83.21
262.822	-84.32
263.039	-61.84
263.256	-93.73
263.473	-37.12
263.69	-7.79
263.907	21.65
264.124	40.39
264.341	46.16
264.558	23.19
264.775	33.94
264.992	29.75
265.209	17.28
265.426	28.98
265.643	40.32
265.86	42.64
266.077	42.11
266.294	30.95
266.51	-19.22
266.727	-49.74
266.944	-35.92
267.161	-46.67
267.378	-37.7
267.595	2.86
267.812	-2.48
268.028	-18.81
268.245	15.06
268.462	-4.06
268.679	-18.34
268.896	30.8
269.112	23.72
269.329	2.2
269.546	-3.06
269.763	-6.97
269.979	-29.35
270.196	-34.05
270.413	-48.01
270.629	-65.61
270.846	-77.05
271.063	-66.59
271.279	-55.17
271.496	-57.04
271.712	-21.19
271.929	14.29
272.146	-0.73
272.362	-19.3
272.579	25.52
272.795	35.98
273.012	22.58
273.228	28.58
273.445	20.78
273.661	-19.71
273.878	-55.51
274.094	-44.47
274.311	-74.05
274.527	-17.69
274.744	-6.04
274.96	-3.93
275.177	4.17
275.393	25.01
275.609	32.1
275.826	51.34
276.042	51.78
276.259	27.71
276.475	36.96
276.691	27.92
276.908	-2.46
277.124	-0.11
277.34	9.15
277.557	-6.81
277.773	-12.76
277.989	3.08
278.205	0.21
278.422	25.42
278.638	22.58
278.854	46.99
279.07	54.67
279.286	53.27
279.503	14.82
279.719	6.88
279.935	-25.46
280.151	-42.27
280.367	-32.19
280.583	-38.54
280.799	-30.21
281.016	-60.16
281.232	-19.91
281.448	-19.64
281.664	-3.91
281.88	-28.67
282.096	22.77
282.312	32.59
282.528	47.88
282.744	52.69
282.96	39.37
283.176	11.27
283.392	-5.16
283.608	-6.51
283.824	-2.73
284.04	16.59
284.256	32.3
284.471	27.59
284.687	29.81
284.903	41.17
285.119	59.59
285.335	35.04
285.551	45.5
285.767	19.24
285.982	8.96
286.198	-32.08
286.414	24.71
286.63	23.68
286.846	63.06
287.061	31.04
287.277	46.82
287.493	22.7
287.709	41.88
287.924	7.22
288.14	51.62
288.356	70.99
288.571	79.35
288.787	50.65
289.003	52.27
289.218	35.26
289.434	-10.51
289.65	-9.18
289.865	-16.25
290.081	8.53
290.296	8
290.512	29.89
290.727	-14.97
290.943	-9.63
291.159	-24.18
291.374	-25.87
291.59	-61.9
291.805	-46.73
292.021	-35.94
292.236	-36.23
292.451	-18.63
292.667	-2.94
292.882	13.74
293.098	-7.65
293.313	-35.24
293.529	-60.59
293.744	-64.55
293.959	-68.49
294.175	-47.19
294.39	-1.5
294.605	10.47
294.821	30.62
295.036	32.8
295.251	37.74
295.467	15.43
295.682	9.89
295.897	-48.07
296.112	-46.01
296.328	-30.74
296.543	-54.27
296.758	-44.94
296.973	19.01
297.188	37.47
297.404	1.21
297.619	1.42
297.834	-19.28
298.049	-58.23
298.264	-90.92
298.479	-22.53
298.694	-19.2
298.909	12.93
299.125	16.87
299.34	22.98
299.555	-3.81
299.77	8.56
299.985	-41.16
300.2	-93.09
300.415	-102.96
300.63	-59.16
300.845	-68.69
301.06	-67.12
301.275	-18.28
301.49	4.25
301.704	-17.96
301.919	-38.92
302.134	-49.19
302.349	-42.53
302.564	-107.35
302.779	-105.53
302.994	-28.57
303.209	8.59
303.423	17.35
303.638	60.27
303.853	8.34
304.068	-2.18
304.283	12.78
304.497	0.18
304.712	-5.72
304.927	17.08
305.142	10.36
305.356	-2.13
305.571	4.25
305.786	-18.24
306	-43.97
306.215	-33.67
306.43	-29.94
306.644	-32.21
306.859	7.45
307.074	12.66
307.288	-33.67
307.503	-66.06
307.717	-67.74
307.932	-68.97
308.147	-67.25
308.361	-30.66
308.576	-27.37
308.79	-49.98
309.005	-42.73
309.219	-29.6
309.434	-46.78
309.648	-46.67
309.863	-15.38
310.077	-15.46
310.292	-17.08
310.506	-16.03
310.72	-4.51
310.935	7.11
311.149	13.14
311.364	33.82
311.578	53.46
311.792	49.78
312.007	44.97
312.221	19.23
312.435	13.89
312.649	-7.31
312.864	29.92
313.078	43.2
313.292	102.09
313.507	100.51
313.721	117.33
313.935	51.94
314.149	36.09
314.363	32.03
314.578	15.41
314.792	20.32
315.006	6.23
315.22	10.67
315.434	18.37
315.648	38.84
315.862	38.17
316.077	44.95
316.291	38.44
316.505	39.56
316.719	28.68
316.933	15.32
317.147	-10
317.361	-58.1
317.575	-94.34
317.789	-151.61
318.003	-212.77
318.217	-159.36
318.431	-63.72
318.645	-2.47
318.859	13.03
319.073	29.59
319.287	21.52
319.5	4.24
319.714	-47.52
319.928	-69.02
320.142	-91.43
320.356	-42.1
320.57	-21.77
320.784	-28.52
320.997	-35.67
321.211	-34
321.425	-97.05
321.639	-114.73
321.853	-35.46
322.066	-11.85
322.28	-10.62
322.494	3.3
322.707	27.8
322.921	6.85
323.135	11.05
323.349	30.98
323.562	8.44
323.776	-10.43
323.989	-8.38
324.203	-49.09
324.417	-69.98
324.63	-70.35
324.844	-70.2
325.057	-70.5
325.271	-24.58
325.485	4.77
325.698	29.46
325.912	45.07
326.125	21.23
326.339	10.94
326.552	-21.39
326.766	-25.55
326.979	-11.56
327.193	21.93
327.406	9.22
327.619	5.28
327.833	12.81
328.046	-7.84
328.26	-36.47
328.473	-4.59
328.686	-23.02
328.9	-10.36
329.113	-8.76
329.326	-26.76
329.54	-33.61
329.753	-40.36
329.966	-84.07
330.179	-57.59
330.393	-27.65
330.606	-24.02
330.819	5.8
331.032	25.83
331.246	29.9
331.459	53.72
331.672	46.58
331.885	40.38
332.098	8.86
332.311	-14.03
332.525	-59.94
332.738	-51.85
332.951	-11.28
333.164	30.06
333.377	42.28
333.59	52.43
333.803	56.12
334.016	33.59
334.229	12.44
334.442	-4.61
334.655	17.16
334.868	24.5
335.081	15.65
335.294	16.21
335.507	10.21
335.72	-10.52
335.933	-24.72
336.146	-32.67
336.359	-31.37
336.572	-39.41
336.785	-61.5
336.997	-47.81
337.21	-7.38
337.423	-17.04
337.636	-12.97
337.849	15.24
338.062	9.49
338.274	9.33
338.487	2.3
338.7	5.89
338.913	-43.6
339.125	-70.47
339.338	-137.74
339.551	-92.39
339.763	-43.95
339.976	-15.95
340.189	13.83
340.402	25.68
340.614	0.04
340.827	-12.75
341.039	-36.89
341.252	-41.74
341.465	-21.92
341.677	-8.06
341.89	-60.37
342.102	-20.11
342.315	-37.73
342.527	-95.54
342.74	-107.37
342.952	-44.21
343.165	-40.69
343.377	-8.49
343.59	6.55
343.802	39.7
344.015	33.29
344.227	40.54
344.44	21.87
344.652	24.75
344.864	1.88
345.077	29.34
345.289	30.16
345.502	36.6
345.714	29.88
345.926	38.74
346.139	15.53
346.351	23.14
346.563	29.2
346.775	35.18
346.988	17.61
347.2	19.16
347.412	-26.09
347.624	-48.04
347.837	-72.52
348.049	-28.23
348.261	5.18
348.473	-2.93
348.685	-6.7
348.897	1.79
349.11	-17.43
349.322	-51.59
349.534	-16.01
349.746	-8.7
349.958	-0.17
350.17	-5.65
350.382	17.35
350.594	3.51
350.806	7.96
351.018	9.96
351.23	-1.97
351.442	-53.38
351.654	-45.67
351.866	-23.19
352.078	-26.63
352.29	-10.66
352.502	17.84
352.714	23.73
352.926	0.58
353.138	-2.21
353.35	-14.57
353.561	-28.65
353.773	-48.2
353.985	-27.02
354.197	-28.55
354.409	-21.23
354.621	-24.9
354.832	-7.73
355.044	-9.75
355.256	-13.07
355.468	-3.9
355.679	1.3
355.891	4.38
356.103	-14.3
356.314	-5.11
356.526	-8.29
356.738	4.02
356.949	5.91
357.161	24.39
357.373	21.79
357.584	11.63
357.796	6.81
358.008	0.7
358.219	13.69
358.431	6.78
358.642	17.14
358.854	1.3
359.065	-9.46
359.277	-44.62
359.488	-52.75
359.7	-83.21
359.911	-81.74
360.123	-50.84
360.334	-57.83
360.546	-73.89
360.757	-70.49
360.969	-49
361.18	-56.04
361.391	-34.85
361.603	-37.32
361.814	-15.93
362.025	-25.87
362.237	-18.03
362.448	3.46
362.659	26.49
362.871	20.76
363.082	18.71
363.293	7.1
363.504	-15.91
363.716	-39.25
363.927	-46.97
364.138	-62.79
364.349	-68.01
364.56	-63.17
364.772	-53.88
364.983	-37.75
365.194	-27.97
365.405	-10.97
365.616	4.76
365.827	0.17
366.038	-14.05
366.25	-13.95
366.461	-54.07
366.672	-22.84
366.883	4.23
367.094	15.19
367.305	1.84
367.516	11.72
367.727	-20.91
367.938	-33.41
368.149	-37.83
368.36	-17.42
368.571	-11.53
368.781	-14.35
368.992	-26.29
369.203	-38.74
369.414	-57.43
369.625	-58.77
369.836	-52.35
370.047	-83
370.258	-57.94
370.468	-50.29
370.679	-65.08
370.89	-60.52
371.101	-23.17
371.312	-23.17
371.522	-17.08
371.733	-9.56
371.944	2.31
372.155	7.37
372.365	0.81
372.576	-2.73
372.787	-8.34
372.997	-24.39
373.208	-29.4
373.419	-7.71
373.629	-37.41
373.84	-23.69
374.05	-33.54
374.261	-22.94
374.472	-39.49
374.682	7.56
374.893	11.06
375.103	42.11
375.314	28.41
375.524	22.78
375.735	25.7
375.945	24.77
376.156	-2.59
376.366	9.88
376.577	15.22
376.787	5.95
376.997	15.13
377.208	19.9
377.418	4.18
377.629	8.54
377.839	7.48
378.049	-0.9
378.26	6
378.47	16.84
378.68	5.39
378.89	-3.91
379.101	-5.23
379.311	-28.07
379.521	-63.32
379.732	-55.98
379.942	-42.74
380.152	-69.26
380.362	-29.28
380.572	-17.31
380.783	-3.03
380.993	7.55
381.203	31.31
381.413	32.71
381.623	32.87
381.833	31.12
382.043	12.77
382.253	-1.02
382.463	0.76
382.674	-5.2
382.884	-29.15
383.094	-20.81
383.304	-11.79
383.514	-9.64
383.724	6.28
383.934	1.74
384.144	-14.28
384.353	-20.09
384.563	-20.33
384.773	-20.83
384.983	-26.56
385.193	-0.8
385.403	2.78
385.613	-2.03
385.823	-10.43
386.033	0.67
386.242	-7.03
386.452	-11.93
386.662	-18.53
386.872	-5.85
387.082	-11.64
387.291	-22.42
387.501	-24.54
387.711	-16.29
387.921	-24.23
388.13	-15.77
388.34	1.28
388.55	-0.24
388.759	0.17
388.969	4.26
389.179	2.73
389.388	-2.87
389.598	5.42
389.807	0.78
390.017	-1.9
390.227	-4.11
390.436	-4.73
390.646	-6.28
390.855	-2.11
391.065	-3.08
391.274	-3.91
391.484	-7.39
391.693	-5.09
391.903	-4
392.112	3.16
392.322	8.37
392.531	13.65
392.74	12.53
392.95	8.19
393.159	3.62
393.369	1.45
393.578	-1.09
393.787	-2.42
393.997	-0.29
394.206	-2.51
394.415	-1.73
394.625	-0.31
394.834	-1.42
395.043	-1.91
395.252	1.53
395.462	4.04
395.671	3.45
395.88	4.7
396.089	5.88
396.298	3.64
396.508	2.45
396.717	2.67
396.926	3.48
397.135	3.44
397.344	4.2
397.553	4.68
397.762	6.35
397.971	5.85
398.181	5.55
398.39	5.54
398.599	5.26
398.808	4.47
399.017	5.19
399.226	6.83
399.435	7.67
399.644	7.17
399.853	6.42
400.062	5.9
400.27	4.68
400.479	4.17
400.688	3.95
400.897	4.32
401.106	4.23
401.315	4.28
401.524	4.22
401.733	4.83
401.941	5.48
402.15	5.67
402.359	5.58
402.568	5.99
402.777	6.01
402.985	5.45
403.194	5.25
403.403	5.45
403.612	4.93
403.82	4.56
404.029	4.75
404.238	4.88
404.446	5.21
404.655	5.26
404.864	5.39
405.072	5.18
405.281	5.09
405.489	4.55
405.698	4.42
405.906	4.31
406.115	4.4
406.324	4.31
406.532	4.45
406.741	4.69
406.949	4.7
407.158	4.68
407.366	4.85
407.574	4.8
407.783	4.8
407.991	4.55
408.2	4.63
408.408	4.59
408.617	4.5
408.825	4.33
409.033	4.6
409.242	4.62
409.45	4.76
409.658	4.71
409.867	4.77
410.075	4.57
410.283	4.44
410.491	4.15
410.7	4.19
410.908	4.19
411.116	4.55
411.324	4.51
411.533	4.64
411.741	4.93
411.949	4.94
412.157	4.62
412.365	4.66
412.573	4.44
412.781	4.22
412.99	4.14
413.198	4.35
413.406	4.4
413.614	4.6
413.822	4.57
414.03	4.5
414.238	4.33
414.446	4.27
414.654	4.11
414.862	4.14
415.07	4.22
415.278	4.25
415.486	3.96
415.694	4.03
415.902	3.85
416.109	3.65
416.317	3.63
416.525	3.62
416.733	3.55
416.941	3.67
417.149	3.83
417.357	3.9
417.564	4.17
417.772	4.37
417.98	4.31
418.188	4.26
418.395	4.3
418.603	4.44
418.811	4.06
419.019	3.94
419.226	4.06
419.434	4.13
419.642	3.77
419.849	3.95
420.057	4.04
420.265	4.06
420.472	3.76
420.68	3.86
420.887	3.71
421.095	3.75
421.302	3.59
421.51	3.8
421.717	3.9
421.925	4.07
422.132	3.98
422.34	3.85
422.547	3.72
422.755	3.55
422.962	3.53
423.17	3.37
423.377	3.54
423.585	3.6
423.792	3.63
423.999	3.6
424.207	3.73
424.414	3.7
424.621	3.63
424.829	3.59
425.036	3.54
425.243	3.63
425.451	3.48
425.658	3.31
425.865	3.54
426.072	3.56
426.28	3.77
426.487	3.76
426.694	3.94
426.901	3.58
427.108	3.57
427.315	3.25
427.523	3.6
427.73	3.61
427.937	3.8
428.144	3.62
428.351	3.68
428.558	3.69
428.765	3.55
428.972	3.47
429.179	3.77
429.386	3.99
429.593	3.68
429.8	3.68
430.007	3.88
430.214	4.04
430.421	3.78
430.628	3.72
430.835	3.64
431.042	3.72
431.249	3.62
431.456	3.71
431.662	3.89
431.869	4.14
432.076	4.13
432.283	4.17
432.49	4.13
432.697	4.19
432.903	3.89
433.11	3.79
433.317	3.84
433.524	4.16
433.73	4.04
433.937	4.47
434.144	4.52
434.35	4.42
434.557	4.11
434.764	4.22
434.97	4.05
435.177	4.25
435.384	4.2
435.59	4.4
435.797	4.55
436.003	4.57
436.21	4.4
436.416	4.59
436.623	4.58
436.829	4.59
437.036	4.67
437.242	4.73
437.449	4.47
437.655	4.45
437.862	4.46
438.068	4.41
438.275	4.58
438.481	4.96
438.687	5.03
438.894	4.98
439.1	5.07
439.307	5.1
439.513	4.93
439.719	4.9
439.926	5
440.132	4.95
440.338	4.71
440.544	4.95
440.751	4.92
440.957	4.98
441.163	4.93
441.369	5.1
441.575	4.91
441.782	4.94
441.988	4.69
442.194	4.74
442.4	4.82
442.606	5.09
442.812	5.22
443.018	5.44
443.224	5.56
443.431	5.61
443.637	5.37
443.843	5.25
444.049	5.22
444.255	5.15
444.461	5.13
444.667	5.13
444.873	5.37
445.079	5.44
445.284	5.48
445.49	5.23
445.696	5.06
445.902	4.89
446.108	4.8
446.314	4.76
446.52	4.92
446.726	5.22
446.931	5.25
447.137	5.35
447.343	5.43
447.549	5.44
447.755	5.39
447.96	5.42
448.166	5.35
448.372	5.27
448.578	5.3
448.783	5.29
448.989	5.32
449.195	5.59
449.4	5.71
449.606	5.6
449.812	5.45
450.017	5.48
450.223	5.22
450.428	5.15
450.634	5.38
450.84	5.63
451.045	5.57
451.251	5.55
451.456	5.83
451.662	5.84
451.867	5.85
452.073	5.95
452.278	6.15
452.483	6.11
452.689	5.94
452.894	5.97
453.1	5.89
453.305	5.75
453.51	5.64
453.716	5.65
453.921	5.65
454.127	5.6
454.332	5.55
454.537	5.54
454.742	5.56
454.948	5.5
455.153	5.56
455.358	5.74
455.563	5.92
455.769	6.06
455.974	6.06
456.179	6.01
456.384	5.95
456.589	5.85
456.795	5.65
457	5.62
457.205	5.87
457.41	5.85
457.615	5.84
457.82	5.99
458.025	6.1
458.23	5.94
458.435	6.07
458.64	5.9
458.845	6.01
459.05	5.89
459.255	5.84
459.46	5.75
459.665	5.81
459.87	5.79
460.075	5.83
460.28	5.94
460.485	6.03
460.69	6.1
460.895	5.95
461.099	5.96
461.304	6.05
461.509	6.02
461.714	6.01
461.919	6.17
462.123	5.98
462.328	5.95
462.533	5.85
462.738	5.93
462.942	5.82
463.147	6.08
463.352	6.13
463.556	6.26
463.761	6.32
463.966	6.43
464.17	6.4
464.375	6.36
464.58	6.27
464.784	6.22
464.989	6.16
465.193	6.15
465.398	6.14
465.602	6.39
465.807	6.43
466.011	6.48
466.216	6.56
466.42	6.61
466.625	6.58
466.829	6.65
467.034	6.7
467.238	6.92
467.443	6.89
467.647	6.8
467.851	6.86
468.056	6.97
468.26	6.81
468.464	6.86
468.669	7
468.873	7.09
469.077	7.02
469.282	7.15
469.486	7.19
469.69	7.21
469.894	7.13
470.099	7.17
470.303	7.24
470.507	7.13
470.711	7.02
470.915	6.96
471.119	7
471.324	6.85
471.528	6.91
471.732	7
471.936	7.04
472.14	7.07
472.344	7.22
472.548	7.33
472.752	7.5
472.956	7.76
473.16	7.71
473.364	7.59
473.568	7.56
473.772	7.43
473.976	7.32
474.18	7.31
474.384	7.37
474.588	7.4
474.792	7.38
474.995	7.42
475.199	7.58
475.403	7.7
475.607	7.77
475.811	7.77
476.015	7.78
476.218	7.81
476.422	7.68
476.626	7.71
476.83	7.87
477.033	7.89
477.237	7.81
477.441	7.94
477.644	7.92
477.848	7.79
478.052	7.66
478.255	7.65
478.459	7.62
478.663	7.83
478.866	7.92
479.07	8.1
479.273	8.27
479.477	8.32
479.681	8.2
479.884	8.18
480.088	8.17
480.291	8.11
480.495	8.14
480.698	8.14
480.901	8.27
481.105	8.4
481.308	8.38
481.512	8.3
481.715	8.4
481.919	8.43
482.122	8.38
482.325	8.43
482.529	8.52
482.732	8.48
482.935	8.36
483.138	8.3
483.342	8.44
483.545	8.52
483.748	8.57
483.952	8.62
484.155	8.68
484.358	8.66
484.561	8.55
484.764	8.55
484.967	8.66
485.171	8.74
485.374	8.63
485.577	8.76
485.78	8.78
485.983	8.78
486.186	8.67
486.389	8.67
486.592	8.61
486.795	8.7
486.998	8.62
487.201	8.72
487.404	8.83
487.607	8.91
487.81	8.86
488.013	8.98
488.216	8.9
488.419	8.83
488.622	8.81
488.825	8.83
489.028	8.77
489.231	8.77
489.433	8.76
489.636	8.64
489.839	8.56
490.042	8.48
490.245	8.5
490.447	8.58
490.65	8.63
490.853	8.68
491.056	8.73
491.258	8.71
491.461	8.71
491.664	8.78
491.866	8.76
492.069	8.86
492.272	8.84
492.474	8.87
492.677	8.85
492.879	8.88
493.082	8.87
493.285	9.03
493.487	8.97
493.69	8.95
493.892	8.95
494.095	8.92
494.297	8.9
494.5	8.96
494.702	8.99
494.905	9.02
495.107	9.02
495.309	9.04
495.512	9.07
495.714	9.07
495.917	9.07
496.119	9.06
496.321	9.07
496.524	9.07
496.726	9.1
496.928	9.11
497.13	9.13
497.333	9.1
497.535	9.14
497.737	9.13
497.939	9.1
498.142	9.15
498.344	9.12
498.546	8.95
498.748	9.03
498.95	9.15
499.152	9.17
499.355	9.22
499.557	9.43
499.759	9.51
499.961	9.43
500.163	9.47
500.365	9.53
500.567	9.57
500.769	9.48
500.971	9.48
501.173	9.44
501.375	9.41
501.577	9.34
501.779	9.36
501.981	9.44
502.183	9.45
502.385	9.45
502.587	9.42
502.788	9.45
502.99	9.49
503.192	9.53
503.394	9.59
503.596	9.6
503.798	9.67
503.999	9.7
504.201	9.67
504.403	9.66
504.605	9.71
504.806	9.6
505.008	9.54
505.21	9.65
505.411	9.67
505.613	9.69
505.815	9.72
506.016	9.84
506.218	9.9
506.42	9.91
506.621	9.95
506.823	10.01
507.024	9.92
507.226	9.86
507.427	9.85
507.629	9.85
507.83	9.97
508.032	9.98
508.233	10.06
508.435	10.11
508.636	10.16
508.838	10.09
509.039	10.19
509.24	10.23
509.442	10.25
509.643	10.22
509.845	10.27
510.046	10.33
510.247	10.27
510.448	10.29
510.65	10.38
510.851	10.47
511.052	10.44
511.254	10.45
511.455	10.62
511.656	10.68
511.857	10.72
512.058	10.71
512.26	10.69
512.461	10.55
512.662	10.57
512.863	10.47
513.064	10.57
513.265	10.65
513.466	10.76
513.667	10.67
513.868	10.71
514.069	10.79
514.27	10.83
514.471	10.76
514.672	10.82
514.873	10.84
515.074	10.8
515.275	10.74
515.476	10.73
515.677	10.71
515.878	10.9
516.079	10.87
516.28	10.93
516.481	11.11
516.682	11.16
516.882	10.99
517.083	10.96
517.284	10.93
517.485	10.85
517.686	10.81
517.886	10.81
518.087	10.89
518.288	10.96
518.488	10.96
518.689	10.96
518.89	10.96
519.091	11.01
519.291	10.99
519.492	11
519.692	11.04
519.893	11.15
520.094	11.07
520.294	11.03
520.495	11
520.695	11.04
520.896	11.01
521.096	11.08
521.297	11.14
521.497	11.21
521.698	11.19
521.898	11.17
522.099	11.14
522.299	11.22
522.499	11.18
522.7	11.22
522.9	11.25
523.101	11.35
523.301	11.32
523.501	11.39
523.702	11.37
523.902	11.49
524.102	11.51
524.302	11.49
524.503	11.56
524.703	11.54
524.903	11.46
525.103	11.36
525.304	11.45
525.504	11.43
525.704	11.46
525.904	11.45
526.104	11.5
526.304	11.46
526.504	11.43
526.705	11.47
526.905	11.6
527.105	11.59
527.305	11.61
527.505	11.67
527.705	11.64
527.905	11.6
528.105	11.64
528.305	11.63
528.505	11.65
528.705	11.79
528.905	11.77
529.105	11.76
529.304	11.83
529.504	11.9
529.704	11.77
529.904	11.77
530.104	11.79
530.304	11.83
530.503	11.73
530.703	11.73
530.903	11.77
531.103	11.76
531.303	11.77
531.502	11.8
531.702	11.93
531.902	11.93
532.101	11.91
532.301	11.92
532.501	12
532.7	11.92
532.9	11.95
533.1	12.02
533.299	12.01
533.499	12
533.698	11.99
533.898	11.99
534.097	12
534.297	12.06
534.496	12.06
534.696	12.16
534.895	12.3
535.095	12.38
535.294	12.35
535.494	12.29
535.693	12.33
535.892	12.27
536.092	12.19
536.291	12.17
536.491	12.3
536.69	12.36
536.889	12.32
537.088	12.34
537.288	12.47
537.487	12.48
537.686	12.42
537.886	12.44
538.085	12.5
538.284	12.51
538.483	12.49
538.682	12.51
538.882	12.6
539.081	12.69
539.28	12.64
539.479	12.65
539.678	12.66
539.877	12.75
540.076	12.7
540.275	12.74
540.474	12.85
540.673	12.92
540.872	12.81
541.071	12.96
541.27	13.01
541.469	13.05
541.668	13.1
541.867	13.15
542.066	13.21
542.265	13.25
542.464	13.25
542.663	13.29
542.862	13.46
543.06	13.46
543.259	13.49
543.458	13.56
543.657	13.6
543.856	13.58
544.054	13.56
544.253	13.58
544.452	13.54
544.651	13.67
544.849	13.62
545.048	13.67
545.247	13.69
545.445	13.79
545.644	13.75
545.843	13.83
546.041	13.93
546.24	14.08
546.438	14.13
546.637	14.2
546.836	14.38
547.034	14.46
547.233	14.45
547.431	14.46
547.63	14.46
547.828	14.4
548.027	14.36
548.225	14.4
548.423	14.52
548.622	14.64
548.82	14.66
549.019	14.73
549.217	14.87
549.415	14.89
549.614	14.97
549.812	15.03
550.01	15.01
550.209	15.08
550.407	15.22
550.605	15.23
550.803	15.42
551.002	15.58
551.2	15.6
551.398	15.68
551.596	15.85
551.794	15.92
551.993	16
552.191	16.13
552.389	16.24
552.587	16.31
552.785	16.29
552.983	16.29
553.181	16.36
553.379	16.43
553.577	16.49
553.775	16.59
553.973	16.75
554.171	16.83
554.369	16.84
554.567	16.86
554.765	16.93
554.963	17.03
555.161	17.01
555.359	17.11
555.557	17.34
555.755	17.46
555.952	17.59
556.15	17.73
556.348	17.84
556.546	17.92
556.744	17.98
556.941	17.99
557.139	18.13
557.337	18.19
557.535	18.18
557.732	18.35
557.93	18.49
558.128	18.63
558.325	18.75
558.523	18.82
558.721	18.93
558.918	18.95
559.116	18.96
559.313	19.03
559.511	19.25
559.708	19.28
559.906	19.41
560.104	19.51
560.301	19.7
560.498	19.73
560.696	19.86
560.893	20.05
561.091	20.21
561.288	20.25
561.486	20.34
561.683	20.48
561.88	20.54
562.078	20.61
562.275	20.7
562.473	20.87
562.67	21.01
562.867	21.18
563.064	21.35
563.262	21.43
563.459	21.51
563.656	21.73
563.853	21.79
564.051	21.88
564.248	22.05
564.445	22.13
564.642	22.13
564.839	22.28
565.036	22.54
565.234	22.75
565.431	22.91
565.628	23.02
565.825	23.13
566.022	23.16
566.219	23.25
566.416	23.31
566.613	23.41
566.81	23.56
567.007	23.65
567.204	23.61
567.401	23.74
567.598	23.78
567.795	23.82
567.991	23.9
568.188	24.05
568.385	24.12
568.582	24.3
568.779	24.44
568.976	24.46
569.172	24.59
569.369	24.69
569.566	24.68
569.763	24.69
569.96	24.82
570.156	24.88
570.353	24.86
570.55	24.97
570.746	25.06
570.943	25.08
571.14	25.07
571.336	25.23
571.533	25.35
571.729	25.27
571.926	25.38
572.123	25.6
572.319	25.65
572.516	25.53
572.712	25.68
572.909	25.67
573.105	25.62
573.302	25.63
573.498	25.81
573.695	25.85
573.891	25.92
574.087	25.89
574.284	25.86
574.48	25.8
574.677	25.79
574.873	25.76
575.069	25.95
575.266	26.15
575.462	26.19
575.658	26.36
575.854	26.57
576.051	26.52
576.247	26.43
576.443	26.51
576.639	26.41
576.835	26.28
577.032	26.22
577.228	26.32
577.424	26.29
577.62	26.26
577.816	26.37
578.012	26.44
578.208	26.38
578.404	26.51
578.6	26.52
578.796	26.53
578.993	26.52
579.189	26.52
579.384	26.3
579.58	26.29
579.776	26.24
579.972	26.22
580.168	26.18
580.364	26.36
580.56	26.39
580.756	26.36
580.952	26.33
581.148	26.39
581.343	26.35
581.539	26.42
581.735	26.41
581.931	26.43
582.127	26.45
582.322	26.45
582.518	26.44
582.714	26.45
582.909	26.43
583.105	26.32
583.301	26.2
583.496	26.24
583.692	26.24
583.888	26.23
584.083	26.32
584.279	26.45
584.474	26.29
584.67	26.29
584.866	26.34
585.061	26.24
585.257	26.27
585.452	26.33
585.648	26.37
585.843	26.33
586.039	26.38
586.234	26.36
586.429	26.3
586.625	26.35
586.82	26.38
587.015	26.44
587.211	26.29
587.406	26.35
587.601	26.26
587.797	26.31
587.992	26.21
588.187	26.33
588.383	26.28
588.578	26.27
588.773	26.2
588.968	26.37
589.163	26.43
589.359	26.5
589.554	26.52
589.749	26.62
589.944	26.63
590.139	26.62
590.334	26.62
590.529	26.71
590.724	26.79
590.919	26.83
591.114	26.81
591.309	26.99
591.504	26.98
591.699	26.91
591.894	26.98
592.089	27.07
592.284	27.04
592.479	27.17
592.674	27.15
592.869	27.06
593.064	27.17
593.259	27.29
593.454	27.43
593.648	27.63
593.843	27.78
594.038	27.8
594.233	27.75
594.428	27.71
594.622	27.75
594.817	27.88
595.012	27.99
595.206	28.11
595.401	28.14
595.596	28.25
595.79	28.28
595.985	28.36
596.18	28.46
596.374	28.67
596.569	28.61
596.763	28.63
596.958	28.69
597.153	28.73
597.347	28.7
597.542	28.91
597.736	28.96
597.931	29.01
598.125	29.2
598.319	29.32
598.514	29.24
598.708	29.43
598.903	29.44
599.097	29.4
599.291	29.36
599.486	29.5
599.68	29.41
599.874	29.56
600.069	29.59
600.263	29.71
600.457	29.81
600.651	29.87
600.846	29.93
601.04	29.98
601.234	30.14
601.428	30.18
601.622	30.23
601.817	30.23
602.011	30.3
602.205	30.3
602.399	30.29
602.593	30.41
602.787	30.46
602.981	30.52
603.175	30.5
603.369	30.56
603.563	30.5
603.757	30.57
603.951	30.52
604.145	30.44
604.339	30.4
604.533	30.33
604.727	30.22
604.921	30.19
605.115	30.21
605.309	30.29
605.502	30.27
605.696	30.26
605.89	30.31
606.084	30.3
606.278	30.27
606.471	30.19
606.665	30.05
606.859	29.88
607.053	29.82
607.246	29.67
607.44	29.68
607.634	29.64
607.827	29.62
608.021	29.52
608.214	29.53
608.408	29.48
608.602	29.49
608.795	29.48
608.989	29.39
609.182	29.19
609.376	29.23
609.569	29.18
609.763	29.05
609.956	28.91
610.15	28.86
610.343	28.71
610.537	28.61
610.73	28.66
610.923	28.67
611.117	28.57
611.31	28.47
611.504	28.34
611.697	28.07
611.89	28.05
612.083	28.04
612.277	28.06
612.47	27.96
612.663	27.95
612.856	27.87
613.05	27.8
613.243	27.66
613.436	27.64
613.629	27.57
613.822	27.38
614.015	27.31
614.209	27.22
614.402	27.18
614.595	27.18
614.788	27.2
614.981	27.11
615.174	26.87
615.367	26.7
615.56	26.53
615.753	26.46
615.946	26.35
616.139	26.45
616.332	26.61
616.525	26.62
616.718	26.72
616.911	26.83
617.103	26.75
617.296	26.61
617.489	26.56
617.682	26.26
617.875	26.15
618.067	26.08
618.26	25.89
618.453	25.87
618.646	25.87
618.838	25.83
619.031	25.99
619.224	26.06
619.417	25.98
619.609	26.1
619.802	26.05
619.994	25.87
620.187	25.88
620.38	25.86
620.572	25.64
620.765	25.62
620.957	25.58
621.15	25.45
621.342	25.4
621.535	25.49
621.727	25.37
621.92	25.29
622.112	25.26
622.305	25.23
622.497	25.17
622.69	25.18
622.882	25.27
623.074	25.29
623.267	25.25
623.459	25.12
623.651	25.05
623.844	24.98
624.036	24.95
624.228	24.95
624.42	25.01
624.613	25.09
624.805	25.1
624.997	25.15
625.189	25.11
625.381	25.09
625.574	24.96
625.766	24.84
625.958	24.79
626.15	24.8
626.342	24.81
626.534	24.84
626.726	24.78
626.918	24.71
627.11	24.59
627.302	24.46
627.494	24.39
627.686	24.51
627.878	24.41
628.07	24.47
628.262	24.42
628.454	24.48
628.646	24.39
628.838	24.42
629.029	24.28
629.221	24.43
629.413	24.26
629.605	24.15
629.797	24.05
629.989	24.08
630.18	23.93
630.372	23.94
630.564	23.95
630.755	23.96
630.947	23.98
631.139	23.87
631.33	23.71
631.522	23.8
631.714	23.77
631.905	23.69
632.097	23.69
632.289	23.78
632.48	23.67
632.672	23.59
632.863	23.44
633.055	23.46
633.246	23.43
633.438	23.28
633.629	23.3
633.821	23.42
634.012	23.36
634.203	23.26
634.395	23.25
634.586	23.26
634.777	23.21
634.969	23.23
635.16	23.33
635.351	23.28
635.543	23.33
635.734	23.36
635.925	23.34
636.117	23.34
636.308	23.41
636.499	23.31
636.69	23.14
636.881	23.11
637.073	23.2
637.264	23.15
637.455	23.2
637.646	23.33
637.837	23.43
638.028	23.24
638.219	23.35
638.41	23.33
638.601	23.27
638.792	23.29
638.983	23.32
639.174	23.13
639.365	23.07
639.556	22.96
639.747	22.73
639.938	22.81
640.129	22.89
640.32	22.79
640.511	22.87
640.701	23.06
640.892	22.95
641.083	22.97
641.274	23.07
641.465	23.07
641.655	22.97
641.846	22.88
642.037	22.84
642.228	22.7
642.418	22.66
642.609	22.69
642.8	22.83
642.99	22.73
643.181	22.82
643.372	22.89
643.562	22.84
643.753	22.75
643.943	22.72
644.134	22.63
644.324	22.54
644.515	22.5
644.705	22.56
644.896	22.55
645.086	22.58
645.277	22.52
645.467	22.53
645.658	22.47
645.848	22.56
646.038	22.54
646.229	22.52
646.419	22.42
646.61	22.39
646.8	22.26
646.99	22.18
647.18	22.14
647.371	22.14
647.561	22.04
647.751	22.07
647.941	21.97
648.132	22.07
648.322	22.02
648.512	22
648.702	21.97
648.892	22.07
649.082	21.93
649.272	21.88
649.462	21.79
649.653	21.71
649.843	21.59
650.033	21.64
650.223	21.6
650.413	21.58
650.603	21.62
650.793	21.68
650.983	21.49
651.172	21.43
651.362	21.4
651.552	21.22
651.742	21.04
651.932	21.02
652.122	20.94
652.312	20.96
652.502	20.97
652.691	20.96
652.881	20.88
653.071	20.84
653.261	20.65
653.45	20.44
653.64	20.43
653.83	20.36
654.019	20.27
654.209	20.25
654.399	20.21
654.588	20.07
654.778	19.86
654.968	19.7
655.157	19.5
655.347	19.37
655.536	19.19
655.726	19.08
655.915	18.97
656.105	18.86
656.294	18.77
656.484	18.53
656.673	18.49
656.863	18.37
657.052	18.14
657.241	17.84
657.431	17.66
657.62	17.45
657.809	17.18
657.999	17.07
658.188	16.92
658.377	16.79
658.567	16.55
658.756	16.37
658.945	16.12
659.134	15.9
659.324	15.66
659.513	15.53
659.702	15.31
659.891	15.16
660.08	15
660.269	14.95
660.458	14.78
660.648	14.59
660.837	14.42
661.026	14.35
661.215	14.13
661.404	13.88
661.593	13.85
661.782	13.52
661.971	13.42
662.16	13.24
662.349	13.18
662.538	12.94
662.726	12.97
662.915	12.66
663.104	12.47
663.293	12.37
663.482	12.41
663.671	12.29
663.86	12.15
664.048	12.16
664.237	12.04
664.426	11.67
664.615	11.58
664.803	11.53
664.992	11.33
665.181	11.22
665.369	11.19
665.558	11.14
665.747	11.05
665.935	11.09
666.124	11.03
666.312	11.08
666.501	10.95
666.69	10.91
666.878	10.69
667.067	10.6
667.255	10.61
667.444	10.83
667.632	10.79
667.82	10.92
668.009	10.81
668.197	10.7
668.386	10.45
668.574	10.6
668.762	10.47
668.951	10.42
669.139	10.44
669.327	10.3
669.516	10.32
669.704	10.31
669.892	10.6
670.08	10.52
670.269	10.53
670.457	10.27
670.645	10.1
670.833	10
671.021	9.94
671.21	10.06
671.398	10.27
671.586	10.42
671.774	10.27
671.962	10.25
672.15	10.28
672.338	10.1
672.526	10.12
672.714	10.18
672.902	10.31
673.09	10.49
673.278	10.75
673.466	10.82
673.654	11.05
673.842	11.13
674.03	10.98
674.218	10.92
674.405	10.96
674.593	10.86
674.781	10.92
674.969	11.03
675.157	11.17
675.344	11.27
675.532	11.32
675.72	11.44
675.908	11.57
676.095	11.56
676.283	11.68
676.471	11.96
676.658	11.89
676.846	11.85
677.033	12.04
677.221	12.08
677.409	11.87
677.596	12.04
677.784	12.12
677.971	12.07
678.159	12.23
678.346	12.43
678.534	12.48
678.721	12.73
678.909	12.88
679.096	12.89
679.283	13.08
679.471	13.21
679.658	13.21
679.846	13.39
680.033	13.52
680.22	13.6
680.408	13.76
680.595	13.95
680.782	13.94
680.969	14.05
681.157	14.19
681.344	14.22
681.531	14.41
681.718	14.57
681.905	14.72
682.093	14.81
682.28	15.14
682.467	15.36
682.654	15.57
682.841	15.84
683.028	16.16
683.215	16.28
683.402	16.32
683.589	16.62
683.776	16.91
683.963	17.07
684.15	17.32
684.337	17.56
684.524	17.61
684.711	17.8
684.898	17.93
685.085	18.13
685.271	18.48
685.458	18.92
685.645	19.13
685.832	19.53
686.019	19.94
686.205	20.24
686.392	20.56
686.579	20.98
686.766	21.32
686.952	21.63
687.139	22.24
687.326	22.53
687.512	23.04
687.699	23.52
687.886	23.94
688.072	24.07
688.259	24.62
688.445	24.95
688.632	25.39
688.818	26.08
689.005	26.63
689.191	27.23
689.378	27.87
689.564	28.54
689.751	28.92
689.937	29.46
690.124	29.97
690.31	30.47
690.496	31.04
690.683	31.61
690.869	32.24
691.055	32.75
691.242	33.37
691.428	33.87
691.614	34.53
691.8	35.3
691.987	36.01
692.173	36.64
692.359	37.42
692.545	38.11
692.731	38.6
692.918	39.14
693.104	39.64
693.29	40.09
693.476	40.79
693.662	41.64
693.848	42.19
694.034	42.88
694.22	43.53
694.406	44.05
694.592	44.47
694.778	45.35
694.964	45.92
695.15	46.49
695.336	47.14
695.522	48
695.708	48.39
695.894	49.01
696.08	49.66
696.265	50.1
696.451	50.64
696.637	51.3
696.823	52.07
697.009	52.59
697.194	53.12
697.38	53.41
697.566	53.92
697.751	54.42
697.937	55.14
698.123	55.7
698.308	56.4
698.494	57.05
698.68	57.67
698.865	58.26
699.051	59.07
699.236	59.44
699.422	59.86
699.607	60.08
699.793	60.42
699.978	60.63
700.164	61.15
700.349	61.84
700.535	62.31
700.72	62.61
700.906	63.45
701.091	63.92
701.276	64.13
701.462	64.95
701.647	65.94
701.832	66.05
702.018	66.4
702.203	66.79
702.388	66.73
702.573	66.78
702.759	67.4
702.944	67.73
703.129	68.03
703.314	68.38
703.499	68.6
703.684	68.87
703.87	69.88
704.055	70.48
704.24	71.06
704.425	71.59
704.61	71.99
704.795	71.51
704.98	71.78
705.165	71.79
705.35	72.07
705.535	72.15
705.72	72.47
705.905	72.71
706.09	73.38
706.275	73.16
706.459	73.21
706.644	73.61
706.829	74.02
707.014	73.7
707.199	74.42
707.384	74.96
707.568	75.03
707.753	75.59
707.938	76.15
708.123	76.07
708.307	76.06
708.492	76.39
708.677	75.99
708.861	76.08
709.046	76.32
709.231	77
709.415	77.73
709.6	77.82
709.784	78.05
709.969	78.2
710.153	77.73
710.338	77.53
710.522	77.74
710.707	78.13
710.891	78.48
711.076	78.89
711.26	78.53
711.445	78.91
711.629	78.75
711.813	78.92
711.998	79.11
712.182	79.29
712.366	79.6
712.551	80.39
712.735	80.16
712.919	79.79
713.103	80.23
713.288	79.94
713.472	79.36
713.656	79.96
713.84	80.59
714.024	80.7
714.208	80.5
714.393	80.87
714.577	80.82
714.761	80.61
714.945	80.88
715.129	81.41
715.313	81.47
715.497	81.22
715.681	81.92
715.865	81.35
716.049	81.34
716.233	81.12
716.417	81.68
716.601	81.13
716.785	81.34
716.968	81.61
717.152	81.89
717.336	81.72
717.52	81.84
717.704	82.02
717.888	82.09
718.071	82.11
718.255	82.25
718.439	82.38
718.622	82.62
718.806	82.9
718.99	82.68
719.174	82.83
719.357	83.02
719.541	83.12
719.724	82.56
719.908	83.23
720.092	83.5
720.275	83.98
720.459	83.86
720.642	84
720.826	83.83
721.009	83.08
721.193	82.3
721.376	82.91
721.559	83.08
721.743	83.04
721.926	83.73
722.11	84.08
722.293	83.07
722.476	82.69
722.66	82.57
722.843	82.19
723.026	81.65
723.21	82.67
723.393	84.08
723.576	84.36
723.759	84.25
723.942	84.72
724.126	84.08
724.309	83.18
724.492	83.06
724.675	83.1
724.858	84
725.041	85.05
725.224	85.56
725.407	85.68
725.59	86.3
725.774	85.95
725.957	84.66
726.14	84.23
726.322	84.61
726.505	84.04
726.688	84.89
726.871	85.31
727.054	85.4
727.237	85.25
727.42	86.14
727.603	85.03
727.786	85.77
727.968	85.85
728.151	86.04
728.334	85.72
728.517	85.67
728.699	85.57
728.882	85.82
729.065	86.11
729.248	86.5
729.43	87.42
729.613	87.62
729.796	88.34
729.978	87.69
730.161	87.5
730.343	87.22
730.526	88.17
730.708	86.9
730.891	87.96
731.073	87.79
731.256	87.35
731.438	86.55
731.621	87.99
731.803	87.2
731.986	87.53
732.168	87.26
732.35	87.67
732.533	87.54
732.715	87.73
732.898	88.22
733.08	89.04
733.262	89.24
733.444	89.17
733.627	89.12
733.809	89.13
733.991	90.18
734.173	89.64
734.355	89.28
734.538	90.15
734.72	89.63
734.902	89.05
735.084	89.12
735.266	88.74
735.448	88.6
735.63	88.95
735.812	88.7
735.994	89.84
736.176	90.37
736.358	89.72
736.54	90.51
736.722	90.16
736.904	88.93
737.086	89.11
737.268	90.52
737.45	90.7
737.632	90.42
737.814	89.79
737.995	90.12
738.177	89.34
738.359	88.24
738.541	89.2
738.723	89.85
738.904	90.77
739.086	90.56
739.268	90.93
739.449	91.03
739.631	91.04
739.813	90.61
739.994	91.32
740.176	91.53
740.358	90.99
740.539	91.95
740.721	92.12
740.902	92.67
741.084	92.73
741.265	92.66
741.447	92.61
741.628	92.09
741.81	90.86
741.991	90.8
742.172	91.88
742.354	92.41
742.535	92.8
742.717	92.98
742.898	93.05
743.079	94.05
743.261	93.77
743.442	92.87
743.623	94.43
743.804	94.6
743.986	94.09
744.167	92.06
744.348	91.93
744.529	91.26
744.71	90.44
744.891	89.3
745.073	90.01
745.254	89.98
745.435	88.96
745.616	88.89
745.797	89.14
745.978	89.22
746.159	89.89
746.34	89.23
746.521	91.21
746.702	90.55
746.883	90.25
747.064	89.54
747.245	90.16
747.426	88.66
747.606	89.28
747.787	90.53
747.968	91.12
748.149	91.08
748.33	91.36
748.51	91.27
748.691	90.68
748.872	91.53
749.053	92.06
749.233	91.38
749.414	91.19
749.595	91.08
749.775	89.65
749.956	89.02
750.137	89.38
750.317	91.3
750.498	92.06
750.678	92.34
750.859	93.33
751.04	93.09
751.22	90.86
751.4	90.52
751.581	89.02
751.761	89.69
751.942	89.84
752.122	89.18
752.303	88.51
752.483	89.33
752.663	87.61
752.844	87.8
753.024	89.72
753.204	90.7
753.385	90.49
753.565	91.21
753.745	90.43
753.925	88.9
754.106	87.36
754.286	87.22
754.466	86.6
754.646	87.87
754.826	88.4
755.006	88.09
755.187	89.08
755.367	89.54
755.547	88.58
755.727	88.44
755.907	89.3
756.087	89.8
756.267	88.76
756.447	88.85
756.627	87.01
756.807	88.66
756.987	87.35
757.167	89.41
757.346	89.64
757.526	89.41
757.706	89.08
757.886	90.7
758.066	89.79
758.246	89.66
758.425	91.01
758.605	89.62
758.785	89.82
758.965	89.99
759.144	88.74
759.324	88.76
759.504	89.58
759.683	89.11
759.863	87.28
760.043	87.42
760.222	87.24
760.402	86.27
760.581	85.68
760.761	87.22
760.94	85.29
761.12	86.3
761.299	86.19
761.479	85
761.658	83.02
761.838	85.66
762.017	85.65
762.197	85.42
762.376	86.69
762.555	88.22
762.735	88.94
762.914	88.14
763.093	89.28
763.273	87.81
763.452	87.79
763.631	86.35
763.81	86.22
763.99	85.33
764.169	86.94
764.348	84.74
764.527	84.79
764.706	87
764.885	88.76
765.064	86.95
765.243	89.21
765.423	91.04
765.602	88.55
765.781	85.57
765.96	85.29
766.139	83.84
766.318	83.65
766.497	82.55
766.676	85.1
766.854	88.42
767.033	89.7
767.212	87.99
767.391	90.41
767.57	90.48
767.749	89.2
767.928	91.04
768.106	90.08
768.285	87.4
768.464	86.17
768.643	84.94
768.821	82.31
769	83.83
769.179	85.02
769.357	83.03
769.536	82.48
769.715	83.81
769.893	84.61
770.072	83.14
770.25	84.04
770.429	84.53
770.607	84.49
770.786	83.84
770.964	85.02
771.143	84.31
771.321	85.47
771.5	84.74
771.678	84.01
771.857	81.71
772.035	81.75
772.213	80.41
772.392	79.43
772.57	81.86
772.748	85.79
772.927	86.39
773.105	86.3
773.283	88.79
773.461	87.66
773.64	87.62
773.818	88.41
773.996	89.87
774.174	86.76
774.352	84.31
774.531	81.34
774.709	81.8
774.887	81.05
775.065	80.4
775.243	79.9
775.421	80.75
775.599	82.32
775.777	78.96
775.955	78.35
776.133	78.19
776.311	78.49
776.489	73.6
776.667	77.62
776.844	78.63
777.022	78.37
777.2	78.46
777.378	79.67
777.556	78.39
777.734	81.64
777.911	86.48
778.089	85.94
778.267	86.85
778.445	83.51
778.622	79.92
778.8	76.43
778.978	78.2
779.155	78.46
779.333	80.09
779.511	80.78
779.688	84.1
779.866	79.31
780.043	76.45
780.221	75.57
780.398	73.41
780.576	74.12
780.753	77.7
780.931	77.29
781.108	76.32
781.286	79.35
781.463	73.58
781.64	71.02
781.818	73.22
781.995	75.54
782.172	74.19
782.35	76.19
782.527	79.74
782.704	78.38
782.882	81.1
783.059	81.25
783.236	81.53
783.413	81.24
783.59	82.01
783.768	77.63
783.945	79.86
784.122	81.56
784.299	80.02
784.476	79.49
784.653	84.82
784.83	81.64
785.007	78.49
785.184	81.09
785.361	80.25
785.538	79.36
785.715	82.61
785.892	83.16
786.069	82.65
786.246	85.39
786.423	82.34
786.6	76.14
786.776	77.71
786.953	76.81
787.13	76.97
787.307	77.05
787.484	80.63
787.66	79.01
787.837	75.78
788.014	72.54
788.191	69.22
788.367	66.85
788.544	70.28
788.721	72.1
788.897	75.12
789.074	79.11
789.25	75.01
789.427	73.21
789.603	71.63
789.78	72.21
789.956	69.51
790.133	71.42
790.309	71.32
790.486	74.29
790.662	71.51
790.839	72.1
791.015	75.68
791.192	71.65
791.368	71.59
791.544	72.68
791.721	73.98
791.897	71.98
792.073	70.52
792.249	62.51
792.426	64.83
792.602	68.24
792.778	71.46
792.954	74.9
793.13	78.96
793.307	70.53
793.483	60.84
793.659	56.12
793.835	56.96
794.011	56.98
794.187	62.67
794.363	62.65
794.539	68.1
794.715	62.81
794.891	62.37
795.067	60.24
795.243	64.12
795.419	59.07
795.595	57.15
795.771	61.07
795.947	65.13
796.122	65.22
796.298	71.73
796.474	77.71
796.65	74.21
796.826	72
797.001	76.02
797.177	69.63
797.353	70.59
797.529	72.08
797.704	71.45
797.88	64.11
798.056	65.9
798.231	62.96
798.407	63.56
798.582	64.5
798.758	74.52
798.934	79.81
799.109	77.6
799.285	74.93
799.46	81.02
799.636	76.14
799.811	68.37
799.986	72.05
800.162	72.66
800.337	70.61
800.513	64.84
800.688	68.68
800.863	79.47
801.039	73.75
801.214	66.19
801.389	71.48
801.565	67.33
801.74	48.3
801.915	58.47
802.09	61.37
802.265	64.17
802.441	61.54
802.616	67.57
802.791	64.88
802.966	63.56
803.141	60.65
803.316	58.89
803.491	67.97
803.666	75.26
803.841	74.94
804.016	74.6
804.191	80.53
804.366	71.01
804.541	66.65
804.716	66.73
804.891	61.33
805.066	62.94
805.241	62.48
805.416	58.56
805.591	56.97
805.765	65.33
805.94	68.22
806.115	62.85
806.29	56.01
806.464	61.47
806.639	53.29
806.814	44.13
806.989	44.48
807.163	62.63
807.338	62.4
807.512	63.97
807.687	57.6
807.862	72.79
808.036	61.75
808.211	59.91
808.385	68.94
808.56	81.21
808.734	76.67
808.909	75.39
809.083	68.95
809.258	67.77
809.432	66.71
809.606	55.65
809.781	56.78
809.955	62.88
810.13	62.23
810.304	57.32
810.478	50.11
810.652	53.2
810.827	58.05
811.001	54.7
811.175	53.52
811.349	57.98
811.524	58.68
811.698	45.5
811.872	46.91
812.046	55.54
812.22	72.36
812.394	67.9
812.568	77.51
812.742	82.37
812.916	77.67
813.09	59.93
813.264	53.26
813.438	51.45
813.612	44.17
813.786	39.27
813.96	52.92
814.134	56.79
814.308	59.81
814.482	64.41
814.656	61.59
814.83	55.15
815.003	50.92
815.177	42.25
815.351	35.37
815.525	43.77
815.698	39.81
815.872	37.73
816.046	32.18
816.219	39.33
816.393	47.1
816.567	59.65
816.74	64.42
816.914	73.64
817.088	84.68
817.261	67.77
817.435	46.36
817.608	45.16
817.782	29.75
817.955	26.3
818.129	32.13
818.302	39.69
818.475	52.23
818.649	57.19
818.822	53.63
818.996	72.88
819.169	72.52
819.342	48.5
819.516	63.3
819.689	66.42
819.862	51.98
820.035	51.52
820.209	56.32
820.382	44.96
820.555	44.94
820.728	37.25
820.901	38.18
821.075	39.55
821.248	54.88
821.421	41
821.594	48.46
821.767	68.51
821.94	75.51
822.113	54.44
822.286	48.13
822.459	55.94
822.632	31.61
822.805	13.6
822.978	13.65
823.151	19.1
823.324	11.84
823.496	-6.66
823.669	11.95
823.842	22.02
824.015	10.24
824.188	13.48
824.361	33.86
824.533	30.14
824.706	41.41
824.879	46.28
825.051	49.52
825.224	48.48
825.397	42.13
825.569	26.81
825.742	47.19
825.915	53.41
826.087	63.57
826.26	53.98
826.432	46.51
826.605	45.91
826.777	29.37
826.95	26.55
827.122	11.29
827.295	11.1
827.467	13.93
827.64	-10.32
827.812	-21.61
827.984	-10
828.157	-4.38
828.329	-43.77
828.501	-20.56
828.674	-0.36
828.846	-0.99
829.018	9.58
829.19	6.33
829.363	32.46
829.535	30.58
829.707	24.54
829.879	9.45
830.051	-0.33
830.223	-11.18
830.395	-36.47
830.568	-36.96
830.74	-46.2
830.912	4.3
831.084	-19.55
831.256	1.39
831.428	-2.78
831.6	-9.59
831.772	-47.53
831.943	-49.43
832.115	-23.21
832.287	0.79
832.459	20.62
832.631	31.31
832.803	55.61
832.975	58.99
833.146	52.05
833.318	41.77
833.49	45.99
833.662	25.75
833.833	8.71
834.005	14.51
834.177	23.89
834.348	22.35
834.52	10.98
834.692	26.11
834.863	-10.81
835.035	-21.14
835.206	-81.86
835.378	-44.97
835.549	-53.19
835.721	-4.86
835.892	-2.2
836.064	19.27
836.235	22.76
836.407	48.87
836.578	-2.75
836.749	-8.81
836.921	-64.82
837.092	-96.85
837.264	-82.29
837.435	-76.92
837.606	-16.16
837.777	24.77
837.949	43.09
838.12	38.71
838.291	53.7
838.462	31.64
838.633	4.04
838.805	-0.13
838.976	6.39
839.147	-55.53
839.318	-64.28
839.489	-105.86
839.66	-74.82
839.831	-43.79
840.002	-26.19
840.173	-39.44
840.344	11.43
840.515	-53.02
840.686	-201.07
840.857	-168.97
841.028	-92.3
841.199	-86.47
841.369	-83.08
841.54	-65.73
841.711	-22.74
841.882	4.16
842.053	4.41
842.223	9.5
842.394	48.25
842.565	41.34
842.736	26.2
842.906	27.68
843.077	45.15
843.248	42.14
843.418	44.56
843.589	-4.11
843.759	89.92
843.93	50.48
844.101	8.13
844.271	9.04
844.442	38.96
844.612	35.14
844.783	9.27
844.953	3.69
845.123	-6.07
845.294	-26.44
845.464	-217.39
845.635	-33.47
845.805	14.66
845.975	38.18
846.146	-13.71
846.316	-7.93
846.486	-1.08
846.656	16.85
846.827	1.75
846.997	-3.64
847.167	-2.58
847.337	-3.81
847.507	-47.29
847.677	-19.45
847.848	48.65
848.018	40.19
848.188	36.87
848.358	19.33
848.528	-6.42
848.698	-72.17
848.868	-164.59
849.038	-260.77
849.208	-94.63
849.378	-27.25
849.548	-1.25
849.718	2.38
849.887	20.72
850.057	5.06
850.227	-56.37
850.397	-92.06
850.567	-171.95
850.737	-415.76
850.906	-1045.31
851.076	-536.13
851.246	-178.66
851.415	-4.11
851.585	-15.87
851.755	-68.79
851.924	-43.11
852.094	-68.53
852.264	-126.6
852.433	-962.74
852.603	-140.9
852.772	-57.08
852.942	-38.68
853.111	-52.98
853.281	12.38
853.45	13.2
853.62	-42.71
853.789	-88.06
853.959	-102.34
854.128	-103.84
854.297	-143.93
854.467	-153.02
854.636	-82.98
854.805	-18.27
854.975	-68.27
855.144	-78.7
855.313	65.56
855.482	-485.58
855.652	-308.19
855.821	-189.03
855.99	8.65
856.159	33.91
856.328	49.54
856.497	41.4
856.667	43.53
856.836	62.74
857.005	3.84
857.174	-24.68
857.343	-32.83
857.512	-48.16
857.681	-138.17
857.85	-192.27
858.019	-88.79
858.188	-63.63
858.356	-57.2
858.525	-85.88
858.694	-31.33
858.863	-94.42
859.032	-93.3
859.201	-163.38
859.369	-70.22
859.538	-47.07
859.707	-33.58
859.876	-64.27
860.044	-13.22
860.213	27.31
860.382	16.75
860.55	19.32
860.719	54.69
860.888	47.73
861.056	10.92
861.225	13.54
861.393	21.93
861.562	45.11
861.73	-15.67
861.899	-211.65
862.067	-3049.14
862.236	-82.29
862.404	-343.88
862.572	-256.05
862.741	-78.06
862.909	-52.05
863.078	-213.06
863.246	-155.22
863.414	-110.86
863.582	-118.24
863.751	-142.83
863.919	-93.75
864.087	-8.57
864.255	-42.15
864.424	-303.29
864.592	-24.48
864.76	-69.27
864.928	-198.6
865.096	-117.28
865.264	-38.61
865.432	-1375.57
865.6	-80.63
865.768	-115.21
865.936	-110.25
866.104	-119.43
866.272	-136.64
866.44	-433.17
866.608	689.27
866.776	320.23
866.944	2628.49
867.112	-514.51
867.28	-155.35
867.448	-27.25
867.615	12.62
867.783	22.03
867.951	4.92
868.119	33.7
868.286	14.49
868.454	-78.53
868.622	-96.48
868.789	-139.57
868.957	-2823.21
869.125	-2263.82
869.292	-145.02
869.46	-268.83
869.627	-43.68
869.795	-55.82
869.963	-25.65
870.13	-7.58
870.298	14.02
870.465	-64.72
870.632	-58.76
870.8	-41.3
870.967	-87.98
871.135	-150.39
871.302	-95.91
871.469	-149.17
871.637	-185.5
871.804	-85.41
871.971	-107.76
872.139	-443.37
872.306	7.03
872.473	-45.84
872.64	-264.91
872.807	-54.3
872.975	68.25
873.142	-131.73
873.309	889.86
873.476	85.21
873.643	144.81
873.81	75.55
873.977	63.8
874.144	68.72
874.311	-43.59
874.478	-112.75
874.645	-120.29
874.812	-59.42
874.979	-71.55
875.146	-73.12
875.313	-95.95
875.48	-28.98
875.647	-40.71
875.813	-65.1
875.98	-42.36
876.147	-40.56
876.314	-76.79
876.481	797.73
876.647	-990.17
876.814	358.68
876.981	-34.33
877.147	-61.32
877.314	1.61
877.481	36.27
877.647	38.56
877.814	-26.14
877.98	-81.61
878.147	-49.76
878.314	-6.47
878.48	-69.11
878.647	-12.98
878.813	74.69
878.979	64.54
879.146	15.66
879.312	1.29
879.479	-24.29
879.645	-182.39
879.811	-391.56
879.978	-970.42
880.144	-205.41
880.31	-134.2
880.477	-359.95
880.643	-377.9
880.809	-107.03
880.975	-119.16
881.142	-891.14
881.308	-134.62
881.474	-53.1
881.64	-84.9
881.806	-165.49
881.972	-47.93
882.138	-29.32
882.304	-30.04
882.47	-149.4
882.636	-611.68
882.802	-215.68
882.968	-41.34
883.134	-23.89
883.3	-35.65
883.466	27.04
883.632	66.85
883.798	25.2
883.964	13.88
884.129	17.79
884.295	16.21
884.461	-52.6
884.627	-57.31
884.793	-62.37
884.958	-15.76
885.124	-89.76
885.29	-177.51
885.455	-232.65
885.621	-62.91
885.787	-178.73
885.952	-98.74
886.118	-86.78
886.283	-90.78
886.449	-216.99
886.614	-209.33
886.78	-479.71
886.945	1916.8
887.111	-805.92
887.276	-660.94
887.442	-970.23
887.607	-332.19
887.773	-227.15
887.938	-233.22
888.103	-229.18
888.269	-173.27
888.434	-306.08
888.599	-114.28
888.764	-1.61
888.93	8.54
889.095	-8.87
889.26	-47.72
889.425	19.49
889.59	91.56
889.756	15.13
889.921	2.09
890.086	49.13
890.251	-0.29
890.416	-236.67
890.581	-1726.21
890.746	207.59
890.911	316.72
891.076	155.5
891.241	-169.59
891.406	82.51
891.571	18.66
891.736	-170.3
891.901	-477.21
892.065	813.46
892.23	164.42
892.395	281.07
892.56	489.67
892.725	-688.48
892.889	-1659.15
893.054	-331.94
893.219	-129.2
893.384	-58.51
893.548	-131.12
893.713	-154.81
893.878	-111.8
