Data from Ofra_2a_PS_4CX12_Reflection_1.txt Node
Date: Tue Jul 20 09:49:08 EDT 2021
User: Adam
Spectrometer: FLMT01687
Trigger mode: 0
Integration Time (sec): 9.450000E-1
Scans to average: 3
Electric dark correction enabled: true
Nonlinearity correction enabled: false
Boxcar width: 3
XAxis mode: Wavelengths
Number of Pixels in Spectrum: 3648
>>>>>Begin Spectral Data<<<<<
179.494	1068.05
179.716	550.97
179.937	537.91
180.158	2167.58
180.38	-953.78
180.601	-135.41
180.823	-42.26
181.044	92.73
181.265	19.5
181.486	41.06
181.708	-57.61
181.929	60.81
182.15	51.7
182.372	9.12
182.593	15.84
182.814	202.25
183.035	258.57
183.257	131
183.478	67.89
183.699	69.8
183.92	58.9
184.141	64.3
184.363	57.84
184.584	36.73
184.805	53.25
185.026	68.45
185.247	52.07
185.468	64.96
185.689	51.43
185.91	42.65
186.132	45.6
186.353	28.46
186.574	35.32
186.795	29.37
187.016	30.24
187.237	28.59
187.458	18.48
187.679	21.15
187.9	27.77
188.121	33.6
188.342	55.2
188.563	62.58
188.784	67.83
189.005	73.73
189.226	63.49
189.447	59.85
189.667	46.28
189.888	45.53
190.109	41.42
190.33	33.38
190.551	31.14
190.772	21.7
190.993	26.89
191.214	25.36
191.434	20.92
191.655	23.72
191.876	28.62
192.097	30.57
192.318	35.42
192.538	30.09
192.759	38.15
192.98	31.95
193.201	46.05
193.421	51
193.642	47.99
193.863	63.84
194.083	53.23
194.304	50.47
194.525	61.02
194.745	28.93
194.966	23.32
195.187	33.06
195.407	26.2
195.628	33.22
195.848	28.89
196.069	15.03
196.29	13.89
196.51	8.49
196.731	17.3
196.951	11.57
197.172	0.77
197.392	16.99
197.613	18.46
197.833	36.19
198.054	42.75
198.274	26.52
198.495	47.93
198.715	53.44
198.936	66.56
199.156	61.06
199.377	67.7
199.597	48.94
199.817	69.68
200.038	55.05
200.258	63.89
200.479	76.35
200.699	95.88
200.919	66.91
201.14	73.56
201.36	69.15
201.58	72.56
201.801	51.69
202.021	40.05
202.241	32.72
202.461	48.39
202.682	59.54
202.902	54.03
203.122	47.03
203.342	69.98
203.563	64.45
203.783	61.44
204.003	61.97
204.223	54.76
204.443	46.72
204.663	43.98
204.884	38.79
205.104	47.94
205.324	55.25
205.544	66.25
205.764	75.43
205.984	65.7
206.204	76.73
206.424	54.81
206.644	36.62
206.864	25.47
207.084	29.06
207.304	12.68
207.525	24.02
207.745	17.59
207.964	23.65
208.184	26.35
208.404	26.38
208.624	-2.87
208.844	8.37
209.064	10.82
209.284	16.45
209.504	16.19
209.724	8.15
209.944	7.58
210.164	19.47
210.384	25.78
210.604	16
210.823	14.23
211.043	9.03
211.263	36.72
211.483	30.84
211.703	36.59
211.922	41.77
212.142	53.64
212.362	55.15
212.582	50.65
212.801	47.47
213.021	53.62
213.241	36.08
213.461	23.71
213.68	19.19
213.9	28.76
214.12	34.56
214.339	28.32
214.559	41.89
214.779	47.75
214.998	48.45
215.218	43.72
215.438	44.85
215.657	39.41
215.877	33.37
216.096	30.95
216.316	32.62
216.535	29.62
216.755	15.97
216.974	13.31
217.194	21.86
217.413	30.4
217.633	17.98
217.852	11.36
218.072	-0.37
218.291	29.04
218.511	20.55
218.73	12.92
218.95	19.78
219.169	28.72
219.389	24.52
219.608	39.71
219.827	39.22
220.047	53.64
220.266	43.75
220.485	35.64
220.705	24.6
220.924	35.1
221.143	22.16
221.363	18.83
221.582	15.44
221.801	18.29
222.021	17.95
222.24	20.19
222.459	17.99
222.678	22.78
222.897	15.24
223.117	13.03
223.336	8.4
223.555	4.55
223.774	18.14
223.993	32.19
224.213	26.77
224.432	32.99
224.651	26.31
224.87	39.01
225.089	42.37
225.308	33.44
225.527	19.73
225.746	28.3
225.965	30.99
226.184	38.58
226.404	35.62
226.623	52.59
226.842	43.82
227.061	50.79
227.28	56.78
227.499	46.49
227.718	37.52
227.936	33.11
228.155	24.5
228.374	34.08
228.593	27.53
228.812	17.33
229.031	17.98
229.25	32.17
229.469	41.24
229.688	44.13
229.907	36.89
230.125	35.3
230.344	42.87
230.563	46.1
230.782	39.52
231.001	42.1
231.22	38.58
231.438	41.43
231.657	47.11
231.876	52.79
232.095	52.96
232.313	59.61
232.532	54.56
232.751	53.83
232.969	68.52
233.188	75.62
233.407	73.64
233.625	64.38
233.844	62.72
234.063	62.02
234.281	58.07
234.5	47.96
234.719	39.29
234.937	43.57
235.156	44.62
235.374	41.09
235.593	41.87
235.811	39.24
236.03	31.38
236.249	31.44
236.467	22.87
236.686	27.63
236.904	24.94
237.123	26.42
237.341	32.67
237.559	33.34
237.778	39.18
237.996	40.44
238.215	30.9
238.433	35.08
238.652	29.52
238.87	29.09
239.088	18.83
239.307	21.9
239.525	7.06
239.743	-0.32
239.962	-10.14
240.18	0.42
240.398	5.55
240.617	19.82
240.835	15.33
241.053	33.42
241.271	46.48
241.49	46.21
241.708	34.11
241.926	25.87
242.144	24.4
242.363	23.5
242.581	26.2
242.799	17.79
243.017	21.61
243.235	13.3
243.453	24.23
243.672	26
243.89	32.16
244.108	31.64
244.326	39.06
244.544	43.83
244.762	48.93
244.98	38.27
245.198	35.09
245.416	29.78
245.634	26.86
245.852	35.36
246.07	34.64
246.288	39.27
246.506	51.69
246.724	62.87
246.942	65.62
247.16	67.41
247.378	44.49
247.596	51
247.814	38.7
248.032	33.98
248.25	18.89
248.468	23.19
248.685	25.18
248.903	35.09
249.121	33.34
249.339	46.05
249.557	40.98
249.775	32.27
249.992	20.83
250.21	8.49
250.428	12.27
250.646	3.71
250.863	11.19
251.081	11.69
251.299	35.71
251.517	45.86
251.734	47.89
251.952	57.37
252.17	48.73
252.387	35.91
252.605	35.08
252.823	11.42
253.04	8.49
253.258	18.47
253.475	11.02
253.693	34.68
253.911	28.67
254.128	26.64
254.346	35.72
254.563	32.71
254.781	27.11
254.998	19.75
255.216	19.83
255.433	25.19
255.651	30.3
255.868	28.29
256.086	36.79
256.303	35.91
256.521	41.77
256.738	39.15
256.956	33.13
257.173	28.67
257.39	34.74
257.608	38.65
257.825	45.13
258.043	49.49
258.26	39.13
258.477	39.49
258.695	37.46
258.912	37.29
259.129	15.82
259.346	17.4
259.564	7.87
259.781	21.93
259.998	19.26
260.216	28
260.433	14.04
260.65	30.55
260.867	21.83
261.084	28.37
261.302	23.27
261.519	24.71
261.736	21.15
261.953	35.42
262.17	32.8
262.387	43.32
262.604	23.4
262.822	16.98
263.039	6.25
263.256	1.03
263.473	-4.96
263.69	-11.97
263.907	-12.17
264.124	-0.52
264.341	3.44
264.558	17.44
264.775	30.57
264.992	33.5
265.209	38.97
265.426	38.89
265.643	46.7
265.86	42.13
266.077	41.71
266.294	37.24
266.51	37.53
266.727	34.93
266.944	30.19
267.161	7.77
267.378	15.29
267.595	3.6
267.812	6.35
268.028	6.72
268.245	4.71
268.462	13.8
268.679	24.76
268.896	18.79
269.112	25.9
269.329	23.06
269.546	21.6
269.763	21.75
269.979	14.34
270.196	17.59
270.413	25.56
270.629	26.12
270.846	31.69
271.063	35.17
271.279	31.38
271.496	25.75
271.712	28.8
271.929	35.94
272.146	39.61
272.362	17.56
272.579	7.21
272.795	11.62
273.012	15.63
273.228	7.03
273.445	-3.55
273.661	-8.71
273.878	11.72
274.094	17.58
274.311	16.01
274.527	20.37
274.744	21.55
274.96	16.95
275.177	32.1
275.393	30.73
275.609	33.65
275.826	46.31
276.042	58.59
276.259	57.62
276.475	53.24
276.691	45.22
276.908	46.21
277.124	42.91
277.34	32.38
277.557	21.82
277.773	27.15
277.989	32.57
278.205	13.6
278.422	7.46
278.638	16.73
278.854	21.65
279.07	21.42
279.286	11.91
279.503	18.04
279.719	41.89
279.935	42.33
280.151	36.25
280.367	36.24
280.583	35.63
280.799	49.67
281.016	40.87
281.232	32.38
281.448	27.16
281.664	32.6
281.88	35.69
282.096	36
282.312	19.91
282.528	24.51
282.744	17.8
282.96	21.62
283.176	22.23
283.392	28.31
283.608	38.73
283.824	36.8
284.04	32.55
284.256	43.22
284.471	41.66
284.687	34.87
284.903	27.02
285.119	8.06
285.335	16.23
285.551	22.7
285.767	11.72
285.982	15.65
286.198	20.12
286.414	27.77
286.63	38.92
286.846	34.82
287.061	39.37
287.277	49.07
287.493	48.83
287.709	39.1
287.924	35.68
288.14	43.86
288.356	50.02
288.571	47.33
288.787	44.28
289.003	50.45
289.218	52.14
289.434	51.86
289.65	47.8
289.865	51.16
290.081	41.46
290.296	36.54
290.512	37.66
290.727	51.84
290.943	48.02
291.159	38.18
291.374	38.05
291.59	38.4
291.805	55.47
292.021	45.89
292.236	33.87
292.451	45.24
292.667	45.44
292.882	31.6
293.098	32.75
293.313	20.71
293.529	27.97
293.744	25.1
293.959	30.05
294.175	27.37
294.39	40.07
294.605	42.74
294.821	37.86
295.036	37.28
295.251	39.09
295.467	15.05
295.682	17.73
295.897	18.12
296.112	18.68
296.328	18.24
296.543	13.23
296.758	11.56
296.973	23.34
297.188	22.84
297.404	22.83
297.619	23.15
297.834	34.93
298.049	33.25
298.264	34.8
298.479	28.44
298.694	29.51
298.909	28.49
299.125	33.06
299.34	21.8
299.555	29.07
299.77	24.93
299.985	18.62
300.2	21.89
300.415	24.47
300.63	12.45
300.845	21.86
301.06	16.53
301.275	27.26
301.49	32.04
301.704	26.93
301.919	21.35
302.134	19.36
302.349	13.48
302.564	14.18
302.779	-0.58
302.994	-1.56
303.209	-9.18
303.423	2.45
303.638	24.72
303.853	29.88
304.068	24.23
304.283	24.18
304.497	26.46
304.712	33.83
304.927	25.21
305.142	18.26
305.356	17.24
305.571	24.99
305.786	31.04
306	30.67
306.215	31.49
306.43	38.38
306.644	38
306.859	38.51
307.074	29.68
307.288	26.74
307.503	27.72
307.717	28.07
307.932	31.41
308.147	35.99
308.361	37.9
308.576	34.45
308.79	30.52
309.005	32.27
309.219	35.28
309.434	26.7
309.648	11.03
309.863	7.59
310.077	11.42
310.292	11.98
310.506	20.65
310.72	22.71
310.935	33.47
311.149	38.3
311.364	48.74
311.578	47.73
311.792	44.19
312.007	34.25
312.221	38.1
312.435	33.29
312.649	27.31
312.864	12.17
313.078	12.59
313.292	23.37
313.507	47.32
313.721	34.85
313.935	50.24
314.149	53.6
314.363	55.89
314.578	83.79
314.792	76.97
315.006	61.59
315.22	62.47
315.434	54.14
315.648	50.1
315.862	52.22
316.077	31.42
316.291	43.92
316.505	56.66
316.719	41.09
316.933	40.79
317.147	44.05
317.361	42.94
317.575	45.87
317.789	44.64
318.003	30.94
318.217	44.96
318.431	43.42
318.645	48.34
318.859	37.91
319.073	32.59
319.287	29.22
319.5	31.9
319.714	25.24
319.928	27.44
320.142	23.12
320.356	31.62
320.57	24.91
320.784	26.57
320.997	31.52
321.211	38.51
321.425	33
321.639	36.94
321.853	35.26
322.066	41.68
322.28	36.92
322.494	33.29
322.707	27.95
322.921	33.99
323.135	28.82
323.349	33.72
323.562	35.89
323.776	39.3
323.989	39.17
324.203	45.04
324.417	33.29
324.63	29.05
324.844	19.59
325.057	21.85
325.271	9.24
325.485	19.93
325.698	17.74
325.912	30.77
326.125	43.8
326.339	50.47
326.552	54.67
326.766	65.65
326.979	59.62
327.193	62.02
327.406	51.69
327.619	33.56
327.833	19.72
328.046	4.76
328.26	-11.11
328.473	-5.35
328.686	-2.43
328.9	4.62
329.113	16.31
329.326	33
329.54	46.74
329.753	49.86
329.966	39.85
330.179	37.9
330.393	39.7
330.606	43.14
330.819	43.66
331.032	38.14
331.246	40.57
331.459	47.93
331.672	53.31
331.885	43.89
332.098	45.55
332.311	32.33
332.525	37.48
332.738	30.86
332.951	27.59
333.164	25.43
333.377	33.02
333.59	38.57
333.803	43.94
334.016	47.18
334.229	47.05
334.442	45.95
334.655	50.07
334.868	43.22
335.081	37.26
335.294	32.91
335.507	33.91
335.72	26.99
335.933	28.09
336.146	19.21
336.359	19.16
336.572	13.21
336.785	21.42
336.997	20.79
337.21	28.26
337.423	30.59
337.636	30.81
337.849	38.9
338.062	45.25
338.274	37.38
338.487	31.76
338.7	33.22
338.913	29.48
339.125	32.88
339.338	27.33
339.551	28.83
339.763	29.42
339.976	29.6
340.189	23.69
340.402	25.1
340.614	26.39
340.827	18.39
341.039	15.33
341.252	14.6
341.465	8.17
341.677	4.2
341.89	2.01
342.102	2.14
342.315	15.43
342.527	10.1
342.74	3.22
342.952	14.6
343.165	29.2
343.377	34.05
343.59	35.89
343.802	37.68
344.015	36.95
344.227	40.09
344.44	33.12
344.652	32.41
344.864	36.2
345.077	26.71
345.289	19.2
345.502	25.83
345.714	29.15
345.926	33.86
346.139	27.25
346.351	9.21
346.563	28.51
346.775	25.43
346.988	15.98
347.2	18.15
347.412	19.18
347.624	22.21
347.837	28
348.049	23.29
348.261	30.17
348.473	30.15
348.685	33.31
348.897	29.73
349.11	24.78
349.322	17.53
349.534	11.47
349.746	10.72
349.958	19.25
350.17	7.96
350.382	4.64
350.594	9.53
350.806	20.88
351.018	28.66
351.23	30.72
351.442	26.02
351.654	35.3
351.866	44.73
352.078	43.96
352.29	45.3
352.502	48.02
352.714	44.44
352.926	50.31
353.138	40.14
353.35	32.93
353.561	26.42
353.773	23.56
353.985	21.7
354.197	14.55
354.409	10.82
354.621	14.39
354.832	14.07
355.044	24.8
355.256	21.14
355.468	19.91
355.679	30.39
355.891	29.28
356.103	30.2
356.314	30.11
356.526	29.08
356.738	23.3
356.949	20.04
357.161	12.98
357.373	17.43
357.584	30.76
357.796	33.58
358.008	26.45
358.219	39.82
358.431	46.42
358.642	43.71
358.854	35.62
359.065	19.95
359.277	15.52
359.488	14.96
359.7	10.02
359.911	1.76
360.123	18
360.334	20.47
360.546	19.63
360.757	18.61
360.969	25.91
361.18	25.46
361.391	25.88
361.603	20.67
361.814	24.66
362.025	28.03
362.237	35.59
362.448	32.5
362.659	24.5
362.871	31.66
363.082	30.32
363.293	29.78
363.504	41
363.716	34.13
363.927	33.83
364.138	37.54
364.349	33.9
364.56	29.02
364.772	25.85
364.983	10.84
365.194	13
365.405	10.93
365.616	5.05
365.827	3.37
366.038	17.53
366.25	22.93
366.461	29.38
366.672	27.7
366.883	29.56
367.094	28.77
367.305	26.14
367.516	15.49
367.727	13.55
367.938	13.27
368.149	14.1
368.36	12.38
368.571	14.94
368.781	18.31
368.992	21.15
369.203	21.1
369.414	17.55
369.625	16.49
369.836	20.11
370.047	27.17
370.258	23.06
370.468	20.19
370.679	17.78
370.89	27.6
371.101	31.98
371.312	30.39
371.522	30.29
371.733	27.5
371.944	32.6
372.155	21.59
372.365	12.11
372.576	7.54
372.787	2.85
372.997	1.09
373.208	6.42
373.419	-0.61
373.629	13.15
373.84	9.24
374.05	13.76
374.261	14.21
374.472	9.69
374.682	9.5
374.893	8.44
375.103	14.53
375.314	17.64
375.524	21.82
375.735	25.22
375.945	26.95
376.156	32.81
376.366	40.82
376.577	33.75
376.787	38.48
376.997	33.4
377.208	30.54
377.418	29.46
377.629	25.17
377.839	23.9
378.049	31.91
378.26	27.82
378.47	28.83
378.68	28.93
378.89	33.78
379.101	23.85
379.311	13.91
379.521	13.42
379.732	8.21
379.942	6.72
380.152	12.86
380.362	14.19
380.572	24
380.783	25.1
380.993	24.96
381.203	32.06
381.413	37.14
381.623	29.54
381.833	22.63
382.043	21.92
382.253	30.79
382.463	27.81
382.674	29.12
382.884	20.95
383.094	25.95
383.304	28.41
383.514	29.49
383.724	27
383.934	26.08
384.144	22.75
384.353	22.91
384.563	18.65
384.773	19.48
384.983	16.31
385.193	17
385.403	15.68
385.613	14.32
385.823	17.32
386.033	20.59
386.242	16.97
386.452	17.58
386.662	16.53
386.872	17.28
387.082	17.49
387.291	19.13
387.501	19.96
387.711	22.47
387.921	19.97
388.13	20.35
388.34	20.8
388.55	23.51
388.759	18.37
388.969	15.14
389.179	17.62
389.388	19.11
389.598	17.18
389.807	17.67
390.017	15.51
390.227	16.03
390.436	16.6
390.646	14.89
390.855	14.74
391.065	13.44
391.274	11.04
391.484	11.34
391.693	12.41
391.903	12.13
392.112	11.42
392.322	12.43
392.531	12.66
392.74	12.85
392.95	14.37
393.159	14.64
393.369	13.64
393.578	12.99
393.787	12.03
393.997	12.06
394.206	11.85
394.415	10.06
394.625	8.63
394.834	8.7
395.043	9.34
395.252	9.17
395.462	9.18
395.671	9.83
395.88	9.42
396.089	10.27
396.298	10.71
396.508	10.24
396.717	9.73
396.926	9.52
397.135	8.88
397.344	9.41
397.553	9.12
397.762	8.99
397.971	8.99
398.181	9.18
398.39	9.04
398.599	9.4
398.808	9.31
399.017	9.9
399.226	9.97
399.435	9.98
399.644	9.87
399.853	10.02
400.062	9.72
400.27	9.73
400.479	9.33
400.688	9.18
400.897	9.33
401.106	9.4
401.315	9.23
401.524	9.08
401.733	9.09
401.941	8.96
402.15	8.83
402.359	8.69
402.568	8.7
402.777	8.63
402.985	8.74
403.194	8.59
403.403	8.58
403.612	8.6
403.82	8.68
404.029	8.7
404.238	8.81
404.446	8.79
404.655	8.7
404.864	8.68
405.072	8.65
405.281	8.38
405.489	8.36
405.698	8.17
405.906	8.11
406.115	8.17
406.324	8.07
406.532	8.15
406.741	8.23
406.949	8.11
407.158	8.21
407.366	8.25
407.574	8.25
407.783	8.27
407.991	8.14
408.2	8.05
408.408	8.09
408.617	8.04
408.825	8.04
409.033	7.97
409.242	7.92
409.45	7.92
409.658	7.97
409.867	7.96
410.075	7.91
410.283	7.81
410.491	7.81
410.7	7.86
410.908	7.86
411.116	7.83
411.324	7.83
411.533	7.8
411.741	7.77
411.949	7.82
412.157	7.84
412.365	7.88
412.573	7.85
412.781	7.8
412.99	7.96
413.198	8.07
413.406	8.02
413.614	8.03
413.822	7.97
414.03	7.91
414.238	8.02
414.446	7.91
414.654	7.84
414.862	7.77
415.07	7.74
415.278	7.72
415.486	7.87
415.694	7.65
415.902	7.6
416.109	7.67
416.317	7.7
416.525	7.67
416.733	7.72
416.941	7.61
417.149	7.78
417.357	7.72
417.564	7.58
417.772	7.47
417.98	7.43
418.188	7.3
418.395	7.26
418.603	7.11
418.811	7.15
419.019	7.14
419.226	7.32
419.434	7.21
419.642	7.29
419.849	7.3
420.057	7.35
420.265	7.35
420.472	7.31
420.68	7.21
420.887	7.33
421.095	7.28
421.302	7.29
421.51	7.34
421.717	7.36
421.925	7.37
422.132	7.3
422.34	7.22
422.547	7.18
422.755	7.17
422.962	7.06
423.17	6.93
423.377	6.94
423.585	7.06
423.792	7.03
423.999	7.07
424.207	6.99
424.414	7.03
424.621	7.22
424.829	7.22
425.036	7.19
425.243	7.28
425.451	7.25
425.658	7.36
425.865	7.26
426.072	7.21
426.28	7.23
426.487	7.13
426.694	7.04
426.901	6.99
427.108	6.93
427.315	6.97
427.523	6.96
427.73	6.94
427.937	6.96
428.144	7.01
428.351	7.16
428.558	7.14
428.765	7.13
428.972	7.08
429.179	7.01
429.386	7.07
429.593	7.11
429.8	7.06
430.007	7.11
430.214	7.23
430.421	7.32
430.628	7.35
430.835	7.36
431.042	7.36
431.249	7.36
431.456	7.46
431.662	7.44
431.869	7.5
432.076	7.63
432.283	7.58
432.49	7.56
432.697	7.65
432.903	7.64
433.11	7.68
433.317	7.67
433.524	7.53
433.73	7.57
433.937	7.6
434.144	7.6
434.35	7.63
434.557	7.53
434.764	7.47
434.97	7.6
435.177	7.62
435.384	7.71
435.59	7.61
435.797	7.53
436.003	7.55
436.21	7.49
436.416	7.45
436.623	7.46
436.829	7.4
437.036	7.48
437.242	7.55
437.449	7.65
437.655	7.77
437.862	7.78
438.068	7.87
438.275	7.9
438.481	7.92
438.687	7.97
438.894	7.94
439.1	7.95
439.307	7.92
439.513	7.9
439.719	7.95
439.926	7.96
440.132	7.9
440.338	7.87
440.544	7.85
440.751	7.89
440.957	7.81
441.163	7.78
441.369	7.73
441.575	7.69
441.782	7.71
441.988	7.73
442.194	7.8
442.4	7.89
442.606	7.93
442.812	8
443.018	8.04
443.224	8.06
443.431	8.1
443.637	8.03
443.843	8.06
444.049	8.03
444.255	7.98
444.461	8.01
444.667	7.98
444.873	7.91
445.079	7.96
445.284	7.91
445.49	7.88
445.696	7.93
445.902	7.97
446.108	8.04
446.314	8.1
446.52	8.14
446.726	8.1
446.931	8.15
447.137	8.15
447.343	8.08
447.549	8.08
447.755	8.03
447.96	8.01
448.166	8.07
448.372	8.01
448.578	8.04
448.783	8.06
448.989	8.05
449.195	8.09
449.4	8.12
449.606	8.1
449.812	8.17
450.017	8.14
450.223	8.14
450.428	8.18
450.634	8.24
450.84	8.24
451.045	8.22
451.251	8.24
451.456	8.19
451.662	8.22
451.867	8.25
452.073	8.22
452.278	8.21
452.483	8.24
452.689	8.22
452.894	8.29
453.1	8.24
453.305	8.21
453.51	8.24
453.716	8.23
453.921	8.24
454.127	8.22
454.332	8.17
454.537	8.31
454.742	8.3
454.948	8.24
455.153	8.28
455.358	8.36
455.563	8.37
455.769	8.45
455.974	8.39
456.179	8.36
456.384	8.38
456.589	8.39
456.795	8.33
457	8.38
457.205	8.31
457.41	8.32
457.615	8.37
457.82	8.43
458.025	8.47
458.23	8.51
458.435	8.47
458.64	8.53
458.845	8.44
459.05	8.43
459.255	8.39
459.46	8.38
459.665	8.35
459.87	8.37
460.075	8.38
460.28	8.49
460.485	8.56
460.69	8.53
460.895	8.57
461.099	8.61
461.304	8.65
461.509	8.63
461.714	8.61
461.919	8.59
462.123	8.7
462.328	8.7
462.533	8.71
462.738	8.68
462.942	8.74
463.147	8.78
463.352	8.8
463.556	8.75
463.761	8.76
463.966	8.75
464.17	8.82
464.375	8.84
464.58	8.84
464.784	8.84
464.989	8.86
465.193	8.87
465.398	8.89
465.602	8.9
465.807	8.87
466.011	8.96
466.216	8.97
466.42	9.03
466.625	9.01
466.829	9.04
467.034	9.05
467.238	9.13
467.443	9.12
467.647	9.15
467.851	9.14
468.056	9.15
468.26	9.14
468.464	9.15
468.669	9.21
468.873	9.13
469.077	9.13
469.282	9.16
469.486	9.17
469.69	9.18
469.894	9.18
470.099	9.12
470.303	9.18
470.507	9.24
470.711	9.22
470.915	9.27
471.119	9.34
471.324	9.34
471.528	9.37
471.732	9.39
471.936	9.38
472.14	9.35
472.344	9.37
472.548	9.38
472.752	9.4
472.956	9.43
473.16	9.41
473.364	9.42
473.568	9.48
473.772	9.48
473.976	9.45
474.18	9.45
474.384	9.44
474.588	9.48
474.792	9.46
474.995	9.46
475.199	9.47
475.403	9.52
475.607	9.57
475.811	9.57
476.015	9.58
476.218	9.62
476.422	9.67
476.626	9.64
476.83	9.61
477.033	9.61
477.237	9.63
477.441	9.64
477.644	9.65
477.848	9.62
478.052	9.63
478.255	9.63
478.459	9.64
478.663	9.65
478.866	9.61
479.07	9.6
479.273	9.62
479.477	9.66
479.681	9.67
479.884	9.66
480.088	9.66
480.291	9.73
480.495	9.77
480.698	9.75
480.901	9.75
481.105	9.77
481.308	9.77
481.512	9.77
481.715	9.78
481.919	9.77
482.122	9.76
482.325	9.8
482.529	9.86
482.732	9.89
482.935	9.93
483.138	9.9
483.342	9.93
483.545	9.98
483.748	9.99
483.952	9.95
484.155	9.99
484.358	9.89
484.561	9.91
484.764	9.93
484.967	9.98
485.171	9.95
485.374	9.97
485.577	9.9
485.78	9.96
485.983	9.98
486.186	9.94
486.389	9.82
486.592	9.8
486.795	9.75
486.998	9.78
487.201	9.77
487.404	9.79
487.607	9.81
487.81	9.87
488.013	9.87
488.216	9.87
488.419	9.89
488.622	9.84
488.825	9.78
489.028	9.75
489.231	9.75
489.433	9.75
489.636	9.73
489.839	9.72
490.042	9.78
490.245	9.81
490.447	9.82
490.65	9.8
490.853	9.84
491.056	9.83
491.258	9.83
491.461	9.81
491.664	9.78
491.866	9.81
492.069	9.81
492.272	9.77
492.474	9.78
492.677	9.72
492.879	9.74
493.082	9.77
493.285	9.73
493.487	9.72
493.69	9.71
493.892	9.78
494.095	9.81
494.297	9.81
494.5	9.77
494.702	9.74
494.905	9.77
495.107	9.8
495.309	9.73
495.512	9.73
495.714	9.74
495.917	9.76
496.119	9.8
496.321	9.79
496.524	9.76
496.726	9.77
496.928	9.81
497.13	9.81
497.333	9.83
497.535	9.81
497.737	9.77
497.939	9.82
498.142	9.81
498.344	9.73
498.546	9.73
498.748	9.7
498.95	9.7
499.152	9.69
499.355	9.64
499.557	9.72
499.759	9.81
499.961	9.8
500.163	9.83
500.365	9.82
500.567	9.84
500.769	9.91
500.971	9.87
501.173	9.83
501.375	9.83
501.577	9.82
501.779	9.85
501.981	9.86
502.183	9.85
502.385	9.85
502.587	9.85
502.788	9.86
502.99	9.89
503.192	9.89
503.394	9.93
503.596	9.94
503.798	9.98
503.999	10.01
504.201	10.05
504.403	10.06
504.605	10.1
504.806	10.08
505.008	10.08
505.21	10.11
505.411	10.16
505.613	10.15
505.815	10.15
506.016	10.17
506.218	10.18
506.42	10.23
506.621	10.25
506.823	10.25
507.024	10.28
507.226	10.28
507.427	10.28
507.629	10.32
507.83	10.29
508.032	10.31
508.233	10.32
508.435	10.34
508.636	10.38
508.838	10.41
509.039	10.44
509.24	10.5
509.442	10.45
509.643	10.46
509.845	10.48
510.046	10.53
510.247	10.57
510.448	10.58
510.65	10.62
510.851	10.71
511.052	10.75
511.254	10.75
511.455	10.71
511.656	10.71
511.857	10.7
512.058	10.71
512.26	10.7
512.461	10.69
512.662	10.71
512.863	10.76
513.064	10.74
513.265	10.76
513.466	10.79
513.667	10.79
513.868	10.82
514.069	10.84
514.27	10.85
514.471	10.86
514.672	10.84
514.873	10.84
515.074	10.85
515.275	10.82
515.476	10.81
515.677	10.81
515.878	10.85
516.079	10.89
516.28	10.86
516.481	10.81
516.682	10.88
516.882	10.89
517.083	10.88
517.284	10.87
517.485	10.87
517.686	10.85
517.886	10.92
518.087	10.89
518.288	10.9
518.488	10.93
518.689	10.88
518.89	10.92
519.091	10.95
519.291	10.93
519.492	10.89
519.692	10.88
519.893	10.86
520.094	10.9
520.294	10.83
520.495	10.85
520.695	10.86
520.896	10.91
521.096	10.92
521.297	10.92
521.497	10.9
521.698	10.94
521.898	10.93
522.099	10.91
522.299	10.89
522.499	10.86
522.7	10.89
522.9	10.89
523.101	10.87
523.301	10.85
523.501	10.88
523.702	10.88
523.902	10.91
524.102	10.88
524.302	10.9
524.503	10.9
524.703	10.9
524.903	10.91
525.103	10.93
525.304	10.92
525.504	10.94
525.704	10.91
525.904	10.89
526.104	10.9
526.304	10.9
526.504	10.85
526.705	10.84
526.905	10.83
527.105	10.84
527.305	10.85
527.505	10.86
527.705	10.83
527.905	10.87
528.105	10.88
528.305	10.86
528.505	10.84
528.705	10.87
528.905	10.85
529.105	10.87
529.304	10.91
529.504	10.91
529.704	10.91
529.904	10.96
530.104	10.94
530.304	10.97
530.503	10.94
530.703	10.92
530.903	10.93
531.103	10.92
531.303	10.93
531.502	10.9
531.702	10.88
531.902	10.89
532.101	10.9
532.301	10.87
532.501	10.91
532.7	10.88
532.9	10.89
533.1	10.91
533.299	10.93
533.499	10.92
533.698	10.98
533.898	10.97
534.097	10.98
534.297	10.98
534.496	10.99
534.696	10.99
534.895	11.02
535.095	11.01
535.294	10.97
535.494	11.02
535.693	11.05
535.892	11.04
536.092	11.01
536.291	11.01
536.491	11
536.69	11.03
536.889	11.01
537.088	11
537.288	11.06
537.487	11.09
537.686	11.12
537.886	11.16
538.085	11.17
538.284	11.2
538.483	11.23
538.682	11.22
538.882	11.27
539.081	11.29
539.28	11.29
539.479	11.31
539.678	11.34
539.877	11.33
540.076	11.33
540.275	11.32
540.474	11.24
540.673	11.23
540.872	11.25
541.071	11.24
541.27	11.26
541.469	11.27
541.668	11.3
541.867	11.38
542.066	11.42
542.265	11.44
542.464	11.5
542.663	11.59
542.862	11.64
543.06	11.65
543.259	11.68
543.458	11.68
543.657	11.71
543.856	11.68
544.054	11.65
544.253	11.66
544.452	11.61
544.651	11.63
544.849	11.65
545.048	11.65
545.247	11.68
545.445	11.69
545.644	11.71
545.843	11.79
546.041	11.81
546.24	11.88
546.438	11.94
546.637	11.95
546.836	11.97
547.034	12
547.233	12.06
547.431	12.09
547.63	12.11
547.828	12.11
548.027	12.12
548.225	12.19
548.423	12.24
548.622	12.21
548.82	12.25
549.019	12.23
549.217	12.33
549.415	12.4
549.614	12.39
549.812	12.43
550.01	12.5
550.209	12.56
550.407	12.65
550.605	12.65
550.803	12.7
551.002	12.76
551.2	12.8
551.398	12.8
551.596	12.84
551.794	12.91
551.993	12.95
552.191	13.03
552.389	13.08
552.587	13.1
552.785	13.18
552.983	13.22
553.181	13.23
553.379	13.26
553.577	13.28
553.775	13.32
553.973	13.41
554.171	13.45
554.369	13.49
554.567	13.54
554.765	13.57
554.963	13.65
555.161	13.74
555.359	13.75
555.557	13.83
555.755	13.91
555.952	13.98
556.15	14.05
556.348	14.1
556.546	14.14
556.744	14.22
556.941	14.3
557.139	14.35
557.337	14.39
557.535	14.46
557.732	14.52
557.93	14.59
558.128	14.64
558.325	14.64
558.523	14.71
558.721	14.78
558.918	14.87
559.116	14.92
559.313	14.98
559.511	15.02
559.708	15.11
559.906	15.18
560.104	15.25
560.301	15.32
560.498	15.36
560.696	15.43
560.893	15.56
561.091	15.65
561.288	15.69
561.486	15.76
561.683	15.81
561.88	15.93
562.078	15.99
562.275	16.07
562.473	16.12
562.67	16.22
562.867	16.31
563.064	16.41
563.262	16.48
563.459	16.58
563.656	16.62
563.853	16.72
564.051	16.77
564.248	16.84
564.445	16.95
564.642	17.05
564.839	17.12
565.036	17.28
565.234	17.43
565.431	17.53
565.628	17.65
565.825	17.74
566.022	17.82
566.219	17.9
566.416	17.93
566.613	17.97
566.81	18.05
567.007	18.06
567.204	18.07
567.401	18.11
567.598	18.19
567.795	18.23
567.991	18.32
568.188	18.36
568.385	18.45
568.582	18.55
568.779	18.64
568.976	18.71
569.172	18.82
569.369	18.87
569.566	18.88
569.763	18.97
569.96	18.97
570.156	18.96
570.353	18.98
570.55	19.05
570.746	19.08
570.943	19.22
571.14	19.23
571.336	19.33
571.533	19.44
571.729	19.51
571.926	19.55
572.123	19.6
572.319	19.64
572.516	19.67
572.712	19.71
572.909	19.75
573.105	19.79
573.302	19.82
573.498	19.87
573.695	19.91
573.891	19.98
574.087	20.02
574.284	20.02
574.48	19.98
574.677	20.02
574.873	20.05
575.069	20.12
575.266	20.14
575.462	20.17
575.658	20.24
575.854	20.35
576.051	20.35
576.247	20.33
576.443	20.33
576.639	20.3
576.835	20.29
577.032	20.29
577.228	20.28
577.424	20.32
577.62	20.36
577.816	20.37
578.012	20.42
578.208	20.46
578.404	20.46
578.6	20.46
578.796	20.48
578.993	20.47
579.189	20.52
579.384	20.55
579.58	20.54
579.776	20.53
579.972	20.48
580.168	20.47
580.364	20.49
580.56	20.45
580.756	20.39
580.952	20.4
581.148	20.42
581.343	20.49
581.539	20.49
581.735	20.46
581.931	20.49
582.127	20.53
582.322	20.49
582.518	20.49
582.714	20.46
582.909	20.42
583.105	20.42
583.301	20.37
583.496	20.35
583.692	20.33
583.888	20.32
584.083	20.41
584.279	20.41
584.474	20.41
584.67	20.42
584.866	20.44
585.061	20.49
585.257	20.5
585.452	20.38
585.648	20.36
585.843	20.36
586.039	20.36
586.234	20.35
586.429	20.34
586.625	20.28
586.82	20.31
587.015	20.31
587.211	20.34
587.406	20.35
587.601	20.33
587.797	20.31
587.992	20.31
588.187	20.34
588.383	20.37
588.578	20.34
588.773	20.35
588.968	20.4
589.163	20.44
589.359	20.49
589.554	20.52
589.749	20.52
589.944	20.59
590.139	20.62
590.334	20.66
590.529	20.7
590.724	20.72
590.919	20.83
591.114	20.86
591.309	20.84
591.504	20.86
591.699	20.89
591.894	20.92
592.089	20.94
592.284	20.87
592.479	20.9
592.674	20.96
592.869	21
593.064	21.08
593.259	21.09
593.454	21.17
593.648	21.19
593.843	21.29
594.038	21.33
594.233	21.4
594.428	21.41
594.622	21.48
594.817	21.54
595.012	21.6
595.206	21.61
595.401	21.62
595.596	21.7
595.79	21.76
595.985	21.81
596.18	21.85
596.374	21.97
596.569	22.07
596.763	22.22
596.958	22.23
597.153	22.27
597.347	22.35
597.542	22.41
597.736	22.49
597.931	22.58
598.125	22.6
598.319	22.67
598.514	22.77
598.708	22.87
598.903	22.96
599.097	22.98
599.291	23.01
599.486	23.07
599.68	23.15
599.874	23.19
600.069	23.18
600.263	23.19
600.457	23.23
600.651	23.25
600.846	23.24
601.04	23.26
601.234	23.29
601.428	23.31
601.622	23.34
601.817	23.38
602.011	23.45
602.205	23.52
602.399	23.56
602.593	23.52
602.787	23.57
602.981	23.63
603.175	23.62
603.369	23.61
603.563	23.62
603.757	23.64
603.951	23.68
604.145	23.66
604.339	23.69
604.533	23.7
604.727	23.69
604.921	23.65
605.115	23.58
605.309	23.58
605.502	23.6
605.696	23.51
605.89	23.55
606.084	23.5
606.278	23.51
606.471	23.46
606.665	23.42
606.859	23.36
607.053	23.3
607.246	23.18
607.44	23.11
607.634	23.06
607.827	23
608.021	23
608.214	22.96
608.408	22.94
608.602	22.95
608.795	22.91
608.989	22.84
609.182	22.84
609.376	22.73
609.569	22.63
609.763	22.64
609.956	22.53
610.15	22.48
610.343	22.43
610.537	22.41
610.73	22.41
610.923	22.41
611.117	22.26
611.31	22.23
611.504	22.25
611.697	22.19
611.89	22.04
612.083	21.95
612.277	21.83
612.47	21.8
612.663	21.78
612.856	21.65
613.05	21.58
613.243	21.58
613.436	21.51
613.629	21.52
613.822	21.49
614.015	21.4
614.209	21.43
614.402	21.32
614.595	21.23
614.788	21.18
614.981	21.07
615.174	20.97
615.367	20.88
615.56	20.74
615.753	20.73
615.946	20.72
616.139	20.66
616.332	20.62
616.525	20.64
616.718	20.62
616.911	20.64
617.103	20.6
617.296	20.49
617.489	20.49
617.682	20.44
617.875	20.34
618.067	20.27
618.26	20.18
618.453	20.14
618.646	20.14
618.838	20.1
619.031	20.03
619.224	20.03
619.417	19.99
619.609	20.02
619.802	20.01
619.994	20
620.187	19.98
620.38	19.95
620.572	19.92
620.765	19.91
620.957	19.78
621.15	19.71
621.342	19.69
621.535	19.67
621.727	19.67
621.92	19.62
622.112	19.64
622.305	19.64
622.497	19.66
622.69	19.58
622.882	19.54
623.074	19.56
623.267	19.54
623.459	19.46
623.651	19.46
623.844	19.44
624.036	19.43
624.228	19.43
624.42	19.38
624.613	19.42
624.805	19.46
624.997	19.45
625.189	19.46
625.381	19.41
625.574	19.34
625.766	19.29
625.958	19.22
626.15	19.23
626.342	19.18
626.534	19.11
626.726	19.16
626.918	19.13
627.11	19.12
627.302	19.1
627.494	19.03
627.686	19
627.878	18.93
628.07	18.84
628.262	18.83
628.454	18.8
628.646	18.77
628.838	18.73
629.029	18.66
629.221	18.67
629.413	18.68
629.605	18.66
629.797	18.63
629.989	18.61
630.18	18.57
630.372	18.57
630.564	18.59
630.755	18.53
630.947	18.48
631.139	18.42
631.33	18.35
631.522	18.32
631.714	18.32
631.905	18.26
632.097	18.25
632.289	18.19
632.48	18.14
632.672	18.14
632.863	18.12
633.055	18.1
633.246	18.07
633.438	18.05
633.629	18.14
633.821	18.17
634.012	18.15
634.203	18.16
634.395	18.15
634.586	18.11
634.777	18.07
634.969	17.99
635.16	17.94
635.351	17.91
635.543	17.86
635.734	17.86
635.925	17.91
636.117	17.92
636.308	17.91
636.499	17.92
636.69	17.97
636.881	18
637.073	17.95
637.264	17.92
637.455	17.93
637.646	17.95
637.837	17.97
638.028	18
638.219	17.97
638.41	17.93
638.601	17.92
638.792	17.87
638.983	17.82
639.174	17.83
639.365	17.72
639.556	17.76
639.747	17.8
639.938	17.78
640.129	17.79
640.32	17.78
640.511	17.78
640.701	17.78
640.892	17.72
641.083	17.64
641.274	17.6
641.465	17.58
641.655	17.56
641.846	17.47
642.037	17.43
642.228	17.41
642.418	17.41
642.609	17.42
642.8	17.39
642.99	17.43
643.181	17.41
643.372	17.43
643.562	17.42
643.753	17.4
643.943	17.36
644.134	17.37
644.324	17.31
644.515	17.33
644.705	17.32
644.896	17.29
645.086	17.31
645.277	17.37
645.467	17.33
645.658	17.3
645.848	17.26
646.038	17.23
646.229	17.21
646.419	17.25
646.61	17.13
646.8	17.13
646.99	17.13
647.18	17.11
647.371	17.06
647.561	17.05
647.751	16.89
647.941	16.87
648.132	16.85
648.322	16.86
648.512	16.89
648.702	16.87
648.892	16.88
649.082	16.91
649.272	16.9
649.462	16.88
649.653	16.81
649.843	16.76
650.033	16.7
650.223	16.65
650.413	16.65
650.603	16.66
650.793	16.58
650.983	16.59
651.172	16.5
651.362	16.49
651.552	16.45
651.742	16.4
651.932	16.36
652.122	16.38
652.312	16.24
652.502	16.19
652.691	16.19
652.881	16.16
653.071	16.09
653.261	15.99
653.45	15.86
653.64	15.86
653.83	15.83
654.019	15.7
654.209	15.61
654.399	15.56
654.588	15.46
654.778	15.38
654.968	15.23
655.157	15.09
655.347	15.03
655.536	14.91
655.726	14.79
655.915	14.67
656.105	14.64
656.294	14.61
656.484	14.58
656.673	14.41
656.863	14.32
657.052	14.21
657.241	14.12
657.431	13.93
657.62	13.73
657.809	13.56
657.999	13.54
658.188	13.38
658.377	13.31
658.567	13.18
658.756	13.08
658.945	13.01
659.134	12.87
659.324	12.69
659.513	12.58
659.702	12.44
659.891	12.34
660.08	12.2
660.269	12.07
660.458	11.99
660.648	11.92
660.837	11.86
661.026	11.76
661.215	11.66
661.404	11.57
661.593	11.5
661.782	11.37
661.971	11.25
662.16	11.12
662.349	10.99
662.538	10.93
662.726	10.84
662.915	10.8
663.104	10.71
663.293	10.63
663.482	10.57
663.671	10.52
663.86	10.41
664.048	10.37
664.237	10.25
664.426	10.21
664.615	10.14
664.803	10.03
664.992	10.02
665.181	10
665.369	9.94
665.558	9.94
665.747	9.96
665.935	9.95
666.124	9.96
666.312	9.85
666.501	9.85
666.69	9.81
666.878	9.77
667.067	9.69
667.255	9.72
667.444	9.72
667.632	9.74
667.82	9.68
668.009	9.73
668.197	9.77
668.386	9.83
668.574	9.72
668.762	9.62
668.951	9.62
669.139	9.69
669.327	9.68
669.516	9.64
669.704	9.64
669.892	9.72
670.08	9.81
670.269	9.85
670.457	9.8
670.645	9.8
670.833	9.84
671.021	9.83
671.21	9.92
671.398	9.96
671.586	10.01
671.774	10.05
671.962	10.11
672.15	10.07
672.338	10.14
672.526	10.13
672.714	10.17
672.902	10.14
673.09	10.21
673.278	10.25
673.466	10.4
673.654	10.4
673.842	10.49
674.03	10.58
674.218	10.67
674.405	10.71
674.593	10.72
674.781	10.73
674.969	10.83
675.157	10.85
675.344	10.88
675.532	10.99
675.72	11.04
675.908	11.15
676.095	11.27
676.283	11.25
676.471	11.37
676.658	11.4
676.846	11.46
677.033	11.5
677.221	11.59
677.409	11.66
677.596	11.81
677.784	11.87
677.971	11.99
678.159	12.08
678.346	12.17
678.534	12.27
678.721	12.33
678.909	12.38
679.096	12.34
679.283	12.42
679.471	12.53
679.658	12.68
679.846	12.76
680.033	12.89
680.22	12.92
680.408	13.07
680.595	13.12
680.782	13.21
680.969	13.17
681.157	13.22
681.344	13.29
681.531	13.47
681.718	13.62
681.905	13.77
682.093	13.92
682.28	14.16
682.467	14.3
682.654	14.4
682.841	14.49
683.028	14.67
683.215	14.85
683.402	14.86
683.589	14.97
683.776	15.12
683.963	15.26
684.15	15.5
684.337	15.63
684.524	15.73
684.711	15.95
684.898	16.08
685.085	16.27
685.271	16.57
685.458	16.74
685.645	16.91
685.832	17.18
686.019	17.43
686.205	17.68
686.392	17.9
686.579	18.03
686.766	18.3
686.952	18.71
687.139	19.01
687.326	19.4
687.512	19.8
687.699	20.14
687.886	20.44
688.072	20.8
688.259	21.07
688.445	21.32
688.632	21.75
688.818	22.05
689.005	22.55
689.191	23.07
689.378	23.46
689.564	23.86
689.751	24.45
689.937	24.76
690.124	25.4
690.31	25.82
690.496	26.27
690.683	26.87
690.869	27.41
691.055	27.93
691.242	28.44
691.428	28.87
691.614	29.51
691.8	30.23
691.987	30.82
692.173	31.48
692.359	32.12
692.545	32.72
692.731	33.34
692.918	33.8
693.104	34.26
693.29	34.85
693.476	35.33
693.662	35.83
693.848	36.41
694.034	37.03
694.22	37.82
694.406	38.55
694.592	39.02
694.778	39.72
694.964	40.32
695.15	40.95
695.336	41.69
695.522	42.22
695.708	42.85
695.894	43.49
696.08	43.99
696.265	44.66
696.451	45.4
696.637	45.88
696.823	46.44
697.009	46.99
697.194	47.64
697.38	48.28
697.566	48.79
697.751	49.3
697.937	49.86
698.123	50.42
698.308	50.88
698.494	51.38
698.68	51.98
698.865	52.73
699.051	53.3
699.236	53.86
699.422	54.4
699.607	54.77
699.793	55.23
699.978	55.62
700.164	56
700.349	56.3
700.535	56.81
700.72	57.36
700.906	58.06
701.091	58.5
701.276	59.05
701.462	59.44
701.647	60
701.832	60.33
702.018	60.61
702.203	61.03
702.388	61.35
702.573	61.88
702.759	62.3
702.944	62.77
703.129	63.3
703.314	63.83
703.499	64.14
703.684	64.76
703.87	65.09
704.055	65.48
704.24	65.71
704.425	65.95
704.61	66.17
704.795	66.59
704.98	66.78
705.165	66.88
705.35	67.27
705.535	67.69
705.72	67.95
705.905	68.26
706.09	68.27
706.275	68.47
706.459	69.04
706.644	69.22
706.829	69.51
707.014	69.82
707.199	70.17
707.384	70.72
707.568	71.1
707.753	71.22
707.938	71.5
708.123	71.47
708.307	71.76
708.492	71.82
708.677	72.07
708.861	72.24
709.046	72.32
709.231	72.63
709.415	73.06
709.6	73.21
709.784	73.66
709.969	73.87
710.153	74.24
710.338	74.3
710.522	74.48
710.707	74.4
710.891	74.57
711.076	74.34
711.26	74.51
711.445	74.54
711.629	75.01
711.813	74.73
711.998	75.01
712.182	75.34
712.366	75.95
712.551	75.95
712.735	75.94
712.919	76.06
713.103	76.48
713.288	76.82
713.472	76.75
713.656	76.49
713.84	76.73
714.024	77.11
714.208	77.06
714.393	77.34
714.577	77.22
714.761	77.51
714.945	77.72
715.129	77.9
715.313	77.99
715.497	78.4
715.681	78.47
715.865	78.74
716.049	78.91
716.233	79.2
716.417	79.16
716.601	79.34
716.785	79.44
716.968	79.35
717.152	79.44
717.336	79.32
717.52	79.28
717.704	79.47
717.888	79.55
718.071	79.48
718.255	79.84
718.439	79.85
718.622	80
718.806	79.86
718.99	80.03
719.174	79.88
719.357	80.3
719.541	80.26
719.724	80.72
719.908	80.76
720.092	81.13
720.275	81.28
720.459	81.55
720.642	81.32
720.826	81.21
721.009	80.9
721.193	80.9
721.376	80.87
721.559	80.74
721.743	80.9
721.926	80.89
722.11	81.35
722.293	81.26
722.476	81.53
722.66	81.74
722.843	82.03
723.026	82.16
723.21	82.27
723.393	82.32
723.576	82.6
723.759	82.89
723.942	82.85
724.126	82.74
724.309	82.84
724.492	83.11
724.675	83.24
724.858	83.55
725.041	83.48
725.224	83.88
725.407	83.93
725.59	83.88
725.774	83.91
725.957	84.21
726.14	83.93
726.322	83.82
726.505	84.16
726.688	84.34
726.871	84.58
727.054	84.8
727.237	84.33
727.42	84.84
727.603	85.34
727.786	85.39
727.968	85.8
728.151	86.07
728.334	86.14
728.517	86.54
728.699	86.66
728.882	86.81
729.065	86.77
729.248	86.77
729.43	86.68
729.613	86.84
729.796	86.76
729.978	86.79
730.161	87
730.343	87.12
730.526	87.31
730.708	87.58
730.891	87.61
731.073	87.96
731.256	88.31
731.438	88.5
731.621	88.95
731.803	89.11
731.986	89.2
732.168	89.39
732.35	89.72
732.533	89.75
732.715	89.38
732.898	89.36
733.08	89.69
733.262	89.6
733.444	89.48
733.627	89.19
733.809	89.09
733.991	89.43
734.173	89.26
734.355	89.3
734.538	89.19
734.72	89.85
734.902	90.09
735.084	90.65
735.266	90.53
735.448	90.55
735.63	89.98
735.812	90.52
735.994	89.81
736.176	90.31
736.358	90.42
736.54	90.45
736.722	90.35
736.904	90.79
737.086	90.73
737.268	91.28
737.45	91.08
737.632	90.44
737.814	90.8
737.995	91.31
738.177	91.47
738.359	91.41
738.541	91.27
738.723	91.11
738.904	91.56
739.086	91.64
739.268	92.01
739.449	91.76
739.631	92.22
739.813	92.24
739.994	92.7
740.176	92.84
740.358	93.1
740.539	92.66
740.721	93
740.902	92.42
741.084	92.44
741.265	91.9
741.447	91.42
741.628	90.8
741.81	91.04
741.991	91.32
742.172	91.76
742.354	92.49
742.535	92.69
742.717	93.28
742.898	93.75
743.079	93.93
743.261	94.08
743.442	94.13
743.623	93.79
743.804	94.18
743.986	93.8
744.167	92.93
744.348	92.94
744.529	92.2
744.71	91.93
744.891	91.9
745.073	91.5
745.254	91.59
745.435	92.6
745.616	92.25
745.797	92.13
745.978	93.1
746.159	92.82
746.34	93.18
746.521	93.29
746.702	92.6
746.883	93.03
747.064	93.4
747.245	93.56
747.426	93.91
747.606	93.8
747.787	94.44
747.968	95.19
748.149	94.6
748.33	95.27
748.51	94.55
748.691	94.28
748.872	94.21
749.053	93.18
749.233	93.05
749.414	92.93
749.595	91.55
749.775	91.47
749.956	91.1
750.137	91
750.317	91.57
750.498	91.13
750.678	91.49
750.859	92.07
751.04	91.83
751.22	91.54
751.4	91.24
751.581	91.28
751.761	92
751.942	91.69
752.122	91.71
752.303	91.98
752.483	93.42
752.663	94.32
752.844	93.76
753.024	93.72
753.204	93.57
753.385	93.18
753.565	92.51
753.745	91.46
753.925	90.23
754.106	90.74
754.286	90.32
754.466	90.86
754.646	90.79
754.826	91.41
755.006	91.78
755.187	92.89
755.367	92.78
755.547	92.59
755.727	92.08
755.907	93.16
756.087	92.68
756.267	92.35
756.447	91.92
756.627	91.68
756.807	92.16
756.987	93.23
757.167	92.58
757.346	92.1
757.526	91.96
757.706	92.29
757.886	92.72
758.066	91.98
758.246	91.01
758.425	91.55
758.605	92.21
758.785	92.37
758.965	91.43
759.144	91.48
759.324	92.42
759.504	92.35
759.683	91.81
759.863	91.17
760.043	91.29
760.222	91.05
760.402	91.09
760.581	89.78
760.761	89.04
760.94	87.99
761.12	88.78
761.299	88.11
761.479	88.7
761.658	87.62
761.838	87.85
762.017	87.89
762.197	89.21
762.376	88.1
762.555	89.33
762.735	88.58
762.914	89.16
763.093	89.29
763.273	89.47
763.452	88.95
763.631	88.83
763.81	88.92
763.99	89.71
764.169	89.79
764.348	90.67
764.527	90.1
764.706	90.56
764.885	91.27
765.064	90.35
765.243	90.08
765.423	90.74
765.602	89.61
765.781	90.75
765.96	90.23
766.139	89.83
766.318	89.76
766.497	90.02
766.676	89.75
766.854	88.8
767.033	88.48
767.212	87.81
767.391	87.29
767.57	87.78
767.749	87.13
767.928	86.21
768.106	87.71
768.285	87.52
768.464	88.5
768.643	89.91
768.821	89.19
769	89.86
769.179	88.92
769.357	88.02
769.536	87.55
769.715	86.6
769.893	85.92
770.072	85.93
770.25	85.69
770.429	87.31
770.607	88.35
770.786	90.16
770.964	89.71
771.143	89.79
771.321	89.9
771.5	89.61
771.678	89.08
771.857	87.51
772.035	85.34
772.213	85.93
772.392	86.27
772.57	86.27
772.748	85.11
772.927	84.51
773.105	86.01
773.283	86.16
773.461	86.79
773.64	86.52
773.818	85.4
773.996	86.4
774.174	87.21
774.352	86.45
774.531	86.14
774.709	86.82
774.887	86.09
775.065	86.9
775.243	87.49
775.421	87.86
775.599	86.57
775.777	87.84
775.955	86.92
776.133	86.83
776.311	87.34
776.489	86.87
776.667	86.08
776.844	87.14
777.022	86.69
777.2	85.2
777.378	86.6
777.556	86.87
777.734	86.57
777.911	87.35
778.089	86.78
778.267	86.65
778.445	86.4
778.622	85.75
778.8	84.39
778.978	84.71
779.155	83.9
779.333	82.87
779.511	83.76
779.688	84.46
779.866	83.69
780.043	84.44
780.221	84.12
780.398	83.91
780.576	85.82
780.753	84.13
780.931	85.13
781.108	86.43
781.286	84.08
781.463	84
781.64	83.91
781.818	82.54
781.995	83.37
782.172	82.52
782.35	82.02
782.527	85.9
782.704	86.24
782.882	86.71
783.059	86.93
783.236	86.82
783.413	87.36
783.59	85.93
783.768	83.55
783.945	84.85
784.122	84.75
784.299	83.9
784.476	85.39
784.653	83.09
784.83	82.34
785.007	82.79
785.184	80.67
785.361	79.77
785.538	80.97
785.715	78.69
785.892	80.73
786.069	81.48
786.246	80.31
786.423	82.31
786.6	82.61
786.776	82.5
786.953	82.64
787.13	82.94
787.307	83.83
787.484	84.5
787.66	81.45
787.837	80.18
788.014	79.36
788.191	79.65
788.367	79.54
788.544	80.45
788.721	80.58
788.897	82.16
789.074	82.82
789.25	84.57
789.427	85.35
789.603	88.1
789.78	86.86
789.956	86.18
790.133	86.18
790.309	87.86
790.486	89.56
790.662	90
790.839	87.66
791.015	87.06
791.192	86.08
791.368	86.38
791.544	85.16
791.721	81.33
791.897	79.63
792.073	78.1
792.249	81.29
792.426	82.88
792.602	80.84
792.778	80.17
792.954	82.76
793.13	85.48
793.307	83.67
793.483	80.74
793.659	83.04
793.835	84.31
794.011	83.26
794.187	79.36
794.363	79.04
794.539	79.99
794.715	77.36
794.891	73.68
795.067	73.1
795.243	75.79
795.419	79.27
795.595	76.98
795.771	77.85
795.947	79.55
796.122	82.22
796.298	82.21
796.474	79.59
796.65	80.22
796.826	83.5
797.001	83.1
797.177	83.85
797.353	83.96
797.529	85.13
797.704	87.06
797.88	83.76
798.056	82.44
798.231	82.95
798.407	84.33
798.582	83.49
798.758	84.09
798.934	83.27
799.109	82.76
799.285	83.3
799.46	84.7
799.636	82.8
799.811	83.28
799.986	83.91
800.162	86.11
800.337	87.81
800.513	83.99
800.688	85.16
800.863	85.69
801.039	80.22
801.214	79.22
801.389	76.59
801.565	80.19
801.74	81.61
801.915	79.7
802.09	79.76
802.265	83.42
802.441	82.65
802.616	84.8
802.791	82.63
802.966	84.11
803.141	80.36
803.316	80.17
803.491	81.47
803.666	82.18
803.841	81.23
804.016	79.17
804.191	77.83
804.366	82.05
804.541	80.27
804.716	75.52
804.891	81.2
805.066	83.09
805.241	81.85
805.416	78.86
805.591	81.73
805.765	84.68
805.94	90.27
806.115	84.76
806.29	81.74
806.464	82.56
806.639	86.64
806.814	82.18
806.989	82.13
807.163	81.48
807.338	80.75
807.512	80.9
807.687	80.79
807.862	79.42
808.036	76.31
808.211	78.68
808.385	75.69
808.56	76.3
808.734	79.52
808.909	82.73
809.083	83.08
809.258	90.43
809.432	84.52
809.606	86.75
809.781	85.17
809.955	84.74
810.13	88.03
810.304	87.37
810.478	85.52
810.652	90.76
810.827	88.42
811.001	91.61
811.175	87.3
811.349	84.09
811.524	82.36
811.698	82.46
811.872	81.29
812.046	80.01
812.22	73.65
812.394	78.57
812.568	79.71
812.742	80.31
812.916	78.16
813.09	77.94
813.264	83.71
813.438	95.07
813.612	87.22
813.786	85.76
813.96	93.71
814.134	95.65
814.308	93.23
814.482	85.21
814.656	81.28
814.83	87.64
815.003	87.4
815.177	83.66
815.351	84.65
815.525	80.45
815.698	81.11
815.872	79.66
816.046	72.68
816.219	67.14
816.393	57.36
816.567	54.95
816.74	62.89
816.914	71.11
817.088	68.73
817.261	76.15
817.435	79.08
817.608	84.95
817.782	85.81
817.955	81.92
818.129	78.58
818.302	81.95
818.475	80.29
818.649	76.08
818.822	76.47
818.996	76.87
819.169	74.77
819.342	74.62
819.516	75.2
819.689	72.06
819.862	75.17
820.035	74.24
820.209	76.59
820.382	75.48
820.555	72.8
820.728	67.04
820.901	68.66
821.075	73.79
821.248	74.07
821.421	66.63
821.594	70.74
821.767	71.52
821.94	69.93
822.113	71.41
822.286	68.49
822.459	77.89
822.632	82.04
822.805	82.24
822.978	78.25
823.151	83.4
823.324	73.77
823.496	63.94
823.669	57.34
823.842	61.21
824.015	59.03
824.188	67.52
824.361	64.48
824.533	78
824.706	99.57
824.879	102.18
825.051	101.77
825.224	96.58
825.397	81.24
825.569	87.27
825.742	84.45
825.915	76.77
826.087	73.6
826.26	70.74
826.432	77.69
826.605	87.71
826.777	83.01
826.95	78.31
827.122	77.39
827.295	80.98
827.467	77.69
827.64	65.18
827.812	63.96
827.984	71.03
828.157	70.36
828.329	66.78
828.501	60.3
828.674	60.48
828.846	63.78
829.018	57.48
829.19	47.08
829.363	50.12
829.535	59.43
829.707	59.78
829.879	59.46
830.051	62.6
830.223	65.84
830.395	68.89
830.568	73.44
830.74	70.04
830.912	68.11
831.084	61.82
831.256	56.35
831.428	58.58
831.6	53.7
831.772	51.06
831.943	51.49
832.115	57.49
832.287	65.66
832.459	78.08
832.631	74.51
832.803	84.27
832.975	82.92
833.146	82.32
833.318	84.51
833.49	85.66
833.662	79.81
833.833	82.07
834.005	76.61
834.177	75.33
834.348	74.97
834.52	71.73
834.692	65.24
834.863	65.53
835.035	65.86
835.206	70.6
835.378	72.02
835.549	71.88
835.721	67.87
835.892	67.81
836.064	69.38
836.235	68.39
836.407	60.78
836.578	64.97
836.749	60.88
836.921	65.03
837.092	75.64
837.264	70.52
837.435	58.32
837.606	63.46
837.777	55.82
837.949	53.16
838.12	48.4
838.291	51.27
838.462	57.71
838.633	72.44
838.805	75.6
838.976	75.6
839.147	79.82
839.318	80.94
839.489	68.94
839.66	66.65
839.831	56.38
840.002	52.94
840.173	67.29
840.344	66.31
840.515	60.07
840.686	65.85
840.857	65.71
841.028	82.84
841.199	82.85
841.369	67.97
841.54	76.06
841.711	86.87
841.882	87.79
842.053	96.03
842.223	76.83
842.394	81.06
842.565	87.63
842.736	82
842.906	86.77
843.077	84.54
843.248	89.54
843.418	84.38
843.589	90.31
843.759	83.01
843.93	88.87
844.101	79.19
844.271	83.41
844.442	81.96
844.612	82.49
844.783	57.04
844.953	52.99
845.123	47.08
845.294	51.58
845.464	46.51
845.635	39.78
845.805	63.22
845.975	59.73
846.146	68.68
846.316	62.13
846.486	62.76
846.656	73.59
846.827	72.5
846.997	70.08
847.167	79.82
847.337	83.18
847.507	86.34
847.677	92.68
847.848	94.65
848.018	93.9
848.188	80.85
848.358	85.94
848.528	80.4
848.698	60.83
848.868	49.12
849.038	35.43
849.208	56.26
849.378	49.83
849.548	63.37
849.718	61.79
849.887	70.83
850.057	72.41
850.227	71.44
850.397	47.08
850.567	70.6
850.737	53.28
850.906	56.49
851.076	65.78
851.246	69.81
851.415	70.59
851.585	80.66
851.755	72.15
851.924	75.71
852.094	62.87
852.264	55.57
852.433	62.95
852.603	83.84
852.772	68.28
852.942	63.65
853.111	59.14
853.281	67.67
853.45	69.97
853.62	58.23
853.789	44.31
853.959	49.51
854.128	32.23
854.297	48.62
854.467	45.22
854.636	43.2
854.805	40.93
854.975	56.29
855.144	64.19
855.313	101.35
855.482	94.93
855.652	103.15
855.821	107.12
855.99	121.69
856.159	107.15
856.328	82.96
856.497	65.96
856.667	60.91
856.836	53.79
857.005	50.07
857.174	62.45
857.343	61.45
857.512	60.09
857.681	55.9
857.85	56
858.019	62.65
858.188	52.02
858.356	17.57
858.525	22.27
858.694	32.39
858.863	29.81
859.032	41.67
859.201	31.68
859.369	56.48
859.538	54.75
859.707	61.22
859.876	61.62
860.044	87.55
860.213	72.93
860.382	69.27
860.55	77.74
860.719	89.82
860.888	92.95
861.056	106.54
861.225	94.83
861.393	104.12
861.562	102.8
861.73	105.84
861.899	91.5
862.067	83.27
862.236	67.7
862.404	56.16
862.572	46.53
862.741	43.37
862.909	35.76
863.078	35.8
863.246	30.59
863.414	37.31
863.582	32.64
863.751	40.05
863.919	50.03
864.087	50.88
864.255	41.11
864.424	43.66
864.592	35.37
864.76	58.77
864.928	52.93
865.096	44.26
865.264	45.62
865.432	57.93
865.6	52.68
865.768	48.87
865.936	36.88
866.104	70.9
866.272	80.66
866.44	35.51
866.608	13.88
866.776	23.29
866.944	7.99
867.112	-24.34
867.28	-90.83
867.448	-56.93
867.615	-20.06
867.783	-10.39
867.951	-8.12
868.119	53.09
868.286	75.92
868.454	84.7
868.622	99.64
868.789	109.46
868.957	111.2
869.125	89.32
869.292	78.73
869.46	79.5
869.627	76.82
869.795	72.31
869.963	48.23
870.13	50.21
870.298	54.26
870.465	39.29
870.632	28.31
870.8	24.08
870.967	18.1
871.135	31.47
871.302	30.07
871.469	32.45
871.637	33.34
871.804	42.49
871.971	57.92
872.139	60.3
872.306	60.68
872.473	53.61
872.64	54.72
872.807	74.82
872.975	81.7
873.142	45.67
873.309	88.19
873.476	178.68
873.643	239.55
873.81	229.13
873.977	150.03
874.144	186.42
874.311	183.35
874.478	85.53
874.645	32.7
874.812	47.93
874.979	38.31
875.146	21.98
875.313	13.47
875.48	50.52
875.647	36.54
875.813	45.33
875.98	-25.1
876.147	43.83
876.314	58.23
876.481	48.14
876.647	52.61
876.814	68.14
876.981	63.19
877.147	59.21
877.314	47.08
877.481	49.84
877.647	60.35
877.814	40.45
877.98	43.76
878.147	55.34
878.314	75.37
878.48	74.6
878.647	86.04
878.813	78.35
878.979	113.69
879.146	65.52
879.312	94.42
879.479	85.84
879.645	68.22
879.811	65.62
879.978	67.32
880.144	70.33
880.31	68.91
880.477	26.88
880.643	56.22
880.809	135.83
880.975	62.37
881.142	43.8
881.308	40.04
881.474	102.04
881.64	82.24
881.806	50.58
881.972	52.62
882.138	65.13
882.304	45.46
882.47	37.53
882.636	-31.63
882.802	14.99
882.968	-18.08
883.134	-226.76
883.3	-41.53
883.466	22.8
883.632	26.72
883.798	61.49
883.964	36.62
884.129	69.83
884.295	68.27
884.461	53.98
884.627	77.28
884.793	72.87
884.958	63.05
885.124	27.12
885.29	-4.22
885.455	-1.77
885.621	14.84
885.787	13.82
885.952	-6.07
886.118	12.29
886.283	34.62
886.449	39.34
886.614	77.52
886.78	75.9
886.945	65.97
887.111	85.49
887.276	59.83
887.442	55.14
887.607	61.04
887.773	26.23
887.938	15.66
888.103	45.01
888.269	51.27
888.434	55.86
888.599	68.68
888.764	70.26
888.93	85.58
889.095	71.04
889.26	80.11
889.425	93.84
889.59	75.43
889.756	47.91
889.921	42.71
890.086	45.74
890.251	46.09
890.416	-4.92
890.581	-9.24
890.746	5.68
890.911	0.52
891.076	-56.73
891.241	-88.27
891.406	12.5
891.571	30.48
891.736	-2.84
891.901	11.79
892.065	21.15
892.23	15.02
892.395	6.79
892.56	-4.42
892.725	28.89
892.889	29.14
893.054	-16.95
893.219	-20.22
893.384	26.15
893.548	135.83
893.713	-57.67
893.878	268.48
