Data from Ofra_PS_T2_1A_2HS27_Reflection_2.txt Node
Date: Wed Jul 21 18:02:57 EDT 2021
User: Adam
Spectrometer: FLMT01687
Trigger mode: 0
Integration Time (sec): 1.100000E0
Scans to average: 2
Electric dark correction enabled: true
Nonlinearity correction enabled: false
Boxcar width: 2
XAxis mode: Wavelengths
Number of Pixels in Spectrum: 3648
>>>>>Begin Spectral Data<<<<<
179.494	515
179.716	582.59
179.937	573.34
180.158	566.19
180.38	959.84
180.601	508.7
180.823	177.94
181.044	4.15
181.265	215.99
181.486	24.87
181.708	20.73
181.929	97.45
182.15	-286.97
182.372	140.96
182.593	25.17
182.814	-0.99
183.035	44.39
183.257	54.9
183.478	-26.12
183.699	11.98
183.92	3.08
184.141	-27.13
184.363	-86.39
184.584	-26.05
184.805	1.26
185.026	55.42
185.247	73.57
185.468	59.85
185.689	58.34
185.91	37.52
186.132	15.19
186.353	11.42
186.574	40.55
186.795	27.44
187.016	-30.85
187.237	-32.78
187.458	-36.6
187.679	-30.5
187.9	5.78
188.121	27.27
188.342	49.9
188.563	49.38
188.784	69.82
189.005	83.03
189.226	147.7
189.447	162.5
189.667	206.92
189.888	57.76
190.109	-369.81
190.33	-325
190.551	-899.78
190.772	-133.6
190.993	-90.87
191.214	-95.58
191.434	-48.44
191.655	32.79
191.876	-3.15
192.097	-39.82
192.318	-50.36
192.538	-90.54
192.759	-110.23
192.98	-10.2
193.201	19.02
193.421	16.62
193.642	24.09
193.863	42.01
194.083	7.43
194.304	-11.25
194.525	7.95
194.745	12.7
194.966	-13.8
195.187	-21.91
195.407	-26.81
195.628	-103.21
195.848	-98.97
196.069	-100.96
196.29	-42.59
196.51	-41.35
196.731	-18.01
196.951	-41.63
197.172	-46.55
197.392	-56.61
197.613	-33.6
197.833	-53.51
198.054	-28.49
198.274	-5.01
198.495	-26.1
198.715	-5.71
198.936	-16.52
199.156	-18.39
199.377	-79.24
199.597	-72.94
199.817	-92.49
200.038	-27.07
200.258	-95.73
200.479	-26.11
200.699	-24.87
200.919	35.21
201.14	-5.86
201.36	27.3
201.58	24.53
201.801	45.68
202.021	5.52
202.241	15.46
202.461	2.52
202.682	-52.16
202.902	-104.09
203.122	-41.4
203.342	-49.57
203.563	-23.93
203.783	5.98
204.003	-35.06
204.223	-26.2
204.443	33.61
204.663	32.31
204.884	39.95
205.104	98.14
205.324	98.87
205.544	81.76
205.764	86.56
205.984	80.24
206.204	64.73
206.424	47.31
206.644	13.67
206.864	6.89
207.084	-40.02
207.304	-7.47
207.525	-29.92
207.745	-14.59
207.964	-3.31
208.184	-56.11
208.404	-104.45
208.624	-118.35
208.844	-105.5
209.064	-375.29
209.284	-315.48
209.504	-170.5
209.724	-44.83
209.944	-11.26
210.164	22.5
210.384	34.59
210.604	43.15
210.823	38.44
211.043	19.28
211.263	44.64
211.483	25.37
211.703	-25.64
211.922	-23.63
212.142	19.1
212.362	-1.78
212.582	1.03
212.801	21.19
213.021	9.85
213.241	13.9
213.461	-9.94
213.68	-8.82
213.9	16.7
214.12	17.77
214.339	-54.36
214.559	-42.4
214.779	16.7
214.998	6.53
215.218	8.34
215.438	23.35
215.657	6.95
215.877	-21.78
216.096	-2.19
216.316	11.26
216.535	15.96
216.755	25.49
216.974	-17.82
217.194	-53.89
217.413	-114.4
217.633	-147.32
217.852	-233.73
218.072	-86.37
218.291	-54.57
218.511	-2.26
218.73	-5.72
218.95	-8.74
219.169	-33.34
219.389	-62.35
219.608	-51.39
219.827	-45.48
220.047	-23.36
220.266	-9.31
220.485	-3.54
220.705	5.71
220.924	-12.18
221.143	13.25
221.363	6.7
221.582	8.86
221.801	21.12
222.021	37.62
222.24	-4.99
222.459	53.23
222.678	16.88
222.897	-96.8
223.117	-144.08
223.336	-129.55
223.555	-136.69
223.774	-61.61
223.993	-34.14
224.213	16.71
224.432	20.96
224.651	63.52
224.87	17.73
225.089	32.34
225.308	11.4
225.527	17.11
225.746	6.85
225.965	8.53
226.184	-22.55
226.404	16.1
226.623	-0.75
226.842	2.72
227.061	25.06
227.28	25.11
227.499	14.93
227.718	15.65
227.936	3.98
228.155	19.14
228.374	26.89
228.593	27.61
228.812	31.2
229.031	19.24
229.25	-33.41
229.469	-42.06
229.688	-39.65
229.907	-12.09
230.125	-8.05
230.344	-1.62
230.563	-0.18
230.782	2.21
231.001	-72.36
231.22	-40.1
231.438	-9.54
231.657	-4.5
231.876	-12.09
232.095	34.15
232.313	26.88
232.532	3.95
232.751	5.29
232.969	0.92
233.188	-41.53
233.407	-4.16
233.625	-2.25
233.844	-19.26
234.063	-8.8
234.281	11.78
234.5	-12.49
234.719	-6.6
234.937	8.14
235.156	13.36
235.374	6.36
235.593	12.94
235.811	-5.53
236.03	-18.79
236.249	-68.76
236.467	-61.19
236.686	-21.68
236.904	5.2
237.123	-12.76
237.341	-3.06
237.559	11.1
237.778	1.98
237.996	-10.66
238.215	17.01
238.433	26.16
238.652	21.33
238.87	1.38
239.088	20.86
239.307	17.34
239.525	20.82
239.743	-5.63
239.962	24.85
240.18	-26.03
240.398	-47.56
240.617	-65.76
240.835	-13.11
241.053	1.17
241.271	73.59
241.49	79.21
241.708	90.8
241.926	78.21
242.144	53.09
242.363	-15.46
242.581	-37.6
242.799	-14.59
243.017	14.46
243.235	-5.12
243.453	7.05
243.672	2.48
243.89	7.64
244.108	-27.74
244.326	-3.05
244.544	-10.62
244.762	-8.17
244.98	-19.44
245.198	13.3
245.416	-6.95
245.634	-2.9
245.852	1.94
246.07	15.22
246.288	2.17
246.506	-28.75
246.724	29.04
246.942	26.84
247.16	53.92
247.378	54.28
247.596	87.16
247.814	73.64
248.032	43.23
248.25	22.33
248.468	25.46
248.685	22.58
248.903	42.71
249.121	48.99
249.339	27.59
249.557	20.75
249.775	23.4
249.992	-41.7
250.21	-40.32
250.428	-20.92
250.646	-38.61
250.863	-57.11
251.081	-19.91
251.299	-9.39
251.517	-16.85
251.734	-16.24
251.952	-20.04
252.17	-23.83
252.387	-7.62
252.605	-6.83
252.823	3.65
253.04	17.84
253.258	37.45
253.475	38.49
253.693	67.07
253.911	60.26
254.128	66.78
254.346	81.65
254.563	49.4
254.781	15.44
254.998	7.36
255.216	-11.77
255.433	-4.49
255.651	38.61
255.868	51.08
256.086	58.13
256.303	48.79
256.521	20.03
256.738	7.09
256.956	-5.08
257.173	-9.57
257.39	-15.08
257.608	-34.12
257.825	-5.67
258.043	23.06
258.26	21.06
258.477	56.82
258.695	66.92
258.912	15.24
259.129	3.06
259.346	-33.74
259.564	-79.8
259.781	-89.4
259.998	-9.26
260.216	18.61
260.433	58.74
260.65	58.37
260.867	59.52
261.084	25.51
261.302	23.3
261.519	30.21
261.736	0.25
261.953	-13.22
262.17	23.41
262.387	-10.39
262.604	-55.32
262.822	-42.03
263.039	-19.58
263.256	-48.14
263.473	-17.59
263.69	4.56
263.907	21.17
264.124	10.5
264.341	12.66
264.558	8.39
264.775	9.84
264.992	19.54
265.209	31.11
265.426	51.52
265.643	49.24
265.86	63.25
266.077	63.21
266.294	55.81
266.51	-2.32
266.727	-14.73
266.944	-7.13
267.161	-6.6
267.378	-10.41
267.595	23.28
267.812	14.98
268.028	10.2
268.245	19.42
268.462	14.4
268.679	20.97
268.896	61.88
269.112	45.61
269.329	29.7
269.546	26.5
269.763	8.9
269.979	-16
270.196	-6.97
270.413	-37.02
270.629	-42.63
270.846	-58.22
271.063	-62.94
271.279	-90.36
271.496	-67.98
271.712	-30.41
271.929	13.02
272.146	34.63
272.362	60.02
272.579	93.12
272.795	80.89
273.012	77.78
273.228	69.98
273.445	47.82
273.661	23.59
273.878	-22.37
274.094	-29.51
274.311	-40.57
274.527	11.97
274.744	9.34
274.96	10.76
275.177	20.32
275.393	21.62
275.609	16.6
275.826	42.73
276.042	36.85
276.259	23.17
276.475	50.2
276.691	47.81
276.908	17.21
277.124	40.06
277.34	38.41
277.557	19.08
277.773	2.38
277.989	-2.69
278.205	-4.1
278.422	3
278.638	7.28
278.854	26.57
279.07	35.91
279.286	20.73
279.503	11.52
279.719	-1.57
279.935	-16.62
280.151	-20.04
280.367	9.44
280.583	-27.14
280.799	-29.32
281.016	-61.91
281.232	-37.51
281.448	-47.26
281.664	-9.61
281.88	-37.24
282.096	-7.76
282.312	8.15
282.528	12.84
282.744	32.52
282.96	43.5
283.176	34.37
283.392	40.98
283.608	24.44
283.824	13.02
284.04	18.78
284.256	38.51
284.471	27.72
284.687	38.75
284.903	43.04
285.119	75.06
285.335	43.1
285.551	48.68
285.767	27.25
285.982	32.22
286.198	-3.15
286.414	43.88
286.63	44.3
286.846	62.31
287.061	47.91
287.277	66.43
287.493	43.9
287.709	68.72
287.924	49.29
288.14	71.08
288.356	62.31
288.571	77.3
288.787	34.19
289.003	35.88
289.218	11.11
289.434	-28.68
289.65	-37.8
289.865	-25.46
290.081	17.65
290.296	19.99
290.512	27.62
290.727	-3.49
290.943	-13.64
291.159	-33.19
291.374	-20.43
291.59	-34.8
291.805	-18.4
292.021	-0.46
292.236	-11.85
292.451	-8.86
292.667	2.85
292.882	12.12
293.098	3.02
293.313	-2.77
293.529	-21.21
293.744	-26.06
293.959	-23.77
294.175	-15.68
294.39	14.98
294.605	29.2
294.821	53.05
295.036	54.53
295.251	52.68
295.467	18.22
295.682	5.21
295.897	-45.18
296.112	-52.66
296.328	-52.2
296.543	-56.22
296.758	-59.51
296.973	-17.38
297.188	12.26
297.404	-14.49
297.619	-20.19
297.834	-30.15
298.049	-50.12
298.264	-75.93
298.479	-14.88
298.694	-1.93
298.909	29.06
299.125	36.68
299.34	48.4
299.555	21.74
299.77	42.02
299.985	-3.02
300.2	-69
300.415	-91.02
300.63	-54.46
300.845	-62.97
301.06	-46.12
301.275	7.38
301.49	32.13
301.704	19.8
301.919	-7.88
302.134	-30.87
302.349	-45.76
302.564	-112.84
302.779	-137.5
302.994	-90.24
303.209	-36.18
303.423	26.27
303.638	55.3
303.853	22.96
304.068	14.84
304.283	4.15
304.497	-8.87
304.712	-5.24
304.927	5.11
305.142	-1.78
305.356	6.98
305.571	0.5
305.786	-18.1
306	-33.14
306.215	-16.18
306.43	-41.46
306.644	-10.34
306.859	27.05
307.074	36.59
307.288	3.77
307.503	9.72
307.717	-17.07
307.932	-18.26
308.147	-25.74
308.361	-0.35
308.576	-1.8
308.79	-37.93
309.005	-35.14
309.219	-12.58
309.434	-11.79
309.648	-19.11
309.863	14.49
310.077	20.8
310.292	20.93
310.506	8.31
310.72	33.46
310.935	37.59
311.149	29.43
311.364	39.12
311.578	44.46
311.792	19.14
312.007	19
312.221	7.59
312.435	8.05
312.649	-4.07
312.864	-6.3
313.078	-4.5
313.292	50.62
313.507	-24.76
313.721	-30.5
313.935	16.63
314.149	15.93
314.363	-7.04
314.578	5.97
314.792	22.38
315.006	14.41
315.22	31.56
315.434	47.48
315.648	52.09
315.862	41.77
316.077	43.88
316.291	6.35
316.505	8.5
316.719	-2.57
316.933	-22.44
317.147	-16.57
317.361	-44.52
317.575	-95.61
317.789	-123.34
318.003	-171.18
318.217	-145.17
318.431	-35.53
318.645	27.75
318.859	35.27
319.073	54.5
319.287	48.42
319.5	6.79
319.714	-36.98
319.928	-50.59
320.142	-68.91
320.356	-28.8
320.57	22.9
320.784	28.63
320.997	0.37
321.211	10.07
321.425	-34.06
321.639	-72.48
321.853	-20.87
322.066	-8.38
322.28	-9.83
322.494	-6.68
322.707	7.79
322.921	-7.49
323.135	-4.55
323.349	-1.8
323.562	-15.57
323.776	-10.46
323.989	-9.56
324.203	-23.37
324.417	-20.48
324.63	-26.1
324.844	-36.21
325.057	-26.57
325.271	-12.39
325.485	-0.99
325.698	19.78
325.912	24.38
326.125	3.52
326.339	15.3
326.552	19.28
326.766	22.69
326.979	32.15
327.193	63.11
327.406	39.48
327.619	20.84
327.833	24.7
328.046	-6.32
328.26	-45.1
328.473	-6.69
328.686	-36
328.9	-41.24
329.113	3.62
329.326	-26.55
329.54	-30.44
329.753	-15.56
329.966	-29.28
330.179	-19.02
330.393	14.45
330.606	17.15
330.819	29.28
331.032	47
331.246	39.84
331.459	61.5
331.672	49.77
331.885	46.08
332.098	13.39
332.311	6.67
332.525	-35.94
332.738	-20.32
332.951	-7.83
333.164	23.89
333.377	39.4
333.59	50.45
333.803	61.63
334.016	52.2
334.229	52.77
334.442	47.04
334.655	74.86
334.868	75.43
335.081	63.17
335.294	47.59
335.507	25.23
335.72	5.03
335.933	-13.13
336.146	-8.93
336.359	-6.19
336.572	-19.51
336.785	-48.13
336.997	-38.35
337.21	-20.59
337.423	-13.41
337.636	2.65
337.849	18.22
338.062	14.55
338.274	23.32
338.487	10.53
338.7	17.73
338.913	-3.56
339.125	-14.65
339.338	-70.77
339.551	-58.22
339.763	-29.32
339.976	-12.78
340.189	-1.98
340.402	19.76
340.614	18.85
340.827	6.41
341.039	-6.2
341.252	-6.92
341.465	1.74
341.677	1.57
341.89	-37.95
342.102	5.05
342.315	-9.9
342.527	-29.25
342.74	-26.53
342.952	25.2
343.165	5.93
343.377	41.43
343.59	29.91
343.802	42.83
344.015	35.94
344.227	60.42
344.44	28.91
344.652	32.26
344.864	16.87
345.077	35.77
345.289	25.68
345.502	35.22
345.714	28.51
345.926	41.7
346.139	31.39
346.351	33.78
346.563	35.06
346.775	57.21
346.988	36.54
347.2	14.08
347.412	-16.97
347.624	-39.07
347.837	-91.72
348.049	-61.07
348.261	-17.82
348.473	-8.37
348.685	-9.82
348.897	4.03
349.11	-1.36
349.322	-26.73
349.534	-16.51
349.746	-10.05
349.958	5.58
350.17	-15.52
350.382	5.73
350.594	2.96
350.806	11.44
351.018	-5.29
351.23	-12.9
351.442	-46.38
351.654	-61.32
351.866	-60.38
352.078	-22.62
352.29	2.42
352.502	17.95
352.714	34.85
352.926	27.23
353.138	17.41
353.35	8.77
353.561	3.45
353.773	-21.85
353.985	-3.65
354.197	-4.75
354.409	-16.5
354.621	-11.09
354.832	0.75
355.044	-14.13
355.256	-20.41
355.468	3.32
355.679	-1.76
355.891	1.03
356.103	-4.71
356.314	-1.96
356.526	-3.07
356.738	1.1
356.949	9.44
357.161	20.81
357.373	16.61
357.584	0.48
357.796	4.43
358.008	-10.35
358.219	0.55
358.431	4.46
358.642	14.38
358.854	13.68
359.065	17.27
359.277	-7.14
359.488	-8.87
359.7	-24.24
359.911	-45.4
360.123	-33.44
360.334	-43.31
360.546	-52.04
360.757	-53.21
360.969	-32.36
361.18	-29.3
361.391	-5.77
361.603	-24.06
361.814	-15.77
362.025	-26.93
362.237	-25.55
362.448	-15.89
362.659	8.21
362.871	5.36
363.082	16.69
363.293	14.28
363.504	2.77
363.716	-22.11
363.927	-20.39
364.138	-46.47
364.349	-55.53
364.56	-53.82
364.772	-38.62
364.983	-21.38
365.194	-13.31
365.405	-1.34
365.616	19.64
365.827	21.62
366.038	4.55
366.25	-0.8
366.461	-17.95
366.672	-8.69
366.883	1.51
367.094	14.14
367.305	6.54
367.516	8.23
367.727	-25.72
367.938	-43.2
368.149	-40.95
368.36	-15.79
368.571	-6.49
368.781	-7.7
368.992	-9.99
369.203	-27.66
369.414	-43.44
369.625	-57.73
369.836	-44.32
370.047	-59.09
370.258	-47.36
370.468	-56.71
370.679	-59.93
370.89	-64.31
371.101	-36.98
371.312	-41.59
371.522	-29.4
371.733	-17.67
371.944	7.11
372.155	3.61
372.365	3.76
372.576	8.16
372.787	7.71
372.997	-19.32
373.208	-13.04
373.419	12.55
373.629	-23.18
373.84	-19.23
374.05	-31.02
374.261	-27.37
374.472	-57.38
374.682	-3.48
374.893	-11.59
375.103	31.79
375.314	21.35
375.524	27.83
375.735	14.86
375.945	12.85
376.156	-19.05
376.366	-10.07
376.577	-14.27
376.787	-18.58
376.997	-4.02
377.208	-2.42
377.418	-20.12
377.629	-11.58
377.839	-2.79
378.049	-6.57
378.26	10.44
378.47	22.9
378.68	15.33
378.89	7.98
379.101	-6.89
379.311	-29.91
379.521	-52.45
379.732	-50.33
379.942	-43.19
380.152	-47.54
380.362	-23.19
380.572	-22.89
380.783	-11.69
380.993	-4.64
381.203	15.82
381.413	21.3
381.623	36.69
381.833	34.74
382.043	24.23
382.253	10.02
382.463	2.32
382.674	-12.65
382.884	-31.43
383.094	-26.26
383.304	-17.27
383.514	-12.16
383.724	4.55
383.934	3.53
384.144	-2.54
384.353	-12.92
384.563	-15.66
384.773	-15.51
384.983	-23.97
385.193	-7.27
385.403	-1.68
385.613	6.68
385.823	-6.91
386.033	5.3
386.242	-1.54
386.452	0.01
386.662	-8.58
386.872	9.56
387.082	11.09
387.291	6.1
387.501	5.97
387.711	8.27
387.921	-8.45
388.13	-11.13
388.34	1.22
388.55	-1.17
388.759	-3.99
388.969	2.28
389.179	0.85
389.388	-5.76
389.598	-1.29
389.807	-5.54
390.017	-6.67
390.227	-4.63
390.436	-4.35
390.646	-2.96
390.855	2.23
391.065	2.11
391.274	0.18
391.484	-3.35
391.693	-2
391.903	-1.76
392.112	2.2
392.322	5.27
392.531	11.02
392.74	11.84
392.95	7.81
393.159	5.4
393.369	3
393.578	2.23
393.787	-0.24
393.997	1.57
394.206	0.89
394.415	1.58
394.625	-0.62
394.834	-2.16
395.043	-1.31
395.252	0.51
395.462	2.43
395.671	3.6
395.88	4.51
396.089	5.43
396.298	4.49
396.508	3.4
396.717	2.93
396.926	3.81
397.135	3.02
397.344	2.6
397.553	3.08
397.762	4.81
397.971	4.36
398.181	3.85
398.39	3.26
398.599	3.01
398.808	2.39
399.017	3.27
399.226	4.9
399.435	6.05
399.644	6.44
399.853	5.55
400.062	5.1
400.27	4.49
400.479	4.08
400.688	3.1
400.897	3.59
401.106	3.59
401.315	3.36
401.524	3.36
401.733	3.94
401.941	3.91
402.15	4.08
402.359	3.86
402.568	4.23
402.777	4.28
402.985	4.34
403.194	4.08
403.403	4.33
403.612	3.88
403.82	3.79
404.029	3.89
404.238	3.88
404.446	4.15
404.655	4.13
404.864	4.04
405.072	3.92
405.281	4.08
405.489	3.68
405.698	3.82
405.906	3.98
406.115	4.02
406.324	4.07
406.532	4.3
406.741	4.44
406.949	4.38
407.158	4.38
407.366	4.28
407.574	4.23
407.783	4.18
407.991	3.99
408.2	4.15
408.408	4.14
408.617	4.08
408.825	3.9
409.033	4.05
409.242	3.93
409.45	3.84
409.658	3.68
409.867	3.83
410.075	3.66
410.283	3.51
410.491	3.56
410.7	3.59
410.908	3.58
411.116	3.89
411.324	3.96
411.533	3.89
411.741	4.13
411.949	4.1
412.157	3.8
412.365	3.83
412.573	3.91
412.781	3.81
412.99	3.71
413.198	3.95
413.406	3.92
413.614	3.87
413.822	3.7
414.03	3.68
414.238	3.4
414.446	3.48
414.654	3.28
414.862	3.45
415.07	3.53
415.278	3.81
415.486	3.52
415.694	3.67
415.902	3.48
416.109	3.34
416.317	3.23
416.525	3.2
416.733	3.16
416.941	3.24
417.149	3.24
417.357	3.21
417.564	3.47
417.772	3.69
417.98	3.66
418.188	3.69
418.395	3.72
418.603	3.7
418.811	3.39
419.019	3.39
419.226	3.56
419.434	3.63
419.642	3.43
419.849	3.5
420.057	3.45
420.265	3.43
420.472	3.2
420.68	3.17
420.887	3.1
421.095	3.17
421.302	2.96
421.51	3.16
421.717	3.34
421.925	3.43
422.132	3.26
422.34	3.12
422.547	3.11
422.755	2.98
422.962	2.87
423.17	2.91
423.377	3.12
423.585	3.12
423.792	3.03
423.999	3.09
424.207	3.04
424.414	3.21
424.621	3.21
424.829	3.35
425.036	3.35
425.243	3.59
425.451	3.33
425.658	3.13
425.865	3.26
426.072	3.27
426.28	3.45
426.487	3.43
426.694	3.58
426.901	3.43
427.108	3.58
427.315	3.37
427.523	3.76
427.73	3.7
427.937	3.7
428.144	3.48
428.351	3.39
428.558	3.32
428.765	3.27
428.972	3.17
429.179	3.41
429.386	3.69
429.593	3.35
429.8	3.26
430.007	3.35
430.214	3.33
430.421	2.98
430.628	2.94
430.835	2.91
431.042	3.15
431.249	3.16
431.456	3.32
431.662	3.56
431.869	3.86
432.076	3.83
432.283	3.88
432.49	3.89
432.697	3.87
432.903	3.54
433.11	3.43
433.317	3.42
433.524	3.58
433.73	3.42
433.937	3.7
434.144	3.54
434.35	3.49
434.557	3.22
434.764	3.32
434.97	3.19
435.177	3.45
435.384	3.39
435.59	3.47
435.797	3.59
436.003	3.68
436.21	3.58
436.416	3.69
436.623	3.75
436.829	3.88
437.036	3.96
437.242	3.92
437.449	3.85
437.655	3.82
437.862	3.71
438.068	3.57
438.275	3.8
438.481	3.99
438.687	3.98
438.894	3.88
439.1	3.95
439.307	4.04
439.513	3.94
439.719	3.95
439.926	4.12
440.132	4.05
440.338	3.79
440.544	3.87
440.751	3.88
440.957	3.92
441.163	3.95
441.369	4.08
441.575	3.89
441.782	3.9
441.988	3.68
442.194	3.64
442.4	3.64
442.606	3.99
442.812	4.03
443.018	4.24
443.224	4.35
443.431	4.35
443.637	4.01
443.843	3.98
444.049	3.89
444.255	3.85
444.461	3.92
444.667	3.99
444.873	4.17
445.079	4.24
445.284	4.3
445.49	4.1
445.696	3.91
445.902	3.71
446.108	3.64
446.314	3.55
446.52	3.67
446.726	4.04
446.931	4.06
447.137	4.16
447.343	4.2
447.549	4.09
447.755	3.92
447.96	4.04
448.166	3.9
448.372	3.89
448.578	4
448.783	4
448.989	4.13
449.195	4.41
449.4	4.43
449.606	4.39
449.812	4.28
450.017	4.18
450.223	4.05
450.428	3.99
450.634	4.07
450.84	4.31
451.045	4.21
451.251	4.14
451.456	4.36
451.662	4.43
451.867	4.4
452.073	4.47
452.278	4.56
452.483	4.58
452.689	4.46
452.894	4.39
453.1	4.3
453.305	4.18
453.51	4.05
453.716	4.01
453.921	4.14
454.127	4.11
454.332	4.07
454.537	4.04
454.742	4.14
454.948	4.06
455.153	4.22
455.358	4.31
455.563	4.46
455.769	4.52
455.974	4.51
456.179	4.29
456.384	4.31
456.589	4.24
456.795	3.99
457	3.97
457.205	4.32
457.41	4.32
457.615	4.28
457.82	4.34
458.025	4.4
458.23	4.18
458.435	4.17
458.64	4.09
458.845	4.29
459.05	4.2
459.255	4.21
459.46	4.19
459.665	4.24
459.87	4.12
460.075	4.19
460.28	4.2
460.485	4.27
460.69	4.34
460.895	4.32
461.099	4.23
461.304	4.41
461.509	4.46
461.714	4.41
461.919	4.59
462.123	4.51
462.328	4.53
462.533	4.42
462.738	4.5
462.942	4.37
463.147	4.55
463.352	4.48
463.556	4.54
463.761	4.52
463.966	4.56
464.17	4.51
464.375	4.35
464.58	4.29
464.784	4.25
464.989	4.14
465.193	4.25
465.398	4.33
465.602	4.46
465.807	4.45
466.011	4.55
466.216	4.49
466.42	4.54
466.625	4.6
466.829	4.68
467.034	4.69
467.238	4.84
467.443	4.75
467.647	4.56
467.851	4.6
468.056	4.73
468.26	4.59
468.464	4.72
468.669	4.89
468.873	5.03
469.077	4.9
469.282	5.02
469.486	5.07
469.69	4.97
469.894	4.73
470.099	4.83
470.303	4.83
470.507	4.67
470.711	4.64
470.915	4.72
471.119	4.66
471.324	4.64
471.528	4.7
471.732	4.8
471.936	4.76
472.14	4.86
472.344	4.93
472.548	5.08
472.752	5.25
472.956	5.51
473.16	5.41
473.364	5.26
473.568	5.16
473.772	5.14
473.976	4.99
474.18	5.05
474.384	5.09
474.588	5.1
474.792	4.93
474.995	5.02
475.199	5.06
475.403	5.15
475.607	5.2
475.811	5.29
476.015	5.27
476.218	5.32
476.422	5.27
476.626	5.3
476.83	5.37
477.033	5.26
477.237	5.17
477.441	5.27
477.644	5.24
477.848	5.18
478.052	5.23
478.255	5.26
478.459	5.24
478.663	5.36
478.866	5.44
479.07	5.47
479.273	5.65
479.477	5.69
479.681	5.63
479.884	5.55
480.088	5.51
480.291	5.42
480.495	5.42
480.698	5.42
480.901	5.54
481.105	5.66
481.308	5.64
481.512	5.61
481.715	5.63
481.919	5.59
482.122	5.54
482.325	5.56
482.529	5.61
482.732	5.63
482.935	5.6
483.138	5.58
483.342	5.66
483.545	5.68
483.748	5.67
483.952	5.76
484.155	5.91
484.358	5.91
484.561	5.88
484.764	5.89
484.967	5.97
485.171	6
485.374	5.92
485.577	6.05
485.78	6.09
485.983	6.03
486.186	5.88
486.389	5.96
486.592	5.89
486.795	5.92
486.998	5.91
487.201	6.02
487.404	5.97
487.607	6.07
487.81	6.06
488.013	6.11
488.216	6.04
488.419	6.08
488.622	5.97
488.825	5.88
489.028	5.8
489.231	5.8
489.433	5.77
489.636	5.71
489.839	5.75
490.042	5.69
490.245	5.65
490.447	5.66
490.65	5.74
490.853	5.79
491.056	5.84
491.258	5.86
491.461	5.95
491.664	6.05
491.866	5.98
492.069	6.07
492.272	6.05
492.474	6.04
492.677	6.01
492.879	6.07
493.082	6.13
493.285	6.26
493.487	6.19
493.69	6.08
493.892	6.07
494.095	5.96
494.297	5.87
494.5	5.89
494.702	6.01
494.905	6.08
495.107	6.1
495.309	6.16
495.512	6.21
495.714	6.21
495.917	6.23
496.119	6.2
496.321	6.19
496.524	6.23
496.726	6.2
496.928	6.2
497.13	6.17
497.333	6.13
497.535	6.13
497.737	6.12
497.939	6.12
498.142	6.2
498.344	6.25
498.546	6.2
498.748	6.25
498.95	6.34
499.152	6.3
499.355	6.31
499.557	6.39
499.759	6.41
499.961	6.31
500.163	6.48
500.365	6.48
500.567	6.55
500.769	6.48
500.971	6.48
501.173	6.29
501.375	6.38
501.577	6.29
501.779	6.34
501.981	6.39
502.183	6.45
502.385	6.39
502.587	6.27
502.788	6.31
502.99	6.36
503.192	6.45
503.394	6.46
503.596	6.59
503.798	6.62
503.999	6.6
504.201	6.62
504.403	6.66
504.605	6.74
504.806	6.61
505.008	6.62
505.21	6.63
505.411	6.6
505.613	6.6
505.815	6.73
506.016	6.79
506.218	6.84
506.42	6.87
506.621	6.84
506.823	6.87
507.024	6.8
507.226	6.74
507.427	6.75
507.629	6.78
507.83	6.86
508.032	6.88
508.233	6.99
508.435	7.06
508.636	7.13
508.838	7.05
509.039	7.03
509.24	7.02
509.442	7
509.643	6.92
509.845	6.95
510.046	7.02
510.247	7.04
510.448	7.04
510.65	7.12
510.851	7.22
511.052	7.22
511.254	7.19
511.455	7.3
511.656	7.36
511.857	7.39
512.058	7.41
512.26	7.42
512.461	7.42
512.662	7.38
512.863	7.26
513.064	7.32
513.265	7.33
513.466	7.36
513.667	7.36
513.868	7.4
514.069	7.41
514.27	7.5
514.471	7.4
514.672	7.39
514.873	7.38
515.074	7.35
515.275	7.22
515.476	7.24
515.677	7.31
515.878	7.46
516.079	7.49
516.28	7.55
516.481	7.7
516.682	7.7
516.882	7.59
517.083	7.54
517.284	7.55
517.485	7.44
517.686	7.39
517.886	7.41
518.087	7.52
518.288	7.56
518.488	7.55
518.689	7.58
518.89	7.54
519.091	7.53
519.291	7.51
519.492	7.54
519.692	7.54
519.893	7.67
520.094	7.68
520.294	7.68
520.495	7.7
520.695	7.77
520.896	7.73
521.096	7.73
521.297	7.79
521.497	7.79
521.698	7.69
521.898	7.74
522.099	7.7
522.299	7.76
522.499	7.81
522.7	7.85
522.9	7.77
523.101	7.83
523.301	7.8
523.501	7.81
523.702	7.85
523.902	7.97
524.102	8
524.302	7.99
524.503	8
524.703	8.01
524.903	8.01
525.103	7.93
525.304	8.03
525.504	8.08
525.704	8.15
525.904	8.08
526.104	8.1
526.304	8.09
526.504	8.04
526.705	8.03
526.905	8.13
527.105	8.14
527.305	8.13
527.505	8.13
527.705	8.13
527.905	8.12
528.105	8.15
528.305	8.09
528.505	8.13
528.705	8.22
528.905	8.13
529.105	8.12
529.304	8.19
529.504	8.31
529.704	8.21
529.904	8.32
530.104	8.34
530.304	8.46
530.503	8.36
530.703	8.32
530.903	8.26
531.103	8.32
531.303	8.17
531.502	8.17
531.702	8.28
531.902	8.36
532.101	8.29
532.301	8.35
532.501	8.38
532.7	8.35
532.9	8.35
533.1	8.41
533.299	8.41
533.499	8.45
533.698	8.42
533.898	8.46
534.097	8.5
534.297	8.58
534.496	8.55
534.696	8.61
534.895	8.64
535.095	8.73
535.294	8.62
535.494	8.59
535.693	8.59
535.892	8.6
536.092	8.46
536.291	8.5
536.491	8.65
536.69	8.67
536.889	8.59
537.088	8.65
537.288	8.68
537.487	8.69
537.686	8.7
537.886	8.8
538.085	8.86
538.284	8.98
538.483	8.96
538.682	9.01
538.882	9.01
539.081	9.04
539.28	8.93
539.479	8.96
539.678	8.96
539.877	9.08
540.076	9.05
540.275	9.11
540.474	9.22
540.673	9.29
540.872	9.2
541.071	9.25
541.27	9.24
541.469	9.18
541.668	9.2
541.867	9.21
542.066	9.27
542.265	9.34
542.464	9.29
542.663	9.29
542.862	9.42
543.06	9.43
543.259	9.49
543.458	9.62
543.657	9.66
543.856	9.73
544.054	9.75
544.253	9.77
544.452	9.78
544.651	9.86
544.849	9.78
545.048	9.83
545.247	9.84
545.445	9.91
545.644	9.92
545.843	9.92
546.041	9.99
546.24	10.09
546.438	10.13
546.637	10.14
546.836	10.29
547.034	10.33
547.233	10.34
547.431	10.34
547.63	10.38
547.828	10.42
548.027	10.45
548.225	10.44
548.423	10.52
548.622	10.63
548.82	10.62
549.019	10.67
549.217	10.84
549.415	10.89
549.614	10.94
549.812	10.97
550.01	10.93
550.209	10.94
550.407	11
550.605	11.01
550.803	11.07
551.002	11.17
551.2	11.19
551.398	11.24
551.596	11.36
551.794	11.48
551.993	11.56
552.191	11.66
552.389	11.73
552.587	11.8
552.785	11.78
552.983	11.86
553.181	11.94
553.379	11.99
553.577	12
553.775	12.15
553.973	12.23
554.171	12.31
554.369	12.29
554.567	12.37
554.765	12.37
554.963	12.44
555.161	12.38
555.359	12.53
555.557	12.67
555.755	12.83
555.952	12.89
556.15	12.99
556.348	13.05
556.546	13.14
556.744	13.15
556.941	13.18
557.139	13.35
557.337	13.39
557.535	13.34
557.732	13.45
557.93	13.6
558.128	13.65
558.325	13.79
558.523	13.8
558.721	13.88
558.918	13.91
559.116	14.01
559.313	14.06
559.511	14.31
559.708	14.29
559.906	14.4
560.104	14.45
560.301	14.6
560.498	14.62
560.696	14.77
560.893	14.86
561.091	14.98
561.288	15.07
561.486	15.19
561.683	15.26
561.88	15.34
562.078	15.44
562.275	15.42
562.473	15.48
562.67	15.65
562.867	15.76
563.064	15.89
563.262	15.95
563.459	16.03
563.656	16.13
563.853	16.23
564.051	16.22
564.248	16.48
564.445	16.64
564.642	16.7
564.839	16.86
565.036	17
565.234	17.13
565.431	17.14
565.628	17.2
565.825	17.25
566.022	17.42
566.219	17.47
566.416	17.59
566.613	17.74
566.81	17.82
567.007	17.74
567.204	17.72
567.401	17.85
567.598	17.8
567.795	17.85
567.991	17.93
568.188	18.03
568.385	18.12
568.582	18.24
568.779	18.32
568.976	18.51
569.172	18.66
569.369	18.63
569.566	18.75
569.763	18.8
569.96	18.78
570.156	18.8
570.353	18.9
570.55	18.98
570.746	19.04
570.943	19.13
571.14	19.13
571.336	19.2
571.533	19.31
571.729	19.37
571.926	19.49
572.123	19.63
572.319	19.67
572.516	19.58
572.712	19.71
572.909	19.67
573.105	19.7
573.302	19.75
573.498	19.92
573.695	19.82
573.891	19.87
574.087	19.88
574.284	19.86
574.48	19.72
574.677	19.78
574.873	19.8
575.069	19.81
575.266	19.87
575.462	19.91
575.658	20.01
575.854	20.11
576.051	20.19
576.247	20.22
576.443	20.23
576.639	20.23
576.835	20.17
577.032	20.1
577.228	20.15
577.424	20.3
577.62	20.24
577.816	20.31
578.012	20.35
578.208	20.43
578.404	20.42
578.6	20.48
578.796	20.45
578.993	20.47
579.189	20.35
579.384	20.26
579.58	20.22
579.776	20.17
579.972	20.09
580.168	20.11
580.364	20.12
580.56	20.07
580.756	20.08
580.952	20.06
581.148	20.04
581.343	20.13
581.539	20.13
581.735	20.13
581.931	20.31
582.127	20.35
582.322	20.27
582.518	20.26
582.714	20.27
582.909	20.15
583.105	20.1
583.301	20.11
583.496	20.26
583.692	20.25
583.888	20.21
584.083	20.26
584.279	20.34
584.474	20.2
584.67	20.18
584.866	20.24
585.061	20.09
585.257	20.02
585.452	20.08
585.648	19.97
585.843	19.94
586.039	20.07
586.234	20.07
586.429	19.95
586.625	20.11
586.82	20.03
587.015	20
587.211	19.89
587.406	20.03
587.601	19.94
587.797	20.07
587.992	20.03
588.187	20.25
588.383	20.14
588.578	20.18
588.773	20.19
588.968	20.27
589.163	20.25
589.359	20.35
589.554	20.33
589.749	20.34
589.944	20.35
590.139	20.39
590.334	20.48
590.529	20.58
590.724	20.67
590.919	20.7
591.114	20.68
591.309	20.66
591.504	20.69
591.699	20.65
591.894	20.72
592.089	20.69
592.284	20.73
592.479	20.78
592.674	20.78
592.869	20.88
593.064	21
593.259	21.11
593.454	21.26
593.648	21.39
593.843	21.35
594.038	21.36
594.233	21.32
594.428	21.26
594.622	21.28
594.817	21.49
595.012	21.61
595.206	21.68
595.401	21.76
595.596	21.81
595.79	21.76
595.985	21.85
596.18	21.94
596.374	22.02
596.569	22.16
596.763	22.19
596.958	22.2
597.153	22.23
597.347	22.32
597.542	22.39
597.736	22.37
597.931	22.51
598.125	22.54
598.319	22.67
598.514	22.64
598.708	22.85
598.903	22.85
599.097	22.96
599.291	22.98
599.486	23.02
599.68	23.04
599.874	23.16
600.069	23.14
600.263	23.17
600.457	23.22
600.651	23.23
600.846	23.26
601.04	23.35
601.234	23.37
601.428	23.43
601.622	23.55
601.817	23.62
602.011	23.68
602.205	23.78
602.399	23.78
602.593	23.72
602.787	23.68
602.981	23.66
603.175	23.61
603.369	23.6
603.563	23.55
603.757	23.64
603.951	23.67
604.145	23.65
604.339	23.7
604.533	23.66
604.727	23.58
604.921	23.55
605.115	23.52
605.309	23.58
605.502	23.62
605.696	23.62
605.89	23.6
606.084	23.59
606.278	23.46
606.471	23.43
606.665	23.3
606.859	23.17
607.053	23.18
607.246	23.19
607.44	23.14
607.634	23.14
607.827	23.28
608.021	23.2
608.214	23.15
608.408	23.08
608.602	23.04
608.795	22.86
608.989	22.76
609.182	22.64
609.376	22.66
609.569	22.58
609.763	22.47
609.956	22.37
610.15	22.29
610.343	22.27
610.537	22.18
610.73	22.18
610.923	22.21
611.117	22.22
611.31	22.08
611.504	22.05
611.697	21.93
611.89	21.75
612.083	21.69
612.277	21.68
612.47	21.58
612.663	21.57
612.856	21.6
613.05	21.44
613.243	21.29
613.436	21.23
613.629	21.17
613.822	21.05
614.015	20.95
614.209	20.85
614.402	20.8
614.595	20.73
614.788	20.67
614.981	20.59
615.174	20.51
615.367	20.42
615.56	20.4
615.753	20.32
615.946	20.22
616.139	20.2
616.332	20.22
616.525	20.19
616.718	20.32
616.911	20.41
617.103	20.49
617.296	20.48
617.489	20.41
617.682	20.17
617.875	20.14
618.067	19.99
618.26	19.78
618.453	19.76
618.646	19.83
618.838	19.77
619.031	19.89
619.224	19.94
619.417	19.9
619.609	19.81
619.802	19.79
619.994	19.76
620.187	19.76
620.38	19.79
620.572	19.73
620.765	19.67
620.957	19.51
621.15	19.35
621.342	19.24
621.535	19.29
621.727	19.25
621.92	19.17
622.112	19.27
622.305	19.33
622.497	19.26
622.69	19.25
622.882	19.3
623.074	19.3
623.267	19.24
623.459	19.2
623.651	19.2
623.844	19.27
624.036	19.22
624.228	19.12
624.42	19.13
624.613	19.21
624.805	19.15
624.997	19.09
625.189	19.14
625.381	19.1
625.574	18.99
625.766	18.9
625.958	18.92
626.15	18.89
626.342	18.86
626.534	18.8
626.726	18.82
626.918	18.81
627.11	18.8
627.302	18.75
627.494	18.74
627.686	18.7
627.878	18.59
628.07	18.45
628.262	18.4
628.454	18.39
628.646	18.46
628.838	18.53
629.029	18.59
629.221	18.7
629.413	18.59
629.605	18.37
629.797	18.23
629.989	18.23
630.18	18.12
630.372	18.05
630.564	18.13
630.755	18.19
630.947	18.15
631.139	18.06
631.33	18.07
631.522	18.1
631.714	18.08
631.905	18.03
632.097	18.01
632.289	18.02
632.48	17.9
632.672	17.72
632.863	17.67
633.055	17.74
633.246	17.72
633.438	17.67
633.629	17.77
633.821	17.76
634.012	17.67
634.203	17.54
634.395	17.58
634.586	17.59
634.777	17.53
634.969	17.56
635.16	17.64
635.351	17.59
635.543	17.59
635.734	17.66
635.925	17.65
636.117	17.68
636.308	17.68
636.499	17.56
636.69	17.45
636.881	17.4
637.073	17.4
637.264	17.33
637.455	17.42
637.646	17.54
637.837	17.56
638.028	17.49
638.219	17.59
638.41	17.52
638.601	17.34
638.792	17.34
638.983	17.29
639.174	17.21
639.365	17.26
639.556	17.32
639.747	17.35
639.938	17.37
640.129	17.35
640.32	17.27
640.511	17.26
640.701	17.3
640.892	17.3
641.083	17.36
641.274	17.41
641.465	17.45
641.655	17.34
641.846	17.33
642.037	17.35
642.228	17.31
642.418	17.35
642.609	17.38
642.8	17.4
642.99	17.28
643.181	17.25
643.372	17.24
643.562	17.15
643.753	17.02
643.943	16.97
644.134	16.88
644.324	16.76
644.515	16.74
644.705	16.87
644.896	16.93
645.086	16.99
645.277	16.98
645.467	17.05
645.658	16.92
645.848	16.91
646.038	16.89
646.229	16.86
646.419	16.7
646.61	16.7
646.8	16.59
646.99	16.6
647.18	16.58
647.371	16.57
647.561	16.55
647.751	16.62
647.941	16.52
648.132	16.56
648.322	16.58
648.512	16.67
648.702	16.64
648.892	16.63
649.082	16.55
649.272	16.39
649.462	16.19
649.653	16.14
649.843	16.01
650.033	16.09
650.223	16.11
650.413	16.09
650.603	16.05
650.793	16.09
650.983	15.94
651.172	15.92
651.362	15.93
651.552	15.92
651.742	15.87
651.932	15.87
652.122	15.91
652.312	16.04
652.502	15.97
652.691	15.98
652.881	15.93
653.071	15.85
653.261	15.57
653.45	15.39
653.64	15.37
653.83	15.21
654.019	15.05
654.209	14.96
654.399	14.93
654.588	14.74
654.778	14.69
654.968	14.6
655.157	14.56
655.347	14.51
655.536	14.41
655.726	14.21
655.915	14.09
656.105	13.93
656.294	13.75
656.484	13.61
656.673	13.49
656.863	13.43
657.052	13.28
657.241	13.15
657.431	12.98
657.62	12.94
657.809	12.58
657.999	12.46
658.188	12.32
658.377	12.13
658.567	12.02
658.756	11.99
658.945	11.8
659.134	11.71
659.324	11.67
659.513	11.48
659.702	11.3
659.891	11.16
660.08	10.92
660.269	10.75
660.458	10.58
660.648	10.53
660.837	10.41
661.026	10.36
661.215	10.19
661.404	10.07
661.593	10
661.782	9.82
661.971	9.7
662.16	9.65
662.349	9.61
662.538	9.32
662.726	9.32
662.915	9.19
663.104	9.09
663.293	9.03
663.482	9.09
663.671	8.91
663.86	8.74
664.048	8.63
664.237	8.53
664.426	8.31
664.615	8.28
664.803	8.26
664.992	8.06
665.181	7.87
665.369	7.82
665.558	7.71
665.747	7.52
665.935	7.66
666.124	7.73
666.312	7.67
666.501	7.64
666.69	7.64
666.878	7.47
667.067	7.25
667.255	7.4
667.444	7.58
667.632	7.65
667.82	7.79
668.009	7.87
668.197	7.68
668.386	7.54
668.574	7.53
668.762	7.38
668.951	7.28
669.139	7.21
669.327	7.03
669.516	7.02
669.704	6.98
669.892	7.09
670.08	7.18
670.269	7.07
670.457	7.02
670.645	6.86
670.833	6.95
671.021	6.91
671.21	7.14
671.398	7.26
671.586	7.34
671.774	7.13
671.962	7.16
672.15	7.12
672.338	7.09
672.526	7.21
672.714	7.17
672.902	7.21
673.09	7.45
673.278	7.54
673.466	7.51
673.654	7.77
673.842	7.77
674.03	7.65
674.218	7.55
674.405	7.62
674.593	7.43
674.781	7.55
674.969	7.57
675.157	7.78
675.344	7.93
675.532	8.14
675.72	8.27
675.908	8.22
676.095	8.15
676.283	8.13
676.471	8.3
676.658	8.2
676.846	8.39
677.033	8.5
677.221	8.61
677.409	8.43
677.596	8.59
677.784	8.57
677.971	8.6
678.159	8.57
678.346	8.73
678.534	8.79
678.721	9.03
678.909	9.14
679.096	9.18
679.283	9.37
679.471	9.46
679.658	9.45
679.846	9.64
680.033	9.98
680.22	9.91
680.408	10.02
680.595	10.13
680.782	9.97
680.969	10.07
681.157	10.19
681.344	10.29
681.531	10.34
681.718	10.47
681.905	10.43
682.093	10.65
682.28	10.87
682.467	11.1
682.654	11.32
682.841	11.5
683.028	11.8
683.215	12
683.402	12.04
683.589	12.38
683.776	12.6
683.963	12.53
684.15	12.61
684.337	12.92
684.524	12.96
684.711	13.23
684.898	13.32
685.085	13.49
685.271	13.71
685.458	14.03
685.645	14.08
685.832	14.55
686.019	14.95
686.205	15.2
686.392	15.47
686.579	15.75
686.766	16.14
686.952	16.38
687.139	16.89
687.326	17.05
687.512	17.45
687.699	17.7
687.886	17.97
688.072	17.92
688.259	18.47
688.445	19.04
688.632	19.32
688.818	19.86
689.005	20.49
689.191	20.65
689.378	21.2
689.564	21.81
689.751	22.23
689.937	22.81
690.124	23.68
690.31	23.8
690.496	24.3
690.683	24.82
690.869	25.19
691.055	25.41
691.242	26.17
691.428	26.6
691.614	27.14
691.8	27.77
691.987	28.62
692.173	29.24
692.359	30.01
692.545	30.7
692.731	31.36
692.918	31.87
693.104	32.38
693.29	32.93
693.476	33.61
693.662	34.24
693.848	34.92
694.034	35.51
694.22	36.03
694.406	36.55
694.592	37.29
694.778	37.78
694.964	38.47
695.15	39.26
695.336	39.65
695.522	40.27
695.708	40.89
695.894	41.52
696.08	42.19
696.265	42.98
696.451	43.41
696.637	44.15
696.823	44.63
697.009	44.77
697.194	45.21
697.38	45.77
697.566	46.16
697.751	46.76
697.937	47.84
698.123	48.57
698.308	49.12
698.494	49.71
698.68	50.09
698.865	50.56
699.051	51.01
699.236	51.46
699.422	51.9
699.607	52.62
699.793	53.01
699.978	53.37
700.164	53.73
700.349	54.37
700.535	54.69
700.72	55.01
700.906	55.9
701.091	56.42
701.276	57.01
701.462	57.6
701.647	58.5
701.832	58.77
702.018	59.2
702.203	59.52
702.388	59.83
702.573	59.82
702.759	60.27
702.944	60.48
703.129	60.52
703.314	60.89
703.499	61.24
703.684	61.47
703.87	62.66
704.055	63.59
704.24	64.12
704.425	64.49
704.61	64.83
704.795	64.71
704.98	64.47
705.165	64.27
705.35	64.7
705.535	65.09
705.72	65.36
705.905	66
706.09	66.4
706.275	66.23
706.459	66.12
706.644	66.29
706.829	66.67
707.014	66.74
707.199	67.43
707.384	67.87
707.568	68.11
707.753	68.29
707.938	69
708.123	69.08
708.307	69.18
708.492	69.26
708.677	69.26
708.861	68.82
709.046	68.46
709.231	69.24
709.415	69.54
709.6	69.57
709.784	69.97
709.969	70.66
710.153	70.18
710.338	70.37
710.522	70.61
710.707	71.04
710.891	70.81
711.076	71.23
711.26	70.8
711.445	71.13
711.629	71.54
711.813	72.24
711.998	72.57
712.182	72.79
712.366	73.07
712.551	73.62
712.735	73.46
712.919	72.98
713.103	73.71
713.288	73.04
713.472	72.16
713.656	72.85
713.84	73.41
714.024	73.42
714.208	73.98
714.393	74.97
714.577	74.8
714.761	75.02
714.945	75.19
715.129	75.39
715.313	75.22
715.497	75.21
715.681	75.45
715.865	75.19
716.049	74.97
716.233	74.76
716.417	75.1
716.601	74.83
716.785	75.13
716.968	75.34
717.152	75.39
717.336	75.23
717.52	75.16
717.704	75
717.888	75.8
718.071	76.07
718.255	76
718.439	76.04
718.622	76.46
718.806	76.17
718.99	75.81
719.174	75.77
719.357	75.88
719.541	75.82
719.724	75.5
719.908	76.31
720.092	76.82
720.275	77.12
720.459	77.24
720.642	77.57
720.826	77.05
721.009	76.52
721.193	76.13
721.376	76.2
721.559	76.21
721.743	76.36
721.926	77.21
722.11	77.96
722.293	77.34
722.476	77.07
722.66	77.19
722.843	76.42
723.026	75.8
723.21	76.45
723.393	77.17
723.576	77.08
723.759	76.78
723.942	76.93
724.126	76.73
724.309	76.43
724.492	76.89
724.675	76.93
724.858	77.76
725.041	78.51
725.224	78.1
725.407	78.32
725.59	79.21
725.774	78.43
725.957	77.56
726.14	77.67
726.322	77.38
726.505	77.2
726.688	77.58
726.871	77.7
727.054	78.62
727.237	78.46
727.42	78.83
727.603	78.66
727.786	79.27
727.968	78.97
728.151	79.04
728.334	78.74
728.517	79.24
728.699	79.44
728.882	79.94
729.065	80.48
729.248	80.48
729.43	80.31
729.613	80.82
729.796	81.01
729.978	79.88
730.161	80.18
730.343	80.39
730.526	79.87
730.708	79.31
730.891	80.76
731.073	80.43
731.256	80.17
731.438	80.35
731.621	81.19
731.803	80.54
731.986	81
732.168	80.8
732.35	81.05
732.533	80.24
732.715	80.92
732.898	81.46
733.08	81.71
733.262	81.99
733.444	82.01
733.627	81.89
733.809	81.87
733.991	82.52
734.173	81.56
734.355	81.36
734.538	81.25
734.72	80.79
734.902	80.72
735.084	81.33
735.266	81.63
735.448	82.24
735.63	82.06
735.812	81.76
735.994	82.42
736.176	82.59
736.358	81.76
736.54	82.56
736.722	82.57
736.904	81.97
737.086	82.07
737.268	83.06
737.45	83.57
737.632	83.4
737.814	82.98
737.995	83.09
738.177	82.4
738.359	81.02
738.541	81.69
738.723	82.77
738.904	83.66
739.086	83.89
739.268	84.75
739.449	84.57
739.631	83.58
739.813	83.08
739.994	82.76
740.176	83.03
740.358	82.8
740.539	84.69
740.721	84.41
740.902	85.89
741.084	85.46
741.265	85.1
741.447	84.53
741.628	85.03
741.81	83.59
741.991	83.87
742.172	85.35
742.354	85.18
742.535	84.9
742.717	86.4
742.898	86.86
743.079	87.64
743.261	86.51
743.442	86.25
743.623	85.89
743.804	85.61
743.986	84.94
744.167	85.13
744.348	85.13
744.529	84.87
744.71	84.12
744.891	83.32
745.073	83.85
745.254	83.94
745.435	83.36
745.616	82.16
745.797	82.24
745.978	80.84
746.159	80.57
746.34	80.31
746.521	82.37
746.702	81.17
746.883	81.55
747.064	81.56
747.245	82.52
747.426	81.84
747.606	83.1
747.787	84.67
747.968	84.6
748.149	84.8
748.33	85.69
748.51	85.52
748.691	84.41
748.872	84.26
749.053	83.1
749.233	82.03
749.414	81.44
749.595	80.54
749.775	79.53
749.956	79.59
750.137	80.1
750.317	81.97
750.498	83.26
750.678	84.55
750.859	85.65
751.04	85.88
751.22	84.58
751.4	84.17
751.581	83.96
751.761	82.07
751.942	82.29
752.122	81.56
752.303	81.03
752.483	80.88
752.663	81.94
752.844	80.55
753.024	80.94
753.204	80.91
753.385	79.81
753.565	79.09
753.745	79.72
753.925	79.73
754.106	79.45
754.286	80.02
754.466	79.62
754.646	80.43
754.826	79.98
755.006	79.25
755.187	80.4
755.367	81.33
755.547	81.37
755.727	82.17
755.907	83.07
756.087	84.12
756.267	83.4
756.447	81.91
756.627	81.23
756.807	82.38
756.987	80.51
757.167	81.29
757.346	81.08
757.526	80.52
757.706	80.52
757.886	82.28
758.066	82.52
758.246	84.75
758.425	85.16
758.605	83.62
758.785	82.7
758.965	82.48
759.144	80.26
759.324	79.43
759.504	81.32
759.683	80.41
759.863	78.7
760.043	78.08
760.222	78.79
760.402	77.1
760.581	77.28
760.761	79.94
760.94	79.39
761.12	81.45
761.299	81.63
761.479	80.05
761.658	77.89
761.838	79.07
762.017	78.65
762.197	79.65
762.376	80.82
762.555	81.53
762.735	81.77
762.914	79.13
763.093	78.19
763.273	77.78
763.452	77.48
763.631	77.25
763.81	77.7
763.99	77.21
764.169	77.93
764.348	76.92
764.527	75.39
764.706	77.6
764.885	78.96
765.064	78.19
765.243	79.52
765.423	81.42
765.602	80.5
765.781	78.43
765.96	77.34
766.139	77.34
766.318	77.33
766.497	76.17
766.676	77.86
766.854	80.8
767.033	80.23
767.212	78.26
767.391	79.42
767.57	78.84
767.749	76.64
767.928	78.82
768.106	79.47
768.285	77.02
768.464	77.08
768.643	77.54
768.821	74.93
769	76.2
769.179	76.4
769.357	76.57
769.536	76.24
769.715	76.2
769.893	76.52
770.072	77.15
770.25	78.67
770.429	77.44
770.607	78.15
770.786	78.27
770.964	79.44
771.143	77.33
771.321	79.67
771.5	80.69
771.678	79.43
771.857	78.36
772.035	76.99
772.213	75.74
772.392	73.92
772.57	74.49
772.748	74.4
772.927	74.29
773.105	75.22
773.283	75.94
773.461	76.21
773.64	77.14
773.818	78.54
773.996	78.6
774.174	78.36
774.352	76.02
774.531	73.47
774.709	74.71
774.887	73.04
775.065	72.88
775.243	74.32
775.421	75.58
775.599	75.22
775.777	73.75
775.955	72.52
776.133	71.24
776.311	72.89
776.489	69.12
776.667	70.64
776.844	71.7
777.022	70.81
777.2	69.97
777.378	73.99
777.556	75
777.734	76.29
777.911	78.98
778.089	76.4
778.267	75.4
778.445	74.63
778.622	71.76
778.8	71.97
778.978	74.39
779.155	73.81
779.333	74.07
779.511	75.19
779.688	76.48
779.866	74.84
780.043	71.45
780.221	71.1
780.398	69.1
780.576	69.05
780.753	70.78
780.931	70.66
781.108	70.65
781.286	73.13
781.463	68.61
781.64	65.23
781.818	66.91
781.995	67.68
782.172	67.2
782.35	68.23
782.527	72.54
782.704	73.85
782.882	73.16
783.059	73.04
783.236	74.36
783.413	74.15
783.59	73.26
783.768	71.43
783.945	73.02
784.122	72.76
784.299	72.34
784.476	70.22
784.653	71.44
784.83	67.56
785.007	65.19
785.184	66.13
785.361	65.79
785.538	68.5
785.715	73.15
785.892	74.92
786.069	76.65
786.246	81.66
786.423	82.97
786.6	79.75
786.776	81.75
786.953	77.33
787.13	76.55
787.307	74.73
787.484	75.5
787.66	72.07
787.837	70.72
788.014	65.41
788.191	64.22
788.367	60.85
788.544	64.19
788.721	66.76
788.897	70.61
789.074	71.36
789.25	71.55
789.427	70.97
789.603	70.24
789.78	73.3
789.956	71
790.133	69.57
790.309	72
790.486	73.39
790.662	68.97
790.839	69.82
791.015	72.1
791.192	66.8
791.368	70.77
791.544	71.27
791.721	70.63
791.897	72.74
792.073	73.97
792.249	61.33
792.426	65.39
792.602	67.15
792.778	65.7
792.954	64.41
793.13	68.73
793.307	61.26
793.483	52.73
793.659	51.93
793.835	57.75
794.011	58.95
794.187	60.21
794.363	62.35
794.539	67.08
794.715	62.39
794.891	59.87
795.067	60.41
795.243	67.31
795.419	65.11
795.595	62.96
795.771	63.95
795.947	64.91
796.122	63.17
796.298	65.97
796.474	68.06
796.65	71.37
796.826	71.39
797.001	68.01
797.177	62.46
797.353	68.76
797.529	68.59
797.704	68.1
797.88	70.46
798.056	69.11
798.231	61.18
798.407	63.23
798.582	66.67
798.758	72.1
798.934	78.62
799.109	79.05
799.285	71.74
799.46	70.76
799.636	68.2
799.811	65.01
799.986	67.8
800.162	75.08
800.337	78.02
800.513	72.08
800.688	68.73
800.863	80.91
801.039	71.6
801.214	62.85
801.389	67
801.565	63.73
801.74	42.05
801.915	49.8
802.09	53.19
802.265	58
802.441	56.57
802.616	59.95
802.791	59.77
802.966	60.96
803.141	56.8
803.316	59.05
803.491	64.3
803.666	71.83
803.841	70.72
804.016	69.14
804.191	71.52
804.366	68.14
804.541	56.38
804.716	57.94
804.891	53.29
805.066	54.84
805.241	52.75
805.416	48.71
805.591	45.88
805.765	53.89
805.94	53.97
806.115	53.72
806.29	55.53
806.464	58.2
806.639	50.75
806.814	48.48
806.989	45.08
807.163	51.95
807.338	47.97
807.512	52.56
807.687	40.99
807.862	55.54
808.036	56.18
808.211	64.59
808.385	72.51
808.56	91.12
808.734	97.75
808.909	95.96
809.083	84.35
809.258	82.69
809.432	79.87
809.606	62.6
809.781	56.84
809.955	63.02
810.13	62.22
810.304	55.73
810.478	51.2
810.652	60.98
810.827	62.12
811.001	56.79
811.175	55.66
811.349	58.91
811.524	56.02
811.698	49.19
811.872	42.25
812.046	47.5
812.22	58.38
812.394	52.39
812.568	59.78
812.742	65.75
812.916	60.57
813.09	48.03
813.264	44.57
813.438	45.06
813.612	42.42
813.786	45.83
813.96	53.94
814.134	58.38
814.308	62.57
814.482	70.57
814.656	59.14
814.83	65.38
815.003	64.1
815.177	49.62
815.351	43.29
815.525	47.39
815.698	39.97
815.872	37.97
816.046	34.76
816.219	47.77
816.393	61.51
816.567	69.88
816.74	72.16
816.914	82.4
817.088	74.34
817.261	68.72
817.435	50.16
817.608	47.78
817.782	29.34
817.955	40.7
818.129	41.22
818.302	56.33
818.475	66.98
818.649	77.26
818.822	60.89
818.996	67.87
819.169	62.93
819.342	56.22
819.516	64.27
819.689	75.12
819.862	72.38
820.035	64.53
820.209	61.53
820.382	56.87
820.555	54.55
820.728	36.51
820.901	37.27
821.075	31.17
821.248	27.82
821.421	20.49
821.594	32.39
821.767	50.36
821.94	71.74
822.113	56.31
822.286	44.83
822.459	58.23
822.632	38.44
822.805	28.7
822.978	34.39
823.151	32.85
823.324	16.73
823.496	5.79
823.669	3.14
823.842	8.42
824.015	11.15
824.188	5.32
824.361	16.66
824.533	7.92
824.706	17.73
824.879	21.28
825.051	23.08
825.224	23.25
825.397	17.76
825.569	5.48
825.742	23.41
825.915	45.48
826.087	48.74
826.26	39.55
826.432	37.53
826.605	42.37
826.777	28.32
826.95	26.53
827.122	30.44
827.295	35.35
827.467	30.46
827.64	7.7
827.812	12.97
827.984	21.65
828.157	15.92
828.329	-30.66
828.501	-3.63
828.674	18.68
828.846	-2.89
829.018	20.17
829.19	27.26
829.363	45.46
829.535	47.09
829.707	59.08
829.879	33.37
830.051	32.31
830.223	16.95
830.395	-20.08
830.568	-28.93
830.74	-25.15
830.912	15.92
831.084	-14.06
831.256	-0.66
831.428	6.81
831.6	-1.42
831.772	-40.52
831.943	-14.12
832.115	11.35
832.287	22.79
832.459	34.2
832.631	59.14
832.803	71.41
832.975	77.17
833.146	60.88
833.318	49.06
833.49	42.62
833.662	35.18
833.833	24.71
834.005	24.71
834.177	35.42
834.348	26.58
834.52	18.29
834.692	14.06
834.863	23.86
835.035	28.73
835.206	-11.87
835.378	5.31
835.549	6.71
835.721	2.83
835.892	0.69
836.064	26.17
836.235	21.33
836.407	51.59
836.578	21.75
836.749	32.29
836.921	-15.66
837.092	-36.2
837.264	-53.16
837.435	-33.19
837.606	3.4
837.777	48.99
837.949	58.87
838.12	52.31
838.291	52.09
838.462	36.38
838.633	-5.02
838.805	-9.74
838.976	-0.71
839.147	-59.67
839.318	-54.6
839.489	-83.63
839.66	-48.28
839.831	-1.1
840.002	19.26
840.173	-8.07
840.344	64.87
840.515	103.79
840.686	-14.26
840.857	-37.6
841.028	-31.97
841.199	-63.8
841.369	-94.96
841.54	-61.87
841.711	-17.08
841.882	8.2
842.053	-1.91
842.223	1.2
842.394	6.5
842.565	20.66
842.736	26.51
842.906	32.89
843.077	44.79
843.248	76.07
843.418	46.46
843.589	40.16
843.759	78.88
843.93	50.92
844.101	19.43
844.271	42.84
844.442	31.07
844.612	44.96
844.783	30.43
844.953	2.36
845.123	-33.09
845.294	7.49
845.464	-158.43
845.635	-22.6
845.805	34.3
845.975	29.66
846.146	-3.57
846.316	6.23
846.486	3.22
846.656	38.48
846.827	37.17
846.997	40.55
847.167	72.74
847.337	64.39
847.507	17.01
847.677	2.25
847.848	38.14
848.018	30.87
848.188	32.04
848.358	18.53
848.528	15.1
848.698	-22.9
848.868	-89.34
849.038	-207.3
849.208	-54.71
849.378	6.58
849.548	-1.03
849.718	3.19
849.887	30.69
850.057	-1.8
850.227	-41.77
850.397	-83.8
850.567	-193.27
850.737	-419.89
850.906	-918.44
851.076	-841.21
851.246	-270.03
851.415	4.27
851.585	5.04
851.755	-29.79
851.924	33.48
852.094	29.82
852.264	-88.22
852.433	-1026.68
852.603	-241.27
852.772	-154.52
852.942	-72.59
853.111	-59.07
853.281	-23.51
853.45	24.42
853.62	-71.05
853.789	-64.54
853.959	-7.97
854.128	13.81
854.297	-39.25
854.467	-44.77
854.636	-42.34
854.805	-14.46
854.975	-43.2
855.144	1.71
855.313	100.87
855.482	-275.73
855.652	-120.33
855.821	-90.63
855.99	10.08
856.159	45.07
856.328	63.92
856.497	39.02
856.667	42.84
856.836	41.99
857.005	-26.67
857.174	-53.64
857.343	-46.08
857.512	-49.79
857.681	-78.52
857.85	-99.07
858.019	-50.37
858.188	-56.56
858.356	-62.82
858.525	-119.9
858.694	-109.23
858.863	-204.75
859.032	-139.58
859.201	-215.52
859.369	-140.75
859.538	-70.16
859.707	-65.04
859.876	-83.07
860.044	-54.5
860.213	16.12
860.382	22.79
860.55	19.27
860.719	36.74
860.888	46.62
861.056	-6.76
861.225	-31.05
861.393	27.74
861.562	63.57
861.73	-0.54
861.899	53.53
862.067	176.72
862.236	10.72
862.404	-159.01
862.572	-113.35
862.741	-7.17
862.909	-17.56
863.078	-151.5
863.246	-110.74
863.414	-88.83
863.582	-81.1
863.751	-74.96
863.919	-38.45
864.087	9.89
864.255	26.68
864.424	-280.78
864.592	-49.59
864.76	-53
864.928	-184.6
865.096	-143.23
865.264	-33.09
865.432	-953.98
865.6	-85.38
865.768	-86.06
865.936	-92.34
866.104	-110.86
866.272	-168.67
866.44	-431
866.608	709.1
866.776	364.51
866.944	3187.79
867.112	-579.56
867.28	-203.43
867.448	-55.02
867.615	3.82
867.783	9.15
867.951	17.83
868.119	54.61
868.286	-15.73
868.454	-118.01
868.622	-118.79
868.789	-174.72
868.957	-4026.79
869.125	-2075.66
869.292	-125.98
869.46	-114.3
869.627	18.24
869.795	21.18
869.963	54.49
870.13	65.98
870.298	68.45
870.465	4.19
870.632	-51.64
870.8	-30.34
870.967	-73.22
871.135	-147.86
871.302	-98.58
871.469	-67.64
871.637	-60.77
871.804	-55.11
871.971	-43.82
872.139	-313.84
872.306	12.38
872.473	-35.7
872.64	-212.34
872.807	-100.24
872.975	43.94
873.142	-71.91
873.309	753.38
873.476	92.96
873.643	132.26
873.81	82.06
873.977	31.66
874.144	40.54
874.311	-129.12
874.478	-134.19
874.645	-162.93
874.812	-25.56
874.979	-8.6
875.146	22.99
875.313	-3.64
875.48	73.98
875.647	15.12
875.813	-15.62
875.98	13.05
876.147	-9.93
876.314	-53.61
876.481	624.59
876.647	-791.85
876.814	436.66
876.981	27.79
877.147	-24.74
877.314	-10.69
877.481	10.85
877.647	38.78
877.814	4.11
877.98	-36.81
878.147	13.44
878.314	72.87
878.48	6.42
878.647	-15.5
878.813	28.36
878.979	9.63
879.146	-57.22
879.312	-56.22
879.479	-99.13
879.645	-188.88
879.811	-343.45
879.978	-741.79
880.144	-135.6
880.31	-55.19
880.477	-210.56
880.643	-223.86
880.809	-27.22
880.975	-81.03
881.142	-643.41
881.308	-64.4
881.474	-26.57
881.64	-65.19
881.806	-77.9
881.972	-1.19
882.138	19.5
882.304	72.69
882.47	-107.36
882.636	-496.52
882.802	-243.55
882.968	-65.18
883.134	-40.02
883.3	-18.51
883.466	24.98
883.632	89.75
883.798	53.44
883.964	59.39
884.129	85.48
884.295	105.1
884.461	7.18
884.627	1.37
884.793	-33.64
884.958	-18.51
885.124	-119.37
885.29	-213.88
885.455	-317.35
885.621	-64.43
885.787	-119.47
885.952	-14.64
886.118	-8.07
886.283	-8.23
886.449	-76.74
886.614	-60.49
886.78	-262.98
886.945	1002.87
887.111	-469.8
887.276	-400.43
887.442	-877.95
887.607	-246.11
887.773	-240.68
887.938	-245.89
888.103	-250.7
888.269	-133.66
888.434	-283.65
888.599	-65.34
888.764	14.11
888.93	10.01
889.095	-17.54
889.26	-48.12
889.425	0.43
889.59	26.32
889.756	35.4
889.921	40.72
890.086	87.71
890.251	65.13
890.416	-76.14
890.581	-1020.56
890.746	92.05
890.911	253.98
891.076	165.74
891.241	-216.98
891.406	55.15
891.571	-44.02
891.736	-173.28
891.901	-233.41
892.065	233.79
892.23	124.37
892.395	198.39
892.56	354.55
892.725	-569.34
892.889	-1396.95
893.054	-150.39
893.219	-13.21
893.384	48.88
893.548	5.28
893.713	-19.85
893.878	-9.23
