Data from Ofra_PS_T2_1A_2GT03_Reflection_3.txt Node
Date: Wed Jul 21 17:55:41 EDT 2021
User: Adam
Spectrometer: FLMT01687
Trigger mode: 0
Integration Time (sec): 1.100000E0
Scans to average: 2
Electric dark correction enabled: true
Nonlinearity correction enabled: false
Boxcar width: 2
XAxis mode: Wavelengths
Number of Pixels in Spectrum: 3648
>>>>>Begin Spectral Data<<<<<
179.494	527.4
179.716	632.47
179.937	604.69
180.158	548.81
180.38	925.78
180.601	266.44
180.823	47.38
181.044	-52.96
181.265	264.15
181.486	80.23
181.708	123.15
181.929	696.43
182.15	-451.06
182.372	131
182.593	34.76
182.814	12.52
183.035	53.35
183.257	36.68
183.478	-79.63
183.699	-0.39
183.92	-71.73
184.141	-78.3
184.363	-106.44
184.584	-47.47
184.805	-54.75
185.026	9.94
185.247	26.11
185.468	14.8
185.689	-2.23
185.91	33.34
186.132	30.95
186.353	14.25
186.574	53.89
186.795	60.32
187.016	-22.02
187.237	-27.97
187.458	-51.19
187.679	-36.83
187.9	-40.22
188.121	-23.29
188.342	-29.9
188.563	19.48
188.784	54.9
189.005	50.71
189.226	132.07
189.447	112.26
189.667	16.38
189.888	-404.56
190.109	-1086.04
190.33	-744.68
190.551	-1220.58
190.772	-217.01
190.993	-92.18
191.214	-92.19
191.434	-94.55
191.655	-26.41
191.876	-76.6
192.097	-146.2
192.318	-180.58
192.538	-222.36
192.759	-184.31
192.98	-97.47
193.201	-27.43
193.421	-12.51
193.642	7.04
193.863	21.77
194.083	2
194.304	-11.8
194.525	1.27
194.745	-1.87
194.966	-25.78
195.187	-24.89
195.407	-56.86
195.628	-157.2
195.848	-130.29
196.069	-109.84
196.29	-50.97
196.51	-65.99
196.731	-49.82
196.951	-96.01
197.172	-119.83
197.392	-172.38
197.613	-141.59
197.833	-146.61
198.054	-122
198.274	-71.05
198.495	-69.02
198.715	-52.39
198.936	-84.31
199.156	-82.94
199.377	-181.95
199.597	-200.48
199.817	-190.48
200.038	-84.34
200.258	-116.72
200.479	-36.9
200.699	-1.46
200.919	33.34
201.14	-34.21
201.36	-44.79
201.58	-2.94
201.801	12.25
202.021	-36.03
202.241	-51.09
202.461	-47.19
202.682	-174.59
202.902	-234.47
203.122	-148.35
203.342	-93.11
203.563	-43.81
203.783	-11.46
204.003	-42.57
204.223	-38.3
204.443	18.59
204.663	-13.61
204.884	-20.73
205.104	12.48
205.324	33.87
205.544	12.75
205.764	30.01
205.984	46.5
206.204	57.02
206.424	36.09
206.644	10.5
206.864	41.53
207.084	25.48
207.304	-21.41
207.525	-158.2
207.745	-149.58
207.964	-105.59
208.184	-151.79
208.404	-177.36
208.624	-170.88
208.844	-135.1
209.064	-489.23
209.284	-494.88
209.504	-266.65
209.724	-66.22
209.944	-45.78
210.164	-9.64
210.384	2.35
210.604	6.52
210.823	-41.75
211.043	-61
211.263	-59.3
211.483	-51.1
211.703	-121.07
211.922	-101.67
212.142	-36.48
212.362	-10.48
212.582	-23.25
212.801	5.59
213.021	-7.86
213.241	-25.29
213.461	-69.15
213.68	-95.75
213.9	-78.42
214.12	-77.12
214.339	-150.07
214.559	-117.77
214.779	-43.31
214.998	-56.26
215.218	-89.33
215.438	-40.07
215.657	-40.13
215.877	-51.37
216.096	-7.66
216.316	5.46
216.535	-5.1
216.755	-9.72
216.974	-85.23
217.194	-159.75
217.413	-154.93
217.633	-154.17
217.852	-273.37
218.072	-110.75
218.291	-43.16
218.511	-6.99
218.73	-35
218.95	-12.84
219.169	-24.22
219.389	-72.3
219.608	-55.89
219.827	-48.72
220.047	-52.17
220.266	-34.15
220.485	-28.17
220.705	-13.96
220.924	-25.89
221.143	9.09
221.363	-17.5
221.582	0.21
221.801	-17.08
222.021	5.69
222.24	-79.09
222.459	-15.36
222.678	-25.59
222.897	-86.27
223.117	-115.37
223.336	-78.68
223.555	-65.94
223.774	-34.12
223.993	17.19
224.213	55.37
224.432	39.51
224.651	46.99
224.87	27.15
225.089	36.32
225.308	19.49
225.527	32.45
225.746	36.42
225.965	12.72
226.184	-17.6
226.404	7.49
226.623	-11.81
226.842	-17.7
227.061	19.27
227.28	21.53
227.499	11.84
227.718	23.06
227.936	13.67
228.155	13.94
228.374	2.02
228.593	-1.14
228.812	-25.67
229.031	-19.17
229.25	-69.75
229.469	-60.36
229.688	-45.32
229.907	5.08
230.125	13.43
230.344	32.45
230.563	25.84
230.782	28.45
231.001	-49.32
231.22	-39.13
231.438	-17.29
231.657	-6.72
231.876	-21.42
232.095	22.69
232.313	33.34
232.532	-8.9
232.751	-39.9
232.969	-40.44
233.188	-131.09
233.407	-64.45
233.625	-29.83
233.844	-50.64
234.063	-39.26
234.281	-2.01
234.5	-18.91
234.719	-10.55
234.937	6.78
235.156	18.86
235.374	8.85
235.593	-9.79
235.811	-12.48
236.03	-16.49
236.249	-78.07
236.467	-63.18
236.686	-19.3
236.904	-12.44
237.123	-41.72
237.341	-32.63
237.559	-20
237.778	-39.16
237.996	-82.14
238.215	-23.06
238.433	8.65
238.652	7.78
238.87	-7.56
239.088	14.18
239.307	9.92
239.525	-20.28
239.743	-55.3
239.962	-41.06
240.18	-36.22
240.398	-80
240.617	-70.36
240.835	-44.58
241.053	-31.1
241.271	6.41
241.49	29.64
241.708	-14.22
241.926	-26.86
242.144	-18.32
242.363	-101.46
242.581	-133.52
242.799	-51.6
243.017	-14.39
243.235	-41.6
243.453	-14.98
243.672	-12.09
243.89	-18.87
244.108	-39.02
244.326	-4.48
244.544	2.21
244.762	1.68
244.98	5.19
245.198	16.66
245.416	-33.45
245.634	-41.85
245.852	-60.42
246.07	-77.09
246.288	-89.31
246.506	-118.17
246.724	-103.21
246.942	-88.11
247.16	-39.49
247.378	-36.42
247.596	20.69
247.814	21.88
248.032	10.13
248.25	11.55
248.468	11.39
248.685	15.51
248.903	40.62
249.121	33.66
249.339	4.03
249.557	2.64
249.775	1.59
249.992	-84.89
250.21	-68.68
250.428	-41.14
250.646	-81.52
250.863	-100.44
251.081	-55.84
251.299	-55.6
251.517	-57.29
251.734	-13.91
251.952	-10.62
252.17	-14.13
252.387	-4.2
252.605	-9.68
252.823	-7.83
253.04	5.88
253.258	30.85
253.475	26.3
253.693	41.98
253.911	36.48
254.128	35.36
254.346	31.65
254.563	22.08
254.781	-4.74
254.998	-19.27
255.216	-20.9
255.433	-22.47
255.651	10.41
255.868	34.2
256.086	67.62
256.303	37.79
256.521	17.51
256.738	-7.03
256.956	-32.43
257.173	-57.89
257.39	-60.33
257.608	-62.52
257.825	-27.69
258.043	1.98
258.26	2.32
258.477	41.99
258.695	39.06
258.912	3.52
259.129	11.7
259.346	-19.8
259.564	-65.85
259.781	-70.02
259.998	-8.56
260.216	5.8
260.433	44.99
260.65	40.99
260.867	46.21
261.084	-0.37
261.302	-34.42
261.519	-69.31
261.736	-76.77
261.953	-98.63
262.17	-27.45
262.387	-55.18
262.604	-52.44
262.822	-64.14
263.039	-44.3
263.256	-80.51
263.473	-19.78
263.69	-11.71
263.907	31.69
264.124	46.79
264.341	38.15
264.558	18.16
264.775	20.02
264.992	3.31
265.209	1.56
265.426	19.63
265.643	22.58
265.86	44.68
266.077	38.52
266.294	25.92
266.51	-33.3
266.727	-56.51
266.944	-83.34
267.161	-70.45
267.378	-68.75
267.595	-22.61
267.812	-38.29
268.028	-60.53
268.245	-35.88
268.462	-55.84
268.679	-53.83
268.896	18.53
269.112	29.04
269.329	15.66
269.546	24.2
269.763	18.9
269.979	-14.46
270.196	-21.95
270.413	-53.53
270.629	-81.44
270.846	-100.02
271.063	-88.94
271.279	-102.95
271.496	-91.46
271.712	-49.57
271.929	-26.43
272.146	-28.68
272.362	-22.3
272.579	18.53
272.795	27.16
273.012	33.19
273.228	24.74
273.445	-6.77
273.661	-21.17
273.878	-68.23
274.094	-68.85
274.311	-92.21
274.527	-5.35
274.744	-2.43
274.96	7.61
275.177	10.61
275.393	42.33
275.609	26.51
275.826	36.09
276.042	36.36
276.259	27.32
276.475	20.5
276.691	23.94
276.908	6.76
277.124	11.92
277.34	16.8
277.557	6.34
277.773	-6.92
277.989	-11.43
278.205	-5.22
278.422	-7.28
278.638	4.25
278.854	28.48
279.07	38.28
279.286	20.95
279.503	3.96
279.719	-26.55
279.935	-60.08
280.151	-86.56
280.367	-44.12
280.583	-37.59
280.799	-26.5
281.016	-38.95
281.232	-17.69
281.448	-6.02
281.664	11.91
281.88	-5.54
282.096	6.19
282.312	45.46
282.528	37.28
282.744	15.03
282.96	13.78
283.176	1.72
283.392	-14.14
283.608	-27.16
283.824	-22.94
284.04	-8.83
284.256	17.9
284.471	8.34
284.687	6.14
284.903	30.56
285.119	56.24
285.335	24.31
285.551	18.88
285.767	0.88
285.982	-32.97
286.198	-110.25
286.414	-40.79
286.63	-12.61
286.846	30.82
287.061	11.64
287.277	44.58
287.493	16.35
287.709	28.14
287.924	-12.32
288.14	30.99
288.356	34.99
288.571	44.26
288.787	22.78
289.003	28.93
289.218	6.99
289.434	-36.72
289.65	-34.88
289.865	-33.78
290.081	-7.04
290.296	2.2
290.512	18.32
290.727	-16.73
290.943	-24.15
291.159	-39.55
291.374	-32.74
291.59	-55.3
291.805	-31.9
292.021	-31.84
292.236	-34.68
292.451	-27.97
292.667	-13.85
292.882	-1.39
293.098	-9.15
293.313	-14.8
293.529	-18.37
293.744	-25.78
293.959	-39.41
294.175	-19.01
294.39	9.63
294.605	22.34
294.821	48.3
295.036	48.38
295.251	36.27
295.467	-2.33
295.682	-32.81
295.897	-96.65
296.112	-103.32
296.328	-78.8
296.543	-72.86
296.758	-50.8
296.973	-5.23
297.188	32.18
297.404	4.88
297.619	-4.27
297.834	-23.8
298.049	-47.37
298.264	-67.86
298.479	-11.4
298.694	-0.52
298.909	19.44
299.125	21.24
299.34	5.35
299.555	-34.13
299.77	-26.66
299.985	-71.3
300.2	-130.47
300.415	-128.27
300.63	-82.42
300.845	-88.2
301.06	-88.92
301.275	-42.17
301.49	-21.99
301.704	-33.53
301.919	-47.67
302.134	-58.72
302.349	-55.31
302.564	-119.66
302.779	-133.04
302.994	-100.51
303.209	-28.36
303.423	2.85
303.638	48.27
303.853	6.03
304.068	3.94
304.283	-6.41
304.497	-8.56
304.712	-19.8
304.927	1.78
305.142	-14.14
305.356	-2.9
305.571	-8.86
305.786	-30.21
306	-50.37
306.215	-49.65
306.43	-70.02
306.644	-69.82
306.859	-10.06
307.074	-3.89
307.288	-26.18
307.503	-36.45
307.717	-45.33
307.932	-53.89
308.147	-56.38
308.361	-36.44
308.576	-35.79
308.79	-87.09
309.005	-72.3
309.219	-49.43
309.434	-59.79
309.648	-59.18
309.863	-32.52
310.077	-34.66
310.292	-43.58
310.506	-22.77
310.72	-5.83
310.935	22.2
311.149	8.77
311.364	20.65
311.578	27.59
311.792	9.96
312.007	7.26
312.221	-8.72
312.435	-5.23
312.649	-26.34
312.864	5.72
313.078	13.16
313.292	97.41
313.507	73.15
313.721	125.47
313.935	55.49
314.149	47.59
314.363	13.84
314.578	11.8
314.792	14.35
315.006	-6.15
315.22	9.05
315.434	20.78
315.648	23.37
315.862	19.61
316.077	21.67
316.291	-1.79
316.505	0.79
316.719	-12.92
316.933	-40.41
317.147	-31.21
317.361	-90.33
317.575	-114.11
317.789	-143.76
318.003	-196.72
318.217	-161.69
318.431	-50.11
318.645	-3.44
318.859	7.15
319.073	24.2
319.287	15.78
319.5	-28.68
319.714	-64.47
319.928	-96.6
320.142	-134.85
320.356	-89.35
320.57	-28.53
320.784	-60.54
320.997	-70.4
321.211	-28.22
321.425	-86.23
321.639	-119.2
321.853	-39.43
322.066	-21.3
322.28	-33.26
322.494	-17.87
322.707	18.61
322.921	-0.13
323.135	-0.12
323.349	6.29
323.562	-10.2
323.776	-45.23
323.989	-41.57
324.203	-61.58
324.417	-55.56
324.63	-78.08
324.844	-64.99
325.057	-78.24
325.271	-53.67
325.485	-25.19
325.698	-4.04
325.912	10.01
326.125	-4.58
326.339	-8.74
326.552	-18.02
326.766	-6.21
326.979	19.02
327.193	58.88
327.406	53.02
327.619	32.51
327.833	37.65
328.046	7.45
328.26	-46.47
328.473	-13.52
328.686	-33.81
328.9	-7.1
329.113	-8.76
329.326	-19.06
329.54	-18.49
329.753	-17.72
329.966	-77.1
330.179	-52.15
330.393	-19.46
330.606	-21.42
330.819	-1.69
331.032	23.28
331.246	28.51
331.459	56.47
331.672	48.25
331.885	37.52
332.098	5.36
332.311	-11.75
332.525	-72.08
332.738	-34.78
332.951	-7.58
333.164	12.86
333.377	18.78
333.59	32.31
333.803	14.69
334.016	6.75
334.229	-0.14
334.442	11.32
334.655	28.28
334.868	42.79
335.081	35.81
335.294	31.83
335.507	12.75
335.72	-10.16
335.933	-28.47
336.146	-33.62
336.359	-31.17
336.572	-58.12
336.785	-83.69
336.997	-66.79
337.21	-33.56
337.423	-31.51
337.636	-6.64
337.849	20.92
338.062	19.68
338.274	1.27
338.487	-10.84
338.7	-16.06
338.913	-66.44
339.125	-91.61
339.338	-114.82
339.551	-100.59
339.763	-61.69
339.976	-23.84
340.189	-10.34
340.402	-15.9
340.614	-21.9
340.827	-41.04
341.039	-58.37
341.252	-39.68
341.465	-9.68
341.677	-10.48
341.89	-39.39
342.102	-15.59
342.315	-39.42
342.527	-79.48
342.74	-80.41
342.952	-15.35
343.165	-22.27
343.377	4.85
343.59	-3.79
343.802	18.15
344.015	0.48
344.227	2.4
344.44	-3.57
344.652	2
344.864	-20.34
345.077	8.4
345.289	21.74
345.502	24.06
345.714	14.34
345.926	24.29
346.139	11.85
346.351	16.09
346.563	19.52
346.775	34.79
346.988	25.08
347.2	13.32
347.412	-43.82
347.624	-72.39
347.837	-104.53
348.049	-68.4
348.261	-28.25
348.473	-9.46
348.685	-4
348.897	-8.69
349.11	-32.17
349.322	-74.42
349.534	-63.29
349.746	-43.74
349.958	-24.41
350.17	-22.79
350.382	8.35
350.594	11.32
350.806	6.2
351.018	12.7
351.23	7.72
351.442	-44.64
351.654	-39.75
351.866	-36.84
352.078	-28.3
352.29	-9.92
352.502	13.14
352.714	19.5
352.926	14.87
353.138	8.73
353.35	-8
353.561	-13.58
353.773	-46.08
353.985	-36.7
354.197	-57.27
354.409	-57.75
354.621	-53.02
354.832	-28.68
355.044	-28.65
355.256	-17.08
355.468	-1.93
355.679	-5.66
355.891	-2.28
356.103	-34.62
356.314	-24.63
356.526	-22.98
356.738	-29.21
356.949	-36.58
357.161	-23.42
357.373	-27.67
357.584	-38.17
357.796	-14.89
358.008	-6.21
358.219	22.07
358.431	15.81
358.642	19.47
358.854	4.97
359.065	-20.54
359.277	-51.78
359.488	-62.14
359.7	-78.82
359.911	-91.35
360.123	-55.98
360.334	-58.65
360.546	-71.46
360.757	-78.39
360.969	-53.12
361.18	-56.04
361.391	-35.62
361.603	-40.37
361.814	-21.25
362.025	-29.99
362.237	-26.55
362.448	-21.68
362.659	12.97
362.871	19.52
363.082	15.43
363.293	6.25
363.504	-14.32
363.716	-37.6
363.927	-61.87
364.138	-75.68
364.349	-75.74
364.56	-58.09
364.772	-56.94
364.983	-24.56
365.194	-16.13
365.405	3.62
365.616	21.43
365.827	18.47
366.038	-9.2
366.25	-6.3
366.461	-45.08
366.672	-30.18
366.883	-6.25
367.094	3.66
367.305	-5.53
367.516	0.61
367.727	-26.79
367.938	-41.55
368.149	-42.1
368.36	-21.82
368.571	-10.88
368.781	-17.1
368.992	-27.48
369.203	-45.27
369.414	-80.91
369.625	-89.97
369.836	-80.56
370.047	-92.53
370.258	-66.05
370.468	-59.52
370.679	-90.54
370.89	-83.83
371.101	-62.75
371.312	-75.96
371.522	-72.78
371.733	-41.63
371.944	-23
372.155	-15.17
372.365	-18.73
372.576	-19.69
372.787	-19.14
372.997	-50.06
373.208	-57.38
373.419	-20.54
373.629	-40.13
373.84	-50.15
374.05	-62.37
374.261	-34.1
374.472	-55.27
374.682	-1.85
374.893	10.48
375.103	56.09
375.314	36.99
375.524	36.26
375.735	32.12
375.945	36.56
376.156	4.79
376.366	10.91
376.577	7.79
376.787	-10.08
376.997	-12.55
377.208	-11.87
377.418	-29.54
377.629	-13.69
377.839	-14.76
378.049	-19.82
378.26	-2.25
378.47	14.46
378.68	2.93
378.89	1.37
379.101	-0.85
379.311	-37.15
379.521	-70.91
379.732	-67.98
379.942	-62.58
380.152	-79.76
380.362	-38.76
380.572	-30.54
380.783	-17.9
380.993	-1.85
381.203	7.25
381.413	17.31
381.623	18.24
381.833	12.3
382.043	-3.84
382.253	-8.84
382.463	-11.34
382.674	-14.74
382.884	-31.74
383.094	-26.64
383.304	-17.16
383.514	-16.12
383.724	-5.64
383.934	-4.98
384.144	-13.84
384.353	-17.36
384.563	-20.78
384.773	-17.81
384.983	-18.92
385.193	-1.53
385.403	3.48
385.613	3.13
385.823	-11.37
386.033	-8.61
386.242	-19.99
386.452	-29.7
386.662	-37.66
386.872	-15
387.082	-14.71
387.291	-16.11
387.501	-7.15
387.711	3.09
387.921	-8.51
388.13	-9.36
388.34	1.8
388.55	-5.96
388.759	-6.55
388.969	-2.42
389.179	-5.28
389.388	-7.42
389.598	-2.24
389.807	-8.9
390.017	-13.43
390.227	-13.2
390.436	-15.16
390.646	-13.87
390.855	-8.97
391.065	-7.63
391.274	-8.4
391.484	-9.76
391.693	-7.2
391.903	-6.55
392.112	-1.32
392.322	3.93
392.531	7.42
392.74	7.6
392.95	5.29
393.159	2.55
393.369	1.95
393.578	0.88
393.787	-0.42
393.997	-0.22
394.206	-1.15
394.415	-0.87
394.625	-1.87
394.834	-3.3
395.043	-1.17
395.252	1.94
395.462	4.73
395.671	6.51
395.88	7.98
396.089	8.52
396.298	5.94
396.508	4.88
396.717	4.7
396.926	4.92
397.135	4.39
397.344	4.98
397.553	5.42
397.762	6.56
397.971	6.85
398.181	7.2
398.39	6.51
398.599	5.99
398.808	5.57
399.017	6.03
399.226	7.13
399.435	8.83
399.644	8.59
399.853	7.92
400.062	7.61
400.27	6.79
400.479	5.87
400.688	5.3
400.897	5.97
401.106	6.04
401.315	5.95
401.524	6.3
401.733	6.9
401.941	7.09
402.15	7.1
402.359	6.87
402.568	7.01
402.777	7.31
402.985	7.03
403.194	6.78
403.403	6.94
403.612	6.51
403.82	6.09
404.029	6.35
404.238	6.36
404.446	6.62
404.655	6.36
404.864	6.51
405.072	6.14
405.281	6.31
405.489	5.96
405.698	6.19
405.906	6.08
406.115	6.23
406.324	6.04
406.532	6.18
406.741	6.47
406.949	6.43
407.158	6.33
407.366	6.48
407.574	6.32
407.783	6.15
407.991	6.24
408.2	6.47
408.408	6.27
408.617	6.19
408.825	5.92
409.033	5.9
409.242	5.83
409.45	5.96
409.658	6.09
409.867	6.23
410.075	6.02
410.283	5.75
410.491	5.71
410.7	5.59
410.908	5.7
411.116	6.02
411.324	6.05
411.533	5.99
411.741	6.14
411.949	6.28
412.157	6.04
412.365	6.19
412.573	6.29
412.781	6.37
412.99	6.14
413.198	6.26
413.406	6.22
413.614	6.06
413.822	5.89
414.03	5.82
414.238	5.54
414.446	5.6
414.654	5.53
414.862	5.53
415.07	5.61
415.278	5.85
415.486	5.62
415.694	5.77
415.902	5.71
416.109	5.58
416.317	5.57
416.525	5.37
416.733	5.26
416.941	5.42
417.149	5.38
417.357	5.37
417.564	5.86
417.772	6.07
417.98	6.02
418.188	5.99
418.395	5.95
418.603	5.71
418.811	5.29
419.019	5.09
419.226	5.33
419.434	5.47
419.642	5.23
419.849	5.45
420.057	5.41
420.265	5.37
420.472	5.09
420.68	5.36
420.887	5.25
421.095	5.42
421.302	5.34
421.51	5.52
421.717	5.55
421.925	5.7
422.132	5.61
422.34	5.29
422.547	5.27
422.755	5.09
422.962	4.87
423.17	4.72
423.377	4.99
423.585	4.93
423.792	4.92
423.999	5.03
424.207	5.16
424.414	5.36
424.621	5.29
424.829	5.3
425.036	5.28
425.243	5.28
425.451	5.07
425.658	4.92
425.865	4.96
426.072	4.92
426.28	5.23
426.487	5.24
426.694	5.36
426.901	5.38
427.108	5.5
427.315	5.25
427.523	5.53
427.73	5.5
427.937	5.37
428.144	5.16
428.351	5.02
428.558	4.96
428.765	4.88
428.972	4.87
429.179	5.12
429.386	5.56
429.593	5.23
429.8	5.21
430.007	5.41
430.214	5.5
430.421	5.19
430.628	5.18
430.835	5.11
431.042	5.32
431.249	5.37
431.456	5.45
431.662	5.72
431.869	6.01
432.076	5.97
432.283	6.05
432.49	6.05
432.697	6.06
432.903	5.93
433.11	5.88
433.317	5.88
433.524	6.03
433.73	5.84
433.937	6.02
434.144	5.94
434.35	5.82
434.557	5.7
434.764	5.73
434.97	5.68
435.177	5.87
435.384	5.75
435.59	5.8
435.797	6.07
436.003	6.07
436.21	5.98
436.416	6.23
436.623	6.22
436.829	6.22
437.036	6.33
437.242	6.36
437.449	6.21
437.655	6.32
437.862	6.35
438.068	6.26
438.275	6.35
438.481	6.64
438.687	6.58
438.894	6.45
439.1	6.52
439.307	6.67
439.513	6.5
439.719	6.48
439.926	6.65
440.132	6.74
440.338	6.57
440.544	6.7
440.751	6.69
440.957	6.7
441.163	6.58
441.369	6.66
441.575	6.51
441.782	6.54
441.988	6.44
442.194	6.41
442.4	6.37
442.606	6.62
442.812	6.73
443.018	6.82
443.224	6.93
443.431	7.07
443.637	6.84
443.843	6.74
444.049	6.79
444.255	6.68
444.461	6.66
444.667	6.64
444.873	6.77
445.079	6.67
445.284	6.88
445.49	6.64
445.696	6.63
445.902	6.55
446.108	6.5
446.314	6.4
446.52	6.53
446.726	6.75
446.931	6.8
447.137	6.91
447.343	6.98
447.549	6.92
447.755	6.74
447.96	6.74
448.166	6.66
448.372	6.65
448.578	6.75
448.783	6.88
448.989	7.01
449.195	7.23
449.4	7.19
449.606	7.13
449.812	6.94
450.017	6.95
450.223	6.79
450.428	6.76
450.634	6.99
450.84	7.23
451.045	7.12
451.251	7.04
451.456	7.32
451.662	7.34
451.867	7.4
452.073	7.46
452.278	7.64
452.483	7.66
452.689	7.49
452.894	7.47
453.1	7.35
453.305	7.24
453.51	7.09
453.716	7.08
453.921	7.02
454.127	7.07
454.332	7.05
454.537	6.99
454.742	7.01
454.948	6.95
455.153	6.93
455.358	7.06
455.563	7.2
455.769	7.38
455.974	7.43
456.179	7.42
456.384	7.41
456.589	7.32
456.795	7.09
457	7.1
457.205	7.25
457.41	7.18
457.615	7.13
457.82	7.23
458.025	7.2
458.23	6.98
458.435	7.06
458.64	7.05
458.845	7.13
459.05	7.13
459.255	7.22
459.46	7.19
459.665	7.15
459.87	7.2
460.075	7.13
460.28	7.23
460.485	7.32
460.69	7.48
460.895	7.26
461.099	7.36
461.304	7.5
461.509	7.44
461.714	7.3
461.919	7.48
462.123	7.33
462.328	7.29
462.533	7.24
462.738	7.46
462.942	7.35
463.147	7.53
463.352	7.52
463.556	7.59
463.761	7.57
463.966	7.59
464.17	7.56
464.375	7.46
464.58	7.4
464.784	7.28
464.989	7.34
465.193	7.35
465.398	7.39
465.602	7.6
465.807	7.64
466.011	7.71
466.216	7.79
466.42	7.81
466.625	7.86
466.829	7.91
467.034	7.95
467.238	8.12
467.443	8.07
467.647	7.9
467.851	7.97
468.056	8.03
468.26	7.88
468.464	8.05
468.669	8.29
468.873	8.49
469.077	8.44
469.282	8.59
469.486	8.59
469.69	8.46
469.894	8.17
470.099	8.21
470.303	8.3
470.507	8.18
470.711	8.16
470.915	8.28
471.119	8.22
471.324	8.15
471.528	8.27
471.732	8.31
471.936	8.28
472.14	8.32
472.344	8.25
472.548	8.29
472.752	8.5
472.956	8.72
473.16	8.69
473.364	8.69
473.568	8.68
473.772	8.61
473.976	8.45
474.18	8.49
474.384	8.57
474.588	8.58
474.792	8.46
474.995	8.5
475.199	8.64
475.403	8.75
475.607	8.76
475.811	8.73
476.015	8.8
476.218	8.76
476.422	8.6
476.626	8.6
476.83	8.76
477.033	8.77
477.237	8.71
477.441	8.86
477.644	8.9
477.848	8.89
478.052	8.77
478.255	8.78
478.459	8.72
478.663	8.87
478.866	8.92
479.07	9.02
479.273	9.31
479.477	9.41
479.681	9.38
479.884	9.32
480.088	9.33
480.291	9.1
480.495	9.07
480.698	9.02
480.901	9.11
481.105	9.14
481.308	9.15
481.512	9.13
481.715	9.16
481.919	9.16
482.122	9.19
482.325	9.22
482.529	9.25
482.732	9.29
482.935	9.25
483.138	9.23
483.342	9.31
483.545	9.43
483.748	9.37
483.952	9.4
484.155	9.52
484.358	9.53
484.561	9.44
484.764	9.44
484.967	9.55
485.171	9.57
485.374	9.46
485.577	9.57
485.78	9.57
485.983	9.58
486.186	9.43
486.389	9.43
486.592	9.43
486.795	9.49
486.998	9.39
487.201	9.49
487.404	9.63
487.607	9.66
487.81	9.64
488.013	9.72
488.216	9.68
488.419	9.64
488.622	9.57
488.825	9.52
489.028	9.42
489.231	9.4
489.433	9.3
489.636	9.27
489.839	9.31
490.042	9.29
490.245	9.31
490.447	9.43
490.65	9.41
490.853	9.37
491.056	9.47
491.258	9.49
491.461	9.44
491.664	9.59
491.866	9.52
492.069	9.61
492.272	9.55
492.474	9.6
492.677	9.58
492.879	9.77
493.082	9.75
493.285	9.92
493.487	9.89
493.69	9.86
493.892	9.74
494.095	9.73
494.297	9.64
494.5	9.7
494.702	9.73
494.905	9.79
495.107	9.74
495.309	9.81
495.512	9.81
495.714	9.85
495.917	9.99
496.119	10.02
496.321	10.05
496.524	10.12
496.726	10.1
496.928	10.09
497.13	10.08
497.333	10.05
497.535	10.05
497.737	10.1
497.939	10.09
498.142	10.13
498.344	10.12
498.546	10.03
498.748	10.06
498.95	10.14
499.152	10.12
499.355	10.18
499.557	10.26
499.759	10.34
499.961	10.28
500.163	10.37
500.365	10.41
500.567	10.52
500.769	10.43
500.971	10.45
501.173	10.39
501.375	10.4
501.577	10.29
501.779	10.2
501.981	10.23
502.183	10.24
502.385	10.21
502.587	10.16
502.788	10.33
502.99	10.33
503.192	10.41
503.394	10.45
503.596	10.52
503.798	10.48
503.999	10.53
504.201	10.5
504.403	10.51
504.605	10.57
504.806	10.5
505.008	10.45
505.21	10.51
505.411	10.52
505.613	10.44
505.815	10.42
506.016	10.46
506.218	10.54
506.42	10.52
506.621	10.61
506.823	10.72
507.024	10.65
507.226	10.57
507.427	10.59
507.629	10.59
507.83	10.6
508.032	10.6
508.233	10.69
508.435	10.77
508.636	10.79
508.838	10.77
509.039	10.86
509.24	10.78
509.442	10.79
509.643	10.7
509.845	10.75
510.046	10.78
510.247	10.77
510.448	10.69
510.65	10.84
510.851	10.88
511.052	10.82
511.254	10.91
511.455	11.02
511.656	11.05
511.857	11.14
512.058	11.15
512.26	11.06
512.461	10.99
512.662	10.98
512.863	10.84
513.064	10.81
513.265	10.84
513.466	10.88
513.667	10.83
513.868	10.85
514.069	11
514.27	11.04
514.471	10.98
514.672	11
514.873	11.03
515.074	11.04
515.275	10.94
515.476	10.98
515.677	10.99
515.878	11.08
516.079	11.01
516.28	11.05
516.481	11.14
516.682	11.14
516.882	11
517.083	10.96
517.284	10.96
517.485	10.95
517.686	10.89
517.886	10.93
518.087	10.95
518.288	10.99
518.488	10.88
518.689	10.93
518.89	10.87
519.091	10.91
519.291	10.92
519.492	11
519.692	11.06
519.893	11.14
520.094	11.09
520.294	11.09
520.495	11.04
520.695	11.05
520.896	11.04
521.096	11.11
521.297	11.11
521.497	11.15
521.698	11.07
521.898	11.06
522.099	11.04
522.299	11.13
522.499	11.09
522.7	11.12
522.9	11.1
523.101	11.15
523.301	11.09
523.501	11.13
523.702	11.16
523.902	11.27
524.102	11.27
524.302	11.22
524.503	11.28
524.703	11.29
524.903	11.23
525.103	11.18
525.304	11.28
525.504	11.25
525.704	11.26
525.904	11.28
526.104	11.3
526.304	11.25
526.504	11.32
526.705	11.32
526.905	11.44
527.105	11.43
527.305	11.44
527.505	11.33
527.705	11.28
527.905	11.18
528.105	11.22
528.305	11.16
528.505	11.26
528.705	11.35
528.905	11.35
529.105	11.37
529.304	11.43
529.504	11.44
529.704	11.39
529.904	11.37
530.104	11.39
530.304	11.5
530.503	11.47
530.703	11.4
530.903	11.44
531.103	11.43
531.303	11.28
531.502	11.3
531.702	11.47
531.902	11.45
532.101	11.42
532.301	11.51
532.501	11.49
532.7	11.45
532.9	11.46
533.1	11.46
533.299	11.45
533.499	11.51
533.698	11.46
533.898	11.52
534.097	11.6
534.297	11.67
534.496	11.69
534.696	11.76
534.895	11.8
535.095	11.9
535.294	11.86
535.494	11.77
535.693	11.81
535.892	11.79
536.092	11.68
536.291	11.65
536.491	11.77
536.69	11.82
536.889	11.72
537.088	11.74
537.288	11.86
537.487	11.95
537.686	11.83
537.886	11.95
538.085	11.99
538.284	12.08
538.483	11.98
538.682	12.03
538.882	12
539.081	12.05
539.28	11.89
539.479	11.88
539.678	11.89
539.877	12.05
540.076	12.07
540.275	12.1
540.474	12.23
540.673	12.25
540.872	12.2
541.071	12.21
541.27	12.27
541.469	12.3
541.668	12.35
541.867	12.35
542.066	12.38
542.265	12.44
542.464	12.33
542.663	12.37
542.862	12.48
543.06	12.61
543.259	12.67
543.458	12.8
543.657	12.83
543.856	12.83
544.054	12.66
544.253	12.64
544.452	12.64
544.651	12.7
544.849	12.67
545.048	12.8
545.247	12.77
545.445	12.77
545.644	12.77
545.843	12.78
546.041	12.81
546.24	12.91
546.438	13.05
546.637	13.09
546.836	13.19
547.034	13.24
547.233	13.3
547.431	13.26
547.63	13.29
547.828	13.23
548.027	13.3
548.225	13.26
548.423	13.24
548.622	13.31
548.82	13.45
549.019	13.46
549.217	13.63
549.415	13.67
549.614	13.7
549.812	13.63
550.01	13.65
550.209	13.74
550.407	13.84
550.605	13.9
550.803	14.06
551.002	14.15
551.2	14.04
551.398	14.14
551.596	14.28
551.794	14.35
551.993	14.43
552.191	14.54
552.389	14.65
552.587	14.68
552.785	14.74
552.983	14.75
553.181	14.87
553.379	14.94
553.577	14.97
553.775	15.04
553.973	15.12
554.171	15.18
554.369	15.09
554.567	15.12
554.765	15.1
554.963	15.16
555.161	15.07
555.359	15.26
555.557	15.4
555.755	15.54
555.952	15.67
556.15	15.81
556.348	15.8
556.546	15.9
556.744	15.92
556.941	15.97
557.139	16.1
557.337	16.19
557.535	16.18
557.732	16.33
557.93	16.48
558.128	16.55
558.325	16.73
558.523	16.77
558.721	16.89
558.918	16.85
559.116	16.88
559.313	16.86
559.511	16.99
559.708	16.96
559.906	17.09
560.104	17.16
560.301	17.29
560.498	17.35
560.696	17.44
560.893	17.51
561.091	17.72
561.288	17.81
561.486	17.89
561.683	18.01
561.88	18.12
562.078	18.16
562.275	18.18
562.473	18.28
562.67	18.43
562.867	18.5
563.064	18.56
563.262	18.62
563.459	18.72
563.656	18.77
563.853	18.86
564.051	18.98
564.248	19.13
564.445	19.16
564.642	19.15
564.839	19.22
565.036	19.34
565.234	19.45
565.431	19.6
565.628	19.76
565.825	19.93
566.022	20.03
566.219	20.12
566.416	20.18
566.613	20.29
566.81	20.34
567.007	20.32
567.204	20.3
567.401	20.44
567.598	20.46
567.795	20.54
567.991	20.55
568.188	20.68
568.385	20.75
568.582	20.89
568.779	20.98
568.976	21.12
569.172	21.27
569.369	21.17
569.566	21.2
569.763	21.26
569.96	21.34
570.156	21.33
570.353	21.48
570.55	21.57
570.746	21.56
570.943	21.6
571.14	21.61
571.336	21.7
571.533	21.85
571.729	21.93
571.926	22.02
572.123	22.13
572.319	22.2
572.516	22.13
572.712	22.16
572.909	22.14
573.105	22.21
573.302	22.21
573.498	22.32
573.695	22.37
573.891	22.45
574.087	22.54
574.284	22.67
574.48	22.52
574.677	22.53
574.873	22.61
575.069	22.64
575.266	22.62
575.462	22.81
575.658	22.89
575.854	22.96
576.051	22.99
576.247	22.88
576.443	22.89
576.639	22.93
576.835	22.82
577.032	22.8
577.228	23.03
577.424	23.01
577.62	22.88
577.816	22.95
578.012	22.92
578.208	22.89
578.404	22.98
578.6	23.11
578.796	23.11
578.993	23.19
579.189	23.17
579.384	23.04
579.58	22.97
579.776	22.91
579.972	22.82
580.168	22.74
580.364	22.8
580.56	22.85
580.756	22.87
580.952	22.8
581.148	22.79
581.343	22.83
581.539	22.84
581.735	22.81
581.931	22.87
582.127	22.9
582.322	22.83
582.518	22.83
582.714	22.84
582.909	22.83
583.105	22.83
583.301	22.83
583.496	22.89
583.692	22.98
583.888	23.01
584.083	23.15
584.279	23.13
584.474	23.02
584.67	22.99
584.866	22.92
585.061	22.66
585.257	22.74
585.452	22.73
585.648	22.66
585.843	22.76
586.039	22.96
586.234	22.88
586.429	22.79
586.625	22.86
586.82	22.76
587.015	22.58
587.211	22.47
587.406	22.56
587.601	22.48
587.797	22.49
587.992	22.5
588.187	22.61
588.383	22.57
588.578	22.57
588.773	22.58
588.968	22.71
589.163	22.82
589.359	22.85
589.554	22.87
589.749	22.86
589.944	22.9
590.139	22.76
590.334	22.81
590.529	22.84
590.724	22.93
590.919	22.92
591.114	23.05
591.309	23.2
591.504	23.17
591.699	23.14
591.894	23.24
592.089	23.17
592.284	23.12
592.479	23.33
592.674	23.31
592.869	23.3
593.064	23.38
593.259	23.5
593.454	23.48
593.648	23.66
593.843	23.69
594.038	23.71
594.233	23.64
594.428	23.66
594.622	23.65
594.817	23.85
595.012	23.94
595.206	24.01
595.401	24.02
595.596	24.13
595.79	24.11
595.985	24.29
596.18	24.37
596.374	24.48
596.569	24.54
596.763	24.45
596.958	24.46
597.153	24.64
597.347	24.7
597.542	24.85
597.736	24.97
597.931	24.94
598.125	24.96
598.319	25.06
598.514	25.07
598.708	25.24
598.903	25.3
599.097	25.28
599.291	25.35
599.486	25.25
599.68	25.26
599.874	25.39
600.069	25.42
600.263	25.44
600.457	25.65
600.651	25.67
600.846	25.65
601.04	25.73
601.234	25.73
601.428	25.76
601.622	25.8
601.817	25.87
602.011	25.95
602.205	26.04
602.399	25.91
602.593	25.97
602.787	26.04
602.981	25.97
603.175	26.03
603.369	26.05
603.563	26.12
603.757	26.14
603.951	26.19
604.145	26.11
604.339	26.24
604.533	26.1
604.727	26.07
604.921	26.02
605.115	26.08
605.309	26.11
605.502	26.21
605.696	26.13
605.89	26.12
606.084	25.97
606.278	25.92
606.471	25.79
606.665	25.73
606.859	25.62
607.053	25.73
607.246	25.66
607.44	25.6
607.634	25.51
607.827	25.52
608.021	25.28
608.214	25.21
608.408	25.08
608.602	25.04
608.795	25.01
608.989	25.02
609.182	24.91
609.376	24.9
609.569	24.88
609.763	24.79
609.956	24.7
610.15	24.68
610.343	24.65
610.537	24.61
610.73	24.63
610.923	24.59
611.117	24.45
611.31	24.36
611.504	24.31
611.697	24.12
611.89	24.11
612.083	24.13
612.277	24.22
612.47	24.03
612.663	24.05
612.856	23.92
613.05	23.74
613.243	23.51
613.436	23.42
613.629	23.33
613.822	23.3
614.015	23.34
614.209	23.19
614.402	23.28
614.595	23.24
614.788	23.14
614.981	23.02
615.174	23.05
615.367	22.92
615.56	22.82
615.753	22.74
615.946	22.62
616.139	22.56
616.332	22.65
616.525	22.64
616.718	22.71
616.911	22.82
617.103	22.79
617.296	22.74
617.489	22.59
617.682	22.48
617.875	22.36
618.067	22.2
618.26	22.05
618.453	22.13
618.646	22.05
618.838	22.07
619.031	22.26
619.224	22.22
619.417	22.12
619.609	22.22
619.802	22.2
619.994	22.14
620.187	22.08
620.38	22.1
620.572	21.97
620.765	21.92
620.957	21.7
621.15	21.67
621.342	21.64
621.535	21.67
621.727	21.7
621.92	21.75
622.112	21.69
622.305	21.7
622.497	21.59
622.69	21.56
622.882	21.65
623.074	21.78
623.267	21.68
623.459	21.63
623.651	21.54
623.844	21.49
624.036	21.48
624.228	21.4
624.42	21.39
624.613	21.43
624.805	21.3
624.997	21.2
625.189	21.27
625.381	21.25
625.574	21.16
625.766	21.15
625.958	21.11
626.15	21.15
626.342	21.14
626.534	21.1
626.726	21.1
626.918	21.16
627.11	21.03
627.302	20.98
627.494	21.01
627.686	21
627.878	20.86
628.07	20.87
628.262	20.89
628.454	20.85
628.646	20.86
628.838	20.9
629.029	20.83
629.221	20.81
629.413	20.7
629.605	20.55
629.797	20.4
629.989	20.42
630.18	20.45
630.372	20.49
630.564	20.54
630.755	20.59
630.947	20.59
631.139	20.34
631.33	20.17
631.522	20.23
631.714	20.22
631.905	20.16
632.097	20.18
632.289	20.25
632.48	20.16
632.672	20.09
632.863	20
633.055	20.07
633.246	20.03
633.438	19.95
633.629	19.95
633.821	20.03
634.012	19.97
634.203	19.88
634.395	19.91
634.586	19.93
634.777	19.78
634.969	19.83
635.16	19.88
635.351	19.87
635.543	19.85
635.734	20.01
635.925	19.97
636.117	19.95
636.308	19.98
636.499	19.9
636.69	19.66
636.881	19.66
637.073	19.79
637.264	19.65
637.455	19.64
637.646	19.82
637.837	19.81
638.028	19.66
638.219	19.79
638.41	19.75
638.601	19.49
638.792	19.52
638.983	19.46
639.174	19.34
639.365	19.43
639.556	19.56
639.747	19.41
639.938	19.52
640.129	19.53
640.32	19.41
640.511	19.47
640.701	19.6
640.892	19.52
641.083	19.58
641.274	19.64
641.465	19.61
641.655	19.47
641.846	19.42
642.037	19.31
642.228	19.18
642.418	19.22
642.609	19.34
642.8	19.37
642.99	19.38
643.181	19.52
643.372	19.43
643.562	19.36
643.753	19.3
643.943	19.27
644.134	19.1
644.324	19.01
644.515	18.95
644.705	18.93
644.896	18.86
645.086	18.9
645.277	18.88
645.467	18.91
645.658	18.87
645.848	18.85
646.038	18.92
646.229	18.94
646.419	18.83
646.61	18.84
646.8	18.83
646.99	18.74
647.18	18.72
647.371	18.76
647.561	18.67
647.751	18.69
647.941	18.65
648.132	18.67
648.322	18.71
648.512	18.83
648.702	18.94
648.892	19
649.082	18.96
649.272	18.79
649.462	18.53
649.653	18.37
649.843	18.28
650.033	18.28
650.223	18.26
650.413	18.38
650.603	18.42
650.793	18.34
650.983	18.22
651.172	18.25
651.362	18.16
651.552	18.01
651.742	17.94
651.932	17.93
652.122	17.91
652.312	18
652.502	17.98
652.691	18.07
652.881	17.99
653.071	17.94
653.261	17.64
653.45	17.49
653.64	17.39
653.83	17.3
654.019	17.18
654.209	17.21
654.399	17.23
654.588	17.06
654.778	16.97
654.968	16.78
655.157	16.67
655.347	16.5
655.536	16.36
655.726	16.17
655.915	16.07
656.105	15.96
656.294	15.93
656.484	15.77
656.673	15.68
656.863	15.69
657.052	15.59
657.241	15.34
657.431	15.09
657.62	15.04
657.809	14.73
657.999	14.59
658.188	14.45
658.377	14.45
658.567	14.29
658.756	14.19
658.945	14
659.134	13.87
659.324	13.75
659.513	13.64
659.702	13.44
659.891	13.3
660.08	13.16
660.269	13.01
660.458	12.77
660.648	12.74
660.837	12.61
661.026	12.45
661.215	12.32
661.404	12.16
661.593	12.03
661.782	11.86
661.971	11.84
662.16	11.73
662.349	11.67
662.538	11.5
662.726	11.46
662.915	11.32
663.104	11.15
663.293	11.19
663.482	11.24
663.671	11.09
663.86	10.91
664.048	10.9
664.237	10.72
664.426	10.43
664.615	10.48
664.803	10.45
664.992	10.28
665.181	10.17
665.369	10.12
665.558	9.9
665.747	9.83
665.935	9.91
666.124	10
666.312	10.12
666.501	10.17
666.69	10.11
666.878	9.98
667.067	9.77
667.255	9.71
667.444	9.88
667.632	9.86
667.82	10.04
668.009	10.02
668.197	9.95
668.386	9.74
668.574	9.88
668.762	9.68
668.951	9.75
669.139	9.69
669.327	9.57
669.516	9.59
669.704	9.62
669.892	9.71
670.08	9.73
670.269	9.66
670.457	9.47
670.645	9.29
670.833	9.27
671.021	9.26
671.21	9.36
671.398	9.62
671.586	9.68
671.774	9.51
671.962	9.55
672.15	9.62
672.338	9.32
672.526	9.41
672.714	9.42
672.902	9.4
673.09	9.52
673.278	9.79
673.466	9.91
673.654	10.09
673.842	10.12
674.03	10.1
674.218	9.99
674.405	10.04
674.593	9.99
674.781	10.13
674.969	10.15
675.157	10.28
675.344	10.27
675.532	10.31
675.72	10.36
675.908	10.42
676.095	10.34
676.283	10.48
676.471	10.67
676.658	10.68
676.846	10.69
677.033	10.9
677.221	10.83
677.409	10.73
677.596	10.81
677.784	10.8
677.971	10.83
678.159	10.85
678.346	10.97
678.534	11.12
678.721	11.35
678.909	11.38
679.096	11.49
679.283	11.63
679.471	11.64
679.658	11.77
679.846	11.98
680.033	12.27
680.22	12.3
680.408	12.36
680.595	12.39
680.782	12.35
680.969	12.33
681.157	12.45
681.344	12.58
681.531	12.61
681.718	12.65
681.905	12.82
682.093	13.03
682.28	13.19
682.467	13.49
682.654	13.74
682.841	13.84
683.028	14.06
683.215	14.17
683.402	14.06
683.589	14.21
683.776	14.36
683.963	14.3
684.15	14.4
684.337	14.73
684.524	15.06
684.711	15.35
684.898	15.51
685.085	15.66
685.271	16.05
685.458	15.97
685.645	16.12
685.832	16.52
686.019	16.95
686.205	17.05
686.392	17.47
686.579	17.78
686.766	18.1
686.952	18.45
687.139	18.87
687.326	19.16
687.512	19.51
687.699	19.77
687.886	20
688.072	20.21
688.259	20.65
688.445	21.19
688.632	21.45
688.818	22.09
689.005	22.51
689.191	22.8
689.378	23.25
689.564	24.06
689.751	24.43
689.937	24.98
690.124	25.61
690.31	26.01
690.496	26.39
690.683	26.96
690.869	27.44
691.055	27.93
691.242	28.66
691.428	29.24
691.614	29.79
691.8	30.58
691.987	31.24
692.173	31.7
692.359	32.39
692.545	33
692.731	33.52
692.918	34.28
693.104	34.89
693.29	35.62
693.476	36.38
693.662	37.05
693.848	37.54
694.034	38.09
694.22	38.41
694.406	39.11
694.592	39.91
694.778	40.63
694.964	41.41
695.15	42.16
695.336	42.52
695.522	43.35
695.708	43.99
695.894	44.6
696.08	45.42
696.265	46.27
696.451	46.75
696.637	47.33
696.823	47.93
697.009	48.29
697.194	48.71
697.38	49.16
697.566	49.85
697.751	50.51
697.937	51.31
698.123	52
698.308	52.61
698.494	53.35
698.68	53.82
698.865	54.3
699.051	54.99
699.236	55.35
699.422	55.58
699.607	55.94
699.793	56.32
699.978	56.43
700.164	57.02
700.349	57.73
700.535	58.26
700.72	58.7
700.906	59.4
701.091	59.75
701.276	60.1
701.462	61.08
701.647	61.71
701.832	62.43
702.018	62.99
702.203	63.23
702.388	63.18
702.573	63.66
702.759	64.06
702.944	64.29
703.129	64.55
703.314	65.2
703.499	65.4
703.684	65.37
703.87	66.4
704.055	67.38
704.24	67.42
704.425	68.14
704.61	68.43
704.795	68.2
704.98	67.9
705.165	68.11
705.35	67.75
705.535	68.47
705.72	68.85
705.905	69.53
706.09	70.12
706.275	70.59
706.459	70.51
706.644	70.51
706.829	70.48
707.014	70.35
707.199	71.04
707.384	71.17
707.568	71.62
707.753	72.01
707.938	72.42
708.123	72.01
708.307	72.23
708.492	72.2
708.677	72.42
708.861	72.27
709.046	72.51
709.231	73.11
709.415	73.67
709.6	73.63
709.784	73.7
709.969	74.04
710.153	73.66
710.338	73.82
710.522	73.82
710.707	74.26
710.891	74.3
711.076	74.29
711.26	74.06
711.445	74.62
711.629	74.91
711.813	75.11
711.998	75.85
712.182	75.8
712.366	76.16
712.551	76.87
712.735	77.04
712.919	76.93
713.103	77.42
713.288	77.18
713.472	76.52
713.656	77.23
713.84	77.33
714.024	77.56
714.208	77.05
714.393	77.45
714.577	76.88
714.761	76.7
714.945	76.45
715.129	77.19
715.313	77.11
715.497	77.12
715.681	78.03
715.865	77.95
716.049	77.8
716.233	77.79
716.417	78.06
716.601	77.76
716.785	78.12
716.968	78.39
717.152	78.79
717.336	78.77
717.52	78.31
717.704	78.13
717.888	78.54
718.071	78.42
718.255	78.32
718.439	78.6
718.622	79.01
718.806	78.87
718.99	78.59
719.174	79.05
719.357	79.15
719.541	79.07
719.724	78.84
719.908	79.76
720.092	79.83
720.275	80.14
720.459	80.28
720.642	80.1
720.826	79.56
721.009	79.18
721.193	78.39
721.376	78.56
721.559	78.9
721.743	78.98
721.926	79.91
722.11	80.7
722.293	80.36
722.476	80.33
722.66	80.43
722.843	79.74
723.026	79.38
723.21	79.82
723.393	80.81
723.576	80.81
723.759	80.44
723.942	80.72
724.126	80.84
724.309	80.07
724.492	80.25
724.675	80.47
724.858	81.2
725.041	81.37
725.224	81.92
725.407	81.77
725.59	82.4
725.774	81.77
725.957	81.29
726.14	81
726.322	81.27
726.505	80.91
726.688	81.73
726.871	81.77
727.054	81.53
727.237	81.24
727.42	81.66
727.603	81.1
727.786	80.42
727.968	81.15
728.151	81.58
728.334	81.24
728.517	81.55
728.699	83
728.882	82.55
729.065	82.18
729.248	82.98
729.43	83.12
729.613	83.51
729.796	84.01
729.978	83.83
730.161	83.17
730.343	82.5
730.526	82.6
730.708	82.03
730.891	82.98
731.073	82.65
731.256	82.42
731.438	81.98
731.621	82.49
731.803	81.97
731.986	82.79
732.168	82.79
732.35	82.7
732.533	82.31
732.715	82.18
732.898	81.9
733.08	82.43
733.262	82.3
733.444	82.32
733.627	82.04
733.809	82.58
733.991	83.26
734.173	82.71
734.355	83.1
734.538	84.45
734.72	83.75
734.902	83.39
735.084	84.26
735.266	83.73
735.448	83.26
735.63	82.84
735.812	82.48
735.994	83.05
736.176	84.03
736.358	83.7
736.54	85.06
736.722	84.85
736.904	83.63
737.086	83.27
737.268	84
737.45	84.28
737.632	84.47
737.814	83.98
737.995	83.4
738.177	82.93
738.359	81.65
738.541	82.41
738.723	83.27
738.904	83.84
739.086	84.25
739.268	84.17
739.449	84.26
739.631	84.52
739.813	84.63
739.994	84.47
740.176	85.3
740.358	85.1
740.539	85.15
740.721	85.52
740.902	86.66
741.084	86
741.265	85.41
741.447	85.81
741.628	85.88
741.81	83.84
741.991	84.23
742.172	85.24
742.354	85.94
742.535	85.49
742.717	86.32
742.898	86.84
743.079	87.12
743.261	86.24
743.442	85.79
743.623	85.94
743.804	86.11
743.986	85.74
744.167	84.57
744.348	83.72
744.529	84.32
744.71	82.85
744.891	82.6
745.073	82.59
745.254	83.01
745.435	81.58
745.616	82.01
745.797	81.91
745.978	81.9
746.159	82.49
746.34	81.63
746.521	83.12
746.702	81.55
746.883	82.12
747.064	81.78
747.245	83.33
747.426	82.29
747.606	83.93
747.787	83.49
747.968	83.13
748.149	83.7
748.33	83.24
748.51	82.3
748.691	82.44
748.872	82.82
749.053	81.59
749.233	81.46
749.414	81.17
749.595	80.9
749.775	79.82
749.956	80.22
750.137	81.05
750.317	82.66
750.498	83.13
750.678	84.47
750.859	84.92
751.04	84.39
751.22	82.7
751.4	83.13
751.581	81.95
751.761	82.2
751.942	82.89
752.122	83.69
752.303	82.58
752.483	82.86
752.663	81.73
752.844	79.71
753.024	80.06
753.204	82.04
753.385	82.48
753.565	82.02
753.745	84.01
753.925	82.63
754.106	81
754.286	80.54
754.466	81.77
754.646	82.43
754.826	82.94
755.006	81.97
755.187	83.53
755.367	83.88
755.547	82.86
755.727	83.61
755.907	83.92
756.087	83.73
756.267	81.19
756.447	80.49
756.627	78.86
756.807	79.87
756.987	78.43
757.167	79.35
757.346	80.43
757.526	80.34
757.706	81.07
757.886	82.09
758.066	83.39
758.246	84.72
758.425	85.45
758.605	84.49
758.785	84.46
758.965	83.46
759.144	80.26
759.324	81.52
759.504	81.82
759.683	81.49
759.863	80.82
760.043	80.94
760.222	79.65
760.402	78.32
760.581	78.13
760.761	80.55
760.94	79.15
761.12	81.01
761.299	82.21
761.479	82.6
761.658	79.87
761.838	80.75
762.017	78.63
762.197	79.08
762.376	78.89
762.555	79.7
762.735	81.92
762.914	81.48
763.093	81.01
763.273	79.62
763.452	79.4
763.631	77.54
763.81	77.4
763.99	76.91
764.169	78.22
764.348	76.63
764.527	76.77
764.706	77.71
764.885	78.59
765.064	77.13
765.243	79.22
765.423	79.92
765.602	80.48
765.781	78.02
765.96	77.6
766.139	75.67
766.318	75.74
766.497	75.21
766.676	75.97
766.854	79.16
767.033	80.51
767.212	79.71
767.391	80.41
767.57	81.81
767.749	80.65
767.928	81.76
768.106	81.23
768.285	78.7
768.464	78.75
768.643	76.86
768.821	76.65
769	77.82
769.179	79.11
769.357	76.45
769.536	76.45
769.715	75.25
769.893	77.08
770.072	76.05
770.25	77.4
770.429	78.98
770.607	79.5
770.786	78.07
770.964	79.41
771.143	78.69
771.321	78.52
771.5	77.82
771.678	75.86
771.857	74.04
772.035	74.14
772.213	73.51
772.392	72.66
772.57	75.4
772.748	77.21
772.927	75.37
773.105	73.86
773.283	75.83
773.461	74.68
773.64	72.43
773.818	74.89
773.996	76.54
774.174	75.44
774.352	72.06
774.531	71.5
774.709	72.34
774.887	72.41
775.065	70.52
775.243	73.53
775.421	74.44
775.599	76.01
775.777	73.25
775.955	71.56
776.133	68.42
776.311	70.51
776.489	65.87
776.667	67.07
776.844	69.62
777.022	70.52
777.2	68.58
777.378	71.22
777.556	71.62
777.734	74.2
777.911	76.92
778.089	77.36
778.267	76.79
778.445	76.3
778.622	73.2
778.8	72.78
778.978	73.74
779.155	71.16
779.333	72.22
779.511	73.01
779.688	73.59
779.866	69.35
780.043	68.3
780.221	65.81
780.398	64.61
780.576	65.69
780.753	70.29
780.931	71.37
781.108	71.34
781.286	72.05
781.463	66.96
781.64	60.93
781.818	61.69
781.995	63.54
782.172	63.44
782.35	66.12
782.527	71.23
782.704	71.07
782.882	71.32
783.059	70.17
783.236	69.69
783.413	71.36
783.59	72.01
783.768	68.08
783.945	71.43
784.122	72.48
784.299	71.69
784.476	70.39
784.653	73.01
784.83	68.1
785.007	63.21
785.184	63.61
785.361	60.96
785.538	65.88
785.715	70.19
785.892	72.7
786.069	71.73
786.246	74.87
786.423	70.84
786.6	69.56
786.776	73.42
786.953	71.71
787.13	76.46
787.307	74.52
787.484	74.45
787.66	71.25
787.837	73.08
788.014	66.71
788.191	64.76
788.367	60.92
788.544	63.16
788.721	56.42
788.897	59.74
789.074	63.53
789.25	65.26
789.427	62.9
789.603	67.4
789.78	67.32
789.956	63.81
790.133	61.49
790.309	62.69
790.486	67.15
790.662	63.84
790.839	66.01
791.015	70.42
791.192	69.81
791.368	70.24
791.544	66.36
791.721	65.97
791.897	64.73
792.073	62.66
792.249	53.3
792.426	59.39
792.602	61.59
792.778	62.2
792.954	66.69
793.13	70.69
793.307	63.58
793.483	52.22
793.659	51.11
793.835	51.09
794.011	51.97
794.187	57.92
794.363	61.34
794.539	63.91
794.715	54.27
794.891	54.57
795.067	56
795.243	64.44
795.419	66.3
795.595	69.06
795.771	67.11
795.947	66.16
796.122	59.17
796.298	58.21
796.474	64.23
796.65	66.13
796.826	63.2
797.001	65.45
797.177	59.95
797.353	58.78
797.529	59.06
797.704	61.39
797.88	60.07
798.056	56.22
798.231	47.97
798.407	51.69
798.582	52.84
798.758	62.22
798.934	71.92
799.109	78.27
799.285	69.27
799.46	70.96
799.636	63.5
799.811	60.52
799.986	60.74
800.162	69.44
800.337	68.34
800.513	65.77
800.688	63.03
800.863	71.4
801.039	57.03
801.214	49.67
801.389	56.38
801.565	58.73
801.74	43.32
801.915	52.63
802.09	56.47
802.265	54.19
802.441	46.43
802.616	51.83
802.791	52.87
802.966	55.07
803.141	56.22
803.316	56.23
803.491	63.38
803.666	64.81
803.841	55.3
804.016	50.76
804.191	58.67
804.366	43.55
804.541	43.66
804.716	46.05
804.891	39.81
805.066	40.1
805.241	44.01
805.416	43.45
805.591	47.94
805.765	56.81
805.94	62.14
806.115	61.71
806.29	53.38
806.464	53.75
806.639	42.63
806.814	31.19
806.989	28.07
807.163	40.42
807.338	37.67
807.512	43.31
807.687	28.81
807.862	46.05
808.036	50.71
808.211	55.14
808.385	68.49
808.56	90.2
808.734	83.61
808.909	68.77
809.083	63.16
809.258	57.63
809.432	56.7
809.606	45.57
809.781	46.42
809.955	53.13
810.13	48.57
810.304	41
810.478	41.37
810.652	57.99
810.827	55.2
811.001	53.5
811.175	49.07
811.349	53.09
811.524	37.7
811.698	27.67
811.872	31.69
812.046	44.2
812.22	47.08
812.394	46.75
812.568	55.79
812.742	56.43
812.916	49.31
813.09	41.47
813.264	43.47
813.438	40.12
813.612	35.7
813.786	30.15
813.96	39.62
814.134	39.05
814.308	56.01
814.482	64.59
814.656	67.01
814.83	69.16
815.003	71.72
815.177	55.17
815.351	50.65
815.525	55.82
815.698	46.97
815.872	37.64
816.046	26.89
816.219	30.52
816.393	37.23
816.567	42.57
816.74	44.59
816.914	52.75
817.088	46.69
817.261	23.14
817.435	10.06
817.608	20.98
817.782	9.63
817.955	16.13
818.129	30.16
818.302	33.24
818.475	43.6
818.649	47.66
818.822	45.49
818.996	56.1
819.169	58.16
819.342	38.26
819.516	53.15
819.689	52.2
819.862	46.37
820.035	32.68
820.209	31.21
820.382	28.86
820.555	30.73
820.728	13.13
820.901	22.24
821.075	25.84
821.248	29.93
821.421	11.88
821.594	22.32
821.767	51.16
821.94	70.19
822.113	43.17
822.286	41.24
822.459	51.32
822.632	34.55
822.805	15.3
822.978	27.12
823.151	36.91
823.324	19.41
823.496	-2.33
823.669	4.8
823.842	-2.18
824.015	-21.3
824.188	-16.4
824.361	-1.34
824.533	-11.97
824.706	11.94
824.879	22.68
825.051	34.5
825.224	29.84
825.397	34.69
825.569	-1.27
825.742	3.89
825.915	-4.34
826.087	6.79
826.26	1.32
826.432	15.67
826.605	26.77
826.777	30.01
826.95	30.5
827.122	17.4
827.295	24.16
827.467	8.73
827.64	-35.33
827.812	-36.95
827.984	-17.96
828.157	-39.82
828.329	-63.25
828.501	-38.6
828.674	-15.94
828.846	-30.05
829.018	-7.15
829.19	-12.35
829.363	26.25
829.535	17.25
829.707	34.26
829.879	16.8
830.051	14.23
830.223	-7.18
830.395	-36.04
830.568	-51.22
830.74	-36.37
830.912	5.59
831.084	-15.74
831.256	6.42
831.428	3.07
831.6	-17.58
831.772	-62.04
831.943	-62.91
832.115	-42.95
832.287	-18.43
832.459	5.85
832.631	26.18
832.803	54.97
832.975	62.67
833.146	46.48
833.318	30.9
833.49	48.65
833.662	17.19
833.833	-6.77
834.005	-7.51
834.177	5.46
834.348	-18.37
834.52	-32.71
834.692	-39.77
834.863	-53.04
835.035	-55.54
835.206	-96.06
835.378	-56.65
835.549	-38.53
835.721	-9.79
835.892	-6.03
836.064	1.04
836.235	8.63
836.407	22.53
836.578	-6.53
836.749	-10.29
836.921	5.2
837.092	-35.83
837.264	-53.8
837.435	-55.37
837.606	-10.46
837.777	17.5
837.949	37.05
838.12	42.08
838.291	50.12
838.462	33.45
838.633	-2.74
838.805	-11.84
838.976	-8.22
839.147	-53.68
839.318	-79.43
839.489	-108.94
839.66	-81.13
839.831	-34.79
840.002	-36.33
840.173	-31.34
840.344	-6.8
840.515	-62.22
840.686	-281.72
840.857	-205.45
841.028	-195.57
841.199	-129.55
841.369	-133.29
841.54	-82.74
841.711	-45.99
841.882	-16.02
842.053	-39.83
842.223	-25.67
842.394	-17.24
842.565	-11.94
842.736	6.16
842.906	20.64
843.077	26.16
843.248	50.5
843.418	36.77
843.589	-21.69
843.759	24.77
843.93	32.65
844.101	18.21
844.271	20.32
844.442	40.3
844.612	38.59
844.783	7.5
844.953	-31.57
845.123	-47.27
845.294	-71.16
845.464	-325.75
845.635	-150.17
845.805	-91.74
845.975	-44.08
846.146	-83.84
846.316	-64.29
846.486	-36.51
846.656	10.22
846.827	6.69
846.997	13.62
847.167	66.32
847.337	31.9
847.507	-35.97
847.677	-15.82
847.848	36.64
848.018	20.19
848.188	24.17
848.358	9.38
848.528	-5.34
848.698	-63.29
848.868	-157.55
849.038	-256.99
849.208	-52.13
849.378	-14.15
849.548	-9.15
849.718	16.34
849.887	42.26
850.057	17.34
850.227	-25.22
850.397	-26.93
850.567	-87.08
850.737	-295.76
850.906	-1277.81
851.076	-908.79
851.246	-414.27
851.415	-53.02
851.585	-32.11
851.755	-50.68
851.924	-8.79
852.094	-46.08
852.264	-160.45
852.433	-1323.32
852.603	-279.02
852.772	-262.88
852.942	-109.51
853.111	-87.61
853.281	-32.23
853.45	2.64
853.62	-68.69
853.789	-77.54
853.959	-26.77
854.128	-17.44
854.297	-60.37
854.467	-77.44
854.636	-68.12
854.805	-58.18
854.975	-103.13
855.144	-191.3
855.313	-116.96
855.482	-533.76
855.652	-275.44
855.821	-155.89
855.99	11.26
856.159	9.56
856.328	16.48
856.497	-9.29
856.667	-4.47
856.836	-26.02
857.005	-53.89
857.174	-81.45
857.343	-136.05
857.512	-161.69
857.681	-208
857.85	-254.28
858.019	-116.37
858.188	-69.6
858.356	-87.61
858.525	-137.53
858.694	-124.88
858.863	-314.25
859.032	-273.92
859.201	-398.56
859.369	-314.35
859.538	-192.61
859.707	-140.65
859.876	-112.71
860.044	-64.42
860.213	-1.18
860.382	-28.8
860.55	-11.76
860.719	1.21
860.888	8
861.056	-4
861.225	-22.48
861.393	-8.07
861.562	-22.39
861.73	-114.7
861.899	-418.98
862.067	-3007.76
862.236	-194.61
862.404	-402.67
862.572	-227.25
862.741	-103.63
862.909	-63.89
863.078	-161.17
863.246	-64.95
863.414	-34.62
863.582	8.41
863.751	-65.62
863.919	-59.2
864.087	-40.51
864.255	-76.15
864.424	-495.72
864.592	-96.91
864.76	-197
864.928	-642.6
865.096	-323.65
865.264	-288.48
865.432	-3086.93
865.6	-166.13
865.768	-178.02
865.936	-199.72
866.104	-225.67
866.272	-261.33
866.44	-744.98
866.608	1047.96
866.776	449.39
866.944	3863.37
867.112	-734.43
867.28	-275.35
867.448	-126.63
867.615	-41.66
867.783	-6.49
867.951	-22.05
868.119	12.02
868.286	3.36
868.454	-140.9
868.622	-210.32
868.789	-194.83
868.957	-1944.64
869.125	-2524.34
869.292	-248.22
869.46	-347.58
869.627	-96.57
869.795	-128.13
869.963	-57.72
870.13	-10.89
870.298	-13.89
870.465	-103.77
870.632	-103.98
870.8	-102.7
870.967	-208.08
871.135	-272.6
871.302	-262.18
871.469	-281.25
871.637	-377.67
871.804	-171.53
871.971	-224.56
872.139	-609.42
872.306	-78.82
872.473	-96.89
872.64	-393.67
872.807	-123.46
872.975	-14.06
873.142	-339
873.309	2284.46
873.476	-18.89
873.643	71.89
873.81	38.12
873.977	49.74
874.144	46.96
874.311	-124.06
874.478	-174.28
874.645	-216.83
874.812	-144.02
874.979	-125.5
875.146	-90.93
875.313	-123.74
875.48	-26.4
875.647	-34.45
875.813	-59.88
875.98	-30.87
876.147	-45.4
876.314	-91.1
876.481	852.27
876.647	-1296.91
876.814	636.92
876.981	-205.1
877.147	-89.72
877.314	-40.64
877.481	10.23
877.647	1.13
877.814	-30.56
877.98	-133.11
878.147	-62.33
878.314	-25.81
878.48	-76.47
878.647	-50.17
878.813	13.61
878.979	-14.49
879.146	-55.67
879.312	-22.61
879.479	-95.56
879.645	-214.95
879.811	-452.13
879.978	-995.61
880.144	-351.19
880.31	-176.33
880.477	-473.02
880.643	-499.38
880.809	-263.69
880.975	-222.25
881.142	-1229.32
881.308	-142.24
881.474	-61.81
881.64	-49.37
881.806	-112.59
881.972	-31.65
882.138	-11.05
882.304	2.81
882.47	-151.79
882.636	-564.96
882.802	-185.11
882.968	-65.57
883.134	-32.08
883.3	-56.54
883.466	-14.79
883.632	12.65
883.798	-44.18
883.964	-82.7
884.129	-83.85
884.295	-54.88
884.461	-100.03
884.627	-87.13
884.793	-124.41
884.958	-70.7
885.124	-164.66
885.29	-290.63
885.455	-582.16
885.621	-178.56
885.787	-219.6
885.952	-143.2
886.118	-130.95
886.283	-106.97
886.449	-215.47
886.614	-198.62
886.78	-443.94
886.945	1547.95
887.111	-741.76
887.276	-625.14
887.442	-1117.5
887.607	-329.36
887.773	-271.1
887.938	-221.48
888.103	-309.06
888.269	-185.92
888.434	-445.54
888.599	-168.31
888.764	-88.92
888.93	-7.96
889.095	-42.02
889.26	-75.78
889.425	-28.79
889.59	-4.79
889.756	-75.94
889.921	-45.38
890.086	-5.3
890.251	-28.84
890.416	-230.49
890.581	-1489.11
890.746	179.73
890.911	406.53
891.076	200.61
891.241	-272.57
891.406	4.59
891.571	-95.08
891.736	-281.77
891.901	-522.35
892.065	1017.86
892.23	229.14
892.395	324.51
892.56	475.79
892.725	-733.01
892.889	-1432.32
893.054	-235.41
893.219	-96.86
893.384	-52.41
893.548	-113.36
893.713	-141.98
893.878	-92.17
