Data from Ofra_1a_PS_6CX18_Reflection_2.txt Node
Date: Tue Jul 20 10:58:59 EDT 2021
User: Adam
Spectrometer: FLMT01687
Trigger mode: 0
Integration Time (sec): 1.004000E0
Scans to average: 2
Electric dark correction enabled: true
Nonlinearity correction enabled: false
Boxcar width: 2
XAxis mode: Wavelengths
Number of Pixels in Spectrum: 3648
>>>>>Begin Spectral Data<<<<<
179.494	-448.22
179.716	-593.89
179.937	1011.04
180.158	-1443.95
180.38	203.75
180.601	30.72
180.823	-60.36
181.044	-69.9
181.265	-366.83
181.486	219.63
181.708	49.54
181.929	7300
182.15	-109.87
182.372	939.41
182.593	203.62
182.814	-52.8
183.035	50.86
183.257	62.73
183.478	29.36
183.699	-39.38
183.92	-90.7
184.141	-122.2
184.363	-99.65
184.584	-118.96
184.805	-36.36
185.026	12.49
185.247	20.75
185.468	-11.6
185.689	18.44
185.91	-12.89
186.132	-8.14
186.353	-8.58
186.574	-7.48
186.795	-25.6
187.016	-0.42
187.237	-21.72
187.458	-26.58
187.679	-12
187.9	6.24
188.121	9.55
188.342	7.14
188.563	-3.6
188.784	1.3
189.005	-2.8
189.226	14.54
189.447	14.54
189.667	14.84
189.888	11.65
190.109	-8.81
190.33	-20.45
190.551	-14.26
190.772	-15.26
190.993	-37.43
191.214	-59.38
191.434	-83.6
191.655	-156.55
191.876	-83.7
192.097	-19.96
192.318	9.7
192.538	-28.26
192.759	-10.91
192.98	-4.43
193.201	-4.48
193.421	-1.43
193.642	13.62
193.863	4.29
194.083	-6.23
194.304	-23.22
194.525	-5.04
194.745	-9.96
194.966	-5.79
195.187	-4.28
195.407	-21.32
195.628	-15.37
195.848	-19.38
196.069	-33.22
196.29	-25.59
196.51	-33.47
196.731	-57.18
196.951	-78.2
197.172	-35.19
197.392	-38.63
197.613	2.37
197.833	-5.21
198.054	1.46
198.274	0.45
198.495	7.42
198.715	-4.51
198.936	15.71
199.156	25.73
199.377	21.53
199.597	5.98
199.817	7.95
200.038	-35.11
200.258	-19.67
200.479	-46.78
200.699	-28.62
200.919	-29.44
201.14	-9.23
201.36	-16.33
201.58	-0.75
201.801	-9.69
202.021	-28.81
202.241	-24.57
202.461	-23.09
202.682	-4.38
202.902	7.77
203.122	23.95
203.342	29.99
203.563	18.43
203.783	4.95
204.003	-28.18
204.223	-14.3
204.443	-12.9
204.663	-22.34
204.884	22.61
205.104	44.79
205.324	72.84
205.544	32.97
205.764	52.42
205.984	7.99
206.204	33.89
206.424	-6.98
206.644	-21.6
206.864	-60.87
207.084	-23.42
207.304	-69.67
207.525	-63.38
207.745	-18.96
207.964	-5.49
208.184	-18.11
208.404	-5.8
208.624	19.17
208.844	0.43
209.064	2.34
209.284	-0.55
209.504	-3.74
209.724	-21.54
209.944	-30.95
210.164	-19.24
210.384	-25.77
210.604	-60.1
210.823	-100.32
211.043	-71.66
211.263	-184.81
211.483	-102.09
211.703	-59.56
211.922	-31.63
212.142	24.94
212.362	46.58
212.582	30.76
212.801	22.71
213.021	9.45
213.241	-16.95
213.461	-17.5
213.68	-2.46
213.9	10
214.12	7.52
214.339	-9.09
214.559	-7.82
214.779	0.52
214.998	-5.73
215.218	-3.82
215.438	6.87
215.657	-4.72
215.877	-30.02
216.096	-18.64
216.316	-29.01
216.535	-49.09
216.755	-36.96
216.974	-36.34
217.194	-45.1
217.413	-36.2
217.633	-16.72
217.852	-11.16
218.072	3.23
218.291	17.61
218.511	22.13
218.73	8.78
218.95	-11.12
219.169	-49.22
219.389	-52.97
219.608	-63.32
219.827	-47.88
220.047	-38.66
220.266	-71.77
220.485	-95.66
220.705	-83.74
220.924	-78.25
221.143	-14.79
221.363	8.11
221.582	10.06
221.801	28.71
222.021	9.64
222.24	-22.2
222.459	-0.82
222.678	0.84
222.897	-11.87
223.117	8.23
223.336	27.11
223.555	16.68
223.774	28.76
223.993	27.08
224.213	27.29
224.432	3.32
224.651	10.12
224.87	-3.31
225.089	-6.39
225.308	-1.79
225.527	-8.48
225.746	-33.95
225.965	-37.4
226.184	-26.77
226.404	-43.74
226.623	-17.62
226.842	-7.03
227.061	0.19
227.28	6.68
227.499	13.92
227.718	8.03
227.936	13.65
228.155	8.28
228.374	-11.83
228.593	-24.33
228.812	-37.12
229.031	-37.4
229.25	-33.21
229.469	-27
229.688	-9.91
229.907	19.54
230.125	21.38
230.344	22.23
230.563	24.97
230.782	32.11
231.001	9.7
231.22	12.28
231.438	18.8
231.657	26.47
231.876	12.76
232.095	25.54
232.313	14.56
232.532	7.46
232.751	-14.79
232.969	2.36
233.188	-2.7
233.407	9.9
233.625	22.6
233.844	17.83
234.063	-3.51
234.281	-3.96
234.5	-7.68
234.719	-20.14
234.937	-37.24
235.156	-32.95
235.374	-35.97
235.593	-28.28
235.811	-18.53
236.03	8.5
236.249	8.86
236.467	13.6
236.686	3.65
236.904	10.48
237.123	-5.59
237.341	-8.08
237.559	-33.31
237.778	7.71
237.996	-24.75
238.215	-66.46
238.433	-99.92
238.652	-18.33
238.87	-67.1
239.088	-40.81
239.307	-9.48
239.525	-15.52
239.743	-36.71
239.962	-59.22
240.18	-55.13
240.398	-63.38
240.617	-58.75
240.835	-63.75
241.053	-19.32
241.271	-4.1
241.49	4.01
241.708	-4.35
241.926	-5.77
242.144	-16.84
242.363	-44.62
242.581	-81.24
242.799	-99.93
243.017	-54.18
243.235	-28.82
243.453	-45.99
243.672	-34.94
243.89	-11.62
244.108	-9.39
244.326	10.52
244.544	23.87
244.762	7.73
244.98	15.08
245.198	12.48
245.416	-4.22
245.634	-8.63
245.852	-13.87
246.07	-8.75
246.288	-5.58
246.506	-15.02
246.724	-12.58
246.942	-6.53
247.16	-22.2
247.378	-52.54
247.596	-43.72
247.814	-64.36
248.032	-56.04
248.25	-9.95
248.468	6.86
248.685	8.85
248.903	3.92
249.121	9.85
249.339	1.12
249.557	6.51
249.775	9.07
249.992	7.05
250.21	3.01
250.428	13.25
250.646	8.24
250.863	-13.46
251.081	-0.3
251.299	10.49
251.517	-2.09
251.734	-1.21
251.952	11.24
252.17	13.87
252.387	-16.88
252.605	-24.03
252.823	-50.23
253.04	-18
253.258	-22.45
253.475	1.63
253.693	-3.87
253.911	-10.98
254.128	-30.69
254.346	-25.78
254.563	-9.9
254.781	-5.16
254.998	-9.05
255.216	-47.36
255.433	-64.19
255.651	-64.13
255.868	-57.98
256.086	-16.65
256.303	3.34
256.521	10.77
256.738	12.38
256.956	8.84
257.173	-15.67
257.39	-2.38
257.608	-10.45
257.825	-14.31
258.043	8.32
258.26	11.26
258.477	8.37
258.695	17.34
258.912	6.21
259.129	-24.82
259.346	-37.31
259.564	-56.09
259.781	-67.49
259.998	-21.96
260.216	12.96
260.433	17.84
260.65	23.6
260.867	34.15
261.084	18.05
261.302	-3
261.519	-2.45
261.736	-13.12
261.953	-7.8
262.17	10.7
262.387	10.14
262.604	6.74
262.822	20.79
263.039	22.92
263.256	14.83
263.473	14.28
263.69	11.84
263.907	14.74
264.124	-0.17
264.341	1.79
264.558	-6.1
264.775	0.19
264.992	-4.38
265.209	-12.22
265.426	-23.11
265.643	-3.2
265.86	-2.08
266.077	-24.38
266.294	0.81
266.51	16.32
266.727	8.96
266.944	12.6
267.161	22.55
267.378	21.08
267.595	-1.74
267.812	3.52
268.028	-6.65
268.245	1.86
268.462	-2.93
268.679	13.88
268.896	5.83
269.112	8.29
269.329	-22.25
269.546	-4.72
269.763	-6.36
269.979	-10.62
270.196	-0.63
270.413	13.87
270.629	-7.98
270.846	-13.32
271.063	-8.75
271.279	-12.48
271.496	-43.74
271.712	-37.85
271.929	-27.83
272.146	-30.59
272.362	-33.65
272.579	-9.53
272.795	-14.29
273.012	8.37
273.228	17.86
273.445	8.75
273.661	1.62
273.878	-3.06
274.094	-18.59
274.311	-22.62
274.527	-31.39
274.744	6.7
274.96	10.64
275.177	12.82
275.393	14.88
275.609	26.54
275.826	2.67
276.042	-0.71
276.259	1.58
276.475	-17.04
276.691	-17.62
276.908	-1.17
277.124	11.29
277.34	10.31
277.557	14.85
277.773	-3.17
277.989	-8.33
278.205	-12.1
278.422	-4.81
278.638	-5.37
278.854	-16.28
279.07	3.98
279.286	5.23
279.503	-6.21
279.719	5
279.935	13.14
280.151	-5.57
280.367	-2.25
280.583	-3.95
280.799	-14.83
281.016	-40.34
281.232	-18.42
281.448	-17.77
281.664	-18.06
281.88	-3
282.096	1.94
282.312	-2.59
282.528	-8.96
282.744	-10.94
282.96	-35.89
283.176	-49.07
283.392	-100.97
283.608	-99.33
283.824	-90.86
284.04	-137.71
284.256	-54.49
284.471	-22.79
284.687	-9.4
284.903	-12.42
285.119	15.85
285.335	12.39
285.551	12.9
285.767	0.76
285.982	6.54
286.198	-20.82
286.414	-36.36
286.63	-61.04
286.846	-18.61
287.061	2.04
287.277	-1.99
287.493	8.41
287.709	4.04
287.924	-0.19
288.14	-12.17
288.356	1.75
288.571	-5.43
288.787	-2.96
289.003	12.1
289.218	-6.07
289.434	-6.18
289.65	20.17
289.865	17.28
290.081	11.94
290.296	36.24
290.512	29.57
290.727	0.14
290.943	2.86
291.159	-12.58
291.374	-49.21
291.59	-41.72
291.805	-54.09
292.021	-39.09
292.236	-44.05
292.451	-19.95
292.667	-22.17
292.882	10.72
293.098	-0.36
293.313	3.82
293.529	0.69
293.744	-4.4
293.959	-6.7
294.175	-5.34
294.39	-12.92
294.605	4.33
294.821	8.21
295.036	-2.36
295.251	-0.79
295.467	-1.74
295.682	-16.68
295.897	-21.25
296.112	-18.43
296.328	-20.07
296.543	-31.46
296.758	-20.42
296.973	-9.45
297.188	-7.23
297.404	-28.74
297.619	-16.37
297.834	-53.09
298.049	-46.73
298.264	-37.27
298.479	-19.2
298.694	6.29
298.909	17.18
299.125	9.09
299.34	10.77
299.555	9.74
299.77	20.39
299.985	19.16
300.2	16.48
300.415	6.71
300.63	13.44
300.845	-6.6
301.06	-3.06
301.275	0.35
301.49	3.84
301.704	-12.49
301.919	-6.17
302.134	-15.65
302.349	-5.67
302.564	-4.81
302.779	-3.64
302.994	-0.15
303.209	0.53
303.423	-7.79
303.638	10.7
303.853	-10.14
304.068	-31.11
304.283	-26.33
304.497	-37.88
304.712	-15.54
304.927	8.76
305.142	23.37
305.356	35.01
305.571	40.61
305.786	26.83
306	27.05
306.215	5.29
306.43	-8.91
306.644	-13.61
306.859	-37.68
307.074	-33.59
307.288	-6.22
307.503	3.27
307.717	-5.63
307.932	14.29
308.147	10.23
308.361	10.39
308.576	0.4
308.79	8.76
309.005	-16.85
309.219	3.84
309.434	-2.65
309.648	-7.84
309.863	5.38
310.077	10.05
310.292	4.26
310.506	-4.56
310.72	-0.77
310.935	-3.45
311.149	1.77
311.364	8.04
311.578	6.51
311.792	3.51
312.007	-20.51
312.221	-51.76
312.435	-36.01
312.649	-12.12
312.864	-7.69
313.078	9.22
313.292	23.05
313.507	16.19
313.721	3.65
313.935	1.13
314.149	0.87
314.363	16.55
314.578	21.71
314.792	5.26
315.006	11.13
315.22	14.38
315.434	-2.78
315.648	-11.67
315.862	9
316.077	5.1
316.291	-5.97
316.505	-36.96
316.719	-30.36
316.933	-29.22
317.147	-13.35
317.361	-11.25
317.575	7.48
317.789	21.28
318.003	17.33
318.217	10.49
318.431	0.78
318.645	3.64
318.859	6.49
319.073	9.14
319.287	2.75
319.5	9.19
319.714	-3.05
319.928	-11.57
320.142	-15.22
320.356	2.77
320.57	-14.1
320.784	8.01
320.997	6.77
321.211	13.8
321.425	-33.53
321.639	-4.79
321.853	1.66
322.066	-13.68
322.28	-30.05
322.494	-1.01
322.707	-8.71
322.921	-13.85
323.135	4.74
323.349	7.11
323.562	10.04
323.776	17.81
323.989	26.32
324.203	8.86
324.417	9.87
324.63	-5.05
324.844	-31.93
325.057	-80.96
325.271	-69.31
325.485	-62.55
325.698	-27.58
325.912	5.64
326.125	16.25
326.339	22.44
326.552	5.67
326.766	0.19
326.979	1.86
327.193	9.49
327.406	-0.74
327.619	29.66
327.833	7.29
328.046	1.47
328.26	-10.82
328.473	-1.49
328.686	-14.99
328.9	6.52
329.113	6.8
329.326	1.83
329.54	3.24
329.753	8.65
329.966	2.66
330.179	-1.85
330.393	1.65
330.606	4.31
330.819	-5.36
331.032	-5.49
331.246	-0.25
331.459	16.12
331.672	9.78
331.885	14.79
332.098	10.86
332.311	-3.17
332.525	-5.93
332.738	-2.91
332.951	-22.92
333.164	-11.99
333.377	-12.08
333.59	-18.29
333.803	-22.53
334.016	-7.44
334.229	-7.93
334.442	-11.37
334.655	-6.76
334.868	-5.27
335.081	-2.32
335.294	-19.42
335.507	-0.66
335.72	0.32
335.933	-8.05
336.146	-13.17
336.359	2.04
336.572	-9.16
336.785	-31.23
336.997	-35.79
337.21	-23.12
337.423	-48.67
337.636	-36.86
337.849	-18.75
338.062	3.41
338.274	0.67
338.487	-3.31
338.7	-21.86
338.913	-1.32
339.125	-28.66
339.338	-21.67
339.551	-3.43
339.763	18.78
339.976	1.37
340.189	8.13
340.402	9.51
340.614	2.64
340.827	1.88
341.039	1.1
341.252	2.27
341.465	2.95
341.677	4.96
341.89	-8.2
342.102	-8.58
342.315	-12.69
342.527	-6.79
342.74	-16.27
342.952	-2.5
343.165	-2.36
343.377	7.08
343.59	10.3
343.802	22.69
344.015	25.65
344.227	33.83
344.44	20.34
344.652	21.01
344.864	16.3
345.077	9.92
345.289	-0.57
345.502	22.63
345.714	17.15
345.926	12.54
346.139	-2.08
346.351	21.29
346.563	11.39
346.775	3.08
346.988	17.86
347.2	15.02
347.412	16.2
347.624	5.37
347.837	9.41
348.049	-5.33
348.261	-12.22
348.473	-33.72
348.685	-28.34
348.897	-45.63
349.11	-30.87
349.322	-17.36
349.534	-17.16
349.746	-15.8
349.958	-13.14
350.17	-19.78
350.382	-9.2
350.594	-4.23
350.806	14.12
351.018	18.76
351.23	23.35
351.442	24.63
351.654	19.62
351.866	-4.06
352.078	-0.37
352.29	-5.51
352.502	-21.45
352.714	-19.72
352.926	2.62
353.138	0.77
353.35	-3.34
353.561	6.6
353.773	2.12
353.985	5.97
354.197	9.57
354.409	2.52
354.621	-5.63
354.832	0.62
355.044	-27.92
355.256	-43.65
355.468	-36.6
355.679	-7.23
355.891	-10.09
356.103	-1.89
356.314	2.48
356.526	-5.67
356.738	-23.2
356.949	-18.55
357.161	10.3
357.373	14.11
357.584	20.03
357.796	22.65
358.008	27.1
358.219	22.95
358.431	12.19
358.642	24.07
358.854	32.99
359.065	16.81
359.277	4.02
359.488	-1.45
359.7	-10.32
359.911	-34.25
360.123	-14.71
360.334	-21.63
360.546	-18.61
360.757	-18.6
360.969	-8.82
361.18	-14.41
361.391	-5.55
361.603	5.04
361.814	13.41
362.025	24.98
362.237	17.03
362.448	18.29
362.659	20.19
362.871	-2.57
363.082	-11.52
363.293	-17.13
363.504	-42.45
363.716	-55.83
363.927	-4.14
364.138	-25.12
364.349	-26.43
364.56	-36.22
364.772	-25.29
364.983	-35.32
365.194	-27.72
365.405	-23.21
365.616	9.62
365.827	6.39
366.038	17.12
366.25	22.45
366.461	20.92
366.672	12.15
366.883	5.19
367.094	-13.04
367.305	-15.69
367.516	-7.55
367.727	-31.09
367.938	-20.63
368.149	-22.46
368.36	-30.99
368.571	-52.2
368.781	-39.58
368.992	-43.06
369.203	-33.42
369.414	-39.32
369.625	-28.77
369.836	-4.08
370.047	-3.65
370.258	4
370.468	9.82
370.679	10.32
370.89	0.18
371.101	14.7
371.312	-2.33
371.522	5.02
371.733	-5.98
371.944	-9.1
372.155	0.33
372.365	1.76
372.576	-11.93
372.787	12.26
372.997	10.63
373.208	-13.6
373.419	-10.55
373.629	-9.89
373.84	-22.46
374.05	-29.76
374.261	-41.76
374.472	-30.58
374.682	-16.65
374.893	-23.96
375.103	-6.06
375.314	3.9
375.524	1.18
375.735	6.1
375.945	8.73
376.156	0.58
376.366	-3.03
376.577	2.89
376.787	-3.1
376.997	-5.02
377.208	4.28
377.418	5.19
377.629	1.89
377.839	2.01
378.049	9.43
378.26	-2.16
378.47	11.74
378.68	7.46
378.89	7.52
379.101	-3.33
379.311	-7.45
379.521	-24.99
379.732	-23.6
379.942	-29.27
380.152	-29.03
380.362	-23.44
380.572	-4.73
380.783	6.14
380.993	17.9
381.203	18.51
381.413	22.29
381.623	15.28
381.833	12.39
382.043	4.51
382.253	5.08
382.463	13.94
382.674	22.81
382.884	19.76
383.094	20.8
383.304	25.9
383.514	20.57
383.724	11.84
383.934	1.99
384.144	0.23
384.353	-5.45
384.563	-1.79
384.773	3.95
384.983	7.03
385.193	6.86
385.403	7.82
385.613	-0.56
385.823	-3.09
386.033	-3.41
386.242	-4.94
386.452	-4.48
386.662	-3.48
386.872	0.56
387.082	-2.58
387.291	-6.21
387.501	-3.52
387.711	4.08
387.921	-3.77
388.13	-1.02
388.34	1.14
388.55	-8.61
388.759	-18.16
388.969	-15.91
389.179	-11.61
389.388	-9.97
389.598	-5.02
389.807	-7.38
390.017	-6.94
390.227	-10.97
390.436	-9.68
390.646	-5.38
390.855	-2.23
391.065	-2
391.274	0.72
391.484	0
391.693	-3.44
391.903	-2.36
392.112	-2.23
392.322	-2.4
392.531	0.55
392.74	1.11
392.95	2.88
393.159	3.81
393.369	2.78
393.578	0.29
393.787	-0.58
393.997	0.22
394.206	0.54
394.415	1.97
394.625	1.68
394.834	1.05
395.043	0.12
395.252	1.15
395.462	1.51
395.671	2.89
395.88	5.22
396.089	4.53
396.298	4.08
396.508	4.24
396.717	4.43
396.926	3.32
397.135	3.73
397.344	3.06
397.553	2.56
397.762	3.73
397.971	3.82
398.181	3.96
398.39	4.29
398.599	4.39
398.808	3.75
399.017	4.55
399.226	4.57
399.435	4.71
399.644	5.16
399.853	5.11
400.062	4.71
400.27	4.52
400.479	4.45
400.688	4.31
400.897	4.01
401.106	4.31
401.315	4.41
401.524	4.43
401.733	4.16
401.941	4.55
402.15	4.52
402.359	4.71
402.568	4.69
402.777	5.04
402.985	4.83
403.194	4.68
403.403	4.54
403.612	4.46
403.82	4.05
404.029	4.06
404.238	3.99
404.446	4.14
404.655	4.24
404.864	4.46
405.072	4.45
405.281	4.41
405.489	4.11
405.698	4.09
405.906	4.12
406.115	4.16
406.324	4.37
406.532	4.56
406.741	4.54
406.949	4.46
407.158	4.45
407.366	4.17
407.574	4.2
407.783	4.24
407.991	4.23
408.2	4.41
408.408	4.53
408.617	4.41
408.825	4.3
409.033	4.3
409.242	4.11
409.45	4.14
409.658	4.18
409.867	4.28
410.075	4.33
410.283	4.23
410.491	4.13
410.7	4.04
410.908	4.15
411.116	4.24
411.324	4.3
411.533	4.33
411.741	4.29
411.949	4.22
412.157	4.01
412.365	4.1
412.573	4.07
412.781	4.18
412.99	4.08
413.198	4.24
413.406	4.32
413.614	4.49
413.822	4.48
414.03	4.46
414.238	4.29
414.446	4.2
414.654	3.98
414.862	4.03
415.07	4.01
415.278	4.22
415.486	3.97
415.694	4.05
415.902	3.96
416.109	3.88
416.317	3.8
416.525	3.87
416.733	3.74
416.941	3.66
417.149	3.65
417.357	3.6
417.564	3.65
417.772	3.82
417.98	3.88
418.188	3.89
418.395	3.73
418.603	3.62
418.811	3.44
419.019	3.44
419.226	3.54
419.434	3.65
419.642	3.66
419.849	3.71
420.057	3.75
420.265	3.74
420.472	3.64
420.68	3.74
420.887	3.65
421.095	3.56
421.302	3.59
421.51	3.65
421.717	3.58
421.925	3.58
422.132	3.69
422.34	3.52
422.547	3.43
422.755	3.59
422.962	3.78
423.17	3.56
423.377	3.63
423.585	3.84
423.792	3.68
423.999	3.7
424.207	3.88
424.414	3.82
424.621	3.83
424.829	3.82
425.036	3.64
425.243	3.73
425.451	3.88
425.658	3.59
425.865	3.51
426.072	3.55
426.28	3.5
426.487	3.41
426.694	3.43
426.901	3.62
427.108	3.65
427.315	3.49
427.523	3.49
427.73	3.61
427.937	3.46
428.144	3.48
428.351	3.45
428.558	3.51
428.765	3.56
428.972	3.54
429.179	3.37
429.386	3.43
429.593	3.3
429.8	3.28
430.007	3.37
430.214	3.64
430.421	3.74
430.628	3.88
430.835	3.73
431.042	3.69
431.249	3.65
431.456	3.63
431.662	3.7
431.869	4.11
432.076	4.27
432.283	4.38
432.49	4.41
432.697	4.34
432.903	4.12
433.11	4.14
433.317	4.07
433.524	4.1
433.73	3.99
433.937	3.99
434.144	3.86
434.35	3.78
434.557	3.82
434.764	3.91
434.97	3.81
435.177	4.01
435.384	4.16
435.59	4.2
435.797	4.32
436.003	4.48
436.21	4.31
436.416	4.35
436.623	4.29
436.829	4.28
437.036	4.22
437.242	4.46
437.449	4.4
437.655	4.46
437.862	4.53
438.068	4.55
438.275	4.58
438.481	4.57
438.687	4.49
438.894	4.63
439.1	4.58
439.307	4.55
439.513	4.7
439.719	4.81
439.926	4.65
440.132	4.82
440.338	4.66
440.544	4.58
440.751	4.6
440.957	4.7
441.163	4.49
441.369	4.57
441.575	4.55
441.782	4.59
441.988	4.55
442.194	4.68
442.4	4.73
442.606	4.8
442.812	4.84
443.018	4.88
443.224	4.98
443.431	4.96
443.637	4.91
443.843	4.87
444.049	4.88
444.255	4.87
444.461	4.9
444.667	4.88
444.873	4.81
445.079	4.76
445.284	4.7
445.49	4.59
445.696	4.62
445.902	4.7
446.108	4.73
446.314	4.74
446.52	4.97
446.726	4.99
446.931	4.99
447.137	5
447.343	5.16
447.549	5.16
447.755	5.17
447.96	5.17
448.166	5.15
448.372	5.05
448.578	4.92
448.783	4.98
448.989	5.04
449.195	5.18
449.4	5.28
449.606	5.38
449.812	5.36
450.017	5.38
450.223	5.28
450.428	5.23
450.634	5.2
450.84	5.2
451.045	5.2
451.251	5.27
451.456	5.3
451.662	5.36
451.867	5.41
452.073	5.42
452.278	5.4
452.483	5.42
452.689	5.45
452.894	5.55
453.1	5.52
453.305	5.6
453.51	5.58
453.716	5.47
453.921	5.41
454.127	5.36
454.332	5.33
454.537	5.37
454.742	5.4
454.948	5.27
455.153	5.38
455.358	5.38
455.563	5.48
455.769	5.6
455.974	5.7
456.179	5.7
456.384	5.72
456.589	5.52
456.795	5.46
457	5.48
457.205	5.44
457.41	5.46
457.615	5.49
457.82	5.59
458.025	5.59
458.23	5.59
458.435	5.64
458.64	5.65
458.845	5.63
459.05	5.75
459.255	5.82
459.46	5.74
459.665	5.77
459.87	5.73
460.075	5.67
460.28	5.69
460.485	5.83
460.69	5.85
460.895	5.91
461.099	5.81
461.304	5.74
461.509	5.67
461.714	5.79
461.919	5.76
462.123	5.9
462.328	5.88
462.533	5.85
462.738	5.75
462.942	5.76
463.147	5.72
463.352	5.85
463.556	5.88
463.761	5.9
463.966	5.91
464.17	6
464.375	6.01
464.58	6
464.784	5.99
464.989	6.07
465.193	5.96
465.398	5.96
465.602	6.2
465.807	6.27
466.011	6.22
466.216	6.31
466.42	6.34
466.625	6.2
466.829	6.19
467.034	6.33
467.238	6.37
467.443	6.37
467.647	6.37
467.851	6.46
468.056	6.37
468.26	6.36
468.464	6.34
468.669	6.4
468.873	6.35
469.077	6.34
469.282	6.38
469.486	6.39
469.69	6.43
469.894	6.44
470.099	6.51
470.303	6.5
470.507	6.6
470.711	6.55
470.915	6.58
471.119	6.61
471.324	6.68
471.528	6.65
471.732	6.75
471.936	6.8
472.14	6.82
472.344	6.84
472.548	6.82
472.752	6.72
472.956	6.72
473.16	6.7
473.364	6.67
473.568	6.71
473.772	6.71
473.976	6.82
474.18	6.84
474.384	6.81
474.588	6.81
474.792	6.79
474.995	6.72
475.199	6.69
475.403	6.78
475.607	6.77
475.811	6.85
476.015	6.75
476.218	6.79
476.422	6.77
476.626	6.89
476.83	6.93
477.033	7.08
477.237	7.06
477.441	7.04
477.644	6.93
477.848	6.96
478.052	6.86
478.255	6.9
478.459	6.86
478.663	7.03
478.866	7.02
479.07	7.03
479.273	7.03
479.477	7.05
479.681	7.03
479.884	6.98
480.088	6.99
480.291	7.05
480.495	7.04
480.698	6.95
480.901	6.94
481.105	7
481.308	6.96
481.512	6.99
481.715	7.03
481.919	7.16
482.122	7.13
482.325	7.17
482.529	7.19
482.732	7.23
482.935	7.14
483.138	7.14
483.342	7.15
483.545	7.19
483.748	7.25
483.952	7.28
484.155	7.3
484.358	7.27
484.561	7.19
484.764	7.14
484.967	7.11
485.171	7.18
485.374	7.14
485.577	7.18
485.78	7.15
485.983	7.08
486.186	7.08
486.389	7.16
486.592	7.18
486.795	7.15
486.998	7.13
487.201	7.07
487.404	7.11
487.607	7.11
487.81	7.12
488.013	7.16
488.216	7.17
488.419	7.07
488.622	7
488.825	7.08
489.028	7.06
489.231	7.07
489.433	7.07
489.636	7.06
489.839	7.02
490.042	7.06
490.245	6.99
490.447	6.95
490.65	6.98
490.853	6.99
491.056	6.96
491.258	7.05
491.461	7.13
491.664	7.08
491.866	7.08
492.069	7.13
492.272	7.04
492.474	7.03
492.677	7.08
492.879	7.03
493.082	6.97
493.285	7.02
493.487	6.97
493.69	6.97
493.892	7.01
494.095	7.08
494.297	7.1
494.5	7.09
494.702	7.15
494.905	7.17
495.107	7.15
495.309	7.18
495.512	7.21
495.714	7.13
495.917	7.18
496.119	7.17
496.321	7.12
496.524	7.07
496.726	7.08
496.928	6.97
497.13	6.91
497.333	6.89
497.535	6.93
497.737	6.89
497.939	6.89
498.142	6.94
498.344	6.93
498.546	6.9
498.748	6.98
498.95	6.97
499.152	6.94
499.355	6.96
499.557	6.95
499.759	7.02
499.961	7.07
500.163	7.07
500.365	7.09
500.567	7.07
500.769	7
500.971	6.99
501.173	6.97
501.375	7.06
501.577	7.12
501.779	7.08
501.981	7.1
502.183	7.07
502.385	6.97
502.587	6.94
502.788	6.93
502.99	6.96
503.192	7.03
503.394	7
503.596	6.99
503.798	6.94
503.999	6.89
504.201	6.85
504.403	6.97
504.605	7.04
504.806	7.16
505.008	7.16
505.21	7.14
505.411	7.08
505.613	7.05
505.815	6.96
506.016	7.03
506.218	7.08
506.42	7.06
506.621	7.06
506.823	7.08
507.024	7
507.226	6.96
507.427	6.97
507.629	6.95
507.83	6.99
508.032	6.96
508.233	7
508.435	7.02
508.636	7.08
508.838	7.03
509.039	7.06
509.24	7.11
509.442	7.09
509.643	7.08
509.845	7.06
510.046	7.14
510.247	7.06
510.448	7.05
510.65	7
510.851	7.07
511.052	6.99
511.254	7.08
511.455	7.09
511.656	7.08
511.857	7.04
512.058	7.1
512.26	7.03
512.461	7.01
512.662	7.11
512.863	7.07
513.064	7.04
513.265	7.06
513.466	7.15
513.667	7.12
513.868	7.16
514.069	7.14
514.27	7.14
514.471	7.01
514.672	7
514.873	6.93
515.074	6.96
515.275	6.91
515.476	7.02
515.677	7.08
515.878	7.19
516.079	7.22
516.28	7.35
516.481	7.34
516.682	7.26
516.882	7.21
517.083	7.13
517.284	7.03
517.485	6.95
517.686	7
517.886	6.99
518.087	6.97
518.288	7.05
518.488	7.03
518.689	6.99
518.89	7.01
519.091	7.1
519.291	7.06
519.492	7.13
519.692	7.1
519.893	7.16
520.094	7.15
520.294	7.16
520.495	7.09
520.695	7.17
520.896	7.11
521.096	7.13
521.297	7.15
521.497	7.19
521.698	7.16
521.898	7.14
522.099	7.14
522.299	7.13
522.499	7.11
522.7	7.12
522.9	7.1
523.101	6.99
523.301	6.99
523.501	6.99
523.702	7.01
523.902	7.05
524.102	7.17
524.302	7.21
524.503	7.24
524.703	7.19
524.903	7.19
525.103	7.17
525.304	7.11
525.504	7.12
525.704	7.12
525.904	7.09
526.104	7.09
526.304	7.11
526.504	7.12
526.705	7.12
526.905	7.17
527.105	7.11
527.305	7.08
527.505	7.03
527.705	7.01
527.905	7.03
528.105	7.03
528.305	7.05
528.505	7.06
528.705	7.16
528.905	7.12
529.105	7.14
529.304	7.14
529.504	7.18
529.704	7.12
529.904	7.15
530.104	7.13
530.304	7.16
530.503	7.13
530.703	7.1
530.903	7.05
531.103	7.13
531.303	7.08
531.502	7.13
531.702	7.15
531.902	7.22
532.101	7.25
532.301	7.32
532.501	7.37
532.7	7.4
532.9	7.37
533.1	7.35
533.299	7.31
533.499	7.28
533.698	7.3
533.898	7.3
534.097	7.27
534.297	7.24
534.496	7.2
534.696	7.15
534.895	7.18
535.095	7.19
535.294	7.24
535.494	7.24
535.693	7.31
535.892	7.26
536.092	7.23
536.291	7.25
536.491	7.27
536.69	7.21
536.889	7.21
537.088	7.23
537.288	7.21
537.487	7.2
537.686	7.24
537.886	7.31
538.085	7.33
538.284	7.35
538.483	7.32
538.682	7.33
538.882	7.34
539.081	7.36
539.28	7.35
539.479	7.41
539.678	7.39
539.877	7.35
540.076	7.34
540.275	7.39
540.474	7.36
540.673	7.43
540.872	7.46
541.071	7.52
541.27	7.53
541.469	7.53
541.668	7.49
541.867	7.51
542.066	7.46
542.265	7.46
542.464	7.52
542.663	7.61
542.862	7.7
543.06	7.8
543.259	7.81
543.458	7.78
543.657	7.81
543.856	7.79
544.054	7.72
544.253	7.72
544.452	7.78
544.651	7.74
544.849	7.7
545.048	7.71
545.247	7.76
545.445	7.79
545.644	7.79
545.843	7.79
546.041	7.87
546.24	7.87
546.438	7.92
546.637	7.97
546.836	8.06
547.034	8.1
547.233	8.17
547.431	8.18
547.63	8.18
547.828	8.17
548.027	8.18
548.225	8.19
548.423	8.19
548.622	8.23
548.82	8.26
549.019	8.25
549.217	8.3
549.415	8.24
549.614	8.37
549.812	8.4
550.01	8.46
550.209	8.5
550.407	8.62
550.605	8.52
550.803	8.6
551.002	8.63
551.2	8.64
551.398	8.74
551.596	8.83
551.794	8.84
551.993	8.87
552.191	8.88
552.389	8.88
552.587	8.97
552.785	8.98
552.983	9.08
553.181	9.12
553.379	9.16
553.577	9.12
553.775	9.18
553.973	9.21
554.171	9.29
554.369	9.36
554.567	9.42
554.765	9.45
554.963	9.46
555.161	9.54
555.359	9.55
555.557	9.64
555.755	9.76
555.952	9.84
556.15	9.85
556.348	9.85
556.546	9.95
556.744	9.9
556.941	9.83
557.139	9.94
557.337	10.1
557.535	10.07
557.732	10.15
557.93	10.33
558.128	10.32
558.325	10.34
558.523	10.4
558.721	10.51
558.918	10.55
559.116	10.71
559.313	10.79
559.511	10.84
559.708	10.88
559.906	11
560.104	10.98
560.301	11.05
560.498	11.19
560.696	11.3
560.893	11.36
561.091	11.42
561.288	11.46
561.486	11.53
561.683	11.63
561.88	11.71
562.078	11.78
562.275	11.91
562.473	11.93
562.67	11.9
562.867	11.88
563.064	12.01
563.262	12.01
563.459	12.1
563.656	12.28
563.853	12.32
564.051	12.4
564.248	12.47
564.445	12.54
564.642	12.56
564.839	12.72
565.036	12.79
565.234	12.91
565.431	12.96
565.628	13
565.825	13.06
566.022	13.14
566.219	13.23
566.416	13.31
566.613	13.45
566.81	13.59
567.007	13.57
567.204	13.6
567.401	13.71
567.598	13.72
567.795	13.68
567.991	13.73
568.188	13.79
568.385	13.81
568.582	13.9
568.779	14.03
568.976	14.13
569.172	14.23
569.369	14.3
569.566	14.39
569.763	14.38
569.96	14.43
570.156	14.5
570.353	14.56
570.55	14.54
570.746	14.65
570.943	14.77
571.14	14.74
571.336	14.67
571.533	14.71
571.729	14.72
571.926	14.71
572.123	14.82
572.319	14.9
572.516	15.02
572.712	15.05
572.909	15.06
573.105	15.1
573.302	15.13
573.498	15.06
573.695	15.02
573.891	15.01
574.087	14.9
574.284	14.96
574.48	15.01
574.677	15.1
574.873	15.18
575.069	15.29
575.266	15.36
575.462	15.39
575.658	15.41
575.854	15.42
576.051	15.42
576.247	15.35
576.443	15.37
576.639	15.35
576.835	15.23
577.032	15.2
577.228	15.29
577.424	15.34
577.62	15.4
577.816	15.51
578.012	15.58
578.208	15.57
578.404	15.56
578.6	15.58
578.796	15.63
578.993	15.65
579.189	15.63
579.384	15.64
579.58	15.61
579.776	15.57
579.972	15.56
580.168	15.57
580.364	15.57
580.56	15.44
580.756	15.43
580.952	15.39
581.148	15.41
581.343	15.38
581.539	15.54
581.735	15.54
581.931	15.57
582.127	15.52
582.322	15.53
582.518	15.47
582.714	15.42
582.909	15.39
583.105	15.37
583.301	15.34
583.496	15.31
583.692	15.27
583.888	15.21
584.083	15.17
584.279	15.09
584.474	15.06
584.67	15.17
584.866	15.17
585.061	15.21
585.257	15.28
585.452	15.31
585.648	15.26
585.843	15.28
586.039	15.28
586.234	15.32
586.429	15.36
586.625	15.49
586.82	15.48
587.015	15.52
587.211	15.48
587.406	15.43
587.601	15.36
587.797	15.44
587.992	15.34
588.187	15.33
588.383	15.37
588.578	15.29
588.773	15.28
588.968	15.42
589.163	15.52
589.359	15.51
589.554	15.55
589.749	15.59
589.944	15.62
590.139	15.6
590.334	15.67
590.529	15.72
590.724	15.71
590.919	15.7
591.114	15.74
591.309	15.79
591.504	15.83
591.699	15.85
591.894	15.85
592.089	15.89
592.284	15.92
592.479	16
592.674	16.08
592.869	16.15
593.064	16.19
593.259	16.24
593.454	16.24
593.648	16.24
593.843	16.27
594.038	16.28
594.233	16.3
594.428	16.36
594.622	16.46
594.817	16.57
595.012	16.62
595.206	16.66
595.401	16.72
595.596	16.75
595.79	16.73
595.985	16.7
596.18	16.83
596.374	16.93
596.569	17.02
596.763	17.13
596.958	17.32
597.153	17.35
597.347	17.31
597.542	17.28
597.736	17.27
597.931	17.32
598.125	17.3
598.319	17.42
598.514	17.45
598.708	17.52
598.903	17.46
599.097	17.58
599.291	17.61
599.486	17.8
599.68	17.83
599.874	17.98
600.069	18.03
600.263	18.12
600.457	18.06
600.651	18.14
600.846	18.12
601.04	18.1
601.234	18.06
601.428	18.09
601.622	18.16
601.817	18.2
602.011	18.25
602.205	18.31
602.399	18.36
602.593	18.37
602.787	18.38
602.981	18.37
603.175	18.43
603.369	18.4
603.563	18.39
603.757	18.43
603.951	18.46
604.145	18.44
604.339	18.54
604.533	18.51
604.727	18.48
604.921	18.5
605.115	18.51
605.309	18.3
605.502	18.34
605.696	18.32
605.89	18.32
606.084	18.23
606.278	18.3
606.471	18.18
606.665	18.11
606.859	18.03
607.053	17.96
607.246	17.88
607.44	17.87
607.634	17.81
607.827	17.67
608.021	17.62
608.214	17.68
608.408	17.67
608.602	17.65
608.795	17.81
608.989	17.77
609.182	17.7
609.376	17.69
609.569	17.71
609.763	17.59
609.956	17.58
610.15	17.44
610.343	17.34
610.537	17.22
610.73	16.99
610.923	16.92
611.117	16.92
611.31	16.81
611.504	16.72
611.697	16.85
611.89	16.74
612.083	16.65
612.277	16.67
612.47	16.68
612.663	16.62
612.856	16.58
613.05	16.53
613.243	16.45
613.436	16.35
613.629	16.19
613.822	16.14
614.015	16.08
614.209	15.97
614.402	15.99
614.595	16
614.788	15.98
614.981	15.93
615.174	15.89
615.367	15.76
615.56	15.67
615.753	15.57
615.946	15.54
616.139	15.48
616.332	15.46
616.525	15.4
616.718	15.31
616.911	15.32
617.103	15.28
617.296	15.3
617.489	15.22
617.682	15.29
617.875	15.22
618.067	15.12
618.26	14.99
618.453	15.03
618.646	14.97
618.838	14.87
619.031	14.92
619.224	14.89
619.417	14.88
619.609	14.84
619.802	14.86
619.994	14.76
620.187	14.7
620.38	14.62
620.572	14.59
620.765	14.58
620.957	14.63
621.15	14.64
621.342	14.62
621.535	14.59
621.727	14.54
621.92	14.49
622.112	14.46
622.305	14.45
622.497	14.4
622.69	14.36
622.882	14.42
623.074	14.49
623.267	14.49
623.459	14.49
623.651	14.52
623.844	14.47
624.036	14.45
624.228	14.44
624.42	14.36
624.613	14.33
624.805	14.24
624.997	14.14
625.189	14.14
625.381	14.17
625.574	14.1
625.766	14.08
625.958	14.11
626.15	14
626.342	13.96
626.534	13.97
626.726	13.98
626.918	13.9
627.11	13.87
627.302	13.87
627.494	13.93
627.686	13.97
627.878	13.91
628.07	13.98
628.262	14.05
628.454	14.01
628.646	13.91
628.838	14
629.029	13.91
629.221	13.75
629.413	13.64
629.605	13.62
629.797	13.56
629.989	13.54
630.18	13.62
630.372	13.65
630.564	13.65
630.755	13.64
630.947	13.6
631.139	13.54
631.33	13.5
631.522	13.5
631.714	13.45
631.905	13.44
632.097	13.4
632.289	13.34
632.48	13.26
632.672	13.22
632.863	13.22
633.055	13.17
633.246	13.23
633.438	13.23
633.629	13.22
633.821	13.18
634.012	13.22
634.203	13.14
634.395	13.15
634.586	13.23
634.777	13.28
634.969	13.24
635.16	13.23
635.351	13.14
635.543	13.02
635.734	12.97
635.925	12.99
636.117	13.05
636.308	13.15
636.499	13.11
636.69	13.14
636.881	13.07
637.073	13.07
637.264	12.99
637.455	13.03
637.646	12.98
637.837	13.01
638.028	12.89
638.219	12.88
638.41	12.94
638.601	12.93
638.792	12.99
638.983	13
639.174	12.94
639.365	12.92
639.556	12.88
639.747	12.78
639.938	12.9
640.129	12.94
640.32	12.85
640.511	12.88
640.701	12.92
640.892	12.87
641.083	12.84
641.274	12.84
641.465	12.83
641.655	12.75
641.846	12.7
642.037	12.69
642.228	12.69
642.418	12.65
642.609	12.7
642.8	12.66
642.99	12.6
643.181	12.64
643.372	12.64
643.562	12.62
643.753	12.64
643.943	12.6
644.134	12.47
644.324	12.5
644.515	12.52
644.705	12.51
644.896	12.61
645.086	12.72
645.277	12.63
645.467	12.53
645.658	12.44
645.848	12.38
646.038	12.32
646.229	12.39
646.419	12.32
646.61	12.38
646.8	12.34
646.99	12.34
647.18	12.25
647.371	12.3
647.561	12.19
647.751	12.15
647.941	12.09
648.132	12.08
648.322	12.05
648.512	12.12
648.702	12.21
648.892	12.21
649.082	12.2
649.272	12.16
649.462	12.22
649.653	12.11
649.843	12.06
650.033	12.08
650.223	12.12
650.413	12.02
650.603	12.13
650.793	12.08
650.983	11.99
651.172	11.92
651.362	11.84
651.552	11.71
651.742	11.71
651.932	11.73
652.122	11.75
652.312	11.74
652.502	11.69
652.691	11.69
652.881	11.61
653.071	11.48
653.261	11.44
653.45	11.4
653.64	11.28
653.83	11.28
654.019	11.19
654.209	11.14
654.399	11.1
654.588	10.93
654.778	10.82
654.968	10.79
655.157	10.71
655.347	10.57
655.536	10.58
655.726	10.41
655.915	10.28
656.105	10.16
656.294	10.05
656.484	10
656.673	9.97
656.863	9.99
657.052	9.9
657.241	9.89
657.431	9.83
657.62	9.74
657.809	9.52
657.999	9.5
658.188	9.38
658.377	9.24
658.567	9.13
658.756	9.11
658.945	8.99
659.134	8.92
659.324	8.78
659.513	8.65
659.702	8.47
659.891	8.4
660.08	8.26
660.269	8.16
660.458	8.1
660.648	8.06
660.837	7.95
661.026	7.87
661.215	7.83
661.404	7.77
661.593	7.71
661.782	7.64
661.971	7.54
662.16	7.44
662.349	7.28
662.538	7.22
662.726	7.04
662.915	7.06
663.104	7.03
663.293	7.09
663.482	7.05
663.671	7.05
663.86	7.03
664.048	7.07
664.237	7.03
664.426	6.97
664.615	6.98
664.803	6.89
664.992	6.76
665.181	6.71
665.369	6.66
665.558	6.62
665.747	6.76
665.935	6.82
666.124	6.85
666.312	6.9
666.501	6.95
666.69	6.84
666.878	6.76
667.067	6.74
667.255	6.72
667.444	6.76
667.632	6.77
667.82	6.84
668.009	6.83
668.197	6.87
668.386	6.79
668.574	6.88
668.762	6.84
668.951	6.86
669.139	6.86
669.327	6.93
669.516	6.85
669.704	6.84
669.892	6.83
670.08	6.81
670.269	6.83
670.457	6.84
670.645	6.84
670.833	6.88
671.021	7.02
671.21	7.06
671.398	7.14
671.586	7.2
671.774	7.27
671.962	7.22
672.15	7.24
672.338	7.36
672.526	7.42
672.714	7.38
672.902	7.46
673.09	7.59
673.278	7.62
673.466	7.72
673.654	7.81
673.842	7.97
674.03	7.96
674.218	7.95
674.405	7.95
674.593	8.08
674.781	8.02
674.969	8.11
675.157	8.24
675.344	8.34
675.532	8.3
675.72	8.37
675.908	8.26
676.095	8.24
676.283	8.31
676.471	8.39
676.658	8.46
676.846	8.52
677.033	8.6
677.221	8.54
677.409	8.56
677.596	8.55
677.784	8.75
677.971	8.71
678.159	8.85
678.346	8.89
678.534	9.05
678.721	9.12
678.909	9.3
679.096	9.32
679.283	9.38
679.471	9.44
679.658	9.38
679.846	9.41
680.033	9.61
680.22	9.79
680.408	9.65
680.595	9.74
680.782	9.87
680.969	9.96
681.157	9.91
681.344	9.99
681.531	10.15
681.718	10.15
681.905	10.08
682.093	10.14
682.28	10.48
682.467	10.54
682.654	10.56
682.841	10.71
683.028	10.79
683.215	10.88
683.402	10.9
683.589	11.08
683.776	11.19
683.963	11.48
684.15	11.62
684.337	11.79
684.524	11.96
684.711	11.94
684.898	11.83
685.085	11.75
685.271	12.03
685.458	12.24
685.645	12.45
685.832	12.8
686.019	12.99
686.205	13.04
686.392	13.22
686.579	13.5
686.766	13.64
686.952	13.95
687.139	14.16
687.326	14.29
687.512	14.39
687.699	14.82
687.886	15.05
688.072	15.39
688.259	15.65
688.445	16.25
688.632	16.45
688.818	17.02
689.005	17.33
689.191	17.68
689.378	18
689.564	18.38
689.751	18.52
689.937	19.05
690.124	19.59
690.31	19.77
690.496	20.31
690.683	21.02
690.869	21.33
691.055	21.68
691.242	22.27
691.428	22.62
691.614	23.11
691.8	23.71
691.987	24.36
692.173	24.97
692.359	25.68
692.545	26.09
692.731	26.55
692.918	27.04
693.104	27.69
693.29	28.3
693.476	29.04
693.662	29.72
693.848	30.43
694.034	30.98
694.22	31.57
694.406	32.11
694.592	32.7
694.778	33.19
694.964	33.81
695.15	34.36
695.336	34.9
695.522	35.66
695.708	36.35
695.894	36.93
696.08	37.69
696.265	38.59
696.451	39.02
696.637	39.85
696.823	40.51
697.009	41.1
697.194	41.65
697.38	42.47
697.566	43.06
697.751	43.69
697.937	44.27
698.123	44.74
698.308	45.17
698.494	45.91
698.68	46.51
698.865	47.14
699.051	47.62
699.236	48.41
699.422	48.94
699.607	49.67
699.793	50.18
699.978	50.79
700.164	51.19
700.349	51.8
700.535	52.08
700.72	52.46
700.906	52.96
701.091	53.47
701.276	53.6
701.462	54.24
701.647	55.06
701.832	55.69
702.018	56.38
702.203	56.88
702.388	57.34
702.573	57.89
702.759	58.42
702.944	58.41
703.129	58.89
703.314	59.13
703.499	59.25
703.684	59.55
703.87	60.37
704.055	60.82
704.24	61.36
704.425	61.85
704.61	62.41
704.795	62.55
704.98	62.96
705.165	63.2
705.35	63.53
705.535	63.45
705.72	63.86
705.905	64.2
706.09	64.88
706.275	65.23
706.459	65.75
706.644	66
706.829	66.45
707.014	66.73
707.199	66.84
707.384	67.04
707.568	67.52
707.753	67.82
707.938	68.12
708.123	68.73
708.307	69.4
708.492	69.75
708.677	69.89
708.861	69.92
709.046	69.81
709.231	69.59
709.415	69.68
709.6	69.95
709.784	70.3
709.969	70.7
710.153	70.95
710.338	71.07
710.522	71.28
710.707	71.3
710.891	71.51
711.076	71.72
711.26	72.18
711.445	72.26
711.629	72.58
711.813	72.85
711.998	72.85
712.182	73.06
712.366	73.8
712.551	74.12
712.735	74.09
712.919	74.77
713.103	75.15
713.288	74.92
713.472	75.07
713.656	75.16
713.84	75.56
714.024	75.38
714.208	75.32
714.393	75.54
714.577	76.17
714.761	75.81
714.945	75.95
715.129	76.07
715.313	75.94
715.497	75.71
715.681	75.81
715.865	75.8
716.049	76.08
716.233	76.07
716.417	76.51
716.601	77
716.785	77.62
716.968	77.75
717.152	78.03
717.336	77.96
717.52	78.06
717.704	77.97
717.888	78.25
718.071	78.31
718.255	78.2
718.439	78.24
718.622	78.1
718.806	77.89
718.99	77.87
719.174	78.19
719.357	78.48
719.541	78.9
719.724	78.98
719.908	78.89
720.092	79.21
720.275	78.99
720.459	78.93
720.642	79.48
720.826	79.44
721.009	79.56
721.193	79.34
721.376	79.4
721.559	79.34
721.743	80.03
721.926	79.67
722.11	80.43
722.293	80.56
722.476	80.45
722.66	81.07
722.843	81.41
723.026	80.83
723.21	81.02
723.393	81.44
723.576	80.96
723.759	81.31
723.942	81.8
724.126	81.56
724.309	81.5
724.492	81.56
724.675	81.51
724.858	81.5
725.041	82.06
725.224	82.2
725.407	82.3
725.59	82.3
725.774	82.15
725.957	82.12
726.14	82.2
726.322	82.61
726.505	82.63
726.688	83.47
726.871	83.12
727.054	83.23
727.237	83.05
727.42	83.17
727.603	82.51
727.786	83.02
727.968	82.95
728.151	82.87
728.334	83.33
728.517	83.71
728.699	83.46
728.882	83.59
729.065	83.66
729.248	83.58
729.43	84.11
729.613	84.46
729.796	85
729.978	85.19
730.161	85.19
730.343	84.65
730.526	84.9
730.708	85.08
730.891	85.58
731.073	85.82
731.256	86.44
731.438	86.98
731.621	86.75
731.803	87.03
731.986	87.11
732.168	87.1
732.35	87.15
732.533	87.31
732.715	87.11
732.898	87.03
733.08	87.37
733.262	86.5
733.444	86.81
733.627	87.13
733.809	87.87
733.991	88.01
734.173	88.05
734.355	87.46
734.538	87.65
734.72	87.71
734.902	88.04
735.084	88.6
735.266	89.43
735.448	89.36
735.63	88.87
735.812	88.65
735.994	88.5
736.176	88.21
736.358	88.23
736.54	88.72
736.722	87.84
736.904	87.69
737.086	88
737.268	88.43
737.45	89.13
737.632	90
737.814	91.22
737.995	91.49
738.177	91.28
738.359	90.28
738.541	90.07
738.723	89.65
738.904	89.43
739.086	89.91
739.268	90.21
739.449	90.43
739.631	90.52
739.813	90.27
739.994	89.58
740.176	90.15
740.358	91.05
740.539	90.53
740.721	91.86
740.902	91.88
741.084	91.93
741.265	92.02
741.447	93.27
741.628	92.49
741.81	93
741.991	92.65
742.172	91.93
742.354	91.95
742.535	92.27
742.717	91.62
742.898	91.26
743.079	92.29
743.261	91.99
743.442	90.73
743.623	90.79
743.804	91.35
743.986	90.08
744.167	89.51
744.348	89.73
744.529	90.74
744.71	90.6
744.891	90.45
745.073	91.24
745.254	92.08
745.435	91.7
745.616	91.1
745.797	91.43
745.978	90.69
746.159	90.06
746.34	90.23
746.521	90.69
746.702	90.51
746.883	90.08
747.064	90.66
747.245	90.27
747.426	90.35
747.606	90.97
747.787	92.26
747.968	92.12
748.149	91.2
748.33	90.84
748.51	89.97
748.691	89.27
748.872	90.28
749.053	90.29
749.233	90.42
749.414	91.59
749.595	91.84
749.775	90.47
749.956	90.88
750.137	90.02
750.317	88.86
750.498	88.57
750.678	88.26
750.859	89.24
751.04	90.18
751.22	90.22
751.4	90.56
751.581	91.08
751.761	92.07
751.942	93
752.122	92.67
752.303	92.88
752.483	92.48
752.663	91.1
752.844	90.45
753.024	92.16
753.204	91.63
753.385	91.33
753.565	91.53
753.745	90.06
753.925	87.75
754.106	87.8
754.286	87.51
754.466	86.59
754.646	88.14
754.826	90.66
755.006	90.2
755.187	92.63
755.367	92.22
755.547	92.81
755.727	91.26
755.907	91.69
756.087	88.84
756.267	89.71
756.447	89
756.627	89.46
756.807	91.12
756.987	92.05
757.167	92.43
757.346	91.82
757.526	91.55
757.706	89.83
757.886	89.81
758.066	89.07
758.246	87.53
758.425	87.16
758.605	86.99
758.785	86.8
758.965	87.49
759.144	87.52
759.324	89.02
759.504	90.1
759.683	89.68
759.863	89.52
760.043	91.27
760.222	89.63
760.402	87.8
760.581	88.53
760.761	88.2
760.94	87.65
761.12	87.37
761.299	88.86
761.479	89.31
761.658	88.48
761.838	89.74
762.017	90.88
762.197	88.69
762.376	87.5
762.555	87.57
762.735	87.22
762.914	86.26
763.093	87.46
763.273	87.51
763.452	87.54
763.631	85.66
763.81	86.53
763.99	86.5
764.169	86.67
764.348	87.06
764.527	88
764.706	86.89
764.885	88.5
765.064	88.47
765.243	88.02
765.423	87.63
765.602	88.18
765.781	84.72
765.96	85.45
766.139	86.83
766.318	87.27
766.497	87.66
766.676	87.36
766.854	87.23
767.033	87.61
767.212	88.32
767.391	88.72
767.57	92.35
767.749	91.2
767.928	89.8
768.106	87.86
768.285	87.09
768.464	86.66
768.643	86.89
768.821	86.69
769	85.5
769.179	84.32
769.357	81.59
769.536	81.28
769.715	79.81
769.893	83.05
770.072	81.94
770.25	82.33
770.429	84.77
770.607	85.48
770.786	83.04
770.964	83.68
771.143	84.52
771.321	81.59
771.5	83.18
771.678	83.81
771.857	83.06
772.035	83.48
772.213	84.07
772.392	80.05
772.57	81.03
772.748	81.32
772.927	80.71
773.105	80.69
773.283	83.86
773.461	84.56
773.64	85
773.818	85.93
773.996	86.96
774.174	86.28
774.352	83.38
774.531	83.64
774.709	83.41
774.887	80.25
775.065	80.58
775.243	80.28
775.421	80.9
775.599	82.35
775.777	82.48
775.955	81.6
776.133	83
776.311	81.44
776.489	79.71
776.667	81.46
776.844	80.97
777.022	80.22
777.2	80.07
777.378	77.77
777.556	79.82
777.734	82.94
777.911	85.15
778.089	87.42
778.267	90.11
778.445	90.12
778.622	87.42
778.8	83.41
778.978	82.99
779.155	84.01
779.333	82.18
779.511	81.26
779.688	83.12
779.866	82.73
780.043	81.69
780.221	80.69
780.398	82.07
780.576	80.34
780.753	80.39
780.931	81.47
781.108	84.32
781.286	84.26
781.463	84.67
781.64	84.02
781.818	83.56
781.995	81.23
782.172	81.03
782.35	83.04
782.527	82.52
782.704	81.24
782.882	79.78
783.059	80.24
783.236	81
783.413	80.95
783.59	81.55
783.768	82.61
783.945	81.62
784.122	81.4
784.299	81.37
784.476	78.76
784.653	76.56
784.83	75.4
785.007	73.68
785.184	75.3
785.361	75.76
785.538	78.94
785.715	82.29
785.892	81.07
786.069	80.3
786.246	82.24
786.423	78.56
786.6	77.13
786.776	79.93
786.953	80.26
787.13	80.17
787.307	81
787.484	78.4
787.66	75.25
787.837	74.31
788.014	74.21
788.191	73.91
788.367	72.86
788.544	73.68
788.721	74.12
788.897	73.45
789.074	74.93
789.25	77.16
789.427	76.88
789.603	73.88
789.78	73.78
789.956	71.01
790.133	69.13
790.309	70.84
790.486	71.88
790.662	71.14
790.839	74.03
791.015	78.93
791.192	79.94
791.368	80.96
791.544	81.86
791.721	79.08
791.897	77.44
792.073	75
792.249	71.96
792.426	71.27
792.602	73.2
792.778	71.63
792.954	72.05
793.13	75.12
793.307	76.73
793.483	78.35
793.659	79.63
793.835	80.9
794.011	84.99
794.187	83.2
794.363	81.95
794.539	82.4
794.715	81.32
794.891	77.24
795.067	76.55
795.243	76.2
795.419	74.84
795.595	77.94
795.771	76.88
795.947	75.7
796.122	69.38
796.298	70.23
796.474	74.15
796.65	75.55
796.826	77.98
797.001	81.85
797.177	75.86
797.353	69.39
797.529	72.83
797.704	71.08
797.88	70.91
798.056	70.79
798.231	68.58
798.407	67.07
798.582	68.68
798.758	71.17
798.934	78.59
799.109	79.8
799.285	75.07
799.46	73.37
799.636	70.76
799.811	68.33
799.986	68.84
800.162	65.75
800.337	68.81
800.513	68.73
800.688	65.23
800.863	72.18
801.039	79.05
801.214	71.93
801.389	68.91
801.565	70.48
801.74	63.97
801.915	64.61
802.09	64.97
802.265	67.48
802.441	66.57
802.616	65.43
802.791	63.2
802.966	67.23
803.141	73.19
803.316	72.66
803.491	76.64
803.666	77.66
803.841	75.68
804.016	70.29
804.191	73.12
804.366	70.36
804.541	72.18
804.716	69.73
804.891	70.41
805.066	73.61
805.241	68.63
805.416	68.31
805.591	71.5
805.765	80.69
805.94	70.23
806.115	70.63
806.29	69.35
806.464	68.44
806.639	55.72
806.814	62.04
806.989	67.39
807.163	68.42
807.338	65.22
807.512	70.09
807.687	67.8
807.862	70.39
808.036	70.7
808.211	75.2
808.385	80.44
808.56	76.89
808.734	69.36
808.909	64.3
809.083	70.03
809.258	67.01
809.432	70.49
809.606	66.61
809.781	76.43
809.955	69.38
810.13	65.09
810.304	67.44
810.478	70.65
810.652	66.77
810.827	68.09
811.001	71.49
811.175	68.84
811.349	67.01
811.524	71.86
811.698	64.35
811.872	64.92
812.046	67.08
812.22	70.63
812.394	61.35
812.568	68.74
812.742	66.62
812.916	65.19
813.09	64.78
813.264	66.53
813.438	64.2
813.612	62.7
813.786	57.6
813.96	63.34
814.134	62.43
814.308	64.53
814.482	65.17
814.656	63.69
814.83	56.73
815.003	65.13
815.177	62.31
815.351	69.92
815.525	85.8
815.698	75.84
815.872	62.87
816.046	59.41
816.219	57.13
816.393	49.96
816.567	60.81
816.74	68.06
816.914	73.86
817.088	66.83
817.261	67.01
817.435	66.18
817.608	62.75
817.782	59.78
817.955	58.68
818.129	58.4
818.302	59.83
818.475	58.94
818.649	60.02
818.822	60.31
818.996	70.9
819.169	65.66
819.342	66.73
819.516	67.44
819.689	66.28
819.862	54.19
820.035	55.07
820.209	50.99
820.382	45.35
820.555	44.5
820.728	40.69
820.901	39.89
821.075	41.29
821.248	61.84
821.421	60.66
821.594	58.57
821.767	64.74
821.94	68.41
822.113	62.67
822.286	67.81
822.459	77.26
822.632	77.89
822.805	73.07
822.978	67.43
823.151	56.45
823.324	41.18
823.496	18.43
823.669	21.12
823.842	26.11
824.015	33.56
824.188	30.59
824.361	52.32
824.533	38.95
824.706	41.77
824.879	46.28
825.051	56.89
825.224	64.39
825.397	62.83
825.569	54.46
825.742	54.91
825.915	64.71
826.087	51.44
826.26	68.66
826.432	73.19
826.605	80
826.777	80.08
826.95	91.14
827.122	73.27
827.295	68.18
827.467	51.13
827.64	14.59
827.812	-2.72
827.984	18.11
828.157	30.8
828.329	43.38
828.501	46.47
828.674	42.01
828.846	43.41
829.018	38.9
829.19	35.67
829.363	51.57
829.535	57.62
829.707	55.35
829.879	48.96
830.051	50.34
830.223	48.45
830.395	36.55
830.568	41.82
830.74	47.73
830.912	52.25
831.084	49.01
831.256	53.72
831.428	44
831.6	34.81
831.772	18.78
831.943	15.2
832.115	15.81
832.287	20.49
832.459	34.09
832.631	48.85
832.803	50
832.975	56.96
833.146	49.61
833.318	54.5
833.49	52.77
833.662	57.53
833.833	46.47
834.005	53.27
834.177	52.16
834.348	48.17
834.52	49.42
834.692	45.08
834.863	46.63
835.035	40.41
835.206	42.11
835.378	45.14
835.549	42.84
835.721	49.89
835.892	46.99
836.064	48.55
836.235	49.94
836.407	48.72
836.578	39.04
836.749	34.54
836.921	35.35
837.092	34.28
837.264	21.63
837.435	12.68
837.606	34.36
837.777	32.63
837.949	38.82
838.12	51.81
838.291	53.7
838.462	47.9
838.633	39
838.805	6.8
838.976	6.53
839.147	11.25
839.318	13.45
839.489	10.95
839.66	50.14
839.831	59.46
840.002	50.75
840.173	50.81
840.344	54.25
840.515	30.6
840.686	27.43
840.857	46.83
841.028	48.23
841.199	52.78
841.369	69.1
841.54	75.49
841.711	88.1
841.882	86.75
842.053	79.51
842.223	66.29
842.394	68.79
842.565	61.84
842.736	65.76
842.906	64.55
843.077	72.06
843.248	79.45
843.418	60.76
843.589	43.08
843.759	48.13
843.93	57.15
844.101	34.29
844.271	60.71
844.442	73.22
844.612	76.11
844.783	70.22
844.953	73.78
845.123	52.35
845.294	46.96
845.464	32.28
845.635	11.89
845.805	9.71
845.975	12.09
846.146	12.12
846.316	14.05
846.486	31.7
846.656	43.46
846.827	38.17
846.997	43.69
847.167	48.23
847.337	40.82
847.507	32.17
847.677	34
847.848	37.73
848.018	42.16
848.188	46.7
848.358	35.62
848.528	35.86
848.698	31.32
848.868	21.52
849.038	14.77
849.208	32.27
849.378	33.54
849.548	2.79
849.718	-8.04
849.887	-14.44
850.057	-24.58
850.227	6.44
850.397	24.94
850.567	17.74
850.737	24.09
850.906	-9.78
851.076	-32.3
851.246	-5.23
851.415	-7.78
851.585	-6.71
851.755	27.86
851.924	65.66
852.094	63.27
852.264	68.62
852.433	52.74
852.603	48.12
852.772	64.44
852.942	67.3
853.111	69.64
853.281	87.08
853.45	73.06
853.62	33.27
853.789	7.8
853.959	13.92
854.128	15.17
854.297	32.56
854.467	45.87
854.636	61.57
854.805	54.2
854.975	51.4
855.144	43.93
855.313	50.17
855.482	41.21
855.652	34.3
855.821	-1.17
855.99	33.86
856.159	30.52
856.328	34.02
856.497	40.52
856.667	47.79
856.836	34.35
857.005	21.99
857.174	16.79
857.343	11.35
857.512	30.84
857.681	17.73
857.85	35.02
858.019	27.3
858.188	-14.43
858.356	-17.53
858.525	0.91
858.694	-2.12
858.863	1.24
859.032	13.9
859.201	5.43
859.369	-5.11
859.538	-13.54
859.707	-30.44
859.876	-6.68
860.044	16.48
860.213	32.79
860.382	38.82
860.55	42.99
860.719	42.49
860.888	22.24
861.056	-24.37
861.225	-24.03
861.393	-31.34
861.562	6.6
861.73	-6.04
861.899	19.62
862.067	1.95
862.236	9.9
862.404	-14.68
862.572	-4.36
862.741	-28.47
862.909	-0.33
863.078	4.29
863.246	-0.26
863.414	13.51
863.582	25.01
863.751	2.34
863.919	2.39
864.087	11
864.255	-8.56
864.424	-48.78
864.592	16.76
864.76	9.7
864.928	0.34
865.096	-10.61
865.264	10.49
865.432	-27.74
865.6	-9.13
865.768	1.9
865.936	20.6
866.104	43.59
866.272	23.12
866.44	-15.23
866.608	-5.36
866.776	26.41
866.944	5.18
867.112	26.04
867.28	27.68
867.448	20.19
867.615	3.23
867.783	-2.62
867.951	-7.67
868.119	-13.87
868.286	29.38
868.454	8.07
868.622	15.43
868.789	12.99
868.957	25.52
869.125	-2.18
869.292	-29.58
869.46	-10.59
869.627	-22.52
869.795	-77.5
869.963	-59.08
870.13	-40.88
870.298	-59.2
870.465	-37.23
870.632	-30.81
870.8	-20.56
870.967	-17.71
871.135	-35.75
871.302	-11.18
871.469	-9.91
871.637	-19.86
871.804	9.82
871.971	10.78
872.139	-17.3
872.306	0.43
872.473	-27.27
872.64	-131.88
872.807	-186.59
872.975	-305.47
873.142	-109
873.309	-72.29
873.476	12.39
873.643	70.89
873.81	43.2
873.977	18.13
874.144	58.76
874.311	-39.93
874.478	-123.4
874.645	-163.67
874.812	-31.3
874.979	-74.43
875.146	-96.83
875.313	-33.73
875.48	14
875.647	-20.86
875.813	-41.94
875.98	-43.1
876.147	-96.26
876.314	-96.61
876.481	-75.72
876.647	-19.79
876.814	19.04
876.981	31.9
877.147	73.22
877.314	57.55
877.481	68.84
877.647	63.96
877.814	53.12
877.98	41.13
878.147	63.06
878.314	61.97
878.48	57
878.647	59.83
878.813	64.14
878.979	39.59
879.146	27.61
879.312	59.09
879.479	22.46
879.645	10.5
879.811	-6.52
879.978	11.4
880.144	3.48
880.31	23.5
880.477	35.81
880.643	38.45
880.809	-23.83
880.975	-59.54
881.142	-160.65
881.308	542.53
881.474	888.87
881.64	-84.8
881.806	-119.1
881.972	-58.4
882.138	-3.25
882.304	5.23
882.47	-47.27
882.636	-62.91
882.802	-75.23
882.968	-122.77
883.134	-78.95
883.3	-71.86
883.466	-25.67
883.632	60.78
883.798	45.99
883.964	57.93
884.129	-219.65
884.295	-55.54
884.461	-140.17
884.627	-40.96
884.793	-72.13
884.958	-10.5
885.124	-32.25
885.29	-69.07
885.455	-92.89
885.621	-41.7
885.787	-29.39
885.952	-50.84
886.118	9.45
886.283	6.48
886.449	-29.22
886.614	-44.01
886.78	-21.55
886.945	-93.32
887.111	-110.36
887.276	-93.87
887.442	-144.18
887.607	-103.28
887.773	-30.36
887.938	-44.1
888.103	-22.7
888.269	-4.57
888.434	-2.53
888.599	-3.16
888.764	26.76
888.93	39.42
889.095	29.91
889.26	30.57
889.425	33.02
889.59	69.44
889.756	85.65
889.921	41.25
890.086	57.93
890.251	62.41
890.416	15.7
890.581	-29.1
890.746	51.65
890.911	41.82
891.076	27.17
891.241	31.65
891.406	35.25
891.571	44.4
891.736	17.47
891.901	48.86
892.065	20.02
892.23	-8.33
892.395	-52.43
892.56	-47.01
892.725	-49.09
892.889	-37.52
893.054	-31.91
893.219	-32.75
893.384	-34.02
893.548	-116.22
893.713	-161.56
893.878	-194.42
