Data from Ofra_2a_PS_2H517_Reflection_3.txt Node
Date: Tue Jul 20 09:45:47 EDT 2021
User: Adam
Spectrometer: FLMT01687
Trigger mode: 0
Integration Time (sec): 9.450000E-1
Scans to average: 3
Electric dark correction enabled: true
Nonlinearity correction enabled: false
Boxcar width: 3
XAxis mode: Wavelengths
Number of Pixels in Spectrum: 3648
>>>>>Begin Spectral Data<<<<<
179.494	1347.34
179.716	856.69
179.937	856.04
180.158	3389.06
180.38	-2023.26
180.601	-419.33
180.823	-106.85
181.044	59.76
181.265	55.98
181.486	39.95
181.708	-691.3
181.929	113.02
182.15	-88.64
182.372	97.47
182.593	141.78
182.814	100.6
183.035	30.99
183.257	82.76
183.478	63.67
183.699	67.68
183.92	44.11
184.141	54.47
184.363	47.82
184.584	49.26
184.805	37.72
185.026	5.46
185.247	19.83
185.468	29.12
185.689	14.52
185.91	1.58
186.132	7.23
186.353	-12.49
186.574	7.01
186.795	-17.51
187.016	-14.68
187.237	-10.56
187.458	-10.41
187.679	-42.07
187.9	-12.62
188.121	-9.43
188.342	38.61
188.563	40.71
188.784	31.44
189.005	35.88
189.226	42.49
189.447	34.95
189.667	29.13
189.888	26.78
190.109	24.01
190.33	17.37
190.551	7.58
190.772	5
190.993	21.31
191.214	20.91
191.434	11.19
191.655	20.17
191.876	26.99
192.097	29.58
192.318	32.66
192.538	30.93
192.759	34.26
192.98	24.09
193.201	28.64
193.421	27.86
193.642	37.77
193.863	31.88
194.083	31.01
194.304	23.3
194.525	27.3
194.745	1.48
194.966	7.51
195.187	7.33
195.407	12.25
195.628	6.51
195.848	3.2
196.069	1.96
196.29	-5.46
196.51	-10.4
196.731	-12.34
196.951	-15.06
197.172	-26.15
197.392	1.62
197.613	-0.98
197.833	16.79
198.054	20.22
198.274	9.98
198.495	18.61
198.715	22.67
198.936	11.55
199.156	20.87
199.377	28.08
199.597	23.15
199.817	32.07
200.038	26.94
200.258	24.6
200.479	26.26
200.699	22.29
200.919	-3.27
201.14	-5.67
201.36	4.12
201.58	9.95
201.801	5.85
202.021	7.71
202.241	9.61
202.461	26.41
202.682	28.85
202.902	15.23
203.122	11
203.342	43.28
203.563	45.48
203.783	38.09
204.003	36.51
204.223	39.69
204.443	38.66
204.663	34.17
204.884	7.84
205.104	9.51
205.324	13.6
205.544	19.16
205.764	13.77
205.984	25.46
206.204	32.3
206.424	34.25
206.644	33.34
206.864	33.79
207.084	32.68
207.304	20.75
207.525	1.45
207.745	8.64
207.964	7.71
208.184	5.66
208.404	5.9
208.624	-21.92
208.844	-16.32
209.064	6.54
209.284	-4.34
209.504	-12.68
209.724	-45.92
209.944	-43.34
210.164	-22.84
210.384	-3.45
210.604	-24.54
210.823	-13.03
211.043	-16.24
211.263	12.7
211.483	12.55
211.703	15.47
211.922	11.74
212.142	17.46
212.362	14.73
212.582	15.58
212.801	12.11
213.021	6.75
213.241	4.53
213.461	3.53
213.68	4.52
213.9	13.61
214.12	9.16
214.339	7.62
214.559	23.61
214.779	23.55
214.998	23.3
215.218	26.79
215.438	23.32
215.657	29.73
215.877	26.21
216.096	16.32
216.316	14.64
216.535	14.48
216.755	-3.18
216.974	-12.42
217.194	-9.28
217.413	8.45
217.633	-0.34
217.852	3.85
218.072	-15.19
218.291	13.82
218.511	19.68
218.73	9.67
218.95	-3.02
219.169	6.8
219.389	11.76
219.608	23.41
219.827	11.36
220.047	21.3
220.266	28.77
220.485	38.12
220.705	24.64
220.924	22.87
221.143	19.82
221.363	21.41
221.582	13.49
221.801	16.3
222.021	17.2
222.24	21.92
222.459	12.27
222.678	-0.14
222.897	-1.88
223.117	-0.24
223.336	1.26
223.555	-15.78
223.774	-11.78
223.993	14.53
224.213	24.21
224.432	36.3
224.651	34.52
224.87	29.35
225.089	41.19
225.308	46.71
225.527	30.75
225.746	30.58
225.965	14.33
226.184	-2.91
226.404	-21.69
226.623	-26.58
226.842	-23.11
227.061	-20.59
227.28	-3.25
227.499	21.3
227.718	28.22
227.936	35.38
228.155	34.78
228.374	29.23
228.593	32.67
228.812	16.12
229.031	-9.47
229.25	8.59
229.469	13.85
229.688	18.17
229.907	12.53
230.125	14.3
230.344	15.7
230.563	33.39
230.782	20.85
231.001	19.92
231.22	21.46
231.438	29.56
231.657	28.32
231.876	29.06
232.095	25.96
232.313	40.56
232.532	43.5
232.751	44.54
232.969	45.42
233.188	49.59
233.407	48.67
233.625	48.27
233.844	27.37
234.063	22.43
234.281	17.02
234.5	13.18
234.719	10.94
234.937	18.16
235.156	15.21
235.374	18.36
235.593	17.95
235.811	12.54
236.03	9.86
236.249	12.35
236.467	9.61
236.686	17.47
236.904	14.01
237.123	5.91
237.341	3.56
237.559	2.28
237.778	5.31
237.996	2.78
238.215	2
238.433	17.78
238.652	17.81
238.87	25.29
239.088	24.2
239.307	21.26
239.525	9.38
239.743	3.67
239.962	-8.68
240.18	7.46
240.398	10.54
240.617	15.93
240.835	12.69
241.053	34.65
241.271	42.35
241.49	40.46
241.708	33.31
241.926	22.86
242.144	27.61
242.363	27.33
242.581	16.29
242.799	6.25
243.017	15.04
243.235	-1.78
243.453	9.48
243.672	10.3
243.89	19
244.108	21.5
244.326	25.77
244.544	25.22
244.762	31.65
244.98	26.89
245.198	16.64
245.416	15.68
245.634	25.31
245.852	27.01
246.07	24
246.288	27.22
246.506	29.99
246.724	45.79
246.942	44.03
247.16	28.62
247.378	17.56
247.596	29.24
247.814	25.89
248.032	35.58
248.25	23.05
248.468	19.08
248.685	32.21
248.903	36.09
249.121	34
249.339	38.52
249.557	33.04
249.775	20.33
249.992	12.91
250.21	-6.09
250.428	-11.87
250.646	-15.35
250.863	-24.29
251.081	-32.89
251.299	-5.36
251.517	7.47
251.734	24.58
251.952	36.79
252.17	20.24
252.387	31.66
252.605	22.18
252.823	16.47
253.04	8.92
253.258	11.47
253.475	12.6
253.693	29.82
253.911	27.33
254.128	30.69
254.346	19.21
254.563	10
254.781	10.46
254.998	5.55
255.216	1.01
255.433	-7.63
255.651	-14.12
255.868	-2.69
256.086	9.44
256.303	15.01
256.521	6.99
256.738	-2.15
256.956	4.81
257.173	14.89
257.39	11.84
257.608	13.54
257.825	7.54
258.043	21.84
258.26	24.95
258.477	27.17
258.695	27.57
258.912	30.05
259.129	23.11
259.346	29.45
259.564	25.97
259.781	29.5
259.998	20.54
260.216	25.14
260.433	30.98
260.65	35
260.867	9.33
261.084	11.38
261.302	4.82
261.519	4.55
261.736	-10.21
261.953	-21.19
262.17	-16.47
262.387	-5.8
262.604	-27.09
262.822	-23.24
263.039	-24.15
263.256	-11.66
263.473	-24.28
263.69	-28.62
263.907	-22.12
264.124	-3.98
264.341	-1.95
264.558	6.96
264.775	9.3
264.992	23.79
265.209	34.25
265.426	33.87
265.643	31.3
265.86	33.02
266.077	28.64
266.294	23.57
266.51	22.52
266.727	2.52
266.944	-8.34
267.161	-13.13
267.378	-22.11
267.595	-22.13
267.812	-21.31
268.028	-16.66
268.245	-6.23
268.462	0.73
268.679	0.77
268.896	-0.33
269.112	14.27
269.329	10.72
269.546	6.14
269.763	14.71
269.979	15.96
270.196	18.38
270.413	17.27
270.629	11.25
270.846	20.56
271.063	20.9
271.279	17.49
271.496	4.76
271.712	4.88
271.929	12.84
272.146	15.46
272.362	-7.38
272.579	-13.02
272.795	-26.65
273.012	-14.63
273.228	-21.79
273.445	-23.23
273.661	-23.25
273.878	-7.2
274.094	4.08
274.311	7.44
274.527	8.54
274.744	14.02
274.96	14.73
275.177	24.61
275.393	20.78
275.609	17.69
275.826	28.89
276.042	35.51
276.259	33.71
276.475	25.83
276.691	19.97
276.908	24.2
277.124	21.11
277.34	11.32
277.557	15.97
277.773	14.16
277.989	16.66
278.205	9.62
278.422	14.57
278.638	22.46
278.854	24.03
279.07	5.45
279.286	6.06
279.503	13.27
279.719	21.03
279.935	4.91
280.151	4.64
280.367	3.91
280.583	14.09
280.799	18.5
281.016	23.05
281.232	15.76
281.448	18.78
281.664	10.42
281.88	16.61
282.096	18.79
282.312	9.53
282.528	-17.46
282.744	-4.3
282.96	9.38
283.176	14.24
283.392	22.05
283.608	27.91
283.824	26.35
284.04	27.3
284.256	24.75
284.471	19.71
284.687	14.72
284.903	3.79
285.119	-11.93
285.335	-3.49
285.551	10.25
285.767	6.48
285.982	12.64
286.198	19.67
286.414	27.89
286.63	34.42
286.846	28.14
287.061	26.5
287.277	32.55
287.493	32.23
287.709	21.43
287.924	13.01
288.14	14.22
288.356	21.29
288.571	12.13
288.787	12.37
289.003	6.06
289.218	20.4
289.434	19.57
289.65	17.06
289.865	24.3
290.081	22.79
290.296	20.86
290.512	24.18
290.727	28.66
290.943	26.51
291.159	21.58
291.374	15.17
291.59	7.18
291.805	2.94
292.021	0.64
292.236	-1.52
292.451	5.19
292.667	6.03
292.882	-2.07
293.098	8.57
293.313	2.46
293.529	1.28
293.744	-8.07
293.959	1.37
294.175	8.81
294.39	14.59
294.605	19.08
294.821	15.6
295.036	17.96
295.251	22.95
295.467	14.22
295.682	9.26
295.897	13.67
296.112	12.83
296.328	18.5
296.543	16.8
296.758	20.29
296.973	26.03
297.188	26.87
297.404	31.6
297.619	34.83
297.834	36.34
298.049	35.51
298.264	27.94
298.479	19.16
298.694	28.86
298.909	15.82
299.125	15.89
299.34	12.58
299.555	22.33
299.77	24.75
299.985	22.55
300.2	16.01
300.415	31.32
300.63	31.49
300.845	37.45
301.06	27.99
301.275	30.92
301.49	36.8
301.704	39.93
301.919	17.52
302.134	12.33
302.349	0.44
302.564	-7.97
302.779	-14.76
302.994	-18.85
303.209	-29.63
303.423	0.7
303.638	5.04
303.853	23.82
304.068	25.19
304.283	27.03
304.497	19.26
304.712	20.64
304.927	11.57
305.142	10.18
305.356	5.8
305.571	19.16
305.786	15.97
306	22.49
306.215	24.05
306.43	28.56
306.644	31.18
306.859	24.48
307.074	12.66
307.288	16.66
307.503	20.21
307.717	10.94
307.932	11.83
308.147	6.91
308.361	12.48
308.576	16.19
308.79	11.21
309.005	10.72
309.219	22.14
309.434	20.31
309.648	12.91
309.863	6.88
310.077	-4.38
310.292	4.67
310.506	4.52
310.72	9.62
310.935	9.77
311.149	23.77
311.364	32.74
311.578	33.43
311.792	29.79
312.007	20.34
312.221	17.91
312.435	25.04
312.649	5.79
312.864	-6.17
313.078	5.16
313.292	16.92
313.507	25.61
313.721	21.14
313.935	25.19
314.149	32.27
314.363	38.23
314.578	63.11
314.792	55
315.006	53.42
315.22	57.27
315.434	48.01
315.648	49.64
315.862	46.48
316.077	15.72
316.291	15.46
316.505	19.62
316.719	-5.86
316.933	1.99
317.147	8.26
317.361	9.81
317.575	17.52
317.789	19.51
318.003	23.4
318.217	36.01
318.431	35.53
318.645	33.79
318.859	26.68
319.073	28.96
319.287	29.71
319.5	21.88
319.714	24.4
319.928	19.09
320.142	18.56
320.356	28.12
320.57	21
320.784	23.28
320.997	27.6
321.211	25.48
321.425	12.87
321.639	12.24
321.853	-3.18
322.066	-1.48
322.28	-5.1
322.494	-7.31
322.707	-6.42
322.921	8.3
323.135	13.89
323.349	25.44
323.562	25.22
323.776	23.56
323.989	28.01
324.203	24.51
324.417	15.64
324.63	3.79
324.844	-7.57
325.057	-2.48
325.271	-12.58
325.485	-11.95
325.698	-11.07
325.912	4.99
326.125	15.07
326.339	23.31
326.552	23.74
326.766	31.8
326.979	28.42
327.193	24.85
327.406	16.04
327.619	0.48
327.833	-5.35
328.046	-6.15
328.26	-10.22
328.473	-9.51
328.686	1.73
328.9	-3.25
329.113	6.07
329.326	8.1
329.54	4.58
329.753	10.55
329.966	9.05
330.179	8.52
330.393	13.69
330.606	17.59
330.819	23.65
331.032	30.01
331.246	30.62
331.459	38.79
331.672	38.71
331.885	34.46
332.098	38.29
332.311	26.53
332.525	18.47
332.738	14.44
332.951	11.44
333.164	-0.81
333.377	-11.77
333.59	-14.55
333.803	-0.3
334.016	2.42
334.229	-8.37
334.442	4.63
334.655	30.38
334.868	39.96
335.081	42.9
335.294	32.43
335.507	31.76
335.72	33.41
335.933	29.66
336.146	23.48
336.359	20.5
336.572	11.01
336.785	19.45
336.997	13.46
337.21	23.18
337.423	19.87
337.636	16.95
337.849	18.37
338.062	28.37
338.274	24.97
338.487	22.89
338.7	20.35
338.913	12.26
339.125	5.44
339.338	8.84
339.551	9.68
339.763	11.21
339.976	14.03
340.189	7.74
340.402	12.15
340.614	17.74
340.827	6.39
341.039	2.74
341.252	-0.75
341.465	-10
341.677	-12.21
341.89	-11.87
342.102	-9.01
342.315	7.11
342.527	3.5
342.74	2.04
342.952	17.85
343.165	31.77
343.377	33.64
343.59	28.04
343.802	25.92
344.015	30.75
344.227	27.99
344.44	16.72
344.652	17.03
344.864	19.92
345.077	22.24
345.289	19.91
345.502	12.01
345.714	12.89
345.926	3.32
346.139	2.55
346.351	-7.23
346.563	-6.67
346.775	-18.47
346.988	-14.39
347.2	-0.27
347.412	10.24
347.624	7.8
347.837	13.92
348.049	13.19
348.261	18.64
348.473	17.24
348.685	14.91
348.897	13.25
349.11	12.25
349.322	-1.19
349.534	-8.35
349.746	-1.46
349.958	-2.39
350.17	-8.44
350.382	-7.94
350.594	-9.73
350.806	6.19
351.018	14.1
351.23	10.1
351.442	17.82
351.654	22.32
351.866	24.32
352.078	25.25
352.29	25.67
352.502	25.12
352.714	27.01
352.926	24.26
353.138	21.82
353.35	16.48
353.561	11.81
353.773	11.24
353.985	13.14
354.197	12.11
354.409	14.42
354.621	12.97
354.832	12.41
355.044	23.71
355.256	15.27
355.468	10.69
355.679	16.15
355.891	14.43
356.103	11.42
356.314	13.08
356.526	6.21
356.738	0.54
356.949	5.33
357.161	1.06
357.373	4.04
357.584	10.76
357.796	6.59
358.008	6.17
358.219	18.74
358.431	20.55
358.642	16.08
358.854	10.5
359.065	0.73
359.277	1.51
359.488	-1.14
359.7	-0.81
359.911	-6.07
360.123	-0.76
360.334	-5.58
360.546	-2.85
360.757	6.63
360.969	18.31
361.18	14.91
361.391	15.77
361.603	20.45
361.814	30.23
362.025	30.03
362.237	25.51
362.448	22.13
362.659	19.79
362.871	19.21
363.082	19.79
363.293	19.97
363.504	23.18
363.716	23.85
363.927	18.73
364.138	20.6
364.349	22.32
364.56	16.45
364.772	7.95
364.983	2.7
365.194	-2.63
365.405	-9.57
365.616	-18.93
365.827	-18.95
366.038	-9.9
366.25	-3.5
366.461	-1.94
366.672	-4.49
366.883	5.36
367.094	3.01
367.305	1.71
367.516	-3.2
367.727	-3.36
367.938	0.45
368.149	3.13
368.36	6.17
368.571	12.36
368.781	9.95
368.992	7.37
369.203	9.51
369.414	2.23
369.625	4.66
369.836	-1.6
370.047	-0.71
370.258	2.54
370.468	0.45
370.679	-0.5
370.89	6.92
371.101	8.62
371.312	8.13
371.522	7.92
371.733	-2.94
371.944	10.01
372.155	-0.62
372.365	-2.7
372.576	-3.42
372.787	-3.85
372.997	-3.84
373.208	4.31
373.419	0.19
373.629	14.73
373.84	11.09
374.05	10.77
374.261	9.13
374.472	8.03
374.682	9.33
374.893	5.79
375.103	4.56
375.314	3.39
375.524	-0.85
375.735	3.41
375.945	4.17
376.156	9.25
376.366	10.31
376.577	6.08
376.787	14.35
376.997	22.62
377.208	21.67
377.418	20.56
377.629	14.04
377.839	17.54
378.049	23.17
378.26	22.75
378.47	21.28
378.68	20.59
378.89	21.64
379.101	15.7
379.311	8.97
379.521	9.39
379.732	-3.53
379.942	-9.25
380.152	-4.67
380.362	-4.53
380.572	0.4
380.783	1.59
380.993	-2.17
381.203	4.14
381.413	8.92
381.623	11.43
381.833	11.7
382.043	8.22
382.253	4.15
382.463	4.63
382.674	7.49
382.884	6.88
383.094	4.22
383.304	4.12
383.514	10.74
383.724	12.69
383.934	10.37
384.144	11.85
384.353	11.76
384.563	8.72
384.773	10.21
384.983	7.18
385.193	9.78
385.403	12.49
385.613	6.15
385.823	2.6
386.033	5.58
386.242	0.96
386.452	2.71
386.662	3.35
386.872	1.25
387.082	1.39
387.291	5.99
387.501	4.25
387.711	6.07
387.921	7.36
388.13	5.26
388.34	6.59
388.55	9.03
388.759	7.3
388.969	4.81
389.179	6.65
389.388	3.77
389.598	3.51
389.807	3.14
390.017	3.14
390.227	2.91
390.436	2.18
390.646	1.41
390.855	0.78
391.065	1.88
391.274	-0.23
391.484	0.29
391.693	1.69
391.903	3.85
392.112	3.16
392.322	5.38
392.531	4.3
392.74	4.24
392.95	4.03
393.159	3.75
393.369	3.32
393.578	4.22
393.787	3.04
393.997	4.47
394.206	4.57
394.415	4.43
394.625	3.38
394.834	3.44
395.043	4.12
395.252	4.72
395.462	4.25
395.671	4.86
395.88	4.63
396.089	4.99
396.298	4.79
396.508	3.88
396.717	3.38
396.926	2.79
397.135	2.79
397.344	2.45
397.553	2.57
397.762	2.65
397.971	2.55
398.181	2.47
398.39	2.96
398.599	2.97
398.808	3.75
399.017	3.95
399.226	4.03
399.435	4.19
399.644	4.27
399.853	4
400.062	3.83
400.27	3.63
400.479	3.38
400.688	3.35
400.897	3.39
401.106	3.54
401.315	3.44
401.524	3.57
401.733	3.54
401.941	3.46
402.15	3.23
402.359	3.14
402.568	2.98
402.777	3.01
402.985	2.78
403.194	2.69
403.403	2.45
403.612	2.48
403.82	2.57
404.029	2.58
404.238	2.62
404.446	2.69
404.655	2.58
404.864	2.76
405.072	2.83
405.281	2.66
405.489	2.69
405.698	2.57
405.906	2.43
406.115	2.62
406.324	2.48
406.532	2.47
406.741	2.49
406.949	2.44
407.158	2.58
407.366	2.74
407.574	2.71
407.783	2.77
407.991	2.67
408.2	2.66
408.408	2.63
408.617	2.54
408.825	2.55
409.033	2.52
409.242	2.5
409.45	2.56
409.658	2.54
409.867	2.58
410.075	2.62
410.283	2.54
410.491	2.45
410.7	2.5
410.908	2.52
411.116	2.42
411.324	2.48
411.533	2.37
411.741	2.34
411.949	2.4
412.157	2.38
412.365	2.33
412.573	2.42
412.781	2.3
412.99	2.4
413.198	2.46
413.406	2.43
413.614	2.44
413.822	2.39
414.03	2.35
414.238	2.38
414.446	2.27
414.654	2.21
414.862	2.2
415.07	2.27
415.278	2.28
415.486	2.36
415.694	2.31
415.902	2.31
416.109	2.3
416.317	2.23
416.525	2.14
416.733	2.17
416.941	1.99
417.149	2.09
417.357	2.13
417.564	2.16
417.772	2.15
417.98	2.17
418.188	2.07
418.395	2.18
418.603	2.06
418.811	2.02
419.019	2.03
419.226	2.22
419.434	2.07
419.642	2.1
419.849	2.12
420.057	2.21
420.265	2.21
420.472	2.11
420.68	1.98
420.887	2.06
421.095	2.12
421.302	2.17
421.51	2.19
421.717	2.22
421.925	2.18
422.132	2.15
422.34	2.13
422.547	2.09
422.755	2.03
422.962	1.92
423.17	1.84
423.377	2.01
423.585	2.07
423.792	2.05
423.999	1.99
424.207	1.86
424.414	1.91
424.621	2.06
424.829	1.99
425.036	1.93
425.243	2.04
425.451	2.04
425.658	2.18
425.865	2.08
426.072	2.02
426.28	2.03
426.487	2.03
426.694	1.96
426.901	1.92
427.108	1.9
427.315	1.88
427.523	1.82
427.73	1.77
427.937	1.83
428.144	1.88
428.351	2.1
428.558	2.09
428.765	2.09
428.972	2.11
429.179	2.09
429.386	2.07
429.593	1.98
429.8	1.87
430.007	1.88
430.214	1.98
430.421	1.89
430.628	1.78
430.835	1.71
431.042	1.77
431.249	1.75
431.456	1.76
431.662	1.68
431.869	1.84
432.076	2
432.283	1.99
432.49	1.96
432.697	1.95
432.903	1.98
433.11	2.07
433.317	2.03
433.524	1.99
433.73	2.06
433.937	2.05
434.144	2.15
434.35	2.11
434.557	2.06
434.764	2.07
434.97	2.14
435.177	2.1
435.384	2.21
435.59	2.16
435.797	2.17
436.003	2.19
436.21	2.1
436.416	2.04
436.623	2.12
436.829	2.07
437.036	2.06
437.242	2.03
437.449	2.06
437.655	2.06
437.862	2.11
438.068	2.1
438.275	2.1
438.481	2.17
438.687	2.23
438.894	2.2
439.1	2.31
439.307	2.24
439.513	2.22
439.719	2.28
439.926	2.25
440.132	2.25
440.338	2.31
440.544	2.27
440.751	2.3
440.957	2.3
441.163	2.33
441.369	2.32
441.575	2.33
441.782	2.28
441.988	2.29
442.194	2.35
442.4	2.34
442.606	2.29
442.812	2.34
443.018	2.34
443.224	2.34
443.431	2.33
443.637	2.28
443.843	2.3
444.049	2.3
444.255	2.25
444.461	2.3
444.667	2.32
444.873	2.33
445.079	2.35
445.284	2.32
445.49	2.28
445.696	2.31
445.902	2.32
446.108	2.32
446.314	2.41
446.52	2.46
446.726	2.51
446.931	2.57
447.137	2.55
447.343	2.52
447.549	2.49
447.755	2.43
447.96	2.35
448.166	2.4
448.372	2.35
448.578	2.41
448.783	2.37
448.989	2.42
449.195	2.43
449.4	2.46
449.606	2.38
449.812	2.47
450.017	2.4
450.223	2.43
450.428	2.41
450.634	2.42
450.84	2.47
451.045	2.51
451.251	2.51
451.456	2.53
451.662	2.52
451.867	2.55
452.073	2.55
452.278	2.5
452.483	2.47
452.689	2.45
452.894	2.42
453.1	2.41
453.305	2.4
453.51	2.38
453.716	2.4
453.921	2.38
454.127	2.35
454.332	2.37
454.537	2.42
454.742	2.4
454.948	2.41
455.153	2.4
455.358	2.48
455.563	2.53
455.769	2.54
455.974	2.48
456.179	2.41
456.384	2.42
456.589	2.46
456.795	2.39
457	2.38
457.205	2.34
457.41	2.39
457.615	2.43
457.82	2.51
458.025	2.48
458.23	2.49
458.435	2.46
458.64	2.54
458.845	2.52
459.05	2.56
459.255	2.48
459.46	2.49
459.665	2.56
459.87	2.57
460.075	2.56
460.28	2.62
460.485	2.66
460.69	2.62
460.895	2.63
461.099	2.61
461.304	2.64
461.509	2.56
461.714	2.54
461.919	2.51
462.123	2.6
462.328	2.61
462.533	2.55
462.738	2.58
462.942	2.71
463.147	2.71
463.352	2.74
463.556	2.73
463.761	2.76
463.966	2.83
464.17	2.84
464.375	2.76
464.58	2.73
464.784	2.73
464.989	2.72
465.193	2.78
465.398	2.79
465.602	2.76
465.807	2.77
466.011	2.8
466.216	2.79
466.42	2.82
466.625	2.78
466.829	2.77
467.034	2.83
467.238	2.89
467.443	2.9
467.647	2.92
467.851	2.9
468.056	2.86
468.26	2.85
468.464	2.83
468.669	2.82
468.873	2.82
469.077	2.83
469.282	2.89
469.486	2.98
469.69	3.01
469.894	3.1
470.099	3.16
470.303	3.18
470.507	3.18
470.711	3.15
470.915	3.14
471.119	3.15
471.324	3.08
471.528	3.08
471.732	3.1
471.936	3.14
472.14	3.12
472.344	3.12
472.548	3.17
472.752	3.21
472.956	3.21
473.16	3.21
473.364	3.19
473.568	3.3
473.772	3.34
473.976	3.33
474.18	3.27
474.384	3.25
474.588	3.26
474.792	3.28
474.995	3.2
475.199	3.18
475.403	3.18
475.607	3.25
475.811	3.31
476.015	3.32
476.218	3.34
476.422	3.41
476.626	3.38
476.83	3.38
477.033	3.38
477.237	3.36
477.441	3.4
477.644	3.39
477.848	3.4
478.052	3.46
478.255	3.47
478.459	3.52
478.663	3.55
478.866	3.52
479.07	3.57
479.273	3.55
479.477	3.58
479.681	3.6
479.884	3.55
480.088	3.58
480.291	3.64
480.495	3.64
480.698	3.64
480.901	3.62
481.105	3.66
481.308	3.69
481.512	3.66
481.715	3.68
481.919	3.7
482.122	3.72
482.325	3.71
482.529	3.76
482.732	3.76
482.935	3.81
483.138	3.81
483.342	3.81
483.545	3.81
483.748	3.87
483.952	3.83
484.155	3.88
484.358	3.85
484.561	3.84
484.764	3.86
484.967	3.89
485.171	3.85
485.374	3.86
485.577	3.83
485.78	3.85
485.983	3.84
486.186	3.83
486.389	3.78
486.592	3.84
486.795	3.81
486.998	3.8
487.201	3.8
487.404	3.86
487.607	3.84
487.81	3.9
488.013	3.89
488.216	3.9
488.419	3.92
488.622	3.91
488.825	3.88
489.028	3.88
489.231	3.9
489.433	3.89
489.636	3.87
489.839	3.88
490.042	3.89
490.245	3.89
490.447	3.91
490.65	3.89
490.853	3.91
491.056	3.97
491.258	3.99
491.461	3.99
491.664	3.98
491.866	4.02
492.069	3.98
492.272	3.96
492.474	3.94
492.677	3.91
492.879	3.91
493.082	3.93
493.285	3.89
493.487	3.88
493.69	3.86
493.892	3.89
494.095	3.9
494.297	3.91
494.5	3.95
494.702	3.97
494.905	3.99
495.107	4.06
495.309	4.02
495.512	4.05
495.714	4.06
495.917	4.04
496.119	4.07
496.321	4.11
496.524	4.07
496.726	4.09
496.928	4.11
497.13	4.15
497.333	4.18
497.535	4.16
497.737	4.16
497.939	4.22
498.142	4.24
498.344	4.22
498.546	4.24
498.748	4.23
498.95	4.27
499.152	4.25
499.355	4.21
499.557	4.26
499.759	4.3
499.961	4.3
500.163	4.35
500.365	4.33
500.567	4.35
500.769	4.42
500.971	4.41
501.173	4.42
501.375	4.44
501.577	4.45
501.779	4.5
501.981	4.52
502.183	4.49
502.385	4.51
502.587	4.52
502.788	4.51
502.99	4.52
503.192	4.53
503.394	4.54
503.596	4.55
503.798	4.62
503.999	4.6
504.201	4.62
504.403	4.65
504.605	4.66
504.806	4.71
505.008	4.75
505.21	4.71
505.411	4.75
505.613	4.75
505.815	4.75
506.016	4.78
506.218	4.81
506.42	4.85
506.621	4.9
506.823	4.96
507.024	4.97
507.226	4.97
507.427	4.96
507.629	4.97
507.83	4.93
508.032	4.98
508.233	4.99
508.435	5.06
508.636	5.08
508.838	5.13
509.039	5.12
509.24	5.17
509.442	5.13
509.643	5.09
509.845	5.09
510.046	5.15
510.247	5.17
510.448	5.2
510.65	5.25
510.851	5.3
511.052	5.38
511.254	5.4
511.455	5.37
511.656	5.34
511.857	5.35
512.058	5.38
512.26	5.36
512.461	5.36
512.662	5.34
512.863	5.35
513.064	5.38
513.265	5.44
513.466	5.46
513.667	5.51
513.868	5.5
514.069	5.54
514.27	5.58
514.471	5.63
514.672	5.63
514.873	5.68
515.074	5.66
515.275	5.69
515.476	5.69
515.677	5.71
515.878	5.71
516.079	5.73
516.28	5.69
516.481	5.68
516.682	5.71
516.882	5.71
517.083	5.71
517.284	5.69
517.485	5.71
517.686	5.73
517.886	5.77
518.087	5.77
518.288	5.82
518.488	5.86
518.689	5.87
518.89	5.89
519.091	5.92
519.291	5.92
519.492	5.95
519.692	5.99
519.893	6
520.094	6.02
520.294	6.01
520.495	6.03
520.695	6.06
520.896	6.08
521.096	6.07
521.297	6.06
521.497	6.09
521.698	6.11
521.898	6.12
522.099	6.13
522.299	6.13
522.499	6.13
522.7	6.17
522.9	6.15
523.101	6.16
523.301	6.18
523.501	6.2
523.702	6.23
523.902	6.22
524.102	6.23
524.302	6.25
524.503	6.25
524.703	6.28
524.903	6.31
525.103	6.32
525.304	6.34
525.504	6.35
525.704	6.38
525.904	6.42
526.104	6.42
526.304	6.41
526.504	6.43
526.705	6.5
526.905	6.5
527.105	6.52
527.305	6.5
527.505	6.51
527.705	6.53
527.905	6.52
528.105	6.49
528.305	6.51
528.505	6.49
528.705	6.53
528.905	6.53
529.105	6.55
529.304	6.6
529.504	6.6
529.704	6.6
529.904	6.67
530.104	6.67
530.304	6.71
530.503	6.69
530.703	6.73
530.903	6.77
531.103	6.79
531.303	6.79
531.502	6.78
531.702	6.76
531.902	6.8
532.101	6.77
532.301	6.75
532.501	6.75
532.7	6.74
532.9	6.79
533.1	6.81
533.299	6.87
533.499	6.89
533.698	6.93
533.898	6.97
534.097	7.01
534.297	7.02
534.496	7.03
534.696	6.99
534.895	7.04
535.095	7.05
535.294	7.07
535.494	7.08
535.693	7.13
535.892	7.16
536.092	7.19
536.291	7.19
536.491	7.22
536.69	7.26
536.889	7.25
537.088	7.26
537.288	7.31
537.487	7.32
537.686	7.37
537.886	7.38
538.085	7.42
538.284	7.45
538.483	7.47
538.682	7.51
538.882	7.56
539.081	7.6
539.28	7.63
539.479	7.64
539.678	7.71
539.877	7.73
540.076	7.75
540.275	7.78
540.474	7.79
540.673	7.84
540.872	7.89
541.071	7.9
541.27	7.89
541.469	7.92
541.668	7.97
541.867	8.01
542.066	8.06
542.265	8.1
542.464	8.15
542.663	8.25
542.862	8.31
543.06	8.32
543.259	8.35
543.458	8.35
543.657	8.41
543.856	8.42
544.054	8.46
544.253	8.45
544.452	8.49
544.651	8.54
544.849	8.56
545.048	8.54
545.247	8.56
545.445	8.56
545.644	8.6
545.843	8.64
546.041	8.69
546.24	8.78
546.438	8.88
546.637	8.99
546.836	9.08
547.034	9.12
547.233	9.19
547.431	9.21
547.63	9.24
547.828	9.26
548.027	9.27
548.225	9.32
548.423	9.42
548.622	9.45
548.82	9.51
549.019	9.58
549.217	9.66
549.415	9.73
549.614	9.75
549.812	9.76
550.01	9.85
550.209	9.92
550.407	9.96
550.605	10
550.803	10.03
551.002	10.11
551.2	10.23
551.398	10.27
551.596	10.35
551.794	10.44
551.993	10.44
552.191	10.58
552.389	10.66
552.587	10.68
552.785	10.75
552.983	10.82
553.181	10.85
553.379	10.99
553.577	11.09
553.775	11.13
553.973	11.24
554.171	11.32
554.369	11.35
554.567	11.46
554.765	11.5
554.963	11.5
555.161	11.6
555.359	11.65
555.557	11.76
555.755	11.89
555.952	11.98
556.15	12.08
556.348	12.2
556.546	12.3
556.744	12.4
556.941	12.48
557.139	12.55
557.337	12.63
557.535	12.77
557.732	12.87
557.93	12.95
558.128	13.01
558.325	13.13
558.523	13.18
558.721	13.3
558.918	13.34
559.116	13.38
559.313	13.48
559.511	13.56
559.708	13.64
559.906	13.75
560.104	13.85
560.301	13.98
560.498	14.09
560.696	14.15
560.893	14.31
561.091	14.41
561.288	14.53
561.486	14.57
561.683	14.66
561.88	14.79
562.078	14.9
562.275	14.99
562.473	15.07
562.67	15.15
562.867	15.3
563.064	15.4
563.262	15.51
563.459	15.62
563.656	15.73
563.853	15.82
564.051	15.91
564.248	15.98
564.445	16.05
564.642	16.13
564.839	16.28
565.036	16.37
565.234	16.49
565.431	16.6
565.628	16.73
565.825	16.87
566.022	16.93
566.219	16.94
566.416	17
566.613	17.11
566.81	17.12
567.007	17.15
567.204	17.21
567.401	17.28
567.598	17.35
567.795	17.4
567.991	17.49
568.188	17.56
568.385	17.67
568.582	17.73
568.779	17.82
568.976	17.91
569.172	18.02
569.369	18.03
569.566	18.09
569.763	18.14
569.96	18.18
570.156	18.22
570.353	18.26
570.55	18.3
570.746	18.36
570.943	18.44
571.14	18.52
571.336	18.57
571.533	18.62
571.729	18.69
571.926	18.69
572.123	18.74
572.319	18.75
572.516	18.74
572.712	18.81
572.909	18.89
573.105	18.91
573.302	18.97
573.498	18.98
573.695	19.05
573.891	19.06
574.087	19.08
574.284	19.02
574.48	19
574.677	19.03
574.873	19.1
575.069	19.14
575.266	19.18
575.462	19.23
575.658	19.3
575.854	19.36
576.051	19.39
576.247	19.35
576.443	19.36
576.639	19.35
576.835	19.32
577.032	19.32
577.228	19.36
577.424	19.36
577.62	19.41
577.816	19.4
578.012	19.41
578.208	19.42
578.404	19.44
578.6	19.38
578.796	19.37
578.993	19.3
579.189	19.26
579.384	19.27
579.58	19.27
579.776	19.22
579.972	19.24
580.168	19.22
580.364	19.26
580.56	19.26
580.756	19.18
580.952	19.16
581.148	19.17
581.343	19.15
581.539	19.16
581.735	19.14
581.931	19.16
582.127	19.21
582.322	19.21
582.518	19.16
582.714	19.12
582.909	19.03
583.105	18.98
583.301	18.94
583.496	18.9
583.692	18.86
583.888	18.85
584.083	18.85
584.279	18.92
584.474	18.92
584.67	18.89
584.866	18.91
585.061	18.91
585.257	18.95
585.452	18.93
585.648	18.88
585.843	18.88
586.039	18.9
586.234	18.89
586.429	18.87
586.625	18.82
586.82	18.78
587.015	18.81
587.211	18.86
587.406	18.89
587.601	18.88
587.797	18.85
587.992	18.85
588.187	18.92
588.383	18.9
588.578	18.81
588.773	18.76
588.968	18.85
589.163	18.91
589.359	18.92
589.554	18.88
589.749	18.92
589.944	19.01
590.139	19.05
590.334	18.96
590.529	19.01
590.724	19.07
590.919	19.18
591.114	19.17
591.309	19.15
591.504	19.17
591.699	19.24
591.894	19.25
592.089	19.28
592.284	19.22
592.479	19.28
592.674	19.31
592.869	19.37
593.064	19.41
593.259	19.44
593.454	19.45
593.648	19.48
593.843	19.5
594.038	19.56
594.233	19.63
594.428	19.71
594.622	19.75
594.817	19.85
595.012	20
595.206	20.06
595.401	20.06
595.596	20.15
595.79	20.14
595.985	20.2
596.18	20.27
596.374	20.34
596.569	20.43
596.763	20.62
596.958	20.67
597.153	20.8
597.347	20.92
597.542	20.99
597.736	21.06
597.931	21.16
598.125	21.18
598.319	21.22
598.514	21.28
598.708	21.3
598.903	21.35
599.097	21.36
599.291	21.37
599.486	21.41
599.68	21.46
599.874	21.53
600.069	21.62
600.263	21.64
600.457	21.69
600.651	21.77
600.846	21.83
601.04	21.86
601.234	21.9
601.428	21.88
601.622	21.89
601.817	21.99
602.011	21.99
602.205	22.04
602.399	22.07
602.593	22.06
602.787	22.1
602.981	22.14
603.175	22.11
603.369	22.14
603.563	22.12
603.757	22.05
603.951	22.01
604.145	22.03
604.339	22.04
604.533	22.04
604.727	22.05
604.921	22.05
605.115	22.07
605.309	22.06
605.502	22.07
605.696	22.01
605.89	22.02
606.084	21.91
606.278	21.84
606.471	21.82
606.665	21.77
606.859	21.67
607.053	21.65
607.246	21.56
607.44	21.55
607.634	21.49
607.827	21.39
608.021	21.37
608.214	21.35
608.408	21.29
608.602	21.18
608.795	21.1
608.989	21.07
609.182	21.1
609.376	21
609.569	20.9
609.763	20.85
609.956	20.81
610.15	20.76
610.343	20.67
610.537	20.6
610.73	20.54
610.923	20.49
611.117	20.37
611.31	20.31
611.504	20.27
611.697	20.21
611.89	20.12
612.083	20.07
612.277	19.98
612.47	19.92
612.663	19.87
612.856	19.78
613.05	19.71
613.243	19.62
613.436	19.53
613.629	19.48
613.822	19.4
614.015	19.35
614.209	19.32
614.402	19.25
614.595	19.13
614.788	19.05
614.981	18.96
615.174	18.85
615.367	18.72
615.56	18.58
615.753	18.48
615.946	18.47
616.139	18.46
616.332	18.4
616.525	18.39
616.718	18.34
616.911	18.36
617.103	18.3
617.296	18.26
617.489	18.14
617.682	18.13
617.875	18.02
618.067	17.95
618.26	17.88
618.453	17.85
618.646	17.79
618.838	17.77
619.031	17.72
619.224	17.76
619.417	17.78
619.609	17.75
619.802	17.71
619.994	17.7
620.187	17.68
620.38	17.66
620.572	17.6
620.765	17.51
620.957	17.44
621.15	17.36
621.342	17.34
621.535	17.3
621.727	17.19
621.92	17.18
622.112	17.2
622.305	17.19
622.497	17.18
622.69	17.16
622.882	17.16
623.074	17.23
623.267	17.19
623.459	17.16
623.651	17.15
623.844	17.16
624.036	17.14
624.228	17.09
624.42	17.04
624.613	17.02
624.805	17.01
624.997	16.95
625.189	16.94
625.381	16.85
625.574	16.78
625.766	16.76
625.958	16.72
626.15	16.75
626.342	16.78
626.534	16.73
626.726	16.8
626.918	16.8
627.11	16.8
627.302	16.77
627.494	16.7
627.686	16.62
627.878	16.57
628.07	16.5
628.262	16.46
628.454	16.41
628.646	16.35
628.838	16.28
629.029	16.21
629.221	16.18
629.413	16.09
629.605	16.08
629.797	16.01
629.989	16.01
630.18	15.97
630.372	15.97
630.564	15.95
630.755	15.94
630.947	15.82
631.139	15.77
631.33	15.72
631.522	15.7
631.714	15.68
631.905	15.62
632.097	15.62
632.289	15.68
632.48	15.67
632.672	15.59
632.863	15.59
633.055	15.57
633.246	15.54
633.438	15.5
633.629	15.55
633.821	15.52
634.012	15.54
634.203	15.51
634.395	15.52
634.586	15.49
634.777	15.48
634.969	15.43
635.16	15.4
635.351	15.39
635.543	15.38
635.734	15.36
635.925	15.38
636.117	15.42
636.308	15.39
636.499	15.35
636.69	15.39
636.881	15.41
637.073	15.35
637.264	15.3
637.455	15.29
637.646	15.31
637.837	15.32
638.028	15.32
638.219	15.27
638.41	15.31
638.601	15.34
638.792	15.24
638.983	15.15
639.174	15.17
639.365	15.1
639.556	15.09
639.747	15.07
639.938	15.06
640.129	15.06
640.32	15.09
640.511	15.06
640.701	15.04
640.892	14.99
641.083	14.98
641.274	14.89
641.465	14.87
641.655	14.82
641.846	14.78
642.037	14.76
642.228	14.78
642.418	14.73
642.609	14.72
642.8	14.71
642.99	14.69
643.181	14.71
643.372	14.64
643.562	14.59
643.753	14.55
643.943	14.53
644.134	14.46
644.324	14.42
644.515	14.35
644.705	14.36
644.896	14.33
645.086	14.29
645.277	14.31
645.467	14.32
645.658	14.31
645.848	14.31
646.038	14.32
646.229	14.32
646.419	14.34
646.61	14.31
646.8	14.29
646.99	14.26
647.18	14.23
647.371	14.18
647.561	14.13
647.751	14.08
647.941	14.01
648.132	13.99
648.322	14.01
648.512	14.02
648.702	13.98
648.892	14
649.082	13.98
649.272	13.94
649.462	13.91
649.653	13.86
649.843	13.76
650.033	13.74
650.223	13.75
650.413	13.75
650.603	13.79
650.793	13.67
650.983	13.66
651.172	13.67
651.362	13.63
651.552	13.5
651.742	13.43
651.932	13.36
652.122	13.4
652.312	13.3
652.502	13.21
652.691	13.15
652.881	13.12
653.071	13.05
653.261	12.99
653.45	12.9
653.64	12.87
653.83	12.81
654.019	12.71
654.209	12.58
654.399	12.52
654.588	12.4
654.778	12.31
654.968	12.17
655.157	12.03
655.347	11.91
655.536	11.81
655.726	11.71
655.915	11.63
656.105	11.54
656.294	11.46
656.484	11.37
656.673	11.28
656.863	11.16
657.052	10.98
657.241	10.8
657.431	10.58
657.62	10.38
657.809	10.27
657.999	10.12
658.188	9.96
658.377	9.88
658.567	9.76
658.756	9.63
658.945	9.47
659.134	9.31
659.324	9.2
659.513	9.07
659.702	8.92
659.891	8.76
660.08	8.66
660.269	8.61
660.458	8.5
660.648	8.33
660.837	8.23
661.026	8.11
661.215	8.05
661.404	7.97
661.593	7.82
661.782	7.69
661.971	7.6
662.16	7.48
662.349	7.37
662.538	7.22
662.726	7.1
662.915	7.01
663.104	6.87
663.293	6.72
663.482	6.6
663.671	6.51
663.86	6.44
664.048	6.36
664.237	6.26
664.426	6.24
664.615	6.22
664.803	6.13
664.992	6.14
665.181	6.09
665.369	5.98
665.558	5.94
665.747	5.92
665.935	5.89
666.124	5.9
666.312	5.74
666.501	5.67
666.69	5.65
666.878	5.61
667.067	5.53
667.255	5.47
667.444	5.42
667.632	5.39
667.82	5.38
668.009	5.42
668.197	5.4
668.386	5.36
668.574	5.35
668.762	5.29
668.951	5.3
669.139	5.34
669.327	5.26
669.516	5.31
669.704	5.34
669.892	5.35
670.08	5.37
670.269	5.43
670.457	5.37
670.645	5.44
670.833	5.42
671.021	5.41
671.21	5.42
671.398	5.42
671.586	5.38
671.774	5.41
671.962	5.37
672.15	5.34
672.338	5.44
672.526	5.51
672.714	5.56
672.902	5.59
673.09	5.65
673.278	5.72
673.466	5.85
673.654	5.82
673.842	5.86
674.03	5.92
674.218	5.94
674.405	5.97
674.593	5.98
674.781	5.99
674.969	6.07
675.157	6.09
675.344	6.15
675.532	6.27
675.72	6.28
675.908	6.36
676.095	6.45
676.283	6.46
676.471	6.51
676.658	6.63
676.846	6.7
677.033	6.87
677.221	6.91
677.409	6.92
677.596	7.06
677.784	7.12
677.971	7.12
678.159	7.16
678.346	7.15
678.534	7.31
678.721	7.34
678.909	7.38
679.096	7.46
679.283	7.55
679.471	7.68
679.658	7.75
679.846	7.77
680.033	7.95
680.22	7.98
680.408	8.02
680.595	8.08
680.782	8.14
680.969	8.29
681.157	8.4
681.344	8.51
681.531	8.61
681.718	8.81
681.905	8.95
682.093	9.15
682.28	9.3
682.467	9.45
682.654	9.5
682.841	9.72
683.028	9.87
683.215	10.05
683.402	10.06
683.589	10.23
683.776	10.38
683.963	10.53
684.15	10.66
684.337	10.74
684.524	10.96
684.711	11.2
684.898	11.38
685.085	11.6
685.271	11.91
685.458	12.18
685.645	12.46
685.832	12.7
686.019	12.97
686.205	13.16
686.392	13.41
686.579	13.62
686.766	13.89
686.952	14.32
687.139	14.58
687.326	14.93
687.512	15.32
687.699	15.63
687.886	15.95
688.072	16.37
688.259	16.71
688.445	17.07
688.632	17.53
688.818	17.91
689.005	18.51
689.191	18.96
689.378	19.36
689.564	19.71
689.751	20.29
689.937	20.67
690.124	21.18
690.31	21.58
690.496	22.08
690.683	22.64
690.869	23.32
691.055	23.88
691.242	24.48
691.428	25.11
691.614	25.76
691.8	26.41
691.987	27.09
692.173	27.73
692.359	28.36
692.545	29.06
692.731	29.73
692.918	30.29
693.104	30.95
693.29	31.52
693.476	32.06
693.662	32.63
693.848	33.13
694.034	33.67
694.22	34.38
694.406	35.07
694.592	35.79
694.778	36.46
694.964	37.11
695.15	37.86
695.336	38.71
695.522	39.45
695.708	40.12
695.894	40.71
696.08	41.39
696.265	42.12
696.451	42.91
696.637	43.45
696.823	44.08
697.009	44.67
697.194	45.49
697.38	46.11
697.566	46.72
697.751	47.27
697.937	47.83
698.123	48.45
698.308	49.12
698.494	49.73
698.68	50.38
698.865	51.06
699.051	51.5
699.236	52.17
699.422	52.67
699.607	53.13
699.793	53.51
699.978	54.01
700.164	54.49
700.349	54.95
700.535	55.47
700.72	55.97
700.906	56.48
701.091	57.04
701.276	57.57
701.462	57.99
701.647	58.55
701.832	59.02
702.018	59.41
702.203	59.94
702.388	60.25
702.573	60.65
702.759	61.04
702.944	61.49
703.129	61.83
703.314	62.23
703.499	62.57
703.684	63.1
703.87	63.36
704.055	63.78
704.24	64.3
704.425	64.62
704.61	65.02
704.795	65.4
704.98	65.66
705.165	66.11
705.35	66.54
705.535	66.71
705.72	66.96
705.905	67.27
706.09	67.46
706.275	67.64
706.459	68.12
706.644	68.33
706.829	68.59
707.014	68.95
707.199	69.04
707.384	69.48
707.568	69.72
707.753	69.95
707.938	69.91
708.123	70.07
708.307	70.44
708.492	70.68
708.677	70.74
708.861	70.85
709.046	70.66
709.231	71.07
709.415	71.34
709.6	71.25
709.784	71.64
709.969	72.03
710.153	72.77
710.338	73.13
710.522	73.33
710.707	73.3
710.891	73.6
711.076	73.59
711.26	73.68
711.445	73.48
711.629	73.77
711.813	73.78
711.998	74.1
712.182	74.25
712.366	74.82
712.551	74.92
712.735	75.15
712.919	75.34
713.103	75.43
713.288	75.72
713.472	75.88
713.656	75.64
713.84	75.81
714.024	75.73
714.208	75.52
714.393	75.97
714.577	75.91
714.761	76.04
714.945	76.24
715.129	76.31
715.313	76.56
715.497	76.97
715.681	77.08
715.865	77.15
716.049	77.26
716.233	77.53
716.417	77.87
716.601	77.9
716.785	77.98
716.968	77.78
717.152	77.91
717.336	77.83
717.52	77.94
717.704	77.81
717.888	78.07
718.071	78.06
718.255	78.18
718.439	78.15
718.622	78.69
718.806	78.45
718.99	78.56
719.174	78.39
719.357	78.49
719.541	78.84
719.724	79.05
719.908	78.87
720.092	79.07
720.275	79.11
720.459	79.28
720.642	79.37
720.826	79.17
721.009	79.26
721.193	79.35
721.376	79.52
721.559	79.43
721.743	79.56
721.926	79.58
722.11	79.9
722.293	79.76
722.476	79.56
722.66	79.53
722.843	79.82
723.026	79.84
723.21	80.1
723.393	80.3
723.576	80.39
723.759	80.74
723.942	80.91
724.126	80.88
724.309	80.85
724.492	80.75
724.675	80.47
724.858	80.7
725.041	80.62
725.224	80.64
725.407	80.47
725.59	80.63
725.774	80.77
725.957	80.93
726.14	81.14
726.322	81.32
726.505	81.68
726.688	81.96
726.871	81.94
727.054	82.18
727.237	81.93
727.42	81.94
727.603	81.96
727.786	82.09
727.968	82.52
728.151	82.96
728.334	82.67
728.517	83.25
728.699	83.69
728.882	84.07
729.065	83.74
729.248	83.26
729.43	83.31
729.613	83.62
729.796	83.26
729.978	82.87
730.161	82.96
730.343	83.21
730.526	83.59
730.708	83.6
730.891	83.75
731.073	84.2
731.256	84.27
731.438	84.27
731.621	84.32
731.803	84.29
731.986	84.12
732.168	83.95
732.35	84.04
732.533	84.47
732.715	84.45
732.898	84.29
733.08	84.49
733.262	84.55
733.444	84.8
733.627	84.7
733.809	84.6
733.991	84.68
734.173	84.56
734.355	84.8
734.538	84.99
734.72	85.11
734.902	85.3
735.084	85.02
735.266	84.83
735.448	85.11
735.63	85.01
735.812	85.45
735.994	85.02
736.176	85.11
736.358	85.61
736.54	85.34
736.722	84.99
736.904	85.17
737.086	84.97
737.268	85.18
737.45	85.01
737.632	84.46
737.814	84.89
737.995	85.71
738.177	85.7
738.359	86.03
738.541	85.74
738.723	86.02
738.904	86.01
739.086	86.3
739.268	86.44
739.449	86.14
739.631	86
739.813	86.16
739.994	86.3
740.176	86.68
740.358	86.85
740.539	86.46
740.721	86.64
740.902	86.23
741.084	86.64
741.265	86.69
741.447	86.4
741.628	85.71
741.81	85.48
741.991	85.47
742.172	85.71
742.354	86.09
742.535	85.89
742.717	85.78
742.898	86.48
743.079	86.86
743.261	87.17
743.442	86.98
743.623	86.99
743.804	86.84
743.986	86.91
744.167	86.54
744.348	86.84
744.529	86.49
744.71	86.03
744.891	85.47
745.073	85.58
745.254	85.93
745.435	85.48
745.616	84.66
745.797	84.43
745.978	85.36
746.159	84.98
746.34	85.16
746.521	85.39
746.702	85.03
746.883	85.06
747.064	85.55
747.245	85.58
747.426	86.3
747.606	86.23
747.787	86.33
747.968	87.62
748.149	88.01
748.33	88
748.51	87.29
748.691	86.97
748.872	87.36
749.053	86.93
749.233	86.21
749.414	86.58
749.595	85.58
749.775	85.78
749.956	85.36
750.137	84.66
750.317	84.44
750.498	84.89
750.678	84.7
750.859	85.38
751.04	85.36
751.22	85.1
751.4	85.51
751.581	85.77
751.761	85.62
751.942	85.19
752.122	85.16
752.303	85.15
752.483	86.28
752.663	85.97
752.844	85.71
753.024	86.04
753.204	85.76
753.385	85.56
753.565	85.19
753.745	85.07
753.925	84.42
754.106	84.58
754.286	84.18
754.466	84.09
754.646	84.1
754.826	84.55
755.006	82.91
755.187	83.18
755.367	82.86
755.547	82.95
755.727	82.97
755.907	83.27
756.087	83.13
756.267	83.35
756.447	83.79
756.627	84.18
756.807	84.56
756.987	85.46
757.167	85.27
757.346	84.35
757.526	85.31
757.706	84.82
757.886	84.56
758.066	83.91
758.246	83.81
758.425	83.96
758.605	84.61
758.785	84.45
758.965	83.77
759.144	84.1
759.324	84.15
759.504	83.61
759.683	82.88
759.863	82.78
760.043	82.48
760.222	82.64
760.402	82.23
760.581	81.66
760.761	80.89
760.94	80.38
761.12	80.16
761.299	80.13
761.479	80.77
761.658	80.43
761.838	81.09
762.017	81.67
762.197	83.35
762.376	83.71
762.555	84.13
762.735	83.4
762.914	83.9
763.093	83.25
763.273	83.25
763.452	81.83
763.631	80.78
763.81	80.83
763.99	81.33
764.169	81.09
764.348	81.69
764.527	82.12
764.706	83.24
764.885	84.82
765.064	83.72
765.243	83.48
765.423	83.82
765.602	82.86
765.781	81.91
765.96	81.62
766.139	80.35
766.318	81.67
766.497	81.65
766.676	81.77
766.854	81.85
767.033	81.44
767.212	80.43
767.391	82.05
767.57	81.23
767.749	80.98
767.928	80.33
768.106	80.77
768.285	81.89
768.464	82.74
768.643	82.33
768.821	82.85
769	83.54
769.179	82.54
769.357	82.72
769.536	81.84
769.715	80.91
769.893	79.52
770.072	78.8
770.25	78.6
770.429	79.72
770.607	79.85
770.786	80.27
770.964	80.53
771.143	81.23
771.321	81.54
771.5	80.72
771.678	80.81
771.857	79.99
772.035	80.3
772.213	80.37
772.392	80.14
772.57	80.5
772.748	80.08
772.927	79.49
773.105	79.54
773.283	79.04
773.461	78.8
773.64	78.78
773.818	77.83
773.996	77.95
774.174	77.64
774.352	77.97
774.531	77.26
774.709	77.88
774.887	77
775.065	77.34
775.243	78.17
775.421	78.16
775.599	76.16
775.777	77.18
775.955	76.31
776.133	75.78
776.311	74.83
776.489	73.98
776.667	73.99
776.844	75.33
777.022	74.18
777.2	74.59
777.378	76.49
777.556	77.17
777.734	77.85
777.911	79.5
778.089	78.23
778.267	78.07
778.445	76.62
778.622	75.82
778.8	75.99
778.978	75.38
779.155	73.54
779.333	74.08
779.511	75.26
779.688	75.4
779.866	75.17
780.043	74.29
780.221	74.65
780.398	75.16
780.576	75.08
780.753	73.69
780.931	74.83
781.108	75.19
781.286	75.19
781.463	75.17
781.64	74.7
781.818	75.1
781.995	75.96
782.172	76.2
782.35	75.8
782.527	76.87
782.704	76.43
782.882	77.39
783.059	76.38
783.236	76.48
783.413	75.92
783.59	75.27
783.768	74.33
783.945	75.5
784.122	74.55
784.299	74.89
784.476	74.63
784.653	72.98
784.83	71.86
785.007	73.46
785.184	72.68
785.361	72.38
785.538	73.39
785.715	74.05
785.892	74.54
786.069	75.54
786.246	73.25
786.423	72.84
786.6	73.61
786.776	73.33
786.953	72.09
787.13	73.27
787.307	72.62
787.484	73.57
787.66	73.68
787.837	72.62
788.014	71.37
788.191	72.91
788.367	73.48
788.544	74.39
788.721	74.43
788.897	75.57
789.074	75.11
789.25	77.11
789.427	76.71
789.603	77.3
789.78	77.6
789.956	76.93
790.133	76.08
790.309	75.74
790.486	76.85
790.662	76.18
790.839	77.03
791.015	78.15
791.192	78.14
791.368	78.76
791.544	80.44
791.721	78.45
791.897	77.37
792.073	75.21
792.249	75.07
792.426	75.04
792.602	73.09
792.778	73.68
792.954	73.55
793.13	75.16
793.307	73.74
793.483	73.47
793.659	74.48
793.835	74.17
794.011	71.78
794.187	68.83
794.363	68.71
794.539	68.5
794.715	66.24
794.891	64.23
795.067	65.63
795.243	66.12
795.419	70.59
795.595	67.02
795.771	67.74
795.947	67.82
796.122	69.79
796.298	67.66
796.474	69.29
796.65	67.86
796.826	70.78
797.001	71.42
797.177	71.94
797.353	72.96
797.529	74.56
797.704	73.68
797.88	73.08
798.056	73.24
798.231	73.61
798.407	72.55
798.582	71.08
798.758	73.2
798.934	74.01
799.109	73.67
799.285	75.07
799.46	74.67
799.636	74.45
799.811	75.54
799.986	74.57
800.162	73.27
800.337	71.2
800.513	67.22
800.688	69.42
800.863	73.1
801.039	70.12
801.214	68.39
801.389	68.58
801.565	69.78
801.74	69.18
801.915	67.62
802.09	64.47
802.265	65.18
802.441	67.49
802.616	69.34
802.791	70.68
802.966	74.29
803.141	70.03
803.316	71.24
803.491	67.72
803.666	63.68
803.841	61.77
804.016	62.47
804.191	61.05
804.366	62.93
804.541	60.81
804.716	61.77
804.891	68.03
805.066	67.32
805.241	62.92
805.416	63.25
805.591	66.66
805.765	68.65
805.94	74.27
806.115	67.15
806.29	67.82
806.464	69.6
806.639	67.43
806.814	66.09
806.989	64.08
807.163	61.32
807.338	64.96
807.512	60.53
807.687	62.17
807.862	63.55
808.036	61.5
808.211	66.94
808.385	64.68
808.56	63.34
808.734	64.98
808.909	63.49
809.083	65.25
809.258	68.24
809.432	63.14
809.606	65.9
809.781	66.1
809.955	70.9
810.13	73.97
810.304	72.79
810.478	75.21
810.652	79.36
810.827	76.01
811.001	75.71
811.175	69.2
811.349	65.5
811.524	64.8
811.698	61.02
811.872	62.73
812.046	64.85
812.22	65.81
812.394	73.38
812.568	75.97
812.742	77.79
812.916	80.9
813.09	74.42
813.264	74.86
813.438	78.24
813.612	71.5
813.786	69.01
813.96	70.84
814.134	67.45
814.308	70.4
814.482	69.79
814.656	71.62
814.83	73.06
815.003	77.06
815.177	76.48
815.351	78.55
815.525	74.43
815.698	72.23
815.872	66.74
816.046	65.35
816.219	64.39
816.393	57.02
816.567	52.31
816.74	55.89
816.914	60.48
817.088	56.35
817.261	60.14
817.435	53.47
817.608	54.09
817.782	53.66
817.955	50.86
818.129	47.74
818.302	52.15
818.475	53.64
818.649	64.72
818.822	66.41
818.996	69.18
819.169	67.51
819.342	63.16
819.516	64.25
819.689	60.93
819.862	53.64
820.035	53.12
820.209	49.2
820.382	49.2
820.555	54.21
820.728	44.8
820.901	48.09
821.075	56.14
821.248	56.85
821.421	58.13
821.594	62.64
821.767	61.06
821.94	60.74
822.113	59.31
822.286	62.26
822.459	66.38
822.632	68.88
822.805	64.57
822.978	62.53
823.151	69.27
823.324	62.79
823.496	46.98
823.669	45.13
823.842	45.13
824.015	40.13
824.188	41.1
824.361	37.39
824.533	44.36
824.706	61.23
824.879	62.71
825.051	64.32
825.224	64.06
825.397	62.16
825.569	71.29
825.742	68.05
825.915	63.62
826.087	62.17
826.26	60.81
826.432	70.06
826.605	69.7
826.777	60.2
826.95	58.09
827.122	61.47
827.295	67.28
827.467	59.32
827.64	53.97
827.812	52.56
827.984	58.57
828.157	62.76
828.329	59.62
828.501	55.17
828.674	60.76
828.846	61.06
829.018	57.81
829.19	51.45
829.363	55.16
829.535	51.82
829.707	46.7
829.879	47.36
830.051	49.12
830.223	49.25
830.395	43.14
830.568	37.32
830.74	35
830.912	42.26
831.084	41.81
831.256	37.34
831.428	38.77
831.6	44.1
831.772	44.25
831.943	50.37
832.115	50.52
832.287	55.03
832.459	57.19
832.631	61.37
832.803	75
832.975	81.23
833.146	79.86
833.318	74.8
833.49	75.14
833.662	71.98
833.833	70.66
834.005	65.31
834.177	65.94
834.348	59.78
834.52	51.87
834.692	51.13
834.863	48.3
835.035	39.43
835.206	29.89
835.378	26.89
835.549	34.52
835.721	47.23
835.892	42.05
836.064	49.95
836.235	57.94
836.407	61.52
836.578	66.55
836.749	66.77
836.921	63.3
837.092	75.17
837.264	62.47
837.435	59.62
837.606	58.28
837.777	45.83
837.949	36.54
838.12	35.5
838.291	34.75
838.462	33.81
838.633	33.71
838.805	35.2
838.976	40.87
839.147	41.05
839.318	34.01
839.489	26.22
839.66	43.38
839.831	39.52
840.002	34.87
840.173	32.89
840.344	38.58
840.515	48.39
840.686	54.26
840.857	32.25
841.028	40.26
841.199	44.02
841.369	40.95
841.54	48.99
841.711	55.77
841.882	48.37
842.053	53.15
842.223	45.86
842.394	45.8
842.565	55.69
842.736	48.94
842.906	42.86
843.077	51.75
843.248	60.23
843.418	61.24
843.589	59.51
843.759	51.55
843.93	52.34
844.101	47.3
844.271	47.6
844.442	47.76
844.612	29.27
844.783	24.32
844.953	15.46
845.123	19.43
845.294	15.06
845.464	22.33
845.635	21.06
845.805	41.4
845.975	32.07
846.146	26.41
846.316	16.41
846.486	51.4
846.656	58.36
846.827	55.7
846.997	60.57
847.167	65.63
847.337	81.3
847.507	78.78
847.677	69.58
847.848	72.28
848.018	74.06
848.188	70.3
848.358	80.52
848.528	69.75
848.698	52.31
848.868	29.02
849.038	17.67
849.208	11.53
849.378	6.14
849.548	15.26
849.718	7.41
849.887	23.93
850.057	42.07
850.227	46.17
850.397	47.13
850.567	62.97
850.737	48.47
850.906	57.6
851.076	53.68
851.246	65.55
851.415	62.33
851.585	71.62
851.755	70.57
851.924	82.12
852.094	74.05
852.264	77.77
852.433	63.1
852.603	70.4
852.772	57.68
852.942	45.12
853.111	35.51
853.281	26.59
853.45	30.11
853.62	25.44
853.789	19.63
853.959	19.57
854.128	6.92
854.297	5.01
854.467	22.43
854.636	11.31
854.805	21.87
854.975	32.29
855.144	45.81
855.313	58.14
855.482	54.8
855.652	50.81
855.821	58.48
855.99	51.58
856.159	40.75
856.328	27.83
856.497	15.34
856.667	20.35
856.836	17.48
857.005	17.53
857.174	33.77
857.343	26.27
857.512	22.56
857.681	29.47
857.85	36.21
858.019	58.62
858.188	55.45
858.356	20.68
858.525	34.42
858.694	47.51
858.863	45.14
859.032	38.84
859.201	15.25
859.369	20.97
859.538	28.85
859.707	20.21
859.876	16.79
860.044	23.39
860.213	26.91
860.382	37.05
860.55	51.87
860.719	63.46
860.888	69.43
861.056	75.44
861.225	76.5
861.393	78.14
861.562	64.72
861.73	42.68
861.899	20.01
862.067	35.73
862.236	31.31
862.404	23.01
862.572	24.06
862.741	25.33
862.909	22.04
863.078	26.55
863.246	10.07
863.414	10.42
863.582	11.01
863.751	-6.28
863.919	8.99
864.087	21.05
864.255	20.96
864.424	21.49
864.592	21.45
864.76	41.88
864.928	55.12
865.096	38.07
865.264	37.3
865.432	35.74
865.6	16.37
865.768	-2.31
865.936	-26.17
866.104	-51.53
866.272	-38.42
866.44	-94.63
866.608	-89.33
866.776	-9.02
866.944	23.81
867.112	6.61
867.28	-25.92
867.448	19.53
867.615	52.93
867.783	46.96
867.951	46.17
868.119	38.21
868.286	46.63
868.454	60.58
868.622	51.75
868.789	57.59
868.957	59.94
869.125	51.78
869.292	59.11
869.46	55.68
869.627	32.69
869.795	23.87
869.963	21.85
870.13	41.68
870.298	26.54
870.465	2.29
870.632	6.04
870.8	32.91
870.967	31.03
871.135	35.9
871.302	9.92
871.469	16.13
871.637	14.29
871.804	16.57
871.971	11.95
872.139	18.92
872.306	-3.8
872.473	-0.74
872.64	-3.18
872.807	2.01
872.975	28.59
873.142	8.25
873.309	0.37
873.476	146.72
873.643	149.45
873.81	127.07
873.977	41.84
874.144	33.07
874.311	55.9
874.478	7.7
874.645	-45.91
874.812	-3.31
874.979	-25.09
875.146	-20.37
875.313	-48.71
875.48	22.85
875.647	4.03
875.813	12.75
875.98	-0.79
876.147	66.34
876.314	75.54
876.481	54.94
876.647	40.02
876.814	48.67
876.981	44.16
877.147	26.35
877.314	13.64
877.481	29.75
877.647	34.82
877.814	27.54
877.98	25.62
878.147	22.9
878.314	33.97
878.48	24.46
878.647	48.05
878.813	49.72
878.979	58.97
879.146	37.06
879.312	66.13
879.479	64.02
879.645	59.71
879.811	15.57
879.978	17.48
880.144	21
880.31	14.96
880.477	-25.83
880.643	-58.04
880.809	27.95
880.975	29.29
881.142	34.79
881.308	25.59
881.474	115.3
881.64	93.84
881.806	64.69
881.972	75.99
882.138	63.78
882.304	10.56
882.47	-3.54
882.636	-69.23
882.802	-94.15
882.968	-187.5
883.134	-450
883.3	-141.49
883.466	-18.6
883.632	16.14
883.798	18.38
883.964	35.76
884.129	64.56
884.295	61.07
884.461	53.1
884.627	58.7
884.793	7.3
884.958	11.44
885.124	-26.02
885.29	-24.6
885.455	-20.84
885.621	-17.37
885.787	-20.48
885.952	-31.3
886.118	-44.6
886.283	-11.95
886.449	-64.44
886.614	-74.39
886.78	-26.68
886.945	-42.86
887.111	-13.13
887.276	-12.97
887.442	-12.14
887.607	6.34
887.773	-10.49
887.938	-41.56
888.103	21.04
888.269	3.44
888.434	20.49
888.599	31.65
888.764	28.35
888.93	42.74
889.095	46.06
889.26	32.97
889.425	50.28
889.59	25.66
889.756	7.71
889.921	7.45
890.086	1.44
890.251	-17.66
890.416	-86.31
890.581	-67.89
890.746	-90.61
890.911	-142.64
891.076	-179.14
891.241	-208.26
891.406	-41.59
891.571	-6.82
891.736	-16.91
891.901	15.93
892.065	55.4
892.23	47.74
892.395	22.83
892.56	14.38
892.725	11.05
892.889	1.34
893.054	-9.1
893.219	-59.64
893.384	-89.4
893.548	-125
893.713	347.52
893.878	239.67
