Data from Ofra_PS_T2_1A_0CX05_Reflection_3.txt Node
Date: Wed Jul 21 17:43:55 EDT 2021
User: Adam
Spectrometer: FLMT01687
Trigger mode: 0
Integration Time (sec): 1.100000E0
Scans to average: 2
Electric dark correction enabled: true
Nonlinearity correction enabled: false
Boxcar width: 2
XAxis mode: Wavelengths
Number of Pixels in Spectrum: 3648
>>>>>Begin Spectral Data<<<<<
179.494	558.8
179.716	632
179.937	596.47
180.158	592.62
180.38	947.19
180.601	320.17
180.823	74.55
181.044	11.61
181.265	90.81
181.486	45.98
181.708	111.66
181.929	1207.14
182.15	-347.18
182.372	96.11
182.593	43.73
182.814	59.29
183.035	123.04
183.257	103.12
183.478	79.68
183.699	114.1
183.92	35.2
184.141	53.49
184.363	3.58
184.584	49.04
184.805	40.61
185.026	87.43
185.247	69.17
185.468	59.16
185.689	45.29
185.91	54.59
186.132	51.52
186.353	39.16
186.574	109.59
186.795	101.59
187.016	63.65
187.237	38.36
187.458	82.16
187.679	48.22
187.9	22.97
188.121	1.07
188.342	44.12
188.563	54.57
188.784	69.73
189.005	101.92
189.226	193.85
189.447	148.48
189.667	135.19
189.888	-112.56
190.109	-1099.35
190.33	-712.58
190.551	-1168.58
190.772	-219.49
190.993	-174.11
191.214	-72.16
191.434	-69.13
191.655	1.78
191.876	-59.77
192.097	-104.98
192.318	-148.87
192.538	-215.69
192.759	-179.21
192.98	-62.55
193.201	-23.87
193.421	-23.28
193.642	12.95
193.863	31.74
194.083	2.5
194.304	1.91
194.525	-0.85
194.745	4.5
194.966	-25
195.187	-37.34
195.407	-88.94
195.628	-135.23
195.848	-171.17
196.069	-146.24
196.29	-77.28
196.51	-43.77
196.731	-37.63
196.951	-49.03
197.172	-66.81
197.392	-127.22
197.613	-137.22
197.833	-154.1
198.054	-113.51
198.274	-78.33
198.495	-77.18
198.715	-46.98
198.936	-54.09
199.156	-46.75
199.377	-138.5
199.597	-114.08
199.817	-105.01
200.038	-53.94
200.258	-99.4
200.479	-18.97
200.699	-21.82
200.919	14.24
201.14	-21.54
201.36	-51.15
201.58	5.75
201.801	35.65
202.021	-7.25
202.241	-0.84
202.461	3.44
202.682	-90.59
202.902	-182.38
203.122	-103.29
203.342	-91.73
203.563	-36.56
203.783	0.79
204.003	-13.96
204.223	-16.36
204.443	44.67
204.663	18.21
204.884	23.52
205.104	76.93
205.324	104.16
205.544	79.46
205.764	98.48
205.984	95.81
206.204	81.92
206.424	58.68
206.644	37.42
206.864	32.44
207.084	19.51
207.304	49
207.525	56.09
207.745	37.05
207.964	18.48
208.184	-54
208.404	-122.03
208.624	-109.7
208.844	-81.67
209.064	-325
209.284	-318.78
209.504	-110.98
209.724	-11.43
209.944	-12.76
210.164	32.81
210.384	45.49
210.604	35.33
210.823	-2.92
211.043	-31.97
211.263	-41.19
211.483	-52.32
211.703	-113.47
211.922	-84.74
212.142	1.59
212.362	28.89
212.582	23.02
212.801	34.84
213.021	4.24
213.241	-23.8
213.461	-56.56
213.68	-76.47
213.9	-50.64
214.12	-40.95
214.339	-112.87
214.559	-95.43
214.779	-33.84
214.998	-22.25
215.218	-44.9
215.438	9.99
215.657	9.1
215.877	10.58
216.096	21.79
216.316	24.39
216.535	-1.68
216.755	-23.46
216.974	-128.52
217.194	-203.77
217.413	-174.03
217.633	-147.01
217.852	-192.99
218.072	-70.06
218.291	-8.45
218.511	37.47
218.73	-7.47
218.95	-18.32
219.169	-38.48
219.389	-99.9
219.608	-92.48
219.827	-67.1
220.047	-56.85
220.266	-27.82
220.485	-7.73
220.705	20.11
220.924	-2.74
221.143	26.03
221.363	8.99
221.582	19.54
221.801	21.9
222.021	32.76
222.24	5.8
222.459	66.52
222.678	34.93
222.897	-42.8
223.117	-94.63
223.336	-74.6
223.555	-55.68
223.774	-7.54
223.993	7.48
224.213	99.4
224.432	70.93
224.651	88.31
224.87	42
225.089	42.95
225.308	22.75
225.527	45.61
225.746	35.05
225.965	33.07
226.184	29.15
226.404	33.15
226.623	10.11
226.842	17.89
227.061	45.9
227.28	44.1
227.499	36.91
227.718	51.18
227.936	53.97
228.155	55.74
228.374	42.35
228.593	37.73
228.812	27.65
229.031	-8.39
229.25	-57.87
229.469	-40.51
229.688	-15.08
229.907	11.61
230.125	49.54
230.344	54.72
230.563	40.89
230.782	43.22
231.001	-32.19
231.22	-42.26
231.438	-3.82
231.657	9.37
231.876	-5.75
232.095	35.3
232.313	50.28
232.532	29.67
232.751	-5.32
232.969	5.01
233.188	2.92
233.407	17.03
233.625	12.42
233.844	12.37
234.063	9.02
234.281	7.06
234.5	-1.85
234.719	1.1
234.937	17.25
235.156	19.81
235.374	29.04
235.593	7.35
235.811	6.95
236.03	-7.32
236.249	-40.1
236.467	-47.05
236.686	-1.88
236.904	13.57
237.123	-0.19
237.341	2.32
237.559	1.71
237.778	-5.76
237.996	-44.5
238.215	-13.97
238.433	-6.04
238.652	0.8
238.87	-33.97
239.088	-0.39
239.307	9.84
239.525	13.14
239.743	-21.09
239.962	7.2
240.18	-42.41
240.398	-70.55
240.617	-73.82
240.835	-38.28
241.053	-3.77
241.271	83.17
241.49	50.22
241.708	31.04
241.926	19.96
242.144	32.51
242.363	-64.01
242.581	-55.98
242.799	-18.44
243.017	15.01
243.235	-31.22
243.453	-4.98
243.672	-10.23
243.89	-8.87
244.108	-31.94
244.326	-7.77
244.544	-0.39
244.762	-10.58
244.98	1.25
245.198	20.1
245.416	-0.26
245.634	-5.04
245.852	0.68
246.07	-4.52
246.288	-9.54
246.506	-24.45
246.724	-21.41
246.942	-2.43
247.16	19.85
247.378	29.1
247.596	47.29
247.814	56.17
248.032	14.96
248.25	2.89
248.468	8.57
248.685	17.31
248.903	43.16
249.121	61.23
249.339	31.71
249.557	10.93
249.775	15.27
249.992	-66.61
250.21	-67.4
250.428	-40.7
250.646	-72.98
250.863	-106.45
251.081	-59.62
251.299	-62.24
251.517	-58.81
251.734	-37.6
251.952	-33.11
252.17	-32.21
252.387	-8.78
252.605	-16.72
252.823	-0.17
253.04	19.6
253.258	46.69
253.475	42.88
253.693	62.96
253.911	52.22
254.128	49.45
254.346	55.07
254.563	21.08
254.781	-3.37
254.998	-26.47
255.216	-19.17
255.433	-23.75
255.651	46.37
255.868	67.07
256.086	106.96
256.303	84.85
256.521	65.28
256.738	17.83
256.956	-5.88
257.173	-43.05
257.39	-59.56
257.608	-105.3
257.825	-36.88
258.043	-12.28
258.26	-6.02
258.477	46.05
258.695	64.53
258.912	18.64
259.129	26.69
259.346	6.32
259.564	-39.59
259.781	-84.28
259.998	-25.44
260.216	-5.78
260.433	35.32
260.65	39.38
260.867	73.17
261.084	51.38
261.302	25.49
261.519	4.99
261.736	-29.45
261.953	-72.25
262.17	-29.28
262.387	-46.22
262.604	-67.28
262.822	-67.34
263.039	-20.42
263.256	-62.38
263.473	-12.07
263.69	-9.73
263.907	18.66
264.124	36.23
264.341	46.26
264.558	24.04
264.775	46.81
264.992	53.66
265.209	33.1
265.426	55.49
265.643	50.96
265.86	55.77
266.077	57.97
266.294	35.63
266.51	-18.29
266.727	-17.93
266.944	-17.91
267.161	-27.95
267.378	-4.21
267.595	18.42
267.812	-11.2
268.028	-21.15
268.245	12.89
268.462	-14.21
268.679	-24.41
268.896	42.14
269.112	29.94
269.329	10.49
269.546	6.94
269.763	2.94
269.979	-34.52
270.196	-27.81
270.413	-50.85
270.629	-63.16
270.846	-66.88
271.063	-44.53
271.279	-48.95
271.496	-26.12
271.712	16.1
271.929	32.83
272.146	-3.5
272.362	1.05
272.579	19.68
272.795	18.03
273.012	27.04
273.228	49.55
273.445	37.17
273.661	7.23
273.878	-63.64
274.094	-58.87
274.311	-98.87
274.527	-39.75
274.744	-28.57
274.96	-3.02
275.177	-1.35
275.393	27.4
275.609	35.75
275.826	55.24
276.042	41.6
276.259	37.84
276.475	49.36
276.691	43.63
276.908	9.98
277.124	42.61
277.34	53.01
277.557	34.28
277.773	14.2
277.989	21.74
278.205	-9.74
278.422	15.06
278.638	21.21
278.854	50.34
279.07	46
279.286	45.84
279.503	-21.31
279.719	-34.15
279.935	-62.39
280.151	-67.58
280.367	-12.18
280.583	1.15
280.799	-8.38
281.016	-33.04
281.232	-0.34
281.448	-20.26
281.664	5.13
281.88	-11.24
282.096	14.09
282.312	39.04
282.528	58.38
282.744	56.71
282.96	60.3
283.176	49.92
283.392	33.06
283.608	27.31
283.824	11.6
284.04	18
284.256	18.87
284.471	15.74
284.687	-3.08
284.903	30.1
285.119	47.71
285.335	23.36
285.551	22.92
285.767	20.8
285.982	3.21
286.198	-42.41
286.414	14.72
286.63	25.44
286.846	42.09
287.061	7.03
287.277	49.59
287.493	15.28
287.709	20.97
287.924	-4.37
288.14	44.68
288.356	41.44
288.571	69.14
288.787	45.31
289.003	56.9
289.218	35.2
289.434	-14.92
289.65	-26.27
289.865	-23.47
290.081	-6.22
290.296	3.4
290.512	6.26
290.727	-19.54
290.943	-26.47
291.159	-40.48
291.374	-29.68
291.59	-51.89
291.805	-35.23
292.021	-24.01
292.236	-16.02
292.451	-16.68
292.667	-0.73
292.882	11.76
293.098	-7.54
293.313	-38.12
293.529	-52.53
293.744	-48.43
293.959	-54.78
294.175	-38.13
294.39	9.96
294.605	26.8
294.821	51.16
295.036	60.68
295.251	72.59
295.467	22.47
295.682	8.88
295.897	-56.48
296.112	-67.71
296.328	-68.07
296.543	-65.33
296.758	-68.24
296.973	-15.47
297.188	19.74
297.404	-7.03
297.619	-10.24
297.834	-20.26
298.049	-37.64
298.264	-63.08
298.479	1.93
298.694	12.02
298.909	33.07
299.125	34.03
299.34	39.46
299.555	-1.96
299.77	7.52
299.985	-38.56
300.2	-88.43
300.415	-105
300.63	-50.91
300.845	-61.37
301.06	-38.58
301.275	8.23
301.49	36.46
301.704	9.22
301.919	-12.21
302.134	-34.62
302.349	-39.77
302.564	-114.31
302.779	-153.73
302.994	-111.52
303.209	-50.31
303.423	-26.29
303.638	40.04
303.853	18.67
304.068	3.86
304.283	2.29
304.497	-10.36
304.712	-36.32
304.927	-19.39
305.142	-21.63
305.356	-21.09
305.571	-13.63
305.786	-22.96
306	-38.82
306.215	-18.68
306.43	-33.32
306.644	-19
306.859	32.5
307.074	39.5
307.288	2.39
307.503	-2.09
307.717	-22.82
307.932	-21.32
308.147	-28.42
308.361	-8.88
308.576	-19.18
308.79	-52.99
309.005	-60.29
309.219	-43.21
309.434	-48.07
309.648	-37.19
309.863	-12.45
310.077	0.5
310.292	4.66
310.506	7.23
310.72	16.85
310.935	31.93
311.149	24
311.364	31.77
311.578	34.37
311.792	27.89
312.007	22.72
312.221	1.68
312.435	4.83
312.649	-4.92
312.864	-19.44
313.078	25.26
313.292	87.12
313.507	53.7
313.721	90.3
313.935	76.88
314.149	32.75
314.363	27.1
314.578	27.73
314.792	28.88
315.006	11.35
315.22	26.52
315.434	23.14
315.648	37.88
315.862	32.75
316.077	35.58
316.291	16.92
316.505	35.1
316.719	26.6
316.933	-0.32
317.147	6.75
317.361	-35.41
317.575	-59.6
317.789	-111.64
318.003	-168.98
318.217	-134.31
318.431	-46.68
318.645	8.11
318.859	13.74
319.073	56.62
319.287	44.41
319.5	19.98
319.714	-37.03
319.928	-47
320.142	-82.46
320.356	-30.47
320.57	19.97
320.784	33.21
320.997	39.44
321.211	39.5
321.425	-21.15
321.639	-59.68
321.853	8.95
322.066	9.42
322.28	-7.08
322.494	7.57
322.707	22.95
322.921	-5.44
323.135	-1.91
323.349	22.52
323.562	-8.43
323.776	-16.14
323.989	-23.64
324.203	-44.02
324.417	-43.88
324.63	-53.31
324.844	-61.07
325.057	-56.98
325.271	-25.24
325.485	-5.18
325.698	28.5
325.912	40.45
326.125	12.4
326.339	16.32
326.552	-19.89
326.766	-21.73
326.979	-1
327.193	49.85
327.406	29.57
327.619	26.04
327.833	38.75
328.046	3.99
328.26	-35.66
328.473	-4.02
328.686	-34.33
328.9	-34.34
329.113	-2.64
329.326	-22.14
329.54	-28.89
329.753	-20.25
329.966	-63.3
330.179	-53.35
330.393	-14.47
330.606	-15.44
330.819	8.77
331.032	37.04
331.246	28.58
331.459	53.44
331.672	51.93
331.885	49.45
332.098	21.11
332.311	20.7
332.525	-26.6
332.738	-13.13
332.951	-5.49
333.164	28.58
333.377	38.09
333.59	44.13
333.803	44.09
334.016	37.1
334.229	29.44
334.442	33.58
334.655	53.42
334.868	54.83
335.081	35.35
335.294	27.57
335.507	16.38
335.72	0.87
335.933	-8.05
336.146	0.73
336.359	-6.24
336.572	-34.81
336.785	-53.63
336.997	-39.58
337.21	-14.51
337.423	-24.08
337.636	-3.72
337.849	13
338.062	6.58
338.274	14.69
338.487	10.29
338.7	5.6
338.913	-26.9
339.125	-54.17
339.338	-119
339.551	-70.45
339.763	-38.84
339.976	5.73
340.189	20.74
340.402	41.74
340.614	16.22
340.827	5.89
341.039	-16.8
341.252	-22.33
341.465	-22.14
341.677	-26.25
341.89	-55
342.102	-37.03
342.315	-39.68
342.527	-56.45
342.74	-45.78
342.952	-20.32
343.165	-19.97
343.377	-7.16
343.59	-16.32
343.802	0.66
344.015	4.58
344.227	11.45
344.44	10.34
344.652	9.62
344.864	-9.83
345.077	13.22
345.289	22.91
345.502	27.39
345.714	31.75
345.926	46.75
346.139	33.19
346.351	36.79
346.563	38.16
346.775	34.74
346.988	21.7
347.2	15.78
347.412	-37.37
347.624	-43.62
347.837	-55.48
348.049	-37.84
348.261	4.89
348.473	18.98
348.685	4.6
348.897	-3.87
349.11	-32.58
349.322	-78.44
349.534	-62.24
349.746	-55.22
349.958	-12.71
350.17	3.39
350.382	25.59
350.594	17.83
350.806	16.15
351.018	-0.54
351.23	0.57
351.442	-53.72
351.654	-86.68
351.866	-66.51
352.078	-50.08
352.29	-35.29
352.502	-9.54
352.714	26.37
352.926	15.77
353.138	12.28
353.35	2.41
353.561	4.6
353.773	-20.3
353.985	-1.79
354.197	-13.09
354.409	-24.79
354.621	-19.34
354.832	-16.9
355.044	-33.46
355.256	-27.21
355.468	-0.51
355.679	-9.89
355.891	8.81
356.103	-0.34
356.314	11.18
356.526	9.58
356.738	27.42
356.949	6.25
357.161	19.7
357.373	11.73
357.584	-0.34
357.796	-12.05
358.008	-8.92
358.219	7.55
358.431	8.2
358.642	21.33
358.854	19.7
359.065	5.2
359.277	-22.87
359.488	-39.58
359.7	-72.79
359.911	-74.28
360.123	-49.2
360.334	-64.44
360.546	-61.41
360.757	-57.77
360.969	-36.33
361.18	-24.04
361.391	7.1
361.603	-15.66
361.814	-6.09
362.025	-14.79
362.237	-25.43
362.448	-20.72
362.659	4.72
362.871	-0.16
363.082	-8.15
363.293	-5.39
363.504	-24.24
363.716	-52.7
363.927	-44.2
364.138	-55.42
364.349	-63.86
364.56	-44.65
364.772	-33.79
364.983	-7.62
365.194	-4.21
365.405	10.98
365.616	23.63
365.827	29.84
366.038	2.95
366.25	3.71
366.461	-35.77
366.672	-17.1
366.883	-9.16
367.094	-6.63
367.305	-15.5
367.516	9.59
367.727	-21.51
367.938	-33.47
368.149	-26.99
368.36	-5.11
368.571	-9.64
368.781	-18.2
368.992	-28.85
369.203	-45.79
369.414	-74.85
369.625	-85.74
369.836	-75.38
370.047	-98.78
370.258	-85.67
370.468	-80.12
370.679	-97.11
370.89	-85.7
371.101	-59.39
371.312	-57.76
371.522	-49.04
371.733	-28.12
371.944	-12.75
372.155	1.18
372.365	-0.41
372.576	0.9
372.787	-2.05
372.997	-27.4
373.208	-30.33
373.419	0.4
373.629	-29.89
373.84	-34.98
374.05	-39.2
374.261	-19.97
374.472	-45.81
374.682	9.66
374.893	6.94
375.103	46.38
375.314	33.25
375.524	34.6
375.735	29.17
375.945	39.93
376.156	-0.26
376.366	-1.05
376.577	-2.3
376.787	-21.28
376.997	-18.02
377.208	-4.76
377.418	-11.47
377.629	-5.81
377.839	1.96
378.049	1.11
378.26	11.65
378.47	19.18
378.68	10.99
378.89	15.34
379.101	6.69
379.311	-18.91
379.521	-41.73
379.732	-33.8
379.942	-38.86
380.152	-52.68
380.362	-23.47
380.572	-23.69
380.783	-8.44
380.993	-8.65
381.203	15.79
381.413	24.02
381.623	26.02
381.833	20.16
382.043	6.14
382.253	-16.19
382.463	-16.36
382.674	-14.98
382.884	-32
383.094	-16.61
383.304	-8.92
383.514	-2.78
383.724	7.19
383.934	1.79
384.144	-10.54
384.353	-15.31
384.563	-16.49
384.773	-13.14
384.983	-18.42
385.193	6.04
385.403	6.21
385.613	0.82
385.823	-15.41
386.033	-9
386.242	-24.38
386.452	-24.11
386.662	-31.44
386.872	-15.92
387.082	-15.31
387.291	-18.66
387.501	-17.33
387.711	-8.79
387.921	-26.59
388.13	-24.42
388.34	-7.46
388.55	-12.77
388.759	-9.7
388.969	7.84
389.179	6.52
389.388	0.6
389.598	6.31
389.807	-3.48
390.017	-11.68
390.227	-11.86
390.436	-13.61
390.646	-13.37
390.855	-6.39
391.065	-6.7
391.274	-7.89
391.484	-10.08
391.693	-7.97
391.903	-8.39
392.112	-4.08
392.322	-0.21
392.531	7.3
392.74	9.45
392.95	5.74
393.159	4.7
393.369	3.02
393.578	0.54
393.787	-2.65
393.997	-1.09
394.206	-3.54
394.415	-1.95
394.625	-2.25
394.834	-3.65
395.043	-2.57
395.252	-0.28
395.462	2.04
395.671	3.05
395.88	3.91
396.089	4.55
396.298	3.29
396.508	2.14
396.717	1.02
396.926	2.5
397.135	1.69
397.344	1.6
397.553	1.8
397.762	2.92
397.971	2.4
398.181	3.02
398.39	2.35
398.599	1.5
398.808	1.24
399.017	2.36
399.226	3.3
399.435	5.04
399.644	5.55
399.853	4.99
400.062	3.97
400.27	3.28
400.479	2.32
400.688	1.63
400.897	1.95
401.106	2.34
401.315	2.05
401.524	2.15
401.733	2.9
401.941	3.01
402.15	2.78
402.359	2.63
402.568	3.14
402.777	3.06
402.985	2.86
403.194	2.94
403.403	3.15
403.612	2.55
403.82	2.35
404.029	2.52
404.238	2.31
404.446	2.6
404.655	2.56
404.864	2.32
405.072	2.12
405.281	2.45
405.489	1.99
405.698	2.06
405.906	2.28
406.115	2.35
406.324	2.14
406.532	2.38
406.741	2.59
406.949	2.55
407.158	2.43
407.366	2.52
407.574	2.56
407.783	2.49
407.991	2.34
408.2	2.63
408.408	2.55
408.617	2.39
408.825	2.23
409.033	2.31
409.242	2.29
409.45	2.34
409.658	2.34
409.867	2.71
410.075	2.56
410.283	2.36
410.491	2.26
410.7	2.17
410.908	1.95
411.116	2.37
411.324	2.37
411.533	2.35
411.741	2.65
411.949	2.65
412.157	2.25
412.365	2.33
412.573	2.38
412.781	2.28
412.99	2.13
413.198	2.42
413.406	2.47
413.614	2.46
413.822	2.33
414.03	2.25
414.238	2.03
414.446	2.11
414.654	1.86
414.862	1.98
415.07	2.12
415.278	2.31
415.486	2.01
415.694	2.3
415.902	2.12
416.109	2.08
416.317	2
416.525	1.92
416.733	1.84
416.941	1.99
417.149	1.89
417.357	1.92
417.564	2.19
417.772	2.36
417.98	2.28
418.188	2.31
418.395	2.37
418.603	2.41
418.811	2.07
419.019	1.95
419.226	2.22
419.434	2.23
419.642	2
419.849	2.24
420.057	2.42
420.265	2.38
420.472	2.13
420.68	2.16
420.887	1.91
421.095	1.89
421.302	1.83
421.51	2.14
421.717	2.27
421.925	2.41
422.132	2.24
422.34	1.94
422.547	1.83
422.755	1.68
422.962	1.59
423.17	1.58
423.377	1.76
423.585	1.75
423.792	1.66
423.999	1.77
424.207	1.78
424.414	1.95
424.621	1.93
424.829	2.04
425.036	1.95
425.243	2.13
425.451	1.88
425.658	1.69
425.865	1.85
426.072	1.84
426.28	1.99
426.487	1.94
426.694	2.14
426.901	1.88
427.108	1.9
427.315	1.61
427.523	1.99
427.73	1.89
427.937	1.95
428.144	1.82
428.351	1.91
428.558	2.02
428.765	1.92
428.972	1.87
429.179	2.09
429.386	2.24
429.593	1.79
429.8	1.74
430.007	1.8
430.214	1.78
430.421	1.53
430.628	1.53
430.835	1.4
431.042	1.62
431.249	1.71
431.456	1.74
431.662	1.88
431.869	2.16
432.076	2.09
432.283	2.14
432.49	2.23
432.697	2.25
432.903	2.05
433.11	1.94
433.317	1.95
433.524	2.17
433.73	2.05
433.937	2.24
434.144	2.18
434.35	2.12
434.557	1.77
434.764	1.87
434.97	1.72
435.177	1.95
435.384	1.84
435.59	1.98
435.797	2.1
436.003	2.29
436.21	2.16
436.416	2.25
436.623	2.24
436.829	2.27
437.036	2.33
437.242	2.36
437.449	2.25
437.655	2.29
437.862	2.28
438.068	2.13
438.275	2.21
438.481	2.55
438.687	2.48
438.894	2.36
439.1	2.45
439.307	2.63
439.513	2.44
439.719	2.5
439.926	2.67
440.132	2.61
440.338	2.34
440.544	2.5
440.751	2.46
440.957	2.46
441.163	2.37
441.369	2.46
441.575	2.17
441.782	2.04
441.988	1.86
442.194	1.95
442.4	1.95
442.606	2.35
442.812	2.51
443.018	2.7
443.224	2.76
443.431	2.87
443.637	2.55
443.843	2.44
444.049	2.41
444.255	2.3
444.461	2.18
444.667	2.12
444.873	2.33
445.079	2.31
445.284	2.39
445.49	2.25
445.696	2.16
445.902	1.94
446.108	1.86
446.314	1.85
446.52	1.95
446.726	2.25
446.931	2.35
447.137	2.39
447.343	2.42
447.549	2.32
447.755	2.2
447.96	2.22
448.166	2.13
448.372	2.01
448.578	2.15
448.783	2.11
448.989	2.17
449.195	2.36
449.4	2.44
449.606	2.41
449.812	2.32
450.017	2.35
450.223	2.19
450.428	2.08
450.634	2.23
450.84	2.43
451.045	2.25
451.251	2.23
451.456	2.55
451.662	2.64
451.867	2.63
452.073	2.73
452.278	2.88
452.483	2.94
452.689	2.7
452.894	2.81
453.1	2.8
453.305	2.73
453.51	2.54
453.716	2.54
453.921	2.49
454.127	2.45
454.332	2.35
454.537	2.28
454.742	2.34
454.948	2.29
455.153	2.32
455.358	2.42
455.563	2.68
455.769	2.75
455.974	2.7
456.179	2.54
456.384	2.51
456.589	2.35
456.795	2.08
457	2.08
457.205	2.36
457.41	2.3
457.615	2.24
457.82	2.36
458.025	2.37
458.23	2.16
458.435	2.24
458.64	2.12
458.845	2.25
459.05	2.24
459.255	2.36
459.46	2.35
459.665	2.42
459.87	2.47
460.075	2.56
460.28	2.53
460.485	2.73
460.69	2.85
460.895	2.61
461.099	2.47
461.304	2.63
461.509	2.55
461.714	2.42
461.919	2.63
462.123	2.56
462.328	2.67
462.533	2.51
462.738	2.64
462.942	2.51
463.147	2.64
463.352	2.52
463.556	2.61
463.761	2.63
463.966	2.68
464.17	2.69
464.375	2.52
464.58	2.46
464.784	2.34
464.989	2.21
465.193	2.23
465.398	2.34
465.602	2.51
465.807	2.55
466.011	2.74
466.216	2.78
466.42	2.86
466.625	2.86
466.829	2.96
467.034	2.93
467.238	3.13
467.443	3.01
467.647	2.9
467.851	2.96
468.056	3.01
468.26	2.86
468.464	2.92
468.669	3.07
468.873	3.19
469.077	3.05
469.282	3.07
469.486	3.1
469.69	3.09
469.894	2.9
470.099	3.09
470.303	3.24
470.507	3.13
470.711	2.96
470.915	2.97
471.119	2.84
471.324	2.68
471.528	2.73
471.732	2.83
471.936	2.79
472.14	2.86
472.344	2.89
472.548	2.98
472.752	3.17
472.956	3.45
473.16	3.46
473.364	3.34
473.568	3.3
473.772	3.31
473.976	3.15
474.18	3.14
474.384	3.31
474.588	3.29
474.792	3.13
474.995	3.13
475.199	3.22
475.403	3.24
475.607	3.25
475.811	3.22
476.015	3.27
476.218	3.33
476.422	3.25
476.626	3.36
476.83	3.45
477.033	3.41
477.237	3.24
477.441	3.29
477.644	3.25
477.848	3.25
478.052	3.23
478.255	3.29
478.459	3.29
478.663	3.44
478.866	3.51
479.07	3.56
479.273	3.74
479.477	3.84
479.681	3.77
479.884	3.73
480.088	3.7
480.291	3.63
480.495	3.61
480.698	3.61
480.901	3.71
481.105	3.83
481.308	3.81
481.512	3.75
481.715	3.82
481.919	3.79
482.122	3.75
482.325	3.77
482.529	3.82
482.732	3.78
482.935	3.7
483.138	3.62
483.342	3.66
483.545	3.72
483.748	3.72
483.952	3.85
484.155	4.03
484.358	4.05
484.561	4
484.764	3.95
484.967	3.98
485.171	3.98
485.374	3.91
485.577	3.98
485.78	4.1
485.983	4.1
486.186	3.96
486.389	3.94
486.592	3.93
486.795	3.94
486.998	3.84
487.201	3.98
487.404	4.1
487.607	4.18
487.81	4.15
488.013	4.18
488.216	4.16
488.419	4.19
488.622	4.02
488.825	3.95
489.028	3.92
489.231	3.88
489.433	3.76
489.636	3.79
489.839	3.79
490.042	3.77
490.245	3.72
490.447	3.76
490.65	3.75
490.853	3.79
491.056	3.88
491.258	3.93
491.461	3.97
491.664	4.03
491.866	3.97
492.069	4.05
492.272	4
492.474	4.03
492.677	4.05
492.879	4.11
493.082	4.06
493.285	4.22
493.487	4.18
493.69	4.13
493.892	4.1
494.095	4.11
494.297	4.04
494.5	4.07
494.702	4.08
494.905	4.15
495.107	4.13
495.309	4.12
495.512	4.18
495.714	4.31
495.917	4.3
496.119	4.28
496.321	4.34
496.524	4.33
496.726	4.32
496.928	4.33
497.13	4.32
497.333	4.29
497.535	4.26
497.737	4.22
497.939	4.24
498.142	4.29
498.344	4.3
498.546	4.27
498.748	4.31
498.95	4.38
499.152	4.39
499.355	4.4
499.557	4.45
499.759	4.57
499.961	4.54
500.163	4.54
500.365	4.55
500.567	4.65
500.769	4.47
500.971	4.5
501.173	4.46
501.375	4.51
501.577	4.44
501.779	4.52
501.981	4.48
502.183	4.53
502.385	4.48
502.587	4.4
502.788	4.4
502.99	4.46
503.192	4.53
503.394	4.53
503.596	4.65
503.798	4.73
503.999	4.8
504.201	4.76
504.403	4.82
504.605	4.81
504.806	4.71
505.008	4.67
505.21	4.76
505.411	4.78
505.613	4.78
505.815	4.86
506.016	4.89
506.218	4.99
506.42	4.97
506.621	5.05
506.823	5.07
507.024	5.02
507.226	4.87
507.427	4.87
507.629	4.84
507.83	4.84
508.032	4.85
508.233	4.96
508.435	5
508.636	5.08
508.838	5.07
509.039	5.16
509.24	5.13
509.442	5.21
509.643	5.15
509.845	5.14
510.046	5.16
510.247	5.22
510.448	5.18
510.65	5.29
510.851	5.46
511.052	5.43
511.254	5.3
511.455	5.42
511.656	5.46
511.857	5.45
512.058	5.47
512.26	5.57
512.461	5.48
512.662	5.51
512.863	5.38
513.064	5.45
513.265	5.47
513.466	5.49
513.667	5.41
513.868	5.45
514.069	5.43
514.27	5.6
514.471	5.58
514.672	5.59
514.873	5.63
515.074	5.64
515.275	5.45
515.476	5.47
515.677	5.53
515.878	5.64
516.079	5.67
516.28	5.74
516.481	5.9
516.682	5.9
516.882	5.77
517.083	5.74
517.284	5.69
517.485	5.6
517.686	5.57
517.886	5.62
518.087	5.62
518.288	5.71
518.488	5.63
518.689	5.66
518.89	5.61
519.091	5.63
519.291	5.58
519.492	5.65
519.692	5.7
519.893	5.84
520.094	5.84
520.294	5.81
520.495	5.8
520.695	5.8
520.896	5.73
521.096	5.8
521.297	5.85
521.497	5.87
521.698	5.84
521.898	5.82
522.099	5.81
522.299	5.91
522.499	5.92
522.7	5.94
522.9	5.99
523.101	6.05
523.301	6.01
523.501	6.05
523.702	6.09
523.902	6.19
524.102	6.21
524.302	6.22
524.503	6.27
524.703	6.31
524.903	6.23
525.103	6.19
525.304	6.28
525.504	6.33
525.704	6.36
525.904	6.41
526.104	6.42
526.304	6.38
526.504	6.35
526.705	6.34
526.905	6.43
527.105	6.44
527.305	6.39
527.505	6.3
527.705	6.27
527.905	6.27
528.105	6.28
528.305	6.3
528.505	6.44
528.705	6.52
528.905	6.43
529.105	6.45
529.304	6.56
529.504	6.63
529.704	6.59
529.904	6.65
530.104	6.64
530.304	6.69
530.503	6.58
530.703	6.55
530.903	6.53
531.103	6.63
531.303	6.57
531.502	6.69
531.702	6.79
531.902	6.81
532.101	6.74
532.301	6.76
532.501	6.68
532.7	6.64
532.9	6.67
533.1	6.69
533.299	6.71
533.499	6.8
533.698	6.79
533.898	6.83
534.097	6.83
534.297	6.89
534.496	6.87
534.696	7
534.895	7.08
535.095	7.2
535.294	7.18
535.494	7.15
535.693	7.11
535.892	7.1
536.092	6.98
536.291	6.95
536.491	7.03
536.69	7.07
536.889	7.04
537.088	7.11
537.288	7.24
537.487	7.3
537.686	7.23
537.886	7.29
538.085	7.31
538.284	7.42
538.483	7.41
538.682	7.51
538.882	7.54
539.081	7.63
539.28	7.51
539.479	7.51
539.678	7.51
539.877	7.63
540.076	7.6
540.275	7.67
540.474	7.71
540.673	7.77
540.872	7.67
541.071	7.79
541.27	7.82
541.469	7.94
541.668	7.96
541.867	7.99
542.066	7.99
542.265	8.04
542.464	7.96
542.663	8.02
542.862	8.2
543.06	8.25
543.259	8.33
543.458	8.44
543.657	8.51
543.856	8.49
544.054	8.47
544.253	8.38
544.452	8.36
544.651	8.38
544.849	8.38
545.048	8.45
545.247	8.55
545.445	8.61
545.644	8.6
545.843	8.58
546.041	8.63
546.24	8.72
546.438	8.85
546.637	8.96
546.836	9.14
547.034	9.23
547.233	9.25
547.431	9.14
547.63	9.13
547.828	9.14
548.027	9.16
548.225	9.17
548.423	9.27
548.622	9.34
548.82	9.33
549.019	9.4
549.217	9.52
549.415	9.56
549.614	9.65
549.812	9.72
550.01	9.72
550.209	9.76
550.407	9.9
550.605	9.9
550.803	9.99
551.002	10.13
551.2	10.18
551.398	10.23
551.596	10.37
551.794	10.42
551.993	10.47
552.191	10.52
552.389	10.68
552.587	10.74
552.785	10.87
552.983	10.9
553.181	10.99
553.379	11.01
553.577	11.12
553.775	11.18
553.973	11.28
554.171	11.4
554.369	11.38
554.567	11.4
554.765	11.41
554.963	11.53
555.161	11.53
555.359	11.67
555.557	11.81
555.755	11.94
555.952	11.99
556.15	12.11
556.348	12.18
556.546	12.31
556.744	12.37
556.941	12.42
557.139	12.53
557.337	12.68
557.535	12.65
557.732	12.79
557.93	13.01
558.128	13.08
558.325	13.11
558.523	13.19
558.721	13.26
558.918	13.2
559.116	13.33
559.313	13.44
559.511	13.6
559.708	13.65
559.906	13.79
560.104	13.79
560.301	13.86
560.498	13.94
560.696	14.07
560.893	14.21
561.091	14.31
561.288	14.42
561.486	14.49
561.683	14.55
561.88	14.65
562.078	14.82
562.275	14.83
562.473	14.94
562.67	15.16
562.867	15.29
563.064	15.36
563.262	15.44
563.459	15.52
563.656	15.64
563.853	15.63
564.051	15.71
564.248	15.97
564.445	16.13
564.642	16.14
564.839	16.33
565.036	16.47
565.234	16.55
565.431	16.57
565.628	16.62
565.825	16.72
566.022	16.79
566.219	16.8
566.416	16.97
566.613	17.06
566.81	17.08
567.007	17.17
567.204	17.26
567.401	17.31
567.598	17.37
567.795	17.41
567.991	17.44
568.188	17.52
568.385	17.57
568.582	17.69
568.779	17.79
568.976	17.87
569.172	18.02
569.369	17.99
569.566	18.1
569.763	18.18
569.96	18.2
570.156	18.22
570.353	18.22
570.55	18.22
570.746	18.29
570.943	18.32
571.14	18.32
571.336	18.46
571.533	18.52
571.729	18.47
571.926	18.58
572.123	18.69
572.319	18.72
572.516	18.71
572.712	18.82
572.909	18.8
573.105	18.92
573.302	19
573.498	19.14
573.695	19.12
573.891	19.23
574.087	19.19
574.284	19.22
574.48	19.11
574.677	19.15
574.873	19.12
575.069	19.18
575.266	19.3
575.462	19.33
575.658	19.46
575.854	19.62
576.051	19.56
576.247	19.45
576.443	19.49
576.639	19.41
576.835	19.31
577.032	19.29
577.228	19.43
577.424	19.54
577.62	19.56
577.816	19.55
578.012	19.58
578.208	19.52
578.404	19.45
578.6	19.51
578.796	19.52
578.993	19.48
579.189	19.39
579.384	19.35
579.58	19.21
579.776	19.28
579.972	19.21
580.168	19.26
580.364	19.28
580.56	19.31
580.756	19.2
580.952	19.2
581.148	19.14
581.343	19.15
581.539	19.17
581.735	19.22
581.931	19.3
582.127	19.33
582.322	19.26
582.518	19.29
582.714	19.37
582.909	19.37
583.105	19.39
583.301	19.44
583.496	19.5
583.692	19.34
583.888	19.27
584.083	19.27
584.279	19.3
584.474	19.13
584.67	19.15
584.866	19.21
585.061	19.06
585.257	19.09
585.452	19.14
585.648	19.13
585.843	19.14
586.039	19.24
586.234	19.11
586.429	19.06
586.625	19.05
586.82	18.93
587.015	18.92
587.211	18.83
587.406	18.92
587.601	18.89
587.797	19.04
587.992	19
588.187	19.21
588.383	19.07
588.578	19.08
588.773	19.1
588.968	19.22
589.163	19.24
589.359	19.22
589.554	19.28
589.749	19.23
589.944	19.25
590.139	19.27
590.334	19.43
590.529	19.43
590.724	19.46
590.919	19.57
591.114	19.54
591.309	19.65
591.504	19.73
591.699	19.68
591.894	19.67
592.089	19.75
592.284	19.68
592.479	19.78
592.674	19.8
592.869	19.83
593.064	19.9
593.259	20.12
593.454	20.17
593.648	20.21
593.843	20.14
594.038	20.11
594.233	20
594.428	19.95
594.622	20.03
594.817	20.29
595.012	20.43
595.206	20.49
595.401	20.54
595.596	20.59
595.79	20.56
595.985	20.57
596.18	20.66
596.374	20.74
596.569	20.87
596.763	20.95
596.958	21.07
597.153	21.19
597.347	21.22
597.542	21.32
597.736	21.36
597.931	21.39
598.125	21.36
598.319	21.58
598.514	21.58
598.708	21.64
598.903	21.68
599.097	21.82
599.291	21.74
599.486	21.78
599.68	21.82
599.874	21.98
600.069	21.99
600.263	22.01
600.457	22.15
600.651	22.22
600.846	22.09
601.04	22.1
601.234	22.15
601.428	22.18
601.622	22.23
601.817	22.3
602.011	22.41
602.205	22.49
602.399	22.38
602.593	22.36
602.787	22.49
602.981	22.47
603.175	22.56
603.369	22.58
603.563	22.7
603.757	22.78
603.951	22.73
604.145	22.62
604.339	22.7
604.533	22.48
604.727	22.35
604.921	22.31
605.115	22.35
605.309	22.38
605.502	22.44
605.696	22.34
605.89	22.33
606.084	22.18
606.278	22.07
606.471	21.97
606.665	21.95
606.859	21.93
607.053	21.97
607.246	21.97
607.44	21.98
607.634	21.98
607.827	21.88
608.021	21.76
608.214	21.63
608.408	21.56
608.602	21.51
608.795	21.51
608.989	21.52
609.182	21.53
609.376	21.55
609.569	21.47
609.763	21.4
609.956	21.29
610.15	21.16
610.343	21.05
610.537	20.93
610.73	20.86
610.923	20.77
611.117	20.71
611.31	20.52
611.504	20.49
611.697	20.38
611.89	20.44
612.083	20.36
612.277	20.45
612.47	20.37
612.663	20.31
612.856	20.21
613.05	20.12
613.243	20.03
613.436	19.94
613.629	19.89
613.822	19.74
614.015	19.71
614.209	19.46
614.402	19.49
614.595	19.42
614.788	19.37
614.981	19.35
615.174	19.38
615.367	19.2
615.56	19.13
615.753	19.06
615.946	18.95
616.139	18.9
616.332	19.07
616.525	19.03
616.718	19.08
616.911	19.15
617.103	19.18
617.296	19.03
617.489	19.04
617.682	18.95
617.875	18.82
618.067	18.73
618.26	18.66
618.453	18.63
618.646	18.58
618.838	18.53
619.031	18.66
619.224	18.65
619.417	18.63
619.609	18.68
619.802	18.64
619.994	18.49
620.187	18.44
620.38	18.38
620.572	18.28
620.765	18.28
620.957	18.13
621.15	18.08
621.342	17.96
621.535	17.95
621.727	17.82
621.92	17.82
622.112	17.73
622.305	17.87
622.497	17.74
622.69	17.83
622.882	17.89
623.074	17.94
623.267	17.85
623.459	17.82
623.651	17.74
623.844	17.72
624.036	17.71
624.228	17.65
624.42	17.74
624.613	17.84
624.805	17.79
624.997	17.77
625.189	17.77
625.381	17.71
625.574	17.59
625.766	17.59
625.958	17.49
626.15	17.52
626.342	17.48
626.534	17.53
626.726	17.44
626.918	17.43
627.11	17.31
627.302	17.29
627.494	17.12
627.686	17.19
627.878	17.18
628.07	17.16
628.262	17.13
628.454	17.27
628.646	17.27
628.838	17.3
629.029	17.24
629.221	17.28
629.413	17.11
629.605	16.96
629.797	16.84
629.989	16.88
630.18	16.85
630.372	16.78
630.564	16.81
630.755	16.84
630.947	16.93
631.139	16.76
631.33	16.71
631.522	16.83
631.714	16.82
631.905	16.68
632.097	16.66
632.289	16.75
632.48	16.55
632.672	16.46
632.863	16.29
633.055	16.34
633.246	16.27
633.438	16.21
633.629	16.21
633.821	16.3
634.012	16.3
634.203	16.17
634.395	16.19
634.586	16.15
634.777	16.1
634.969	16.06
635.16	16.2
635.351	16.15
635.543	16.22
635.734	16.25
635.925	16.2
636.117	16.16
636.308	16.16
636.499	15.98
636.69	15.81
636.881	15.8
637.073	15.88
637.264	15.85
637.455	15.91
637.646	16.14
637.837	16.23
638.028	16.1
638.219	16.24
638.41	16.21
638.601	16.04
638.792	16
638.983	16.04
639.174	15.88
639.365	15.96
639.556	15.92
639.747	15.83
639.938	15.83
640.129	15.83
640.32	15.64
640.511	15.69
640.701	15.87
640.892	15.78
641.083	15.79
641.274	15.89
641.465	15.86
641.655	15.67
641.846	15.65
642.037	15.5
642.228	15.47
642.418	15.5
642.609	15.51
642.8	15.56
642.99	15.62
643.181	15.64
643.372	15.64
643.562	15.65
643.753	15.59
643.943	15.57
644.134	15.45
644.324	15.38
644.515	15.32
644.705	15.39
644.896	15.33
645.086	15.37
645.277	15.28
645.467	15.29
645.658	15.15
645.848	15.21
646.038	15.28
646.229	15.24
646.419	15.22
646.61	15.24
646.8	15.19
646.99	15.06
647.18	15.07
647.371	14.99
647.561	14.93
647.751	14.95
647.941	14.9
648.132	14.86
648.322	14.87
648.512	14.92
648.702	14.88
648.892	14.9
649.082	14.89
649.272	14.86
649.462	14.71
649.653	14.54
649.843	14.47
650.033	14.53
650.223	14.41
650.413	14.43
650.603	14.51
650.793	14.57
650.983	14.51
651.172	14.54
651.362	14.47
651.552	14.42
651.742	14.36
651.932	14.31
652.122	14.3
652.312	14.42
652.502	14.4
652.691	14.34
652.881	14.25
653.071	14.19
653.261	13.95
653.45	13.75
653.64	13.72
653.83	13.55
654.019	13.44
654.209	13.4
654.399	13.4
654.588	13.28
654.778	13.21
654.968	13.07
655.157	12.98
655.347	12.88
655.536	12.72
655.726	12.65
655.915	12.54
656.105	12.42
656.294	12.29
656.484	12.14
656.673	12
656.863	11.91
657.052	11.74
657.241	11.59
657.431	11.48
657.62	11.31
657.809	11.02
657.999	10.79
658.188	10.61
658.377	10.41
658.567	10.32
658.756	10.24
658.945	10.12
659.134	10
659.324	9.99
659.513	9.77
659.702	9.64
659.891	9.55
660.08	9.37
660.269	9.18
660.458	9.06
660.648	8.98
660.837	8.79
661.026	8.72
661.215	8.56
661.404	8.45
661.593	8.27
661.782	8.09
661.971	8.01
662.16	7.94
662.349	7.81
662.538	7.68
662.726	7.76
662.915	7.56
663.104	7.43
663.293	7.35
663.482	7.46
663.671	7.19
663.86	7.11
664.048	7.01
664.237	7.01
664.426	6.74
664.615	6.76
664.803	6.65
664.992	6.57
665.181	6.4
665.369	6.27
665.558	6.22
665.747	6.2
665.935	6.2
666.124	6.25
666.312	6.35
666.501	6.21
666.69	6.08
666.878	6.05
667.067	5.9
667.255	5.86
667.444	6.17
667.632	6.3
667.82	6.38
668.009	6.31
668.197	6.27
668.386	6.09
668.574	6.19
668.762	5.99
668.951	5.99
669.139	5.98
669.327	5.83
669.516	5.79
669.704	5.77
669.892	5.98
670.08	5.9
670.269	5.84
670.457	5.72
670.645	5.6
670.833	5.59
671.021	5.68
671.21	5.85
671.398	6.06
671.586	6.17
671.774	6.02
671.962	6.03
672.15	5.96
672.338	5.82
672.526	5.88
672.714	5.84
672.902	5.87
673.09	6.1
673.278	6.35
673.466	6.44
673.654	6.71
673.842	6.78
674.03	6.77
674.218	6.55
674.405	6.54
674.593	6.44
674.781	6.47
674.969	6.43
675.157	6.7
675.344	6.88
675.532	6.99
675.72	7.13
675.908	7.16
676.095	7.05
676.283	7.16
676.471	7.42
676.658	7.46
676.846	7.55
677.033	7.69
677.221	7.68
677.409	7.4
677.596	7.49
677.784	7.51
677.971	7.6
678.159	7.66
678.346	7.83
678.534	7.84
678.721	8.14
678.909	8.09
679.096	8.13
679.283	8.28
679.471	8.43
679.658	8.4
679.846	8.7
680.033	9.01
680.22	9.08
680.408	9.19
680.595	9.23
680.782	9.12
680.969	9.1
681.157	9.25
681.344	9.28
681.531	9.39
681.718	9.45
681.905	9.48
682.093	9.63
682.28	9.88
682.467	10.26
682.654	10.57
682.841	10.77
683.028	10.98
683.215	11.24
683.402	11.09
683.589	11.3
683.776	11.46
683.963	11.43
684.15	11.58
684.337	11.89
684.524	12.11
684.711	12.47
684.898	12.63
685.085	12.77
685.271	13.2
685.458	13.36
685.645	13.43
685.832	13.98
686.019	14.33
686.205	14.44
686.392	14.72
686.579	14.93
686.766	15.21
686.952	15.34
687.139	16.03
687.326	16.29
687.512	16.82
687.699	17.11
687.886	17.52
688.072	17.4
688.259	17.89
688.445	18.4
688.632	18.6
688.818	19.39
689.005	19.9
689.191	20.37
689.378	20.91
689.564	21.59
689.751	21.73
689.937	22.16
690.124	22.6
690.31	22.71
690.496	23.25
690.683	23.87
690.869	24.53
691.055	24.96
691.242	25.81
691.428	26.39
691.614	27
691.8	27.58
691.987	28.36
692.173	28.94
692.359	29.58
692.545	30.24
692.731	30.7
692.918	31.46
693.104	31.87
693.29	32.5
693.476	32.96
693.662	33.76
693.848	34.28
694.034	34.88
694.22	35.23
694.406	35.98
694.592	36.61
694.778	37.06
694.964	37.68
695.15	38.42
695.336	38.92
695.522	39.82
695.708	40.43
695.894	41.15
696.08	41.86
696.265	42.42
696.451	42.79
696.637	43.74
696.823	44.35
697.009	44.85
697.194	45.42
697.38	45.79
697.566	46.06
697.751	46.6
697.937	47.41
698.123	48.08
698.308	48.86
698.494	49.65
698.68	50.37
698.865	50.82
699.051	51.62
699.236	51.91
699.422	52.15
699.607	52.63
699.793	52.98
699.978	53
700.164	53.61
700.349	54.16
700.535	54.51
700.72	55.11
700.906	55.97
701.091	56.44
701.276	56.79
701.462	57.3
701.647	57.85
701.832	58.21
702.018	58.48
702.203	59.03
702.388	59.29
702.573	59.46
702.759	60.03
702.944	60.37
703.129	60.66
703.314	61.11
703.499	61.49
703.684	61.43
703.87	62.57
704.055	63.53
704.24	63.8
704.425	64.29
704.61	65.18
704.795	64.98
704.98	64.78
705.165	65.13
705.35	65.48
705.535	65.47
705.72	65.94
705.905	66.32
706.09	66.65
706.275	66.57
706.459	66.45
706.644	66.37
706.829	66.79
707.014	67.14
707.199	67.82
707.384	68.73
707.568	69.17
707.753	69.95
707.938	70.24
708.123	69.92
708.307	69.58
708.492	69.53
708.677	69.15
708.861	69.12
709.046	69.48
709.231	70.43
709.415	71.2
709.6	71.27
709.784	71.39
709.969	72.06
710.153	71.9
710.338	71.94
710.522	72.13
710.707	72.84
710.891	72.57
711.076	72.53
711.26	72.16
711.445	72.39
711.629	72.38
711.813	72.56
711.998	73.03
712.182	73.32
712.366	73.88
712.551	74.57
712.735	75.22
712.919	75.37
713.103	75.96
713.288	75.5
713.472	74.94
713.656	75.17
713.84	75.32
714.024	75.29
714.208	75.74
714.393	76.5
714.577	76.42
714.761	76.38
714.945	76.65
715.129	76.56
715.313	76.53
715.497	76.61
715.681	77.46
715.865	77.22
716.049	77.79
716.233	77.39
716.417	77.61
716.601	77.09
716.785	77.31
716.968	77.66
717.152	78.08
717.336	78.24
717.52	78.06
717.704	78.39
717.888	78.47
718.071	78.71
718.255	78.7
718.439	78.89
718.622	79.11
718.806	79.14
718.99	79.16
719.174	79.41
719.357	79.92
719.541	80.08
719.724	79.63
719.908	80.49
720.092	80.87
720.275	80.93
720.459	80.65
720.642	80.69
720.826	79.71
721.009	79.14
721.193	78.63
721.376	78.99
721.559	79.56
721.743	80.11
721.926	80.46
722.11	81.19
722.293	81.04
722.476	80.92
722.66	80.86
722.843	81.07
723.026	80.58
723.21	80.56
723.393	81.18
723.576	81.27
723.759	81
723.942	81.54
724.126	81.54
724.309	80.79
724.492	80.85
724.675	81.05
724.858	81.44
725.041	82.26
725.224	82.78
725.407	82.84
725.59	83.19
725.774	82.66
725.957	81.52
726.14	81.04
726.322	81.34
726.505	80.5
726.688	81.06
726.871	81.47
727.054	81.83
727.237	81.39
727.42	82.39
727.603	82.1
727.786	82.22
727.968	82.92
728.151	82.97
728.334	82.69
728.517	83.05
728.699	83.91
728.882	83.51
729.065	84.51
729.248	84.81
729.43	85.22
729.613	85.5
729.796	86.1
729.978	85.23
730.161	85.23
730.343	84.79
730.526	84.61
730.708	83.69
730.891	83.65
731.073	83.29
731.256	82.81
731.438	82.17
731.621	83.59
731.803	84.18
731.986	84.87
732.168	84.62
732.35	85.39
732.533	85.16
732.715	84.97
732.898	85.87
733.08	86.79
733.262	87.07
733.444	86.77
733.627	87.08
733.809	86.97
733.991	87.33
734.173	87.01
734.355	86.99
734.538	87.28
734.72	86.23
734.902	86.58
735.084	87.2
735.266	87.3
735.448	88.04
735.63	88.55
735.812	87.99
735.994	88.56
736.176	88.79
736.358	87.94
736.54	88.81
736.722	88.42
736.904	87.56
737.086	87.22
737.268	88
737.45	87.75
737.632	87.57
737.814	86.83
737.995	87.34
738.177	86.58
738.359	85.53
738.541	86.52
738.723	87.34
738.904	87.31
739.086	87.92
739.268	88.81
739.449	89.37
739.631	89.22
739.813	88.9
739.994	89.57
740.176	89.83
740.358	88.85
740.539	90.21
740.721	90.97
740.902	91.66
741.084	91.01
741.265	91.34
741.447	91.12
741.628	91.28
741.81	89.13
741.991	90.3
742.172	91.33
742.354	90.99
742.535	90.51
742.717	91.88
742.898	91.52
743.079	91.52
743.261	91.45
743.442	90.5
743.623	89.72
743.804	89.8
743.986	89.6
744.167	88.25
744.348	88.29
744.529	88.75
744.71	87.48
744.891	87.17
745.073	87.15
745.254	87.4
745.435	87.08
745.616	87.04
745.797	86.65
745.978	86.98
746.159	87.69
746.34	87.05
746.521	89.06
746.702	87.52
746.883	87.69
747.064	87.08
747.245	88.18
747.426	86.61
747.606	88.68
747.787	88.48
747.968	88.61
748.149	87.99
748.33	87.96
748.51	86.94
748.691	86.74
748.872	87.69
749.053	87.25
749.233	87.2
749.414	86.75
749.595	86.43
749.775	84.62
749.956	84.55
750.137	84.65
750.317	85.48
750.498	87.38
750.678	88.65
750.859	89.85
751.04	90.08
751.22	89.27
751.4	87.4
751.581	85.73
751.761	86.21
751.942	86.74
752.122	87.29
752.303	87.2
752.483	87.71
752.663	86.36
752.844	85.83
753.024	86.57
753.204	87.75
753.385	87.29
753.565	87.43
753.745	86.83
753.925	86.23
754.106	85.77
754.286	86.13
754.466	85.8
754.646	87.46
754.826	86.83
755.006	85.98
755.187	87.23
755.367	87.99
755.547	87.86
755.727	89.5
755.907	90.3
756.087	90.18
756.267	88.56
756.447	86.91
756.627	83.89
756.807	84.08
756.987	83.2
757.167	84.76
757.346	85.67
757.526	85.87
757.706	86.5
757.886	86.67
758.066	87.15
758.246	88.54
758.425	89.29
758.605	89.09
758.785	89.87
758.965	88.44
759.144	85.92
759.324	86.22
759.504	85.13
759.683	84.95
759.863	82.92
760.043	81.41
760.222	81.09
760.402	81.03
760.581	80.73
760.761	83.74
760.94	82.87
761.12	85.77
761.299	86.48
761.479	85.85
761.658	83.79
761.838	86.04
762.017	84.23
762.197	83.61
762.376	83.05
762.555	85.09
762.735	85.67
762.914	83.76
763.093	84.26
763.273	84.59
763.452	82.6
763.631	81.72
763.81	82.44
763.99	82.73
764.169	83.35
764.348	82.02
764.527	81.88
764.706	84.68
764.885	85.39
765.064	83.21
765.243	86.12
765.423	86.56
765.602	84.56
765.781	80.86
765.96	80.05
766.139	78.19
766.318	79.45
766.497	79.35
766.676	82.31
766.854	85.13
767.033	86.72
767.212	84.38
767.391	83
767.57	83.25
767.749	85.09
767.928	86.18
768.106	86.12
768.285	85.6
768.464	83.93
768.643	80.84
768.821	79.08
769	81.29
769.179	82.33
769.357	80.86
769.536	79.86
769.715	81.08
769.893	81.72
770.072	81.42
770.25	83.35
770.429	85.4
770.607	83.9
770.786	82.16
770.964	83.24
771.143	83.39
771.321	84.59
771.5	86.83
771.678	85.46
771.857	83.46
772.035	84.19
772.213	81.93
772.392	77.45
772.57	78.83
772.748	79.92
772.927	76.88
773.105	76.19
773.283	79.32
773.461	78.81
773.64	79.42
773.818	79.75
773.996	82.23
774.174	81.43
774.352	79.99
774.531	77.26
774.709	82.63
774.887	80.19
775.065	78.8
775.243	80.5
775.421	81.75
775.599	78.85
775.777	77.77
775.955	76.66
776.133	75.08
776.311	74.72
776.489	71.22
776.667	72.06
776.844	75.98
777.022	74.79
777.2	76.27
777.378	78.9
777.556	80.58
777.734	79.71
777.911	83.78
778.089	81.51
778.267	82.02
778.445	81.28
778.622	78.74
778.8	76.47
778.978	79.46
779.155	76.93
779.333	75.21
779.511	76.28
779.688	78.28
779.866	72.58
780.043	70.6
780.221	71.69
780.398	70.03
780.576	70.85
780.753	76.29
780.931	77.7
781.108	79.15
781.286	81.89
781.463	77.43
781.64	72.8
781.818	73.31
781.995	70.99
782.172	70.41
782.35	73.68
782.527	76.37
782.704	77.73
782.882	79.97
783.059	77.68
783.236	78.31
783.413	79.34
783.59	78.38
783.768	75.31
783.945	77.28
784.122	76.72
784.299	77.31
784.476	74.89
784.653	75.72
784.83	74.29
785.007	68.22
785.184	68.61
785.361	68.83
785.538	73.56
785.715	78.76
785.892	83.12
786.069	85.88
786.246	88.62
786.423	86.32
786.6	81.12
786.776	83.15
786.953	75.95
787.13	79.09
787.307	77.59
787.484	78.09
787.66	75.22
787.837	77.6
788.014	72.25
788.191	70.08
788.367	68.52
788.544	71.08
788.721	71.69
788.897	72.58
789.074	74.76
789.25	73.4
789.427	72.41
789.603	70.75
789.78	74.77
789.956	70.99
790.133	68.58
790.309	68.22
790.486	73.49
790.662	68.27
790.839	70.1
791.015	77.35
791.192	74.13
791.368	73.91
791.544	73.09
791.721	73.32
791.897	70.44
792.073	70.35
792.249	60.75
792.426	65.19
792.602	69.2
792.778	69.85
792.954	71.99
793.13	76.83
793.307	67.79
793.483	59.21
793.659	57.24
793.835	60.28
794.011	56.87
794.187	62.15
794.363	65.62
794.539	69.62
794.715	60.8
794.891	63.89
795.067	65.81
795.243	67.21
795.419	63.11
795.595	62.58
795.771	60.2
795.947	60.79
796.122	57.58
796.298	60.94
796.474	68.89
796.65	65.89
796.826	62.48
797.001	64.74
797.177	61.45
797.353	62.8
797.529	67.91
797.704	69.17
797.88	66.95
798.056	63.54
798.231	56.79
798.407	58.78
798.582	60.69
798.758	70.7
798.934	78.96
799.109	78.88
799.285	75.73
799.46	75.67
799.636	65.7
799.811	59.36
799.986	62.71
800.162	64.34
800.337	61
800.513	59.48
800.688	63.55
800.863	70.91
801.039	64.33
801.214	64.76
801.389	69.88
801.565	68.15
801.74	51.61
801.915	60.14
802.09	60.4
802.265	67.2
802.441	61.4
802.616	67.09
802.791	63.68
802.966	68.94
803.141	61.01
803.316	58.93
803.491	65.6
803.666	69.27
803.841	59.91
804.016	57.85
804.191	63.14
804.366	52.96
804.541	48.17
804.716	49.32
804.891	48.82
805.066	56.44
805.241	56.2
805.416	57.17
805.591	59.8
805.765	66.67
805.94	62.61
806.115	67.26
806.29	64.51
806.464	67.56
806.639	60.48
806.814	55.76
806.989	45.52
807.163	55.74
807.338	48.19
807.512	48.85
807.687	41.71
807.862	62.52
808.036	69.9
808.211	74.72
808.385	83.9
808.56	94.15
808.734	98.08
808.909	88.95
809.083	90.68
809.258	86.79
809.432	82.04
809.606	61.26
809.781	53.45
809.955	55.69
810.13	51
810.304	49.84
810.478	52.91
810.652	62.26
810.827	63.64
811.001	64.98
811.175	58.71
811.349	58.75
811.524	45.4
811.698	30.51
811.872	29.07
812.046	47.31
812.22	54.12
812.394	62.98
812.568	71.92
812.742	83.22
812.916	70.8
813.09	59.63
813.264	56.39
813.438	58.94
813.612	45.65
813.786	45.14
813.96	59.7
814.134	65.88
814.308	79.16
814.482	79.92
814.656	69.68
814.83	69.77
815.003	66.36
815.177	46.63
815.351	46.65
815.525	54.97
815.698	44.21
815.872	41.31
816.046	37.15
816.219	48.56
816.393	65.66
816.567	68.01
816.74	65.66
816.914	76.32
817.088	75.86
817.261	54.42
817.435	47.36
817.608	47.18
817.782	35.14
817.955	37.19
818.129	40.99
818.302	49.28
818.475	67.26
818.649	73.71
818.822	59.43
818.996	83.45
819.169	87.3
819.342	68.58
819.516	72.16
819.689	74.1
819.862	47.04
820.035	30.96
820.209	27.65
820.382	27.04
820.555	33.36
820.728	32.74
820.901	36.35
821.075	41.53
821.248	43.73
821.421	25.89
821.594	29.17
821.767	61.15
821.94	82.84
822.113	63.28
822.286	72.03
822.459	77.72
822.632	67.33
822.805	37.85
822.978	44.46
823.151	35.88
823.324	20.15
823.496	-9.61
823.669	-6.87
823.842	-6.81
824.015	-18.58
824.188	-13.82
824.361	2.92
824.533	1.34
824.706	1.11
824.879	1.21
825.051	17.41
825.224	14.95
825.397	-2.23
825.569	5.24
825.742	21.27
825.915	17
826.087	45.13
826.26	37.8
826.432	47.58
826.605	52.88
826.777	34.44
826.95	24.28
827.122	17.9
827.295	16.58
827.467	11.06
827.64	-4.5
827.812	-5.82
827.984	2.91
828.157	-27.82
828.329	-49.23
828.501	-28.6
828.674	-11.72
828.846	-15.4
829.018	28.58
829.19	25.64
829.363	65.28
829.535	81.47
829.707	73.1
829.879	41.36
830.051	35.44
830.223	2.06
830.395	-44.13
830.568	-20.5
830.74	-8.42
830.912	28.08
831.084	19.56
831.256	22.64
831.428	14.13
831.6	2.84
831.772	-51.03
831.943	-57.47
832.115	-18.99
832.287	6.5
832.459	9.93
832.631	32.49
832.803	61.24
832.975	94.3
833.146	87.04
833.318	76.96
833.49	98.26
833.662	59.47
833.833	8.08
834.005	3.91
834.177	26.88
834.348	22.07
834.52	23.81
834.692	31.87
834.863	33.65
835.035	7.46
835.206	-72.74
835.378	-38.97
835.549	-40.95
835.721	-16.45
835.892	-19.42
836.064	6.51
836.235	-0.73
836.407	24.08
836.578	-6.66
836.749	-2.29
836.921	-20.44
837.092	-73.46
837.264	-91.36
837.435	-97.91
837.606	-43.12
837.777	-4.71
837.949	17.94
838.12	36.74
838.291	41.19
838.462	33.05
838.633	4.49
838.805	2.63
838.976	-12.22
839.147	-57.17
839.318	-75.26
839.489	-122.46
839.66	-85.12
839.831	-19.45
840.002	-15.12
840.173	-29.21
840.344	11.6
840.515	-31.77
840.686	-251.88
840.857	-166.31
841.028	-116.78
841.199	-58.31
841.369	-64.02
841.54	-27.09
841.711	-3.69
841.882	25.05
842.053	8.9
842.223	-6.65
842.394	5.58
842.565	-1.72
842.736	-0.37
842.906	-9.6
843.077	13.37
843.248	20.86
843.418	16.64
843.589	-36.37
843.759	27.28
843.93	20.89
844.101	15.34
844.271	18.14
844.442	49.23
844.612	50
844.783	24.89
844.953	-17.93
845.123	-17.01
845.294	-31.75
845.464	-232.09
845.635	-59.84
845.805	45.07
845.975	24.45
846.146	-50.1
846.316	-31.77
846.486	-4.37
846.656	11.29
846.827	13.1
846.997	18.78
847.167	56.48
847.337	12.02
847.507	-19.41
847.677	-23.75
847.848	39.42
848.018	23.93
848.188	28.48
848.358	16
848.528	2.66
848.698	-52.05
848.868	-138.28
849.038	-235.82
849.208	-78.93
849.378	12.26
849.548	26.29
849.718	29.8
849.887	57.18
850.057	32.94
850.227	-16.81
850.397	-38.86
850.567	-130.35
850.737	-450.22
850.906	-1444.38
851.076	-916.8
851.246	-457.33
851.415	-30.17
851.585	-11.56
851.755	-39.82
851.924	-12.63
852.094	-33.31
852.264	-203.21
852.433	-1362.02
852.603	-268.94
852.772	-241.81
852.942	-117.82
853.111	-63.68
853.281	28.4
853.45	41.81
853.62	-45.92
853.789	-55.93
853.959	-24.71
854.128	-76.98
854.297	-69
854.467	-82.27
854.636	-30.92
854.805	10.57
854.975	3.01
855.144	-14.93
855.313	337.41
855.482	-179.93
855.652	-294.89
855.821	-231.25
855.99	-14.58
856.159	10.92
856.328	23.04
856.497	30.37
856.667	31.38
856.836	42.49
857.005	10.98
857.174	10.61
857.343	3.44
857.512	10.19
857.681	-92.42
857.85	-153.27
858.019	-89.27
858.188	-91.9
858.356	-90.5
858.525	-135.55
858.694	-92.51
858.863	-207.41
859.032	-109.6
859.201	-129.77
859.369	-53.7
859.538	-28.83
859.707	-25
859.876	-3.94
860.044	-33.49
860.213	14.08
860.382	-4.81
860.55	24.43
860.719	39.44
860.888	69.97
861.056	46.34
861.225	30.48
861.393	73.97
861.562	76.69
861.73	-34.67
861.899	-212.3
862.067	-2577.59
862.236	-152.25
862.404	-391.79
862.572	-197.5
862.741	-67.41
862.909	-22.44
863.078	-167.55
863.246	-87.19
863.414	-68.2
863.582	-41.23
863.751	-73.31
863.919	-60.54
864.087	-20.57
864.255	-27.64
864.424	-397.01
864.592	-55.07
864.76	-83.3
864.928	-163.6
865.096	-202.71
865.264	-119.81
865.432	-1739.77
865.6	-115.75
865.768	-144.13
865.936	-129.42
866.104	-126.39
866.272	-194.22
866.44	-467.91
866.608	649.18
866.776	305.86
866.944	2966.28
867.112	-460.38
867.28	-197.83
867.448	-65.83
867.615	5.2
867.783	23.62
867.951	-7.33
868.119	56.69
868.286	22.18
868.454	-127.85
868.622	-78.16
868.789	-90.41
868.957	-2703.57
869.125	-2006.58
869.292	-91.52
869.46	-126.72
869.627	38.95
869.795	-2.89
869.963	19.31
870.13	24.15
870.298	45.57
870.465	-54.92
870.632	-61.78
870.8	-31.76
870.967	-62.21
871.135	-187.85
871.302	-85.28
871.469	-40.6
871.637	-10.85
871.804	-44
871.971	-74.8
872.139	-374.19
872.306	-36.1
872.473	-76.64
872.64	-233.26
872.807	58.28
872.975	90.02
873.142	-41.64
873.309	479.73
873.476	106.25
873.643	146.94
873.81	76.97
873.977	107.98
874.144	96.71
874.311	26.71
874.478	-72.29
874.645	-108.56
874.812	-37.38
874.979	-17.77
875.146	-32.52
875.313	-43.8
875.48	50.97
875.647	18.08
875.813	-3.43
875.98	0.85
876.147	-19.42
876.314	-64.46
876.481	962.4
876.647	-1298.31
876.814	528.76
876.981	-39.42
877.147	-12.48
877.314	4.54
877.481	16.18
877.647	12.96
877.814	-42.28
877.98	-150.79
878.147	-42.39
878.314	50.69
878.48	29.38
878.647	55.52
878.813	102.57
878.979	83.32
879.146	-4.25
879.312	1.46
879.479	-58.39
879.645	-157.77
879.811	-377.76
879.978	-737.79
880.144	-208.29
880.31	-122.7
880.477	-378.57
880.643	-436.44
880.809	-213.21
880.975	-124.03
881.142	-657.73
881.308	-55.18
881.474	-9.76
881.64	-7.09
881.806	-158.12
881.972	-83.92
882.138	-83.79
882.304	-20.89
882.47	-135.41
882.636	-344.67
882.802	-92.83
882.968	39.98
883.134	25.73
883.3	22.19
883.466	42.02
883.632	89.47
883.798	33.56
883.964	-1.34
884.129	18.01
884.295	43.29
884.461	-54.64
884.627	-64.17
884.793	-69.65
884.958	-33.43
885.124	-95.51
885.29	-194.36
885.455	-259.47
885.621	-13.43
885.787	-61.05
885.952	-39.78
886.118	-15.15
886.283	-24.17
886.449	-132.29
886.614	-136.7
886.78	-334.81
886.945	1279.51
887.111	-728.61
887.276	-675.28
887.442	-1233.18
887.607	-438.92
887.773	-329.78
887.938	-286.03
888.103	-243.5
888.269	-190.81
888.434	-303.51
888.599	-116
888.764	-20.02
888.93	-16.94
889.095	-21.93
889.26	-100.17
889.425	-42.81
889.59	2.65
889.756	-54.2
889.921	-31.58
890.086	81.79
890.251	52.09
890.416	-122.31
890.581	-1089.52
890.746	88.04
890.911	464.65
891.076	240.88
891.241	-495.15
891.406	16.6
891.571	-34.24
891.736	-150.23
891.901	-146.46
892.065	76.37
892.23	69.31
892.395	166.83
892.56	272.4
892.725	-333.2
892.889	-1201.22
893.054	-260.41
893.219	-89.13
893.384	-25.71
893.548	-57.4
893.713	-69.31
893.878	-20.79
