Data from Ofra_2a_PS_2GT31_Reflection_3.txt Node
Date: Tue Jul 20 09:41:43 EDT 2021
User: Adam
Spectrometer: FLMT01687
Trigger mode: 0
Integration Time (sec): 9.450000E-1
Scans to average: 3
Electric dark correction enabled: true
Nonlinearity correction enabled: false
Boxcar width: 3
XAxis mode: Wavelengths
Number of Pixels in Spectrum: 3648
>>>>>Begin Spectral Data<<<<<
179.494	474.56
179.716	212.5
179.937	235.16
180.158	505.47
180.38	-138.95
180.601	-34.39
180.823	-8.08
181.044	3.78
181.265	-97.37
181.486	-89.6
181.708	-2776.09
181.929	-165.81
182.15	-646.59
182.372	-16.43
182.593	-15.58
182.814	368.56
183.035	482.44
183.257	224.84
183.478	124.58
183.699	128.74
183.92	68.79
184.141	75.56
184.363	77.37
184.584	62.01
184.805	51.09
185.026	61.89
185.247	32.53
185.468	51.85
185.689	48.29
185.91	27.44
186.132	27.59
186.353	14.21
186.574	19.98
186.795	13.95
187.016	11.17
187.237	5.57
187.458	-7.13
187.679	-14.52
187.9	7.09
188.121	-3.24
188.342	27.01
188.563	16.4
188.784	8.49
189.005	24.66
189.226	30.26
189.447	23.07
189.667	19.32
189.888	28.39
190.109	43.43
190.33	44.6
190.551	40.66
190.772	22.94
190.993	37.41
191.214	36.71
191.434	37.02
191.655	26.37
191.876	32.86
192.097	25.28
192.318	38.19
192.538	30.5
192.759	46.24
192.98	30.33
193.201	51.21
193.421	61.28
193.642	71.92
193.863	83.6
194.083	89.48
194.304	54.64
194.525	76.04
194.745	65.01
194.966	51.53
195.187	61.39
195.407	50.56
195.628	37.58
195.848	44.76
196.069	26.75
196.29	20.35
196.51	18.41
196.731	11.14
196.951	-0.87
197.172	3.57
197.392	26.54
197.613	29.84
197.833	27.58
198.054	25.8
198.274	13.37
198.495	45.83
198.715	56.25
198.936	65.03
199.156	49.23
199.377	67.46
199.597	54.79
199.817	51.37
200.038	37.24
200.258	38.24
200.479	37.16
200.699	47.52
200.919	34.87
201.14	52.11
201.36	71.93
201.58	61.34
201.801	56.35
202.021	49.37
202.241	51.48
202.461	46.49
202.682	54.25
202.902	51.17
203.122	47.19
203.342	49.94
203.563	56.86
203.783	52.27
204.003	58.82
204.223	53.44
204.443	39.25
204.663	50.43
204.884	42
205.104	40.57
205.324	49.7
205.544	56.45
205.764	54.59
205.984	65.54
206.204	60.04
206.424	61.82
206.644	57.51
206.864	48.94
207.084	59.46
207.304	51.56
207.525	46.03
207.745	51.05
207.964	46.71
208.184	41.73
208.404	37.9
208.624	6.35
208.844	5.77
209.064	9.11
209.284	15.97
209.504	20.88
209.724	11.54
209.944	21.53
210.164	41.11
210.384	50.24
210.604	58.44
210.823	27.63
211.043	28.65
211.263	53.28
211.483	50.64
211.703	46.62
211.922	39.81
212.142	53.78
212.362	65.27
212.582	64.04
212.801	48.47
213.021	49.76
213.241	43.54
213.461	53.39
213.68	42.79
213.9	37.22
214.12	31.93
214.339	28.98
214.559	30
214.779	42.28
214.998	42.47
215.218	53.9
215.438	66.09
215.657	66.92
215.877	74.89
216.096	70.7
216.316	59.98
216.535	62.59
216.755	36.44
216.974	20.6
217.194	8.92
217.413	29.31
217.633	25.8
217.852	19.26
218.072	11.69
218.291	41.27
218.511	39.19
218.73	48.19
218.95	40.12
219.169	42.65
219.389	40.46
219.608	44.25
219.827	40.74
220.047	65.87
220.266	53.18
220.485	44.51
220.705	41.02
220.924	54.5
221.143	47.08
221.363	43.13
221.582	30.21
221.801	39.24
222.021	35.9
222.24	31.6
222.459	23.91
222.678	33.71
222.897	38.76
223.117	47.15
223.336	44.33
223.555	44.64
223.774	69.45
223.993	75.61
224.213	64.34
224.432	78.93
224.651	67.68
224.87	61.34
225.089	72.08
225.308	52.7
225.527	36.03
225.746	32.71
225.965	15.9
226.184	17.82
226.404	3.24
226.623	7.22
226.842	21.16
227.061	33.87
227.28	57.35
227.499	58.67
227.718	52.6
227.936	52.41
228.155	48.12
228.374	44.38
228.593	43.46
228.812	30.22
229.031	9.3
229.25	20.95
229.469	31.72
229.688	31.86
229.907	32.96
230.125	24.54
230.344	27.79
230.563	40.19
230.782	33.54
231.001	36.79
231.22	34.44
231.438	41.24
231.657	56.73
231.876	53.73
232.095	58.52
232.313	66.88
232.532	58.31
232.751	62.56
232.969	64.89
233.188	62.22
233.407	65.55
233.625	54.14
233.844	50.63
234.063	41.39
234.281	37.33
234.5	22.71
234.719	22.13
234.937	23.77
235.156	35.18
235.374	39.28
235.593	43.66
235.811	44.62
236.03	57.77
236.249	45.84
236.467	46.63
236.686	42.44
236.904	37.38
237.123	48.58
237.341	50.07
237.559	48.1
237.778	58.88
237.996	53.12
238.215	48.32
238.433	49.7
238.652	36.63
238.87	39.82
239.088	28.38
239.307	23.28
239.525	19.52
239.743	16.54
239.962	9.37
240.18	33.97
240.398	41.47
240.617	48.97
240.835	57.15
241.053	64.28
241.271	67.35
241.49	55.05
241.708	47.74
241.926	25.83
242.144	36.63
242.363	30.24
242.581	29
242.799	21.13
243.017	28.52
243.235	13.45
243.453	17.4
243.672	8.6
243.89	12.94
244.108	14.58
244.326	18.31
244.544	34.84
244.762	39.74
244.98	43.64
245.198	47.75
245.416	51.08
245.634	53.32
245.852	47.5
246.07	43.37
246.288	48.3
246.506	57.94
246.724	55.71
246.942	40.76
247.16	38.84
247.378	45.04
247.596	37.57
247.814	22.85
248.032	21.5
248.25	31.41
248.468	44.25
248.685	54.17
248.903	41.49
249.121	59.73
249.339	70.36
249.557	72.55
249.775	51.45
249.992	37.2
250.21	25.76
250.428	20.26
250.646	9.65
250.863	7.47
251.081	-11.92
251.299	6.71
251.517	12.96
251.734	23.5
251.952	32.54
252.17	18.32
252.387	19.66
252.605	33.4
252.823	15.61
253.04	44.24
253.258	52.18
253.475	56.56
253.693	70.65
253.911	84.77
254.128	69.11
254.346	60.36
254.563	44.15
254.781	38.78
254.998	35.69
255.216	26.83
255.433	19.01
255.651	19.99
255.868	30.86
256.086	29.79
256.303	33.9
256.521	33.26
256.738	32.54
256.956	36.77
257.173	45.04
257.39	48.12
257.608	45.5
257.825	44.61
258.043	52.21
258.26	60.09
258.477	56.45
258.695	53.04
258.912	57.12
259.129	52.92
259.346	47.4
259.564	40.5
259.781	41.86
259.998	31.3
260.216	30.86
260.433	26.31
260.65	34.45
260.867	27.28
261.084	33
261.302	22.15
261.519	19.56
261.736	20.21
261.953	21.77
262.17	24.11
262.387	45.75
262.604	30.86
262.822	42.36
263.039	44.35
263.256	48.69
263.473	35.73
263.69	35.62
263.907	13.27
264.124	24.49
264.341	13.66
264.558	21.63
264.775	11.56
264.992	21.77
265.209	29.8
265.426	39.33
265.643	43.09
265.86	43.32
266.077	40.55
266.294	51.45
266.51	55.13
266.727	43.89
266.944	33.56
267.161	17.7
267.378	15.73
267.595	19.18
267.812	4.28
268.028	9.59
268.245	11.93
268.462	21.68
268.679	24.98
268.896	19.16
269.112	24.13
269.329	31.23
269.546	12.61
269.763	22.58
269.979	18.36
270.196	21.97
270.413	29.3
270.629	21.58
270.846	22.19
271.063	31.7
271.279	27.64
271.496	21.43
271.712	28.01
271.929	34.46
272.146	41.47
272.362	32.95
272.579	23.35
272.795	24.12
273.012	27.04
273.228	23.23
273.445	16.45
273.661	10.45
273.878	10.15
274.094	23.07
274.311	19.16
274.527	22.39
274.744	13.57
274.96	9.09
275.177	21.41
275.393	32.19
275.609	28.85
275.826	37.17
276.042	48.54
276.259	58.1
276.475	57.95
276.691	47.95
276.908	42.38
277.124	40.56
277.34	37.23
277.557	27.06
277.773	28.48
277.989	23.57
278.205	25.02
278.422	30.09
278.638	32.58
278.854	33.36
279.07	30.22
279.286	26.01
279.503	33.24
279.719	41.93
279.935	33.68
280.151	35.17
280.367	34.37
280.583	34.18
280.799	37.93
281.016	40.06
281.232	34
281.448	34.7
281.664	32.84
281.88	32.47
282.096	29.53
282.312	22.81
282.528	6.67
282.744	12.09
282.96	22.13
283.176	23.06
283.392	42.3
283.608	62.8
283.824	63.02
284.04	69.98
284.256	68.09
284.471	64.39
284.687	65.07
284.903	56.02
285.119	43.47
285.335	42.05
285.551	47.8
285.767	47.72
285.982	46.89
286.198	39.66
286.414	38.94
286.63	46.82
286.846	46.93
287.061	53.61
287.277	58.11
287.493	58.06
287.709	62.52
287.924	66.98
288.14	71.19
288.356	77.51
288.571	76.08
288.787	60
289.003	62.03
289.218	60.64
289.434	68.86
289.65	65.42
289.865	68.8
290.081	54.11
290.296	62.17
290.512	62.21
290.727	73.12
290.943	60.2
291.159	58.8
291.374	51.33
291.59	51.69
291.805	52.09
292.021	45.21
292.236	31.69
292.451	29.62
292.667	27.81
292.882	21.96
293.098	16.36
293.313	6.87
293.529	10.74
293.744	8.17
293.959	19.82
294.175	20.15
294.39	27.21
294.605	38.09
294.821	53.98
295.036	67.11
295.251	70.73
295.467	65.17
295.682	59
295.897	55.48
296.112	62.29
296.328	58.54
296.543	46.79
296.758	45.97
296.973	49
297.188	49.39
297.404	47.15
297.619	38.83
297.834	42.42
298.049	48.18
298.264	44.61
298.479	27.33
298.694	32.29
298.909	22.86
299.125	29.28
299.34	18.36
299.555	22.34
299.77	17.75
299.985	23.65
300.2	22.39
300.415	29.12
300.63	17.26
300.845	27.47
301.06	20.09
301.275	30.18
301.49	34.26
301.704	29.56
301.919	27.54
302.134	28.31
302.349	19.94
302.564	21.51
302.779	20.65
302.994	8.64
303.209	6.5
303.423	15.86
303.638	32.78
303.853	32.95
304.068	37.62
304.283	28.53
304.497	41.21
304.712	43.99
304.927	33.04
305.142	30.56
305.356	23.92
305.571	24.48
305.786	29.87
306	31.18
306.215	20.9
306.43	37.65
306.644	40.44
306.859	52.61
307.074	49.62
307.288	46.36
307.503	37.39
307.717	43.3
307.932	38.33
308.147	37.1
308.361	28.55
308.576	29.72
308.79	34.17
309.005	36.02
309.219	37.83
309.434	37.91
309.648	29.13
309.863	35.52
310.077	24.6
310.292	17.56
310.506	28.7
310.72	16.57
310.935	14.8
311.149	19.52
311.364	18.1
311.578	30.26
311.792	24.88
312.007	18.41
312.221	27.59
312.435	31.49
312.649	52.82
312.864	49.12
313.078	31.08
313.292	46.84
313.507	57.17
313.721	64.13
313.935	70.01
314.149	47.69
314.363	49.47
314.578	78.5
314.792	72.22
315.006	63.67
315.22	68.39
315.434	55.45
315.648	55.18
315.862	55.72
316.077	42.45
316.291	47.63
316.505	50.36
316.719	30.7
316.933	35.9
317.147	40.73
317.361	39.41
317.575	36.8
317.789	34.02
318.003	40.95
318.217	49.36
318.431	51.59
318.645	52.54
318.859	41.77
319.073	36.16
319.287	36.37
319.5	28.37
319.714	22.85
319.928	22.08
320.142	17.31
320.356	36.54
320.57	32.29
320.784	27.77
320.997	34.18
321.211	33.98
321.425	26.84
321.639	31
321.853	22
322.066	25.24
322.28	29.86
322.494	24.66
322.707	33.67
322.921	39.61
323.135	40.83
323.349	42.67
323.562	47.97
323.776	50.32
323.989	46.26
324.203	45.93
324.417	41.95
324.63	27.97
324.844	16.06
325.057	14.44
325.271	3.05
325.485	6.12
325.698	1.67
325.912	13.01
326.125	26.84
326.339	32.66
326.552	36.81
326.766	50.19
326.979	51.92
327.193	52.57
327.406	43.72
327.619	33.81
327.833	38.1
328.046	28.81
328.26	17.9
328.473	22.3
328.686	18.02
328.9	11.34
329.113	19.27
329.326	23.94
329.54	30.88
329.753	31.49
329.966	29.61
330.179	35.95
330.393	48.75
330.606	46.44
330.819	50.38
331.032	47.77
331.246	42
331.459	43.27
331.672	42.38
331.885	37.84
332.098	42.57
332.311	27.17
332.525	26.14
332.738	30.62
332.951	38.86
333.164	35.38
333.377	29.84
333.59	30.77
333.803	40.91
334.016	48.93
334.229	51.65
334.442	51.28
334.655	62.88
334.868	67.41
335.081	66.36
335.294	63.95
335.507	60.09
335.72	50.5
335.933	45.2
336.146	36.34
336.359	35.71
336.572	29.96
336.785	33.5
336.997	26.62
337.21	27.13
337.423	22.33
337.636	26.56
337.849	15.52
338.062	20.18
338.274	16.33
338.487	22.26
338.7	26.36
338.913	25.93
339.125	20.96
339.338	32.17
339.551	37.97
339.763	32.21
339.976	28.91
340.189	27.82
340.402	29.4
340.614	33.71
340.827	21.56
341.039	14.88
341.252	16.71
341.465	16.62
341.677	9.84
341.89	11.67
342.102	12.1
342.315	24.52
342.527	25.95
342.74	30
342.952	30.77
343.165	57.16
343.377	59.25
343.59	59.72
343.802	59.62
344.015	55.28
344.227	54.88
344.44	54.19
344.652	43.24
344.864	39.16
345.077	31.75
345.289	31.75
345.502	32.13
345.714	22.3
345.926	21.94
346.139	24.1
346.351	16.21
346.563	32.33
346.775	30.64
346.988	36.24
347.2	38
347.412	43.33
347.624	41.89
347.837	39.74
348.049	31.86
348.261	27.52
348.473	22.37
348.685	31.82
348.897	30.07
349.11	38.15
349.322	38.63
349.534	44.32
349.746	52.44
349.958	48.44
350.17	47.22
350.382	34.36
350.594	22.34
350.806	27.04
351.018	27.59
351.23	30.82
351.442	32.67
351.654	34.09
351.866	40.76
352.078	43.63
352.29	51.09
352.502	42.35
352.714	39.08
352.926	39.05
353.138	34.28
353.35	31.63
353.561	23.31
353.773	16.08
353.985	25.7
354.197	20.27
354.409	22.04
354.621	26.83
354.832	26.83
355.044	38.36
355.256	39.58
355.468	39.45
355.679	52.6
355.891	45.38
356.103	37.44
356.314	34.51
356.526	27.45
356.738	26.8
356.949	26.87
357.161	16.32
357.373	24.77
357.584	35.56
357.796	41.71
358.008	45.66
358.219	51.9
358.431	55.02
358.642	61.27
358.854	55.53
359.065	52.13
359.277	43.49
359.488	33.35
359.7	27.87
359.911	27.72
360.123	27.91
360.334	22.57
360.546	13.58
360.757	21.57
360.969	28.84
361.18	28.68
361.391	26.54
361.603	26.35
361.814	32.71
362.025	35.35
362.237	35.38
362.448	37.85
362.659	33.77
362.871	34.57
363.082	36.22
363.293	34.41
363.504	36
363.716	29.23
363.927	33.06
364.138	38.21
364.349	39.76
364.56	39.25
364.772	39.58
364.983	41.82
365.194	47.46
365.405	41.35
365.616	37.08
365.827	31.52
366.038	32.54
366.25	34.93
366.461	37.12
366.672	38.99
366.883	45.2
367.094	50.41
367.305	51.96
367.516	48.93
367.727	43.4
367.938	46.59
368.149	44.95
368.36	39.44
368.571	37.55
368.781	31.74
368.992	30.78
369.203	34.11
369.414	28.73
369.625	24.33
369.836	27.82
370.047	29.76
370.258	30.25
370.468	27.44
370.679	13.72
370.89	18.88
371.101	20.62
371.312	16.91
371.522	16.95
371.733	11.88
371.944	10.65
372.155	14.3
372.365	7.08
372.576	6.61
372.787	2.15
372.997	-5.62
373.208	9.19
373.419	10.12
373.629	17.8
373.84	18.55
374.05	17.64
374.261	21.05
374.472	24.24
374.682	15.07
374.893	17.39
375.103	21.22
375.314	26
375.524	29.62
375.735	25.31
375.945	20.96
376.156	27.07
376.366	25.47
376.577	18.24
376.787	16.19
376.997	16.3
377.208	16.93
377.418	18.15
377.629	17.98
377.839	22.14
378.049	30.79
378.26	27.59
378.47	27.19
378.68	29.11
378.89	25.91
379.101	17.15
379.311	12.7
379.521	15.73
379.732	9.92
379.942	13.44
380.152	14.58
380.362	22.63
380.572	30.11
380.783	32.24
380.993	25.81
381.203	28.31
381.413	30.47
381.623	37.4
381.833	34.91
382.043	26.92
382.253	27.85
382.463	35.11
382.674	41.08
382.884	35.07
383.094	27.97
383.304	27.01
383.514	33.33
383.724	29.5
383.934	21.1
384.144	18.02
384.353	19.04
384.563	17.45
384.773	19.21
384.983	18.34
385.193	20.69
385.403	25.13
385.613	25.31
385.823	23.46
386.033	24.47
386.242	22.18
386.452	18.28
386.662	16.75
386.872	15.08
387.082	11.13
387.291	12.24
387.501	14.27
387.711	13.06
387.921	14.69
388.13	14.38
388.34	13.37
388.55	16.94
388.759	15.34
388.969	12.9
389.179	16.79
389.388	14.94
389.598	13.15
389.807	12.36
390.017	11.67
390.227	12.25
390.436	10.87
390.646	9.66
390.855	11.12
391.065	11.76
391.274	12.12
391.484	12.63
391.693	13.49
391.903	13.38
392.112	11.78
392.322	12.51
392.531	13.62
392.74	12.17
392.95	11.19
393.159	10.81
393.369	11.57
393.578	11.7
393.787	10.67
393.997	11.04
394.206	11.36
394.415	11.81
394.625	10.63
394.834	9.83
395.043	9.87
395.252	10.3
395.462	9.1
395.671	9.2
395.88	8.69
396.089	8.68
396.298	8.64
396.508	8.38
396.717	8.07
396.926	8.12
397.135	7.71
397.344	7.63
397.553	8.01
397.762	8.13
397.971	8.15
398.181	7.42
398.39	7.48
398.599	7.87
398.808	8.02
399.017	7.99
399.226	8.06
399.435	7.95
399.644	8.15
399.853	8.06
400.062	7.97
400.27	8.13
400.479	8.03
400.688	7.93
400.897	8.06
401.106	8.04
401.315	7.84
401.524	7.78
401.733	7.69
401.941	7.6
402.15	7.45
402.359	7.38
402.568	7.37
402.777	7.42
402.985	7.12
403.194	6.93
403.403	6.65
403.612	6.66
403.82	6.68
404.029	6.66
404.238	6.67
404.446	6.82
404.655	6.7
404.864	6.89
405.072	6.87
405.281	6.64
405.489	6.66
405.698	6.51
405.906	6.52
406.115	6.68
406.324	6.47
406.532	6.51
406.741	6.63
406.949	6.55
407.158	6.64
407.366	6.64
407.574	6.59
407.783	6.59
407.991	6.42
408.2	6.43
408.408	6.41
408.617	6.39
408.825	6.38
409.033	6.25
409.242	6.22
409.45	6.3
409.658	6.2
409.867	6.2
410.075	6.1
410.283	6.02
410.491	6.04
410.7	6.09
410.908	6.07
411.116	5.96
411.324	5.9
411.533	5.84
411.741	5.78
411.949	5.8
412.157	5.77
412.365	5.74
412.573	5.83
412.781	5.87
412.99	5.94
413.198	6.01
413.406	5.94
413.614	5.98
413.822	5.99
414.03	5.82
414.238	5.88
414.446	5.88
414.654	5.78
414.862	5.75
415.07	5.68
415.278	5.55
415.486	5.77
415.694	5.59
415.902	5.54
416.109	5.61
416.317	5.55
416.525	5.62
416.733	5.68
416.941	5.55
417.149	5.67
417.357	5.7
417.564	5.62
417.772	5.64
417.98	5.58
418.188	5.56
418.395	5.56
418.603	5.44
418.811	5.33
419.019	5.32
419.226	5.33
419.434	5.2
419.642	5.2
419.849	5.16
420.057	5.22
420.265	5.28
420.472	5.2
420.68	5.15
420.887	5.15
421.095	5.15
421.302	5.2
421.51	5.19
421.717	5.14
421.925	5.11
422.132	5.05
422.34	5.15
422.547	5.1
422.755	5
422.962	4.88
423.17	4.87
423.377	5.01
423.585	5.07
423.792	5.03
423.999	4.98
424.207	4.97
424.414	5.08
424.621	5.15
424.829	4.95
425.036	4.9
425.243	4.97
425.451	5.01
425.658	5.05
425.865	4.93
426.072	4.96
426.28	5.02
426.487	5.05
426.694	4.98
426.901	4.94
427.108	4.96
427.315	4.93
427.523	4.87
427.73	4.92
427.937	5
428.144	4.97
428.351	4.99
428.558	4.91
428.765	4.99
428.972	4.95
429.179	4.89
429.386	4.87
429.593	4.84
429.8	4.94
430.007	5.06
430.214	5.07
430.421	5.06
430.628	5.02
430.835	5
431.042	5.08
431.249	5.09
431.456	5.07
431.662	5.11
431.869	5.2
432.076	5.28
432.283	5.23
432.49	5.2
432.697	5.17
432.903	5.19
433.11	5.19
433.317	5.14
433.524	5.07
433.73	5.2
433.937	5.18
434.144	5.31
434.35	5.33
434.557	5.36
434.764	5.39
434.97	5.57
435.177	5.54
435.384	5.66
435.59	5.63
435.797	5.63
436.003	5.63
436.21	5.58
436.416	5.54
436.623	5.64
436.829	5.62
437.036	5.59
437.242	5.61
437.449	5.66
437.655	5.79
437.862	5.81
438.068	5.79
438.275	5.78
438.481	5.92
438.687	6
438.894	5.98
439.1	6.05
439.307	6.05
439.513	6.08
439.719	6.12
439.926	6.08
440.132	6.08
440.338	6.2
440.544	6.13
440.751	6.17
440.957	6.23
441.163	6.31
441.369	6.31
441.575	6.3
441.782	6.26
441.988	6.33
442.194	6.43
442.4	6.45
442.606	6.41
442.812	6.49
443.018	6.53
443.224	6.53
443.431	6.54
443.637	6.48
443.843	6.52
444.049	6.53
444.255	6.52
444.461	6.47
444.667	6.51
444.873	6.52
445.079	6.63
445.284	6.61
445.49	6.62
445.696	6.64
445.902	6.77
446.108	6.78
446.314	6.84
446.52	6.8
446.726	6.8
446.931	6.83
447.137	6.86
447.343	6.85
447.549	6.9
447.755	6.92
447.96	6.92
448.166	6.96
448.372	7
448.578	7.07
448.783	7.07
448.989	7.09
449.195	7.09
449.4	7.09
449.606	7.1
449.812	7.15
450.017	7.11
450.223	7.13
450.428	7.14
450.634	7.13
450.84	7.16
451.045	7.16
451.251	7.17
451.456	7.14
451.662	7.13
451.867	7.16
452.073	7.2
452.278	7.22
452.483	7.29
452.689	7.31
452.894	7.34
453.1	7.31
453.305	7.29
453.51	7.36
453.716	7.38
453.921	7.36
454.127	7.33
454.332	7.34
454.537	7.45
454.742	7.47
454.948	7.44
455.153	7.43
455.358	7.5
455.563	7.55
455.769	7.62
455.974	7.56
456.179	7.52
456.384	7.54
456.589	7.63
456.795	7.55
457	7.54
457.205	7.49
457.41	7.5
457.615	7.56
457.82	7.61
458.025	7.52
458.23	7.58
458.435	7.58
458.64	7.67
458.845	7.67
459.05	7.67
459.255	7.68
459.46	7.74
459.665	7.79
459.87	7.84
460.075	7.85
460.28	7.92
460.485	7.99
460.69	7.88
460.895	7.92
461.099	7.88
461.304	7.92
461.509	7.86
461.714	7.89
461.919	7.91
462.123	8.04
462.328	8.04
462.533	8.07
462.738	8.05
462.942	8.18
463.147	8.16
463.352	8.19
463.556	8.22
463.761	8.26
463.966	8.33
464.17	8.39
464.375	8.35
464.58	8.45
464.784	8.48
464.989	8.56
465.193	8.64
465.398	8.65
465.602	8.74
465.807	8.81
466.011	8.86
466.216	8.87
466.42	8.91
466.625	8.93
466.829	8.96
467.034	8.95
467.238	8.99
467.443	8.98
467.647	9.04
467.851	9.06
468.056	9.06
468.26	9.14
468.464	9.13
468.669	9.19
468.873	9.22
469.077	9.25
469.282	9.3
469.486	9.34
469.69	9.38
469.894	9.51
470.099	9.53
470.303	9.56
470.507	9.6
470.711	9.58
470.915	9.69
471.119	9.7
471.324	9.65
471.528	9.72
471.732	9.77
471.936	9.86
472.14	9.94
472.344	9.95
472.548	10.03
472.752	10.17
472.956	10.21
473.16	10.23
473.364	10.23
473.568	10.25
473.772	10.37
473.976	10.41
474.18	10.4
474.384	10.44
474.588	10.52
474.792	10.6
474.995	10.67
475.199	10.7
475.403	10.74
475.607	10.83
475.811	10.9
476.015	10.94
476.218	10.94
476.422	10.99
476.626	10.95
476.83	11
477.033	11.08
477.237	11.12
477.441	11.19
477.644	11.29
477.848	11.31
478.052	11.42
478.255	11.45
478.459	11.47
478.663	11.48
478.866	11.5
479.07	11.53
479.273	11.57
479.477	11.6
479.681	11.63
479.884	11.62
480.088	11.63
480.291	11.69
480.495	11.73
480.698	11.79
480.901	11.77
481.105	11.86
481.308	11.89
481.512	11.94
481.715	11.93
481.919	11.99
482.122	11.98
482.325	12.07
482.529	12.09
482.732	12.15
482.935	12.21
483.138	12.28
483.342	12.29
483.545	12.32
483.748	12.33
483.952	12.3
484.155	12.37
484.358	12.37
484.561	12.37
484.764	12.37
484.967	12.39
485.171	12.38
485.374	12.46
485.577	12.44
485.78	12.43
485.983	12.46
486.186	12.47
486.389	12.48
486.592	12.51
486.795	12.49
486.998	12.55
487.201	12.58
487.404	12.63
487.607	12.62
487.81	12.65
488.013	12.7
488.216	12.72
488.419	12.65
488.622	12.65
488.825	12.62
489.028	12.64
489.231	12.65
489.433	12.61
489.636	12.62
489.839	12.69
490.042	12.69
490.245	12.73
490.447	12.74
490.65	12.77
490.853	12.84
491.056	12.83
491.258	12.86
491.461	12.87
491.664	12.82
491.866	12.87
492.069	12.87
492.272	12.83
492.474	12.84
492.677	12.81
492.879	12.84
493.082	12.93
493.285	12.97
493.487	12.95
493.69	12.96
493.892	13.03
494.095	13.05
494.297	13.13
494.5	13.13
494.702	13.12
494.905	13.17
495.107	13.21
495.309	13.17
495.512	13.22
495.714	13.23
495.917	13.26
496.119	13.32
496.321	13.38
496.524	13.41
496.726	13.43
496.928	13.44
497.13	13.49
497.333	13.55
497.535	13.57
497.737	13.58
497.939	13.64
498.142	13.68
498.344	13.7
498.546	13.73
498.748	13.72
498.95	13.71
499.152	13.72
499.355	13.75
499.557	13.87
499.759	13.97
499.961	14.02
500.163	14.11
500.365	14.16
500.567	14.21
500.769	14.27
500.971	14.24
501.173	14.27
501.375	14.26
501.577	14.28
501.779	14.36
501.981	14.4
502.183	14.43
502.385	14.46
502.587	14.51
502.788	14.54
502.99	14.57
503.192	14.62
503.394	14.68
503.596	14.74
503.798	14.86
503.999	14.88
504.201	15
504.403	15.1
504.605	15.19
504.806	15.23
505.008	15.27
505.21	15.29
505.411	15.37
505.613	15.4
505.815	15.42
506.016	15.48
506.218	15.5
506.42	15.59
506.621	15.65
506.823	15.69
507.024	15.73
507.226	15.8
507.427	15.75
507.629	15.82
507.83	15.86
508.032	15.9
508.233	15.95
508.435	15.99
508.636	15.98
508.838	16.11
509.039	16.21
509.24	16.24
509.442	16.26
509.643	16.28
509.845	16.35
510.046	16.41
510.247	16.47
510.448	16.49
510.65	16.54
510.851	16.6
511.052	16.68
511.254	16.7
511.455	16.74
511.656	16.77
511.857	16.79
512.058	16.84
512.26	16.87
512.461	16.94
512.662	16.97
512.863	17.03
513.064	17.04
513.265	17.1
513.466	17.2
513.667	17.25
513.868	17.24
514.069	17.29
514.27	17.35
514.471	17.45
514.672	17.45
514.873	17.49
515.074	17.53
515.275	17.62
515.476	17.66
515.677	17.71
515.878	17.73
516.079	17.81
516.28	17.76
516.481	17.8
516.682	17.79
516.882	17.82
517.083	17.85
517.284	17.85
517.485	17.89
517.686	17.96
517.886	17.99
518.087	18.08
518.288	18.07
518.488	18.07
518.689	18.14
518.89	18.21
519.091	18.24
519.291	18.27
519.492	18.27
519.692	18.36
519.893	18.42
520.094	18.42
520.294	18.37
520.495	18.41
520.695	18.43
520.896	18.44
521.096	18.43
521.297	18.44
521.497	18.48
521.698	18.55
521.898	18.6
522.099	18.63
522.299	18.65
522.499	18.69
522.7	18.71
522.9	18.72
523.101	18.73
523.301	18.74
523.501	18.77
523.702	18.82
523.902	18.85
524.102	18.88
524.302	18.97
524.503	18.98
524.703	18.98
524.903	19.02
525.103	19.07
525.304	19.12
525.504	19.12
525.704	19.06
525.904	19.12
526.104	19.2
526.304	19.18
526.504	19.19
526.705	19.19
526.905	19.23
527.105	19.29
527.305	19.29
527.505	19.29
527.705	19.34
527.905	19.34
528.105	19.38
528.305	19.43
528.505	19.47
528.705	19.52
528.905	19.54
529.105	19.58
529.304	19.65
529.504	19.65
529.704	19.66
529.904	19.69
530.104	19.71
530.304	19.75
530.503	19.75
530.703	19.81
530.903	19.86
531.103	19.86
531.303	19.88
531.502	19.89
531.702	19.86
531.902	19.9
532.101	19.86
532.301	19.86
532.501	19.92
532.7	19.96
532.9	20
533.1	20.09
533.299	20.16
533.499	20.2
533.698	20.29
533.898	20.34
534.097	20.32
534.297	20.35
534.496	20.35
534.696	20.35
534.895	20.43
535.095	20.48
535.294	20.49
535.494	20.6
535.693	20.67
535.892	20.72
536.092	20.78
536.291	20.8
536.491	20.84
536.69	20.89
536.889	20.86
537.088	20.85
537.288	20.92
537.487	20.97
537.686	21.04
537.886	21.02
538.085	21.06
538.284	21.13
538.483	21.19
538.682	21.23
538.882	21.23
539.081	21.26
539.28	21.3
539.479	21.35
539.678	21.43
539.877	21.51
540.076	21.59
540.275	21.61
540.474	21.63
540.673	21.71
540.872	21.78
541.071	21.83
541.27	21.81
541.469	21.83
541.668	21.96
541.867	22.07
542.066	22.12
542.265	22.14
542.464	22.21
542.663	22.33
542.862	22.39
543.06	22.49
543.259	22.51
543.458	22.54
543.657	22.63
543.856	22.69
544.054	22.74
544.253	22.83
544.452	22.79
544.651	22.85
544.849	22.94
545.048	23
545.247	23.07
545.445	23.08
545.644	23.08
545.843	23.2
546.041	23.27
546.24	23.35
546.438	23.39
546.637	23.5
546.836	23.62
547.034	23.71
547.233	23.79
547.431	23.86
547.63	23.94
547.828	24.06
548.027	24.11
548.225	24.22
548.423	24.35
548.622	24.45
548.82	24.55
549.019	24.62
549.217	24.71
549.415	24.82
549.614	24.86
549.812	24.92
550.01	25.01
550.209	25.13
550.407	25.26
550.605	25.37
550.803	25.4
551.002	25.49
551.2	25.61
551.398	25.69
551.596	25.77
551.794	25.87
551.993	25.95
552.191	26.14
552.389	26.28
552.587	26.39
552.785	26.51
552.983	26.6
553.181	26.67
553.379	26.77
553.577	26.84
553.775	26.92
553.973	27.01
554.171	27.08
554.369	27.23
554.567	27.38
554.765	27.44
554.963	27.56
555.161	27.69
555.359	27.79
555.557	27.95
555.755	28.07
555.952	28.2
556.15	28.4
556.348	28.52
556.546	28.64
556.744	28.74
556.941	28.83
557.139	28.94
557.337	29.05
557.535	29.16
557.732	29.28
557.93	29.43
558.128	29.6
558.325	29.74
558.523	29.83
558.721	29.96
558.918	30.09
559.116	30.21
559.313	30.37
559.511	30.46
559.708	30.59
559.906	30.67
560.104	30.81
560.301	30.92
560.498	31.07
560.696	31.14
560.893	31.3
561.091	31.4
561.288	31.6
561.486	31.7
561.683	31.8
561.88	31.92
562.078	32.05
562.275	32.13
562.473	32.3
562.67	32.4
562.867	32.52
563.064	32.69
563.262	32.88
563.459	32.99
563.656	33.18
563.853	33.3
564.051	33.45
564.248	33.62
564.445	33.72
564.642	33.75
564.839	33.91
565.036	34.01
565.234	34.14
565.431	34.24
565.628	34.3
565.825	34.43
566.022	34.51
566.219	34.56
566.416	34.71
566.613	34.9
566.81	34.98
567.007	35.11
567.204	35.17
567.401	35.42
567.598	35.54
567.795	35.61
567.991	35.7
568.188	35.82
568.385	35.91
568.582	35.96
568.779	35.99
568.976	36.07
569.172	36.15
569.369	36.12
569.566	36.16
569.763	36.23
569.96	36.39
570.156	36.42
570.353	36.55
570.55	36.63
570.746	36.69
570.943	36.89
571.14	36.91
571.336	36.91
571.533	36.95
571.729	36.95
571.926	36.98
572.123	37.02
572.319	36.95
572.516	37.02
572.712	37.15
572.909	37.26
573.105	37.39
573.302	37.41
573.498	37.51
573.695	37.63
573.891	37.69
574.087	37.66
574.284	37.68
574.48	37.67
574.677	37.73
574.873	37.79
575.069	37.78
575.266	37.83
575.462	37.88
575.658	37.96
575.854	37.96
576.051	37.97
576.247	37.98
576.443	38.05
576.639	38.02
576.835	37.98
577.032	37.97
577.228	38.04
577.424	38.03
577.62	38.06
577.816	38
578.012	38.04
578.208	38.11
578.404	38.14
578.6	38.13
578.796	38.2
578.993	38.16
579.189	38.15
579.384	38.16
579.58	38.09
579.776	38.09
579.972	38.05
580.168	38.02
580.364	38.02
580.56	38.1
580.756	38.07
580.952	38.11
581.148	38.06
581.343	38.08
581.539	38.05
581.735	38.05
581.931	38.06
582.127	38.08
582.322	38.12
582.518	38.14
582.714	38.06
582.909	38.12
583.105	38.11
583.301	38.04
583.496	38.02
583.692	37.99
583.888	38.02
584.083	38.1
584.279	38.09
584.474	38.02
584.67	38.04
584.866	38.08
585.061	38.11
585.257	38.06
585.452	38.08
585.648	38.09
585.843	38.17
586.039	38.2
586.234	38.16
586.429	38.17
586.625	38.2
586.82	38.13
587.015	38.13
587.211	38.14
587.406	38.19
587.601	38.2
587.797	38.11
587.992	38.11
588.187	38.21
588.383	38.24
588.578	38.22
588.773	38.21
588.968	38.28
589.163	38.37
589.359	38.39
589.554	38.35
589.749	38.3
589.944	38.37
590.139	38.38
590.334	38.38
590.529	38.51
590.724	38.53
590.919	38.67
591.114	38.83
591.309	38.86
591.504	38.93
591.699	38.96
591.894	38.95
592.089	39.04
592.284	39
592.479	39.02
592.674	39.1
592.869	39.2
593.064	39.34
593.259	39.32
593.454	39.37
593.648	39.49
593.843	39.55
594.038	39.62
594.233	39.66
594.428	39.74
594.622	39.86
594.817	39.92
595.012	39.98
595.206	40.03
595.401	40.12
595.596	40.17
595.79	40.21
595.985	40.27
596.18	40.37
596.374	40.48
596.569	40.63
596.763	40.72
596.958	40.76
597.153	40.86
597.347	40.97
597.542	41.06
597.736	41.15
597.931	41.18
598.125	41.24
598.319	41.35
598.514	41.38
598.708	41.44
598.903	41.54
599.097	41.6
599.291	41.71
599.486	41.8
599.68	41.85
599.874	41.94
600.069	42.01
600.263	41.99
600.457	42.06
600.651	42.08
600.846	42.09
601.04	42.13
601.234	42.16
601.428	42.12
601.622	42.22
601.817	42.21
602.011	42.27
602.205	42.34
602.399	42.37
602.593	42.41
602.787	42.52
602.981	42.53
603.175	42.56
603.369	42.63
603.563	42.62
603.757	42.59
603.951	42.58
604.145	42.52
604.339	42.51
604.533	42.52
604.727	42.45
604.921	42.38
605.115	42.41
605.309	42.45
605.502	42.55
605.696	42.56
605.89	42.53
606.084	42.48
606.278	42.43
606.471	42.39
606.665	42.3
606.859	42.15
607.053	42.06
607.246	42.02
607.44	41.98
607.634	42
607.827	41.91
608.021	41.87
608.214	41.88
608.408	41.84
608.602	41.74
608.795	41.68
608.989	41.64
609.182	41.62
609.376	41.54
609.569	41.4
609.763	41.43
609.956	41.34
610.15	41.32
610.343	41.25
610.537	41.21
610.73	41.2
610.923	41.16
611.117	41.03
611.31	40.98
611.504	40.91
611.697	40.83
611.89	40.75
612.083	40.65
612.277	40.58
612.47	40.45
612.663	40.38
612.856	40.22
613.05	40.09
613.243	40.03
613.436	40
613.629	39.93
613.822	39.84
614.015	39.79
614.209	39.76
614.402	39.69
614.595	39.6
614.788	39.49
614.981	39.43
615.174	39.41
615.367	39.32
615.56	39.24
615.753	39.25
615.946	39.17
616.139	39.1
616.332	38.99
616.525	38.99
616.718	38.94
616.911	38.87
617.103	38.78
617.296	38.8
617.489	38.79
617.682	38.78
617.875	38.59
618.067	38.55
618.26	38.56
618.453	38.49
618.646	38.37
618.838	38.3
619.031	38.29
619.224	38.31
619.417	38.24
619.609	38.15
619.802	38.15
619.994	38.06
620.187	37.99
620.38	37.93
620.572	37.98
620.765	37.93
620.957	37.89
621.15	37.85
621.342	37.87
621.535	37.89
621.727	37.83
621.92	37.71
622.112	37.73
622.305	37.7
622.497	37.6
622.69	37.54
622.882	37.55
623.074	37.55
623.267	37.56
623.459	37.54
623.651	37.52
623.844	37.58
624.036	37.62
624.228	37.6
624.42	37.58
624.613	37.56
624.805	37.52
624.997	37.57
625.189	37.55
625.381	37.46
625.574	37.34
625.766	37.35
625.958	37.32
626.15	37.33
626.342	37.22
626.534	37.09
626.726	37.1
626.918	37.04
627.11	36.96
627.302	36.88
627.494	36.83
627.686	36.8
627.878	36.74
628.07	36.68
628.262	36.68
628.454	36.63
628.646	36.62
628.838	36.57
629.029	36.49
629.221	36.55
629.413	36.49
629.605	36.47
629.797	36.45
629.989	36.45
630.18	36.38
630.372	36.38
630.564	36.33
630.755	36.33
630.947	36.3
631.139	36.14
631.33	36.12
631.522	36.15
631.714	36.15
631.905	36.1
632.097	36.08
632.289	36
632.48	36.01
632.672	35.89
632.863	35.8
633.055	35.72
633.246	35.66
633.438	35.59
633.629	35.66
633.821	35.67
634.012	35.69
634.203	35.75
634.395	35.77
634.586	35.83
634.777	35.85
634.969	35.73
635.16	35.72
635.351	35.7
635.543	35.64
635.734	35.6
635.925	35.63
636.117	35.65
636.308	35.71
636.499	35.71
636.69	35.75
636.881	35.71
637.073	35.72
637.264	35.57
637.455	35.57
637.646	35.51
637.837	35.45
638.028	35.44
638.219	35.45
638.41	35.37
638.601	35.4
638.792	35.3
638.983	35.27
639.174	35.29
639.365	35.22
639.556	35.15
639.747	35.18
639.938	35.21
640.129	35.15
640.32	35.09
640.511	35.03
640.701	35.03
640.892	35.04
641.083	34.95
641.274	34.9
641.465	34.94
641.655	34.98
641.846	34.93
642.037	34.88
642.228	34.8
642.418	34.79
642.609	34.76
642.8	34.73
642.99	34.68
643.181	34.73
643.372	34.75
643.562	34.74
643.753	34.69
643.943	34.6
644.134	34.6
644.324	34.52
644.515	34.48
644.705	34.46
644.896	34.38
645.086	34.33
645.277	34.41
645.467	34.32
645.658	34.36
645.848	34.29
646.038	34.18
646.229	34.23
646.419	34.29
646.61	34.18
646.8	34.17
646.99	34.16
647.18	34.11
647.371	34.1
647.561	34.02
647.751	33.94
647.941	33.94
648.132	33.92
648.322	33.93
648.512	33.95
648.702	33.92
648.892	33.96
649.082	33.96
649.272	33.9
649.462	33.88
649.653	33.87
649.843	33.8
650.033	33.79
650.223	33.73
650.413	33.68
650.603	33.67
650.793	33.53
650.983	33.4
651.172	33.37
651.362	33.3
651.552	33.15
651.742	33.11
651.932	33.08
652.122	33.08
652.312	32.98
652.502	32.93
652.691	32.91
652.881	32.92
653.071	32.82
653.261	32.68
653.45	32.6
653.64	32.51
653.83	32.35
654.019	32.14
654.209	31.98
654.399	31.81
654.588	31.68
654.778	31.54
654.968	31.37
655.157	31.18
655.347	31.07
655.536	30.87
655.726	30.78
655.915	30.55
656.105	30.38
656.294	30.2
656.484	30.13
656.673	29.95
656.863	29.79
657.052	29.45
657.241	29.26
657.431	29.04
657.62	28.79
657.809	28.5
657.999	28.28
658.188	28.03
658.377	27.9
658.567	27.68
658.756	27.44
658.945	27.24
659.134	26.98
659.324	26.74
659.513	26.48
659.702	26.2
659.891	25.98
660.08	25.78
660.269	25.52
660.458	25.32
660.648	25.1
660.837	24.89
661.026	24.68
661.215	24.41
661.404	24.12
661.593	23.89
661.782	23.65
661.971	23.39
662.16	23.15
662.349	22.88
662.538	22.7
662.726	22.47
662.915	22.26
663.104	21.93
663.293	21.68
663.482	21.44
663.671	21.26
663.86	21.05
664.048	20.83
664.237	20.6
664.426	20.48
664.615	20.25
664.803	20.04
664.992	19.87
665.181	19.64
665.369	19.45
665.558	19.33
665.747	19.14
665.935	19.02
666.124	18.9
666.312	18.71
666.501	18.51
666.69	18.36
666.878	18.17
667.067	18.04
667.255	17.93
667.444	17.78
667.632	17.67
667.82	17.57
668.009	17.53
668.197	17.44
668.386	17.25
668.574	17.1
668.762	17
668.951	16.88
669.139	16.84
669.327	16.71
669.516	16.66
669.704	16.65
669.892	16.6
670.08	16.5
670.269	16.47
670.457	16.38
670.645	16.33
670.833	16.27
671.021	16.22
671.21	16.26
671.398	16.33
671.586	16.33
671.774	16.28
671.962	16.25
672.15	16.22
672.338	16.25
672.526	16.18
672.714	16.14
672.902	16.14
673.09	16.16
673.278	16.26
673.466	16.38
673.654	16.42
673.842	16.49
674.03	16.57
674.218	16.6
674.405	16.72
674.593	16.78
674.781	16.76
674.969	16.82
675.157	16.86
675.344	16.84
675.532	17.05
675.72	17.07
675.908	17.15
676.095	17.37
676.283	17.46
676.471	17.58
676.658	17.8
676.846	17.88
677.033	18.08
677.221	18.22
677.409	18.28
677.596	18.48
677.784	18.62
677.971	18.71
678.159	18.8
678.346	18.93
678.534	19.06
678.721	19.17
678.909	19.33
679.096	19.51
679.283	19.7
679.471	19.89
679.658	20.04
679.846	20.24
680.033	20.48
680.22	20.62
680.408	20.81
680.595	21.01
680.782	21.22
680.969	21.41
681.157	21.53
681.344	21.74
681.531	21.99
681.718	22.2
681.905	22.5
682.093	22.77
682.28	23.06
682.467	23.37
682.654	23.62
682.841	23.84
683.028	24.31
683.215	24.64
683.402	24.84
683.589	25.31
683.776	25.64
683.963	25.98
684.15	26.41
684.337	26.65
684.524	26.98
684.711	27.46
684.898	27.73
685.085	28.22
685.271	28.7
685.458	29.14
685.645	29.53
685.832	29.98
686.019	30.46
686.205	30.97
686.392	31.36
686.579	31.73
686.766	32.2
686.952	32.82
687.139	33.28
687.326	33.72
687.512	34.19
687.699	34.78
687.886	35.19
688.072	35.77
688.259	36.23
688.445	36.77
688.632	37.43
688.818	37.98
689.005	38.53
689.191	39.21
689.378	39.68
689.564	40.2
689.751	40.84
689.937	41.36
690.124	42.03
690.31	42.53
690.496	43.11
690.683	43.83
690.869	44.37
691.055	44.94
691.242	45.35
691.428	45.86
691.614	46.49
691.8	46.98
691.987	47.49
692.173	48.26
692.359	48.91
692.545	49.61
692.731	50.26
692.918	50.88
693.104	51.56
693.29	52.29
693.476	52.73
693.662	53.2
693.848	53.8
694.034	54.12
694.22	54.7
694.406	55.21
694.592	55.47
694.778	56
694.964	56.49
695.15	56.98
695.336	57.72
695.522	58.18
695.708	58.76
695.894	59.34
696.08	59.82
696.265	60.18
696.451	60.76
696.637	61.02
696.823	61.35
697.009	61.88
697.194	62.42
697.38	62.84
697.566	63.39
697.751	63.81
697.937	64.35
698.123	64.81
698.308	65.23
698.494	65.52
698.68	65.97
698.865	66.45
699.051	66.76
699.236	67.07
699.422	67.45
699.607	67.63
699.793	68.03
699.978	68.23
700.164	68.47
700.349	68.6
700.535	68.83
700.72	69.09
700.906	69.32
701.091	69.47
701.276	69.83
701.462	70.22
701.647	70.51
701.832	70.95
702.018	71.01
702.203	71.36
702.388	71.44
702.573	71.71
702.759	71.85
702.944	72.2
703.129	72.42
703.314	72.86
703.499	72.99
703.684	73.56
703.87	73.66
704.055	73.75
704.24	73.95
704.425	74.12
704.61	74.3
704.795	74.48
704.98	74.56
705.165	74.72
705.35	74.97
705.535	75.12
705.72	75.02
705.905	74.97
706.09	75.14
706.275	75.14
706.459	75.48
706.644	75.51
706.829	75.67
707.014	75.94
707.199	76.08
707.384	76.23
707.568	76.5
707.753	76.7
707.938	76.85
708.123	76.98
708.307	77.23
708.492	77.51
708.677	77.75
708.861	77.83
709.046	77.67
709.231	77.88
709.415	77.81
709.6	77.6
709.784	77.69
709.969	77.78
710.153	78.21
710.338	78.33
710.522	78.37
710.707	78.15
710.891	78.45
711.076	78.52
711.26	78.55
711.445	78.19
711.629	78.45
711.813	78.44
711.998	78.86
712.182	79.05
712.366	79.36
712.551	79.44
712.735	79.37
712.919	79.35
713.103	79.52
713.288	79.74
713.472	79.72
713.656	79.37
713.84	79.27
714.024	79.71
714.208	79.56
714.393	79.68
714.577	79.72
714.761	79.8
714.945	79.87
715.129	80
715.313	79.91
715.497	80.36
715.681	80.55
715.865	80.52
716.049	80.57
716.233	80.86
716.417	81.12
716.601	81.07
716.785	81.01
716.968	80.69
717.152	80.77
717.336	80.82
717.52	80.75
717.704	80.77
717.888	80.91
718.071	80.8
718.255	80.97
718.439	80.85
718.622	80.76
718.806	80.72
718.99	80.94
719.174	80.95
719.357	81.11
719.541	81.41
719.724	81.63
719.908	81.63
720.092	81.97
720.275	81.78
720.459	81.88
720.642	81.71
720.826	81.69
721.009	81.57
721.193	81.85
721.376	81.89
721.559	81.85
721.743	81.88
721.926	81.82
722.11	81.94
722.293	81.53
722.476	81.59
722.66	81.28
722.843	81.27
723.026	81.23
723.21	81.54
723.393	81.48
723.576	82.12
723.759	82.18
723.942	82.53
724.126	82.63
724.309	82.93
724.492	82.98
724.675	83.05
724.858	83.15
725.041	82.99
725.224	82.84
725.407	82.87
725.59	82.58
725.774	82.64
725.957	83.03
726.14	82.73
726.322	82.98
726.505	83.38
726.688	83.43
726.871	83.76
727.054	84
727.237	83.46
727.42	84.07
727.603	83.88
727.786	83.82
727.968	84.21
728.151	83.91
728.334	83.68
728.517	84
728.699	83.87
728.882	84.26
729.065	84.19
729.248	83.82
729.43	83.76
729.613	83.7
729.796	83.53
729.978	83.43
730.161	83.47
730.343	83.68
730.526	83.71
730.708	84.1
730.891	84.39
731.073	84.44
731.256	84.52
731.438	84.81
731.621	84.97
731.803	85.45
731.986	85.66
732.168	85.66
732.35	85.65
732.533	85.67
732.715	85.24
732.898	85.23
733.08	85.32
733.262	85.37
733.444	85.2
733.627	85.23
733.809	85.62
733.991	85.79
734.173	85.6
734.355	85.75
734.538	85.6
734.72	85.78
734.902	85.87
735.084	85.65
735.266	85.86
735.448	86.05
735.63	85.84
735.812	85.88
735.994	85.71
736.176	86
736.358	86.48
736.54	86.01
736.722	85.91
736.904	85.86
737.086	85.97
737.268	86.57
737.45	86.5
737.632	85.78
737.814	86.04
737.995	86.23
738.177	86.65
738.359	86.67
738.541	85.96
738.723	86.18
738.904	85.95
739.086	86.32
739.268	86.55
739.449	86.25
739.631	86.44
739.813	86.58
739.994	86.68
740.176	87.31
740.358	87.06
740.539	86.56
740.721	86.39
740.902	85.91
741.084	86.22
741.265	85.82
741.447	85.02
741.628	85.15
741.81	85.44
741.991	85.86
742.172	86.12
742.354	86.31
742.535	86.29
742.717	86.85
742.898	86.96
743.079	86.37
743.261	86.05
743.442	86.24
743.623	86.03
743.804	85.88
743.986	85.67
744.167	85.11
744.348	85.65
744.529	85.29
744.71	84.77
744.891	85
745.073	85.35
745.254	85.59
745.435	85.55
745.616	85.39
745.797	85.95
745.978	87.11
746.159	86.61
746.34	86.61
746.521	86.81
746.702	86.85
746.883	86.96
747.064	86.68
747.245	85.32
747.426	85.71
747.606	85.63
747.787	85.87
747.968	86.59
748.149	86.71
748.33	86.76
748.51	87.28
748.691	87.31
748.872	87.36
749.053	86.57
749.233	86.12
749.414	86.02
749.595	85.83
749.775	85.89
749.956	85.24
750.137	84.69
750.317	84.88
750.498	84.91
750.678	84.88
750.859	84.38
751.04	84.03
751.22	84.08
751.4	84.67
751.581	84.64
751.761	85.06
751.942	85.02
752.122	85.18
752.303	85.64
752.483	86.3
752.663	86.5
752.844	86
753.024	85.46
753.204	85.34
753.385	85.57
753.565	84.98
753.745	84.59
753.925	83.8
754.106	84.42
754.286	84.21
754.466	84.68
754.646	84.33
754.826	84.35
755.006	84.21
755.187	84.55
755.367	83.89
755.547	84.29
755.727	83.55
755.907	83.76
756.087	83.83
756.267	83.64
756.447	83.9
756.627	84.52
756.807	84.74
756.987	85.6
757.167	85.73
757.346	85.35
757.526	85.76
757.706	85.38
757.886	85.48
758.066	85.07
758.246	84.3
758.425	84.43
758.605	85.15
758.785	84.63
758.965	83.77
759.144	84.29
759.324	84.48
759.504	84.59
759.683	84.24
759.863	83.65
760.043	83.93
760.222	84.8
760.402	84.49
760.581	83.97
760.761	83.45
760.94	82.77
761.12	82.57
761.299	82.27
761.479	82.71
761.658	81.73
761.838	81.94
762.017	82.24
762.197	83.47
762.376	83.83
762.555	84.05
762.735	82.41
762.914	83.18
763.093	82.93
763.273	82.97
763.452	82.06
763.631	81.65
763.81	82.03
763.99	82.94
764.169	82.68
764.348	83.18
764.527	83.03
764.706	83.57
764.885	84.22
765.064	83.59
765.243	83.78
765.423	84.74
765.602	83.77
765.781	83.28
765.96	83.56
766.139	83.27
766.318	84.05
766.497	84.01
766.676	83.79
766.854	83.54
767.033	83.97
767.212	83.3
767.391	83.4
767.57	82.81
767.749	82.96
767.928	82.12
768.106	82.38
768.285	82.39
768.464	82.61
768.643	82.97
768.821	82.77
769	82.39
769.179	81.86
769.357	81.89
769.536	81.22
769.715	80.68
769.893	80
770.072	80.5
770.25	80.06
770.429	80.81
770.607	81.61
770.786	82.28
770.964	82.27
771.143	82.94
771.321	82.32
771.5	83.25
771.678	83.15
771.857	82.6
772.035	82.42
772.213	82.92
772.392	82.93
772.57	83.38
772.748	82.73
772.927	82.47
773.105	82.56
773.283	82.43
773.461	82.41
773.64	81.56
773.818	80.42
773.996	80.65
774.174	80.61
774.352	80.67
774.531	79.83
774.709	79.82
774.887	79.36
775.065	80.46
775.243	80.33
775.421	79.97
775.599	78.73
775.777	80.37
775.955	79.89
776.133	79.77
776.311	78.63
776.489	78.41
776.667	78.85
776.844	79.47
777.022	79.01
777.2	79.33
777.378	79.53
777.556	81.61
777.734	81.3
777.911	81.77
778.089	81.11
778.267	80.84
778.445	79.35
778.622	79.4
778.8	77.78
778.978	78.14
779.155	76.36
779.333	76.11
779.511	76.2
779.688	76.23
779.866	75.49
780.043	76.1
780.221	76.07
780.398	77.11
780.576	77.4
780.753	76.03
780.931	77.79
781.108	79.03
781.286	77.76
781.463	77.65
781.64	78.11
781.818	77.95
781.995	79.2
782.172	78.5
782.35	78.32
782.527	80.22
782.704	80.17
782.882	79.98
783.059	80.42
783.236	79.75
783.413	80.5
783.59	79.27
783.768	76.79
783.945	77.48
784.122	76.85
784.299	77.92
784.476	79.28
784.653	77.52
784.83	77.32
785.007	77.22
785.184	76.36
785.361	76.21
785.538	76.97
785.715	75.52
785.892	76.32
786.069	77.52
786.246	77.37
786.423	79.06
786.6	80.59
786.776	78.51
786.953	78.44
787.13	78.97
787.307	78.57
787.484	81.31
787.66	78.57
787.837	77.25
788.014	77.7
788.191	77.87
788.367	76.99
788.544	78.36
788.721	78.55
788.897	81.3
789.074	80.27
789.25	81.66
789.427	82.24
789.603	83.92
789.78	82.47
789.956	79.34
790.133	77.47
790.309	78.72
790.486	79.72
790.662	79.35
790.839	80.98
791.015	81.09
791.192	81.26
791.368	84.57
791.544	84.92
791.721	83.24
791.897	83.77
792.073	79.97
792.249	82.27
792.426	83.61
792.602	78.8
792.778	77.34
792.954	78.25
793.13	78.01
793.307	78.32
793.483	77.17
793.659	77.34
793.835	77.87
794.011	77
794.187	73.74
794.363	74.75
794.539	75.18
794.715	74.17
794.891	71.95
795.067	73.24
795.243	74.77
795.419	77.1
795.595	73.79
795.771	74.16
795.947	72.98
796.122	74.72
796.298	74.6
796.474	75.03
796.65	74.18
796.826	78.36
797.001	77.28
797.177	79.11
797.353	81.19
797.529	80.34
797.704	79.25
797.88	77.58
798.056	77.59
798.231	76.68
798.407	73.08
798.582	70.98
798.758	73.63
798.934	75.21
799.109	73.17
799.285	70.49
799.46	73.63
799.636	78.18
799.811	80.01
799.986	80.75
800.162	81.86
800.337	83.68
800.513	85.47
800.688	86.96
800.863	85.93
801.039	82.99
801.214	80.5
801.389	77.03
801.565	82.01
801.74	81.33
801.915	79.69
802.09	78.88
802.265	78.91
802.441	79.79
802.616	81.97
802.791	80.51
802.966	80.28
803.141	76.32
803.316	77.2
803.491	75.58
803.666	74.01
803.841	75.1
804.016	73.75
804.191	73.38
804.366	76.04
804.541	73.06
804.716	73.06
804.891	74.61
805.066	71.12
805.241	69.23
805.416	68.51
805.591	70.32
805.765	72.65
805.94	76.13
806.115	72.77
806.29	73.36
806.464	73.38
806.639	74.48
806.814	68.46
806.989	65.85
807.163	64.86
807.338	67.33
807.512	65.99
807.687	65.08
807.862	65.15
808.036	67.9
808.211	72.71
808.385	69.91
808.56	72.22
808.734	73.35
808.909	73.98
809.083	72.7
809.258	77
809.432	72.62
809.606	73.79
809.781	71.04
809.955	75.41
810.13	78.64
810.304	76.46
810.478	73.6
810.652	80.57
810.827	81.96
811.001	79.62
811.175	76.13
811.349	74.8
811.524	76.41
811.698	75.97
811.872	72.09
812.046	71.43
812.22	70.81
812.394	70.54
812.568	71.48
812.742	68.78
812.916	69.99
813.09	71.54
813.264	73.86
813.438	82.6
813.612	83.13
813.786	81.15
813.96	81.23
814.134	82.79
814.308	76.71
814.482	74.25
814.656	73.42
814.83	72.73
815.003	75.69
815.177	79.19
815.351	77.58
815.525	76.96
815.698	77.42
815.872	73.2
816.046	72.96
816.219	70.53
816.393	62.45
816.567	61.76
816.74	64.25
816.914	67.39
817.088	69.74
817.261	70.79
817.435	66.53
817.608	73
817.782	77.39
817.955	79.98
818.129	82.06
818.302	80.22
818.475	77.71
818.649	75.65
818.822	81.27
818.996	82.45
819.169	82.59
819.342	72.93
819.516	71.24
819.689	75.95
819.862	79.3
820.035	72.53
820.209	64.09
820.382	62.66
820.555	67.6
820.728	68.49
820.901	61.49
821.075	62.43
821.248	64.6
821.421	65.9
821.594	67.13
821.767	67.21
821.94	61.23
822.113	62.85
822.286	63.93
822.459	68.95
822.632	67.11
822.805	63.67
822.978	60.05
823.151	72.96
823.324	67.58
823.496	62.06
823.669	59.5
823.842	62.82
824.015	60.5
824.188	61.92
824.361	52.3
824.533	62.43
824.706	70.65
824.879	70.34
825.051	75.98
825.224	73.7
825.397	75.02
825.569	79.8
825.742	75.45
825.915	75.66
826.087	70.49
826.26	69.63
826.432	80.39
826.605	75.13
826.777	73.06
826.95	68.47
827.122	66.59
827.295	69.79
827.467	62.3
827.64	52.23
827.812	53.06
827.984	55.51
828.157	64.75
828.329	63.98
828.501	71.22
828.674	76.5
828.846	78.11
829.018	74.3
829.19	71.02
829.363	70.21
829.535	69.81
829.707	56.01
829.879	58.41
830.051	57.92
830.223	57.34
830.395	57.71
830.568	58.02
830.74	61.3
830.912	69.04
831.084	62.32
831.256	63.28
831.428	64.18
831.6	57.87
831.772	52.07
831.943	48.45
832.115	49.18
832.287	46.54
832.459	48.92
832.631	56.38
832.803	65.71
832.975	70.12
833.146	67.45
833.318	70.43
833.49	80.76
833.662	79.71
833.833	80.83
834.005	79.61
834.177	80.22
834.348	81.72
834.52	88.99
834.692	82.66
834.863	78.04
835.035	73.1
835.206	70.89
835.378	66.14
835.549	62
835.721	54.92
835.892	54.12
836.064	59.75
836.235	61.44
836.407	64.39
836.578	71.17
836.749	74.67
836.921	76.17
837.092	85.38
837.264	77.79
837.435	70.64
837.606	66.21
837.777	51.68
837.949	55.64
838.12	52.17
838.291	52.11
838.462	57.75
838.633	63.64
838.805	63.41
838.976	70.5
839.147	59.53
839.318	47.4
839.489	42.2
839.66	45.12
839.831	38.59
840.002	34.72
840.173	41.64
840.344	53.5
840.515	65.98
840.686	64.38
840.857	62.96
841.028	71.25
841.199	73.07
841.369	62.78
841.54	60.93
841.711	67.11
841.882	75.55
842.053	69.91
842.223	82.48
842.394	83.69
842.565	90.53
842.736	93.82
842.906	97.01
843.077	82.46
843.248	83.71
843.418	77.51
843.589	72.14
843.759	77.14
843.93	71.8
844.101	61.81
844.271	56.87
844.442	53.04
844.612	53.94
844.783	45.16
844.953	27.22
845.123	42.95
845.294	58.48
845.464	66.23
845.635	78.54
845.805	74.06
845.975	77.33
846.146	73.41
846.316	81.36
846.486	84.38
846.656	86.96
846.827	80.52
846.997	86.83
847.167	87.03
847.337	96.65
847.507	82.43
847.677	80.6
847.848	77.64
848.018	79.21
848.188	75.45
848.358	88.13
848.528	86.54
848.698	77.38
848.868	65.71
849.038	79.26
849.208	73.43
849.378	63.78
849.548	57.74
849.718	75.56
849.887	74.8
850.057	82.11
850.227	73.87
850.397	76.56
850.567	83.7
850.737	87.61
850.906	69.96
851.076	75.05
851.246	64.68
851.415	60.16
851.585	50.51
851.755	60.66
851.924	67.8
852.094	71.86
852.264	72.2
852.433	72.92
852.603	86.44
852.772	90.97
852.942	73.41
853.111	66.85
853.281	57.19
853.45	57.04
853.62	50.49
853.789	33.14
853.959	28.75
854.128	26.79
854.297	25.45
854.467	22.04
854.636	23.69
854.805	49.06
854.975	72.05
855.144	84.68
855.313	91.99
855.482	92.29
855.652	107.73
855.821	105.4
855.99	109.94
856.159	85.74
856.328	73.17
856.497	72.72
856.667	76.86
856.836	68.53
857.005	66.47
857.174	72.44
857.343	74.89
857.512	57.82
857.681	55.85
857.85	48.44
858.019	49.6
858.188	46.31
858.356	19.11
858.525	48.43
858.694	72.24
858.863	65.38
859.032	59.49
859.201	68.49
859.369	70.89
859.538	67.15
859.707	50.61
859.876	38.16
860.044	38.82
860.213	38.79
860.382	32.77
860.55	38.57
860.719	57.67
860.888	56.17
861.056	76.58
861.225	82.38
861.393	85.15
861.562	80.85
861.73	71.94
861.899	56.42
862.067	61.27
862.236	51.18
862.404	51.84
862.572	44.53
862.741	48.52
862.909	54.63
863.078	53.79
863.246	59.63
863.414	51.84
863.582	46.98
863.751	56.97
863.919	62.05
864.087	59.54
864.255	60.77
864.424	67.89
864.592	78.89
864.76	71.58
864.928	75.45
865.096	61.03
865.264	58.52
865.432	62.26
865.6	39.99
865.768	34.95
865.936	42.82
866.104	50.29
866.272	72.97
866.44	72.57
866.608	60.58
866.776	77.75
866.944	67.99
867.112	44.12
867.28	25.97
867.448	30.54
867.615	22.2
867.783	19.06
867.951	14.46
868.119	34.77
868.286	53.48
868.454	51.99
868.622	56.27
868.789	74.87
868.957	84.98
869.125	74.84
869.292	86.98
869.46	82.09
869.627	75.93
869.795	63.13
869.963	64.1
870.13	66
870.298	68.89
870.465	46.3
870.632	77.24
870.8	70.23
870.967	67.08
871.135	56.39
871.302	48.77
871.469	52.44
871.637	52.26
871.804	45.04
871.971	48.74
872.139	48.94
872.306	42.88
872.473	38.83
872.64	33.54
872.807	42.11
872.975	63.55
873.142	67.66
873.309	71.84
873.476	136.08
873.643	171.44
873.81	122.93
873.977	84.87
874.144	77.56
874.311	44.8
874.478	31.18
874.645	37.99
874.812	34.11
874.979	57.53
875.146	33.43
875.313	-14.49
875.48	73.2
875.647	74.08
875.813	37.86
875.98	51.12
876.147	47.13
876.314	85.04
876.481	69.35
876.647	50.6
876.814	61.81
876.981	60.69
877.147	51.81
877.314	55.39
877.481	44.46
877.647	52.83
877.814	44.17
877.98	35.42
878.147	53.53
878.314	52.31
878.48	52.27
878.647	68.06
878.813	72.43
878.979	84.87
879.146	72.3
879.312	90.13
879.479	92.78
879.645	80.23
879.811	73.13
879.978	93.65
880.144	101.85
880.31	95.54
880.477	63.45
880.643	80.78
880.809	148.68
880.975	95.05
881.142	62.21
881.308	75.22
881.474	136.77
881.64	103.14
881.806	86.08
881.972	99.86
882.138	93.06
882.304	62.18
882.47	55.74
882.636	-9.3
882.802	25.2
882.968	-4.82
883.134	-148.01
883.3	-17.91
883.466	23.92
883.632	-1.7
883.798	23.14
883.964	8.44
884.129	23.27
884.295	40.58
884.461	51.67
884.627	94.42
884.793	106.13
884.958	102.26
885.124	99.85
885.29	61.85
885.455	38.52
885.621	35.37
885.787	23.93
885.952	9.43
886.118	27.58
886.283	44.15
886.449	34.46
886.614	59.83
886.78	56.55
886.945	57.04
887.111	66.83
887.276	40.39
887.442	37.63
887.607	55.74
887.773	39.66
887.938	37.3
888.103	46.7
888.269	55.47
888.434	74.1
888.599	64.39
888.764	63.46
888.93	76.12
889.095	64.84
889.26	92.63
889.425	98.94
889.59	65.94
889.756	70.54
889.921	59.44
890.086	70.6
890.251	64.34
890.416	7.24
890.581	6.48
890.746	14.79
890.911	2.34
891.076	-12.01
891.241	-33.13
891.406	38.77
891.571	40.99
891.736	40.71
891.901	75.87
892.065	62.23
892.23	81.06
892.395	54.98
892.56	54.01
892.725	78.01
892.889	70.35
893.054	15.81
893.219	38.8
893.384	-19.7
893.548	-25
893.713	255.94
893.878	228.8
