Data from Ofra_PS_T2_1A_1GT43_Reflection_3.txt Node
Date: Wed Jul 21 17:49:49 EDT 2021
User: Adam
Spectrometer: FLMT01687
Trigger mode: 0
Integration Time (sec): 1.100000E0
Scans to average: 2
Electric dark correction enabled: true
Nonlinearity correction enabled: false
Boxcar width: 2
XAxis mode: Wavelengths
Number of Pixels in Spectrum: 3648
>>>>>Begin Spectral Data<<<<<
179.494	558.4
179.716	632.24
179.937	638.91
180.158	647.5
180.38	1088.12
180.601	456.35
180.823	207.42
181.044	-60.66
181.265	93.38
181.486	16.35
181.708	101.39
181.929	277.55
182.15	-538.03
182.372	117.23
182.593	10.1
182.814	60.24
183.035	111.48
183.257	81.28
183.478	-58.3
183.699	38.75
183.92	9
184.141	6.47
184.363	-24.85
184.584	42.46
184.805	33.16
185.026	58.32
185.247	64.31
185.468	53.23
185.689	70.71
185.91	50.58
186.132	21.42
186.353	25.76
186.574	69.35
186.795	73.36
187.016	29.79
187.237	29.35
187.458	-5.02
187.679	-28.17
187.9	-64.39
188.121	-49.58
188.342	-28.11
188.563	22.64
188.784	57.25
189.005	80.65
189.226	160.25
189.447	134.5
189.667	81.07
189.888	-92.12
190.109	-846.75
190.33	-604.52
190.551	-1216.81
190.772	-237.05
190.993	-243.68
191.214	-153.49
191.434	-103.96
191.655	-17.42
191.876	-82.24
192.097	-106.12
192.318	-160.66
192.538	-176.25
192.759	-144.14
192.98	-22.41
193.201	18.9
193.421	18.89
193.642	27.26
193.863	42.12
194.083	3.25
194.304	-17.75
194.525	-15.12
194.745	-50.49
194.966	-105.61
195.187	-89.21
195.407	-109.31
195.628	-161.45
195.848	-148.44
196.069	-124.15
196.29	-40.35
196.51	-50.17
196.731	-61.72
196.951	-81.97
197.172	-83.37
197.392	-156.15
197.613	-143.7
197.833	-136.92
198.054	-121.88
198.274	-71.43
198.495	-80.15
198.715	-41.53
198.936	-52.48
199.156	-32.12
199.377	-101.01
199.597	-109.05
199.817	-149.6
200.038	-102.76
200.258	-192.05
200.479	-115.15
200.699	-102.47
200.919	-31.44
201.14	-8.78
201.36	4.72
201.58	36.01
201.801	63.53
202.021	37.15
202.241	23.4
202.461	22.88
202.682	-79.29
202.902	-163.7
203.122	-107.74
203.342	-83.67
203.563	-27.59
203.783	12.88
204.003	-22.18
204.223	-12.26
204.443	48.57
204.663	-18.37
204.884	-7.02
205.104	42.48
205.324	70.63
205.544	54.38
205.764	79.59
205.984	62.42
206.204	57.27
206.424	43.11
206.644	-11.6
206.864	-4.58
207.084	-20.18
207.304	-23.71
207.525	-176.56
207.745	-46.34
207.964	0.25
208.184	-33.16
208.404	-67.51
208.624	-61.67
208.844	-70.24
209.064	-329.95
209.284	-393.52
209.504	-193.81
209.724	-23.51
209.944	-2
210.164	32.33
210.384	48.34
210.604	28.61
210.823	-34.84
211.043	-63.68
211.263	-46.64
211.483	-54.38
211.703	-87.34
211.922	-57.01
212.142	11.79
212.362	21.01
212.582	8.53
212.801	10.75
213.021	-22.1
213.241	-40.12
213.461	-91.95
213.68	-117.3
213.9	-86.24
214.12	-54.12
214.339	-110.9
214.559	-71.07
214.779	-16.75
214.998	-15.33
215.218	-34.26
215.438	-1.09
215.657	-10.35
215.877	-18.55
216.096	-4.26
216.316	-9.15
216.535	-9.45
216.755	-18.95
216.974	-112.48
217.194	-160.51
217.413	-151.68
217.633	-176.39
217.852	-242.03
218.072	-87.39
218.291	-22.59
218.511	29.56
218.73	10.98
218.95	-9.92
219.169	-10.74
219.389	-66.1
219.608	-61.8
219.827	-50.82
220.047	-24.54
220.266	-10.95
220.485	-1.25
220.705	13.94
220.924	-19.03
221.143	20.85
221.363	-11.92
221.582	5.9
221.801	12.67
222.021	41.71
222.24	-19.41
222.459	47.33
222.678	-0.15
222.897	-49.53
223.117	-106.98
223.336	-119.78
223.555	-64
223.774	-21.5
223.993	2.65
224.213	62.38
224.432	49.34
224.651	49.16
224.87	21.91
225.089	28.65
225.308	14.14
225.527	37.86
225.746	35.2
225.965	23.96
226.184	-1.06
226.404	17.55
226.623	-14.22
226.842	-10.87
227.061	25.6
227.28	25.06
227.499	2.2
227.718	25.48
227.936	13.74
228.155	15.44
228.374	17.19
228.593	35.16
228.812	29.14
229.031	26.67
229.25	-34.41
229.469	-44.33
229.688	-52.1
229.907	-3.5
230.125	23.9
230.344	43.61
230.563	66.06
230.782	81.12
231.001	-0.09
231.22	-10.34
231.438	17.27
231.657	-3.26
231.876	-30.01
232.095	38.65
232.313	33.98
232.532	5.51
232.751	-40.7
232.969	-45.68
233.188	-135.89
233.407	-47.91
233.625	-22.72
233.844	-32.31
234.063	-31.29
234.281	-12.2
234.5	-25.49
234.719	-22.38
234.937	3.23
235.156	6.96
235.374	9.63
235.593	-3.76
235.811	-28.05
236.03	-39.72
236.249	-70.51
236.467	-71.47
236.686	-26.96
236.904	-12.1
237.123	-36.74
237.341	-33.15
237.559	-18.08
237.778	-46.24
237.996	-64.16
238.215	-18.59
238.433	2.54
238.652	-12.6
238.87	-26.01
239.088	-10.21
239.307	-15.16
239.525	-31.97
239.743	-49.78
239.962	-19.22
240.18	-51.7
240.398	-97.58
240.617	-86.24
240.835	-77.14
241.053	-63.87
241.271	11.06
241.49	42.78
241.708	24.46
241.926	21.05
242.144	23.12
242.363	-63.77
242.581	-79.86
242.799	-36.07
243.017	4.14
243.235	-33.82
243.453	-2.92
243.672	-12.54
243.89	-18.51
244.108	-29.64
244.326	12.21
244.544	17.97
244.762	16.68
244.98	26.66
245.198	15.71
245.416	-35.38
245.634	-62.4
245.852	-68.72
246.07	-103.18
246.288	-76.02
246.506	-75.5
246.724	-23.38
246.942	-10.53
247.16	28.65
247.378	40.62
247.596	41.83
247.814	39.16
248.032	14.48
248.25	1.95
248.468	-4.36
248.685	18.94
248.903	35.14
249.121	41.33
249.339	22.49
249.557	-3.85
249.775	0.29
249.992	-54.32
250.21	-58.03
250.428	-43.79
250.646	-64.38
250.863	-90.62
251.081	-67.88
251.299	-68.55
251.517	-51.27
251.734	-39.01
251.952	-44.03
252.17	-35.58
252.387	-12.34
252.605	-22.63
252.823	1.84
253.04	24.36
253.258	46.99
253.475	34.84
253.693	65.16
253.911	51.13
254.128	52.54
254.346	46.04
254.563	33.17
254.781	-8.41
254.998	-27.49
255.216	-39.39
255.433	-41.11
255.651	-3.73
255.868	37.76
256.086	57.57
256.303	48.47
256.521	47.06
256.738	23.02
256.956	-11.01
257.173	-35.74
257.39	-59.17
257.608	-74.83
257.825	-3.94
258.043	30.16
258.26	26.96
258.477	82.7
258.695	68.01
258.912	-17.6
259.129	-3.47
259.346	-25.48
259.564	-88.2
259.781	-84.04
259.998	-15.54
260.216	-6.04
260.433	38.68
260.65	52.17
260.867	48.74
261.084	21.81
261.302	9.33
261.519	-6.97
261.736	-34.73
261.953	-43.27
262.17	-8.3
262.387	-58.27
262.604	-86.47
262.822	-94.58
263.039	-80.31
263.256	-153.1
263.473	-75.02
263.69	-54.54
263.907	-2.52
264.124	9.54
264.341	22.73
264.558	8.02
264.775	12.55
264.992	-13.08
265.209	3.32
265.426	30.83
265.643	30.47
265.86	43.46
266.077	45.78
266.294	18.36
266.51	-29.28
266.727	-24.5
266.944	-15.09
267.161	-26.33
267.378	-19.77
267.595	14.37
267.812	-16.92
268.028	-39.57
268.245	-8.88
268.462	-37.05
268.679	-57.59
268.896	-6.45
269.112	-1.5
269.329	-6.86
269.546	5.83
269.763	1.97
269.979	-16.65
270.196	-31.42
270.413	-76.1
270.629	-94.86
270.846	-81.07
271.063	-72.45
271.279	-78.74
271.496	-53.1
271.712	-21.51
271.929	-9.4
272.146	-14.2
272.362	5.36
272.579	30.37
272.795	30.87
273.012	36.1
273.228	37.74
273.445	9.58
273.661	-15.23
273.878	-67.56
274.094	-85.39
274.311	-125.13
274.527	-30.72
274.744	-32.21
274.96	-20.56
275.177	-2.04
275.393	23.24
275.609	7.39
275.826	31.07
276.042	26.16
276.259	20.34
276.475	35.27
276.691	36.91
276.908	12.14
277.124	21.27
277.34	22.89
277.557	8.89
277.773	-12.38
277.989	-16.25
278.205	-20.63
278.422	-21.25
278.638	-18.37
278.854	12.28
279.07	26.27
279.286	11.94
279.503	-3.11
279.719	-18.73
279.935	-64.42
280.151	-92.58
280.367	-51.15
280.583	-63.7
280.799	-29.39
281.016	-44
281.232	-11.13
281.448	-18.09
281.664	19.37
281.88	-19.56
282.096	3.62
282.312	22.52
282.528	50.45
282.744	44.28
282.96	45.49
283.176	34.97
283.392	23.11
283.608	4.9
283.824	-6.41
284.04	-1.38
284.256	9.13
284.471	8.9
284.687	12.31
284.903	37.65
285.119	82.91
285.335	56.92
285.551	83.7
285.767	62.65
285.982	28.7
286.198	-20.78
286.414	25.61
286.63	20.09
286.846	35.82
287.061	26.4
287.277	54.74
287.493	28.1
287.709	33.3
287.924	14.14
288.14	56.6
288.356	34.53
288.571	54.47
288.787	42.35
289.003	51.47
289.218	17.56
289.434	-28.13
289.65	-19.42
289.865	-31.45
290.081	-10.15
290.296	1
290.512	24.7
290.727	-22.11
290.943	-29.95
291.159	-40.65
291.374	-40.01
291.59	-61.09
291.805	-42.42
292.021	-20.25
292.236	-20.52
292.451	1.35
292.667	14.12
292.882	20.66
293.098	9.51
293.313	-9.83
293.529	-53.73
293.744	-91.93
293.959	-83.89
294.175	-64.89
294.39	-15.91
294.605	9.22
294.821	39.51
295.036	47.9
295.251	55.26
295.467	15.34
295.682	-5.45
295.897	-52.47
296.112	-76.34
296.328	-93.9
296.543	-90.87
296.758	-82.81
296.973	-19.41
297.188	29.45
297.404	4.11
297.619	-10.66
297.834	-20.83
298.049	-52.92
298.264	-91.26
298.479	-17.65
298.694	-9.87
298.909	13.5
299.125	13.43
299.34	19.15
299.555	-6.72
299.77	4.97
299.985	-34.66
300.2	-83.32
300.415	-110.53
300.63	-73.64
300.845	-81.9
301.06	-75.79
301.275	-29.34
301.49	0.28
301.704	-25.51
301.919	-33.7
302.134	-45.76
302.349	-44.77
302.564	-117.9
302.779	-116.38
302.994	-53.76
303.209	-48.52
303.423	-23.25
303.638	53.07
303.853	16.9
304.068	-8.03
304.283	-4.52
304.497	-4.56
304.712	-31.94
304.927	-15.78
305.142	-17.94
305.356	-4.39
305.571	-14.79
305.786	-11.52
306	-20.43
306.215	-31.14
306.43	-44.84
306.644	-26.75
306.859	41.04
307.074	43.41
307.288	25.28
307.503	33.87
307.717	8.48
307.932	-19.93
308.147	-30.37
308.361	4.09
308.576	-19.87
308.79	-70.74
309.005	-66.27
309.219	-38.23
309.434	-52.5
309.648	-44.21
309.863	-0.68
310.077	9.98
310.292	5.71
310.506	9.62
310.72	14.62
310.935	22.43
311.149	12.62
311.364	19.65
311.578	32.43
311.792	21.49
312.007	20.82
312.221	4.14
312.435	4.11
312.649	-7.11
312.864	17.59
313.078	17.32
313.292	68.93
313.507	37.55
313.721	29.99
313.935	17.3
314.149	8.37
314.363	-1.46
314.578	-0.84
314.792	12.46
315.006	3.26
315.22	17.61
315.434	22.97
315.648	38.25
315.862	28.66
316.077	30.75
316.291	15.45
316.505	18.34
316.719	-3.03
316.933	-30.04
317.147	-22.12
317.361	-89.96
317.575	-114.25
317.789	-149.81
318.003	-208.03
318.217	-157.57
318.431	-35.38
318.645	14.48
318.859	16.34
319.073	49.82
319.287	31.88
319.5	-6.02
319.714	-40.34
319.928	-67.33
320.142	-111.69
320.356	-75.62
320.57	-11.01
320.784	-26.84
320.997	-29.4
321.211	-33.27
321.425	-81.51
321.639	-124.34
321.853	-54.39
322.066	-33.12
322.28	-19.57
322.494	-10.92
322.707	23.63
322.921	0.99
323.135	-0.21
323.349	9.16
323.562	-6.77
323.776	-38.24
323.989	-37.2
324.203	-53.96
324.417	-80.45
324.63	-90.95
324.844	-76.32
325.057	-74.81
325.271	-34.2
325.485	5.69
325.698	23.79
325.912	34.44
326.125	27.67
326.339	17.51
326.552	-7.21
326.766	9.12
326.979	16.77
327.193	42.07
327.406	35.95
327.619	26.46
327.833	40.61
328.046	14
328.26	-20.95
328.473	-12.98
328.686	-31.56
328.9	-46.02
329.113	-33.29
329.326	-65.89
329.54	-43.59
329.753	-44.4
329.966	-53.48
330.179	-43.61
330.393	-14.89
330.606	-15.81
330.819	6.73
331.032	15.34
331.246	21.61
331.459	55.95
331.672	48.05
331.885	31.85
332.098	9.68
332.311	11.73
332.525	-52.29
332.738	-19.25
332.951	5.6
333.164	26.62
333.377	16.78
333.59	39.22
333.803	21.49
334.016	16.95
334.229	9.7
334.442	26.17
334.655	40.56
334.868	49.04
335.081	43.88
335.294	30.81
335.507	17.52
335.72	-17.6
335.933	-32.33
336.146	-50.67
336.359	-36.49
336.572	-72.07
336.785	-64.34
336.997	-44.96
337.21	-1.73
337.423	-10.69
337.636	-3.75
337.849	4.79
338.062	-8.18
338.274	-20.74
338.487	-29.54
338.7	-18.39
338.913	-60.52
339.125	-79.44
339.338	-121.66
339.551	-103.02
339.763	-48.11
339.976	-22.05
340.189	11.92
340.402	24.62
340.614	22.06
340.827	1.7
341.039	-8.17
341.252	-10.56
341.465	4.03
341.677	-4.2
341.89	-40.77
342.102	-4.4
342.315	-16.71
342.527	-39.02
342.74	-24.37
342.952	11.84
343.165	3.15
343.377	17.17
343.59	-1.32
343.802	10.93
344.015	20.29
344.227	29.47
344.44	29.79
344.652	37.77
344.864	12.97
345.077	19.65
345.289	16.2
345.502	15.35
345.714	11.45
345.926	21.03
346.139	21.23
346.351	34.82
346.563	48.47
346.775	52.54
346.988	36.49
347.2	13.54
347.412	-45.05
347.624	-81.92
347.837	-88.66
348.049	-49.29
348.261	6.08
348.473	17.45
348.685	24.04
348.897	7.1
349.11	-13.59
349.322	-37.66
349.534	-6.73
349.746	-5.99
349.958	11.49
350.17	11.81
350.382	3.58
350.594	-6.65
350.806	-9.38
351.018	-16.31
351.23	-24.48
351.442	-55.22
351.654	-54.71
351.866	-35.97
352.078	-7.7
352.29	18.22
352.502	33.07
352.714	29.8
352.926	12.61
353.138	3.19
353.35	-8.19
353.561	-22.78
353.773	-37.41
353.985	-22.13
354.197	-21.42
354.409	-30.69
354.621	-31.48
354.832	-22.46
355.044	-35.07
355.256	-38.27
355.468	-13.54
355.679	-18.89
355.891	-18
356.103	-34.56
356.314	-41.07
356.526	-61.69
356.738	-41.6
356.949	-30.43
357.161	-2.73
357.373	3.17
357.584	-1.46
357.796	-7.65
358.008	-19.57
358.219	7.53
358.431	4.4
358.642	7.48
358.854	8.41
359.065	7.55
359.277	-42.33
359.488	-46.31
359.7	-89.24
359.911	-105.21
360.123	-79.25
360.334	-87.85
360.546	-102.16
360.757	-83.57
360.969	-65.4
361.18	-45.33
361.391	-15.49
361.603	-14.25
361.814	12.79
362.025	17.62
362.237	-5
362.448	1.48
362.659	12.03
362.871	9.56
363.082	6.94
363.293	7.72
363.504	-9.47
363.716	-34.4
363.927	-27.03
364.138	-50.36
364.349	-62.23
364.56	-47.22
364.772	-45.9
364.983	-34.85
365.194	-30.26
365.405	-11.04
365.616	8.83
365.827	6.83
366.038	-19.94
366.25	-16.81
366.461	-46.63
366.672	-32.16
366.883	-2
367.094	15.25
367.305	4.07
367.516	16.63
367.727	-22.08
367.938	-40.9
368.149	-37.48
368.36	-17.36
368.571	-19.27
368.781	-16.65
368.992	-21.24
369.203	-44.15
369.414	-73.66
369.625	-78.24
369.836	-76.64
370.047	-103.12
370.258	-90.67
370.468	-84.02
370.679	-99.21
370.89	-86.7
371.101	-46.31
371.312	-45.9
371.522	-38.49
371.733	-21.01
371.944	-9.02
372.155	-12.32
372.365	-21.53
372.576	-13.32
372.787	-13.41
372.997	-41.19
373.208	-40.79
373.419	4.74
373.629	-26.12
373.84	-25.87
374.05	-20.41
374.261	-17.97
374.472	-53.82
374.682	9.91
374.893	1.11
375.103	40.38
375.314	38.12
375.524	39.16
375.735	24.12
375.945	32.13
376.156	-5.64
376.366	-8.17
376.577	-7.8
376.787	-24.21
376.997	-17.91
377.208	-11.24
377.418	-28.73
377.629	-6.31
377.839	-0.16
378.049	-1.68
378.26	11.82
378.47	29.29
378.68	9.92
378.89	3.14
379.101	-1.78
379.311	-38.19
379.521	-68.99
379.732	-61.13
379.942	-50.56
380.152	-61.55
380.362	-17.88
380.572	-13.38
380.783	0.51
380.993	9.48
381.203	24.48
381.413	28.76
381.623	36.13
381.833	20.76
382.043	8.21
382.253	-8.38
382.463	-2.89
382.674	-19.42
382.884	-41.28
383.094	-37.06
383.304	-25.59
383.514	-22.55
383.724	-1.23
383.934	0.05
384.144	-7.84
384.353	-13.32
384.563	-14.53
384.773	-19.44
384.983	-21.67
385.193	-2.48
385.403	-3.25
385.613	-11.86
385.823	-26.03
386.033	-10.9
386.242	-22.07
386.452	-20.85
386.662	-26.65
386.872	-5.96
387.082	-16.33
387.291	-20.76
387.501	-21.93
387.711	-13.84
387.921	-21.59
388.13	-20.34
388.34	-10.07
388.55	-15.74
388.759	-18.01
388.969	-16.77
389.179	-13.92
389.388	-13.78
389.598	-3.46
389.807	-9.07
390.017	-13.41
390.227	-14.63
390.436	-15.85
390.646	-15.07
390.855	-7.59
391.065	-3.83
391.274	-3.34
391.484	-4.84
391.693	-4.42
391.903	-4.93
392.112	1.38
392.322	4.23
392.531	9.51
392.74	9.6
392.95	5.53
393.159	2.44
393.369	2.95
393.578	0.6
393.787	-0.37
393.997	1.83
394.206	-0.42
394.415	-0.61
394.625	0.03
394.834	-2.18
395.043	-1
395.252	1.47
395.462	2.64
395.671	3.74
395.88	5.1
396.089	5.52
396.298	3.54
396.508	2.81
396.717	1.35
396.926	2.27
397.135	1.72
397.344	1.64
397.553	2.76
397.762	4.97
397.971	4.55
398.181	5.07
398.39	4.61
398.599	3.37
398.808	2.32
399.017	3.15
399.226	3.93
399.435	5.22
399.644	5.91
399.853	5.28
400.062	4.47
400.27	3.68
400.479	3.28
400.688	2.47
400.897	2.55
401.106	2.8
401.315	2.71
401.524	3.11
401.733	3.72
401.941	4.38
402.15	4.26
402.359	4.18
402.568	4.34
402.777	4.42
402.985	4.05
403.194	4.13
403.403	4.32
403.612	3.85
403.82	3.73
404.029	3.93
404.238	3.59
404.446	3.73
404.655	3.57
404.864	3.35
405.072	2.95
405.281	3.33
405.489	2.98
405.698	3.05
405.906	3.06
406.115	3.13
406.324	2.96
406.532	3.17
406.741	3.46
406.949	3.47
407.158	3.65
407.366	3.77
407.574	3.64
407.783	3.63
407.991	3.59
408.2	3.75
408.408	3.65
408.617	3.59
408.825	3.33
409.033	3.42
409.242	3.34
409.45	3.44
409.658	3.35
409.867	3.51
410.075	3.43
410.283	3.24
410.491	3.11
410.7	3.06
410.908	3.02
411.116	3.27
411.324	3.22
411.533	3.17
411.741	3.49
411.949	3.41
412.157	3.08
412.365	3.11
412.573	3.22
412.781	3.28
412.99	3.15
413.198	3.42
413.406	3.44
413.614	3.33
413.822	3
414.03	3.02
414.238	2.78
414.446	2.83
414.654	2.65
414.862	2.64
415.07	2.71
415.278	2.88
415.486	2.77
415.694	2.97
415.902	2.99
416.109	2.86
416.317	2.72
416.525	2.48
416.733	2.4
416.941	2.57
417.149	2.6
417.357	2.66
417.564	2.95
417.772	3.24
417.98	3.12
418.188	3.17
418.395	3.24
418.603	3.33
418.811	2.97
419.019	2.91
419.226	3.11
419.434	3.17
419.642	2.95
419.849	3.07
420.057	3.18
420.265	3.13
420.472	2.78
420.68	2.87
420.887	2.76
421.095	2.73
421.302	2.64
421.51	2.96
421.717	2.93
421.925	3.1
422.132	3.08
422.34	2.86
422.547	2.86
422.755	2.78
422.962	2.53
423.17	2.41
423.377	2.51
423.585	2.41
423.792	2.34
423.999	2.48
424.207	2.49
424.414	2.53
424.621	2.53
424.829	2.45
425.036	2.6
425.243	2.75
425.451	2.72
425.658	2.58
425.865	2.83
426.072	2.71
426.28	2.88
426.487	2.84
426.694	2.87
426.901	2.71
427.108	2.65
427.315	2.39
427.523	2.79
427.73	2.79
427.937	2.77
428.144	2.7
428.351	2.83
428.558	2.78
428.765	2.74
428.972	2.74
429.179	2.82
429.386	3
429.593	2.57
429.8	2.43
430.007	2.65
430.214	2.74
430.421	2.5
430.628	2.56
430.835	2.58
431.042	2.63
431.249	2.63
431.456	2.62
431.662	2.67
431.869	2.95
432.076	2.95
432.283	3.04
432.49	3.09
432.697	3.21
432.903	2.91
433.11	2.79
433.317	2.84
433.524	3.05
433.73	2.93
433.937	3.32
434.144	3.24
434.35	3.18
434.557	2.91
434.764	2.95
434.97	2.68
435.177	2.79
435.384	2.66
435.59	2.86
435.797	3.11
436.003	3.24
436.21	3.22
436.416	3.34
436.623	3.2
436.829	3.2
437.036	3.32
437.242	3.41
437.449	3.32
437.655	3.37
437.862	3.31
438.068	3.14
438.275	3.24
438.481	3.48
438.687	3.47
438.894	3.47
439.1	3.51
439.307	3.6
439.513	3.42
439.719	3.43
439.926	3.52
440.132	3.55
440.338	3.38
440.544	3.53
440.751	3.47
440.957	3.45
441.163	3.41
441.369	3.53
441.575	3.3
441.782	3.38
441.988	3.26
442.194	3.2
442.4	3.07
442.606	3.43
442.812	3.48
443.018	3.67
443.224	3.88
443.431	4.12
443.637	3.86
443.843	3.76
444.049	3.65
444.255	3.61
444.461	3.51
444.667	3.43
444.873	3.65
445.079	3.67
445.284	3.68
445.49	3.5
445.696	3.51
445.902	3.32
446.108	3.27
446.314	3.19
446.52	3.32
446.726	3.54
446.931	3.54
447.137	3.69
447.343	3.81
447.549	3.75
447.755	3.56
447.96	3.7
448.166	3.57
448.372	3.51
448.578	3.54
448.783	3.63
448.989	3.69
449.195	3.9
449.4	3.88
449.606	3.83
449.812	3.8
450.017	3.74
450.223	3.57
450.428	3.54
450.634	3.78
450.84	3.88
451.045	3.82
451.251	3.73
451.456	4.02
451.662	4
451.867	4.03
452.073	4.05
452.278	4.29
452.483	4.25
452.689	4.09
452.894	4.09
453.1	4.14
453.305	3.97
453.51	3.86
453.716	3.87
453.921	3.92
454.127	3.84
454.332	3.84
454.537	3.82
454.742	3.91
454.948	3.84
455.153	3.94
455.358	4
455.563	4.18
455.769	4.23
455.974	4.22
456.179	4.08
456.384	4.11
456.589	4
456.795	3.82
457	3.78
457.205	4.05
457.41	3.96
457.615	3.89
457.82	4.06
458.025	4.09
458.23	3.91
458.435	4.03
458.64	3.95
458.845	4
459.05	4.05
459.255	4.19
459.46	4.15
459.665	4.17
459.87	4.16
460.075	4.06
460.28	3.97
460.485	4.04
460.69	4.11
460.895	4
461.099	4.02
461.304	4.15
461.509	4.15
461.714	4.04
461.919	4.13
462.123	4.06
462.328	4.04
462.533	4.02
462.738	4.2
462.942	4.16
463.147	4.3
463.352	4.34
463.556	4.38
463.761	4.44
463.966	4.45
464.17	4.42
464.375	4.35
464.58	4.34
464.784	4.27
464.989	4.21
465.193	4.23
465.398	4.24
465.602	4.4
465.807	4.41
466.011	4.45
466.216	4.51
466.42	4.57
466.625	4.56
466.829	4.63
467.034	4.82
467.238	4.93
467.443	4.82
467.647	4.66
467.851	4.75
468.056	4.75
468.26	4.61
468.464	4.74
468.669	4.9
468.873	4.94
469.077	4.88
469.282	5.07
469.486	5.18
469.69	5.21
469.894	5.11
470.099	5.17
470.303	5.2
470.507	5.04
470.711	4.92
470.915	4.92
471.119	4.77
471.324	4.68
471.528	4.71
471.732	4.85
471.936	4.85
472.14	5.04
472.344	5.05
472.548	5.14
472.752	5.33
472.956	5.51
473.16	5.46
473.364	5.43
473.568	5.4
473.772	5.33
473.976	5.23
474.18	5.25
474.384	5.3
474.588	5.28
474.792	5.12
474.995	5.22
475.199	5.35
475.403	5.5
475.607	5.66
475.811	5.72
476.015	5.7
476.218	5.76
476.422	5.72
476.626	5.74
476.83	5.84
477.033	5.85
477.237	5.74
477.441	5.81
477.644	5.76
477.848	5.8
478.052	5.79
478.255	5.83
478.459	5.84
478.663	6.04
478.866	6.04
479.07	6.09
479.273	6.23
479.477	6.22
479.681	6.15
479.884	6.09
480.088	6.07
480.291	6.02
480.495	6.05
480.698	6.04
480.901	6.21
481.105	6.34
481.308	6.36
481.512	6.38
481.715	6.49
481.919	6.46
482.122	6.49
482.325	6.49
482.529	6.5
482.732	6.43
482.935	6.35
483.138	6.28
483.342	6.39
483.545	6.5
483.748	6.55
483.952	6.69
484.155	6.83
484.358	6.82
484.561	6.74
484.764	6.75
484.967	6.79
485.171	6.83
485.374	6.77
485.577	6.91
485.78	6.9
485.983	6.94
486.186	6.75
486.389	6.72
486.592	6.67
486.795	6.73
486.998	6.67
487.201	6.79
487.404	6.97
487.607	7.06
487.81	7.09
488.013	7.08
488.216	7.03
488.419	6.97
488.622	6.81
488.825	6.7
489.028	6.6
489.231	6.62
489.433	6.54
489.636	6.54
489.839	6.56
490.042	6.58
490.245	6.56
490.447	6.61
490.65	6.7
490.853	6.73
491.056	6.87
491.258	6.94
491.461	6.95
491.664	7.02
491.866	6.98
492.069	6.95
492.272	6.84
492.474	6.87
492.677	6.86
492.879	6.93
493.082	7.02
493.285	7.24
493.487	7.23
493.69	7.14
493.892	7.12
494.095	7.08
494.297	7.01
494.5	7.05
494.702	7.11
494.905	7.18
495.107	7.16
495.309	7.16
495.512	7.2
495.714	7.29
495.917	7.36
496.119	7.38
496.321	7.49
496.524	7.53
496.726	7.47
496.928	7.44
497.13	7.47
497.333	7.38
497.535	7.43
497.737	7.44
497.939	7.42
498.142	7.47
498.344	7.55
498.546	7.43
498.748	7.53
498.95	7.66
499.152	7.61
499.355	7.64
499.557	7.77
499.759	7.88
499.961	7.81
500.163	7.88
500.365	7.89
500.567	8
500.769	7.94
500.971	8.01
501.173	7.96
501.375	8.01
501.577	7.93
501.779	7.92
501.981	7.92
502.183	7.92
502.385	7.95
502.587	7.92
502.788	8.07
502.99	8.15
503.192	8.37
503.394	8.33
503.596	8.38
503.798	8.41
503.999	8.48
504.201	8.4
504.403	8.55
504.605	8.63
504.806	8.56
505.008	8.53
505.21	8.71
505.411	8.71
505.613	8.73
505.815	8.75
506.016	8.81
506.218	8.9
506.42	8.89
506.621	8.97
506.823	9
507.024	8.97
507.226	8.86
507.427	8.83
507.629	8.87
507.83	8.98
508.032	9.08
508.233	9.25
508.435	9.42
508.636	9.53
508.838	9.59
509.039	9.67
509.24	9.63
509.442	9.65
509.643	9.6
509.845	9.59
510.046	9.65
510.247	9.7
510.448	9.7
510.65	9.75
510.851	9.89
511.052	9.86
511.254	9.92
511.455	10.09
511.656	10.21
511.857	10.25
512.058	10.34
512.26	10.32
512.461	10.3
512.662	10.29
512.863	10.28
513.064	10.26
513.265	10.32
513.466	10.34
513.667	10.37
513.868	10.38
514.069	10.53
514.27	10.57
514.471	10.58
514.672	10.61
514.873	10.62
515.074	10.67
515.275	10.62
515.476	10.62
515.677	10.67
515.878	10.89
516.079	10.86
516.28	10.91
516.481	11.09
516.682	11.1
516.882	10.97
517.083	11
517.284	11
517.485	10.9
517.686	10.88
517.886	10.86
518.087	10.89
518.288	10.97
518.488	11.01
518.689	11.09
518.89	11.14
519.091	11.22
519.291	11.23
519.492	11.31
519.692	11.36
519.893	11.42
520.094	11.38
520.294	11.36
520.495	11.33
520.695	11.33
520.896	11.38
521.096	11.42
521.297	11.5
521.497	11.52
521.698	11.49
521.898	11.46
522.099	11.45
522.299	11.52
522.499	11.52
522.7	11.57
522.9	11.6
523.101	11.73
523.301	11.77
523.501	11.82
523.702	11.83
523.902	11.97
524.102	12.03
524.302	11.99
524.503	12.07
524.703	12.1
524.903	12.03
525.103	11.98
525.304	12.14
525.504	12.18
525.704	12.23
525.904	12.2
526.104	12.18
526.304	12.12
526.504	12.13
526.705	12.13
526.905	12.31
527.105	12.37
527.305	12.41
527.505	12.35
527.705	12.4
527.905	12.36
528.105	12.38
528.305	12.34
528.505	12.4
528.705	12.49
528.905	12.47
529.105	12.49
529.304	12.62
529.504	12.72
529.704	12.66
529.904	12.71
530.104	12.79
530.304	12.85
530.503	12.81
530.703	12.76
530.903	12.76
531.103	12.8
531.303	12.71
531.502	12.74
531.702	12.98
531.902	13
532.101	12.96
532.301	13.01
532.501	13.04
532.7	12.94
532.9	13.05
533.1	13.08
533.299	13.16
533.499	13.24
533.698	13.22
533.898	13.24
534.097	13.29
534.297	13.33
534.496	13.31
534.696	13.45
534.895	13.58
535.095	13.69
535.294	13.67
535.494	13.7
535.693	13.73
535.892	13.67
536.092	13.63
536.291	13.64
536.491	13.72
536.69	13.75
536.889	13.76
537.088	13.74
537.288	13.91
537.487	14.01
537.686	14.03
537.886	14.13
538.085	14.27
538.284	14.39
538.483	14.31
538.682	14.45
538.882	14.48
539.081	14.54
539.28	14.44
539.479	14.56
539.678	14.52
539.877	14.63
540.076	14.67
540.275	14.72
540.474	14.84
540.673	14.92
540.872	14.9
541.071	14.99
541.27	15.08
541.469	15.11
541.668	15.17
541.867	15.23
542.066	15.27
542.265	15.39
542.464	15.4
542.663	15.47
542.862	15.65
543.06	15.77
543.259	15.74
543.458	15.86
543.657	15.9
543.856	15.95
544.054	15.89
544.253	16.02
544.452	16.03
544.651	16.1
544.849	16.06
545.048	16.18
545.247	16.22
545.445	16.32
545.644	16.45
545.843	16.53
546.041	16.65
546.24	16.79
546.438	16.91
546.637	16.93
546.836	17.12
547.034	17.25
547.233	17.26
547.431	17.32
547.63	17.42
547.828	17.43
548.027	17.43
548.225	17.54
548.423	17.6
548.622	17.76
548.82	17.77
549.019	17.89
549.217	18.06
549.415	18.19
549.614	18.23
549.812	18.36
550.01	18.33
550.209	18.38
550.407	18.49
550.605	18.52
550.803	18.66
551.002	18.86
551.2	18.88
551.398	19.02
551.596	19.2
551.794	19.32
551.993	19.49
552.191	19.64
552.389	19.82
552.587	19.92
552.785	20.06
552.983	20.14
553.181	20.31
553.379	20.39
553.577	20.52
553.775	20.61
553.973	20.7
554.171	20.8
554.369	20.86
554.567	20.98
554.765	21.05
554.963	21.3
555.161	21.36
555.359	21.51
555.557	21.66
555.755	21.82
555.952	21.87
556.15	22.11
556.348	22.22
556.546	22.39
556.744	22.48
556.941	22.61
557.139	22.67
557.337	22.79
557.535	22.79
557.732	22.96
557.93	23.17
558.128	23.31
558.325	23.46
558.523	23.61
558.721	23.75
558.918	23.78
559.116	23.91
559.313	23.98
559.511	24.15
559.708	24.26
559.906	24.45
560.104	24.56
560.301	24.76
560.498	24.91
560.696	24.97
560.893	25.04
561.091	25.21
561.288	25.33
561.486	25.36
561.683	25.54
561.88	25.7
562.078	25.84
562.275	25.96
562.473	26.2
562.67	26.38
562.867	26.56
563.064	26.7
563.262	26.76
563.459	26.87
563.656	27.06
563.853	27.14
564.051	27.22
564.248	27.43
564.445	27.51
564.642	27.55
564.839	27.75
565.036	28.01
565.234	28.26
565.431	28.45
565.628	28.59
565.825	28.7
566.022	28.75
566.219	28.76
566.416	28.93
566.613	28.97
566.81	29.03
567.007	28.93
567.204	28.99
567.401	29
567.598	29.02
567.795	29.07
567.991	29.24
568.188	29.3
568.385	29.48
568.582	29.74
568.779	29.9
568.976	30.01
569.172	30.24
569.369	30.17
569.566	30.25
569.763	30.36
569.96	30.42
570.156	30.36
570.353	30.44
570.55	30.51
570.746	30.55
570.943	30.71
571.14	30.72
571.336	30.76
571.533	30.88
571.729	30.82
571.926	30.77
572.123	30.9
572.319	30.95
572.516	30.8
572.712	30.86
572.909	30.92
573.105	31.04
573.302	31.17
573.498	31.39
573.695	31.44
573.891	31.43
574.087	31.41
574.284	31.3
574.48	31.11
574.677	31.18
574.873	31.27
575.069	31.4
575.266	31.56
575.462	31.61
575.658	31.66
575.854	31.75
576.051	31.75
576.247	31.74
576.443	31.82
576.639	31.74
576.835	31.61
577.032	31.48
577.228	31.54
577.424	31.58
577.62	31.57
577.816	31.7
578.012	31.72
578.208	31.68
578.404	31.72
578.6	31.76
578.796	31.69
578.993	31.71
579.189	31.7
579.384	31.55
579.58	31.49
579.776	31.49
579.972	31.34
580.168	31.18
580.364	31.26
580.56	31.29
580.756	31.15
580.952	31.21
581.148	31.27
581.343	31.26
581.539	31.24
581.735	31.39
581.931	31.37
582.127	31.38
582.322	31.29
582.518	31.29
582.714	31.24
582.909	31.29
583.105	31.17
583.301	31.12
583.496	31.17
583.692	31.07
583.888	31.02
584.083	31.13
584.279	31.22
584.474	31.16
584.67	31.24
584.866	31.23
585.061	31.07
585.257	31.1
585.452	31.17
585.648	31.08
585.843	31.03
586.039	31.18
586.234	31.14
586.429	31.03
586.625	31.05
586.82	31.05
587.015	30.98
587.211	30.85
587.406	30.94
587.601	30.93
587.797	30.97
587.992	30.93
588.187	31.12
588.383	31.06
588.578	31.07
588.773	31.07
588.968	31.14
589.163	31.11
589.359	31.12
589.554	31.15
589.749	31.24
589.944	31.32
590.139	31.34
590.334	31.36
590.529	31.35
590.724	31.34
590.919	31.45
591.114	31.46
591.309	31.61
591.504	31.74
591.699	31.81
591.894	31.79
592.089	31.83
592.284	31.76
592.479	31.91
592.674	31.98
592.869	32.06
593.064	32.17
593.259	32.31
593.454	32.38
593.648	32.37
593.843	32.39
594.038	32.45
594.233	32.42
594.428	32.52
594.622	32.61
594.817	32.78
595.012	32.9
595.206	32.97
595.401	32.97
595.596	33.04
595.79	33.07
595.985	33.19
596.18	33.29
596.374	33.41
596.569	33.62
596.763	33.69
596.958	33.71
597.153	33.91
597.347	33.95
597.542	33.99
597.736	34.08
597.931	34.13
598.125	34.16
598.319	34.37
598.514	34.4
598.708	34.51
598.903	34.66
599.097	34.88
599.291	34.8
599.486	34.82
599.68	34.8
599.874	34.92
600.069	34.78
600.263	34.97
600.457	35.19
600.651	35.28
600.846	35.31
601.04	35.49
601.234	35.5
601.428	35.46
601.622	35.61
601.817	35.62
602.011	35.58
602.205	35.67
602.399	35.7
602.593	35.66
602.787	35.78
602.981	35.85
603.175	35.77
603.369	35.68
603.563	35.67
603.757	35.64
603.951	35.7
604.145	35.77
604.339	36
604.533	35.95
604.727	35.8
604.921	35.71
605.115	35.66
605.309	35.61
605.502	35.69
605.696	35.74
605.89	35.74
606.084	35.67
606.278	35.58
606.471	35.45
606.665	35.32
606.859	35.12
607.053	35
607.246	34.88
607.44	34.82
607.634	34.78
607.827	34.84
608.021	34.82
608.214	34.81
608.408	34.76
608.602	34.73
608.795	34.65
608.989	34.59
609.182	34.43
609.376	34.48
609.569	34.41
609.763	34.3
609.956	34.23
610.15	34.21
610.343	34.08
610.537	33.99
610.73	33.91
610.923	33.82
611.117	33.72
611.31	33.68
611.504	33.61
611.697	33.57
611.89	33.4
612.083	33.3
612.277	33.19
612.47	33.08
612.663	32.91
612.856	32.93
613.05	32.8
613.243	32.59
613.436	32.42
613.629	32.4
613.822	32.26
614.015	32.24
614.209	32.08
614.402	32.1
614.595	32.09
614.788	32.06
614.981	31.92
615.174	31.89
615.367	31.88
615.56	31.81
615.753	31.76
615.946	31.65
616.139	31.68
616.332	31.68
616.525	31.52
616.718	31.45
616.911	31.43
617.103	31.35
617.296	31.16
617.489	31.08
617.682	30.95
617.875	30.92
618.067	30.86
618.26	30.78
618.453	30.81
618.646	30.88
618.838	30.85
619.031	30.9
619.224	30.9
619.417	30.8
619.609	30.78
619.802	30.67
619.994	30.56
620.187	30.53
620.38	30.48
620.572	30.42
620.765	30.53
620.957	30.43
621.15	30.29
621.342	30.22
621.535	30.23
621.727	30.17
621.92	30.03
622.112	29.96
622.305	29.93
622.497	29.78
622.69	29.8
622.882	29.9
623.074	29.97
623.267	29.93
623.459	29.88
623.651	29.7
623.844	29.57
624.036	29.6
624.228	29.63
624.42	29.54
624.613	29.58
624.805	29.58
624.997	29.47
625.189	29.36
625.381	29.46
625.574	29.34
625.766	29.24
625.958	29.23
626.15	29.28
626.342	29.16
626.534	29.24
626.726	29.25
626.918	29.24
627.11	29.08
627.302	29.04
627.494	28.92
627.686	28.95
627.878	28.84
628.07	28.89
628.262	28.92
628.454	28.98
628.646	28.94
628.838	29.02
629.029	28.93
629.221	28.97
629.413	28.85
629.605	28.76
629.797	28.66
629.989	28.67
630.18	28.62
630.372	28.55
630.564	28.46
630.755	28.5
630.947	28.45
631.139	28.2
631.33	28.09
631.522	28.23
631.714	28.16
631.905	28.11
632.097	28.15
632.289	28.21
632.48	28.05
632.672	27.95
632.863	27.82
633.055	27.78
633.246	27.75
633.438	27.66
633.629	27.62
633.821	27.73
634.012	27.68
634.203	27.52
634.395	27.6
634.586	27.7
634.777	27.61
634.969	27.63
635.16	27.81
635.351	27.82
635.543	27.66
635.734	27.67
635.925	27.59
636.117	27.45
636.308	27.45
636.499	27.48
636.69	27.42
636.881	27.46
637.073	27.6
637.264	27.48
637.455	27.43
637.646	27.57
637.837	27.59
638.028	27.49
638.219	27.55
638.41	27.53
638.601	27.35
638.792	27.35
638.983	27.36
639.174	27.32
639.365	27.41
639.556	27.42
639.747	27.34
639.938	27.23
640.129	27.21
640.32	27.09
640.511	27.08
640.701	27.14
640.892	27.22
641.083	27.2
641.274	27.22
641.465	27.14
641.655	26.99
641.846	26.95
642.037	26.88
642.228	26.75
642.418	26.77
642.609	26.83
642.8	26.82
642.99	26.78
643.181	26.92
643.372	26.86
643.562	26.78
643.753	26.68
643.943	26.56
644.134	26.34
644.324	26.34
644.515	26.39
644.705	26.44
644.896	26.5
645.086	26.56
645.277	26.47
645.467	26.4
645.658	26.29
645.848	26.32
646.038	26.31
646.229	26.37
646.419	26.22
646.61	26.31
646.8	26.18
646.99	26.11
647.18	26.02
647.371	26.11
647.561	26.02
647.751	26.1
647.941	26.03
648.132	26.01
648.322	25.92
648.512	25.85
648.702	25.74
648.892	25.84
649.082	25.71
649.272	25.65
649.462	25.51
649.653	25.44
649.843	25.35
650.033	25.47
650.223	25.48
650.413	25.49
650.603	25.53
650.793	25.5
650.983	25.4
651.172	25.29
651.362	25.17
651.552	25.03
651.742	24.82
651.932	24.86
652.122	24.83
652.312	24.92
652.502	24.89
652.691	24.91
652.881	24.76
653.071	24.69
653.261	24.5
653.45	24.32
653.64	24.31
653.83	24.08
654.019	23.93
654.209	23.87
654.399	23.76
654.588	23.51
654.778	23.46
654.968	23.33
655.157	23.15
655.347	22.99
655.536	22.83
655.726	22.58
655.915	22.4
656.105	22.2
656.294	22.04
656.484	21.73
656.673	21.6
656.863	21.39
657.052	21.08
657.241	20.76
657.431	20.54
657.62	20.22
657.809	19.84
657.999	19.7
658.188	19.45
658.377	19.25
658.567	19.08
658.756	18.93
658.945	18.69
659.134	18.63
659.324	18.45
659.513	18.25
659.702	18.05
659.891	17.84
660.08	17.47
660.269	17.28
660.458	16.97
660.648	16.72
660.837	16.43
661.026	16.26
661.215	15.97
661.404	15.7
661.593	15.58
661.782	15.32
661.971	15.17
662.16	14.98
662.349	14.81
662.538	14.45
662.726	14.38
662.915	14.12
663.104	13.85
663.293	13.78
663.482	13.75
663.671	13.52
663.86	13.32
664.048	13.15
664.237	12.97
664.426	12.7
664.615	12.54
664.803	12.39
664.992	12.28
665.181	12.11
665.369	11.94
665.558	11.82
665.747	11.7
665.935	11.65
666.124	11.57
666.312	11.49
666.501	11.34
666.69	11.12
666.878	10.99
667.067	10.75
667.255	10.74
667.444	11
667.632	11.14
667.82	11.17
668.009	11.11
668.197	10.96
668.386	10.68
668.574	10.71
668.762	10.57
668.951	10.53
669.139	10.5
669.327	10.29
669.516	10.22
669.704	10.15
669.892	10.27
670.08	10.29
670.269	10.2
670.457	10.07
670.645	9.85
670.833	9.92
671.021	9.92
671.21	10.05
671.398	10.18
671.586	10.31
671.774	10.05
671.962	9.97
672.15	9.95
672.338	9.76
672.526	9.84
672.714	9.77
672.902	9.93
673.09	10.16
673.278	10.45
673.466	10.5
673.654	10.88
673.842	10.8
674.03	10.7
674.218	10.57
674.405	10.59
674.593	10.42
674.781	10.54
674.969	10.6
675.157	10.79
675.344	10.9
675.532	11.09
675.72	11.27
675.908	11.32
676.095	11.23
676.283	11.34
676.471	11.59
676.658	11.57
676.846	11.68
677.033	11.95
677.221	12.02
677.409	11.76
677.596	11.8
677.784	11.84
677.971	11.95
678.159	12.04
678.346	12.3
678.534	12.53
678.721	12.85
678.909	12.84
679.096	12.96
679.283	13.24
679.471	13.38
679.658	13.49
679.846	13.8
680.033	14.26
680.22	14.34
680.408	14.42
680.595	14.51
680.782	14.54
680.969	14.58
681.157	14.7
681.344	14.91
681.531	15.1
681.718	15.23
681.905	15.33
682.093	15.66
682.28	16.02
682.467	16.52
682.654	16.94
682.841	17.32
683.028	17.64
683.215	17.94
683.402	17.9
683.589	18.3
683.776	18.53
683.963	18.71
684.15	19.02
684.337	19.59
684.524	19.67
684.711	20.07
684.898	20.17
685.085	20.44
685.271	20.92
685.458	21.41
685.645	21.69
685.832	22.35
686.019	22.89
686.205	23.19
686.392	23.67
686.579	24.18
686.766	24.76
686.952	25.2
687.139	25.88
687.326	26.31
687.512	26.94
687.699	27.34
687.886	27.81
688.072	27.9
688.259	28.56
688.445	29.18
688.632	29.71
688.818	30.47
689.005	31.29
689.191	31.85
689.378	32.43
689.564	33.26
689.751	33.9
689.937	34.42
690.124	35.1
690.31	35.47
690.496	36.07
690.683	36.81
690.869	37.55
691.055	38.16
691.242	39.16
691.428	39.82
691.614	40.46
691.8	41.27
691.987	42.07
692.173	42.79
692.359	43.74
692.545	44.45
692.731	45.03
692.918	45.82
693.104	46.29
693.29	46.83
693.476	47.47
693.662	48.3
693.848	48.71
694.034	49.45
694.22	49.96
694.406	50.72
694.592	51.44
694.778	52.27
694.964	52.95
695.15	53.69
695.336	54.23
695.522	54.97
695.708	55.64
695.894	56.37
696.08	57.17
696.265	58.01
696.451	58.64
696.637	59.25
696.823	59.88
697.009	60.18
697.194	60.52
697.38	60.72
697.566	61.05
697.751	61.65
697.937	62.46
698.123	63.26
698.308	64.01
698.494	64.9
698.68	65.39
698.865	65.85
699.051	66.44
699.236	66.67
699.422	67.11
699.607	67.06
699.793	67.44
699.978	67.43
700.164	68.13
700.349	68.87
700.535	69.72
700.72	70.3
700.906	71.26
701.091	71.56
701.276	71.69
701.462	72.41
701.647	72.75
701.832	72.92
702.018	73.69
702.203	73.64
702.388	73.65
702.573	74.16
702.759	75
702.944	74.9
703.129	75.43
703.314	75.81
703.499	76.01
703.684	75.77
703.87	76.69
704.055	77.59
704.24	77.67
704.425	78.23
704.61	78.77
704.795	78.77
704.98	78.65
705.165	79.07
705.35	79.27
705.535	79.44
705.72	79.9
705.905	80.54
706.09	81.28
706.275	81.3
706.459	81.28
706.644	81.19
706.829	81.22
707.014	80.96
707.199	81.42
707.384	81.94
707.568	82.08
707.753	82.75
707.938	83.1
708.123	83.01
708.307	82.75
708.492	83.09
708.677	82.85
708.861	82.79
709.046	82.61
709.231	83.32
709.415	83.85
709.6	83.63
709.784	83.71
709.969	84.39
710.153	84.24
710.338	84.08
710.522	84.19
710.707	84.72
710.891	84.95
711.076	84.99
711.26	84.74
711.445	85.08
711.629	85.41
711.813	85.53
711.998	86.19
712.182	86.45
712.366	86.88
712.551	87.63
712.735	87.56
712.919	87.13
713.103	87.6
713.288	87.29
713.472	86.46
713.656	87.14
713.84	87.19
714.024	87.22
714.208	87.44
714.393	87.72
714.577	88.01
714.761	88.36
714.945	88.42
715.129	88.53
715.313	88.76
715.497	88.05
715.681	88.83
715.865	88.48
716.049	88.87
716.233	88.7
716.417	88.82
716.601	88.17
716.785	88.52
716.968	88.56
717.152	88.34
717.336	88.75
717.52	89.04
717.704	89.28
717.888	89.76
718.071	90.51
718.255	90.53
718.439	90.23
718.622	90.37
718.806	90.76
718.99	89.92
719.174	89.66
719.357	90.06
719.541	89.98
719.724	89.03
719.908	90.31
720.092	90.99
720.275	91.3
720.459	91.27
720.642	91.39
720.826	90.85
721.009	90.31
721.193	90.02
721.376	90.44
721.559	90.57
721.743	90.63
721.926	90.69
722.11	90.64
722.293	89.63
722.476	89.64
722.66	89.73
722.843	89.69
723.026	89.46
723.21	90.58
723.393	90.91
723.576	90.97
723.759	91.21
723.942	91.76
724.126	90.95
724.309	90.98
724.492	91.34
724.675	91.2
724.858	91.38
725.041	92.74
725.224	93.38
725.407	93.82
725.59	94.65
725.774	94.01
725.957	92.9
726.14	92.13
726.322	91.86
726.505	91.2
726.688	92.3
726.871	92.4
727.054	92.86
727.237	92.14
727.42	92.5
727.603	91.72
727.786	92.04
727.968	91.76
728.151	92.25
728.334	92.53
728.517	92.43
728.699	93.11
728.882	93.07
729.065	93.66
729.248	93.61
729.43	94.36
729.613	94.85
729.796	95.7
729.978	94.43
730.161	94.44
730.343	93.94
730.526	93.63
730.708	92.7
730.891	93.73
731.073	93.56
731.256	93.64
731.438	93.29
731.621	94.02
731.803	94.29
731.986	94.27
732.168	93.88
732.35	94.21
732.533	93.51
732.715	92.91
732.898	94.08
733.08	94.33
733.262	94.48
733.444	94.74
733.627	94.83
733.809	94.9
733.991	96.24
734.173	95.49
734.355	95.79
734.538	96.74
734.72	96.1
734.902	95.35
735.084	95.64
735.266	95.62
735.448	95.51
735.63	94.7
735.812	94.8
735.994	96.33
736.176	96.7
736.358	96.05
736.54	97.18
736.722	97.26
736.904	96
737.086	96.29
737.268	97.63
737.45	97.48
737.632	97.51
737.814	97.23
737.995	96.64
738.177	96.32
738.359	96.08
738.541	96.41
738.723	97.13
738.904	97.71
739.086	97.11
739.268	96.91
739.449	97.41
739.631	97.27
739.813	96.93
739.994	97.52
740.176	97.99
740.358	97.28
740.539	98.25
740.721	98.59
740.902	99.45
741.084	99.45
741.265	99.22
741.447	99.03
741.628	99.38
741.81	97.47
741.991	98.23
742.172	99.38
742.354	99.19
742.535	98.77
742.717	99.94
742.898	99.72
743.079	99.51
743.261	99.26
743.442	98.47
743.623	98.74
743.804	98.76
743.986	99.34
744.167	98.27
744.348	97.93
744.529	97.59
744.71	96.18
744.891	95.12
745.073	94.29
745.254	94.87
745.435	94.1
745.616	94.35
745.797	94.27
745.978	94.65
746.159	95.42
746.34	95.05
746.521	97.1
746.702	95.45
746.883	97.07
747.064	97.12
747.245	97.05
747.426	94.66
747.606	96.89
747.787	96.49
747.968	96.69
748.149	97.58
748.33	98.7
748.51	98.2
748.691	97.19
748.872	96.4
749.053	95.04
749.233	93.54
749.414	92.42
749.595	92.24
749.775	91.37
749.956	91.51
750.137	92.54
750.317	94.03
750.498	95.97
750.678	97.05
750.859	98.66
751.04	99.43
751.22	97.38
751.4	95.72
751.581	93.9
751.761	93.36
751.942	93
752.122	93.77
752.303	93.57
752.483	94.09
752.663	93.51
752.844	92.14
753.024	93.67
753.204	94.33
753.385	94.62
753.565	94.45
753.745	94.85
753.925	94.15
754.106	93.23
754.286	92.39
754.466	92.46
754.646	93.62
754.826	93.34
755.006	92.96
755.187	94.51
755.367	95.57
755.547	94.6
755.727	95.28
755.907	96.68
756.087	97.26
756.267	96.37
756.447	96.01
756.627	93.73
756.807	93.84
756.987	92.47
757.167	92.75
757.346	93.39
757.526	93.52
757.706	94.13
757.886	95.37
758.066	95.08
758.246	97.23
758.425	97.34
758.605	95.78
758.785	95.09
758.965	96.04
759.144	92.37
759.324	92.83
759.504	94.33
759.683	94.55
759.863	93.03
760.043	93.58
760.222	94.05
760.402	92.94
760.581	92.19
760.761	94.67
760.94	94.84
761.12	96.52
761.299	96.65
761.479	96.75
761.658	93.96
761.838	93.78
762.017	92.88
762.197	92.94
762.376	93.64
762.555	95.52
762.735	95.59
762.914	93
763.093	92.86
763.273	91.73
763.452	90.25
763.631	90.44
763.81	91.24
763.99	91.07
764.169	91.65
764.348	89.86
764.527	89.22
764.706	91.72
764.885	91.83
765.064	88.87
765.243	90.61
765.423	91.75
765.602	90.37
765.781	89.19
765.96	89.23
766.139	86.89
766.318	87.98
766.497	86.95
766.676	87.57
766.854	91.34
767.033	91.69
767.212	89.28
767.391	88.8
767.57	89.68
767.749	89.95
767.928	93.21
768.106	93.22
768.285	91.71
768.464	91.79
768.643	89.12
768.821	88.48
769	89.91
769.179	91.39
769.357	89.47
769.536	90.26
769.715	89.01
769.893	90.63
770.072	89.94
770.25	90.78
770.429	91.58
770.607	92.57
770.786	89.4
770.964	90.73
771.143	89.85
771.321	91.13
771.5	91.37
771.678	90.97
771.857	87.95
772.035	88.35
772.213	86.14
772.392	84.6
772.57	88.4
772.748	90.65
772.927	89.93
773.105	87.07
773.283	88.19
773.461	86.76
773.64	87.97
773.818	87.55
773.996	91.82
774.174	88.97
774.352	85.56
774.531	81.91
774.709	86.35
774.887	84.53
775.065	86.33
775.243	86.3
775.421	88.43
775.599	86.46
775.777	86.01
775.955	83.43
776.133	82.38
776.311	81.97
776.489	79.43
776.667	79.44
776.844	81.28
777.022	82.88
777.2	83.31
777.378	83.75
777.556	84
777.734	86.95
777.911	88.08
778.089	87.19
778.267	87.43
778.445	85.07
778.622	80.09
778.8	79.19
778.978	81.15
779.155	79.62
779.333	81.73
779.511	81.61
779.688	86.01
779.866	81
780.043	80.3
780.221	79.37
780.398	82.47
780.576	80.78
780.753	84.27
780.931	84.4
781.108	84.67
781.286	86.23
781.463	81.78
781.64	78.8
781.818	82.71
781.995	81.69
782.172	80.56
782.35	82.85
782.527	88.08
782.704	84.42
782.882	87.76
783.059	84.8
783.236	87.49
783.413	86.92
783.59	89.28
783.768	85.11
783.945	89.78
784.122	84.42
784.299	82.01
784.476	80.04
784.653	80.22
784.83	74.09
785.007	73.16
785.184	77.84
785.361	79.07
785.538	85.42
785.715	88.71
785.892	88.95
786.069	88.29
786.246	88.47
786.423	85.77
786.6	83.32
786.776	87.44
786.953	82.92
787.13	83.93
787.307	81.3
787.484	81.32
787.66	78.13
787.837	79.33
788.014	74.9
788.191	74.47
788.367	74.55
788.544	78.5
788.721	77.64
788.897	81.47
789.074	82.96
789.25	79.8
789.427	80.27
789.603	79.53
789.78	80.3
789.956	77.98
790.133	78.69
790.309	76.73
790.486	80.05
790.662	78.18
790.839	80.1
791.015	84.94
791.192	81.36
791.368	79.74
791.544	77.43
791.721	76.62
791.897	72.11
792.073	71.62
792.249	66.25
792.426	71.26
792.602	74.27
792.778	75.92
792.954	74.34
793.13	78.29
793.307	67.37
793.483	58.72
793.659	59.93
793.835	66.45
794.011	63.48
794.187	69.74
794.363	70.2
794.539	73.32
794.715	65.32
794.891	68.82
795.067	68.12
795.243	77.64
795.419	75.19
795.595	79.42
795.771	78.16
795.947	79.06
796.122	74.56
796.298	74.76
796.474	75.2
796.65	76.74
796.826	72.39
797.001	68.87
797.177	65.95
797.353	69.13
797.529	70.57
797.704	74.9
797.88	73.3
798.056	70.38
798.231	64.07
798.407	65.51
798.582	63.82
798.758	74.01
798.934	88.91
799.109	88.68
799.285	81.6
799.46	83.86
799.636	81.4
799.811	74.13
799.986	76.89
800.162	79.45
800.337	80.66
800.513	70.91
800.688	71.56
800.863	79.5
801.039	73.48
801.214	70.01
801.389	77.04
801.565	70.35
801.74	54.3
801.915	66.79
802.09	68.38
802.265	71.65
802.441	73.6
802.616	79.22
802.791	72.11
802.966	72.5
803.141	69.17
803.316	66.01
803.491	71.98
803.666	74.35
803.841	66.68
804.016	63.54
804.191	63.51
804.366	52.62
804.541	51
804.716	52.91
804.891	48.62
805.066	56.24
805.241	59.83
805.416	63.38
805.591	67.95
805.765	73.77
805.94	71.32
806.115	71.24
806.29	60.84
806.464	57.9
806.639	56.26
806.814	47.88
806.989	38.43
807.163	56.45
807.338	56.6
807.512	51.71
807.687	44.29
807.862	66.34
808.036	60.58
808.211	67.56
808.385	76.43
808.56	95.78
808.734	90.51
808.909	89.12
809.083	78.42
809.258	89.7
809.432	84.14
809.606	71.74
809.781	59.7
809.955	65.43
810.13	55.89
810.304	49.99
810.478	51.09
810.652	72.64
810.827	78.42
811.001	72.7
811.175	68.3
811.349	67.63
811.524	51.42
811.698	37.37
811.872	44.2
812.046	53.5
812.22	60.92
812.394	67.93
812.568	77.05
812.742	87.83
812.916	87.7
813.09	81.63
813.264	77.25
813.438	70.35
813.612	53.35
813.786	41.39
813.96	50.98
814.134	50.49
814.308	65.04
814.482	70.99
814.656	72.74
814.83	74.31
815.003	81.65
815.177	65.08
815.351	55.89
815.525	62.24
815.698	55.18
815.872	44.3
816.046	43.58
816.219	51.06
816.393	60.14
816.567	63.7
816.74	63.38
816.914	74.4
817.088	82.24
817.261	72.66
817.435	57.63
817.608	56.37
817.782	32.4
817.955	26.35
818.129	31.76
818.302	45.99
818.475	63.71
818.649	71.83
818.822	64.68
818.996	88.74
819.169	90.43
819.342	73.92
819.516	92.08
819.689	99.34
819.862	69.17
820.035	55.71
820.209	51.89
820.382	44.02
820.555	41.83
820.728	35.53
820.901	32.75
821.075	40.1
821.248	52.4
821.421	43.99
821.594	44.8
821.767	72.61
821.94	79.07
822.113	41.8
822.286	36.59
822.459	53.33
822.632	34.47
822.805	-5.42
822.978	5.85
823.151	23.61
823.324	6.99
823.496	-10.42
823.669	-4.81
823.842	1.13
824.015	-31.29
824.188	-29.4
824.361	-6.47
824.533	11.96
824.706	18.52
824.879	25.75
825.051	30.8
825.224	22.54
825.397	14.99
825.569	-4.77
825.742	25.26
825.915	51.2
826.087	57.09
826.26	50.9
826.432	65.18
826.605	61.3
826.777	24.17
826.95	22.41
827.122	9.68
827.295	4.78
827.467	4.3
827.64	-7.92
827.812	-2.1
827.984	5.31
828.157	0.34
828.329	-52.19
828.501	-32.28
828.674	0.34
828.846	1.18
829.018	14.34
829.19	15.31
829.363	46.79
829.535	32.34
829.707	29.82
829.879	2.85
830.051	4.6
830.223	-28.6
830.395	-45.03
830.568	-51.14
830.74	-39.77
830.912	-1.36
831.084	-5.39
831.256	2.97
831.428	5.79
831.6	-10.53
831.772	-51.92
831.943	-63.48
832.115	-46.38
832.287	-25.08
832.459	-9.51
832.631	12.86
832.803	38.1
832.975	45.16
833.146	40.58
833.318	50.3
833.49	50.74
833.662	35.54
833.833	8.05
834.005	17.72
834.177	16.2
834.348	8.66
834.52	-12.78
834.692	-1.62
834.863	-53.92
835.035	-39.66
835.206	-108.15
835.378	-56.26
835.549	-65.44
835.721	-29.84
835.892	-34.11
836.064	-22.66
836.235	-25.33
836.407	11.83
836.578	-31.58
836.749	-13.1
836.921	6.22
837.092	-43.64
837.264	-59.99
837.435	-66.06
837.606	-22.14
837.777	9.81
837.949	40.68
838.12	46.53
838.291	57.33
838.462	43.88
838.633	8.63
838.805	-22.59
838.976	-26.87
839.147	-71.69
839.318	-83.03
839.489	-145.14
839.66	-89.73
839.831	-49.86
840.002	-28.42
840.173	-45.14
840.344	36.65
840.515	56.56
840.686	-88.44
840.857	-94.02
841.028	-74.01
841.199	-57.58
841.369	-93.5
841.54	-72.86
841.711	-47.95
841.882	-32
842.053	-33.68
842.223	-40.44
842.394	-8.5
842.565	-8.48
842.736	9.12
842.906	-4.03
843.077	12.83
843.248	25.52
843.418	30.49
843.589	-39.11
843.759	12.41
843.93	11.36
844.101	-12.94
844.271	-1.95
844.442	34.25
844.612	42.59
844.783	6.8
844.953	-28.09
845.123	-26.7
845.294	-74.22
845.464	-316.42
845.635	-133.41
845.805	-23.53
845.975	-23.69
846.146	-65.13
846.316	-50.89
846.486	-21.92
846.656	20.31
846.827	6.76
846.997	12.15
847.167	59.08
847.337	27.9
847.507	-37.04
847.677	-10.97
847.848	41.11
848.018	21.51
848.188	26.48
848.358	10.53
848.528	-5.99
848.698	-60.23
848.868	-120.97
849.038	-193.7
849.208	-49.82
849.378	-1.67
849.548	10.18
849.718	10.08
849.887	26.47
850.057	-19.86
850.227	-56.79
850.397	-90.18
850.567	-238.31
850.737	-587.39
850.906	-1493.75
851.076	-1125.78
851.246	-528.27
851.415	-44.83
851.585	-26.08
851.755	-61.89
851.924	-7.53
852.094	-54.96
852.264	-174.78
852.433	-1140.38
852.603	-225.25
852.772	-138.57
852.942	-43.01
853.111	-38.14
853.281	-0.47
853.45	43.93
853.62	-50.19
853.789	-56.35
853.959	-80.34
854.128	-90.82
854.297	-138.77
854.467	-166.88
854.636	-174.68
854.805	-48.71
854.975	-74.71
855.144	-20
855.313	328.67
855.482	-37.96
855.652	-152.46
855.821	-143.31
855.99	-11.29
856.159	24.27
856.328	37.43
856.497	30.33
856.667	34.15
856.836	29.68
857.005	-25.92
857.174	-56.19
857.343	-107.76
857.512	-69.52
857.681	-107.66
857.85	-133.22
858.019	-60.05
858.188	-23.7
858.356	-61.15
858.525	-122.52
858.694	-108.28
858.863	-239.46
859.032	-188.58
859.201	-246.73
859.369	-170.92
859.538	-130.43
859.707	-105.38
859.876	-105.32
860.044	-111.5
860.213	13.29
860.382	-1.15
860.55	19.98
860.719	43.76
860.888	54.26
861.056	-22.6
861.225	-37.76
861.393	-13.8
861.562	-20.88
861.73	-88.09
861.899	-154.45
862.067	-779.31
862.236	-114.69
862.404	-339.19
862.572	-216.2
862.741	-79.35
862.909	-70.47
863.078	-160.45
863.246	-71.88
863.414	-51.58
863.582	-10.82
863.751	-50
863.919	-15.45
864.087	25.1
864.255	34.76
864.424	-347.01
864.592	-26.08
864.76	-83.41
864.928	-291.2
865.096	-218.15
865.264	-65.77
865.432	-1597.73
865.6	-167
865.768	-171.84
865.936	-179.09
866.104	-218.71
866.272	-289.06
866.44	-456.3
866.608	667.39
866.776	316.62
866.944	3037.21
867.112	-459.32
867.28	-214.09
867.448	-70.32
867.615	8.07
867.783	13.02
867.951	-22.21
868.119	32.41
868.286	-5.26
868.454	-182.92
868.622	-157.76
868.789	-229.32
868.957	-4700
869.125	-3065.79
869.292	-212.53
869.46	-327.5
869.627	-61.27
869.795	-86.95
869.963	-59.82
870.13	-42.11
870.298	-12.16
870.465	-101.52
870.632	-99.88
870.8	-56.51
870.967	-118.86
871.135	-223.6
871.302	-185.03
871.469	-184.07
871.637	-210.68
871.804	-60.41
871.971	-84.39
872.139	-331.16
872.306	-26.32
872.473	-111.26
872.64	-484.55
872.807	-186.36
872.975	-36.74
873.142	-335.27
873.309	1883.78
873.476	-3.54
873.643	63.83
873.81	19.08
873.977	17.86
874.144	-1.12
874.311	-166.82
874.478	-241.69
874.645	-283.04
874.812	-159.93
874.979	-83.88
875.146	-95.91
875.313	-108.86
875.48	-4.63
875.647	-35.01
875.813	-80.1
875.98	-41.38
876.147	-68.43
876.314	-152.16
876.481	1247.93
876.647	-1376.4
876.814	535.23
876.981	-5
877.147	-7.92
877.314	31.73
877.481	51.97
877.647	46.11
877.814	1.93
877.98	-52.13
878.147	-10.61
878.314	26.47
878.48	-76.76
878.647	-55.72
878.813	9.97
878.979	-0.72
879.146	-38.76
879.312	-30.04
879.479	-89.87
879.645	-212.13
879.811	-427.13
879.978	-1095.42
880.144	-257.3
880.31	-147.58
880.477	-402.43
880.643	-433.45
880.809	-157.51
880.975	-137.45
881.142	-870.91
881.308	-95.12
881.474	-74.19
881.64	-70.68
881.806	-163.11
881.972	-75.03
882.138	-100.98
882.304	-117.87
882.47	-248.54
882.636	-1036.07
882.802	-273.57
882.968	-45.81
883.134	-41.66
883.3	-72.25
883.466	2.4
883.632	28.49
883.798	-29.09
883.964	-45.35
884.129	-22.71
884.295	23.99
884.461	-50.56
884.627	-62.91
884.793	-64.84
884.958	-22.02
885.124	-146.93
885.29	-255.33
885.455	-398.06
885.621	-96.96
885.787	-213.88
885.952	-88.63
886.118	-88.83
886.283	-72.47
886.449	-198.98
886.614	-179.64
886.78	-356.92
886.945	1255.74
887.111	-673.41
887.276	-438.64
887.442	-805.45
887.607	-355.66
887.773	-283.12
887.938	-265.8
888.103	-290.09
888.269	-146.69
888.434	-303.78
888.599	-68.48
888.764	63.67
888.93	29.03
889.095	-24.31
889.26	-61.09
889.425	8.18
889.59	-50
889.756	-58.04
889.921	-38.03
890.086	22.71
890.251	-29.44
890.416	-151.95
890.581	-1767.74
890.746	156.79
890.911	380.89
891.076	207.14
891.241	-582.84
891.406	-26.9
891.571	-158.77
891.736	-427.06
891.901	-736.28
892.065	868.13
892.23	158.19
892.395	199.8
892.56	317.63
892.725	-291.41
892.889	-309.76
893.054	-117.67
893.219	-69.61
893.384	-29.04
893.548	-100.27
893.713	-129.92
893.878	-94.86
