Data from Ofra_2a_PS_4CX12_Reflection_3.txt Node
Date: Tue Jul 20 09:49:34 EDT 2021
User: Adam
Spectrometer: FLMT01687
Trigger mode: 0
Integration Time (sec): 9.450000E-1
Scans to average: 3
Electric dark correction enabled: true
Nonlinearity correction enabled: false
Boxcar width: 3
XAxis mode: Wavelengths
Number of Pixels in Spectrum: 3648
>>>>>Begin Spectral Data<<<<<
179.494	980.47
179.716	573.24
179.937	703.3
180.158	2621.88
180.38	-569.77
180.601	-67.29
180.823	89.32
181.044	83.27
181.265	35.41
181.486	118.22
181.708	334.78
181.929	-114.88
182.15	-602.27
182.372	174.73
182.593	158.56
182.814	-56.29
183.035	-102.07
183.257	-21.79
183.478	-16.64
183.699	5.7
183.92	18.55
184.141	20.59
184.363	17.12
184.584	25.92
184.805	38.5
185.026	30.86
185.247	-0.8
185.468	-0.77
185.689	19.76
185.91	5.62
186.132	-0.04
186.353	-23.18
186.574	-8.21
186.795	-11.95
187.016	-12.72
187.237	-27.5
187.458	-33.08
187.679	-33.09
187.9	-4.89
188.121	-2.57
188.342	32.82
188.563	41.86
188.784	38.42
189.005	46.53
189.226	41.81
189.447	35.67
189.667	26.51
189.888	29.02
190.109	17.06
190.33	17.58
190.551	16.24
190.772	16.01
190.993	22.16
191.214	28.71
191.434	19.17
191.655	29.22
191.876	35.51
192.097	26.25
192.318	28.5
192.538	26.16
192.759	30.39
192.98	20.41
193.201	35.67
193.421	30.94
193.642	32.92
193.863	24.35
194.083	18.96
194.304	5.34
194.525	24.55
194.745	-11.1
194.966	3.54
195.187	16.4
195.407	15.88
195.628	18.45
195.848	18.98
196.069	7.19
196.29	12.97
196.51	-2.47
196.731	8.63
196.951	22.91
197.172	11.42
197.392	19.37
197.613	18.47
197.833	16.4
198.054	16.01
198.274	-9.02
198.495	-16.92
198.715	-16.83
198.936	-24.21
199.156	-7.34
199.377	5.33
199.597	10.25
199.817	20.84
200.038	19.92
200.258	19.69
200.479	24.34
200.699	29.94
200.919	5.54
201.14	2.92
201.36	9.9
201.58	4.26
201.801	6.96
202.021	-3.12
202.241	-3.65
202.461	19.28
202.682	20.69
202.902	9.36
203.122	10.48
203.342	29.88
203.563	31.88
203.783	34.87
204.003	33.28
204.223	43.04
204.443	55.07
204.663	57.03
204.884	42.05
205.104	50.77
205.324	51.89
205.544	53.8
205.764	37.64
205.984	24.29
206.204	18.16
206.424	24.19
206.644	17.68
206.864	7.49
207.084	8.59
207.304	5.99
207.525	-3.82
207.745	1.03
207.964	2.17
208.184	0.31
208.404	10.62
208.624	-14.1
208.844	-26.93
209.064	-15.01
209.284	-17.18
209.504	-37.14
209.724	-61.23
209.944	-76.85
210.164	-34.75
210.384	-21.64
210.604	-26.15
210.823	-13.5
211.043	-8.03
211.263	12.05
211.483	17.28
211.703	10.45
211.922	14
212.142	25.72
212.362	17.72
212.582	21.1
212.801	20.13
213.021	26.74
213.241	13.31
213.461	11.41
213.68	8.19
213.9	21.29
214.12	13.44
214.339	20.72
214.559	17.9
214.779	30.5
214.998	31.09
215.218	26.86
215.438	38.22
215.657	35.92
215.877	21.68
216.096	14.93
216.316	15.73
216.535	20.42
216.755	6.87
216.974	-16.71
217.194	-7.78
217.413	16.17
217.633	17.64
217.852	6.5
218.072	-3.89
218.291	24.51
218.511	21.65
218.73	20.81
218.95	1.76
219.169	-3.57
219.389	2.31
219.608	21.19
219.827	-0.28
220.047	6.1
220.266	12.51
220.485	24.18
220.705	28.65
220.924	22.55
221.143	-3.08
221.363	9.2
221.582	14.97
221.801	21.97
222.021	23.79
222.24	12.1
222.459	13.11
222.678	22.51
222.897	10.49
223.117	6.32
223.336	1.56
223.555	-13.84
223.774	8.54
223.993	21.69
224.213	29.38
224.432	45.72
224.651	41.63
224.87	33.76
225.089	45.93
225.308	26.31
225.527	23.74
225.746	17.42
225.965	-4.7
226.184	-8.52
226.404	-12.08
226.623	2.71
226.842	11.88
227.061	12.52
227.28	22.44
227.499	36.81
227.718	37.52
227.936	29.53
228.155	22.75
228.374	26.88
228.593	22.35
228.812	14.93
229.031	5.07
229.25	14.29
229.469	25.91
229.688	31.18
229.907	27.16
230.125	28.41
230.344	35.56
230.563	43.84
230.782	38.57
231.001	41.26
231.22	36.4
231.438	41.12
231.657	48.31
231.876	54.91
232.095	51.01
232.313	52.39
232.532	49.18
232.751	53.76
232.969	53.58
233.188	58.38
233.407	45.67
233.625	43.14
233.844	42.41
234.063	35.92
234.281	27.39
234.5	28.01
234.719	20.08
234.937	22.37
235.156	17.07
235.374	5.27
235.593	10.37
235.811	6.35
236.03	-19.91
236.249	-16.22
236.467	-5.85
236.686	2.57
236.904	-4.16
237.123	6.46
237.341	13.68
237.559	19.94
237.778	27.5
237.996	22.81
238.215	17.68
238.433	27.8
238.652	18.64
238.87	11.1
239.088	2.1
239.307	-4.46
239.525	-13.93
239.743	-20.88
239.962	-31.92
240.18	-25.24
240.398	-23.73
240.617	-2.3
240.835	-1.93
241.053	14.18
241.271	26.53
241.49	23.76
241.708	10.47
241.926	-0.95
242.144	-3.89
242.363	-7.91
242.581	-13.96
242.799	-34.68
243.017	-25.19
243.235	-19.57
243.453	2.2
243.672	-1.95
243.89	8.33
244.108	10.76
244.326	17.95
244.544	33.38
244.762	28.72
244.98	20.26
245.198	14.69
245.416	15.11
245.634	14.71
245.852	21.91
246.07	9.64
246.288	9.71
246.506	18.16
246.724	25.64
246.942	34.22
247.16	28.29
247.378	11.22
247.596	20.31
247.814	10.51
248.032	3.08
248.25	-6.31
248.468	-7.36
248.685	6.64
248.903	7.56
249.121	15.93
249.339	29.37
249.557	30.51
249.775	19.87
249.992	8.01
250.21	-0.9
250.428	2.62
250.646	-1.37
250.863	-2.15
251.081	-11.77
251.299	-1.48
251.517	8.92
251.734	10.97
251.952	14.32
252.17	-4.2
252.387	-10.45
252.605	7.47
252.823	1.83
253.04	-6.41
253.258	-6.97
253.475	-1.13
253.693	16.3
253.911	24.36
254.128	9.21
254.346	11.33
254.563	10.19
254.781	9.75
254.998	11.22
255.216	13.09
255.433	1.61
255.651	0.97
255.868	6.19
256.086	3.08
256.303	13.63
256.521	12.14
256.738	-4.24
256.956	6.42
257.173	15.48
257.39	15.21
257.608	20.62
257.825	10.4
258.043	12.73
258.26	21.61
258.477	23.29
258.695	29.92
258.912	32.63
259.129	26.28
259.346	28
259.564	29.29
259.781	32.74
259.998	30.59
260.216	26.83
260.433	34.05
260.65	37.88
260.867	23.19
261.084	28.29
261.302	26.13
261.519	21.72
261.736	14.77
261.953	9.11
262.17	8.63
262.387	22.41
262.604	7.59
262.822	-3.15
263.039	-1.35
263.256	5.31
263.473	2.17
263.69	11.9
263.907	9.95
264.124	11.68
264.341	7.43
264.558	14.12
264.775	15.55
264.992	19.54
265.209	22.93
265.426	20.9
265.643	23.28
265.86	27.45
266.077	22.37
266.294	19.26
266.51	16.72
266.727	-2.97
266.944	-8.57
267.161	-15.33
267.378	-17.92
267.595	-18.86
267.812	-22.02
268.028	-23.56
268.245	-11.2
268.462	-9.95
268.679	-5.14
268.896	-3.97
269.112	4.39
269.329	15.19
269.546	18.7
269.763	18.22
269.979	20.85
270.196	22.76
270.413	21.02
270.629	13.52
270.846	8.84
271.063	4.24
271.279	3.75
271.496	-3.6
271.712	-5.66
271.929	-0.54
272.146	9.02
272.362	-6.56
272.579	-2.08
272.795	-8.95
273.012	-0.37
273.228	-0.2
273.445	-5.83
273.661	-18.42
273.878	-3.4
274.094	0.73
274.311	8.72
274.527	6.12
274.744	5.51
274.96	5.09
275.177	16.46
275.393	23.73
275.609	21.15
275.826	28.11
276.042	39.17
276.259	36.74
276.475	36.51
276.691	35.85
276.908	22.09
277.124	22.39
277.34	9.67
277.557	0.28
277.773	-5.33
277.989	-3.12
278.205	-19.01
278.422	-3.44
278.638	3.26
278.854	6.24
279.07	5.83
279.286	11.75
279.503	6.03
279.719	29.18
279.935	12.78
280.151	11.11
280.367	14.67
280.583	13.24
280.799	21
281.016	28.43
281.232	22.94
281.448	29.27
281.664	30.39
281.88	35.78
282.096	36.95
282.312	27.58
282.528	20.24
282.744	16.45
282.96	15.62
283.176	14.73
283.392	5.6
283.608	15.02
283.824	13.89
284.04	20.93
284.256	22.51
284.471	23.37
284.687	14.4
284.903	15.91
285.119	1.42
285.335	7.83
285.551	5.5
285.767	-4.48
285.982	-8.99
286.198	1.64
286.414	17.38
286.63	29.04
286.846	20.34
287.061	20.96
287.277	35.43
287.493	39.97
287.709	36.36
287.924	29.14
288.14	21.59
288.356	28.21
288.571	19.99
288.787	21.86
289.003	29.19
289.218	17.97
289.434	9.32
289.65	15.66
289.865	22.53
290.081	25.33
290.296	18.02
290.512	12.3
290.727	26.31
290.943	24.11
291.159	15.34
291.374	14.63
291.59	8.86
291.805	2.03
292.021	-3.54
292.236	-7.35
292.451	0.97
292.667	5.44
292.882	3.2
293.098	4.92
293.313	4.98
293.529	8.65
293.744	7.1
293.959	11.13
294.175	18.66
294.39	15.07
294.605	15.95
294.821	12.41
295.036	14.86
295.251	23.8
295.467	18.51
295.682	15.82
295.897	18.2
296.112	23.61
296.328	27.46
296.543	15.17
296.758	8.25
296.973	12.9
297.188	9.86
297.404	5.56
297.619	-1.58
297.834	11.6
298.049	22.82
298.264	13
298.479	-1.03
298.694	1.34
298.909	-4.26
299.125	10.83
299.34	2.69
299.555	7.64
299.77	15.24
299.985	19.79
300.2	19.11
300.415	25.07
300.63	11.74
300.845	13.58
301.06	12.71
301.275	16.13
301.49	17.68
301.704	14.38
301.919	7.77
302.134	2.65
302.349	-3.27
302.564	-9.22
302.779	-6.82
302.994	-0.51
303.209	-8.74
303.423	0.86
303.638	19.69
303.853	20.06
304.068	18.17
304.283	17.96
304.497	9.15
304.712	21.02
304.927	20.96
305.142	19.41
305.356	28.01
305.571	30.17
305.786	22.03
306	25.69
306.215	21.91
306.43	22.32
306.644	20.52
306.859	15.36
307.074	13
307.288	12.93
307.503	15
307.717	16.19
307.932	20.55
308.147	18.41
308.361	22.2
308.576	22.63
308.79	22.79
309.005	18.96
309.219	24.15
309.434	21.68
309.648	11.81
309.863	7.3
310.077	2.33
310.292	9.22
310.506	25.26
310.72	14.11
310.935	16.81
311.149	25.33
311.364	26.94
311.578	28.7
311.792	28.22
312.007	10.25
312.221	20.68
312.435	18.3
312.649	21.63
312.864	8.98
313.078	9.34
313.292	10.29
313.507	31.61
313.721	32.13
313.935	43.82
314.149	40.56
314.363	47.94
314.578	72.69
314.792	76.19
315.006	60.97
315.22	61.53
315.434	37.87
315.648	36.17
315.862	41.41
316.077	23.56
316.291	18.33
316.505	25.61
316.719	-0.21
316.933	23.2
317.147	23.46
317.361	20.44
317.575	24.68
317.789	23.23
318.003	29.02
318.217	35.77
318.431	30.11
318.645	31.15
318.859	25.7
319.073	19.64
319.287	21.63
319.5	16.26
319.714	20.79
319.928	20.27
320.142	25.32
320.356	35.16
320.57	28.38
320.784	25.7
320.997	37.37
321.211	44.18
321.425	37.52
321.639	34.02
321.853	23.14
322.066	27.09
322.28	29.83
322.494	24.27
322.707	12.75
322.921	22.77
323.135	13.3
323.349	18
323.562	25.94
323.776	21.87
323.989	15.91
324.203	21.38
324.417	5.97
324.63	7.19
324.844	4.71
325.057	0.85
325.271	-3.06
325.485	-0.29
325.698	0.67
325.912	26.45
326.125	32.36
326.339	30.75
326.552	32.47
326.766	42
326.979	41.34
327.193	37.1
327.406	24.96
327.619	-0.51
327.833	-2.23
328.046	-9.37
328.26	-20.85
328.473	-18.77
328.686	-10.35
328.9	-14.61
329.113	10.66
329.326	23.21
329.54	38.96
329.753	38.69
329.966	38.12
330.179	43.32
330.393	45.94
330.606	41.4
330.819	40
331.032	30.32
331.246	32.76
331.459	33.91
331.672	22.88
331.885	25.26
332.098	30.81
332.311	17.84
332.525	21.82
332.738	12.82
332.951	7.55
333.164	8.86
333.377	-10.58
333.59	-8.54
333.803	-5.28
334.016	-18.06
334.229	-12.54
334.442	0.25
334.655	11.81
334.868	25.88
335.081	18.5
335.294	15.98
335.507	22.49
335.72	14.65
335.933	17.12
336.146	11.99
336.359	6.37
336.572	4.3
336.785	7.9
336.997	-0.97
337.21	16.52
337.423	9.54
337.636	7.61
337.849	11.9
338.062	19.7
338.274	23.24
338.487	27.81
338.7	25.57
338.913	23.64
339.125	25.2
339.338	30.87
339.551	29.61
339.763	25.34
339.976	22.98
340.189	14.13
340.402	13.13
340.614	16.17
340.827	10.72
341.039	8.88
341.252	16.43
341.465	12.87
341.677	11.06
341.89	14.31
342.102	12.48
342.315	14.85
342.527	5.88
342.74	0.5
342.952	12.74
343.165	23.57
343.377	24.69
343.59	20.97
343.802	14.4
344.015	23.89
344.227	16.04
344.44	7.45
344.652	4.59
344.864	10.11
345.077	13.9
345.289	13.05
345.502	10.73
345.714	5.38
345.926	4.6
346.139	1.33
346.351	-18.61
346.563	-12.41
346.775	-14.64
346.988	-9.97
347.2	3.65
347.412	3.31
347.624	3.16
347.837	10.02
348.049	5.34
348.261	12.33
348.473	-2.33
348.685	0.84
348.897	-2.02
349.11	12.54
349.322	5.85
349.534	3.21
349.746	6.43
349.958	22.03
350.17	18.08
350.382	15.18
350.594	8.28
350.806	20.73
351.018	22.83
351.23	22.88
351.442	23.97
351.654	21.88
351.866	29.74
352.078	24.01
352.29	24.87
352.502	26.23
352.714	17.09
352.926	9.97
353.138	16.54
353.35	12.21
353.561	6.94
353.773	4.32
353.985	9.45
354.197	10.85
354.409	16.52
354.621	13.08
354.832	7.71
355.044	19.55
355.256	17.19
355.468	4.19
355.679	6.78
355.891	4.94
356.103	11.46
356.314	15.56
356.526	2.25
356.738	-3.75
356.949	2.46
357.161	4.47
357.373	0.05
357.584	0.72
357.796	0.8
358.008	11.17
358.219	25.41
358.431	29.5
358.642	25.46
358.854	30.02
359.065	28.98
359.277	19.65
359.488	10.54
359.7	4.23
359.911	0.94
360.123	2.64
360.334	-3.47
360.546	-20.41
360.757	-8.02
360.969	6.95
361.18	4.31
361.391	4.59
361.603	7.16
361.814	13.12
362.025	24.65
362.237	25.25
362.448	17.96
362.659	7.12
362.871	7.69
363.082	10.53
363.293	11.29
363.504	7.8
363.716	9.63
363.927	11.61
364.138	21.89
364.349	24.81
364.56	21.83
364.772	25.45
364.983	24.85
365.194	27.02
365.405	23.35
365.616	17.81
365.827	15.12
366.038	14.26
366.25	11.35
366.461	23.99
366.672	17.85
366.883	21.54
367.094	24.72
367.305	26.33
367.516	28.22
367.727	22
367.938	13.34
368.149	13.36
368.36	6.89
368.571	6.59
368.781	4.09
368.992	2.66
369.203	3.68
369.414	-3.86
369.625	-1.96
369.836	2.62
370.047	6.32
370.258	2.32
370.468	1.6
370.679	0.72
370.89	11
371.101	6.59
371.312	6.18
371.522	8.26
371.733	4.69
371.944	11.49
372.155	-2.85
372.365	-11.78
372.576	-5.78
372.787	-5.77
372.997	-12.34
373.208	-4.94
373.419	-8.33
373.629	15.91
373.84	19.14
374.05	21.46
374.261	15.98
374.472	18.31
374.682	11.82
374.893	6.54
375.103	3.21
375.314	0.1
375.524	-3.2
375.735	0.55
375.945	-4.01
376.156	3.96
376.366	5.89
376.577	2.39
376.787	6.59
376.997	6.68
377.208	2.94
377.418	4.77
377.629	-0.54
377.839	2.56
378.049	9.4
378.26	8.68
378.47	15.22
378.68	17.16
378.89	13.37
379.101	11.89
379.311	1.99
379.521	2.87
379.732	-3.66
379.942	-12.29
380.152	-0.02
380.362	7.52
380.572	16.47
380.783	18.63
380.993	20.06
381.203	24.51
381.413	32.22
381.623	22.84
381.833	16.66
382.043	10.12
382.253	15.21
382.463	14.87
382.674	16
382.884	8.67
383.094	10.52
383.304	14.42
383.514	17.11
383.724	13.28
383.934	9.84
384.144	7.47
384.353	7.85
384.563	7.59
384.773	8.98
384.983	9.42
385.193	10.68
385.403	11.35
385.613	11.73
385.823	11.58
386.033	9.12
386.242	6.14
386.452	2.15
386.662	4.81
386.872	0.8
387.082	0.09
387.291	0.45
387.501	-1.66
387.711	-0.92
387.921	-1
388.13	-2.27
388.34	0.47
388.55	3.53
388.759	4.8
388.969	4.64
389.179	8.35
389.388	9.24
389.598	6.1
389.807	6.21
390.017	3.61
390.227	1.24
390.436	2.18
390.646	-0.85
390.855	0.08
391.065	0.43
391.274	-1.08
391.484	2.01
391.693	4.34
391.903	4.59
392.112	4.81
392.322	4.76
392.531	6.07
392.74	5.36
392.95	4.08
393.159	3.74
393.369	4.15
393.578	4.49
393.787	4.43
393.997	4.84
394.206	5.54
394.415	5.66
394.625	4.09
394.834	3.38
395.043	3.48
395.252	3.03
395.462	2.91
395.671	2.99
395.88	3.46
396.089	4.51
396.298	4.94
396.508	5.03
396.717	4.7
396.926	4.05
397.135	3.55
397.344	2.68
397.553	2.74
397.762	2.59
397.971	2.32
398.181	2.5
398.39	2.99
398.599	3.54
398.808	3.96
399.017	4.11
399.226	4.5
399.435	4.57
399.644	4.57
399.853	4.41
400.062	4.42
400.27	4.36
400.479	4.25
400.688	4.29
400.897	4.51
401.106	4.65
401.315	4.55
401.524	4.49
401.733	4.7
401.941	4.56
402.15	4.29
402.359	4.14
402.568	4.21
402.777	4.24
402.985	4.21
403.194	3.95
403.403	3.86
403.612	3.84
403.82	3.89
404.029	3.74
404.238	3.9
404.446	3.81
404.655	3.73
404.864	3.83
405.072	3.94
405.281	3.8
405.489	3.86
405.698	3.74
405.906	3.76
406.115	3.94
406.324	3.89
406.532	3.88
406.741	3.92
406.949	3.82
407.158	3.79
407.366	3.85
407.574	3.8
407.783	3.72
407.991	3.63
408.2	3.54
408.408	3.62
408.617	3.67
408.825	3.68
409.033	3.67
409.242	3.69
409.45	3.76
409.658	3.83
409.867	3.77
410.075	3.75
410.283	3.67
410.491	3.59
410.7	3.69
410.908	3.66
411.116	3.58
411.324	3.63
411.533	3.52
411.741	3.52
411.949	3.64
412.157	3.58
412.365	3.56
412.573	3.64
412.781	3.6
412.99	3.76
413.198	3.81
413.406	3.69
413.614	3.66
413.822	3.58
414.03	3.51
414.238	3.59
414.446	3.47
414.654	3.4
414.862	3.39
415.07	3.43
415.278	3.42
415.486	3.51
415.694	3.28
415.902	3.27
416.109	3.28
416.317	3.32
416.525	3.37
416.733	3.39
416.941	3.31
417.149	3.56
417.357	3.62
417.564	3.56
417.772	3.53
417.98	3.47
418.188	3.41
418.395	3.4
418.603	3.24
418.811	3.17
419.019	3.21
419.226	3.3
419.434	3.19
419.642	3.22
419.849	3.26
420.057	3.38
420.265	3.47
420.472	3.45
420.68	3.32
420.887	3.39
421.095	3.44
421.302	3.47
421.51	3.42
421.717	3.47
421.925	3.39
422.132	3.35
422.34	3.33
422.547	3.26
422.755	3.19
422.962	3
423.17	2.83
423.377	2.99
423.585	3.04
423.792	3.05
423.999	3.13
424.207	3.08
424.414	3.19
424.621	3.38
424.829	3.25
425.036	3.17
425.243	3.22
425.451	3.19
425.658	3.29
425.865	3.25
426.072	3.17
426.28	3.24
426.487	3.27
426.694	3.09
426.901	3
427.108	2.98
427.315	3.01
427.523	2.96
427.73	2.98
427.937	3.05
428.144	3.17
428.351	3.3
428.558	3.26
428.765	3.16
428.972	3.14
429.179	3.09
429.386	3.13
429.593	3.13
429.8	3.18
430.007	3.22
430.214	3.32
430.421	3.33
430.628	3.2
430.835	3.12
431.042	3.13
431.249	3.11
431.456	3.17
431.662	3.19
431.869	3.25
432.076	3.39
432.283	3.41
432.49	3.39
432.697	3.36
432.903	3.33
433.11	3.34
433.317	3.35
433.524	3.25
433.73	3.24
433.937	3.24
434.144	3.33
434.35	3.31
434.557	3.29
434.764	3.26
434.97	3.38
435.177	3.42
435.384	3.48
435.59	3.42
435.797	3.45
436.003	3.48
436.21	3.47
436.416	3.41
436.623	3.43
436.829	3.43
437.036	3.44
437.242	3.45
437.449	3.42
437.655	3.42
437.862	3.45
438.068	3.47
438.275	3.41
438.481	3.43
438.687	3.48
438.894	3.47
439.1	3.51
439.307	3.53
439.513	3.51
439.719	3.56
439.926	3.54
440.132	3.49
440.338	3.63
440.544	3.62
440.751	3.63
440.957	3.58
441.163	3.65
441.369	3.65
441.575	3.65
441.782	3.57
441.988	3.6
442.194	3.62
442.4	3.72
442.606	3.69
442.812	3.71
443.018	3.7
443.224	3.73
443.431	3.75
443.637	3.68
443.843	3.63
444.049	3.64
444.255	3.66
444.461	3.66
444.667	3.61
444.873	3.58
445.079	3.64
445.284	3.59
445.49	3.54
445.696	3.55
445.902	3.56
446.108	3.6
446.314	3.64
446.52	3.67
446.726	3.7
446.931	3.79
447.137	3.78
447.343	3.82
447.549	3.82
447.755	3.74
447.96	3.71
448.166	3.77
448.372	3.77
448.578	3.8
448.783	3.79
448.989	3.81
449.195	3.88
449.4	3.9
449.606	3.82
449.812	3.84
450.017	3.83
450.223	3.85
450.428	3.86
450.634	3.88
450.84	3.87
451.045	3.91
451.251	3.92
451.456	3.89
451.662	3.88
451.867	3.86
452.073	3.84
452.278	3.86
452.483	3.87
452.689	3.87
452.894	3.9
453.1	3.87
453.305	3.93
453.51	3.97
453.716	3.99
453.921	4.01
454.127	3.95
454.332	3.95
454.537	4.07
454.742	4.04
454.948	3.99
455.153	3.96
455.358	4.01
455.563	4.07
455.769	4.06
455.974	3.97
456.179	3.92
456.384	3.97
456.589	4.04
456.795	3.96
457	3.98
457.205	3.97
457.41	4
457.615	4.06
457.82	4.07
458.025	4.05
458.23	4.08
458.435	4.02
458.64	4.08
458.845	4.03
459.05	4.03
459.255	4.01
459.46	3.99
459.665	4.08
459.87	4.12
460.075	4.13
460.28	4.15
460.485	4.23
460.69	4.21
460.895	4.23
461.099	4.18
461.304	4.2
461.509	4.14
461.714	4.2
461.919	4.14
462.123	4.17
462.328	4.14
462.533	4.12
462.738	4.12
462.942	4.18
463.147	4.14
463.352	4.14
463.556	4.21
463.761	4.28
463.966	4.32
464.17	4.35
464.375	4.33
464.58	4.39
464.784	4.45
464.989	4.42
465.193	4.44
465.398	4.48
465.602	4.44
465.807	4.45
466.011	4.47
466.216	4.43
466.42	4.44
466.625	4.42
466.829	4.44
467.034	4.48
467.238	4.49
467.443	4.49
467.647	4.55
467.851	4.55
468.056	4.56
468.26	4.49
468.464	4.46
468.669	4.5
468.873	4.47
469.077	4.44
469.282	4.44
469.486	4.5
469.69	4.52
469.894	4.62
470.099	4.65
470.303	4.67
470.507	4.66
470.711	4.68
470.915	4.7
471.119	4.69
471.324	4.59
471.528	4.54
471.732	4.54
471.936	4.59
472.14	4.63
472.344	4.59
472.548	4.65
472.752	4.72
472.956	4.79
473.16	4.79
473.364	4.77
473.568	4.78
473.772	4.81
473.976	4.8
474.18	4.8
474.384	4.76
474.588	4.78
474.792	4.82
474.995	4.78
475.199	4.81
475.403	4.8
475.607	4.81
475.811	4.85
476.015	4.89
476.218	4.87
476.422	4.86
476.626	4.81
476.83	4.82
477.033	4.81
477.237	4.76
477.441	4.74
477.644	4.72
477.848	4.73
478.052	4.75
478.255	4.77
478.459	4.84
478.663	4.87
478.866	4.87
479.07	4.89
479.273	4.89
479.477	4.92
479.681	4.92
479.884	4.86
480.088	4.89
480.291	4.93
480.495	4.95
480.698	4.94
480.901	4.94
481.105	4.98
481.308	4.97
481.512	4.98
481.715	4.98
481.919	4.98
482.122	5.02
482.325	5.05
482.529	5.07
482.732	5.14
482.935	5.14
483.138	5.16
483.342	5.17
483.545	5.18
483.748	5.19
483.952	5.17
484.155	5.2
484.358	5.18
484.561	5.18
484.764	5.21
484.967	5.27
485.171	5.22
485.374	5.22
485.577	5.21
485.78	5.23
485.983	5.22
486.186	5.19
486.389	5.13
486.592	5.15
486.795	5.13
486.998	5.11
487.201	5.13
487.404	5.16
487.607	5.16
487.81	5.21
488.013	5.23
488.216	5.19
488.419	5.2
488.622	5.18
488.825	5.14
489.028	5.11
489.231	5.08
489.433	5.03
489.636	5.04
489.839	5.06
490.042	5.04
490.245	5.06
490.447	5.11
490.65	5.11
490.853	5.15
491.056	5.15
491.258	5.13
491.461	5.14
491.664	5.11
491.866	5.1
492.069	5.11
492.272	5.09
492.474	5.06
492.677	5.05
492.879	5.06
493.082	5.08
493.285	5.09
493.487	5.06
493.69	5.06
493.892	5.13
494.095	5.15
494.297	5.16
494.5	5.17
494.702	5.17
494.905	5.22
495.107	5.24
495.309	5.19
495.512	5.19
495.714	5.2
495.917	5.19
496.119	5.2
496.321	5.23
496.524	5.22
496.726	5.25
496.928	5.27
497.13	5.27
497.333	5.29
497.535	5.28
497.737	5.23
497.939	5.21
498.142	5.19
498.344	5.19
498.546	5.24
498.748	5.22
498.95	5.2
499.152	5.21
499.355	5.2
499.557	5.25
499.759	5.27
499.961	5.27
500.163	5.33
500.365	5.35
500.567	5.32
500.769	5.37
500.971	5.36
501.173	5.34
501.375	5.31
501.577	5.3
501.779	5.29
501.981	5.31
502.183	5.26
502.385	5.26
502.587	5.27
502.788	5.27
502.99	5.27
503.192	5.29
503.394	5.33
503.596	5.39
503.798	5.47
503.999	5.47
504.201	5.5
504.403	5.47
504.605	5.48
504.806	5.48
505.008	5.49
505.21	5.43
505.411	5.48
505.613	5.52
505.815	5.53
506.016	5.56
506.218	5.58
506.42	5.57
506.621	5.58
506.823	5.55
507.024	5.54
507.226	5.54
507.427	5.52
507.629	5.5
507.83	5.46
508.032	5.52
508.233	5.53
508.435	5.58
508.636	5.6
508.838	5.66
509.039	5.69
509.24	5.76
509.442	5.74
509.643	5.76
509.845	5.74
510.046	5.73
510.247	5.75
510.448	5.78
510.65	5.78
510.851	5.8
511.052	5.79
511.254	5.81
511.455	5.83
511.656	5.78
511.857	5.78
512.058	5.82
512.26	5.82
512.461	5.86
512.662	5.84
512.863	5.85
513.064	5.86
513.265	5.9
513.466	5.9
513.667	5.9
513.868	5.91
514.069	5.95
514.27	5.96
514.471	6.01
514.672	5.99
514.873	6
515.074	6.02
515.275	6.02
515.476	6.03
515.677	6.03
515.878	6.02
516.079	6.04
516.28	6.02
516.481	6.04
516.682	6.01
516.882	6
517.083	6.02
517.284	6.04
517.485	6.05
517.686	6.05
517.886	6.07
518.087	6.11
518.288	6.11
518.488	6.13
518.689	6.11
518.89	6.12
519.091	6.14
519.291	6.16
519.492	6.16
519.692	6.2
519.893	6.22
520.094	6.25
520.294	6.24
520.495	6.28
520.695	6.26
520.896	6.24
521.096	6.25
521.297	6.25
521.497	6.25
521.698	6.24
521.898	6.25
522.099	6.26
522.299	6.28
522.499	6.27
522.7	6.26
522.9	6.28
523.101	6.32
523.301	6.29
523.501	6.31
523.702	6.35
523.902	6.37
524.102	6.39
524.302	6.4
524.503	6.4
524.703	6.42
524.903	6.43
525.103	6.42
525.304	6.45
525.504	6.44
525.704	6.4
525.904	6.45
526.104	6.46
526.304	6.46
526.504	6.44
526.705	6.41
526.905	6.45
527.105	6.47
527.305	6.41
527.505	6.41
527.705	6.41
527.905	6.41
528.105	6.39
528.305	6.38
528.505	6.42
528.705	6.45
528.905	6.44
529.105	6.47
529.304	6.51
529.504	6.55
529.704	6.57
529.904	6.57
530.104	6.53
530.304	6.55
530.503	6.52
530.703	6.52
530.903	6.51
531.103	6.51
531.303	6.56
531.502	6.58
531.702	6.58
531.902	6.62
532.101	6.63
532.301	6.64
532.501	6.68
532.7	6.62
532.9	6.63
533.1	6.64
533.299	6.68
533.499	6.71
533.698	6.73
533.898	6.74
534.097	6.77
534.297	6.8
534.496	6.79
534.696	6.77
534.895	6.79
535.095	6.79
535.294	6.75
535.494	6.76
535.693	6.78
535.892	6.81
536.092	6.79
536.291	6.8
536.491	6.79
536.69	6.85
536.889	6.85
537.088	6.86
537.288	6.91
537.487	6.93
537.686	6.95
537.886	6.97
538.085	6.98
538.284	7.03
538.483	7.05
538.682	7.04
538.882	7.06
539.081	7.07
539.28	7.08
539.479	7.12
539.678	7.16
539.877	7.18
540.076	7.21
540.275	7.25
540.474	7.23
540.673	7.28
540.872	7.3
541.071	7.32
541.27	7.3
541.469	7.31
541.668	7.36
541.867	7.4
542.066	7.41
542.265	7.42
542.464	7.42
542.663	7.48
542.862	7.49
543.06	7.51
543.259	7.54
543.458	7.56
543.657	7.6
543.856	7.61
544.054	7.63
544.253	7.64
544.452	7.61
544.651	7.65
544.849	7.66
545.048	7.68
545.247	7.71
545.445	7.7
545.644	7.76
545.843	7.8
546.041	7.83
546.24	7.93
546.438	7.99
546.637	8.02
546.836	8.07
547.034	8.1
547.233	8.15
547.431	8.16
547.63	8.2
547.828	8.22
548.027	8.24
548.225	8.3
548.423	8.34
548.622	8.42
548.82	8.5
549.019	8.5
549.217	8.58
549.415	8.67
549.614	8.69
549.812	8.73
550.01	8.76
550.209	8.8
550.407	8.86
550.605	8.9
550.803	8.93
551.002	9.01
551.2	9.13
551.398	9.18
551.596	9.25
551.794	9.31
551.993	9.32
552.191	9.41
552.389	9.48
552.587	9.46
552.785	9.53
552.983	9.57
553.181	9.62
553.379	9.7
553.577	9.75
553.775	9.77
553.973	9.84
554.171	9.87
554.369	9.91
554.567	9.98
554.765	10.01
554.963	10.03
555.161	10.12
555.359	10.21
555.557	10.31
555.755	10.44
555.952	10.53
556.15	10.62
556.348	10.73
556.546	10.83
556.744	10.89
556.941	10.98
557.139	11.03
557.337	11.06
557.535	11.19
557.732	11.26
557.93	11.31
558.128	11.42
558.325	11.48
558.523	11.53
558.721	11.63
558.918	11.72
559.116	11.8
559.313	11.91
559.511	11.95
559.708	12.02
559.906	12.13
560.104	12.23
560.301	12.29
560.498	12.33
560.696	12.39
560.893	12.45
561.091	12.55
561.288	12.62
561.486	12.68
561.683	12.75
561.88	12.84
562.078	12.93
562.275	13.06
562.473	13.15
562.67	13.21
562.867	13.31
563.064	13.45
563.262	13.59
563.459	13.7
563.656	13.79
563.853	13.92
564.051	14.02
564.248	14.1
564.445	14.12
564.642	14.22
564.839	14.3
565.036	14.42
565.234	14.48
565.431	14.59
565.628	14.72
565.825	14.86
566.022	14.93
566.219	15
566.416	15.09
566.613	15.2
566.81	15.28
567.007	15.31
567.204	15.4
567.401	15.51
567.598	15.55
567.795	15.55
567.991	15.64
568.188	15.71
568.385	15.84
568.582	15.9
568.779	15.97
568.976	16.11
569.172	16.25
569.369	16.3
569.566	16.39
569.763	16.45
569.96	16.5
570.156	16.58
570.353	16.59
570.55	16.68
570.746	16.69
570.943	16.78
571.14	16.82
571.336	16.88
571.533	16.92
571.729	16.97
571.926	17.01
572.123	17.1
572.319	17.15
572.516	17.2
572.712	17.28
572.909	17.31
573.105	17.42
573.302	17.41
573.498	17.43
573.695	17.45
573.891	17.53
574.087	17.52
574.284	17.55
574.48	17.54
574.677	17.62
574.873	17.7
575.069	17.76
575.266	17.79
575.462	17.86
575.658	17.92
575.854	17.94
576.051	17.97
576.247	17.94
576.443	17.92
576.639	17.92
576.835	17.94
577.032	17.93
577.228	17.98
577.424	17.99
577.62	18
577.816	18.07
578.012	18.07
578.208	18.06
578.404	18.1
578.6	18.1
578.796	18.16
578.993	18.19
579.189	18.1
579.384	18.09
579.58	18.12
579.776	18.05
579.972	18.07
580.168	18.01
580.364	18
580.56	18.05
580.756	18.06
580.952	18.04
581.148	18.06
581.343	18.03
581.539	18.04
581.735	18.08
581.931	18.08
582.127	18.05
582.322	18.03
582.518	18.03
582.714	18
582.909	17.97
583.105	17.91
583.301	17.89
583.496	17.93
583.692	17.97
583.888	17.94
584.083	17.96
584.279	18
584.474	17.97
584.67	17.99
584.866	18.02
585.061	17.98
585.257	17.98
585.452	17.96
585.648	17.99
585.843	18.07
586.039	18.01
586.234	17.98
586.429	17.97
586.625	17.99
586.82	17.97
587.015	17.9
587.211	17.87
587.406	17.94
587.601	17.98
587.797	17.99
587.992	18
588.187	18.05
588.383	18.12
588.578	18.11
588.773	18.11
588.968	18.11
589.163	18.18
589.359	18.21
589.554	18.22
589.749	18.21
589.944	18.27
590.139	18.29
590.334	18.29
590.529	18.32
590.724	18.38
590.919	18.44
591.114	18.46
591.309	18.49
591.504	18.5
591.699	18.52
591.894	18.54
592.089	18.57
592.284	18.57
592.479	18.61
592.674	18.67
592.869	18.74
593.064	18.91
593.259	18.92
593.454	18.91
593.648	18.94
593.843	19
594.038	19.05
594.233	19.11
594.428	19.1
594.622	19.15
594.817	19.29
595.012	19.39
595.206	19.48
595.401	19.51
595.596	19.57
595.79	19.64
595.985	19.8
596.18	19.87
596.374	19.93
596.569	20
596.763	20.16
596.958	20.24
597.153	20.28
597.347	20.28
597.542	20.33
597.736	20.45
597.931	20.54
598.125	20.55
598.319	20.63
598.514	20.72
598.708	20.81
598.903	20.91
599.097	20.94
599.291	21.02
599.486	21.05
599.68	21.06
599.874	21.14
600.069	21.17
600.263	21.17
600.457	21.22
600.651	21.28
600.846	21.31
601.04	21.39
601.234	21.46
601.428	21.51
601.622	21.52
601.817	21.58
602.011	21.56
602.205	21.63
602.399	21.68
602.593	21.67
602.787	21.73
602.981	21.82
603.175	21.81
603.369	21.86
603.563	21.88
603.757	21.83
603.951	21.84
604.145	21.8
604.339	21.76
604.533	21.75
604.727	21.73
604.921	21.66
605.115	21.67
605.309	21.66
605.502	21.66
605.696	21.6
605.89	21.66
606.084	21.59
606.278	21.64
606.471	21.59
606.665	21.54
606.859	21.46
607.053	21.43
607.246	21.31
607.44	21.29
607.634	21.25
607.827	21.18
608.021	21.13
608.214	21.09
608.408	21.02
608.602	20.96
608.795	20.93
608.989	20.9
609.182	20.92
609.376	20.83
609.569	20.77
609.763	20.8
609.956	20.73
610.15	20.64
610.343	20.52
610.537	20.44
610.73	20.47
610.923	20.39
611.117	20.27
611.31	20.21
611.504	20.18
611.697	20.12
611.89	20.01
612.083	19.9
612.277	19.86
612.47	19.77
612.663	19.74
612.856	19.62
613.05	19.55
613.243	19.51
613.436	19.4
613.629	19.35
613.822	19.3
614.015	19.21
614.209	19.23
614.402	19.18
614.595	19.09
614.788	19.07
614.981	18.98
615.174	18.96
615.367	18.91
615.56	18.76
615.753	18.68
615.946	18.67
616.139	18.64
616.332	18.6
616.525	18.56
616.718	18.51
616.911	18.49
617.103	18.45
617.296	18.4
617.489	18.42
617.682	18.38
617.875	18.29
618.067	18.25
618.26	18.22
618.453	18.12
618.646	18.04
618.838	17.96
619.031	17.94
619.224	17.94
619.417	17.9
619.609	17.85
619.802	17.88
619.994	17.87
620.187	17.81
620.38	17.78
620.572	17.74
620.765	17.74
620.957	17.73
621.15	17.67
621.342	17.67
621.535	17.65
621.727	17.58
621.92	17.58
622.112	17.59
622.305	17.54
622.497	17.47
622.69	17.43
622.882	17.41
623.074	17.42
623.267	17.34
623.459	17.29
623.651	17.28
623.844	17.35
624.036	17.34
624.228	17.32
624.42	17.32
624.613	17.31
624.805	17.27
624.997	17.23
625.189	17.23
625.381	17.21
625.574	17.2
625.766	17.17
625.958	17.16
626.15	17.17
626.342	17.21
626.534	17.11
626.726	17.08
626.918	17.02
627.11	16.96
627.302	16.93
627.494	16.91
627.686	16.81
627.878	16.78
628.07	16.77
628.262	16.75
628.454	16.76
628.646	16.7
628.838	16.61
629.029	16.58
629.221	16.56
629.413	16.47
629.605	16.44
629.797	16.39
629.989	16.38
630.18	16.36
630.372	16.36
630.564	16.36
630.755	16.35
630.947	16.28
631.139	16.24
631.33	16.23
631.522	16.23
631.714	16.23
631.905	16.19
632.097	16.16
632.289	16.14
632.48	16.08
632.672	15.99
632.863	15.91
633.055	15.86
633.246	15.84
633.438	15.84
633.629	15.87
633.821	15.84
634.012	15.85
634.203	15.94
634.395	15.96
634.586	15.93
634.777	15.88
634.969	15.88
635.16	15.92
635.351	15.88
635.543	15.81
635.734	15.79
635.925	15.82
636.117	15.85
636.308	15.76
636.499	15.72
636.69	15.79
636.881	15.82
637.073	15.8
637.264	15.73
637.455	15.71
637.646	15.77
637.837	15.78
638.028	15.76
638.219	15.76
638.41	15.73
638.601	15.76
638.792	15.71
638.983	15.62
639.174	15.65
639.365	15.6
639.556	15.52
639.747	15.52
639.938	15.5
640.129	15.55
640.32	15.59
640.511	15.56
640.701	15.52
640.892	15.53
641.083	15.48
641.274	15.47
641.465	15.35
641.655	15.34
641.846	15.24
642.037	15.21
642.228	15.18
642.418	15.12
642.609	15.06
642.8	15.12
642.99	15.08
643.181	15.14
643.372	15.19
643.562	15.14
643.753	15.18
643.943	15.16
644.134	15.14
644.324	15.13
644.515	15.11
644.705	15.07
644.896	15.07
645.086	15.03
645.277	15.01
645.467	15
645.658	14.97
645.848	14.96
646.038	14.91
646.229	14.93
646.419	14.94
646.61	14.92
646.8	14.88
646.99	14.87
647.18	14.85
647.371	14.81
647.561	14.76
647.751	14.71
647.941	14.65
648.132	14.68
648.322	14.7
648.512	14.69
648.702	14.64
648.892	14.64
649.082	14.63
649.272	14.63
649.462	14.55
649.653	14.51
649.843	14.44
650.033	14.45
650.223	14.44
650.413	14.47
650.603	14.51
650.793	14.44
650.983	14.41
651.172	14.37
651.362	14.37
651.552	14.27
651.742	14.14
651.932	14.06
652.122	14.04
652.312	13.91
652.502	13.85
652.691	13.79
652.881	13.76
653.071	13.67
653.261	13.58
653.45	13.51
653.64	13.54
653.83	13.47
654.019	13.31
654.209	13.22
654.399	13.16
654.588	13.07
654.778	13
654.968	12.88
655.157	12.77
655.347	12.71
655.536	12.56
655.726	12.47
655.915	12.31
656.105	12.17
656.294	12.05
656.484	11.96
656.673	11.83
656.863	11.72
657.052	11.56
657.241	11.45
657.431	11.3
657.62	11.11
657.809	10.96
657.999	10.82
658.188	10.68
658.377	10.62
658.567	10.47
658.756	10.35
658.945	10.23
659.134	10.08
659.324	9.9
659.513	9.76
659.702	9.6
659.891	9.48
660.08	9.38
660.269	9.27
660.458	9.14
660.648	9.09
660.837	8.98
661.026	8.86
661.215	8.77
661.404	8.61
661.593	8.51
661.782	8.37
661.971	8.19
662.16	8.08
662.349	7.97
662.538	7.87
662.726	7.77
662.915	7.71
663.104	7.61
663.293	7.56
663.482	7.45
663.671	7.35
663.86	7.29
664.048	7.26
664.237	7.17
664.426	7.2
664.615	7.15
664.803	7.06
664.992	7.08
665.181	6.97
665.369	6.92
665.558	6.87
665.747	6.84
665.935	6.83
666.124	6.88
666.312	6.77
666.501	6.77
666.69	6.76
666.878	6.72
667.067	6.7
667.255	6.69
667.444	6.65
667.632	6.69
667.82	6.67
668.009	6.68
668.197	6.68
668.386	6.62
668.574	6.58
668.762	6.59
668.951	6.52
669.139	6.6
669.327	6.57
669.516	6.6
669.704	6.61
669.892	6.61
670.08	6.66
670.269	6.76
670.457	6.7
670.645	6.75
670.833	6.8
671.021	6.82
671.21	6.92
671.398	6.92
671.586	6.97
671.774	6.95
671.962	6.97
672.15	6.95
672.338	6.97
672.526	6.99
672.714	7.07
672.902	7.05
673.09	7.18
673.278	7.25
673.466	7.42
673.654	7.49
673.842	7.54
674.03	7.54
674.218	7.61
674.405	7.69
674.593	7.72
674.781	7.69
674.969	7.82
675.157	7.87
675.344	7.96
675.532	8.06
675.72	8.08
675.908	8.13
676.095	8.28
676.283	8.26
676.471	8.35
676.658	8.48
676.846	8.55
677.033	8.65
677.221	8.76
677.409	8.79
677.596	8.92
677.784	8.97
677.971	9.02
678.159	9.13
678.346	9.14
678.534	9.2
678.721	9.29
678.909	9.32
679.096	9.41
679.283	9.5
679.471	9.59
679.658	9.77
679.846	9.89
680.033	9.98
680.22	10
680.408	10.11
680.595	10.19
680.782	10.22
680.969	10.29
681.157	10.41
681.344	10.51
681.531	10.68
681.718	10.84
681.905	10.95
682.093	11.08
682.28	11.23
682.467	11.31
682.654	11.39
682.841	11.54
683.028	11.68
683.215	11.83
683.402	11.9
683.589	12.04
683.776	12.26
683.963	12.41
684.15	12.68
684.337	12.79
684.524	12.96
684.711	13.17
684.898	13.35
685.085	13.51
685.271	13.79
685.458	13.98
685.645	14.22
685.832	14.58
686.019	14.88
686.205	15.17
686.392	15.5
686.579	15.69
686.766	16
686.952	16.42
687.139	16.62
687.326	17.01
687.512	17.41
687.699	17.78
687.886	18.17
688.072	18.66
688.259	18.93
688.445	19.48
688.632	19.89
688.818	20.28
689.005	20.82
689.191	21.4
689.378	21.77
689.564	22.26
689.751	22.78
689.937	23.28
690.124	23.87
690.31	24.26
690.496	24.82
690.683	25.36
690.869	25.98
691.055	26.59
691.242	27.13
691.428	27.77
691.614	28.56
691.8	29.06
691.987	29.73
692.173	30.36
692.359	30.93
692.545	31.61
692.731	32.17
692.918	32.74
693.104	33.41
693.29	34.02
693.476	34.66
693.662	35.41
693.848	36.02
694.034	36.62
694.22	37.25
694.406	37.99
694.592	38.61
694.778	39.22
694.964	39.66
695.15	40.32
695.336	41.1
695.522	41.77
695.708	42.55
695.894	43.34
696.08	43.94
696.265	44.61
696.451	45.33
696.637	45.87
696.823	46.48
697.009	47.06
697.194	47.57
697.38	48.24
697.566	48.89
697.751	49.47
697.937	50.16
698.123	50.81
698.308	51.17
698.494	51.67
698.68	52.34
698.865	52.94
699.051	53.53
699.236	54.03
699.422	54.45
699.607	55.09
699.793	55.62
699.978	55.96
700.164	56.43
700.349	56.8
700.535	57.2
700.72	57.65
700.906	58.1
701.091	58.46
701.276	58.97
701.462	59.42
701.647	59.76
701.832	60.22
702.018	60.64
702.203	61.04
702.388	61.39
702.573	61.89
702.759	62.32
702.944	62.88
703.129	63.16
703.314	63.69
703.499	64.15
703.684	64.89
703.87	65.21
704.055	65.59
704.24	65.98
704.425	66.52
704.61	66.74
704.795	67.03
704.98	67.14
705.165	67.46
705.35	67.82
705.535	68.27
705.72	68.53
705.905	68.68
706.09	68.98
706.275	69.25
706.459	69.65
706.644	69.85
706.829	70.14
707.014	70.41
707.199	70.72
707.384	70.96
707.568	71.39
707.753	71.53
707.938	71.62
708.123	71.45
708.307	71.78
708.492	71.96
708.677	72.27
708.861	72.34
709.046	72.5
709.231	72.98
709.415	73.33
709.6	73.29
709.784	73.63
709.969	73.89
710.153	74.22
710.338	74.55
710.522	74.66
710.707	74.66
710.891	75.01
711.076	75.16
711.26	75.22
711.445	75.21
711.629	75.26
711.813	75.09
711.998	75.3
712.182	75.67
712.366	75.8
712.551	75.95
712.735	75.93
712.919	76.35
713.103	76.55
713.288	76.98
713.472	76.69
713.656	76.8
713.84	76.84
714.024	77.33
714.208	77.26
714.393	77.5
714.577	77.53
714.761	77.95
714.945	77.98
715.129	78.2
715.313	78.25
715.497	78.34
715.681	78.49
715.865	78.52
716.049	78.43
716.233	78.91
716.417	79.1
716.601	79.21
716.785	79.39
716.968	79.31
717.152	79.5
717.336	79.63
717.52	79.64
717.704	79.72
717.888	80.03
718.071	79.93
718.255	80.39
718.439	80.66
718.622	80.97
718.806	80.8
718.99	80.98
719.174	80.94
719.357	81.16
719.541	81.19
719.724	80.9
719.908	80.98
720.092	81.31
720.275	81.29
720.459	81.23
720.642	81.47
720.826	81.67
721.009	81.94
721.193	81.92
721.376	82.14
721.559	82.21
721.743	82.29
721.926	82.05
722.11	82.1
722.293	81.78
722.476	81.71
722.66	81.67
722.843	81.89
723.026	82.04
723.21	82.41
723.393	82.38
723.576	82.69
723.759	83.1
723.942	83.11
724.126	83.19
724.309	83.5
724.492	83.55
724.675	83.83
724.858	84.12
725.041	83.85
725.224	83.9
725.407	83.75
725.59	83.4
725.774	83.41
725.957	83.32
726.14	83.25
726.322	83.34
726.505	83.76
726.688	83.92
726.871	84.5
727.054	84.61
727.237	84.73
727.42	85.24
727.603	85.41
727.786	85.35
727.968	85.45
728.151	85.54
728.334	85.64
728.517	85.82
728.699	85.94
728.882	86.37
729.065	86.27
729.248	86.4
729.43	86.23
729.613	86.57
729.796	86.56
729.978	86.18
730.161	86.21
730.343	86.57
730.526	86.57
730.708	86.88
730.891	86.9
731.073	86.81
731.256	87.41
731.438	87.64
731.621	87.89
731.803	88.34
731.986	88.67
732.168	88.27
732.35	88.74
732.533	88.93
732.715	88.92
732.898	88.6
733.08	88.65
733.262	88.58
733.444	88.49
733.627	88.53
733.809	88.42
733.991	88.81
734.173	88.52
734.355	89.04
734.538	88.56
734.72	89.79
734.902	89.82
735.084	89.86
735.266	89.71
735.448	90.51
735.63	90.11
735.812	90.63
735.994	90.25
736.176	90.39
736.358	90.91
736.54	90.95
736.722	90.52
736.904	90.27
737.086	89.99
737.268	89.91
737.45	90.15
737.632	89.2
737.814	89.02
737.995	89.06
738.177	89.62
738.359	90.17
738.541	90.15
738.723	89.94
738.904	90.56
739.086	90.77
739.268	91.51
739.449	91.49
739.631	91.6
739.813	91.78
739.994	92.25
740.176	92.24
740.358	92.35
740.539	92.19
740.721	92.06
740.902	91.36
741.084	91.33
741.265	91.02
741.447	91.06
741.628	90.96
741.81	90.83
741.991	91.26
742.172	92.01
742.354	92.22
742.535	92.26
742.717	92.28
742.898	92.5
743.079	92.46
743.261	92.4
743.442	92.16
743.623	92.34
743.804	92.46
743.986	92.5
744.167	92.48
744.348	92.97
744.529	92.69
744.71	92.54
744.891	92.3
745.073	91.96
745.254	91.63
745.435	91.16
745.616	90.12
745.797	89.8
745.978	89.97
746.159	89.82
746.34	90.06
746.521	90.34
746.702	90.37
746.883	90.9
747.064	90.72
747.245	91.25
747.426	91.47
747.606	91.18
747.787	91.13
747.968	91.75
748.149	91.88
748.33	92.91
748.51	92.13
748.691	92.06
748.872	92.51
749.053	92.86
749.233	92.38
749.414	92.23
749.595	91.09
749.775	90.94
749.956	90.31
750.137	90.22
750.317	89.96
750.498	90.25
750.678	90.38
750.859	91.45
751.04	91.77
751.22	91.85
751.4	91.98
751.581	91.7
751.761	91.82
751.942	91.76
752.122	90.96
752.303	91.37
752.483	91.96
752.663	91.79
752.844	91.05
753.024	91.5
753.204	90.91
753.385	91.3
753.565	90.71
753.745	90.5
753.925	90.02
754.106	90.78
754.286	90.12
754.466	90.75
754.646	90.22
754.826	90.12
755.006	90.02
755.187	90.23
755.367	90.36
755.547	90.17
755.727	89.82
755.907	90.22
756.087	90.59
756.267	90.52
756.447	90.35
756.627	90.46
756.807	90.62
756.987	91.63
757.167	91.53
757.346	90.7
757.526	90.98
757.706	90.83
757.886	90.26
758.066	90.37
758.246	90.18
758.425	90.14
758.605	90.96
758.785	90.65
758.965	90.19
759.144	90.61
759.324	90.47
759.504	90.22
759.683	90.11
759.863	89.85
760.043	89.56
760.222	90.06
760.402	90.35
760.581	89.95
760.761	89.28
760.94	88.96
761.12	88.76
761.299	88.73
761.479	89.43
761.658	88.48
761.838	88.73
762.017	89.2
762.197	89.8
762.376	90.57
762.555	90.29
762.735	89.14
762.914	90.25
763.093	90.75
763.273	90.39
763.452	89.95
763.631	88.33
763.81	89.06
763.99	90.03
764.169	88.77
764.348	88.47
764.527	87.87
764.706	88.21
764.885	89.39
765.064	89.34
765.243	89.12
765.423	90.12
765.602	90.19
765.781	90.57
765.96	89.73
766.139	89.33
766.318	89.15
766.497	88.98
766.676	89.5
766.854	88.51
767.033	88.67
767.212	88.13
767.391	88
767.57	88.15
767.749	88.36
767.928	86.76
768.106	87.03
768.285	86.69
768.464	87.89
768.643	87.93
768.821	87.96
769	88.07
769.179	88.53
769.357	88.23
769.536	88.23
769.715	87.02
769.893	86.98
770.072	86.01
770.25	85.14
770.429	85.67
770.607	86.39
770.786	87.17
770.964	87.21
771.143	86.44
771.321	85.94
771.5	85.42
771.678	85.63
771.857	84.48
772.035	83.76
772.213	84.98
772.392	85.6
772.57	86.7
772.748	86.65
772.927	85.36
773.105	87.07
773.283	87.24
773.461	86.4
773.64	86.31
773.818	85.89
773.996	85.97
774.174	87.04
774.352	86.64
774.531	85.46
774.709	85.07
774.887	85.3
775.065	85.34
775.243	86.9
775.421	85.52
775.599	84.03
775.777	85.25
775.955	85.5
776.133	84.14
776.311	83.52
776.489	82.97
776.667	83.25
776.844	83.13
777.022	82.03
777.2	82.09
777.378	83.3
777.556	84.5
777.734	83.43
777.911	84.31
778.089	83.74
778.267	83.19
778.445	82.21
778.622	81.93
778.8	80.62
778.978	80.76
779.155	80.17
779.333	79.89
779.511	81.6
779.688	81.11
779.866	80.9
780.043	81.34
780.221	80.68
780.398	80.81
780.576	81.88
780.753	79.89
780.931	81.28
781.108	82.31
781.286	80.63
781.463	82.3
781.64	80.73
781.818	80.5
781.995	82.91
782.172	82.57
782.35	80.44
782.527	83.26
782.704	81.01
782.882	82.29
783.059	81.67
783.236	80.08
783.413	81.41
783.59	80.64
783.768	78.55
783.945	80.85
784.122	80.98
784.299	81.73
784.476	82.76
784.653	81.29
784.83	81.88
785.007	83.72
785.184	83.04
785.361	81.56
785.538	80.23
785.715	79.59
785.892	79.8
786.069	81.93
786.246	79.91
786.423	81.79
786.6	84.06
786.776	85.35
786.953	84.56
787.13	86
787.307	84.02
787.484	85.32
787.66	82.99
787.837	81.54
788.014	79.96
788.191	79.08
788.367	76.75
788.544	77.45
788.721	76.98
788.897	76.14
789.074	75.56
789.25	78.45
789.427	80.38
789.603	83.78
789.78	84.79
789.956	83.09
790.133	84.35
790.309	85.27
790.486	86.22
790.662	85.58
790.839	83.41
791.015	83.49
791.192	85.35
791.368	85.37
791.544	85.71
791.721	81.6
791.897	82.14
792.073	79.03
792.249	79.62
792.426	80.57
792.602	78.29
792.778	76.14
792.954	77.38
793.13	77.19
793.307	77.33
793.483	76.01
793.659	75.67
793.835	75.99
794.011	75.83
794.187	73.5
794.363	74.58
794.539	77.24
794.715	74.7
794.891	71.94
795.067	73.75
795.243	75.76
795.419	80.25
795.595	78.72
795.771	78.76
795.947	79.15
796.122	80.42
796.298	79.1
796.474	78
796.65	74.95
796.826	75.47
797.001	75.74
797.177	77.9
797.353	81.23
797.529	81.42
797.704	79.83
797.88	79
798.056	81.21
798.231	80.62
798.407	78.48
798.582	76.44
798.758	77.63
798.934	78.33
799.109	77.27
799.285	74.67
799.46	74.02
799.636	75.07
799.811	73.83
799.986	74.87
800.162	74.75
800.337	74.62
800.513	76.12
800.688	77.98
800.863	78.33
801.039	75.78
801.214	75.31
801.389	77.48
801.565	80.84
801.74	75.61
801.915	72.42
802.09	70.39
802.265	72.48
802.441	71.67
802.616	70.53
802.791	69.17
802.966	71.85
803.141	68.91
803.316	73.34
803.491	72.79
803.666	71.76
803.841	71.6
804.016	75.81
804.191	77.1
804.366	77.73
804.541	72.28
804.716	68.17
804.891	69.58
805.066	69.21
805.241	65.06
805.416	64.69
805.591	68.3
805.765	71.06
805.94	75.64
806.115	71.95
806.29	71.98
806.464	72.59
806.639	73.04
806.814	70.31
806.989	66.42
807.163	67.76
807.338	70.82
807.512	65.37
807.687	63.47
807.862	62.24
808.036	62.31
808.211	66
808.385	63.24
808.56	59.86
808.734	67.58
808.909	68.29
809.083	69.46
809.258	74.63
809.432	76.43
809.606	79.62
809.781	80.35
809.955	79.27
810.13	79.21
810.304	72.88
810.478	72.24
810.652	72.79
810.827	72
811.001	75.28
811.175	69.43
811.349	70.91
811.524	72.76
811.698	73.03
811.872	73.68
812.046	73.76
812.22	72.2
812.394	78.17
812.568	77.36
812.742	77.92
812.916	72.72
813.09	68.74
813.264	68.13
813.438	72.77
813.612	68.96
813.786	70.93
813.96	76.57
814.134	81.22
814.308	78.8
814.482	79.76
814.656	75.15
814.83	77.04
815.003	75.25
815.177	72.05
815.351	72.14
815.525	74.06
815.698	70.81
815.872	67.96
816.046	65.38
816.219	68.22
816.393	60.62
816.567	55.07
816.74	55.4
816.914	58.35
817.088	57.53
817.261	60.26
817.435	57.2
817.608	63.81
817.782	64.37
817.955	68.12
818.129	63.54
818.302	67.61
818.475	67.91
818.649	63.19
818.822	62.58
818.996	67.16
819.169	58
819.342	57.29
819.516	56.81
819.689	53.41
819.862	53.75
820.035	49.46
820.209	47.4
820.382	53.2
820.555	53.91
820.728	44.62
820.901	40.35
821.075	48.45
821.248	51.17
821.421	45.31
821.594	47.23
821.767	47.53
821.94	50.66
822.113	61.22
822.286	58.51
822.459	69.83
822.632	77.63
822.805	70.3
822.978	69.71
823.151	72.25
823.324	65.6
823.496	60.72
823.669	54.76
823.842	59.53
824.015	55.63
824.188	50.82
824.361	51.6
824.533	47.76
824.706	66.83
824.879	63.82
825.051	64.98
825.224	75.37
825.397	78.89
825.569	83.7
825.742	84.87
825.915	67.02
826.087	61.31
826.26	62.36
826.432	60.04
826.605	57.59
826.777	55.12
826.95	57.07
827.122	70.19
827.295	76.86
827.467	65.18
827.64	58.02
827.812	58.38
827.984	60.47
828.157	55
828.329	46.24
828.501	48.31
828.674	51.42
828.846	56.16
829.018	56.55
829.19	48.93
829.363	48.85
829.535	50.88
829.707	40.12
829.879	37.82
830.051	39.3
830.223	39.3
830.395	34.37
830.568	45.3
830.74	49.92
830.912	55.24
831.084	54.32
831.256	44.88
831.428	45.49
831.6	56.52
831.772	49.96
831.943	47.26
832.115	50.09
832.287	52.02
832.459	60.45
832.631	64.58
832.803	67.15
832.975	72.75
833.146	70.33
833.318	65.28
833.49	73.55
833.662	76.54
833.833	79.99
834.005	77.99
834.177	80.4
834.348	75.7
834.52	85.79
834.692	78.84
834.863	68.98
835.035	59.07
835.206	54.79
835.378	41.05
835.549	43.7
835.721	35.22
835.892	36.54
836.064	46.9
836.235	55.66
836.407	51.09
836.578	59.98
836.749	64.46
836.921	69.58
837.092	77.84
837.264	66.49
837.435	61.12
837.606	66.86
837.777	47.11
837.949	38.87
838.12	33.53
838.291	35.51
838.462	36.45
838.633	30.48
838.805	32.87
838.976	44.48
839.147	45.12
839.318	49.86
839.489	38.29
839.66	49.08
839.831	39.18
840.002	35.51
840.173	39.75
840.344	50.8
840.515	54.94
840.686	59.76
840.857	43.54
841.028	55.72
841.199	51.76
841.369	47.27
841.54	50.26
841.711	54.89
841.882	55.87
842.053	79.81
842.223	85.95
842.394	84.65
842.565	83.67
842.736	77.21
842.906	68
843.077	60.56
843.248	56.21
843.418	55.3
843.589	64.6
843.759	55.46
843.93	55.01
844.101	60.61
844.271	72.65
844.442	79.82
844.612	68.75
844.783	39.63
844.953	40.93
845.123	41.93
845.294	29.83
845.464	30.33
845.635	25.6
845.805	33.41
845.975	38.36
846.146	41.79
846.316	49.76
846.486	62.2
846.656	68.04
846.827	57.73
846.997	76.7
847.167	76.67
847.337	76.65
847.507	73.42
847.677	75.92
847.848	70.57
848.018	73.28
848.188	53.29
848.358	60.66
848.528	69.28
848.698	52.81
848.868	29.74
849.038	23.47
849.208	25.66
849.378	24.77
849.548	17.07
849.718	4.09
849.887	-3.79
850.057	9.58
850.227	7.03
850.397	-9.8
850.567	-4.8
850.737	-4.11
850.906	-8.27
851.076	0.9
851.246	10.24
851.415	19.18
851.585	30.49
851.755	33.38
851.924	55.51
852.094	61.87
852.264	56.57
852.433	60.37
852.603	67.83
852.772	70.08
852.942	52.74
853.111	44.59
853.281	43.85
853.45	48.53
853.62	37.87
853.789	43.1
853.959	28.92
854.128	16.23
854.297	11
854.467	6.56
854.636	6.27
854.805	13.43
854.975	8.54
855.144	25.24
855.313	47.65
855.482	36.65
855.652	39.71
855.821	44.19
855.99	60.5
856.159	42.95
856.328	36.36
856.497	35.18
856.667	41.32
856.836	45.06
857.005	35.62
857.174	40.83
857.343	47.77
857.512	41.2
857.681	30.58
857.85	13.1
858.019	14.74
858.188	20.11
858.356	-6.47
858.525	14.48
858.694	23.98
858.863	19.83
859.032	35
859.201	6.02
859.369	11.65
859.538	2.05
859.707	-5.25
859.876	6.24
860.044	12.66
860.213	3.61
860.382	28.65
860.55	48.13
860.719	64.03
860.888	53.63
861.056	59.88
861.225	76.62
861.393	97.62
861.562	84.37
861.73	70.44
861.899	37.39
862.067	43.98
862.236	34.98
862.404	25.26
862.572	14.15
862.741	18.69
862.909	6.12
863.078	26.96
863.246	27.24
863.414	37.32
863.582	41.23
863.751	36.06
863.919	36.04
864.087	38.67
864.255	36.01
864.424	30.68
864.592	24.52
864.76	39.76
864.928	48.55
865.096	47.13
865.264	53.03
865.432	41.65
865.6	16.85
865.768	-1.01
865.936	-27.14
866.104	-47.54
866.272	-41.03
866.44	-53.38
866.608	-36.68
866.776	36.84
866.944	63.94
867.112	50.4
867.28	24.45
867.448	30.87
867.615	28.1
867.783	1.52
867.951	1.78
868.119	19.68
868.286	24.2
868.454	44.42
868.622	43.76
868.789	65.02
868.957	86.34
869.125	71.02
869.292	84.77
869.46	91.08
869.627	88.01
869.795	72.33
869.963	63.2
870.13	90.72
870.298	83.68
870.465	11.15
870.632	4.69
870.8	1.84
870.967	19.63
871.135	39.4
871.302	22.58
871.469	28.43
871.637	52.2
871.804	55.77
871.971	57.2
872.139	62.5
872.306	45.02
872.473	28.05
872.64	22.82
872.807	13.02
872.975	10.47
873.142	9.76
873.309	-21.84
873.476	-68.79
873.643	-67.52
873.81	-70.3
873.977	-44.21
874.144	-69.61
874.311	-56.99
874.478	-64.28
874.645	-56.22
874.812	12.93
874.979	-1.13
875.146	-55.97
875.313	-66.16
875.48	26.87
875.647	-2.18
875.813	-22.91
875.98	-20.71
876.147	32.75
876.314	60.83
876.481	50.88
876.647	30.11
876.814	54.92
876.981	56.73
877.147	29.98
877.314	30.01
877.481	43.48
877.647	46.56
877.814	34.92
877.98	29.02
878.147	55.16
878.314	83.32
878.48	49.23
878.647	55.9
878.813	56.52
878.979	62.76
879.146	50.71
879.312	48.63
879.479	43.13
879.645	29.17
879.811	-5
879.978	-4.23
880.144	-22.08
880.31	-84.37
880.477	-130.43
880.643	-331.91
880.809	-81.68
880.975	-63.46
881.142	-66.54
881.308	-47.41
881.474	35.44
881.64	5.05
881.806	25.89
881.972	19.75
882.138	5.51
882.304	-51.27
882.47	-42.92
882.636	-74.32
882.802	-122.21
882.968	-260.25
883.134	-484.36
883.3	-164.02
883.466	-41.32
883.632	-53.97
883.798	-41.8
883.964	-7.28
884.129	-13.25
884.295	-4.16
884.461	-36.05
884.627	-63.15
884.793	-7.38
884.958	1.35
885.124	-39.9
885.29	6.96
885.455	18.9
885.621	8.86
885.787	-9.67
885.952	-22.11
886.118	-27.05
886.283	16.18
886.449	-13.68
886.614	-16.59
886.78	10.87
886.945	21.95
887.111	35.92
887.276	25.88
887.442	12.47
887.607	15.32
887.773	-4.15
887.938	1.59
888.103	22.92
888.269	10.93
888.434	-0.26
888.599	14.36
888.764	22.32
888.93	46.41
889.095	33.76
889.26	65.63
889.425	92.68
889.59	66.77
889.756	36.14
889.921	35.49
890.086	52.96
890.251	52
890.416	-10.29
890.581	-13.77
890.746	4.92
890.911	-6.65
891.076	-21.29
891.241	-90.86
891.406	-32.79
891.571	-8.68
891.736	-19.95
891.901	13
892.065	40.44
892.23	30.8
892.395	8.85
892.56	12.74
892.725	-4.03
892.889	-17.8
893.054	-101.98
893.219	-185.31
893.384	-298.4
893.548	-690
893.713	1326.73
893.878	607.07
