Data from OFra_PS_T2_2A_0CX04_Reflection_2.txt Node
Date: Wed Jul 21 16:48:49 EDT 2021
User: Adam
Spectrometer: FLMT01687
Trigger mode: 0
Integration Time (sec): 1.100000E0
Scans to average: 2
Electric dark correction enabled: true
Nonlinearity correction enabled: false
Boxcar width: 2
XAxis mode: Wavelengths
Number of Pixels in Spectrum: 3648
>>>>>Begin Spectral Data<<<<<
179.494	408.2
179.716	428
179.937	433.32
180.158	443.56
180.38	758.28
180.601	385.22
180.823	186.76
181.044	107.23
181.265	86.95
181.486	51.81
181.708	97.29
181.929	155.61
182.15	-27.11
182.372	104.98
182.593	96.78
182.814	74.66
183.035	70.74
183.257	51.63
183.478	-4.73
183.699	18.47
183.92	0.69
184.141	-11.03
184.363	-29.92
184.584	8.66
184.805	9.73
185.026	35.26
185.247	33.9
185.468	12.13
185.689	11.86
185.91	9.58
186.132	-10.87
186.353	-8.18
186.574	43.79
186.795	9.72
187.016	-13.14
187.237	-0.12
187.458	-22.15
187.679	-88.55
187.9	-73.05
188.121	-59.62
188.342	-90.98
188.563	-13.42
188.784	17.02
189.005	23.29
189.226	36.74
189.447	24.24
189.667	-152.06
189.888	-272.54
190.109	-741.88
190.33	-368.55
190.551	-675.44
190.772	-181.9
190.993	-135.62
191.214	-103.77
191.434	-71.53
191.655	-18.19
191.876	-26.33
192.097	-72.07
192.318	-147.8
192.538	-187.76
192.759	-121.55
192.98	-53.5
193.201	-16.28
193.421	-0.57
193.642	2.49
193.863	0.84
194.083	-14.71
194.304	-19.12
194.525	-1.51
194.745	-9.56
194.966	9.19
195.187	2.08
195.407	2.75
195.628	-39.18
195.848	-44.61
196.069	-64.95
196.29	-48.42
196.51	-40.18
196.731	-34.09
196.951	-19.52
197.172	-16.66
197.392	4.96
197.613	-5.07
197.833	-31.69
198.054	-22.1
198.274	-11.59
198.495	-38.91
198.715	-3.76
198.936	-11.42
199.156	-27.6
199.377	-73.74
199.597	-66.66
199.817	-110.27
200.038	-52.88
200.258	-93.54
200.479	-45.61
200.699	-68.6
200.919	-17.94
201.14	-16.08
201.36	-15.68
201.58	5.7
201.801	22.61
202.021	6.57
202.241	-0.69
202.461	1.08
202.682	-45.95
202.902	-41.66
203.122	-8.6
203.342	-22.07
203.563	16.5
203.783	14.91
204.003	-27.34
204.223	-18.04
204.443	48.32
204.663	16.17
204.884	33.99
205.104	63.32
205.324	63.66
205.544	44.85
205.764	43.62
205.984	40.24
206.204	36.86
206.424	23.91
206.644	-14.3
206.864	-10.15
207.084	-38.46
207.304	-45.78
207.525	-60.39
207.745	-10.93
207.964	27.66
208.184	1.74
208.404	-11.79
208.624	-23.17
208.844	-34.25
209.064	-204.9
209.284	-161.98
209.504	-75.66
209.724	-28.41
209.944	-7.78
210.164	8.28
210.384	3.57
210.604	-8.72
210.823	-8.73
211.043	-5.17
211.263	4.68
211.483	3.95
211.703	-19.1
211.922	-22.94
212.142	2.7
212.362	-7.36
212.582	-4.41
212.801	15.78
213.021	8.04
213.241	-17.46
213.461	-38.69
213.68	-40.9
213.9	-57.54
214.12	-54.14
214.339	-60.58
214.559	-20.91
214.779	-25
214.998	-9.97
215.218	-16.16
215.438	-26.19
215.657	-36.99
215.877	-12.14
216.096	13.57
216.316	21.31
216.535	25.68
216.755	34.7
216.974	28.56
217.194	-4.05
217.413	-23.36
217.633	-14.82
217.852	-56.67
218.072	-3.7
218.291	14.23
218.511	45.7
218.73	34.97
218.95	19.18
219.169	-6.13
219.389	-31.27
219.608	-24.96
219.827	-16.93
220.047	-20.41
220.266	10.41
220.485	35.25
220.705	35.16
220.924	16.56
221.143	32.83
221.363	24.15
221.582	10.31
221.801	14.75
222.021	24.56
222.24	-8.97
222.459	-23.97
222.678	11.34
222.897	-26.78
223.117	-63.07
223.336	-53.84
223.555	-2.66
223.774	-10.84
223.993	-24.4
224.213	-0.79
224.432	2
224.651	4.28
224.87	-5.64
225.089	14.03
225.308	23.76
225.527	29.97
225.746	35
225.965	26.59
226.184	5.78
226.404	2.47
226.623	1.26
226.842	-9.7
227.061	0.53
227.28	19.96
227.499	11.03
227.718	8.35
227.936	6.66
228.155	20.25
228.374	-1.18
228.593	27.19
228.812	35.23
229.031	32.71
229.25	0.13
229.469	2.05
229.688	-22.97
229.907	14.76
230.125	15.35
230.344	21.65
230.563	29.4
230.782	39.69
231.001	-35.65
231.22	-24.13
231.438	4.8
231.657	3.12
231.876	7.9
232.095	53.68
232.313	51.56
232.532	39.42
232.751	15.37
232.969	-20.08
233.188	-111.39
233.407	-55.26
233.625	-39.26
233.844	-38.14
234.063	-33.46
234.281	-3.06
234.5	-4.32
234.719	3.33
234.937	8.74
235.156	18.06
235.374	8.21
235.593	-23.87
235.811	-30.49
236.03	-39.49
236.249	-59.88
236.467	-52.64
236.686	-0.74
236.904	10.03
237.123	6.48
237.341	8.73
237.559	14.9
237.778	9.59
237.996	6.11
238.215	11.38
238.433	19.75
238.652	14.95
238.87	6.16
239.088	-2.07
239.307	-11.07
239.525	-27.83
239.743	-22.88
239.962	-23.12
240.18	-32
240.398	-27.68
240.617	-30.03
240.835	-32.22
241.053	-36.44
241.271	-21.53
241.49	1
241.708	-17.85
241.926	-45.99
242.144	-14.6
242.363	-45.43
242.581	-75.4
242.799	-21.48
243.017	-11.31
243.235	-13.5
243.453	10.76
243.672	19.62
243.89	3.75
244.108	7.08
244.326	18.98
244.544	24.08
244.762	17.03
244.98	16.8
245.198	26.9
245.416	23.52
245.634	21.39
245.852	5.18
246.07	-2.21
246.288	3.85
246.506	-12.02
246.724	-35.84
246.942	-12.34
247.16	13.38
247.378	13.92
247.596	2.21
247.814	24.6
248.032	4.38
248.25	3.96
248.468	-13.14
248.685	-11.16
248.903	0.91
249.121	9.63
249.339	1.14
249.557	6.89
249.775	24.51
249.992	3.37
250.21	6.38
250.428	-3.81
250.646	-20.22
250.863	-37.32
251.081	-35.43
251.299	-45.58
251.517	-15.02
251.734	6.77
251.952	15.91
252.17	24.11
252.387	26.22
252.605	17.6
252.823	21.64
253.04	22.85
253.258	27.1
253.475	28.6
253.693	44.48
253.911	46.49
254.128	55.1
254.346	53.63
254.563	37.93
254.781	21.8
254.998	10.66
255.216	-10.85
255.433	7.49
255.651	38.19
255.868	32
256.086	46.48
256.303	53.51
256.521	31.58
256.738	15.93
256.956	4.83
257.173	-18.37
257.39	-38.05
257.608	-50.28
257.825	-27.16
258.043	-4.66
258.26	11.06
258.477	29.45
258.695	29.18
258.912	1.98
259.129	19.83
259.346	-5.05
259.564	-11.57
259.781	-26.37
259.998	8.3
260.216	-12.26
260.433	12.1
260.65	-2.95
260.867	1.68
261.084	-18.36
261.302	-19.79
261.519	-35.86
261.736	-34.06
261.953	-32.14
262.17	-19.8
262.387	-54.56
262.604	-59.85
262.822	-31.24
263.039	-15.07
263.256	-33.5
263.473	16.94
263.69	21.17
263.907	31.43
264.124	31.38
264.341	31.26
264.558	26.74
264.775	24.99
264.992	6.02
265.209	-1.76
265.426	10.18
265.643	2.33
265.86	-1.38
266.077	-10.25
266.294	-2.25
266.51	-31.13
266.727	-18.47
266.944	-20.59
267.161	-23.86
267.378	-41.56
267.595	6.33
267.812	-17.78
268.028	-15.25
268.245	6.1
268.462	8.75
268.679	-21.47
268.896	17.9
269.112	14.27
269.329	11.07
269.546	13.26
269.763	16.77
269.979	-9.12
270.196	-7.57
270.413	-33.37
270.629	-42.52
270.846	-33.3
271.063	-18.13
271.279	-11.81
271.496	3.55
271.712	11.15
271.929	4.8
272.146	-2.51
272.362	-15.93
272.579	-1.85
272.795	23.4
273.012	30.23
273.228	27.3
273.445	29.34
273.661	13.85
273.878	-6.75
274.094	-14.63
274.311	-50.02
274.527	0.88
274.744	-5.41
274.96	5.09
275.177	22.55
275.393	50.65
275.609	32.72
275.826	60.76
276.042	53.9
276.259	36.22
276.475	31.1
276.691	39.76
276.908	21.51
277.124	30.85
277.34	31.98
277.557	22.98
277.773	5.62
277.989	7.69
278.205	-15.37
278.422	4.72
278.638	1.83
278.854	14.15
279.07	28.4
279.286	43.85
279.503	25.52
279.719	32.2
279.935	28.75
280.151	3.08
280.367	1.59
280.583	-18.69
280.799	-6.76
281.016	-35.45
281.232	-1.65
281.448	3.05
281.664	29.67
281.88	26.68
282.096	48.82
282.312	51.64
282.528	53.88
282.744	40.39
282.96	25.71
283.176	14.01
283.392	1.35
283.608	8.96
283.824	10.18
284.04	9.1
284.256	0.79
284.471	-2.39
284.687	-28.95
284.903	-27.56
285.119	-15.22
285.335	-19.42
285.551	-23.74
285.767	-13.08
285.982	-21.96
286.198	-45.64
286.414	2.75
286.63	-0.74
286.846	20.85
287.061	16.1
287.277	43.33
287.493	24.77
287.709	38.07
287.924	13.13
288.14	34.65
288.356	21.81
288.571	35.03
288.787	25.61
289.003	32.53
289.218	20.36
289.434	9.09
289.65	14.76
289.865	19.07
290.081	28.07
290.296	30.83
290.512	37.87
290.727	23.33
290.943	6.84
291.159	-0.5
291.374	-11.62
291.59	-32.51
291.805	-26.79
292.021	-4.33
292.236	5.43
292.451	27.17
292.667	35.37
292.882	42.63
293.098	26.77
293.313	3.39
293.529	-13.86
293.744	-16.78
293.959	-21.6
294.175	-13.19
294.39	14.4
294.605	26.06
294.821	31.36
295.036	40.77
295.251	54.66
295.467	57.22
295.682	56.73
295.897	46.23
296.112	26.36
296.328	7.61
296.543	-9.87
296.758	-15.8
296.973	5.98
297.188	23.46
297.404	16.44
297.619	8.16
297.834	8.59
298.049	-5.73
298.264	-32.03
298.479	-11.8
298.694	-14.03
298.909	-4.09
299.125	11.92
299.34	30.22
299.555	33.92
299.77	47.34
299.985	17.94
300.2	-26.38
300.415	-48.74
300.63	-44.91
300.845	-44.52
301.06	-35.32
301.275	-0.61
301.49	17.25
301.704	26.53
301.919	19.15
302.134	9.1
302.349	-8.06
302.564	-39.61
302.779	-74.24
302.994	-84.37
303.209	-48.92
303.423	0.55
303.638	17.48
303.853	9.56
304.068	19.75
304.283	18.62
304.497	14.65
304.712	5.19
304.927	5.62
305.142	2.56
305.356	3.65
305.571	-6.22
305.786	1.43
306	-2.02
306.215	-5.42
306.43	-14.39
306.644	-17
306.859	7.55
307.074	4.59
307.288	-2.52
307.503	-6.23
307.717	2.2
307.932	-14.8
308.147	-10.59
308.361	1.55
308.576	-6.67
308.79	-34.49
309.005	-22.95
309.219	-8.79
309.434	-24.5
309.648	-7.8
309.863	15.04
310.077	27.58
310.292	19.94
310.506	22.05
310.72	23.7
310.935	20.17
311.149	8.09
311.364	26.42
311.578	34.81
311.792	32.82
312.007	27.23
312.221	20.45
312.435	5.07
312.649	2.12
312.864	19.97
313.078	45.76
313.292	88.15
313.507	82.59
313.721	104.85
313.935	40.06
314.149	22.35
314.363	24.87
314.578	28.95
314.792	30.93
315.006	17.93
315.22	20.23
315.434	12.59
315.648	14.51
315.862	4.29
316.077	10.3
316.291	-8.05
316.505	-21.91
316.719	-40.76
316.933	-52.8
317.147	-60.77
317.361	-58.28
317.575	-72.01
317.789	-76.94
318.003	-102.2
318.217	-74.72
318.431	-30.11
318.645	-0.47
318.859	-1.61
319.073	19.18
319.287	11.12
319.5	1.55
319.714	-20.85
319.928	-35.89
320.142	-61.43
320.356	-30
320.57	-20.39
320.784	-26.24
320.997	-43.05
321.211	-23.86
321.425	-46.1
321.639	-72.88
321.853	-28.71
322.066	3.95
322.28	-1.54
322.494	4.09
322.707	23.79
322.921	21.93
323.135	23.37
323.349	14.58
323.562	-3.58
323.776	-2.65
323.989	2.24
324.203	-15.93
324.417	-9.62
324.63	-11.58
324.844	-26.1
325.057	-27.72
325.271	-9.58
325.485	15.99
325.698	34.34
325.912	55.24
326.125	38.81
326.339	34.3
326.552	26.32
326.766	27.87
326.979	28.95
327.193	44.03
327.406	26.59
327.619	13.48
327.833	10.98
328.046	-15.81
328.26	-51.86
328.473	-25.76
328.686	-42.15
328.9	-26.02
329.113	-16.69
329.326	1.14
329.54	1.74
329.753	-0.34
329.966	-20.43
330.179	-16.98
330.393	-17.25
330.606	-4.75
330.819	20.7
331.032	36.89
331.246	36.66
331.459	53.07
331.672	38.91
331.885	24.07
332.098	4.04
332.311	-10.16
332.525	-33.99
332.738	-38.91
332.951	-15.79
333.164	3.26
333.377	14.39
333.59	22.58
333.803	36.43
334.016	20.51
334.229	14.38
334.442	19.74
334.655	19.37
334.868	16.76
335.081	17.61
335.294	7.01
335.507	1.09
335.72	9.05
335.933	-3.49
336.146	-1.41
336.359	-10.09
336.572	-12.69
336.785	-44.89
336.997	-39.24
337.21	-15.86
337.423	-9.66
337.636	-23.81
337.849	-5.58
338.062	0.49
338.274	-15.14
338.487	-5.9
338.7	-9.55
338.913	-34.79
339.125	-31.58
339.338	-57.28
339.551	-95.41
339.763	-43.87
339.976	-24.84
340.189	-23.65
340.402	-26.66
340.614	-0.94
340.827	-5.02
341.039	-8.18
341.252	-3.08
341.465	28.95
341.677	44.78
341.89	31.59
342.102	39.36
342.315	28.54
342.527	-2.93
342.74	-4.99
342.952	2.2
343.165	5
343.377	11.72
343.59	19.36
343.802	19.02
344.015	16.56
344.227	4.65
344.44	14.23
344.652	17.57
344.864	5.91
345.077	35.83
345.289	39.22
345.502	26.41
345.714	23.05
345.926	26.09
346.139	17.28
346.351	14.75
346.563	24.14
346.775	21.24
346.988	15.86
347.2	4.83
347.412	-21.17
347.624	-18.09
347.837	-30.3
348.049	-19.12
348.261	-16.08
348.473	6.07
348.685	-6.64
348.897	-10.38
349.11	-22.69
349.322	-34.45
349.534	-38.89
349.746	-21.99
349.958	-14.77
350.17	-22.03
350.382	-1.11
350.594	7.21
350.806	19.09
351.018	23.87
351.23	35.02
351.442	16.42
351.654	-2.26
351.866	-17.8
352.078	-3.2
352.29	6.02
352.502	19.4
352.714	29.79
352.926	26.35
353.138	21.45
353.35	13.82
353.561	7.74
353.773	-10.52
353.985	-7.25
354.197	-18.84
354.409	-18.53
354.621	-25
354.832	-12.25
355.044	-10.1
355.256	-5.3
355.468	3.02
355.679	8.8
355.891	21.66
356.103	3.56
356.314	17.8
356.526	21.31
356.738	23.22
356.949	13.52
357.161	30.67
357.373	12.18
357.584	16.69
357.796	11.83
358.008	12.57
358.219	24.41
358.431	29.61
358.642	18.42
358.854	10.79
359.065	-3.71
359.277	-34.16
359.488	-48.84
359.7	-55.84
359.911	-48.13
360.123	-27.76
360.334	-28.19
360.546	-32.09
360.757	-33.56
360.969	-24.8
361.18	-20.06
361.391	4.93
361.603	11.24
361.814	7.82
362.025	5.25
362.237	-22.91
362.448	-25.56
362.659	-9.69
362.871	-8.84
363.082	-14.31
363.293	-1.47
363.504	-5.28
363.716	-24.01
363.927	-28.99
364.138	-29.13
364.349	-20.13
364.56	-14.84
364.772	-5.2
364.983	4.94
365.194	14.63
365.405	16.57
365.616	13.67
365.827	15.63
366.038	14.97
366.25	2.7
366.461	4.61
366.672	16.15
366.883	1.88
367.094	7.98
367.305	6.24
367.516	3.43
367.727	-9.23
367.938	2.45
368.149	8.78
368.36	9.7
368.571	16.19
368.781	6.48
368.992	5.21
369.203	-19.53
369.414	-14.97
369.625	-40.42
369.836	-36.87
370.047	-67.97
370.258	-54.07
370.468	-67.51
370.679	-55.71
370.89	-39.55
371.101	-23.94
371.312	-10.11
371.522	3.67
371.733	7.75
371.944	9.72
372.155	21.95
372.365	12.5
372.576	12.43
372.787	6.96
372.997	5.5
373.208	-4.99
373.419	-7.67
373.629	-24.47
373.84	-28.13
374.05	-41.62
374.261	-37.08
374.472	-22.96
374.682	-4.09
374.893	-0.21
375.103	13.8
375.314	9.13
375.524	7.74
375.735	17.57
375.945	18.21
376.156	11.5
376.366	17.14
376.577	15.48
376.787	6.11
376.997	7.75
377.208	8.73
377.418	-0.68
377.629	-4.66
377.839	-2.26
378.049	2.01
378.26	5.37
378.47	18.19
378.68	18.54
378.89	14.17
379.101	6.28
379.311	-2.11
379.521	-31.31
379.732	-29.89
379.942	-28.62
380.152	-42.66
380.362	-19.89
380.572	-8.05
380.783	-1.14
380.993	14.12
381.203	22.07
381.413	9.21
381.623	20.72
381.833	17.01
382.043	6.43
382.253	8.61
382.463	10.21
382.674	-7.17
382.884	-15.12
383.094	-6.95
383.304	0.58
383.514	2.98
383.724	11.62
383.934	13.25
384.144	2.95
384.353	-5.68
384.563	-9.76
384.773	-4.65
384.983	-16.92
385.193	-2.73
385.403	0.58
385.613	9.61
385.823	6.49
386.033	13.45
386.242	0.96
386.452	1.89
386.662	-6.14
386.872	1.41
387.082	-5.11
387.291	0.94
387.501	-0.6
387.711	6.04
387.921	-4.26
388.13	1.17
388.34	6.67
388.55	5.65
388.759	1.47
388.969	9.29
389.179	8.1
389.388	3.12
389.598	8.02
389.807	5.91
390.017	-0.02
390.227	0.87
390.436	2.02
390.646	-2.31
390.855	0.54
391.065	1.44
391.274	1.95
391.484	0.43
391.693	0.32
391.903	2.92
392.112	5.94
392.322	7.15
392.531	11.04
392.74	12.77
392.95	10.24
393.159	7.23
393.369	4.73
393.578	3.05
393.787	2.76
393.997	3.23
394.206	3.53
394.415	5.7
394.625	5.59
394.834	4.95
395.043	6.46
395.252	8.42
395.462	9.22
395.671	10.06
395.88	11.43
396.089	11.67
396.298	10.04
396.508	9.26
396.717	8.25
396.926	7.78
397.135	6.85
397.344	7.15
397.553	7.79
397.762	8.71
397.971	9.05
398.181	9
398.39	8.53
398.599	7.66
398.808	7.69
399.017	7.68
399.226	8.27
399.435	9.28
399.644	9.86
399.853	9.05
400.062	8.7
400.27	8.12
400.479	7.86
400.688	7.72
400.897	8.08
401.106	8.52
401.315	9.15
401.524	8.96
401.733	8.93
401.941	9.22
402.15	9.16
402.359	8.89
402.568	8.97
402.777	8.99
402.985	8.64
403.194	8.38
403.403	8.3
403.612	8.25
403.82	8.2
404.029	8.31
404.238	8.46
404.446	8.49
404.655	8.22
404.864	8.07
405.072	7.8
405.281	7.66
405.489	7.56
405.698	7.82
405.906	7.92
406.115	8.05
406.324	8.12
406.532	8.22
406.741	8.33
406.949	8.26
407.158	8.35
407.366	8.3
407.574	8.33
407.783	8.2
407.991	8.18
408.2	8.06
408.408	8.06
408.617	7.94
408.825	7.85
409.033	7.84
409.242	7.96
409.45	7.85
409.658	7.82
409.867	7.85
410.075	7.83
410.283	7.72
410.491	7.81
410.7	7.73
410.908	7.72
411.116	7.95
411.324	7.88
411.533	7.67
411.741	7.76
411.949	7.74
412.157	7.5
412.365	7.59
412.573	7.77
412.781	7.82
412.99	7.88
413.198	7.96
413.406	7.97
413.614	7.87
413.822	7.85
414.03	7.84
414.238	7.66
414.446	7.66
414.654	7.65
414.862	7.6
415.07	7.56
415.278	7.68
415.486	7.52
415.694	7.56
415.902	7.36
416.109	7.23
416.317	7.28
416.525	7.15
416.733	7.08
416.941	7.25
417.149	7.25
417.357	7.12
417.564	7.25
417.772	7.41
417.98	7.33
418.188	7.24
418.395	7.38
418.603	7.56
418.811	7.16
419.019	7.14
419.226	7.24
419.434	7.15
419.642	6.8
419.849	6.96
420.057	6.92
420.265	6.83
420.472	6.65
420.68	6.65
420.887	6.7
421.095	6.7
421.302	6.75
421.51	6.81
421.717	7.01
421.925	6.99
422.132	6.96
422.34	6.74
422.547	6.72
422.755	6.59
422.962	6.43
423.17	6.48
423.377	6.64
423.585	6.77
423.792	6.8
423.999	6.86
424.207	6.69
424.414	6.65
424.621	6.38
424.829	6.36
425.036	6.4
425.243	6.67
425.451	6.66
425.658	6.73
425.865	6.76
426.072	6.76
426.28	6.71
426.487	6.73
426.694	6.81
426.901	6.72
427.108	6.69
427.315	6.66
427.523	6.74
427.73	6.72
427.937	6.82
428.144	6.77
428.351	6.77
428.558	6.88
428.765	6.91
428.972	6.86
429.179	7.11
429.386	7.33
429.593	7.2
429.8	7.25
430.007	7.45
430.214	7.52
430.421	7.28
430.628	7.18
430.835	7.05
431.042	6.94
431.249	6.85
431.456	6.87
431.662	7
431.869	7.17
432.076	7.19
432.283	7.19
432.49	7.35
432.697	7.44
432.903	7.33
433.11	7.45
433.317	7.54
433.524	7.59
433.73	7.63
433.937	7.78
434.144	7.68
434.35	7.74
434.557	7.48
434.764	7.35
434.97	7.39
435.177	7.52
435.384	7.48
435.59	7.8
435.797	8.11
436.003	7.96
436.21	7.88
436.416	7.91
436.623	7.87
436.829	7.86
437.036	8.05
437.242	8.26
437.449	8.15
437.655	8.18
437.862	8.21
438.068	8.18
438.275	8.2
438.481	8.45
438.687	8.4
438.894	8.39
439.1	8.44
439.307	8.45
439.513	8.33
439.719	8.39
439.926	8.46
440.132	8.54
440.338	8.55
440.544	8.72
440.751	8.75
440.957	8.83
441.163	8.86
441.369	8.91
441.575	8.77
441.782	8.74
441.988	8.6
442.194	8.58
442.4	8.61
442.606	8.84
442.812	9.05
443.018	9.08
443.224	9.11
443.431	9.13
443.637	9.06
443.843	8.97
444.049	9.06
444.255	9.05
444.461	9.18
444.667	9.19
444.873	9.26
445.079	9.29
445.284	9.41
445.49	9.23
445.696	9.2
445.902	9.22
446.108	9.19
446.314	9.16
446.52	9.24
446.726	9.36
446.931	9.38
447.137	9.43
447.343	9.47
447.549	9.47
447.755	9.43
447.96	9.49
448.166	9.48
448.372	9.48
448.578	9.57
448.783	9.59
448.989	9.55
449.195	9.71
449.4	9.77
449.606	9.73
449.812	9.73
450.017	9.74
450.223	9.67
450.428	9.66
450.634	9.68
450.84	9.78
451.045	9.78
451.251	9.77
451.456	9.88
451.662	9.99
451.867	9.97
452.073	10.03
452.278	10.11
452.483	10.06
452.689	9.97
452.894	9.98
453.1	9.93
453.305	9.88
453.51	9.92
453.716	9.97
453.921	10.04
454.127	10.03
454.332	10.07
454.537	9.94
454.742	9.86
454.948	9.79
455.153	9.88
455.358	9.98
455.563	10.12
455.769	10.29
455.974	10.37
456.179	10.35
456.384	10.23
456.589	10.3
456.795	10.15
457	10.12
457.205	10.27
457.41	10.35
457.615	10.24
457.82	10.34
458.025	10.34
458.23	10.26
458.435	10.29
458.64	10.33
458.845	10.32
459.05	10.33
459.255	10.32
459.46	10.28
459.665	10.27
459.87	10.33
460.075	10.37
460.28	10.34
460.485	10.44
460.69	10.52
460.895	10.44
461.099	10.48
461.304	10.62
461.509	10.66
461.714	10.6
461.919	10.68
462.123	10.56
462.328	10.63
462.533	10.52
462.738	10.65
462.942	10.72
463.147	10.87
463.352	10.8
463.556	10.95
463.761	10.87
463.966	10.81
464.17	10.75
464.375	10.77
464.58	10.7
464.784	10.74
464.989	10.74
465.193	10.8
465.398	10.86
465.602	11.07
465.807	11.09
466.011	11.31
466.216	11.36
466.42	11.31
466.625	11.29
466.829	11.39
467.034	11.34
467.238	11.47
467.443	11.56
467.647	11.42
467.851	11.45
468.056	11.46
468.26	11.48
468.464	11.51
468.669	11.65
468.873	11.75
469.077	11.73
469.282	11.74
469.486	11.77
469.69	11.75
469.894	11.73
470.099	11.87
470.303	12.01
470.507	11.93
470.711	11.97
470.915	11.95
471.119	11.89
471.324	11.76
471.528	11.88
471.732	12.02
471.936	12.04
472.14	12.09
472.344	12.21
472.548	12.28
472.752	12.3
472.956	12.48
473.16	12.57
473.364	12.58
473.568	12.59
473.772	12.62
473.976	12.52
474.18	12.5
474.384	12.63
474.588	12.7
474.792	12.71
474.995	12.78
475.199	12.92
475.403	12.84
475.607	12.83
475.811	12.87
476.015	12.92
476.218	13
476.422	13.11
476.626	13.19
476.83	13.24
477.033	13.29
477.237	13.22
477.441	13.27
477.644	13.35
477.848	13.38
478.052	13.37
478.255	13.41
478.459	13.41
478.663	13.4
478.866	13.43
479.07	13.58
479.273	13.67
479.477	13.68
479.681	13.75
479.884	13.79
480.088	13.75
480.291	13.82
480.495	13.9
480.698	13.94
480.901	13.99
481.105	14.14
481.308	14.11
481.512	14.12
481.715	14.19
481.919	14.24
482.122	14.2
482.325	14.2
482.529	14.2
482.732	14.16
482.935	14.18
483.138	14.18
483.342	14.27
483.545	14.39
483.748	14.49
483.952	14.5
484.155	14.62
484.358	14.56
484.561	14.54
484.764	14.48
484.967	14.59
485.171	14.58
485.374	14.72
485.577	14.83
485.78	14.93
485.983	14.84
486.186	14.76
486.389	14.7
486.592	14.66
486.795	14.66
486.998	14.67
487.201	14.77
487.404	14.82
487.607	14.8
487.81	14.74
488.013	14.79
488.216	14.75
488.419	14.74
488.622	14.84
488.825	14.82
489.028	14.8
489.231	14.82
489.433	14.85
489.636	14.79
489.839	14.84
490.042	14.85
490.245	14.87
490.447	14.88
490.65	14.99
490.853	15.03
491.056	15.08
491.258	15.1
491.461	15.1
491.664	15.04
491.866	15.01
492.069	15.13
492.272	15.11
492.474	15.14
492.677	15.24
492.879	15.33
493.082	15.34
493.285	15.44
493.487	15.56
493.69	15.47
493.892	15.5
494.095	15.51
494.297	15.53
494.5	15.5
494.702	15.6
494.905	15.61
495.107	15.54
495.309	15.56
495.512	15.62
495.714	15.65
495.917	15.64
496.119	15.72
496.321	15.75
496.524	15.81
496.726	15.86
496.928	15.91
497.13	15.95
497.333	16.01
497.535	16.02
497.737	16.08
497.939	16.15
498.142	16.21
498.344	16.21
498.546	16.26
498.748	16.2
498.95	16.33
499.152	16.34
499.355	16.43
499.557	16.47
499.759	16.61
499.961	16.55
500.163	16.6
500.365	16.65
500.567	16.71
500.769	16.69
500.971	16.77
501.173	16.79
501.375	16.76
501.577	16.78
501.779	16.83
501.981	16.87
502.183	16.88
502.385	16.92
502.587	16.94
502.788	17.04
502.99	17.12
503.192	17.26
503.394	17.27
503.596	17.26
503.798	17.27
503.999	17.31
504.201	17.25
504.403	17.35
504.605	17.47
504.806	17.5
505.008	17.49
505.21	17.66
505.411	17.73
505.613	17.77
505.815	17.75
506.016	17.81
506.218	17.84
506.42	17.83
506.621	17.89
506.823	18.07
507.024	18.11
507.226	18.11
507.427	18.12
507.629	18.19
507.83	18.15
508.032	18.19
508.233	18.32
508.435	18.5
508.636	18.57
508.838	18.62
509.039	18.68
509.24	18.62
509.442	18.62
509.643	18.63
509.845	18.66
510.046	18.73
510.247	18.87
510.448	18.84
510.65	18.88
510.851	18.96
511.052	18.97
511.254	18.87
511.455	18.99
511.656	18.97
511.857	19.02
512.058	19.05
512.26	19.2
512.461	19.28
512.662	19.39
512.863	19.42
513.064	19.45
513.265	19.41
513.466	19.41
513.667	19.43
513.868	19.42
514.069	19.57
514.27	19.69
514.471	19.75
514.672	19.86
514.873	19.91
515.074	19.92
515.275	19.95
515.476	19.92
515.677	19.89
515.878	19.98
516.079	19.95
516.28	19.95
516.481	20.08
516.682	20.16
516.882	20.09
517.083	20.1
517.284	20.1
517.485	20.08
517.686	20.08
517.886	20.25
518.087	20.31
518.288	20.36
518.488	20.35
518.689	20.31
518.89	20.29
519.091	20.45
519.291	20.46
519.492	20.54
519.692	20.66
519.893	20.73
520.094	20.7
520.294	20.75
520.495	20.78
520.695	20.84
520.896	20.89
521.096	20.94
521.297	21
521.497	21.01
521.698	21.03
521.898	21.05
522.099	21.01
522.299	21.05
522.499	21.07
522.7	21.05
522.9	21.05
523.101	21.19
523.301	21.22
523.501	21.24
523.702	21.29
523.902	21.3
524.102	21.32
524.302	21.31
524.503	21.4
524.703	21.44
524.903	21.5
525.103	21.49
525.304	21.56
525.504	21.61
525.704	21.69
525.904	21.71
526.104	21.75
526.304	21.75
526.504	21.75
526.705	21.68
526.905	21.75
527.105	21.72
527.305	21.77
527.505	21.77
527.705	21.87
527.905	21.89
528.105	21.98
528.305	21.97
528.505	22.08
528.705	22.08
528.905	22.04
529.105	22.01
529.304	22.09
529.504	22.08
529.704	22.14
529.904	22.24
530.104	22.29
530.304	22.32
530.503	22.35
530.703	22.35
530.903	22.33
531.103	22.43
531.303	22.45
531.502	22.46
531.702	22.55
531.902	22.67
532.101	22.71
532.301	22.76
532.501	22.82
532.7	22.81
532.9	22.8
533.1	22.71
533.299	22.79
533.499	22.84
533.698	22.88
533.898	22.91
534.097	22.96
534.297	23.04
534.496	23.03
534.696	23.04
534.895	23.17
535.095	23.29
535.294	23.25
535.494	23.29
535.693	23.35
535.892	23.39
536.092	23.38
536.291	23.33
536.491	23.43
536.69	23.52
536.889	23.47
537.088	23.47
537.288	23.62
537.487	23.69
537.686	23.82
537.886	23.82
538.085	23.9
538.284	24
538.483	23.96
538.682	23.88
538.882	24.01
539.081	24.11
539.28	24.08
539.479	24.15
539.678	24.19
539.877	24.29
540.076	24.31
540.275	24.4
540.474	24.44
540.673	24.49
540.872	24.42
541.071	24.47
541.27	24.5
541.469	24.59
541.668	24.6
541.867	24.73
542.066	24.77
542.265	24.83
542.464	24.89
542.663	25.08
542.862	25.21
543.06	25.35
543.259	25.5
543.458	25.55
543.657	25.52
543.856	25.51
544.054	25.48
544.253	25.39
544.452	25.43
544.651	25.51
544.849	25.49
545.048	25.61
545.247	25.78
545.445	25.84
545.644	25.82
545.843	25.95
546.041	25.97
546.24	26.01
546.438	26.15
546.637	26.36
546.836	26.46
547.034	26.57
547.233	26.66
547.431	26.65
547.63	26.62
547.828	26.7
548.027	26.71
548.225	26.73
548.423	26.81
548.622	26.96
548.82	27.03
549.019	27.13
549.217	27.26
549.415	27.37
549.614	27.47
549.812	27.49
550.01	27.48
550.209	27.55
550.407	27.67
550.605	27.74
550.803	27.89
551.002	28.12
551.2	28.28
551.398	28.37
551.596	28.49
551.794	28.61
551.993	28.7
552.191	28.75
552.389	28.95
552.587	28.99
552.785	29.08
552.983	29.15
553.181	29.26
553.379	29.26
553.577	29.46
553.775	29.57
553.973	29.66
554.171	29.72
554.369	29.82
554.567	29.95
554.765	29.99
554.963	30.11
555.161	30.2
555.359	30.35
555.557	30.53
555.755	30.63
555.952	30.79
556.15	30.89
556.348	30.94
556.546	30.98
556.744	31.16
556.941	31.09
557.139	31.31
557.337	31.46
557.535	31.53
557.732	31.62
557.93	31.76
558.128	31.79
558.325	31.92
558.523	31.89
558.721	32.03
558.918	32.24
559.116	32.39
559.313	32.4
559.511	32.65
559.708	32.7
559.906	32.81
560.104	32.91
560.301	33.12
560.498	33.28
560.696	33.38
560.893	33.48
561.091	33.52
561.288	33.7
561.486	33.72
561.683	33.84
561.88	33.92
562.078	34.09
562.275	34.09
562.473	34.28
562.67	34.51
562.867	34.71
563.064	34.79
563.262	34.91
563.459	35.01
563.656	34.97
563.853	35.08
564.051	35.26
564.248	35.48
564.445	35.58
564.642	35.84
564.839	36.15
565.036	36.19
565.234	36.36
565.431	36.48
565.628	36.48
565.825	36.41
566.022	36.66
566.219	36.77
566.416	36.94
566.613	37.22
566.81	37.37
567.007	37.39
567.204	37.37
567.401	37.46
567.598	37.4
567.795	37.45
567.991	37.56
568.188	37.71
568.385	37.72
568.582	37.83
568.779	37.89
568.976	37.94
569.172	37.96
569.369	38.01
569.566	38.12
569.763	38.24
569.96	38.35
570.156	38.42
570.353	38.46
570.55	38.43
570.746	38.35
570.943	38.4
571.14	38.36
571.336	38.52
571.533	38.57
571.729	38.6
571.926	38.58
572.123	38.71
572.319	38.73
572.516	38.85
572.712	39.01
572.909	39.05
573.105	39.11
573.302	39.19
573.498	39.18
573.695	39.14
573.891	39.19
574.087	39.17
574.284	39.13
574.48	39.19
574.677	39.25
574.873	39.34
575.069	39.46
575.266	39.54
575.462	39.58
575.658	39.64
575.854	39.68
576.051	39.68
576.247	39.59
576.443	39.58
576.639	39.65
576.835	39.56
577.032	39.54
577.228	39.71
577.424	39.68
577.62	39.6
577.816	39.72
578.012	39.69
578.208	39.69
578.404	39.83
578.6	39.86
578.796	39.74
578.993	39.82
579.189	39.73
579.384	39.63
579.58	39.63
579.776	39.76
579.972	39.71
580.168	39.64
580.364	39.69
580.56	39.63
580.756	39.53
580.952	39.55
581.148	39.6
581.343	39.71
581.539	39.83
581.735	39.9
581.931	39.8
582.127	39.79
582.322	39.74
582.518	39.7
582.714	39.67
582.909	39.74
583.105	39.81
583.301	39.69
583.496	39.67
583.692	39.68
583.888	39.66
584.083	39.57
584.279	39.61
584.474	39.57
584.67	39.51
584.866	39.47
585.061	39.46
585.257	39.55
585.452	39.6
585.648	39.66
585.843	39.73
586.039	39.75
586.234	39.73
586.429	39.66
586.625	39.77
586.82	39.76
587.015	39.84
587.211	39.73
587.406	39.92
587.601	39.82
587.797	39.89
587.992	39.96
588.187	40.09
588.383	40.01
588.578	40.02
588.773	39.95
588.968	39.88
589.163	39.92
589.359	39.93
589.554	39.9
589.749	39.99
589.944	40.09
590.139	40.08
590.334	40.14
590.529	40.22
590.724	40.31
590.919	40.39
591.114	40.43
591.309	40.49
591.504	40.61
591.699	40.58
591.894	40.44
592.089	40.5
592.284	40.48
592.479	40.48
592.674	40.52
592.869	40.75
593.064	40.81
593.259	40.96
593.454	41.16
593.648	41.28
593.843	41.31
594.038	41.37
594.233	41.47
594.428	41.37
594.622	41.41
594.817	41.58
595.012	41.58
595.206	41.53
595.401	41.63
595.596	41.56
595.79	41.64
595.985	41.84
596.18	41.99
596.374	42.13
596.569	42.33
596.763	42.28
596.958	42.36
597.153	42.49
597.347	42.49
597.542	42.64
597.736	42.75
597.931	42.75
598.125	42.69
598.319	42.83
598.514	42.8
598.708	42.94
598.903	42.92
599.097	43.06
599.291	43.03
599.486	43.06
599.68	43.14
599.874	43.31
600.069	43.34
600.263	43.42
600.457	43.6
600.651	43.62
600.846	43.75
601.04	43.86
601.234	44.02
601.428	43.98
601.622	44.03
601.817	43.95
602.011	44.05
602.205	44.04
602.399	44.17
602.593	44.2
602.787	44.19
602.981	44.19
603.175	44.32
603.369	44.22
603.563	44.3
603.757	44.45
603.951	44.37
604.145	44.17
604.339	44.18
604.533	44.06
604.727	43.96
604.921	43.91
605.115	43.92
605.309	44.11
605.502	44.23
605.696	44.26
605.89	44.34
606.084	44.35
606.278	44.25
606.471	44.11
606.665	44.01
606.859	43.91
607.053	43.92
607.246	43.76
607.44	43.74
607.634	43.78
607.827	43.79
608.021	43.8
608.214	43.99
608.408	43.87
608.602	43.76
608.795	43.76
608.989	43.6
609.182	43.35
609.376	43.4
609.569	43.32
609.763	43.23
609.956	43.15
610.15	43.14
610.343	43.08
610.537	43.06
610.73	43.02
610.923	43.06
611.117	42.98
611.31	42.84
611.504	42.74
611.697	42.6
611.89	42.54
612.083	42.58
612.277	42.58
612.47	42.59
612.663	42.64
612.856	42.53
613.05	42.29
613.243	42.27
613.436	42.11
613.629	42.02
613.822	41.82
614.015	41.91
614.209	41.7
614.402	41.69
614.595	41.57
614.788	41.62
614.981	41.46
615.174	41.41
615.367	41.34
615.56	41.43
615.753	41.38
615.946	41.25
616.139	41.28
616.332	41.25
616.525	41.13
616.718	41.15
616.911	41.21
617.103	41.12
617.296	41.12
617.489	40.97
617.682	40.96
617.875	40.89
618.067	40.8
618.26	40.68
618.453	40.73
618.646	40.68
618.838	40.71
619.031	40.81
619.224	40.8
619.417	40.73
619.609	40.69
619.802	40.46
619.994	40.42
620.187	40.34
620.38	40.43
620.572	40.39
620.765	40.58
620.957	40.42
621.15	40.34
621.342	40.21
621.535	40.01
621.727	39.87
621.92	39.91
622.112	39.86
622.305	39.91
622.497	39.99
622.69	40.08
622.882	40.06
623.074	40.22
623.267	40.09
623.459	40.13
623.651	40.05
623.844	40.04
624.036	40.09
624.228	40.04
624.42	39.91
624.613	39.91
624.805	39.87
624.997	39.84
625.189	39.92
625.381	39.88
625.574	39.71
625.766	39.68
625.958	39.5
626.15	39.52
626.342	39.66
626.534	39.69
626.726	39.69
626.918	39.75
627.11	39.58
627.302	39.38
627.494	39.44
627.686	39.43
627.878	39.26
628.07	39.44
628.262	39.37
628.454	39.26
628.646	39.24
628.838	39.38
629.029	39.15
629.221	39.22
629.413	39.22
629.605	39.07
629.797	38.95
629.989	39.01
630.18	38.97
630.372	38.91
630.564	38.91
630.755	38.94
630.947	38.94
631.139	38.84
631.33	38.71
631.522	38.68
631.714	38.49
631.905	38.36
632.097	38.41
632.289	38.53
632.48	38.49
632.672	38.53
632.863	38.6
633.055	38.49
633.246	38.46
633.438	38.47
633.629	38.42
633.821	38.33
634.012	38.3
634.203	38.21
634.395	38.21
634.586	38.3
634.777	38.3
634.969	38.35
635.16	38.43
635.351	38.36
635.543	38.34
635.734	38.35
635.925	38.29
636.117	38.25
636.308	38.3
636.499	38.22
636.69	38.07
636.881	38
637.073	37.97
637.264	38.01
637.455	37.96
637.646	38.05
637.837	38.17
638.028	38.15
638.219	38.02
638.41	37.99
638.601	37.92
638.792	37.93
638.983	37.91
639.174	37.89
639.365	37.97
639.556	37.84
639.747	37.76
639.938	37.73
640.129	37.69
640.32	37.55
640.511	37.64
640.701	37.62
640.892	37.49
641.083	37.5
641.274	37.54
641.465	37.45
641.655	37.36
641.846	37.38
642.037	37.27
642.228	37.18
642.418	37.3
642.609	37.3
642.8	37.26
642.99	37.36
643.181	37.33
643.372	37.17
643.562	37.13
643.753	37.12
643.943	36.94
644.134	36.97
644.324	37.08
644.515	37
644.705	37.02
644.896	37.08
645.086	36.89
645.277	36.69
645.467	36.71
645.658	36.67
645.848	36.64
646.038	36.73
646.229	36.78
646.419	36.68
646.61	36.58
646.8	36.47
646.99	36.33
647.18	36.16
647.371	36.21
647.561	36.24
647.751	36.23
647.941	36.21
648.132	36.27
648.322	36.2
648.512	36.19
648.702	36.16
648.892	36.23
649.082	36.18
649.272	36.09
649.462	35.91
649.653	35.81
649.843	35.63
650.033	35.59
650.223	35.5
650.413	35.45
650.603	35.37
650.793	35.38
650.983	35.37
651.172	35.37
651.362	35.35
651.552	35.34
651.742	35.28
651.932	35.17
652.122	35.14
652.312	35.09
652.502	35.04
652.691	34.96
652.881	34.91
653.071	34.83
653.261	34.74
653.45	34.58
653.64	34.49
653.83	34.31
654.019	34.11
654.209	34.03
654.399	33.89
654.588	33.75
654.778	33.66
654.968	33.58
655.157	33.26
655.347	33.24
655.536	32.94
655.726	32.72
655.915	32.49
656.105	32.4
656.294	32.2
656.484	32.13
656.673	32.07
656.863	32.01
657.052	31.79
657.241	31.48
657.431	31.2
657.62	30.93
657.809	30.56
657.999	30.44
658.188	30.27
658.377	30.16
658.567	29.88
658.756	29.77
658.945	29.51
659.134	29.29
659.324	28.97
659.513	28.76
659.702	28.46
659.891	28.25
660.08	27.98
660.269	27.92
660.458	27.72
660.648	27.49
660.837	27.18
661.026	27.02
661.215	26.64
661.404	26.46
661.593	26.18
661.782	25.93
661.971	25.76
662.16	25.56
662.349	25.27
662.538	25.09
662.726	24.94
662.915	24.66
663.104	24.41
663.293	24.24
663.482	24.07
663.671	23.85
663.86	23.6
664.048	23.47
664.237	23.25
664.426	23.01
664.615	22.86
664.803	22.69
664.992	22.44
665.181	22.32
665.369	22.12
665.558	21.89
665.747	21.78
665.935	21.76
666.124	21.69
666.312	21.73
666.501	21.6
666.69	21.44
666.878	21.26
667.067	20.97
667.255	20.78
667.444	20.74
667.632	20.79
667.82	20.67
668.009	20.71
668.197	20.54
668.386	20.32
668.574	20.11
668.762	20.06
668.951	19.84
669.139	19.78
669.327	19.63
669.516	19.51
669.704	19.29
669.892	19.27
670.08	19.22
670.269	19.34
670.457	19.3
670.645	19.24
670.833	19.3
671.021	19.22
671.21	19.11
671.398	19.19
671.586	19.21
671.774	18.96
671.962	19.01
672.15	19.04
672.338	18.89
672.526	18.93
672.714	18.98
672.902	18.93
673.09	19.03
673.278	19.1
673.466	19.13
673.654	19.28
673.842	19.18
674.03	19.08
674.218	19.12
674.405	19.16
674.593	19.06
674.781	19.17
674.969	19.21
675.157	19.22
675.344	19.18
675.532	19.17
675.72	19.31
675.908	19.38
676.095	19.43
676.283	19.61
676.471	19.84
676.658	19.85
676.846	19.98
677.033	20.13
677.221	20.16
677.409	20.09
677.596	20.14
677.784	20.19
677.971	20.15
678.159	20.19
678.346	20.19
678.534	20.38
678.721	20.55
678.909	20.78
679.096	20.81
679.283	21.08
679.471	21.2
679.658	21.33
679.846	21.44
680.033	21.78
680.22	22.02
680.408	22.07
680.595	22.09
680.782	22.19
680.969	22.28
681.157	22.52
681.344	22.65
681.531	22.88
681.718	23.05
681.905	23.34
682.093	23.37
682.28	23.73
682.467	24.03
682.654	24.31
682.841	24.48
683.028	24.74
683.215	24.99
683.402	25.12
683.589	25.59
683.776	26.06
683.963	26.48
684.15	26.84
684.337	27.39
684.524	27.65
684.711	27.97
684.898	28.34
685.085	28.62
685.271	28.97
685.458	29.24
685.645	29.73
685.832	30.1
686.019	30.8
686.205	31.05
686.392	31.7
686.579	31.94
686.766	32.42
686.952	32.61
687.139	33.26
687.326	33.56
687.512	33.96
687.699	34.6
687.886	35.18
688.072	35.84
688.259	36.42
688.445	37.08
688.632	37.42
688.818	38.03
689.005	38.47
689.191	38.88
689.378	39.69
689.564	40.45
689.751	41.06
689.937	41.51
690.124	42.25
690.31	42.43
690.496	42.74
690.683	43.12
690.869	43.81
691.055	44.58
691.242	45.41
691.428	46.19
691.614	47.09
691.8	47.65
691.987	47.96
692.173	48.48
692.359	49.01
692.545	49.48
692.731	49.94
692.918	50.69
693.104	51.16
693.29	51.64
693.476	52.12
693.662	52.75
693.848	53.06
694.034	53.52
694.22	54.11
694.406	54.68
694.592	55.34
694.778	56.2
694.964	56.88
695.15	57.51
695.336	58.06
695.522	58.7
695.708	59
695.894	59.53
696.08	60.02
696.265	60.56
696.451	61.11
696.637	61.55
696.823	61.95
697.009	62.24
697.194	62.64
697.38	62.85
697.566	63.33
697.751	64.26
697.937	65.09
698.123	65.58
698.308	66.15
698.494	67.07
698.68	67.18
698.865	67.34
699.051	67.77
699.236	68.13
699.422	68.14
699.607	68.13
699.793	68.47
699.978	68.91
700.164	69.33
700.349	69.91
700.535	70.57
700.72	70.79
700.906	71.16
701.091	71.21
701.276	71.49
701.462	72.17
701.647	72.94
701.832	73.16
702.018	73.69
702.203	73.82
702.388	73.72
702.573	73.85
702.759	74.51
702.944	74.54
703.129	74.87
703.314	75.06
703.499	75.21
703.684	74.9
703.87	75.79
704.055	76.04
704.24	76.35
704.425	77.03
704.61	77.49
704.795	77.5
704.98	77.7
705.165	77.95
705.35	77.99
705.535	78.32
705.72	78.44
705.905	78.97
706.09	79.52
706.275	79.79
706.459	79.78
706.644	79.86
706.829	79.85
707.014	79.59
707.199	79.44
707.384	79.29
707.568	79.43
707.753	79.5
707.938	79.76
708.123	79.73
708.307	80.27
708.492	80.55
708.677	80.86
708.861	80.88
709.046	81.13
709.231	81.69
709.415	81.88
709.6	82.02
709.784	82.05
709.969	82.34
710.153	82.05
710.338	82.07
710.522	82.09
710.707	82.69
710.891	83.05
711.076	83.06
711.26	83.22
711.445	83.15
711.629	83.38
711.813	83.26
711.998	83.93
712.182	83.89
712.366	84.69
712.551	84.88
712.735	85.39
712.919	85.31
713.103	85.42
713.288	85
713.472	84.74
713.656	84.67
713.84	84.31
714.024	84.62
714.208	84.82
714.393	85.13
714.577	85.26
714.761	85.19
714.945	84.92
715.129	84.58
715.313	84.48
715.497	84.31
715.681	85.01
715.865	84.93
716.049	85.54
716.233	85.36
716.417	85.52
716.601	85.13
716.785	85.1
716.968	84.9
717.152	85.16
717.336	85.41
717.52	86.02
717.704	86.12
717.888	86.32
718.071	86.43
718.255	86.32
718.439	85.81
718.622	86.18
718.806	86.66
718.99	86.41
719.174	86.36
719.357	86.78
719.541	87.01
719.724	86.74
719.908	86.96
720.092	87.05
720.275	86.91
720.459	86.37
720.642	86.03
720.826	86.15
721.009	85.88
721.193	85.39
721.376	85.71
721.559	85.92
721.743	85.96
721.926	86.09
722.11	86.81
722.293	86.59
722.476	86.48
722.66	86.47
722.843	86.66
723.026	86.12
723.21	86.69
723.393	87.06
723.576	86.96
723.759	86.64
723.942	87.14
724.126	86.8
724.309	86.54
724.492	86.52
724.675	87.06
724.858	87.06
725.041	87.4
725.224	87.57
725.407	87.68
725.59	87.85
725.774	87.65
725.957	87.29
726.14	87.36
726.322	87.13
726.505	86.66
726.688	87.4
726.871	87.69
727.054	87.48
727.237	87.79
727.42	88.24
727.603	87.38
727.786	87.83
727.968	88.13
728.151	87.93
728.334	87.06
728.517	87.34
728.699	87.47
728.882	87.27
729.065	87.74
729.248	88.36
729.43	89.14
729.613	89.2
729.796	89.55
729.978	89.26
730.161	89.22
730.343	88.36
730.526	88.63
730.708	88.47
730.891	89.06
731.073	88.98
731.256	88.87
731.438	88.16
731.621	88.55
731.803	88.45
731.986	88.6
732.168	88.67
732.35	89.47
732.533	89.06
732.715	89.08
732.898	88.91
733.08	89.04
733.262	88.53
733.444	88.68
733.627	88.09
733.809	88.98
733.991	88.85
734.173	88.5
734.355	88.49
734.538	89.16
734.72	88.19
734.902	89.13
735.084	89.82
735.266	89.46
735.448	90
735.63	90.97
735.812	90.64
735.994	90.41
736.176	90.68
736.358	89.98
736.54	89.82
736.722	89.53
736.904	89.09
737.086	89.64
737.268	89.68
737.45	89.21
737.632	89.82
737.814	89.48
737.995	89.09
738.177	89.46
738.359	88.96
738.541	88.78
738.723	89.48
738.904	90.17
739.086	90.17
739.268	91.38
739.449	91.77
739.631	91.62
739.813	91.36
739.994	91.46
740.176	91.04
740.358	90.45
740.539	90.1
740.721	89.97
740.902	90.07
741.084	89.59
741.265	90.2
741.447	90.93
741.628	90.14
741.81	89.54
741.991	90.61
742.172	90.48
742.354	90.89
742.535	91.41
742.717	91.72
742.898	91.85
743.079	91.15
743.261	90.75
743.442	89.79
743.623	91.29
743.804	91.25
743.986	91.8
744.167	91.3
744.348	92.22
744.529	90.83
744.71	90.03
744.891	89.91
745.073	89.43
745.254	88.81
745.435	88.43
745.616	87.42
745.797	87.25
745.978	87.08
746.159	88.95
746.34	88.58
746.521	91.11
746.702	90.51
746.883	91.9
747.064	91.33
747.245	92.1
747.426	89.86
747.606	90.53
747.787	90.74
747.968	89.82
748.149	89.07
748.33	90.58
748.51	90.39
748.691	89.52
748.872	89.63
749.053	90.59
749.233	88.58
749.414	87.86
749.595	87.36
749.775	87.55
749.956	86.56
750.137	88.02
750.317	89.09
750.498	89.99
750.678	89.62
750.859	91.13
751.04	91.29
751.22	90.96
751.4	90.16
751.581	89.22
751.761	87.32
751.942	86.06
752.122	84.74
752.303	84.47
752.483	85.09
752.663	85.51
752.844	85.22
753.024	87.13
753.204	88.61
753.385	88.91
753.565	90.8
753.745	92.29
753.925	91.23
754.106	89.03
754.286	88.65
754.466	86.97
754.646	86.63
754.826	86.51
755.006	86.38
755.187	86.63
755.367	86.85
755.547	86.42
755.727	88.06
755.907	89.46
756.087	90.42
756.267	89.59
756.447	91.3
756.627	89.13
756.807	88.5
756.987	88.29
757.167	88.32
757.346	87.75
757.526	88.25
757.706	88.94
757.886	88.85
758.066	88.29
758.246	87.65
758.425	87.12
758.605	87.13
758.785	86.37
758.965	88.31
759.144	88.06
759.324	88.54
759.504	88.04
759.683	87.96
759.863	86.61
760.043	86.01
760.222	86.96
760.402	86.99
760.581	86.97
760.761	87.54
760.94	87.27
761.12	86.93
761.299	87.75
761.479	87.98
761.658	88.48
761.838	88.53
762.017	88.32
762.197	87.42
762.376	88.37
762.555	87.34
762.735	87.24
762.914	85.07
763.093	84.22
763.273	82.92
763.452	83.23
763.631	82.88
763.81	84.42
763.99	85.19
764.169	85.87
764.348	84.72
764.527	84.32
764.706	85.83
764.885	85.93
765.064	83.6
765.243	84.32
765.423	86.36
765.602	85.23
765.781	84.26
765.96	84.67
766.139	84.75
766.318	83.18
766.497	82.89
766.676	83.86
766.854	86.08
767.033	86.51
767.212	88.31
767.391	88.62
767.57	88.26
767.749	87.94
767.928	88.52
768.106	86.63
768.285	85.68
768.464	85.37
768.643	85.42
768.821	84.63
769	85.05
769.179	85.45
769.357	85.46
769.536	85.97
769.715	85.35
769.893	86.54
770.072	86.57
770.25	88.82
770.429	88.47
770.607	88.05
770.786	87.79
770.964	89.47
771.143	87.38
771.321	87.77
771.5	88.65
771.678	88.43
771.857	86.18
772.035	85.84
772.213	84.37
772.392	83.67
772.57	83.21
772.748	84.95
772.927	84.6
773.105	82.15
773.283	82.2
773.461	81.76
773.64	81.56
773.818	83.36
773.996	86.73
774.174	87.7
774.352	87.72
774.531	85.17
774.709	85.22
774.887	85.02
775.065	84.5
775.243	84.53
775.421	85.93
775.599	86.85
775.777	82.94
775.955	82.84
776.133	81.11
776.311	80.4
776.489	78.21
776.667	81.39
776.844	81.03
777.022	81.95
777.2	83.76
777.378	84.82
777.556	84.06
777.734	84.37
777.911	86.33
778.089	83.82
778.267	83.55
778.445	83.62
778.622	84.41
778.8	82.13
778.978	82.23
779.155	82.38
779.333	83.16
779.511	81.61
779.688	81.89
779.866	80.9
780.043	77.74
780.221	76.98
780.398	77.56
780.576	79.02
780.753	80.66
780.931	80.42
781.108	79.28
781.286	79.66
781.463	78.14
781.64	74.96
781.818	76.55
781.995	77.5
782.172	77.16
782.35	78.19
782.527	80.09
782.704	78.07
782.882	80.25
783.059	77.59
783.236	78.91
783.413	80.53
783.59	82.7
783.768	80.2
783.945	83.51
784.122	80.13
784.299	82.47
784.476	81.17
784.653	80.69
784.83	78.67
785.007	79.63
785.184	77.97
785.361	78.52
785.538	81.13
785.715	81.3
785.892	84.21
786.069	84.79
786.246	85.92
786.423	85.74
786.6	87.88
786.776	87.68
786.953	85.04
787.13	85.03
787.307	83.94
787.484	82.56
787.66	80.98
787.837	83.65
788.014	80.1
788.191	77.83
788.367	78.16
788.544	77.65
788.721	77.63
788.897	84.02
789.074	87.36
789.25	88.12
789.427	89.3
789.603	88.2
789.78	84.15
789.956	82.78
790.133	81.04
790.309	80.9
790.486	80.76
790.662	78.58
790.839	78.19
791.015	80.09
791.192	79.41
791.368	81.68
791.544	84.93
791.721	87.83
791.897	85.7
792.073	82.44
792.249	79.02
792.426	77.22
792.602	72.73
792.778	76.25
792.954	79.74
793.13	78.28
793.307	77.95
793.483	76.31
793.659	71.79
793.835	75.04
794.011	74.77
794.187	74.09
794.363	76.24
794.539	82.8
794.715	76.17
794.891	78.43
795.067	81.73
795.243	83.48
795.419	76.47
795.595	79.27
795.771	77.84
795.947	78.2
796.122	81.92
796.298	85.04
796.474	84.37
796.65	82.39
796.826	74.8
797.001	72.45
797.177	69.31
797.353	69.22
797.529	71.57
797.704	78.23
797.88	74.82
798.056	75.14
798.231	80.47
798.407	81.39
798.582	81.88
798.758	85.23
798.934	90.71
799.109	86.07
799.285	85.88
799.46	82.9
799.636	80.56
799.811	79.54
799.986	76.94
800.162	78.28
800.337	75.72
800.513	71.99
800.688	72.8
800.863	78.16
801.039	70.59
801.214	72.86
801.389	81.69
801.565	78.04
801.74	72.93
801.915	82.1
802.09	84.22
802.265	79.39
802.441	81.12
802.616	83.22
802.791	83.59
802.966	78.87
803.141	77.98
803.316	74.05
803.491	72.9
803.666	70.64
803.841	76.28
804.016	73.85
804.191	73.26
804.366	67.85
804.541	71.4
804.716	68.64
804.891	67.52
805.066	64.89
805.241	66.88
805.416	63.55
805.591	60.1
805.765	67.9
805.94	71.13
806.115	73.33
806.29	69.7
806.464	69.4
806.639	65.02
806.814	67.25
806.989	66.25
807.163	77.64
807.338	83.53
807.512	81.46
807.687	73.16
807.862	75.1
808.036	64.92
808.211	64.01
808.385	68.96
808.56	74.21
808.734	76.96
808.909	76.05
809.083	76.36
809.258	75.87
809.432	77.79
809.606	72.71
809.781	77.6
809.955	79.01
810.13	76.52
810.304	72.89
810.478	71.64
810.652	66.54
810.827	62.54
811.001	58.19
811.175	58.77
811.349	59.75
811.524	54.21
811.698	53.99
811.872	57.75
812.046	69.88
812.22	74.88
812.394	79.45
812.568	84.15
812.742	87.91
812.916	77.7
813.09	72.03
813.264	77.71
813.438	82.11
813.612	80.79
813.786	77.04
813.96	84.71
814.134	91.29
814.308	90.3
814.482	87.99
814.656	86.63
814.83	76.39
815.003	68.62
815.177	56.48
815.351	52.33
815.525	53.58
815.698	57.99
815.872	56.09
816.046	63.12
816.219	69.41
816.393	78.35
816.567	70.32
816.74	77.41
816.914	78.56
817.088	80.07
817.261	64.79
817.435	73.46
817.608	67.3
817.782	64.31
817.955	68.7
818.129	66.34
818.302	62.73
818.475	59.96
818.649	57.64
818.822	53.95
818.996	70.26
819.169	80.15
819.342	77.24
819.516	78.32
819.689	72.31
819.862	65.39
820.035	60.83
820.209	59.48
820.382	59.5
820.555	57.08
820.728	42.07
820.901	39.91
821.075	46.04
821.248	47.88
821.421	42.72
821.594	51.43
821.767	59.55
821.94	52.69
822.113	34.8
822.286	38.33
822.459	49.39
822.632	41.58
822.805	44.17
822.978	58.03
823.151	64.37
823.324	62.44
823.496	54.17
823.669	51.45
823.842	48.64
824.015	31.17
824.188	22.55
824.361	27.33
824.533	42.66
824.706	45
824.879	54.56
825.051	49.16
825.224	48.26
825.397	46.07
825.569	37.42
825.742	46.9
825.915	61.37
826.087	56.89
826.26	38.19
826.432	46.55
826.605	31.18
826.777	36.07
826.95	41.52
827.122	49.13
827.295	40.1
827.467	49.47
827.64	30.48
827.812	39.3
827.984	43.21
828.157	56.69
828.329	47.38
828.501	45.01
828.674	47.08
828.846	24.41
829.018	34.84
829.19	30.49
829.363	43.99
829.535	52.4
829.707	60.21
829.879	39.1
830.051	40.81
830.223	19.32
830.395	-10.46
830.568	0.33
830.74	-4.38
830.912	15.83
831.084	19.9
831.256	20.41
831.428	7.66
831.6	25.75
831.772	12.5
831.943	3.66
832.115	3.83
832.287	27.92
832.459	20.51
832.631	24.99
832.803	41.41
832.975	61.92
833.146	57.27
833.318	55.6
833.49	66.03
833.662	57.38
833.833	45.25
834.005	42.88
834.177	50.68
834.348	46.27
834.52	44.71
834.692	34.62
834.863	25.4
835.035	31.19
835.206	8.78
835.378	22.41
835.549	28.97
835.721	30.84
835.892	24.25
836.064	25.48
836.235	28.86
836.407	56.72
836.578	50.24
836.749	66.22
836.921	62.2
837.092	22.43
837.264	7.31
837.435	1.01
837.606	27.52
837.777	39.86
837.949	38.96
838.12	27.33
838.291	35.19
838.462	21.49
838.633	13.48
838.805	12.7
838.976	20.6
839.147	-17.95
839.318	-27.57
839.489	-72.49
839.66	-46.7
839.831	-17.55
840.002	6.91
840.173	-10.83
840.344	59.34
840.515	82.58
840.686	1.19
840.857	-12.4
841.028	23.54
841.199	6.22
841.369	-2.69
841.54	24.98
841.711	37.97
841.882	46.25
842.053	45.59
842.223	33.18
842.394	33.41
842.565	22.46
842.736	41.72
842.906	38.58
843.077	52.16
843.248	69.4
843.418	101.37
843.589	48.76
843.759	87.36
843.93	57.47
844.101	32.42
844.271	22.27
844.442	37.68
844.612	42.58
844.783	25.03
844.953	24.78
845.123	44.13
845.294	70.61
845.464	14.85
845.635	113.67
845.805	102.03
845.975	44.63
846.146	1.37
846.316	-6.53
846.486	3.88
846.656	27.57
846.827	18.34
846.997	28.62
847.167	39.03
847.337	14.01
847.507	-30.51
847.677	10.2
847.848	48.9
848.018	55.32
848.188	69.79
848.358	67.93
848.528	38.55
848.698	6.55
848.868	-44.45
849.038	-107.41
849.208	-27.88
849.378	37.2
849.548	33.34
849.718	39.9
849.887	41.46
850.057	39.48
850.227	27.31
850.397	27.57
850.567	-26.77
850.737	-12.28
850.906	-279.06
851.076	-286.91
851.246	-179.71
851.415	0.74
851.585	-17.54
851.755	-42.4
851.924	9.03
852.094	1.55
852.264	14.33
852.433	-35.82
852.603	66.52
852.772	70.22
852.942	57.56
853.111	17.91
853.281	7.23
853.45	14.41
853.62	-10.1
853.789	-15.02
853.959	-34.59
854.128	-20.61
854.297	-39.83
854.467	-32.89
854.636	-53.07
854.805	-4.32
854.975	-15.62
855.144	21.03
855.313	30.59
855.482	-178.28
855.652	-141.99
855.821	-137.28
855.99	-45.94
856.159	-20.56
856.328	-3.64
856.497	5.35
856.667	6.37
856.836	-14.3
857.005	-31.46
857.174	-57.25
857.343	-113.51
857.512	-54.67
857.681	-15.81
857.85	-33.61
858.019	3.26
858.188	14.1
858.356	-18.6
858.525	-80.1
858.694	-61.18
858.863	-125.52
859.032	-69.77
859.201	-47.05
859.369	2.74
859.538	-13.03
859.707	-4.81
859.876	-5.73
860.044	-27.5
860.213	41.02
860.382	17.89
860.55	17.48
860.719	12.99
860.888	20.1
861.056	-12.05
861.225	-3.41
861.393	31.17
861.562	16.14
861.73	-17.82
861.899	-116.88
862.067	-687.07
862.236	-67.12
862.404	-21.97
862.572	2.75
862.741	16.42
862.909	1.47
863.078	-28.98
863.246	-29.34
863.414	-26.35
863.582	-14.41
863.751	-9.45
863.919	-12.73
864.087	3.78
864.255	-7.08
864.424	-126
864.592	-1.97
864.76	-71.02
864.928	-253
865.096	-86.39
865.264	-60.98
865.432	-834.66
865.6	-48.62
865.768	-19.18
865.936	-24.51
866.104	-18.32
866.272	-16.33
866.44	-80.81
866.608	382.2
866.776	205.52
866.944	2040.12
867.112	-370.44
867.28	-175.52
867.448	-95.1
867.615	-37.48
867.783	-26.92
867.951	-15.76
868.119	30.57
868.286	25.77
868.454	-88.68
868.622	-73.33
868.789	-149.34
868.957	-3501.79
869.125	-721.71
869.292	12.96
869.46	5.23
869.627	45.77
869.795	8.39
869.963	2.1
870.13	22.81
870.298	13.57
870.465	-30.92
870.632	-22.4
870.8	10.87
870.967	-28.48
871.135	-54.24
871.302	-35.84
871.469	-36.12
871.637	-112.54
871.804	-61.59
871.971	-40.56
872.139	-183.37
872.306	36.8
872.473	2.19
872.64	17.49
872.807	90.18
872.975	78.47
873.142	-16.82
873.309	433.11
873.476	35.03
873.643	40.07
873.81	-13.44
873.977	20.02
874.144	39.37
874.311	-76.53
874.478	-73.43
874.645	-13.19
874.812	-24.17
874.979	-35.58
875.146	-45.68
875.313	-64.75
875.48	-40.18
875.647	-25.11
875.813	-34.51
875.98	-3.18
876.147	-15.18
876.314	-39.08
876.481	397.73
876.647	-358.71
876.814	86.14
876.981	158.75
877.147	61.23
877.314	46.71
877.481	57.02
877.647	1.22
877.814	-11.72
877.98	-51.22
878.147	-53.81
878.314	-41.23
878.48	-26.23
878.647	-53.3
878.813	-0.13
878.979	16.92
879.146	13.66
879.312	0.18
879.479	-37.08
879.645	-136.86
879.811	-219.95
879.978	-525.38
880.144	-123.38
880.31	-49.8
880.477	-149.92
880.643	-144.1
880.809	-28.81
880.975	-8.35
881.142	-194.77
881.308	32.57
881.474	47.7
881.64	18.98
881.806	7.37
881.972	62.92
882.138	89.93
882.304	72.26
882.47	-4.31
882.636	-153.48
882.802	-168.55
882.968	-92.9
883.134	-56.85
883.3	-81.71
883.466	-26.41
883.632	1.93
883.798	11.02
883.964	19.12
884.129	37.86
884.295	81.18
884.461	57.43
884.627	40.76
884.793	36.6
884.958	26.49
885.124	-62.23
885.29	-137.96
885.455	-319.54
885.621	-143.28
885.787	-123.71
885.952	-57.59
886.118	-53.9
886.283	-28.88
886.449	-78.52
886.614	-104.15
886.78	-211.63
886.945	1005.33
887.111	-403.03
887.276	-447.3
887.442	-710.23
887.607	-296.34
887.773	-149.44
887.938	-150.72
888.103	-129.49
888.269	-37.42
888.434	20.41
888.599	26.72
888.764	58.94
888.93	61.6
889.095	43.62
889.26	9.9
889.425	-20.75
889.59	14.01
889.756	11.56
889.921	5.82
890.086	23.51
890.251	58.47
890.416	-30.49
890.581	-631.05
890.746	154.73
890.911	270.22
891.076	159.26
891.241	-356.9
891.406	-30.29
891.571	-82.76
891.736	-160.21
891.901	-210.84
892.065	426.65
892.23	126.13
892.395	111.79
892.56	177.24
892.725	-150.98
892.889	114.02
893.054	57.33
893.219	27.34
893.384	18.15
893.548	-11.07
893.713	-39.08
893.878	-32.36
