Data from Ofra_PS_T2_2A_9CX05_Reflection_1.txt Node
Date: Wed Jul 21 17:24:40 EDT 2021
User: Adam
Spectrometer: FLMT01687
Trigger mode: 0
Integration Time (sec): 1.100000E0
Scans to average: 2
Electric dark correction enabled: true
Nonlinearity correction enabled: false
Boxcar width: 2
XAxis mode: Wavelengths
Number of Pixels in Spectrum: 3648
>>>>>Begin Spectral Data<<<<<
179.494	501.2
179.716	597.41
179.937	540.83
180.158	542.37
180.38	778.44
180.601	209.12
180.823	-11.38
181.044	-210.19
181.265	-147.43
181.486	8.18
181.708	54.16
181.929	790.82
182.15	-562.68
182.372	55.57
182.593	-53.48
182.814	-19.19
183.035	25.48
183.257	17.78
183.478	-59.47
183.699	42.99
183.92	37.37
184.141	48.45
184.363	-6.02
184.584	44.82
184.805	37.53
185.026	57.27
185.247	68.45
185.468	54.74
185.689	70.5
185.91	61.3
186.132	60.34
186.353	36.38
186.574	106.87
186.795	62.54
187.016	31.47
187.237	1.36
187.458	-11.47
187.679	-51.18
187.9	-30.76
188.121	-26.18
188.342	-12.23
188.563	-5.04
188.784	22.96
189.005	19.29
189.226	71.22
189.447	40.65
189.667	12.86
189.888	-106.65
190.109	-760.39
190.33	-557.74
190.551	-1083.63
190.772	-252.18
190.993	-235.68
191.214	-184.83
191.434	-131.33
191.655	-31.35
191.876	-64.03
192.097	-100.26
192.318	-136.58
192.538	-162.9
192.759	-125.76
192.98	-12.48
193.201	13
193.421	28.42
193.642	38.39
193.863	41.6
194.083	15.18
194.304	6.96
194.525	12.78
194.745	3.2
194.966	-9.07
195.187	-34.32
195.407	-60.28
195.628	-143.65
195.848	-152.12
196.069	-188.42
196.29	-100.6
196.51	-84.82
196.731	-58.97
196.951	-46.83
197.172	-20.97
197.392	-79.35
197.613	-102.08
197.833	-143.09
198.054	-139.95
198.274	-90.3
198.495	-83.77
198.715	-37.14
198.936	-35.89
199.156	-15.79
199.377	-118.02
199.597	-135.8
199.817	-160.93
200.038	-106.7
200.258	-171.72
200.479	-56.37
200.699	-77.47
200.919	-6.25
201.14	-2.83
201.36	-43.21
201.58	-0.43
201.801	44.69
202.021	5.47
202.241	5.78
202.461	15.39
202.682	-88.46
202.902	-152.46
203.122	-74.42
203.342	-58.07
203.563	-4.07
203.783	29.35
204.003	9.63
204.223	14.98
204.443	57.41
204.663	30.92
204.884	34.06
205.104	54.65
205.324	75.74
205.544	50.63
205.764	59.43
205.984	45.99
206.204	57.12
206.424	44.63
206.644	16.55
206.864	34.29
207.084	39.54
207.304	55.01
207.525	20.47
207.745	42.12
207.964	24.04
208.184	-36.85
208.404	-91.39
208.624	-99.58
208.844	-107.49
209.064	-417.63
209.284	-406.61
209.504	-149.25
209.724	-16.96
209.944	-7.72
210.164	31.48
210.384	42.8
210.604	32.75
210.823	-12.59
211.043	-28.67
211.263	-11.73
211.483	-18.44
211.703	-95.77
211.922	-71.26
212.142	8.81
212.362	-3.67
212.582	-15.24
212.801	-2.69
213.021	-13.72
213.241	-36.88
213.461	-70
213.68	-81.89
213.9	-21.1
214.12	-9.05
214.339	-84.52
214.559	-40.53
214.779	5.97
214.998	-19.33
215.218	-53.81
215.438	-15.59
215.657	-24.17
215.877	-28.01
216.096	3.49
216.316	12.93
216.535	-4.26
216.755	-8.45
216.974	-50.58
217.194	-86.28
217.413	-90.14
217.633	-86.77
217.852	-184.36
218.072	-82.87
218.291	-45.98
218.511	0.59
218.73	-4.5
218.95	-2.89
219.169	-12.63
219.389	-56.49
219.608	-55.63
219.827	-53.69
220.047	-25.16
220.266	-10.33
220.485	4.51
220.705	18.14
220.924	-10.87
221.143	11.26
221.363	-17.07
221.582	-4.28
221.801	-10.06
222.021	4.35
222.24	-66.27
222.459	-22.29
222.678	-78.51
222.897	-131.57
223.117	-163.12
223.336	-133.47
223.555	-83.67
223.774	-17.87
223.993	-0.86
224.213	85.66
224.432	52.73
224.651	67.83
224.87	39.22
225.089	59.63
225.308	41.85
225.527	55.28
225.746	56.65
225.965	49.15
226.184	32.58
226.404	28.24
226.623	7.81
226.842	8.93
227.061	44.26
227.28	34.4
227.499	33.27
227.718	54.13
227.936	38.61
228.155	36.61
228.374	22.69
228.593	31.63
228.812	12.39
229.031	10.62
229.25	-33.02
229.469	-14.88
229.688	-13.88
229.907	23.5
230.125	33.17
230.344	42.21
230.563	43.41
230.782	45.6
231.001	-33.23
231.22	-22.9
231.438	2.85
231.657	2.23
231.876	-15.58
232.095	35.46
232.313	28.53
232.532	-14.07
232.751	-35.69
232.969	-28.65
233.188	-86.73
233.407	10.06
233.625	6.53
233.844	-19.85
234.063	-12.67
234.281	-2.27
234.5	-29.69
234.719	-3.63
234.937	30.56
235.156	23.57
235.374	26.57
235.593	37.08
235.811	15.64
236.03	6.98
236.249	-20.72
236.467	-21.23
236.686	-7.43
236.904	9.36
237.123	-20.82
237.341	-9.11
237.559	-0.69
237.778	-20.97
237.996	-45.49
238.215	15.25
238.433	24.17
238.652	27.54
238.87	4.26
239.088	22.99
239.307	10.78
239.525	-4.66
239.743	-37.59
239.962	-18.92
240.18	-54.1
240.398	-105.08
240.617	-106.58
240.835	-94.31
241.053	-58.1
241.271	17.44
241.49	33.03
241.708	49.38
241.926	38.45
242.144	28.29
242.363	-48.8
242.581	-60.82
242.799	-29.53
243.017	11.8
243.235	-12.27
243.453	-3.27
243.672	-10.58
243.89	-18.02
244.108	-23.96
244.326	2.56
244.544	11.15
244.762	17.62
244.98	42.73
245.198	33.81
245.416	-6.33
245.634	-9.42
245.852	-16.6
246.07	-23.58
246.288	-8.93
246.506	-11.94
246.724	1.86
246.942	5.91
247.16	7.25
247.378	-2.71
247.596	27.28
247.814	33.69
248.032	11.16
248.25	32.42
248.468	38.31
248.685	35.48
248.903	39.9
249.121	42.97
249.339	1.36
249.557	-10.2
249.775	-3.81
249.992	-57.74
250.21	-54.28
250.428	-27.42
250.646	-56.34
250.863	-70.49
251.081	-47.71
251.299	-44.73
251.517	-44.19
251.734	-23.17
251.952	-22.87
252.17	-14.7
252.387	0.68
252.605	-12.34
252.823	-11.09
253.04	0.42
253.258	22.83
253.475	-7.6
253.693	24.88
253.911	38.18
254.128	51.84
254.346	48.39
254.563	41.1
254.781	17.27
254.998	-8.36
255.216	8.08
255.433	22.49
255.651	70.41
255.868	83.41
256.086	90.58
256.303	65.76
256.521	35.08
256.738	10.75
256.956	-22.5
257.173	-48.18
257.39	-83.07
257.608	-105.04
257.825	-10.5
258.043	48.44
258.26	58.15
258.477	99.66
258.695	86.38
258.912	12.41
259.129	13.78
259.346	-8.17
259.564	-48.62
259.781	-50.24
259.998	13.44
260.216	20.62
260.433	46.3
260.65	49.71
260.867	63.87
261.084	32.26
261.302	4.89
261.519	0.22
261.736	-39.02
261.953	-68.54
262.17	-31.01
262.387	-49.96
262.604	-95.73
262.822	-95.65
263.039	-72.27
263.256	-124.08
263.473	-62.4
263.69	-13.24
263.907	27.3
264.124	50.8
264.341	64.24
264.558	36.98
264.775	34.03
264.992	27.83
265.209	18.23
265.426	27.14
265.643	39.93
265.86	50.56
266.077	50.6
266.294	36.11
266.51	0.22
266.727	-20.1
266.944	-17.67
267.161	-33.94
267.378	-16.95
267.595	14
267.812	-3.2
268.028	-20.9
268.245	-10.39
268.462	-40.72
268.679	-46.44
268.896	0.14
269.112	1.1
269.329	11.73
269.546	33.12
269.763	21.48
269.979	-2.48
270.196	1.16
270.413	-41.99
270.629	-78.15
270.846	-87.18
271.063	-67.91
271.279	-85.91
271.496	-67.39
271.712	-13.72
271.929	-8.14
272.146	-26.66
272.362	-0.59
272.579	42.64
272.795	31.36
273.012	48.05
273.228	55.89
273.445	23.74
273.661	-5.58
273.878	-40.14
274.094	-47.15
274.311	-71.89
274.527	9.8
274.744	13.09
274.96	12.1
275.177	26.22
275.393	50.08
275.609	33.14
275.826	53.34
276.042	49.14
276.259	33.32
276.475	39.29
276.691	38.21
276.908	13.26
277.124	31.19
277.34	44.55
277.557	18.07
277.773	11.67
277.989	6.05
278.205	-4.96
278.422	10.28
278.638	20.92
278.854	29.1
279.07	39.37
279.286	21.65
279.503	-19.57
279.719	-23.69
279.935	-48.41
280.151	-67.58
280.367	-22.85
280.583	-54.61
280.799	-50.15
281.016	-65.61
281.232	-28.84
281.448	-34.06
281.664	7.02
281.88	-5.15
282.096	17.97
282.312	48.76
282.528	52.96
282.744	45.36
282.96	40.53
283.176	28.97
283.392	-1.29
283.608	-11.37
283.824	-4.59
284.04	-5.05
284.256	-13.55
284.471	-6.33
284.687	-1.82
284.903	10.96
285.119	38.9
285.335	17.73
285.551	29.8
285.767	28.65
285.982	6.25
286.198	-31.94
286.414	36.56
286.63	40.09
286.846	41.65
287.061	28.04
287.277	59.23
287.493	28.56
287.709	42.13
287.924	31.38
288.14	54.01
288.356	34.74
288.571	50.72
288.787	15.82
289.003	28.44
289.218	21.73
289.434	-5.92
289.65	8.66
289.865	15.66
290.081	18.97
290.296	12.42
290.512	18.64
290.727	-20.32
290.943	-24.4
291.159	-39.75
291.374	-33.12
291.59	-58.31
291.805	-42.72
292.021	-21.02
292.236	-9.48
292.451	-0.34
292.667	15.28
292.882	20.37
293.098	4.47
293.313	-13.51
293.529	-49.49
293.744	-68.87
293.959	-69.32
294.175	-54.14
294.39	-14.86
294.605	4.02
294.821	39.18
295.036	51.28
295.251	59.68
295.467	43.34
295.682	43.22
295.897	-5.43
296.112	-17.67
296.328	-22.3
296.543	-62.95
296.758	-63.09
296.973	-13.13
297.188	33.93
297.404	17.48
297.619	30.38
297.834	15.5
298.049	-9.64
298.264	-66.04
298.479	-7.1
298.694	-1.55
298.909	21.08
299.125	29.29
299.34	42.59
299.555	-1.61
299.77	14.68
299.985	-30.53
300.2	-75.58
300.415	-97.16
300.63	-45.24
300.845	-49.07
301.06	-32.35
301.275	7.87
301.49	16.62
301.704	0.95
301.919	-22
302.134	-38.15
302.349	-54.67
302.564	-92.31
302.779	-142.73
302.994	-94.59
303.209	-56.59
303.423	-5.93
303.638	32.11
303.853	8.07
304.068	-8.93
304.283	0.47
304.497	-10.66
304.712	-23.77
304.927	1.87
305.142	-4.56
305.356	3.38
305.571	-6.99
305.786	-20.47
306	-51.03
306.215	-39.98
306.43	-71.76
306.644	-69.35
306.859	-16.33
307.074	17.26
307.288	-19.43
307.503	-17.15
307.717	-11.23
307.932	-13.69
308.147	-30.52
308.361	0.51
308.576	-9.44
308.79	-60.28
309.005	-64.57
309.219	-45.8
309.434	-49.27
309.648	-43.44
309.863	-3.8
310.077	2.08
310.292	1.77
310.506	2.74
310.72	18.02
310.935	12.66
311.149	9.15
311.364	40.55
311.578	42.51
311.792	32.57
312.007	43.58
312.221	32.63
312.435	24.23
312.649	12.08
312.864	57.74
313.078	73.16
313.292	139.64
313.507	94.9
313.721	141.59
313.935	47.76
314.149	23.93
314.363	18.01
314.578	20.52
314.792	17.21
315.006	16.39
315.22	25.52
315.434	20.3
315.648	28.73
315.862	28.25
316.077	18.6
316.291	-5.34
316.505	10.86
316.719	-4.93
316.933	-37.48
317.147	-23.71
317.361	-64.76
317.575	-83.81
317.789	-86.12
318.003	-112.04
318.217	-78.29
318.431	-4.08
318.645	26.73
318.859	10.8
319.073	29.37
319.287	2.77
319.5	-21.49
319.714	-76.76
319.928	-102.85
320.142	-131.28
320.356	-53.69
320.57	-7.58
320.784	-17.77
320.997	-16.74
321.211	11.51
321.425	-60.91
321.639	-93.83
321.853	-18
322.066	-8.43
322.28	-26.6
322.494	-9.44
322.707	-4.63
322.921	-22.9
323.135	-7.42
323.349	17.91
323.562	-1.55
323.776	-4.7
323.989	-8.78
324.203	-42.24
324.417	-65.8
324.63	-85.69
324.844	-82.49
325.057	-84.61
325.271	-41.92
325.485	-0.6
325.698	31.97
325.912	38.03
326.125	23.55
326.339	12.08
326.552	-19.89
326.766	-33.06
326.979	-16.48
327.193	23.39
327.406	3.43
327.619	1
327.833	9.7
328.046	-16.24
328.26	-49.01
328.473	-8.96
328.686	-23.76
328.9	-2.28
329.113	12.58
329.326	-4.76
329.54	-2.56
329.753	-9.29
329.966	-66.2
330.179	-41.93
330.393	-14.47
330.606	-15.09
330.819	14.97
331.032	29.77
331.246	29.51
331.459	56.08
331.672	53.6
331.885	33.23
332.098	13.2
332.311	6.44
332.525	-54.31
332.738	-56.86
332.951	-30.56
333.164	-2.66
333.377	2.04
333.59	19.82
333.803	21.66
334.016	11.75
334.229	2.6
334.442	9.88
334.655	33.11
334.868	33.46
335.081	22.8
335.294	20.85
335.507	21.47
335.72	-0.03
335.933	-8.57
336.146	-8.59
336.359	2.97
336.572	-37.66
336.785	-62.84
336.997	-41.36
337.21	-3.93
337.423	-26.18
337.636	-18.32
337.849	9.66
338.062	-16.65
338.274	-2.13
338.487	7.85
338.7	18.49
338.913	-14.81
339.125	-32.82
339.338	-110.88
339.551	-90.81
339.763	-51.85
339.976	-24.36
340.189	14.95
340.402	40.22
340.614	32.29
340.827	15.16
341.039	-7
341.252	-14.46
341.465	-6.14
341.677	-11.41
341.89	-45.35
342.102	-4.89
342.315	-28.27
342.527	-60.23
342.74	-45.78
342.952	1.37
343.165	-8.48
343.377	17.97
343.59	12.73
343.802	23.31
344.015	28.18
344.227	35.57
344.44	27.46
344.652	25.59
344.864	16.52
345.077	25.22
345.289	23.01
345.502	22.75
345.714	21.5
345.926	28.22
346.139	21.51
346.351	24.75
346.563	35.68
346.775	51.67
346.988	33.33
347.2	10.88
347.412	-27.29
347.624	-53.85
347.837	-86.81
348.049	-61.85
348.261	-25.05
348.473	-5.62
348.685	-1.57
348.897	-8.24
349.11	-20.42
349.322	-46.16
349.534	-35.16
349.746	-26.75
349.958	-11.82
350.17	-5.52
350.382	13.82
350.594	13.67
350.806	30.57
351.018	24.6
351.23	2.19
351.442	-38.18
351.654	-31.79
351.866	-53.62
352.078	-24.11
352.29	3.29
352.502	24.26
352.714	29.18
352.926	21.08
353.138	6.81
353.35	-11.46
353.561	-20.77
353.773	-51.57
353.985	-33.09
354.197	-46.85
354.409	-37.1
354.621	-41.98
354.832	-26.02
355.044	-41.78
355.256	-41.97
355.468	-24.82
355.679	-27.59
355.891	-20.58
356.103	-31.7
356.314	-18.19
356.526	-25.23
356.738	-5.45
356.949	-7.99
357.161	12.41
357.373	-4.05
357.584	-9.26
357.796	-1.82
358.008	-4.81
358.219	6.74
358.431	14.54
358.642	9.28
358.854	0.96
359.065	-16.81
359.277	-47.93
359.488	-45.11
359.7	-54.07
359.911	-82.38
360.123	-45.93
360.334	-52.34
360.546	-70.93
360.757	-66.8
360.969	-29.46
361.18	-41.04
361.391	-13.34
361.603	-20.87
361.814	-19.68
362.025	-30.41
362.237	-34.97
362.448	-20.38
362.659	-0.46
362.871	-0.71
363.082	-1.59
363.293	4.22
363.504	-20.76
363.716	-48.57
363.927	-51.3
364.138	-82.11
364.349	-96.97
364.56	-80.7
364.772	-65.33
364.983	-30.55
365.194	-14.7
365.405	5.37
365.616	15.59
365.827	23.51
366.038	-17.88
366.25	-22.8
366.461	-74.37
366.672	-38.28
366.883	-16.05
367.094	6.2
367.305	-4.13
367.516	10.86
367.727	-17.27
367.938	-32.14
368.149	-40.99
368.36	-22.42
368.571	-12.88
368.781	-22.12
368.992	-36.22
369.203	-52.18
369.414	-77.48
369.625	-67.81
369.836	-58.03
370.047	-77.09
370.258	-63.47
370.468	-62.56
370.679	-91.49
370.89	-87.09
371.101	-58.85
371.312	-57.48
371.522	-40.95
371.733	-24.69
371.944	-9.4
372.155	-3.89
372.365	-6.23
372.576	-9.88
372.787	-5.42
372.997	-33.27
373.208	-35.11
373.419	-8.9
373.629	-42.47
373.84	-56.79
374.05	-54.8
374.261	-51.24
374.472	-68.01
374.682	-10.24
374.893	0.41
375.103	26.04
375.314	19.53
375.524	22.11
375.735	13.95
375.945	17.18
376.156	-2.76
376.366	4.91
376.577	9.35
376.787	5.09
376.997	0.73
377.208	2.64
377.418	-11.98
377.629	-20.48
377.839	-14.81
378.049	-9.78
378.26	5.39
378.47	14.95
378.68	8.79
378.89	1.04
379.101	-2.15
379.311	-28.72
379.521	-61.37
379.732	-53.52
379.942	-46.74
380.152	-65.42
380.362	-30.96
380.572	-19.14
380.783	-3.95
380.993	1.09
381.203	15.79
381.413	14.88
381.623	26.78
381.833	20.05
382.043	18.05
382.253	12.6
382.463	8.3
382.674	-2.43
382.884	-21.98
383.094	-18.88
383.304	-10.85
383.514	2.4
383.724	13.19
383.934	9.42
384.144	-4.84
384.353	-17.95
384.563	-28.2
384.773	-20.54
384.983	-21.12
385.193	-2.47
385.403	1.52
385.613	1.96
385.823	-11.49
386.033	-2.69
386.242	-10.08
386.452	-12.59
386.662	-22.71
386.872	-9.3
387.082	-14.95
387.291	-23.12
387.501	-20.87
387.711	-11.05
387.921	-22.22
388.13	-19.76
388.34	-3.3
388.55	-5.93
388.759	-8.88
388.969	0.95
389.179	-0.8
389.388	-7.55
389.598	-2.78
389.807	-6.42
390.017	-13.45
390.227	-12.12
390.436	-13.8
390.646	-12.54
390.855	-7.54
391.065	-7.03
391.274	-7.4
391.484	-6.28
391.693	-5.99
391.903	-7.41
392.112	-2.35
392.322	1.6
392.531	5.61
392.74	5.8
392.95	3.47
393.159	0.6
393.369	-2.19
393.578	-3.97
393.787	-5.71
393.997	-4.08
394.206	-5.12
394.415	-3.21
394.625	-3.5
394.834	-3.34
395.043	-1.94
395.252	1.16
395.462	2.66
395.671	3.86
395.88	4.13
396.089	4.15
396.298	1.43
396.508	0.93
396.717	-0.15
396.926	0.31
397.135	0.08
397.344	0.48
397.553	0.74
397.762	2.28
397.971	1.49
398.181	1.64
398.39	1.03
398.599	0.68
398.808	0.1
399.017	1.39
399.226	1.99
399.435	3.28
399.644	3.26
399.853	2.56
400.062	1.66
400.27	1.31
400.479	0.89
400.688	0.17
400.897	0.57
401.106	0.74
401.315	0.69
401.524	0.79
401.733	1.48
401.941	1.82
402.15	1.95
402.359	1.98
402.568	2.4
402.777	2.43
402.985	2.19
403.194	2.13
403.403	2.08
403.612	1.62
403.82	1.37
404.029	1.39
404.238	1.27
404.446	1.57
404.655	1.36
404.864	1.46
405.072	1.33
405.281	1.59
405.489	1.17
405.698	1.2
405.906	1.21
406.115	1.2
406.324	0.99
406.532	1.24
406.741	1.56
406.949	1.5
407.158	1.59
407.366	1.71
407.574	1.65
407.783	1.54
407.991	1.5
408.2	1.67
408.408	1.61
408.617	1.47
408.825	1.33
409.033	1.31
409.242	1.3
409.45	1.44
409.658	1.48
409.867	1.68
410.075	1.58
410.283	1.43
410.491	1.22
410.7	1.14
410.908	1.06
411.116	1.45
411.324	1.47
411.533	1.48
411.741	1.74
411.949	1.73
412.157	1.33
412.365	1.32
412.573	1.32
412.781	1.3
412.99	1.27
413.198	1.58
413.406	1.6
413.614	1.61
413.822	1.45
414.03	1.4
414.238	1.1
414.446	1.22
414.654	1.04
414.862	1.09
415.07	1.2
415.278	1.5
415.486	1.16
415.694	1.32
415.902	1.33
416.109	1.19
416.317	1.01
416.525	1.02
416.733	1.06
416.941	1.22
417.149	1.16
417.357	1.26
417.564	1.45
417.772	1.56
417.98	1.28
418.188	1.4
418.395	1.46
418.603	1.61
418.811	1.21
419.019	1.33
419.226	1.42
419.434	1.44
419.642	1.11
419.849	1.35
420.057	1.31
420.265	1.22
420.472	0.92
420.68	1.05
420.887	1.02
421.095	1.16
421.302	1.1
421.51	1.4
421.717	1.55
421.925	1.63
422.132	1.47
422.34	1.32
422.547	1.31
422.755	1.03
422.962	0.88
423.17	0.77
423.377	0.89
423.585	0.8
423.792	0.84
423.999	0.91
424.207	0.89
424.414	1.01
424.621	0.94
424.829	0.96
425.036	0.97
425.243	1.14
425.451	0.91
425.658	0.83
425.865	1.11
426.072	1.08
426.28	1.27
426.487	1.3
426.694	1.52
426.901	1.23
427.108	1.32
427.315	1.13
427.523	1.46
427.73	1.31
427.937	1.26
428.144	1.05
428.351	1.04
428.558	1.15
428.765	1.03
428.972	1.09
429.179	1.32
429.386	1.61
429.593	1.28
429.8	1.31
430.007	1.37
430.214	1.47
430.421	1.14
430.628	1.01
430.835	1.02
431.042	1.24
431.249	1.16
431.456	1.19
431.662	1.33
431.869	1.49
432.076	1.41
432.283	1.58
432.49	1.59
432.697	1.65
432.903	1.39
433.11	1.28
433.317	1.28
433.524	1.56
433.73	1.44
433.937	1.71
434.144	1.61
434.35	1.56
434.557	1.28
434.764	1.29
434.97	1.2
435.177	1.38
435.384	1.18
435.59	1.3
435.797	1.51
436.003	1.53
436.21	1.43
436.416	1.6
436.623	1.56
436.829	1.52
437.036	1.64
437.242	1.67
437.449	1.66
437.655	1.64
437.862	1.63
438.068	1.47
438.275	1.55
438.481	1.61
438.687	1.56
438.894	1.54
439.1	1.64
439.307	1.82
439.513	1.8
439.719	1.89
439.926	1.98
440.132	1.91
440.338	1.63
440.544	1.66
440.751	1.57
440.957	1.66
441.163	1.62
441.369	1.81
441.575	1.54
441.782	1.58
441.988	1.39
442.194	1.42
442.4	1.34
442.606	1.68
442.812	1.72
443.018	1.86
443.224	1.86
443.431	1.96
443.637	1.77
443.843	1.63
444.049	1.63
444.255	1.61
444.461	1.54
444.667	1.54
444.873	1.76
445.079	1.72
445.284	1.78
445.49	1.58
445.696	1.4
445.902	1.29
446.108	1.22
446.314	1.18
446.52	1.31
446.726	1.62
446.931	1.61
447.137	1.67
447.343	1.72
447.549	1.62
447.755	1.47
447.96	1.44
448.166	1.38
448.372	1.27
448.578	1.4
448.783	1.4
448.989	1.5
449.195	1.66
449.4	1.74
449.606	1.74
449.812	1.67
450.017	1.69
450.223	1.56
450.428	1.52
450.634	1.58
450.84	1.74
451.045	1.74
451.251	1.69
451.456	1.95
451.662	2.01
451.867	2.04
452.073	1.95
452.278	2.13
452.483	2.17
452.689	2.05
452.894	2.08
453.1	2.1
453.305	2.01
453.51	1.81
453.716	1.77
453.921	1.75
454.127	1.75
454.332	1.68
454.537	1.62
454.742	1.62
454.948	1.59
455.153	1.63
455.358	1.75
455.563	1.9
455.769	1.99
455.974	1.98
456.179	1.9
456.384	1.77
456.589	1.72
456.795	1.54
457	1.53
457.205	1.73
457.41	1.79
457.615	1.73
457.82	1.84
458.025	1.84
458.23	1.69
458.435	1.7
458.64	1.58
458.845	1.77
459.05	1.76
459.255	1.75
459.46	1.83
459.665	1.97
459.87	1.8
460.075	1.83
460.28	1.82
460.485	1.87
460.69	1.86
460.895	1.69
461.099	1.55
461.304	1.76
461.509	1.74
461.714	1.77
461.919	2.05
462.123	2.05
462.328	2.03
462.533	1.93
462.738	1.98
462.942	1.86
463.147	1.98
463.352	1.99
463.556	1.94
463.761	1.99
463.966	2.09
464.17	2.06
464.375	1.93
464.58	1.98
464.784	1.86
464.989	1.72
465.193	1.76
465.398	1.78
465.602	1.91
465.807	1.9
466.011	1.95
466.216	1.95
466.42	1.99
466.625	2
466.829	2.08
467.034	2.14
467.238	2.32
467.443	2.3
467.647	2.2
467.851	2.25
468.056	2.26
468.26	2.12
468.464	2.14
468.669	2.24
468.873	2.36
469.077	2.39
469.282	2.47
469.486	2.54
469.69	2.55
469.894	2.37
470.099	2.41
470.303	2.45
470.507	2.23
470.711	2.09
470.915	2.13
471.119	1.96
471.324	1.88
471.528	2
471.732	2.08
471.936	2.02
472.14	2.14
472.344	2.18
472.548	2.23
472.752	2.37
472.956	2.55
473.16	2.46
473.364	2.34
473.568	2.33
473.772	2.3
473.976	2.18
474.18	2.2
474.384	2.3
474.588	2.28
474.792	2.11
474.995	2.2
475.199	2.32
475.403	2.37
475.607	2.38
475.811	2.38
476.015	2.41
476.218	2.47
476.422	2.32
476.626	2.38
476.83	2.49
477.033	2.43
477.237	2.28
477.441	2.39
477.644	2.32
477.848	2.35
478.052	2.33
478.255	2.41
478.459	2.45
478.663	2.62
478.866	2.59
479.07	2.55
479.273	2.7
479.477	2.69
479.681	2.61
479.884	2.61
480.088	2.64
480.291	2.52
480.495	2.51
480.698	2.5
480.901	2.55
481.105	2.7
481.308	2.66
481.512	2.63
481.715	2.74
481.919	2.76
482.122	2.69
482.325	2.74
482.529	2.79
482.732	2.73
482.935	2.62
483.138	2.56
483.342	2.6
483.545	2.68
483.748	2.7
483.952	2.79
484.155	2.93
484.358	2.91
484.561	2.86
484.764	2.85
484.967	2.91
485.171	2.94
485.374	2.86
485.577	2.93
485.78	2.96
485.983	2.96
486.186	2.82
486.389	2.83
486.592	2.81
486.795	2.82
486.998	2.77
487.201	2.88
487.404	3.03
487.607	3.09
487.81	3.09
488.013	3.18
488.216	3.13
488.419	3.04
488.622	2.96
488.825	2.89
489.028	2.84
489.231	2.8
489.433	2.81
489.636	2.7
489.839	2.75
490.042	2.67
490.245	2.63
490.447	2.65
490.65	2.75
490.853	2.75
491.056	2.82
491.258	2.87
491.461	2.89
491.664	2.92
491.866	2.85
492.069	2.96
492.272	2.94
492.474	2.94
492.677	2.95
492.879	3.05
493.082	3.08
493.285	3.23
493.487	3.19
493.69	3.14
493.892	3.06
494.095	2.94
494.297	2.86
494.5	2.93
494.702	2.91
494.905	3
495.107	2.95
495.309	2.92
495.512	2.91
495.714	3.01
495.917	3.02
496.119	3.05
496.321	3.14
496.524	3.18
496.726	3.17
496.928	3.17
497.13	3.19
497.333	3.14
497.535	3.15
497.737	3.1
497.939	3.12
498.142	3.17
498.344	3.14
498.546	3.04
498.748	3.1
498.95	3.21
499.152	3.18
499.355	3.25
499.557	3.39
499.759	3.47
499.961	3.38
500.163	3.43
500.365	3.44
500.567	3.51
500.769	3.4
500.971	3.43
501.173	3.34
501.375	3.37
501.577	3.28
501.779	3.34
501.981	3.34
502.183	3.39
502.385	3.29
502.587	3.23
502.788	3.31
502.99	3.34
503.192	3.43
503.394	3.47
503.596	3.56
503.798	3.59
503.999	3.58
504.201	3.53
504.403	3.59
504.605	3.57
504.806	3.49
505.008	3.52
505.21	3.6
505.411	3.61
505.613	3.64
505.815	3.65
506.016	3.69
506.218	3.74
506.42	3.71
506.621	3.72
506.823	3.71
507.024	3.63
507.226	3.58
507.427	3.62
507.629	3.68
507.83	3.77
508.032	3.8
508.233	3.88
508.435	3.87
508.636	3.91
508.838	3.87
509.039	3.9
509.24	3.94
509.442	3.99
509.643	3.91
509.845	3.92
510.046	4
510.247	3.97
510.448	3.96
510.65	4.01
510.851	4.14
511.052	4.08
511.254	4.07
511.455	4.17
511.656	4.24
511.857	4.24
512.058	4.28
512.26	4.31
512.461	4.22
512.662	4.22
512.863	4.16
513.064	4.15
513.265	4.18
513.466	4.3
513.667	4.28
513.868	4.31
514.069	4.37
514.27	4.4
514.471	4.39
514.672	4.41
514.873	4.41
515.074	4.44
515.275	4.36
515.476	4.33
515.677	4.35
515.878	4.48
516.079	4.41
516.28	4.48
516.481	4.59
516.682	4.58
516.882	4.46
517.083	4.53
517.284	4.47
517.485	4.38
517.686	4.38
517.886	4.39
518.087	4.41
518.288	4.5
518.488	4.52
518.689	4.55
518.89	4.55
519.091	4.55
519.291	4.53
519.492	4.56
519.692	4.57
519.893	4.68
520.094	4.71
520.294	4.72
520.495	4.73
520.695	4.75
520.896	4.68
521.096	4.67
521.297	4.7
521.497	4.67
521.698	4.64
521.898	4.67
522.099	4.72
522.299	4.82
522.499	4.87
522.7	4.94
522.9	4.98
523.101	5.06
523.301	5.01
523.501	4.98
523.702	5
523.902	5
524.102	5.01
524.302	4.98
524.503	5.06
524.703	5.04
524.903	5.11
525.103	5.03
525.304	5.17
525.504	5.24
525.704	5.29
525.904	5.28
526.104	5.26
526.304	5.2
526.504	5.17
526.705	5.14
526.905	5.2
527.105	5.25
527.305	5.26
527.505	5.23
527.705	5.24
527.905	5.21
528.105	5.26
528.305	5.22
528.505	5.28
528.705	5.4
528.905	5.34
529.105	5.31
529.304	5.42
529.504	5.47
529.704	5.37
529.904	5.46
530.104	5.52
530.304	5.57
530.503	5.51
530.703	5.49
530.903	5.45
531.103	5.46
531.303	5.42
531.502	5.43
531.702	5.58
531.902	5.65
532.101	5.61
532.301	5.6
532.501	5.67
532.7	5.57
532.9	5.61
533.1	5.64
533.299	5.69
533.499	5.69
533.698	5.72
533.898	5.69
534.097	5.69
534.297	5.78
534.496	5.8
534.696	5.87
534.895	5.98
535.095	6.09
535.294	6.05
535.494	5.96
535.693	5.96
535.892	5.91
536.092	5.79
536.291	5.76
536.491	5.93
536.69	5.98
536.889	5.94
537.088	6
537.288	6.07
537.487	6.09
537.686	6.08
537.886	6.18
538.085	6.21
538.284	6.33
538.483	6.33
538.682	6.43
538.882	6.43
539.081	6.5
539.28	6.37
539.479	6.38
539.678	6.3
539.877	6.42
540.076	6.42
540.275	6.51
540.474	6.55
540.673	6.66
540.872	6.57
541.071	6.67
541.27	6.67
541.469	6.72
541.668	6.7
541.867	6.74
542.066	6.74
542.265	6.84
542.464	6.81
542.663	6.81
542.862	6.99
543.06	7.08
543.259	7.13
543.458	7.25
543.657	7.4
543.856	7.38
544.054	7.3
544.253	7.27
544.452	7.24
544.651	7.25
544.849	7.21
545.048	7.28
545.247	7.28
545.445	7.35
545.644	7.39
545.843	7.45
546.041	7.5
546.24	7.65
546.438	7.73
546.637	7.75
546.836	7.89
547.034	7.95
547.233	7.91
547.431	7.88
547.63	7.96
547.828	7.95
548.027	7.96
548.225	7.98
548.423	8.03
548.622	8.04
548.82	8.02
549.019	8.11
549.217	8.26
549.415	8.35
549.614	8.45
549.812	8.49
550.01	8.43
550.209	8.45
550.407	8.47
550.605	8.47
550.803	8.57
551.002	8.72
551.2	8.76
551.398	8.89
551.596	9.05
551.794	9.16
551.993	9.2
552.191	9.24
552.389	9.32
552.587	9.37
552.785	9.4
552.983	9.5
553.181	9.66
553.379	9.74
553.577	9.75
553.775	9.83
553.973	9.96
554.171	10
554.369	9.98
554.567	10.07
554.765	10.09
554.963	10.13
555.161	10.15
555.359	10.28
555.557	10.42
555.755	10.51
555.952	10.59
556.15	10.72
556.348	10.81
556.546	10.93
556.744	11.03
556.941	11.05
557.139	11.13
557.337	11.19
557.535	11.13
557.732	11.24
557.93	11.38
558.128	11.45
558.325	11.54
558.523	11.67
558.721	11.75
558.918	11.79
559.116	11.88
559.313	11.92
559.511	12.02
559.708	12.04
559.906	12.12
560.104	12.15
560.301	12.3
560.498	12.37
560.696	12.5
560.893	12.59
561.091	12.7
561.288	12.8
561.486	12.82
561.683	12.82
561.88	12.9
562.078	13.01
562.275	13.03
562.473	13.21
562.67	13.4
562.867	13.55
563.064	13.67
563.262	13.76
563.459	13.8
563.656	13.89
563.853	13.88
564.051	13.92
564.248	14.06
564.445	14.2
564.642	14.24
564.839	14.48
565.036	14.62
565.234	14.76
565.431	14.79
565.628	14.88
565.825	14.92
566.022	14.99
566.219	15.04
566.416	15.15
566.613	15.28
566.81	15.35
567.007	15.3
567.204	15.29
567.401	15.3
567.598	15.34
567.795	15.31
567.991	15.46
568.188	15.59
568.385	15.73
568.582	15.82
568.779	15.92
568.976	16.01
569.172	16.15
569.369	16.11
569.566	16.1
569.763	16.21
569.96	16.24
570.156	16.19
570.353	16.27
570.55	16.36
570.746	16.36
570.943	16.36
571.14	16.38
571.336	16.46
571.533	16.47
571.729	16.4
571.926	16.48
572.123	16.58
572.319	16.64
572.516	16.59
572.712	16.78
572.909	16.77
573.105	16.87
573.302	16.85
573.498	17.06
573.695	16.99
573.891	17.11
574.087	16.99
574.284	17.02
574.48	16.95
574.677	17
574.873	16.94
575.069	17.05
575.266	17.07
575.462	17.02
575.658	17.09
575.854	17.22
576.051	17.24
576.247	17.29
576.443	17.35
576.639	17.36
576.835	17.2
577.032	17.13
577.228	17.15
577.424	17.19
577.62	17.08
577.816	17.23
578.012	17.26
578.208	17.24
578.404	17.26
578.6	17.31
578.796	17.25
578.993	17.24
579.189	17.23
579.384	17.12
579.58	17.1
579.776	17.02
579.972	17.02
580.168	16.96
580.364	17.04
580.56	17.06
580.756	17.18
580.952	17.09
581.148	17.13
581.343	17.15
581.539	17.18
581.735	17.09
581.931	17.22
582.127	17.26
582.322	17.22
582.518	17.22
582.714	17.2
582.909	17.13
583.105	17.03
583.301	17.06
583.496	17.04
583.692	17.05
583.888	17.04
584.083	17.14
584.279	17.05
584.474	17.05
584.67	17.03
584.866	17.01
585.061	16.86
585.257	16.96
585.452	16.99
585.648	17.01
585.843	17.05
586.039	17.15
586.234	17.13
586.429	17.07
586.625	17.15
586.82	17.12
587.015	17.11
587.211	16.95
587.406	17.01
587.601	16.92
587.797	16.89
587.992	16.84
588.187	17.06
588.383	17.02
588.578	17.04
588.773	17.15
588.968	17.27
589.163	17.25
589.359	17.21
589.554	17.25
589.749	17.2
589.944	17.2
590.139	17.17
590.334	17.33
590.529	17.27
590.724	17.32
590.919	17.33
591.114	17.29
591.309	17.28
591.504	17.44
591.699	17.38
591.894	17.44
592.089	17.52
592.284	17.56
592.479	17.63
592.674	17.68
592.869	17.73
593.064	17.83
593.259	17.9
593.454	17.92
593.648	18.02
593.843	18
594.038	18.03
594.233	17.95
594.428	17.89
594.622	17.91
594.817	18.04
595.012	18.09
595.206	18.1
595.401	18.11
595.596	18.18
595.79	18.23
595.985	18.3
596.18	18.47
596.374	18.66
596.569	18.75
596.763	18.75
596.958	18.81
597.153	18.88
597.347	18.86
597.542	18.94
597.736	18.97
597.931	19.04
598.125	19.04
598.319	19.19
598.514	19.18
598.708	19.28
598.903	19.37
599.097	19.42
599.291	19.46
599.486	19.46
599.68	19.51
599.874	19.52
600.069	19.56
600.263	19.59
600.457	19.71
600.651	19.77
600.846	19.89
601.04	19.96
601.234	19.88
601.428	19.96
601.622	19.92
601.817	19.89
602.011	19.93
602.205	20.09
602.399	20.05
602.593	20.08
602.787	20.11
602.981	20.1
603.175	20.12
603.369	20.08
603.563	20.18
603.757	20.09
603.951	20.1
604.145	20.06
604.339	20.12
604.533	19.97
604.727	20.02
604.921	19.94
605.115	19.92
605.309	20.04
605.502	20.03
605.696	20
605.89	19.95
606.084	19.91
606.278	19.76
606.471	19.75
606.665	19.65
606.859	19.63
607.053	19.64
607.246	19.6
607.44	19.54
607.634	19.47
607.827	19.45
608.021	19.3
608.214	19.23
608.408	19.15
608.602	19.09
608.795	19
608.989	18.96
609.182	18.86
609.376	18.88
609.569	18.82
609.763	18.73
609.956	18.67
610.15	18.64
610.343	18.54
610.537	18.48
610.73	18.51
610.923	18.5
611.117	18.47
611.31	18.47
611.504	18.47
611.697	18.37
611.89	18.31
612.083	18.25
612.277	18.25
612.47	18.19
612.663	18.13
612.856	18.07
613.05	17.94
613.243	17.8
613.436	17.7
613.629	17.6
613.822	17.44
614.015	17.45
614.209	17.29
614.402	17.27
614.595	17.25
614.788	17.22
614.981	17.02
615.174	16.89
615.367	16.79
615.56	16.71
615.753	16.65
615.946	16.61
616.139	16.67
616.332	16.68
616.525	16.64
616.718	16.73
616.911	16.78
617.103	16.81
617.296	16.77
617.489	16.67
617.682	16.51
617.875	16.49
618.067	16.37
618.26	16.26
618.453	16.33
618.646	16.31
618.838	16.25
619.031	16.33
619.224	16.35
619.417	16.24
619.609	16.22
619.802	16.19
619.994	16.08
620.187	16.05
620.38	15.94
620.572	15.86
620.765	15.85
620.957	15.79
621.15	15.62
621.342	15.65
621.535	15.81
621.727	15.78
621.92	15.72
622.112	15.67
622.305	15.72
622.497	15.49
622.69	15.46
622.882	15.53
623.074	15.7
623.267	15.59
623.459	15.56
623.651	15.49
623.844	15.49
624.036	15.49
624.228	15.46
624.42	15.52
624.613	15.61
624.805	15.6
624.997	15.48
625.189	15.53
625.381	15.54
625.574	15.44
625.766	15.34
625.958	15.32
626.15	15.33
626.342	15.3
626.534	15.32
626.726	15.32
626.918	15.31
627.11	15.25
627.302	15.18
627.494	15.09
627.686	15.11
627.878	15.05
628.07	15.04
628.262	15.05
628.454	15.07
628.646	15.05
628.838	15.09
629.029	15.05
629.221	15.09
629.413	15.02
629.605	14.92
629.797	14.82
629.989	14.85
630.18	14.76
630.372	14.7
630.564	14.68
630.755	14.74
630.947	14.77
631.139	14.66
631.33	14.6
631.522	14.67
631.714	14.68
631.905	14.54
632.097	14.53
632.289	14.69
632.48	14.64
632.672	14.58
632.863	14.5
633.055	14.53
633.246	14.46
633.438	14.31
633.629	14.29
633.821	14.36
634.012	14.35
634.203	14.3
634.395	14.43
634.586	14.35
634.777	14.25
634.969	14.23
635.16	14.25
635.351	14.14
635.543	14.18
635.734	14.23
635.925	14.25
636.117	14.28
636.308	14.28
636.499	14.21
636.69	14.05
636.881	13.99
637.073	14.01
637.264	14.02
637.455	14.13
637.646	14.33
637.837	14.39
638.028	14.24
638.219	14.3
638.41	14.22
638.601	14.05
638.792	14.04
638.983	14.05
639.174	13.91
639.365	13.94
639.556	13.9
639.747	13.82
639.938	13.86
640.129	13.89
640.32	13.73
640.511	13.78
640.701	13.81
640.892	13.66
641.083	13.71
641.274	13.86
641.465	13.84
641.655	13.79
641.846	13.79
642.037	13.69
642.228	13.53
642.418	13.61
642.609	13.61
642.8	13.69
642.99	13.63
643.181	13.75
643.372	13.71
643.562	13.63
643.753	13.5
643.943	13.42
644.134	13.28
644.324	13.21
644.515	13.23
644.705	13.32
644.896	13.44
645.086	13.45
645.277	13.4
645.467	13.36
645.658	13.24
645.848	13.12
646.038	13.1
646.229	13.08
646.419	12.99
646.61	12.98
646.8	12.92
646.99	12.84
647.18	12.77
647.371	12.75
647.561	12.64
647.751	12.68
647.941	12.59
648.132	12.57
648.322	12.61
648.512	12.8
648.702	12.75
648.892	12.84
649.082	12.79
649.272	12.62
649.462	12.34
649.653	12.26
649.843	12.14
650.033	12.14
650.223	12.18
650.413	12.16
650.603	12.18
650.793	12.18
650.983	12.12
651.172	12.02
651.362	12.07
651.552	12
651.742	11.88
651.932	11.89
652.122	11.95
652.312	11.96
652.502	11.87
652.691	11.9
652.881	11.83
653.071	11.69
653.261	11.52
653.45	11.43
653.64	11.4
653.83	11.28
654.019	11.3
654.209	11.23
654.399	11.2
654.588	11.09
654.778	11.04
654.968	10.85
655.157	10.83
655.347	10.74
655.536	10.59
655.726	10.5
655.915	10.36
656.105	10.29
656.294	10.14
656.484	9.96
656.673	9.77
656.863	9.73
657.052	9.53
657.241	9.38
657.431	9.28
657.62	9.15
657.809	8.92
657.999	8.72
658.188	8.66
658.377	8.46
658.567	8.37
658.756	8.27
658.945	8.18
659.134	7.99
659.324	7.93
659.513	7.82
659.702	7.67
659.891	7.65
660.08	7.57
660.269	7.6
660.458	7.43
660.648	7.35
660.837	7.15
661.026	7.1
661.215	6.83
661.404	6.73
661.593	6.64
661.782	6.42
661.971	6.35
662.16	6.22
662.349	6.13
662.538	5.97
662.726	6.04
662.915	5.81
663.104	5.77
663.293	5.79
663.482	5.84
663.671	5.63
663.86	5.58
664.048	5.57
664.237	5.42
664.426	5.17
664.615	5.22
664.803	5.12
664.992	4.98
665.181	4.91
665.369	4.81
665.558	4.69
665.747	4.62
665.935	4.64
666.124	4.68
666.312	4.75
666.501	4.68
666.69	4.58
666.878	4.53
667.067	4.3
667.255	4.26
667.444	4.51
667.632	4.6
667.82	4.64
668.009	4.63
668.197	4.55
668.386	4.37
668.574	4.51
668.762	4.4
668.951	4.36
669.139	4.38
669.327	4.2
669.516	4.14
669.704	4.11
669.892	4.26
670.08	4.31
670.269	4.33
670.457	4.18
670.645	4.03
670.833	4.06
671.021	4.02
671.21	4.06
671.398	4.34
671.586	4.41
671.774	4.25
671.962	4.18
672.15	4.22
672.338	3.93
672.526	3.97
672.714	3.91
672.902	4.01
673.09	4.13
673.278	4.39
673.466	4.45
673.654	4.63
673.842	4.61
674.03	4.52
674.218	4.35
674.405	4.35
674.593	4.3
674.781	4.36
674.969	4.36
675.157	4.52
675.344	4.65
675.532	4.77
675.72	4.84
675.908	4.89
676.095	4.76
676.283	4.67
676.471	4.84
676.658	4.78
676.846	4.79
677.033	5.01
677.221	5.12
677.409	4.92
677.596	4.91
677.784	4.94
677.971	4.89
678.159	4.93
678.346	4.98
678.534	5.15
678.721	5.42
678.909	5.49
679.096	5.43
679.283	5.7
679.471	5.81
679.658	5.77
679.846	5.87
680.033	6.17
680.22	6.12
680.408	6.01
680.595	6.07
680.782	6.01
680.969	6.17
681.157	6.21
681.344	6.27
681.531	6.34
681.718	6.34
681.905	6.36
682.093	6.46
682.28	6.75
682.467	6.99
682.654	7.22
682.841	7.25
683.028	7.48
683.215	7.63
683.402	7.48
683.589	7.62
683.776	7.88
683.963	7.92
684.15	8.02
684.337	8.27
684.524	8.41
684.711	8.51
684.898	8.64
685.085	8.82
685.271	9.17
685.458	9.49
685.645	9.75
685.832	10.14
686.019	10.47
686.205	10.59
686.392	10.8
686.579	10.96
686.766	11.27
686.952	11.43
687.139	11.93
687.326	12.07
687.512	12.39
687.699	12.63
687.886	12.83
688.072	12.87
688.259	13.32
688.445	13.82
688.632	13.98
688.818	14.56
689.005	15.02
689.191	15.41
689.378	15.9
689.564	16.5
689.751	16.92
689.937	17.42
690.124	18.01
690.31	18.15
690.496	18.56
690.683	18.99
690.869	19.39
691.055	19.64
691.242	20.46
691.428	21.08
691.614	21.7
691.8	22.54
691.987	23.18
692.173	23.56
692.359	24.2
692.545	24.78
692.731	25.1
692.918	25.76
693.104	26.26
693.29	26.68
693.476	27.48
693.662	28.17
693.848	28.59
694.034	29.16
694.22	29.81
694.406	30.1
694.592	30.69
694.778	31.42
694.964	32.17
695.15	32.69
695.336	33.3
695.522	34.02
695.708	34.57
695.894	35.19
696.08	35.96
696.265	36.65
696.451	37.1
696.637	37.73
696.823	38.23
697.009	38.63
697.194	39.09
697.38	39.54
697.566	40.14
697.751	40.96
697.937	41.84
698.123	42.35
698.308	43.17
698.494	43.81
698.68	44.08
698.865	44.41
699.051	45.14
699.236	45.41
699.422	45.76
699.607	46.28
699.793	46.83
699.978	47.18
700.164	47.62
700.349	48.39
700.535	48.85
700.72	49.23
700.906	49.99
701.091	50.5
701.276	50.8
701.462	51.65
701.647	52.46
701.832	52.77
702.018	53.24
702.203	53.79
702.388	53.85
702.573	53.99
702.759	54.72
702.944	55.06
703.129	55.3
703.314	55.79
703.499	56.19
703.684	56.13
703.87	57.2
704.055	58.08
704.24	58.28
704.425	58.8
704.61	59.36
704.795	59.31
704.98	59.25
705.165	59.7
705.35	59.97
705.535	60.18
705.72	60.52
705.905	61.12
706.09	61.55
706.275	61.93
706.459	62.15
706.644	62.22
706.829	62.21
707.014	62.2
707.199	62.9
707.384	63.23
707.568	63.63
707.753	64.21
707.938	64.73
708.123	64.4
708.307	64.71
708.492	65.07
708.677	65.03
708.861	65.09
709.046	65.01
709.231	65.67
709.415	66.04
709.6	65.92
709.784	66.16
709.969	66.87
710.153	66.63
710.338	66.56
710.522	67.34
710.707	67.76
710.891	67.67
711.076	67.7
711.26	67.37
711.445	67.5
711.629	67.76
711.813	68.07
711.998	68.8
712.182	69.36
712.366	69.44
712.551	69.91
712.735	70.2
712.919	69.72
713.103	70.22
713.288	70.06
713.472	69.65
713.656	70.11
713.84	70.57
714.024	70.65
714.208	70.68
714.393	71.15
714.577	71.11
714.761	71.23
714.945	71.33
715.129	72.11
715.313	72.18
715.497	72.01
715.681	72.86
715.865	72.68
716.049	72.39
716.233	72.13
716.417	72.5
716.601	71.64
716.785	71.94
716.968	72.27
717.152	72.69
717.336	72.71
717.52	72.94
717.704	72.79
717.888	73.1
718.071	73.27
718.255	73.62
718.439	73.82
718.622	74.16
718.806	73.89
718.99	73.58
719.174	73.25
719.357	73.19
719.541	73.48
719.724	73.48
719.908	74.4
720.092	74.9
720.275	75.41
720.459	75.41
720.642	75.28
720.826	74.43
721.009	73.74
721.193	73.04
721.376	73.43
721.559	74.04
721.743	74.57
721.926	75.41
722.11	75.84
722.293	75.25
722.476	74.79
722.66	74.79
722.843	74.63
723.026	74.28
723.21	74.63
723.393	75.35
723.576	75.11
723.759	74.79
723.942	75.16
724.126	75.29
724.309	74.98
724.492	74.99
724.675	75.39
724.858	75.9
725.041	76.36
725.224	76.54
725.407	76.61
725.59	76.74
725.774	76.39
725.957	75.09
726.14	74.9
726.322	75.43
726.505	75.41
726.688	76.24
726.871	76.73
727.054	77.29
727.237	76.67
727.42	76.84
727.603	76.09
727.786	76.4
727.968	76.54
728.151	76.99
728.334	76.75
728.517	77.34
728.699	78.04
728.882	77.62
729.065	78.15
729.248	78.91
729.43	79.21
729.613	79.54
729.796	80.39
729.978	79.75
730.161	79.05
730.343	78.25
730.526	78.03
730.708	77.19
730.891	77.64
731.073	77.62
731.256	78.01
731.438	77.95
731.621	78.66
731.803	78.99
731.986	79.4
732.168	78.94
732.35	79.11
732.533	78.47
732.715	78.07
732.898	78.49
733.08	78.93
733.262	79.17
733.444	79.14
733.627	79.37
733.809	79.32
733.991	80.03
734.173	79.61
734.355	79.95
734.538	80.19
734.72	79.41
734.902	78.92
735.084	78.93
735.266	79.27
735.448	79.47
735.63	80.03
735.812	80.35
735.994	81.3
736.176	81.23
736.358	80.99
736.54	81.96
736.722	81.45
736.904	80.9
737.086	80.61
737.268	81.71
737.45	81.41
737.632	81.66
737.814	80.64
737.995	81.01
738.177	80.12
738.359	79.33
738.541	80.04
738.723	80.51
738.904	80.74
739.086	81.12
739.268	80.9
739.449	80.83
739.631	81.26
739.813	80.97
739.994	80.49
740.176	80.84
740.358	80.44
740.539	81.14
740.721	81.99
740.902	83.36
741.084	82.95
741.265	82.79
741.447	82.79
741.628	82.18
741.81	80.62
741.991	81.95
742.172	83.14
742.354	83.4
742.535	83.52
742.717	84.15
742.898	83.82
743.079	83.13
743.261	82.19
743.442	81.47
743.623	82.12
743.804	82.09
743.986	82.4
744.167	81.98
744.348	82.27
744.529	81.96
744.71	81.35
744.891	81.48
745.073	80.97
745.254	80.95
745.435	80.1
745.616	80.01
745.797	79.24
745.978	79.67
746.159	79.41
746.34	78.75
746.521	80.16
746.702	79.15
746.883	79.06
747.064	79.17
747.245	79.74
747.426	78.56
747.606	80.15
747.787	81.28
747.968	81.09
748.149	82.06
748.33	82.24
748.51	82.04
748.691	80.92
748.872	81.48
749.053	81.04
749.233	80.64
749.414	79.43
749.595	78.91
749.775	77.08
749.956	76.55
750.137	76.07
750.317	77.87
750.498	80.17
750.678	81.86
750.859	82.91
751.04	84.18
751.22	82.29
751.4	80.77
751.581	79.76
751.761	79.09
751.942	79.79
752.122	80.24
752.303	79.79
752.483	80.67
752.663	79.79
752.844	77.95
753.024	78.72
753.204	79.58
753.385	78.53
753.565	79
753.745	80.01
753.925	78.87
754.106	76.61
754.286	77.5
754.466	78.35
754.646	78.24
754.826	77.93
755.006	78.67
755.187	79.17
755.367	79.03
755.547	79.9
755.727	81.33
755.907	81.76
756.087	82.59
756.267	81.75
756.447	80.91
756.627	79.28
756.807	80.67
756.987	79.01
757.167	79.6
757.346	80.6
757.526	80.5
757.706	81.44
757.886	82.09
758.066	82.33
758.246	83.74
758.425	83.75
758.605	82.02
758.785	82.19
758.965	82.06
759.144	77.86
759.324	78.61
759.504	78.95
759.683	79.11
759.863	77.73
760.043	78.14
760.222	79.14
760.402	78.88
760.581	77.98
760.761	79.84
760.94	78.68
761.12	79.03
761.299	78.49
761.479	77.68
761.658	76.39
761.838	77.93
762.017	77.6
762.197	78.15
762.376	79.5
762.555	80.82
762.735	81.24
762.914	79.91
763.093	79.56
763.273	78.11
763.452	76.43
763.631	75.11
763.81	74.83
763.99	75.13
764.169	76.47
764.348	75.18
764.527	75.16
764.706	77.48
764.885	78.62
765.064	77.01
765.243	78.6
765.423	79.99
765.602	77.99
765.781	75.07
765.96	74.76
766.139	72.73
766.318	73.14
766.497	73.31
766.676	73.97
766.854	75.6
767.033	76.99
767.212	75.69
767.391	76.44
767.57	77.45
767.749	77.58
767.928	80.25
768.106	79.63
768.285	76.38
768.464	76.65
768.643	74.97
768.821	72.71
769	75.97
769.179	77.02
769.357	75.5
769.536	75.48
769.715	75.9
769.893	75.41
770.072	75.05
770.25	75.53
770.429	77.31
770.607	76.46
770.786	73.58
770.964	74.46
771.143	72.89
771.321	72.91
771.5	74.33
771.678	74.36
771.857	72.77
772.035	74.48
772.213	73.42
772.392	70.25
772.57	73.8
772.748	76.11
772.927	74.76
773.105	74.63
773.283	76.82
773.461	75.97
773.64	75.9
773.818	77.05
773.996	78.76
774.174	77.52
774.352	73.49
774.531	71.63
774.709	73.18
774.887	70.79
775.065	70.33
775.243	71.56
775.421	72.62
775.599	73.67
775.777	72.49
775.955	71.21
776.133	70.44
776.311	69.77
776.489	66.22
776.667	68.82
776.844	72.31
777.022	71.59
777.2	72.28
777.378	71.57
777.556	71.55
777.734	73.87
777.911	78.55
778.089	77.81
778.267	78.28
778.445	74.44
778.622	69.49
778.8	69.5
778.978	71.81
779.155	72.09
779.333	74.92
779.511	74.61
779.688	73.6
779.866	69.15
780.043	67.32
780.221	67.97
780.398	69.68
780.576	69.4
780.753	71.57
780.931	70.65
781.108	68.42
781.286	68.38
781.463	65.21
781.64	63.5
781.818	66.35
781.995	68.2
782.172	68.93
782.35	70.4
782.527	72.7
782.704	69.94
782.882	69.6
783.059	66.1
783.236	66.11
783.413	66.66
783.59	67.75
783.768	66.12
783.945	66.72
784.122	67.09
784.299	67.97
784.476	68.06
784.653	67.94
784.83	67.7
785.007	64.56
785.184	63.03
785.361	63.88
785.538	67.02
785.715	68.74
785.892	70.17
786.069	74.81
786.246	75.18
786.423	75.79
786.6	77.25
786.776	80.89
786.953	73.98
787.13	77.27
787.307	73.5
787.484	71.67
787.66	67.37
787.837	70.36
788.014	64.51
788.191	63
788.367	59.94
788.544	62.74
788.721	61.11
788.897	66.25
789.074	70.89
789.25	72.87
789.427	72.3
789.603	72.94
789.78	72.91
789.956	68.84
790.133	68.29
790.309	68.72
790.486	71.13
790.662	68.06
790.839	68.86
791.015	68.55
791.192	65.87
791.368	65.14
791.544	61.64
791.721	61.97
791.897	63.84
792.073	64.26
792.249	57.95
792.426	63.36
792.602	67.81
792.778	64.87
792.954	64.23
793.13	69.17
793.307	61.71
793.483	52.55
793.659	53.44
793.835	56.9
794.011	52.64
794.187	52.4
794.363	49.25
794.539	49.93
794.715	43.77
794.891	46.99
795.067	50.85
795.243	60.69
795.419	61.52
795.595	64.42
795.771	61.64
795.947	60.28
796.122	57.41
796.298	64.47
796.474	66.87
796.65	67.88
796.826	67.77
797.001	66.49
797.177	54.24
797.353	60.4
797.529	62.47
797.704	63.68
797.88	63.7
798.056	66.77
798.231	57.42
798.407	56.27
798.582	58.24
798.758	67.33
798.934	71.07
799.109	69.43
799.285	63.87
799.46	64.71
799.636	56.69
799.811	55.2
799.986	61.92
800.162	68.99
800.337	68.92
800.513	68.96
800.688	66.99
800.863	75.73
801.039	69.86
801.214	63.77
801.389	66.8
801.565	67.82
801.74	51.79
801.915	58.38
802.09	60.72
802.265	59.98
802.441	59.87
802.616	62.51
802.791	60.17
802.966	64.45
803.141	65.66
803.316	64.36
803.491	69.31
803.666	71.48
803.841	67.44
804.016	62.27
804.191	62.32
804.366	55.3
804.541	48.36
804.716	49.38
804.891	43.28
805.066	52.58
805.241	52.73
805.416	54.92
805.591	55.88
805.765	66.2
805.94	56.53
806.115	56.3
806.29	51.25
806.464	50.67
806.639	43.8
806.814	39.24
806.989	35.25
807.163	51.13
807.338	51.97
807.512	52.38
807.687	46.67
807.862	60.16
808.036	58.79
808.211	67.41
808.385	77.71
808.56	98.61
808.734	108.8
808.909	96.93
809.083	84.42
809.258	85.59
809.432	77.81
809.606	55.37
809.781	55.06
809.955	56.06
810.13	49.23
810.304	42.07
810.478	42.2
810.652	51.22
810.827	55.16
811.001	50.16
811.175	48.12
811.349	46.57
811.524	40.76
811.698	33.15
811.872	29.98
812.046	44.42
812.22	56.78
812.394	51.99
812.568	51.84
812.742	55.69
812.916	42.18
813.09	32.03
813.264	36.53
813.438	43.01
813.612	37.71
813.786	43.94
813.96	49.72
814.134	51.77
814.308	61.85
814.482	73.19
814.656	62.55
814.83	63.6
815.003	62.89
815.177	51.12
815.351	42.19
815.525	52.55
815.698	45.57
815.872	43.63
816.046	38.3
816.219	43.79
816.393	49.91
816.567	57.37
816.74	57.02
816.914	62.03
817.088	70.7
817.261	57.8
817.435	48.02
817.608	52.71
817.782	49.55
817.955	45.82
818.129	40.68
818.302	52.84
818.475	52.39
818.649	54.04
818.822	42.01
818.996	59.88
819.169	62.78
819.342	58.34
819.516	58.91
819.689	69.25
819.862	58.98
820.035	45.17
820.209	38.87
820.382	41.63
820.555	40.99
820.728	31.8
820.901	30.97
821.075	33.56
821.248	43.95
821.421	34.95
821.594	32.88
821.767	69.63
821.94	85.75
822.113	49.41
822.286	47.43
822.459	59.93
822.632	30.72
822.805	10.15
822.978	28.04
823.151	22.38
823.324	5.82
823.496	-5.54
823.669	2.36
823.842	4.11
824.015	4.15
824.188	22.95
824.361	31.53
824.533	22.63
824.706	31.01
824.879	31.95
825.051	36.19
825.224	28.86
825.397	20.42
825.569	9.01
825.742	27.21
825.915	42.63
826.087	69.68
826.26	70.48
826.432	71.17
826.605	70.9
826.777	52.37
826.95	48.21
827.122	27.21
827.295	21.83
827.467	26.78
827.64	-11.11
827.812	-32.59
827.984	-6.26
828.157	9.23
828.329	-32.18
828.501	-1.54
828.674	40.36
828.846	20.93
829.018	31.46
829.19	29.66
829.363	51.16
829.535	49.58
829.707	46.87
829.879	12.63
830.051	10.05
830.223	-9.92
830.395	-41.97
830.568	-25.47
830.74	-20.5
830.912	21.42
831.084	15.38
831.256	17.1
831.428	16.96
831.6	16.17
831.772	-23.72
831.943	-41.13
832.115	-10.78
832.287	0.53
832.459	13.08
832.631	27.52
832.803	59.82
832.975	68.52
833.146	57.12
833.318	56.1
833.49	64.31
833.662	36.93
833.833	13.24
834.005	15.39
834.177	19.84
834.348	21.11
834.52	24.03
834.692	23.45
834.863	41.49
835.035	15.99
835.206	-52.26
835.378	-44.53
835.549	-34.26
835.721	-27.7
835.892	-14.91
836.064	-11.13
836.235	-16.95
836.407	-0.6
836.578	-33.74
836.749	-42.34
836.921	-45.9
837.092	-39.14
837.264	-60.4
837.435	-69.76
837.606	-15.88
837.777	28.1
837.949	41.79
838.12	59.59
838.291	73.65
838.462	60.53
838.633	23.77
838.805	15.94
838.976	12.62
839.147	-46.79
839.318	-42.09
839.489	-106.34
839.66	-84.77
839.831	-52.06
840.002	-33.06
840.173	-75.22
840.344	27.74
840.515	19.85
840.686	-116.21
840.857	-98.55
841.028	-89.41
841.199	-92.22
841.369	-122.23
841.54	-86.2
841.711	-50.42
841.882	-27.32
842.053	-40.65
842.223	-23.64
842.394	-14.73
842.565	-11.56
842.736	15.6
842.906	19.66
843.077	30.33
843.248	34.97
843.418	31.65
843.589	-60.45
843.759	-19.25
843.93	-11.63
844.101	7.02
844.271	10.83
844.442	35.24
844.612	35.24
844.783	7.03
844.953	-17.42
845.123	-31.64
845.294	-32.69
845.464	-213.28
845.635	-104.46
845.805	-39.01
845.975	-14.26
846.146	-69.58
846.316	-47.52
846.486	-9.83
846.656	18.88
846.827	28.44
846.997	46.51
847.167	75.02
847.337	28.85
847.507	-9.29
847.677	-29.6
847.848	25.89
848.018	27.45
848.188	39.49
848.358	34.67
848.528	24.76
848.698	-22.97
848.868	-113.03
849.038	-224.47
849.208	-71.01
849.378	-15.47
849.548	-1.89
849.718	42.49
849.887	54.79
850.057	29.76
850.227	-13.62
850.397	-28.81
850.567	-185.76
850.737	-407.17
850.906	-1373.13
851.076	-867.58
851.246	-293.98
851.415	6.97
851.585	-19.83
851.755	-41.24
851.924	-20.07
852.094	-104.1
852.264	-252.99
852.433	-1572.6
852.603	-349.13
852.772	-229.52
852.942	-95.71
853.111	-62.17
853.281	-13.76
853.45	18.14
853.62	-90.25
853.789	-87.12
853.959	-71.09
854.128	-31.88
854.297	-41.66
854.467	-38.64
854.636	-39.17
854.805	-16.47
854.975	-34.04
855.144	-102.88
855.313	110.84
855.482	-243.43
855.652	-176.58
855.821	-115.26
855.99	24.88
856.159	25.53
856.328	60.98
856.497	59.49
856.667	47.96
856.836	56.38
857.005	8.37
857.174	-24.83
857.343	-42.68
857.512	-51.97
857.681	-117.69
857.85	-142.67
858.019	-64.76
858.188	-60.62
858.356	-75.04
858.525	-122.82
858.694	-82.64
858.863	-208.04
859.032	-165.14
859.201	-164.45
859.369	-85.84
859.538	-111.81
859.707	-70.23
859.876	-77.16
860.044	-84.14
860.213	15.32
860.382	15.84
860.55	20.85
860.719	42.2
860.888	50
861.056	8.09
861.225	4.35
861.393	35.82
861.562	44.04
861.73	-18.26
861.899	-146.34
862.067	-1729.31
862.236	-127.37
862.404	-262.1
862.572	-187.3
862.741	-60.92
862.909	-60.82
863.078	-147
863.246	-109.26
863.414	-54.21
863.582	-62.6
863.751	-55.66
863.919	-49.54
864.087	3.09
864.255	-17.08
864.424	-229.68
864.592	-11.25
864.76	-21.07
864.928	-58
865.096	-108.12
865.264	-126.28
865.432	-2107.95
865.6	-208.75
865.768	-183.66
865.936	-185.82
866.104	-185.86
866.272	-252.34
866.44	-531.69
866.608	644.29
866.776	314.03
866.944	2931.4
867.112	-518.86
867.28	-245.3
867.448	-111.27
867.615	-42.07
867.783	-46.25
867.951	-55.89
868.119	-0.78
868.286	-58.04
868.454	-170.17
868.622	-61.69
868.789	-49.81
868.957	-1032.14
869.125	-1540.79
869.292	-107.74
869.46	-207.34
869.627	4.7
869.795	-21.21
869.963	10.46
870.13	40.7
870.298	51.21
870.465	-41.2
870.632	-68.24
870.8	-38.43
870.967	-103.94
871.135	-172.64
871.302	-158.09
871.469	-162.06
871.637	-160.32
871.804	-108.16
871.971	-141.8
872.139	-382.56
872.306	-40.54
872.473	-108.84
872.64	-408.37
872.807	-135.55
872.975	-18.37
873.142	-274
873.309	1931.08
873.476	10.54
873.643	18.28
873.81	-7.25
873.977	4.32
874.144	17.69
874.311	-180.82
874.478	-181.1
874.645	-222.75
874.812	-136.46
874.979	-94.6
875.146	-80.8
875.313	-99.39
875.48	-2.64
875.647	-20.09
875.813	-61.03
875.98	-24.34
876.147	-66.23
876.314	-91.73
876.481	845.87
876.647	-1001.69
876.814	388.86
876.981	160.19
877.147	29.35
877.314	48.93
877.481	82.13
877.647	74.56
877.814	23.1
877.98	-60.08
878.147	-35.27
878.314	1.32
878.48	-67.35
878.647	-37.26
878.813	34.89
878.979	38.38
879.146	18.23
879.312	24.45
879.479	25.33
879.645	-39.68
879.811	-182.81
879.978	-653.05
880.144	-181.32
880.31	-102.57
880.477	-367.63
880.643	-397.36
880.809	-106.66
880.975	-74.23
881.142	-524.09
881.308	-29.39
881.474	14.44
881.64	8.06
881.806	-82.95
881.972	-26.12
882.138	-10.71
882.304	21.47
882.47	-158.49
882.636	-563.52
882.802	-179.78
882.968	-9.39
883.134	-16.73
883.3	15.79
883.466	59.33
883.632	72.38
883.798	31.14
883.964	21.12
884.129	16.5
884.295	-10.36
884.461	-38.08
884.627	-38.8
884.793	-71.86
884.958	-60.06
885.124	-166.12
885.29	-345.59
885.455	-627.91
885.621	-211.8
885.787	-233.03
885.952	-84.68
886.118	-40.18
886.283	-45.98
886.449	-134.83
886.614	-133.48
886.78	-254.04
886.945	1225.41
887.111	-655.78
887.276	-509.94
887.442	-976.82
887.607	-413.44
887.773	-258.12
887.938	-221.02
888.103	-244.43
888.269	-163.7
888.434	-319.73
888.599	-80.45
888.764	-26.46
888.93	-26.15
889.095	-39.5
889.26	-88.05
889.425	-75.26
889.59	-72.9
889.756	-53.12
889.921	-38.76
890.086	36.91
890.251	32.68
890.416	-83.18
890.581	-1065.32
890.746	93.39
890.911	384.39
891.076	159.68
891.241	-210.82
891.406	96.2
891.571	29.74
891.736	-73.17
891.901	-385.4
892.065	498.35
892.23	189.72
892.395	236.11
892.56	349.57
892.725	-412.89
892.889	-989.02
893.054	-134.54
893.219	-57.33
893.384	-8.21
893.548	-59.02
893.713	-89.01
893.878	-62.85
