Data from Ofra_PS_T2_1A_0CX04_Reflection_3.txt Node
Date: Wed Jul 21 17:43:07 EDT 2021
User: Adam
Spectrometer: FLMT01687
Trigger mode: 0
Integration Time (sec): 1.100000E0
Scans to average: 2
Electric dark correction enabled: true
Nonlinearity correction enabled: false
Boxcar width: 2
XAxis mode: Wavelengths
Number of Pixels in Spectrum: 3648
>>>>>Begin Spectral Data<<<<<
179.494	539
179.716	632.71
179.937	569.71
180.158	587.94
180.38	912.97
180.601	303.18
180.823	84.34
181.044	2.73
181.265	37.32
181.486	24.87
181.708	71.3
181.929	513.78
182.15	-286.97
182.372	181.5
182.593	26.22
182.814	6.24
183.035	56.91
183.257	46.19
183.478	-97.61
183.699	-21.76
183.92	-21.73
184.141	-7.34
184.363	-98.29
184.584	-10.71
184.805	17.27
185.026	43.62
185.247	44.39
185.468	38.57
185.689	38.73
185.91	22.87
186.132	15.19
186.353	25.05
186.574	98.78
186.795	54.33
187.016	-1.92
187.237	-29.98
187.458	-82.19
187.679	-86.24
187.9	-39.31
188.121	-4.98
188.342	63.28
188.563	89.86
188.784	109.29
189.005	83.78
189.226	131.58
189.447	62.82
189.667	-189.2
189.888	-403.33
190.109	-1413.96
190.33	-917.26
190.551	-1332.52
190.772	-249.09
190.993	-110.92
191.214	-45.14
191.434	5.98
191.655	85.43
191.876	61.32
192.097	-10.45
192.318	-32.53
192.538	-45.67
192.759	-106.38
192.98	-0.33
193.201	17.04
193.421	28.95
193.642	35.53
193.863	40.55
194.083	7.62
194.304	0.99
194.525	-9.34
194.745	-15.57
194.966	-40.56
195.187	-31.51
195.407	-36.25
195.628	-78.4
195.848	-114.29
196.069	-104.79
196.29	-89.64
196.51	-98.75
196.731	-101.88
196.951	-134.44
197.172	-151.8
197.392	-165.86
197.613	-156.39
197.833	-153.64
198.054	-103.04
198.274	-31.58
198.495	-35.62
198.715	-2.96
198.936	-4.94
199.156	8.03
199.377	-104.27
199.597	-95.67
199.817	-118.38
200.038	-72.98
200.258	-155.33
200.479	-53.45
200.699	-52.96
200.919	11.24
201.14	-5.86
201.36	-1.7
201.58	33.5
201.801	60.58
202.021	24.13
202.241	24.08
202.461	15.63
202.682	-89.44
202.902	-190.66
203.122	-98.2
203.342	-75.13
203.563	-30.1
203.783	26.11
204.003	10.61
204.223	9.3
204.443	60.02
204.663	38.51
204.884	15
205.104	44.57
205.324	42.03
205.544	13.01
205.764	34.41
205.984	43.3
206.204	46.79
206.424	35.41
206.644	8.59
206.864	28.81
207.084	-18.21
207.304	24.08
207.525	-74.92
207.745	-28.66
207.964	-4.79
208.184	-57.67
208.404	-120.79
208.624	-105.41
208.844	-93.7
209.064	-357.32
209.284	-324.03
209.504	-106.89
209.724	4.58
209.944	-4.78
210.164	30.44
210.384	34.59
210.604	38.41
210.823	-0.24
211.043	-23.29
211.263	-22.08
211.483	-11.2
211.703	-68.24
211.922	-40.12
212.142	34.23
212.362	65.15
212.582	30.68
212.801	26.96
213.021	-7.68
213.241	-32.01
213.461	-82.88
213.68	-91.23
213.9	-61.24
214.12	-11.56
214.339	-66.8
214.559	-39.9
214.779	15.14
214.998	17.3
215.218	-60.87
215.438	-44.38
215.657	-33.25
215.877	-56.73
216.096	-25.77
216.316	6.5
216.535	16.19
216.755	-5.21
216.974	-72.24
217.194	-134.31
217.413	-85.79
217.633	-83.01
217.852	-162.91
218.072	-84.58
218.291	-25.91
218.511	-15.11
218.73	-42.69
218.95	-34.19
219.169	-34.45
219.389	-87.42
219.608	-57.21
219.827	-30.62
220.047	-8.28
220.266	5.85
220.485	18.57
220.705	17.76
220.924	-26.89
221.143	20.49
221.363	8.2
221.582	37.28
221.801	53.29
222.021	82.12
222.24	51.99
222.459	116.22
222.678	1.37
222.897	-55.5
223.117	-104.73
223.336	-47.9
223.555	-42.31
223.774	2.17
223.993	14.34
224.213	63.17
224.432	17.01
224.651	45.57
224.87	28.61
225.089	37.66
225.308	49.08
225.527	62.45
225.746	52.45
225.965	32.93
226.184	28.72
226.404	17.79
226.623	9.77
226.842	10.32
227.061	46.53
227.28	38.16
227.499	28.28
227.718	34.54
227.936	39.52
228.155	46.12
228.374	23.18
228.593	22.7
228.812	16.15
229.031	22.58
229.25	-26.41
229.469	-8.88
229.688	9.04
229.907	32.92
230.125	24.23
230.344	15.81
230.563	40.35
230.782	52.61
231.001	-27.68
231.22	-14.44
231.438	26.26
231.657	9.61
231.876	-6.38
232.095	43.11
232.313	36.52
232.532	16.57
232.751	16.45
232.969	-8.02
233.188	-64.57
233.407	26.54
233.625	33.53
233.844	13.49
234.063	33.38
234.281	44.45
234.5	18.38
234.719	6.83
234.937	13.67
235.156	12.67
235.374	10.06
235.593	3.09
235.811	0.02
236.03	-1.73
236.249	-46.47
236.467	-38.85
236.686	-8.9
236.904	12.34
237.123	-5.72
237.341	3.53
237.559	5.49
237.778	-5.89
237.996	-24.57
238.215	16.82
238.433	28.6
238.652	49.11
238.87	4.5
239.088	11.07
239.307	8.77
239.525	10.42
239.743	-35.58
239.962	8.3
240.18	-29.2
240.398	-74.54
240.617	-98.77
240.835	-88.98
241.053	-57.75
241.271	14.8
241.49	27.21
241.708	31.42
241.926	25.45
242.144	10.28
242.363	-65.37
242.581	-75.58
242.799	-71.39
243.017	-17.23
243.235	-51.69
243.453	-22.62
243.672	-26.71
243.89	-15.24
244.108	-43.7
244.326	-17.9
244.544	-15.85
244.762	-21.82
244.98	-8.11
245.198	0.85
245.416	-31.02
245.634	-45.01
245.852	-53.74
246.07	-70.58
246.288	-61.51
246.506	-68.17
246.724	-31.85
246.942	-11.3
247.16	5.76
247.378	12.03
247.596	34.83
247.814	16.99
248.032	4.05
248.25	-7.19
248.468	6.38
248.685	20.28
248.903	56.88
249.121	62.41
249.339	37.64
249.557	17.96
249.775	13.08
249.992	-62.45
250.21	-66.37
250.428	-39.29
250.646	-70.05
250.863	-85.03
251.081	-46.01
251.299	-38.92
251.517	-34.28
251.734	-6.39
251.952	-18.97
252.17	-21.83
252.387	-6.49
252.605	-4.37
252.823	4.24
253.04	36.26
253.258	52.19
253.475	51.17
253.693	60.79
253.911	49.42
254.128	37.35
254.346	49.37
254.563	29.21
254.781	7.31
254.998	9.81
255.216	9.45
255.433	-10.65
255.651	38.61
255.868	65.42
256.086	79.11
256.303	64.67
256.521	66.78
256.738	37.91
256.956	0.77
257.173	-20.26
257.39	-30.18
257.608	-38
257.825	-0.21
258.043	30.74
258.26	25.6
258.477	57.76
258.695	47.61
258.912	-12.43
259.129	3.78
259.346	-25
259.564	-65.15
259.781	-98.92
259.998	-15.89
260.216	-1.13
260.433	40.56
260.65	28.14
260.867	53.55
261.084	14.89
261.302	2.71
261.519	-6.6
261.736	-26.88
261.953	-68.01
262.17	-24.68
262.387	-63.5
262.604	-104.2
262.822	-88.86
263.039	-53.12
263.256	-104.17
263.473	-46.11
263.69	-21.23
263.907	17.46
264.124	28.27
264.341	34.2
264.558	22.7
264.775	45.05
264.992	32.36
265.209	21.82
265.426	38.9
265.643	37.25
265.86	42.05
266.077	56.23
266.294	62.03
266.51	33.64
266.727	35.31
266.944	23.85
267.161	-16.73
267.378	-35.42
267.595	-12.82
267.812	-64.24
268.028	-104.04
268.245	-45.24
268.462	-41.08
268.679	-45.53
268.896	24.73
269.112	46.74
269.329	28
269.546	40.44
269.763	35.23
269.979	32.62
270.196	23.88
270.413	8.88
270.629	-16.45
270.846	-31.36
271.063	-44.07
271.279	-76.16
271.496	-71.19
271.712	-12.24
271.929	7.62
272.146	1.62
272.362	14.48
272.579	38.21
272.795	12.9
273.012	17.78
273.228	10.89
273.445	1.67
273.661	-24.71
273.878	-77.67
274.094	-78.96
274.311	-89.98
274.527	-20.23
274.744	-22.62
274.96	1.61
275.177	11.57
275.393	26.98
275.609	21.63
275.826	46.86
276.042	31.71
276.259	23.76
276.475	39.97
276.691	43.67
276.908	24.71
277.124	51.79
277.34	51.59
277.557	45
277.773	13.61
277.989	14.52
278.205	-12.33
278.422	15.54
278.638	20.37
278.854	50.9
279.07	37.66
279.286	34.66
279.503	-2.8
279.719	-18.63
279.935	-39.48
280.151	-39.13
280.367	-1.03
280.583	-18.57
280.799	-21.52
281.016	-68.13
281.232	-15.18
281.448	-19.85
281.664	12.39
281.88	-9.48
282.096	29.08
282.312	25.09
282.528	30.83
282.744	36.13
282.96	44.12
283.176	35.04
283.392	23.81
283.608	20.81
283.824	11.64
284.04	21.59
284.256	33.48
284.471	37.51
284.687	31.93
284.903	63.31
285.119	90.56
285.335	55.41
285.551	52.58
285.767	30.97
285.982	1.43
286.198	-76.2
286.414	-8.27
286.63	2.34
286.846	36.46
287.061	19.99
287.277	60.32
287.493	21.52
287.709	46.64
287.924	13.54
288.14	56.35
288.356	34.25
288.571	61.78
288.787	21.14
289.003	22.07
289.218	-1.91
289.434	-33.96
289.65	-35.09
289.865	-18.12
290.081	25.67
290.296	22.78
290.512	31.07
290.727	13.09
290.943	-0.16
291.159	-13.91
291.374	-13.1
291.59	-24.36
291.805	-24.1
292.021	-3.46
292.236	-22.51
292.451	-9.79
292.667	6.67
292.882	16.9
293.098	-9.93
293.313	-15.31
293.529	-33.34
293.744	-66.23
293.959	-51.71
294.175	-35.85
294.39	3.08
294.605	6.3
294.821	37.23
295.036	48.76
295.251	56.78
295.467	18.66
295.682	20.06
295.897	-35.51
296.112	-72.72
296.328	-70.09
296.543	-62.17
296.758	-65.84
296.973	1.78
297.188	39.53
297.404	18.02
297.619	3.16
297.834	6.7
298.049	-8.34
298.264	-45.26
298.479	9.04
298.694	19.8
298.909	38.83
299.125	34.56
299.34	57.77
299.555	24.37
299.77	38.34
299.985	-20.85
300.2	-67.42
300.415	-100.44
300.63	-64.68
300.845	-70.02
301.06	-47.49
301.275	-9.33
301.49	8.42
301.704	0.82
301.919	-16.12
302.134	-38.81
302.349	-46.11
302.564	-104.08
302.779	-122.1
302.994	-72.84
303.209	18.5
303.423	64.93
303.638	95.8
303.853	46.67
304.068	23.73
304.283	-3.62
304.497	-15.13
304.712	-40.35
304.927	-21.4
305.142	-21.87
305.356	-8.04
305.571	-9.21
305.786	-19.1
306	-37.02
306.215	-12.85
306.43	-47.32
306.644	-55.95
306.859	-8.88
307.074	21.77
307.288	-11.66
307.503	5.64
307.717	-8.72
307.932	-11.87
308.147	-18.56
308.361	-9.2
308.576	-19.96
308.79	-42.72
309.005	-46.48
309.219	-30.19
309.434	-26.6
309.648	-25
309.863	-5.34
310.077	3.36
310.292	-15.31
310.506	-4.65
310.72	12.92
310.935	31.17
311.149	16.91
311.364	44.58
311.578	55.12
311.792	35.86
312.007	32.78
312.221	13.86
312.435	17.61
312.649	-15.62
312.864	-18.51
313.078	-20.76
313.292	66.29
313.507	19.34
313.721	52.14
313.935	66.66
314.149	59.25
314.363	27.14
314.578	15.7
314.792	16.55
315.006	-7.19
315.22	4.27
315.434	-3.11
315.648	25.8
315.862	22.34
316.077	28.25
316.291	16.15
316.505	42.18
316.719	9.45
316.933	-6.91
317.147	-5.15
317.361	-57.88
317.575	-107.72
317.789	-123.34
318.003	-181.5
318.217	-156.44
318.431	-66.28
318.645	7.58
318.859	1.25
319.073	22.49
319.287	11.78
319.5	-5.63
319.714	-53.2
319.928	-64.04
320.142	-90.25
320.356	-17.33
320.57	19
320.784	17.75
320.997	17.74
321.211	28.93
321.425	-57.87
321.639	-109
321.853	-27.56
322.066	-18.7
322.28	-18.03
322.494	3.63
322.707	27.77
322.921	4.38
323.135	-3.13
323.349	7.09
323.562	-13.58
323.776	-27.7
323.989	-25.74
324.203	-51.11
324.417	-62.3
324.63	-76.03
324.844	-81.64
325.057	-81.21
325.271	-30.43
325.485	-2.57
325.698	25.97
325.912	44.05
326.125	8.62
326.339	2.74
326.552	-21.43
326.766	-20.7
326.979	-2.31
327.193	53.69
327.406	32.73
327.619	18.65
327.833	26.59
328.046	-18.36
328.26	-64.41
328.473	-13.87
328.686	-40.1
328.9	-31.43
329.113	4.02
329.326	-3.21
329.54	-6.62
329.753	-1.93
329.966	-48.72
330.179	-20.38
330.393	-8.76
330.606	-10.2
330.819	17.17
331.032	36.22
331.246	26.64
331.459	56.8
331.672	28.17
331.885	11.73
332.098	-11.24
332.311	-29.09
332.525	-102.81
332.738	-60.54
332.951	-17.42
333.164	8.97
333.377	23.52
333.59	48.92
333.803	47.27
334.016	28.94
334.229	27.42
334.442	39.46
334.655	45.78
334.868	39.67
335.081	42.25
335.294	30.16
335.507	22.1
335.72	15.59
335.933	12.65
336.146	8.58
336.359	10.62
336.572	-29.88
336.785	-69.91
336.997	-71.37
337.21	-55.68
337.423	-60.65
337.636	-37.97
337.849	-14.52
338.062	-16.98
338.274	-7.17
338.487	-6.37
338.7	-5.42
338.913	-43.19
339.125	-66.41
339.338	-109.36
339.551	-92.15
339.763	-61.49
339.976	-10.01
340.189	22.99
340.402	38.75
340.614	18.16
340.827	8.16
341.039	-20.15
341.252	-23.59
341.465	-22.26
341.677	-12.58
341.89	-46.56
342.102	-12.32
342.315	-45.62
342.527	-83.54
342.74	-66.35
342.952	-15.38
343.165	-25.34
343.377	18.94
343.59	27.93
343.802	36.1
344.015	48.85
344.227	60.42
344.44	51.06
344.652	48.08
344.864	34.64
345.077	35.88
345.289	37.65
345.502	39.75
345.714	27.72
345.926	37.51
346.139	10.25
346.351	29.76
346.563	30.74
346.775	46.7
346.988	35.71
347.2	27.99
347.412	-37.51
347.624	-58.3
347.837	-84.05
348.049	-61.79
348.261	-5.31
348.473	15.3
348.685	15.44
348.897	11.89
349.11	-2.56
349.322	-14.05
349.534	-4.34
349.746	-8.08
349.958	2.46
350.17	-7.29
350.382	4.17
350.594	-2.41
350.806	8.1
351.018	5.49
351.23	0.82
351.442	-55.12
351.654	-52.17
351.866	-49.77
352.078	-36.2
352.29	-10.69
352.502	16.98
352.714	27.94
352.926	16.35
353.138	15.92
353.35	0.86
353.561	2.52
353.773	-15.89
353.985	1.66
354.197	-9.24
354.409	-20
354.621	-31.56
354.832	-12.31
355.044	-24.31
355.256	-22.34
355.468	2.59
355.679	-9.22
355.891	-12.29
356.103	-28.98
356.314	-23.45
356.526	-29.71
356.738	-7.21
356.949	-24.06
357.161	8.72
357.373	15.32
357.584	7.69
357.796	13.83
358.008	15.69
358.219	25.16
358.431	8.24
358.642	23
358.854	13.82
359.065	-2.84
359.277	-49.76
359.488	-35.01
359.7	-74.84
359.911	-86.67
360.123	-57.25
360.334	-53.61
360.546	-73.72
360.757	-63.93
360.969	-29.61
361.18	-22.93
361.391	4.45
361.603	-4.48
361.814	-4.39
362.025	-13.03
362.237	-18.57
362.448	-18.8
362.659	12.09
362.871	13.46
363.082	3.43
363.293	8.63
363.504	-4.19
363.716	-41.59
363.927	-43.1
364.138	-60.28
364.349	-70.06
364.56	-62.4
364.772	-39.73
364.983	-22.21
365.194	-17.38
365.405	-6.17
365.616	11.83
365.827	-0.13
366.038	-24.1
366.25	-23.25
366.461	-66.35
366.672	-43.7
366.883	-10.62
367.094	6.36
367.305	-2.53
367.516	10.2
367.727	-24.21
367.938	-45.57
368.149	-49.79
368.36	-26.51
368.571	-16.75
368.781	-21.17
368.992	-37.11
369.203	-54.57
369.414	-80.77
369.625	-90.18
369.836	-64.3
370.047	-79.66
370.258	-51.01
370.468	-48.67
370.679	-62.44
370.89	-67.24
371.101	-35.07
371.312	-38.05
371.522	-27.84
371.733	-8.62
371.944	11.8
372.155	6.15
372.365	-10.21
372.576	-12.87
372.787	-18.22
372.997	-42.2
373.208	-36.82
373.419	-7.46
373.629	-36.07
373.84	-40.87
374.05	-56.29
374.261	-43.25
374.472	-60.16
374.682	4.05
374.893	4.65
375.103	54.8
375.314	42.34
375.524	41.93
375.735	19.77
375.945	34.18
376.156	-6.9
376.366	-1.48
376.577	-0.45
376.787	5.12
376.997	1.14
377.208	2.2
377.418	-11.57
377.629	4.15
377.839	-5.23
378.049	-2.56
378.26	10.06
378.47	22.37
378.68	7.23
378.89	6.25
379.101	0.3
379.311	-28.21
379.521	-61.77
379.732	-53.49
379.942	-54.87
380.152	-68.39
380.362	-31.55
380.572	-18.22
380.783	-11.14
380.993	-0.1
381.203	6.31
381.413	10.4
381.623	12.2
381.833	10.41
382.043	0.32
382.253	-7.61
382.463	-13.39
382.674	-20.88
382.884	-41.99
383.094	-37.52
383.304	-26.78
383.514	-17.43
383.724	-2.56
383.934	0.83
384.144	-3.06
384.353	-14.28
384.563	-19.98
384.773	-19.09
384.983	-24.87
385.193	-15.29
385.403	-6.83
385.613	-1.89
385.823	-13.98
386.033	-2.6
386.242	-5.56
386.452	-8.81
386.662	-19.85
386.872	-10.03
387.082	-17.87
387.291	-26.89
387.501	-29.31
387.711	-16.96
387.921	-24.45
388.13	-16.04
388.34	-0.51
388.55	-5.15
388.759	-8.81
388.969	-5.26
389.179	-13.31
389.388	-18.61
389.598	-11.81
389.807	-16.57
390.017	-17.52
390.227	-12.28
390.436	-12.93
390.646	-12.96
390.855	-4.34
391.065	-3.67
391.274	-6.51
391.484	-9.56
391.693	-6.68
391.903	-6.99
392.112	-0.81
392.322	1.81
392.531	5.62
392.74	6.34
392.95	-0.35
393.159	-3.51
393.369	-2.98
393.578	-3.27
393.787	-6.37
393.997	-3.98
394.206	-5.32
394.415	-5.3
394.625	-5.21
394.834	-6.18
395.043	-5
395.252	-2.68
395.462	-1.47
395.671	-0.79
395.88	0.94
396.089	1.77
396.298	0.62
396.508	0.26
396.717	0.23
396.926	0.78
397.135	0.14
397.344	0.3
397.553	1.03
397.762	2.91
397.971	2.02
398.181	2.6
398.39	1.61
398.599	0.73
398.808	-0.51
399.017	0.57
399.226	1.27
399.435	2.72
399.644	2.92
399.853	1.74
400.062	1.36
400.27	0.91
400.479	0.43
400.688	-0.25
400.897	0.09
401.106	0.14
401.315	-0.41
401.524	-0.45
401.733	0.35
401.941	0.98
402.15	1.17
402.359	1.36
402.568	1.91
402.777	1.9
402.985	1.52
403.194	1.22
403.403	1.39
403.612	0.69
403.82	0.45
404.029	0.77
404.238	0.77
404.446	0.93
404.655	1.06
404.864	0.98
405.072	0.72
405.281	0.97
405.489	0.66
405.698	0.4
405.906	0.48
406.115	0.58
406.324	0.34
406.532	0.39
406.741	0.89
406.949	0.81
407.158	0.64
407.366	0.78
407.574	0.79
407.783	0.75
407.991	0.65
408.2	0.89
408.408	0.86
408.617	0.8
408.825	0.43
409.033	0.62
409.242	0.76
409.45	0.79
409.658	0.7
409.867	0.99
410.075	0.81
410.283	0.51
410.491	0.34
410.7	0.3
410.908	0.26
411.116	0.68
411.324	0.74
411.533	0.83
411.741	1.17
411.949	1.13
412.157	0.74
412.365	0.73
412.573	0.67
412.781	0.59
412.99	0.43
413.198	0.76
413.406	0.77
413.614	0.91
413.822	0.72
414.03	0.78
414.238	0.54
414.446	0.63
414.654	0.34
414.862	0.58
415.07	0.8
415.278	1.07
415.486	0.81
415.694	1.02
415.902	0.71
416.109	0.47
416.317	0.4
416.525	0.35
416.733	0.31
416.941	0.57
417.149	0.57
417.357	0.56
417.564	0.93
417.772	1.27
417.98	1.19
418.188	1.19
418.395	1.22
418.603	1.28
418.811	0.79
419.019	0.69
419.226	0.96
419.434	0.99
419.642	0.61
419.849	0.83
420.057	0.9
420.265	0.74
420.472	0.57
420.68	0.7
420.887	0.63
421.095	0.61
421.302	0.61
421.51	0.76
421.717	0.86
421.925	0.91
422.132	0.83
422.34	0.63
422.547	0.61
422.755	0.51
422.962	0.41
423.17	0.45
423.377	0.57
423.585	0.5
423.792	0.41
423.999	0.37
424.207	0.31
424.414	0.55
424.621	0.49
424.829	0.53
425.036	0.55
425.243	0.7
425.451	0.44
425.658	0.31
425.865	0.62
426.072	0.7
426.28	0.84
426.487	0.82
426.694	1.06
426.901	0.71
427.108	0.86
427.315	0.68
427.523	0.97
427.73	0.9
427.937	0.93
428.144	0.67
428.351	0.69
428.558	0.75
428.765	0.58
428.972	0.57
429.179	0.66
429.386	0.92
429.593	0.59
429.8	0.5
430.007	0.59
430.214	0.63
430.421	0.39
430.628	0.3
430.835	0.38
431.042	0.56
431.249	0.54
431.456	0.49
431.662	0.66
431.869	0.78
432.076	0.7
432.283	0.84
432.49	0.86
432.697	0.85
432.903	0.62
433.11	0.6
433.317	0.55
433.524	0.84
433.73	0.74
433.937	1.14
434.144	0.96
434.35	0.95
434.557	0.59
434.764	0.67
434.97	0.42
435.177	0.57
435.384	0.47
435.59	0.63
435.797	0.81
436.003	0.84
436.21	0.92
436.416	1.02
436.623	0.95
436.829	0.92
437.036	1.07
437.242	0.93
437.449	0.8
437.655	0.8
437.862	0.76
438.068	0.54
438.275	0.71
438.481	1.02
438.687	0.97
438.894	0.95
439.1	1.1
439.307	1.2
439.513	1.02
439.719	1.06
439.926	1.06
440.132	0.93
440.338	0.74
440.544	0.85
440.751	0.83
440.957	0.83
441.163	0.81
441.369	0.86
441.575	0.59
441.782	0.56
441.988	0.46
442.194	0.57
442.4	0.51
442.606	0.85
442.812	0.99
443.018	1.14
443.224	1.18
443.431	1.26
443.637	1.06
443.843	0.91
444.049	0.85
444.255	0.72
444.461	0.78
444.667	0.63
444.873	0.8
445.079	0.82
445.284	0.91
445.49	0.63
445.696	0.57
445.902	0.43
446.108	0.33
446.314	0.23
446.52	0.38
446.726	0.69
446.931	0.74
447.137	0.83
447.343	0.97
447.549	0.94
447.755	0.83
447.96	0.88
448.166	0.83
448.372	0.77
448.578	0.83
448.783	0.82
448.989	0.85
449.195	1.04
449.4	1
449.606	0.94
449.812	0.84
450.017	0.86
450.223	0.7
450.428	0.7
450.634	0.82
450.84	1.02
451.045	0.94
451.251	0.86
451.456	1.05
451.662	1.07
451.867	0.98
452.073	0.91
452.278	1.09
452.483	1.14
452.689	1.06
452.894	1.14
453.1	1.25
453.305	1.08
453.51	0.95
453.716	0.85
453.921	0.8
454.127	0.66
454.332	0.68
454.537	0.59
454.742	0.65
454.948	0.64
455.153	0.73
455.358	0.84
455.563	1
455.769	1.15
455.974	1.13
456.179	1.02
456.384	0.96
456.589	0.97
456.795	0.74
457	0.76
457.205	1.04
457.41	0.95
457.615	0.8
457.82	0.86
458.025	0.89
458.23	0.65
458.435	0.77
458.64	0.68
458.845	0.87
459.05	0.85
459.255	0.84
459.46	0.84
459.665	0.96
459.87	0.96
460.075	0.94
460.28	1
460.485	0.99
460.69	1.03
460.895	0.84
461.099	0.79
461.304	0.94
461.509	0.93
461.714	0.83
461.919	1.02
462.123	0.98
462.328	0.96
462.533	0.94
462.738	1.08
462.942	0.89
463.147	1.03
463.352	1.05
463.556	1.03
463.761	0.98
463.966	1.01
464.17	0.95
464.375	0.77
464.58	0.75
464.784	0.65
464.989	0.62
465.193	0.56
465.398	0.61
465.602	0.76
465.807	0.79
466.011	0.9
466.216	0.97
466.42	1.03
466.625	1.03
466.829	1.17
467.034	1.18
467.238	1.38
467.443	1.37
467.647	1.19
467.851	1.12
468.056	1.14
468.26	0.96
468.464	0.94
468.669	1.14
468.873	1.26
469.077	1.23
469.282	1.32
469.486	1.45
469.69	1.37
469.894	1.24
470.099	1.31
470.303	1.35
470.507	1.24
470.711	1.14
470.915	1.14
471.119	1.03
471.324	0.91
471.528	0.89
471.732	0.94
471.936	0.93
472.14	1.04
472.344	1.13
472.548	1.17
472.752	1.39
472.956	1.61
473.16	1.55
473.364	1.45
473.568	1.46
473.772	1.35
473.976	1.16
474.18	1.12
474.384	1.2
474.588	1.09
474.792	1.06
474.995	1.15
475.199	1.23
475.403	1.27
475.607	1.37
475.811	1.31
476.015	1.3
476.218	1.35
476.422	1.24
476.626	1.28
476.83	1.39
477.033	1.28
477.237	1.15
477.441	1.29
477.644	1.21
477.848	1.16
478.052	1.17
478.255	1.23
478.459	1.18
478.663	1.31
478.866	1.39
479.07	1.48
479.273	1.63
479.477	1.68
479.681	1.63
479.884	1.53
480.088	1.46
480.291	1.35
480.495	1.29
480.698	1.33
480.901	1.4
481.105	1.53
481.308	1.43
481.512	1.4
481.715	1.41
481.919	1.45
482.122	1.42
482.325	1.46
482.529	1.52
482.732	1.53
482.935	1.44
483.138	1.38
483.342	1.47
483.545	1.5
483.748	1.48
483.952	1.55
484.155	1.73
484.358	1.69
484.561	1.69
484.764	1.61
484.967	1.71
485.171	1.68
485.374	1.63
485.577	1.72
485.78	1.8
485.983	1.78
486.186	1.69
486.389	1.74
486.592	1.7
486.795	1.73
486.998	1.62
487.201	1.69
487.404	1.71
487.607	1.74
487.81	1.74
488.013	1.82
488.216	1.75
488.419	1.76
488.622	1.72
488.825	1.62
489.028	1.57
489.231	1.59
489.433	1.5
489.636	1.44
489.839	1.47
490.042	1.41
490.245	1.41
490.447	1.48
490.65	1.51
490.853	1.54
491.056	1.64
491.258	1.7
491.461	1.7
491.664	1.76
491.866	1.7
492.069	1.75
492.272	1.65
492.474	1.73
492.677	1.82
492.879	1.85
493.082	1.9
493.285	2
493.487	1.92
493.69	1.72
493.892	1.62
494.095	1.52
494.297	1.49
494.5	1.57
494.702	1.63
494.905	1.76
495.107	1.74
495.309	1.75
495.512	1.77
495.714	1.86
495.917	1.86
496.119	1.86
496.321	1.92
496.524	1.9
496.726	1.86
496.928	1.84
497.13	1.81
497.333	1.73
497.535	1.77
497.737	1.75
497.939	1.79
498.142	1.87
498.344	1.87
498.546	1.76
498.748	1.78
498.95	1.91
499.152	1.91
499.355	1.98
499.557	2.1
499.759	2.19
499.961	2.06
500.163	2.05
500.365	2.05
500.567	2.08
500.769	1.95
500.971	1.97
501.173	1.94
501.375	1.98
501.577	1.84
501.779	1.9
501.981	1.95
502.183	1.97
502.385	1.9
502.587	1.89
502.788	1.93
502.99	1.9
503.192	2.02
503.394	2.01
503.596	2.05
503.798	2.08
503.999	2.12
504.201	2.07
504.403	2.15
504.605	2.19
504.806	2.15
505.008	2.14
505.21	2.22
505.411	2.24
505.613	2.23
505.815	2.25
506.016	2.29
506.218	2.35
506.42	2.35
506.621	2.39
506.823	2.42
507.024	2.41
507.226	2.31
507.427	2.24
507.629	2.28
507.83	2.29
508.032	2.28
508.233	2.35
508.435	2.39
508.636	2.45
508.838	2.41
509.039	2.42
509.24	2.41
509.442	2.41
509.643	2.28
509.845	2.34
510.046	2.4
510.247	2.41
510.448	2.45
510.65	2.54
510.851	2.64
511.052	2.62
511.254	2.59
511.455	2.65
511.656	2.69
511.857	2.71
512.058	2.76
512.26	2.81
512.461	2.71
512.662	2.74
512.863	2.59
513.064	2.55
513.265	2.56
513.466	2.6
513.667	2.56
513.868	2.61
514.069	2.71
514.27	2.79
514.471	2.77
514.672	2.75
514.873	2.8
515.074	2.78
515.275	2.6
515.476	2.64
515.677	2.7
515.878	2.77
516.079	2.77
516.28	2.9
516.481	3.01
516.682	3.02
516.882	2.93
517.083	2.93
517.284	2.88
517.485	2.81
517.686	2.8
517.886	2.81
518.087	2.88
518.288	2.93
518.488	2.89
518.689	2.92
518.89	2.9
519.091	2.85
519.291	2.84
519.492	2.91
519.692	2.92
519.893	3.04
520.094	3.01
520.294	3.02
520.495	3
520.695	2.99
520.896	2.94
521.096	2.98
521.297	3.02
521.497	3.07
521.698	3.04
521.898	3.03
522.099	3
522.299	3.05
522.499	3.01
522.7	3.07
522.9	3.03
523.101	3.15
523.301	3.16
523.501	3.17
523.702	3.17
523.902	3.26
524.102	3.29
524.302	3.24
524.503	3.31
524.703	3.36
524.903	3.38
525.103	3.31
525.304	3.43
525.504	3.46
525.704	3.48
525.904	3.46
526.104	3.45
526.304	3.4
526.504	3.38
526.705	3.41
526.905	3.47
527.105	3.49
527.305	3.47
527.505	3.45
527.705	3.38
527.905	3.36
528.105	3.37
528.305	3.34
528.505	3.4
528.705	3.5
528.905	3.48
529.105	3.53
529.304	3.63
529.504	3.68
529.704	3.57
529.904	3.62
530.104	3.61
530.304	3.68
530.503	3.61
530.703	3.61
530.903	3.57
531.103	3.65
531.303	3.55
531.502	3.56
531.702	3.73
531.902	3.82
532.101	3.77
532.301	3.83
532.501	3.85
532.7	3.8
532.9	3.8
533.1	3.84
533.299	3.89
533.499	3.94
533.698	3.89
533.898	3.88
534.097	3.89
534.297	3.91
534.496	3.91
534.696	3.95
534.895	4.07
535.095	4.2
535.294	4.18
535.494	4.11
535.693	4.18
535.892	4.17
536.092	4.04
536.291	4
536.491	4.15
536.69	4.13
536.889	4.01
537.088	4.01
537.288	4.11
537.487	4.16
537.686	4.19
537.886	4.3
538.085	4.36
538.284	4.49
538.483	4.44
538.682	4.47
538.882	4.51
539.081	4.6
539.28	4.47
539.479	4.51
539.678	4.48
539.877	4.59
540.076	4.54
540.275	4.58
540.474	4.62
540.673	4.7
540.872	4.59
541.071	4.67
541.27	4.67
541.469	4.74
541.668	4.75
541.867	4.83
542.066	4.86
542.265	4.96
542.464	4.87
542.663	4.93
542.862	5.09
543.06	5.14
543.259	5.21
543.458	5.33
543.657	5.42
543.856	5.4
544.054	5.39
544.253	5.32
544.452	5.3
544.651	5.35
544.849	5.32
545.048	5.38
545.247	5.42
545.445	5.53
545.644	5.53
545.843	5.52
546.041	5.55
546.24	5.67
546.438	5.76
546.637	5.74
546.836	5.89
547.034	6.01
547.233	6.03
547.431	5.97
547.63	6.04
547.828	6
548.027	5.99
548.225	5.98
548.423	5.98
548.622	6.12
548.82	6.15
549.019	6.25
549.217	6.39
549.415	6.47
549.614	6.5
549.812	6.57
550.01	6.51
550.209	6.51
550.407	6.57
550.605	6.59
550.803	6.71
551.002	6.83
551.2	6.91
551.398	7.04
551.596	7.15
551.794	7.2
551.993	7.3
552.191	7.34
552.389	7.4
552.587	7.44
552.785	7.49
552.983	7.47
553.181	7.63
553.379	7.75
553.577	7.78
553.775	7.87
553.973	8
554.171	8
554.369	7.95
554.567	8
554.765	8.05
554.963	8.18
555.161	8.21
555.359	8.34
555.557	8.52
555.755	8.62
555.952	8.69
556.15	8.79
556.348	8.87
556.546	8.96
556.744	8.99
556.941	8.99
557.139	9.11
557.337	9.17
557.535	9.15
557.732	9.31
557.93	9.56
558.128	9.56
558.325	9.71
558.523	9.78
558.721	9.87
558.918	9.85
559.116	10.02
559.313	10.04
559.511	10.24
559.708	10.27
559.906	10.36
560.104	10.43
560.301	10.52
560.498	10.55
560.696	10.6
560.893	10.69
561.091	10.78
561.288	10.94
561.486	11.04
561.683	11.17
561.88	11.23
562.078	11.36
562.275	11.33
562.473	11.41
562.67	11.6
562.867	11.78
563.064	11.88
563.262	11.97
563.459	12.06
563.656	12.13
563.853	12.16
564.051	12.2
564.248	12.39
564.445	12.52
564.642	12.59
564.839	12.73
565.036	12.95
565.234	13.1
565.431	13.14
565.628	13.22
565.825	13.28
566.022	13.28
566.219	13.29
566.416	13.39
566.613	13.48
566.81	13.61
567.007	13.62
567.204	13.61
567.401	13.68
567.598	13.71
567.795	13.67
567.991	13.78
568.188	13.97
568.385	14.07
568.582	14.2
568.779	14.34
568.976	14.42
569.172	14.55
569.369	14.51
569.566	14.56
569.763	14.59
569.96	14.63
570.156	14.55
570.353	14.58
570.55	14.61
570.746	14.71
570.943	14.72
571.14	14.82
571.336	14.96
571.533	15.02
571.729	15.02
571.926	15.11
572.123	15.13
572.319	15.18
572.516	15.15
572.712	15.19
572.909	15.2
573.105	15.26
573.302	15.28
573.498	15.4
573.695	15.39
573.891	15.43
574.087	15.48
574.284	15.47
574.48	15.46
574.677	15.49
574.873	15.58
575.069	15.61
575.266	15.71
575.462	15.67
575.658	15.8
575.854	15.85
576.051	15.86
576.247	15.87
576.443	15.92
576.639	15.88
576.835	15.84
577.032	15.79
577.228	15.82
577.424	15.85
577.62	15.75
577.816	15.79
578.012	15.82
578.208	15.74
578.404	15.72
578.6	15.81
578.796	15.75
578.993	15.8
579.189	15.86
579.384	15.77
579.58	15.71
579.776	15.7
579.972	15.64
580.168	15.57
580.364	15.7
580.56	15.7
580.756	15.72
580.952	15.66
581.148	15.64
581.343	15.6
581.539	15.64
581.735	15.68
581.931	15.73
582.127	15.83
582.322	15.77
582.518	15.8
582.714	15.77
582.909	15.71
583.105	15.67
583.301	15.66
583.496	15.65
583.692	15.58
583.888	15.58
584.083	15.62
584.279	15.69
584.474	15.58
584.67	15.62
584.866	15.68
585.061	15.57
585.257	15.57
585.452	15.65
585.648	15.55
585.843	15.49
586.039	15.55
586.234	15.53
586.429	15.43
586.625	15.57
586.82	15.57
587.015	15.49
587.211	15.34
587.406	15.41
587.601	15.38
587.797	15.42
587.992	15.43
588.187	15.65
588.383	15.54
588.578	15.52
588.773	15.53
588.968	15.56
589.163	15.51
589.359	15.55
589.554	15.58
589.749	15.63
589.944	15.71
590.139	15.67
590.334	15.76
590.529	15.75
590.724	15.76
590.919	15.75
591.114	15.8
591.309	15.89
591.504	15.95
591.699	15.89
591.894	16.05
592.089	16.09
592.284	16.05
592.479	16.14
592.674	16.19
592.869	16.18
593.064	16.26
593.259	16.36
593.454	16.47
593.648	16.59
593.843	16.56
594.038	16.59
594.233	16.6
594.428	16.56
594.622	16.56
594.817	16.75
595.012	16.78
595.206	16.85
595.401	16.86
595.596	17
595.79	17.05
595.985	17.21
596.18	17.29
596.374	17.49
596.569	17.46
596.763	17.42
596.958	17.45
597.153	17.54
597.347	17.45
597.542	17.64
597.736	17.69
597.931	17.77
598.125	17.82
598.319	18.02
598.514	17.99
598.708	18.12
598.903	18.17
599.097	18.18
599.291	18.23
599.486	18.28
599.68	18.28
599.874	18.31
600.069	18.36
600.263	18.33
600.457	18.44
600.651	18.49
600.846	18.53
601.04	18.6
601.234	18.66
601.428	18.75
601.622	18.88
601.817	18.93
602.011	19
602.205	19.12
602.399	19.04
602.593	18.99
602.787	18.96
602.981	18.93
603.175	18.92
603.369	18.91
603.563	18.97
603.757	19.03
603.951	19.02
604.145	19.02
604.339	19.14
604.533	19.07
604.727	19.02
604.921	19.01
605.115	18.98
605.309	18.97
605.502	19.01
605.696	18.96
605.89	18.99
606.084	18.91
606.278	18.79
606.471	18.69
606.665	18.63
606.859	18.47
607.053	18.5
607.246	18.55
607.44	18.55
607.634	18.49
607.827	18.55
608.021	18.38
608.214	18.25
608.408	18.13
608.602	18.09
608.795	17.99
608.989	17.98
609.182	17.93
609.376	17.98
609.569	17.94
609.763	17.8
609.956	17.69
610.15	17.57
610.343	17.42
610.537	17.39
610.73	17.45
610.923	17.43
611.117	17.49
611.31	17.43
611.504	17.38
611.697	17.19
611.89	17.12
612.083	17.04
612.277	17.01
612.47	16.88
612.663	16.96
612.856	16.9
613.05	16.7
613.243	16.6
613.436	16.51
613.629	16.35
613.822	16.32
614.015	16.27
614.209	16.21
614.402	16.21
614.595	16.19
614.788	16.08
614.981	16.01
615.174	15.91
615.367	15.76
615.56	15.65
615.753	15.63
615.946	15.56
616.139	15.5
616.332	15.66
616.525	15.61
616.718	15.6
616.911	15.59
617.103	15.57
617.296	15.47
617.489	15.38
617.682	15.31
617.875	15.29
618.067	15.24
618.26	15.07
618.453	15.12
618.646	15.09
618.838	15.06
619.031	15.2
619.224	15.22
619.417	15.2
619.609	15.2
619.802	15.2
619.994	15.06
620.187	15.05
620.38	14.92
620.572	14.73
620.765	14.76
620.957	14.62
621.15	14.56
621.342	14.57
621.535	14.65
621.727	14.59
621.92	14.57
622.112	14.5
622.305	14.54
622.497	14.51
622.69	14.43
622.882	14.48
623.074	14.58
623.267	14.56
623.459	14.48
623.651	14.44
623.844	14.41
624.036	14.36
624.228	14.22
624.42	14.22
624.613	14.36
624.805	14.33
624.997	14.27
625.189	14.32
625.381	14.34
625.574	14.23
625.766	14.16
625.958	14.19
626.15	14.23
626.342	14.25
626.534	14.12
626.726	14.13
626.918	14.05
627.11	14.01
627.302	13.92
627.494	13.92
627.686	13.9
627.878	13.84
628.07	13.81
628.262	13.78
628.454	13.86
628.646	13.89
628.838	14
629.029	13.95
629.221	14
629.413	13.86
629.605	13.71
629.797	13.61
629.989	13.66
630.18	13.66
630.372	13.67
630.564	13.71
630.755	13.68
630.947	13.6
631.139	13.35
631.33	13.26
631.522	13.32
631.714	13.34
631.905	13.32
632.097	13.36
632.289	13.38
632.48	13.34
632.672	13.17
632.863	13.01
633.055	12.99
633.246	13.01
633.438	12.88
633.629	12.96
633.821	13.01
634.012	12.99
634.203	12.89
634.395	12.92
634.586	12.94
634.777	12.94
634.969	12.97
635.16	12.99
635.351	12.95
635.543	12.95
635.734	12.95
635.925	12.94
636.117	13.05
636.308	13.07
636.499	13
636.69	12.93
636.881	12.89
637.073	12.9
637.264	12.82
637.455	12.84
637.646	12.91
637.837	12.92
638.028	12.83
638.219	12.91
638.41	12.81
638.601	12.71
638.792	12.67
638.983	12.57
639.174	12.46
639.365	12.56
639.556	12.64
639.747	12.64
639.938	12.78
640.129	12.77
640.32	12.63
640.511	12.57
640.701	12.7
640.892	12.55
641.083	12.66
641.274	12.78
641.465	12.77
641.655	12.55
641.846	12.59
642.037	12.42
642.228	12.31
642.418	12.33
642.609	12.34
642.8	12.34
642.99	12.32
643.181	12.48
643.372	12.45
643.562	12.49
643.753	12.42
643.943	12.4
644.134	12.14
644.324	12.08
644.515	12.08
644.705	12.13
644.896	12.19
645.086	12.3
645.277	12.22
645.467	12.18
645.658	12.15
645.848	12.12
646.038	12.08
646.229	12.11
646.419	12.08
646.61	12.02
646.8	11.98
646.99	11.93
647.18	11.98
647.371	11.92
647.561	11.87
647.751	11.85
647.941	11.76
648.132	11.67
648.322	11.71
648.512	11.86
648.702	11.91
648.892	12
649.082	11.96
649.272	11.74
649.462	11.62
649.653	11.46
649.843	11.38
650.033	11.44
650.223	11.55
650.413	11.51
650.603	11.59
650.793	11.54
650.983	11.44
651.172	11.41
651.362	11.31
651.552	11.18
651.742	11.12
651.932	11.15
652.122	11.15
652.312	11.22
652.502	11.2
652.691	11.2
652.881	11.09
653.071	10.98
653.261	10.77
653.45	10.67
653.64	10.66
653.83	10.55
654.019	10.52
654.209	10.52
654.399	10.51
654.588	10.34
654.778	10.2
654.968	10.03
655.157	10
655.347	9.86
655.536	9.76
655.726	9.64
655.915	9.48
656.105	9.31
656.294	9.17
656.484	9.01
656.673	8.96
656.863	8.95
657.052	8.77
657.241	8.59
657.431	8.37
657.62	8.16
657.809	7.8
657.999	7.65
658.188	7.55
658.377	7.43
658.567	7.35
658.756	7.3
658.945	7.13
659.134	6.99
659.324	6.98
659.513	6.89
659.702	6.78
659.891	6.69
660.08	6.58
660.269	6.4
660.458	6.19
660.648	6.06
660.837	5.88
661.026	5.8
661.215	5.61
661.404	5.47
661.593	5.45
661.782	5.28
661.971	5.18
662.16	5.14
662.349	5.12
662.538	4.94
662.726	4.94
662.915	4.73
663.104	4.6
663.293	4.51
663.482	4.47
663.671	4.36
663.86	4.22
664.048	4.19
664.237	4.13
664.426	3.91
664.615	3.86
664.803	3.87
664.992	3.75
665.181	3.6
665.369	3.44
665.558	3.34
665.747	3.23
665.935	3.2
666.124	3.24
666.312	3.28
666.501	3.2
666.69	3.08
666.878	3
667.067	2.83
667.255	2.93
667.444	3.29
667.632	3.38
667.82	3.5
668.009	3.5
668.197	3.43
668.386	3.13
668.574	3.18
668.762	2.96
668.951	2.9
669.139	2.82
669.327	2.7
669.516	2.73
669.704	2.68
669.892	2.84
670.08	2.82
670.269	2.76
670.457	2.56
670.645	2.5
670.833	2.41
671.021	2.34
671.21	2.51
671.398	2.8
671.586	2.84
671.774	2.69
671.962	2.7
672.15	2.55
672.338	2.28
672.526	2.38
672.714	2.37
672.902	2.44
673.09	2.63
673.278	2.91
673.466	2.93
673.654	3.14
673.842	3.08
674.03	2.99
674.218	2.72
674.405	2.67
674.593	2.54
674.781	2.69
674.969	2.71
675.157	2.95
675.344	3.07
675.532	3.19
675.72	3.18
675.908	3.21
676.095	3.04
676.283	3.06
676.471	3.22
676.658	3.25
676.846	3.23
677.033	3.46
677.221	3.45
677.409	3.17
677.596	3.21
677.784	3.29
677.971	3.19
678.159	3.22
678.346	3.43
678.534	3.46
678.721	3.64
678.909	3.68
679.096	3.78
679.283	3.88
679.471	3.96
679.658	3.93
679.846	4.12
680.033	4.28
680.22	4.3
680.408	4.33
680.595	4.26
680.782	4.07
680.969	4.01
681.157	4.04
681.344	4.21
681.531	4.42
681.718	4.53
681.905	4.62
682.093	4.75
682.28	4.89
682.467	5.04
682.654	5.25
682.841	5.38
683.028	5.56
683.215	5.61
683.402	5.54
683.589	5.68
683.776	5.97
683.963	5.98
684.15	6.2
684.337	6.51
684.524	6.67
684.711	6.78
684.898	6.83
685.085	7.02
685.271	7.27
685.458	7.5
685.645	7.71
685.832	8.18
686.019	8.38
686.205	8.69
686.392	8.95
686.579	9.13
686.766	9.43
686.952	9.73
687.139	10.05
687.326	10.24
687.512	10.57
687.699	10.93
687.886	11.21
688.072	11.32
688.259	11.81
688.445	12.27
688.632	12.52
688.818	13.21
689.005	13.69
689.191	14.13
689.378	14.76
689.564	15.41
689.751	15.7
689.937	16.24
690.124	16.91
690.31	17.12
690.496	17.48
690.683	18.11
690.869	18.73
691.055	19.13
691.242	20.08
691.428	20.8
691.614	21.27
691.8	21.93
691.987	22.6
692.173	23.11
692.359	23.58
692.545	24.27
692.731	24.73
692.918	25.47
693.104	26.03
693.29	26.9
693.476	27.71
693.662	28.41
693.848	28.98
694.034	29.67
694.22	30.06
694.406	30.74
694.592	31.54
694.778	32.23
694.964	32.81
695.15	33.65
695.336	34.16
695.522	35.1
695.708	35.73
695.894	36.51
696.08	37.3
696.265	38.16
696.451	38.58
696.637	39.52
696.823	39.96
697.009	40.48
697.194	40.87
697.38	41.38
697.566	41.77
697.751	42.49
697.937	43.26
698.123	43.93
698.308	44.73
698.494	45.31
698.68	45.99
698.865	46.36
699.051	47.07
699.236	47.5
699.422	48.19
699.607	48.53
699.793	49.02
699.978	49.35
700.164	49.83
700.349	50.55
700.535	51.17
700.72	51.62
700.906	52.37
701.091	52.82
701.276	52.98
701.462	53.61
701.647	54.33
701.832	54.55
702.018	54.89
702.203	55.26
702.388	55.31
702.573	55.46
702.759	56.1
702.944	56.49
703.129	56.96
703.314	57.54
703.499	57.98
703.684	58.22
703.87	59.48
704.055	60.16
704.24	60.64
704.425	61.39
704.61	61.71
704.795	61.44
704.98	61.53
705.165	61.5
705.35	61.42
705.535	61.96
705.72	62.09
705.905	62.4
706.09	62.99
706.275	63.35
706.459	63.02
706.644	63.49
706.829	63.95
707.014	63.99
707.199	64.41
707.384	64.97
707.568	64.95
707.753	65.38
707.938	66.13
708.123	66.04
708.307	66.02
708.492	66.61
708.677	66.16
708.861	65.89
709.046	65.84
709.231	66.64
709.415	66.85
709.6	67.11
709.784	67.19
709.969	67.64
710.153	67.36
710.338	67.42
710.522	67.69
710.707	68.13
710.891	67.97
711.076	68.18
711.26	68.02
711.445	68.21
711.629	68.33
711.813	69.13
711.998	69.46
712.182	69.37
712.366	70.02
712.551	70.43
712.735	70.32
712.919	70.24
713.103	70.96
713.288	70.71
713.472	70.43
713.656	71.66
713.84	71.78
714.024	71.79
714.208	71.93
714.393	72.37
714.577	71.96
714.761	72.25
714.945	72.18
715.129	72.11
715.313	72.42
715.497	71.98
715.681	72.68
715.865	73.09
716.049	73.31
716.233	72.79
716.417	73.18
716.601	72.71
716.785	72.57
716.968	72.86
717.152	73.32
717.336	73.02
717.52	72.84
717.704	72.92
717.888	72.97
718.071	73.07
718.255	73.42
718.439	73.49
718.622	73.65
718.806	73.92
718.99	73.57
719.174	73.41
719.357	73.62
719.541	73.6
719.724	73.06
719.908	73.89
720.092	74.36
720.275	74.52
720.459	74.55
720.642	74.54
720.826	73.95
721.009	73.5
721.193	72.98
721.376	73.35
721.559	73.55
721.743	73.64
721.926	74.33
722.11	75.01
722.293	74.15
722.476	74.23
722.66	74.37
722.843	73.95
723.026	73.21
723.21	74.07
723.393	74.75
723.576	74.7
723.759	74.32
723.942	74.66
724.126	74.83
724.309	74.51
724.492	74.71
724.675	75.1
724.858	75.43
725.041	75.65
725.224	75.84
725.407	75.92
725.59	76.42
725.774	76.54
725.957	75.67
726.14	75.07
726.322	75.33
726.505	74.79
726.688	75.27
726.871	75.71
727.054	76.27
727.237	75.91
727.42	76.3
727.603	75.91
727.786	75.85
727.968	75.78
728.151	75.85
728.334	75.54
728.517	75.63
728.699	75.9
728.882	76.14
729.065	76.58
729.248	77.3
729.43	77.66
729.613	78.75
729.796	79.07
729.978	78.82
730.161	78.14
730.343	77.65
730.526	77.27
730.708	76.43
730.891	76.37
731.073	76.61
731.256	76.46
731.438	76.16
731.621	77.15
731.803	77.36
731.986	77.92
732.168	77.99
732.35	77.74
732.533	76.9
732.715	76.73
732.898	76.87
733.08	76.48
733.262	77.21
733.444	77.57
733.627	77.75
733.809	77.85
733.991	79.41
734.173	78.56
734.355	78.3
734.538	78.26
734.72	77.6
734.902	77.27
735.084	77.78
735.266	78.54
735.448	79.18
735.63	78.95
735.812	77.97
735.994	78.7
736.176	78.08
736.358	77.5
736.54	78.74
736.722	79.17
736.904	78.7
737.086	78.77
737.268	79.71
737.45	79.47
737.632	79.56
737.814	77.81
737.995	78.15
738.177	77.53
738.359	76.67
738.541	76.87
738.723	77.96
738.904	77.82
739.086	77.97
739.268	78.56
739.449	78.93
739.631	78.68
739.813	78.84
739.994	78.78
740.176	78.37
740.358	78.18
740.539	79.15
740.721	79.07
740.902	80.1
741.084	80.52
741.265	80.59
741.447	80.35
741.628	81.54
741.81	80.3
741.991	80.74
742.172	81.28
742.354	81.64
742.535	79.73
742.717	80.69
742.898	80.47
743.079	80.51
743.261	80.2
743.442	81.06
743.623	81.07
743.804	81.72
743.986	82.04
744.167	80.77
744.348	80.16
744.529	80.36
744.71	78.61
744.891	77.78
745.073	78.47
745.254	78.55
745.435	76.55
745.616	76.32
745.797	75.92
745.978	75.94
746.159	75.84
746.34	76.14
746.521	77.55
746.702	76.54
746.883	76.27
747.064	77.05
747.245	77.85
747.426	77.85
747.606	79.49
747.787	80.59
747.968	80.78
748.149	80.91
748.33	80.61
748.51	79.34
748.691	78.28
748.872	78.59
749.053	78.2
749.233	76.54
749.414	76.64
749.595	76.16
749.775	74.64
749.956	74.4
750.137	75.34
750.317	77.81
750.498	80.03
750.678	79.91
750.859	80.3
751.04	81.42
751.22	78.69
751.4	77.26
751.581	76.69
751.761	76.46
751.942	77.19
752.122	77.08
752.303	76.98
752.483	77.49
752.663	77.94
752.844	75.03
753.024	76.9
753.204	76.61
753.385	75.7
753.565	75.36
753.745	76.51
753.925	75.6
754.106	74.31
754.286	75.67
754.466	75.78
754.646	76.65
754.826	76.16
755.006	76.94
755.187	78.35
755.367	79.8
755.547	79.86
755.727	80.6
755.907	81.15
756.087	79.46
756.267	76.12
756.447	75.71
756.627	73.23
756.807	74.02
756.987	74.21
757.167	75.58
757.346	74.89
757.526	75.39
757.706	76.59
757.886	76.82
758.066	78.13
758.246	80.5
758.425	81.58
758.605	78.29
758.785	79.12
758.965	78.64
759.144	76.04
759.324	77.02
759.504	77.89
759.683	76.97
759.863	74.65
760.043	74.12
760.222	72.56
760.402	73.39
760.581	73.93
760.761	75.97
760.94	75.29
761.12	78.38
761.299	78.02
761.479	77.16
761.658	74.85
761.838	74.84
762.017	73.41
762.197	72.83
762.376	73.9
762.555	75.86
762.735	77.61
762.914	75.84
763.093	76.48
763.273	75.18
763.452	74.62
763.631	74.72
763.81	74.13
763.99	73.64
764.169	73.85
764.348	72.73
764.527	71.17
764.706	73
764.885	74.66
765.064	73.54
765.243	74.91
765.423	76.22
765.602	75.44
765.781	72.05
765.96	70.7
766.139	69.36
766.318	70.55
766.497	70.54
766.676	73.19
766.854	76.5
767.033	77.35
767.212	74.62
767.391	74.45
767.57	74.6
767.749	74.3
767.928	75.81
768.106	75.75
768.285	74.72
768.464	73.98
768.643	72.62
768.821	71.01
769	73.98
769.179	74.56
769.357	72.42
769.536	71.79
769.715	72.59
769.893	72.17
770.072	71.89
770.25	73.06
770.429	73.86
770.607	72.47
770.786	72.04
770.964	73.16
771.143	73.98
771.321	76.36
771.5	77.16
771.678	75.59
771.857	73.01
772.035	72.56
772.213	70.4
772.392	70.1
772.57	71.15
772.748	74.01
772.927	72.49
773.105	71.17
773.283	71.71
773.461	71.55
773.64	71.3
773.818	73.35
773.996	75.64
774.174	74.28
774.352	71.73
774.531	68.12
774.709	70.39
774.887	68.58
775.065	67.73
775.243	70.14
775.421	71.81
775.599	70.42
775.777	68.56
775.955	67.62
776.133	66.69
776.311	66.98
776.489	64.26
776.667	65.29
776.844	68.17
777.022	66.29
777.2	64.81
777.378	65.09
777.556	65.48
777.734	68.04
777.911	71.91
778.089	73.92
778.267	75.55
778.445	74.68
778.622	70.91
778.8	69.07
778.978	71.47
779.155	70.16
779.333	71.15
779.511	69.78
779.688	72.15
779.866	65.65
780.043	63.75
780.221	66.12
780.398	66.43
780.576	66.88
780.753	71.25
780.931	70.18
781.108	66.25
781.286	68.74
781.463	63.89
781.64	58.89
781.818	63.64
781.995	65.01
782.172	63.46
782.35	65.91
782.527	73.6
782.704	69.97
782.882	70.67
783.059	70.62
783.236	71.28
783.413	69.97
783.59	71.67
783.768	68.8
783.945	69.84
784.122	71.52
784.299	71.34
784.476	69
784.653	70.38
784.83	67.87
785.007	62.46
785.184	60.79
785.361	61.78
785.538	66.57
785.715	71.68
785.892	73.42
786.069	76.44
786.246	76.72
786.423	75.83
786.6	70.26
786.776	73.48
786.953	70.86
787.13	77.4
787.307	72.55
787.484	75.83
787.66	73.12
787.837	71.56
788.014	64.01
788.191	65.88
788.367	60.46
788.544	64.88
788.721	66.85
788.897	68.21
789.074	68.72
789.25	68.87
789.427	64.76
789.603	62.99
789.78	65.63
789.956	61.16
790.133	61.92
790.309	60.78
790.486	67.93
790.662	63.76
790.839	68.28
791.015	70.34
791.192	69.94
791.368	66.7
791.544	65.17
791.721	63.94
791.897	64.14
792.073	62.84
792.249	56.13
792.426	61.02
792.602	65.25
792.778	62.8
792.954	64.04
793.13	64.7
793.307	59.9
793.483	50.64
793.659	52.58
793.835	53.93
794.011	49.62
794.187	49.01
794.363	50.62
794.539	52.44
794.715	48.58
794.891	52.12
795.067	51.62
795.243	58.94
795.419	58.31
795.595	58.3
795.771	62.06
795.947	64.35
796.122	59.16
796.298	61.61
796.474	63.51
796.65	63.56
796.826	60.32
797.001	62.36
797.177	59.19
797.353	67.9
797.529	68.64
797.704	67.91
797.88	62.67
798.056	57.01
798.231	49
798.407	54.77
798.582	58.53
798.758	66.59
798.934	76.45
799.109	73.73
799.285	64.05
799.46	70.6
799.636	67.84
799.811	62.19
799.986	68.22
800.162	69.54
800.337	64.06
800.513	57.15
800.688	59.57
800.863	68.83
801.039	61.86
801.214	63.09
801.389	72.1
801.565	71.81
801.74	51.81
801.915	62.48
802.09	61.05
802.265	65.45
802.441	59.94
802.616	64.64
802.791	63.11
802.966	65.33
803.141	60.59
803.316	57.5
803.491	60.8
803.666	63.26
803.841	53.78
804.016	52.55
804.191	62.46
804.366	61.18
804.541	56.5
804.716	59.77
804.891	54.7
805.066	56.02
805.241	55.42
805.416	53.1
805.591	50.48
805.765	56.03
805.94	55.85
806.115	54.29
806.29	51.61
806.464	55.67
806.639	50.26
806.814	42.69
806.989	34.21
807.163	52.39
807.338	52.7
807.512	58.14
807.687	50.67
807.862	68.51
808.036	56.85
808.211	57.36
808.385	57.44
808.56	67.76
808.734	58.37
808.909	62.4
809.083	58.2
809.258	69.73
809.432	70.43
809.606	58.25
809.781	55.48
809.955	64.2
810.13	60.14
810.304	52.95
810.478	56.32
810.652	57.9
810.827	57.19
811.001	48.89
811.175	49.37
811.349	51.18
811.524	45.42
811.698	25.99
811.872	28.86
812.046	36.08
812.22	44.16
812.394	50.17
812.568	62.64
812.742	65.12
812.916	62.45
813.09	49.98
813.264	41.87
813.438	46.3
813.612	40.68
813.786	34.24
813.96	42.3
814.134	44.28
814.308	51.15
814.482	61.84
814.656	57.15
814.83	61.22
815.003	65.88
815.177	55.16
815.351	42.71
815.525	45.77
815.698	34.77
815.872	22.22
816.046	17.15
816.219	28.88
816.393	43.85
816.567	53.59
816.74	59.01
816.914	66.85
817.088	76.09
817.261	57.95
817.435	47.53
817.608	52.96
817.782	39.98
817.955	22.8
818.129	28.38
818.302	44.58
818.475	53.87
818.649	57.07
818.822	52.46
818.996	71.9
819.169	65.03
819.342	46.7
819.516	41.86
819.689	56.04
819.862	49.11
820.035	44.4
820.209	47.65
820.382	57.5
820.555	65.33
820.728	55.12
820.901	58.69
821.075	64.45
821.248	69.49
821.421	49.34
821.594	58.13
821.767	70.18
821.94	76.1
822.113	47.42
822.286	61.45
822.459	59.39
822.632	48.92
822.805	33.64
822.978	33.83
823.151	22.97
823.324	20.18
823.496	-8.92
823.669	-13.09
823.842	2.23
824.015	-10.81
824.188	-25.8
824.361	2.79
824.533	2.14
824.706	18.15
824.879	18.81
825.051	41.72
825.224	31.78
825.397	18.94
825.569	-9.97
825.742	22.72
825.915	18.8
826.087	30.56
826.26	39.97
826.432	53.59
826.605	41.8
826.777	33.57
826.95	32.82
827.122	31.55
827.295	28.68
827.467	32
827.64	19.31
827.812	7
827.984	10.92
828.157	2.43
828.329	-28.96
828.501	-18.24
828.674	0.02
828.846	-13.69
829.018	27.19
829.19	12.59
829.363	38.33
829.535	41.02
829.707	42.4
829.879	-7
830.051	-4.28
830.223	-25.67
830.395	-54.66
830.568	-60.15
830.74	-42.14
830.912	7.23
831.084	-8.54
831.256	5.22
831.428	1.15
831.6	-25.41
831.772	-69.54
831.943	-71.78
832.115	-40.44
832.287	-2.41
832.459	25.73
832.631	32.69
832.803	52.1
832.975	66.93
833.146	59.85
833.318	70.8
833.49	80.57
833.662	64.71
833.833	16.78
834.005	11.97
834.177	11.39
834.348	13.01
834.52	0.91
834.692	5.38
834.863	-7.12
835.035	-25.32
835.206	-114.29
835.378	-80.05
835.549	-72.02
835.721	-67.01
835.892	-63.54
836.064	-30.5
836.235	-35.89
836.407	14.44
836.578	-0.29
836.749	-1.82
836.921	-36.03
837.092	-77.2
837.264	-95.34
837.435	-100.27
837.606	-43.25
837.777	6.16
837.949	33.62
838.12	37.37
838.291	47.58
838.462	31.45
838.633	-12.32
838.805	-21.1
838.976	-30.17
839.147	-90.45
839.318	-87.77
839.489	-122.37
839.66	-90.64
839.831	-37.37
840.002	-36.89
840.173	-15.2
840.344	54.41
840.515	60.86
840.686	-60.24
840.857	0.63
841.028	-41.78
841.199	-43.85
841.369	-63.62
841.54	-45.14
841.711	-39.65
841.882	-11.7
842.053	-29.47
842.223	-22.4
842.394	-9.71
842.565	19.94
842.736	14.62
842.906	32.16
843.077	46.99
843.248	107.16
843.418	98.45
843.589	82.96
843.759	130.34
843.93	98.12
844.101	9.1
844.271	9.63
844.442	27.62
844.612	28.88
844.783	1
844.953	-32.91
845.123	-78.92
845.294	-63.32
845.464	-246.19
845.635	-91.25
845.805	51.43
845.975	65.95
846.146	-5.67
846.316	-7.97
846.486	12.08
846.656	29.11
846.827	10.07
846.997	16.5
847.167	63.32
847.337	22.99
847.507	-38.41
847.677	4.48
847.848	34.32
848.018	26.93
848.188	42.34
848.358	21.64
848.528	-5.01
848.698	-44.84
848.868	-156.38
849.038	-345.33
849.208	-101.17
849.378	-38.86
849.548	-21.05
849.718	-12.68
849.887	24.6
850.057	-4.53
850.227	-39.64
850.397	-60.25
850.567	-160.27
850.737	-464.24
850.906	-1544.69
851.076	-1155.27
851.246	-585.73
851.415	-63.91
851.585	-31.27
851.755	-69.2
851.924	-16.85
852.094	-28.45
852.264	-122.07
852.433	-948.8
852.603	-123.21
852.772	-37.8
852.942	-48.68
853.111	-32.34
853.281	23.57
853.45	71.39
853.62	-9.52
853.789	-34.43
853.959	-25.14
854.128	-43.63
854.297	-105.1
854.467	-100.49
854.636	-58.85
854.805	-3.19
854.975	-47.61
855.144	-41.85
855.313	117.66
855.482	-168.43
855.652	-126.67
855.821	-58.36
855.99	18.64
856.159	17.31
856.328	17.55
856.497	9.9
856.667	33.59
856.836	55.88
857.005	40.35
857.174	32.71
857.343	26.39
857.512	50.9
857.681	-38.09
857.85	-100.66
858.019	-31.64
858.188	-37.8
858.356	-77.51
858.525	-118.13
858.694	-88.03
858.863	-246.09
859.032	-163.45
859.201	-206.47
859.369	-120.85
859.538	-56.12
859.707	-3.65
859.876	-50.6
860.044	5.06
860.213	33.46
860.382	11.14
860.55	16.8
860.719	51.89
860.888	45.11
861.056	9.79
861.225	1.95
861.393	59.05
861.562	61.36
861.73	18.21
861.899	-79.97
862.067	-1230.17
862.236	-147.81
862.404	-275.72
862.572	-142.75
862.741	-23.74
862.909	-14.05
863.078	-52.35
863.246	-44.91
863.414	-61.77
863.582	-32.82
863.751	-49.38
863.919	-46.3
864.087	18.56
864.255	47.36
864.424	-181.57
864.592	11.21
864.76	-73.31
864.928	-254.2
865.096	-236.86
865.264	-177.83
865.432	-1942.61
865.6	-70.38
865.768	-135.88
865.936	-121.52
866.104	-158.3
866.272	-247.42
866.44	-546.75
866.608	785.73
866.776	404.56
866.944	3829.65
867.112	-655.83
867.28	-279.61
867.448	-101.57
867.615	-25.66
867.783	20.27
867.951	4.34
868.119	64.73
868.286	31.11
868.454	-109.84
868.622	-163.9
868.789	-139.76
868.957	-3362.5
869.125	-2620.39
869.292	-129.67
869.46	-183.67
869.627	-12.1
869.795	-19.24
869.963	11.64
870.13	25.49
870.298	61.2
870.465	-26.56
870.632	-55.59
870.8	-24.33
870.967	-68.59
871.135	-162.02
871.302	-137.82
871.469	-118.09
871.637	-132.3
871.804	-106.89
871.971	-139.28
872.139	-492.44
872.306	-57.69
872.473	-99.71
872.64	-347.53
872.807	-122.65
872.975	68.18
873.142	-117.73
873.309	915.54
873.476	73.93
873.643	161.91
873.81	43.53
873.977	30.78
874.144	27.15
874.311	-134.06
874.478	-228.77
874.645	-190.44
874.812	-98.47
874.979	-33.2
875.146	-57.35
875.313	-47.38
875.48	-3.85
875.647	-22.84
875.813	-69.31
875.98	-38.86
876.147	-88.23
876.314	-168.07
876.481	1135.33
876.647	-1482.87
876.814	573.45
876.981	78.56
877.147	-3.06
877.314	11.66
877.481	17.95
877.647	42.23
877.814	-23.47
877.98	-61.38
878.147	2.97
878.314	90.13
878.48	36.37
878.647	53.99
878.813	104.85
878.979	68.83
879.146	-23.95
879.312	-21.75
879.479	-61.25
879.645	-229.1
879.811	-388.88
879.978	-799.05
880.144	-150.77
880.31	-90.29
880.477	-240.65
880.643	-311.53
880.809	-28.49
880.975	-37.02
881.142	-501.59
881.308	-23.39
881.474	37.78
881.64	-10.44
881.806	-110.61
881.972	-3.63
882.138	33.64
882.304	12.18
882.47	-147.15
882.636	-543.24
882.802	-140.37
882.968	-13
883.134	23.69
883.3	40.48
883.466	71.08
883.632	98.74
883.798	36.04
883.964	-8.64
884.129	-18.04
884.295	22.84
884.461	-68.85
884.627	-53.82
884.793	-78.84
884.958	-40.42
885.124	-188.69
885.29	-296.88
885.455	-445.51
885.621	-63.03
885.787	-138.75
885.952	-31.04
886.118	-23.9
886.283	-24.09
886.449	-113.86
886.614	-109.24
886.78	-299.9
886.945	1297.95
887.111	-844.36
887.276	-749.86
887.442	-1112.5
887.607	-464.03
887.773	-374.44
887.938	-314.03
888.103	-350.08
888.269	-267.39
888.434	-476.62
888.599	-156.34
888.764	-33.35
888.93	6.17
889.095	-11.57
889.26	-33.23
889.425	33.28
889.59	117.75
889.756	90.04
889.921	65.46
890.086	118.46
890.251	64.75
890.416	-109.78
890.581	-1223.79
890.746	188.48
890.911	448.89
891.076	173.07
891.241	-263.99
891.406	28.43
891.571	-38.33
891.736	-222.82
891.901	-501.55
892.065	619.51
892.23	148.45
892.395	177.25
892.56	257.44
892.725	-154.49
892.889	-672.56
893.054	-184.46
893.219	-91.65
893.384	-42.3
893.548	-105.75
893.713	-115.11
893.878	-61.1
