Data from Ofra_1a_PS_4HS15_Reflection_1.txt Node
Date: Tue Jul 20 10:57:12 EDT 2021
User: Adam
Spectrometer: FLMT01687
Trigger mode: 0
Integration Time (sec): 1.004000E0
Scans to average: 2
Electric dark correction enabled: true
Nonlinearity correction enabled: false
Boxcar width: 2
XAxis mode: Wavelengths
Number of Pixels in Spectrum: 3648
>>>>>Begin Spectral Data<<<<<
179.494	-370.05
179.716	-494.66
179.937	1038.46
180.158	-1671.97
180.38	276.13
180.601	86.02
180.823	48.16
181.044	-66.62
181.265	-249.88
181.486	263
181.708	60.81
181.929	-27.27
182.15	-211.14
182.372	560.1
182.593	166.3
182.814	-78.95
183.035	24.71
183.257	51.78
183.478	0.97
183.699	-35.21
183.92	-73.87
184.141	-79.04
184.363	-62
184.584	-68.17
184.805	-41.7
185.026	3.38
185.247	-12.9
185.468	-30.2
185.689	-22.54
185.91	-33.76
186.132	-50.34
186.353	-33.42
186.574	-39.88
186.795	-38.87
187.016	-10.91
187.237	-4.73
187.458	-22.89
187.679	1.34
187.9	19.21
188.121	27.29
188.342	56.47
188.563	91.9
188.784	75.25
189.005	47.55
189.226	34.23
189.447	16.77
189.667	-15.35
189.888	-37.09
190.109	-37.07
190.33	-28.88
190.551	-29.89
190.772	5.76
190.993	-0.85
191.214	-1.33
191.434	-33.02
191.655	-18.94
191.876	-29.8
192.097	14.63
192.318	44.36
192.538	24.07
192.759	19.59
192.98	36.81
193.201	25.6
193.421	11.39
193.642	35.2
193.863	32.2
194.083	22.17
194.304	30.06
194.525	8.16
194.745	-8.76
194.966	-6.49
195.187	-5.25
195.407	-17.1
195.628	2.01
195.848	0.45
196.069	-10.69
196.29	-3.63
196.51	-11.34
196.731	-10.96
196.951	9.71
197.172	20.99
197.392	-2.51
197.613	30.17
197.833	23.69
198.054	-9.05
198.274	-17.15
198.495	-13.45
198.715	-45.02
198.936	-23.38
199.156	-9.13
199.377	-9.32
199.597	8.8
199.817	-4.7
200.038	-33.63
200.258	3.99
200.479	22.36
200.699	28.18
200.919	21.22
201.14	6.93
201.36	-12.79
201.58	-54.05
201.801	-92.69
202.021	-83.23
202.241	-59.97
202.461	-53.38
202.682	-27.39
202.902	-0.37
203.122	9.67
203.342	13.54
203.563	12.8
203.783	13.95
204.003	-3.9
204.223	5.15
204.443	22.3
204.663	28.55
204.884	36.29
205.104	38.63
205.324	58.94
205.544	-20.59
205.764	3.27
205.984	-10.99
206.204	-6.71
206.424	-46.98
206.644	-28.01
206.864	-73.48
207.084	-27.04
207.304	-35.05
207.525	-36.03
207.745	-15.86
207.964	-14.23
208.184	-16.2
208.404	-9.9
208.624	23.95
208.844	19.97
209.064	28.95
209.284	17.66
209.504	12.03
209.724	-15.8
209.944	-31.13
210.164	-31.91
210.384	-34.77
210.604	-64.73
210.823	-49.11
211.043	-10.77
211.263	-56.13
211.483	-50.43
211.703	-41.36
211.922	-76.56
212.142	-59.01
212.362	-15.87
212.582	-13.37
212.801	6.34
213.021	11.12
213.241	-24.21
213.461	-27.74
213.68	3.29
213.9	-8.08
214.12	-12.77
214.339	4.51
214.559	0.46
214.779	-38.54
214.998	-30.18
215.218	-12.31
215.438	-7.17
215.657	-13.09
215.877	-6.94
216.096	13.82
216.316	17.7
216.535	7.32
216.755	18.71
216.974	20.4
217.194	-0.18
217.413	-1.68
217.633	-20.38
217.852	-23.04
218.072	-9.93
218.291	-26.88
218.511	-44.18
218.73	-30.5
218.95	-60.2
219.169	-79.31
219.389	-23.43
219.608	-18.26
219.827	-12.5
220.047	3.44
220.266	-27.85
220.485	-63.71
220.705	-49.16
220.924	-49.28
221.143	-17.3
221.363	13.4
221.582	17.86
221.801	23.18
222.021	19.29
222.24	21.83
222.459	37.55
222.678	40.4
222.897	39.22
223.117	53.66
223.336	65.85
223.555	63.9
223.774	65.2
223.993	76.41
224.213	72.5
224.432	20.57
224.651	23.96
224.87	29.93
225.089	10.85
225.308	1.13
225.527	9.09
225.746	-17.58
225.965	-27.14
226.184	-36.44
226.404	-53.72
226.623	-39.04
226.842	-17.5
227.061	-14.39
227.28	7.13
227.499	24.41
227.718	20.36
227.936	10.72
228.155	12.73
228.374	12.52
228.593	10.01
228.812	4.33
229.031	13.45
229.25	-2.88
229.469	-15.39
229.688	-19.29
229.907	1.2
230.125	-14.98
230.344	-4.75
230.563	5.87
230.782	17.56
231.001	2.79
231.22	15.98
231.438	21.06
231.657	15.68
231.876	0.19
232.095	13.86
232.313	0.05
232.532	-4.19
232.751	-11.49
232.969	3.95
233.188	-10.41
233.407	16.62
233.625	22.98
233.844	17.18
234.063	0.88
234.281	-4.24
234.5	-11.34
234.719	-13.6
234.937	-22.3
235.156	-14.04
235.374	-2.53
235.593	-6.12
235.811	-1.36
236.03	12.48
236.249	20.81
236.467	27.34
236.686	27.81
236.904	17.88
237.123	1.96
237.341	-13.39
237.559	-45.39
237.778	-32.74
237.996	-52.68
238.215	-89.56
238.433	-118.23
238.652	-32.8
238.87	-50.2
239.088	-29.65
239.307	0.86
239.525	3.25
239.743	-12.96
239.962	-21.77
240.18	-25.7
240.398	-36.54
240.617	-43.02
240.835	-42.73
241.053	-1.59
241.271	6.63
241.49	17.4
241.708	6.08
241.926	11.05
242.144	11.62
242.363	-3.22
242.581	-39.12
242.799	-9.76
243.017	-20.71
243.235	-17.99
243.453	-32.52
243.672	-14.86
243.89	-11.39
244.108	16.28
244.326	17.71
244.544	35.55
244.762	22.69
244.98	17.63
245.198	7.1
245.416	0.2
245.634	-3.73
245.852	-11.03
246.07	7.12
246.288	-2.1
246.506	-8.29
246.724	-10.88
246.942	8.99
247.16	17.13
247.378	17.33
247.596	35.01
247.814	22.15
248.032	9.2
248.25	2.62
248.468	25.15
248.685	21.77
248.903	26.85
249.121	27.27
249.339	20.2
249.557	22.87
249.775	29.97
249.992	18
250.21	19.28
250.428	24.14
250.646	16.49
250.863	-1.65
251.081	11.83
251.299	10.17
251.517	8.27
251.734	12.78
251.952	18.13
252.17	18.99
252.387	13.37
252.605	17.6
252.823	0.59
253.04	28.51
253.258	20.51
253.475	18.16
253.693	10.89
253.911	8.38
254.128	-2.1
254.346	3.96
254.563	6.71
254.781	-5.68
254.998	-6.6
255.216	-24.67
255.433	-44.31
255.651	-25.75
255.868	-17.91
256.086	-7.87
256.303	-7.27
256.521	-0.97
256.738	-27.4
256.956	-22.47
257.173	-36.16
257.39	-30.26
257.608	-27.46
257.825	-6.98
258.043	2.67
258.26	10.73
258.477	13.13
258.695	19.64
258.912	2.05
259.129	-8.92
259.346	-10.68
259.564	-33.25
259.781	-55.95
259.998	-5.66
260.216	8.02
260.433	3.9
260.65	16.6
260.867	24.13
261.084	6.06
261.302	-2.03
261.519	28.3
261.736	29.41
261.953	26.86
262.17	45.61
262.387	45.99
262.604	29.57
262.822	28.8
263.039	23.83
263.256	14.97
263.473	5.03
263.69	1.24
263.907	-6
264.124	8.36
264.341	14.12
264.558	12.6
264.775	22.62
264.992	30.62
265.209	2.53
265.426	-1.03
265.643	-3.91
265.86	8.18
266.077	-24.99
266.294	6.66
266.51	15.62
266.727	25.53
266.944	28.58
267.161	33.19
267.378	26.34
267.595	4.18
267.812	-6.45
268.028	-31.61
268.245	-27.06
268.462	-17.63
268.679	7.77
268.896	19.27
269.112	8.49
269.329	-14.72
269.546	-1.6
269.763	-22.36
269.979	-20.72
270.196	-2.21
270.413	-5.57
270.629	-23.12
270.846	-19.02
271.063	-24.02
271.279	-31.48
271.496	-21.21
271.712	-1.42
271.929	6.23
272.146	11.38
272.362	25.3
272.579	27.38
272.795	23.64
273.012	41.81
273.228	44.47
273.445	26.24
273.661	21.45
273.878	12.14
274.094	0.46
274.311	-12.74
274.527	-19.88
274.744	-2.71
274.96	6.02
275.177	1.87
275.393	17.85
275.609	26.32
275.826	16.61
276.042	0.18
276.259	3.59
276.475	-1.13
276.691	-9.03
276.908	-10.63
277.124	-1.99
277.34	-16.54
277.557	-52.99
277.773	-63.9
277.989	-50.49
278.205	-44.83
278.422	-24.41
278.638	-1.69
278.854	3.68
279.07	22.9
279.286	21.4
279.503	14.22
279.719	14.3
279.935	8.55
280.151	-9.8
280.367	-0.95
280.583	2.89
280.799	-2.08
281.016	-23.64
281.232	-8.55
281.448	-6.9
281.664	2.36
281.88	9.42
282.096	14.21
282.312	9.71
282.528	10.17
282.744	1.49
282.96	-10.76
283.176	-10.22
283.392	-5.37
283.608	-0.54
283.824	-29.87
284.04	-55.99
284.256	-31.72
284.471	-22.42
284.687	-26.9
284.903	-19.88
285.119	2.06
285.335	13.07
285.551	2.56
285.767	-9.08
285.982	-7.87
286.198	-37.67
286.414	-62.85
286.63	-49.69
286.846	-16.18
287.061	-8
287.277	-0.44
287.493	-8.08
287.709	-24.56
287.924	-25.25
288.14	-12.5
288.356	6.37
288.571	-12.3
288.787	-16.65
289.003	-12.22
289.218	-41.32
289.434	-57.11
289.65	-7.64
289.865	-1.85
290.081	2.91
290.296	25.73
290.512	17.9
290.727	2.56
290.943	19.86
291.159	22.83
291.374	-0.27
291.59	19.55
291.805	9.58
292.021	-3.04
292.236	-13.47
292.451	-2.95
292.667	-13.69
292.882	6.34
293.098	-1.84
293.313	-3.93
293.529	8.19
293.744	-2.16
293.959	-2.68
294.175	-8.59
294.39	-31.41
294.605	-22.03
294.821	-16.95
295.036	-24.54
295.251	-6.11
295.467	9.18
295.682	11.48
295.897	30.56
296.112	30.62
296.328	16.75
296.543	5.45
296.758	-5.85
296.973	-40.98
297.188	-38.17
297.404	-80.82
297.619	-85.75
297.834	-120.02
298.049	-69.26
298.264	-69.23
298.479	-43.97
298.694	-1.46
298.909	8.17
299.125	11.16
299.34	27.84
299.555	32.59
299.77	47.57
299.985	41.45
300.2	36.26
300.415	26.95
300.63	25.23
300.845	6.5
301.06	-3.48
301.275	1.54
301.49	-10.01
301.704	-15.26
301.919	-36.56
302.134	-26.01
302.349	-29.14
302.564	-23.11
302.779	-35.59
302.994	-2.05
303.209	1.59
303.423	-5.22
303.638	-3.77
303.853	7.57
304.068	-21.3
304.283	-16.54
304.497	-9.66
304.712	3.19
304.927	3.37
305.142	17.39
305.356	16.28
305.571	15.67
305.786	2.61
306	3.13
306.215	-15.96
306.43	-24.72
306.644	-27.57
306.859	-28.81
307.074	-9.25
307.288	-0.87
307.503	8.56
307.717	-4.99
307.932	-0.09
308.147	-13.41
308.361	-15.53
308.576	-33.02
308.79	-24.43
309.005	-46.93
309.219	-28.37
309.434	-24.85
309.648	-16.34
309.863	-3.21
310.077	1.87
310.292	4.29
310.506	-9.29
310.72	-21.25
310.935	-10.67
311.149	-3.96
311.364	-18.02
311.578	2.61
311.792	19.16
312.007	16.72
312.221	-11.22
312.435	-2.84
312.649	-7.82
312.864	-18.93
313.078	-14.35
313.292	-5.13
313.507	0.81
313.721	-0.11
313.935	17.48
314.149	4.14
314.363	10.2
314.578	-4.11
314.792	-27.94
315.006	-49.34
315.22	-27.91
315.434	-24.39
315.648	-27.65
315.862	-16.57
316.077	-16.21
316.291	-14.74
316.505	-43.04
316.719	-19.35
316.933	-9.82
317.147	-0.8
317.361	-11.94
317.575	-0.44
317.789	3.37
318.003	-7.92
318.217	5.78
318.431	12.07
318.645	15.03
318.859	6.51
319.073	21.91
319.287	9.91
319.5	6.26
319.714	4.39
319.928	2.35
320.142	-1.42
320.356	-0.69
320.57	-18.78
320.784	-10.46
320.997	-11.76
321.211	-6.76
321.425	-7.77
321.639	16.68
321.853	21.36
322.066	3.89
322.28	-3.28
322.494	11.52
322.707	10.84
322.921	-0.73
323.135	14.05
323.349	3.16
323.562	-5.71
323.776	0.04
323.989	20.17
324.203	10.65
324.417	19.75
324.63	4.62
324.844	-8.27
325.057	-40.85
325.271	-40.22
325.485	-40.64
325.698	-23.97
325.912	-9.8
326.125	-8.46
326.339	10.89
326.552	18.47
326.766	26.94
326.979	34.85
327.193	33.92
327.406	8.93
327.619	-3.42
327.833	-1.28
328.046	-2.29
328.26	-10.37
328.473	12.82
328.686	25.29
328.9	28
329.113	19.64
329.326	24.31
329.54	24.72
329.753	20.03
329.966	14.14
330.179	18.37
330.393	16.84
330.606	2.38
330.819	-8.32
331.032	-21.98
331.246	-11.52
331.459	7.29
331.672	14.18
331.885	13.96
332.098	38.73
332.311	16.15
332.525	13.22
332.738	9.97
332.951	11.63
333.164	10.53
333.377	23.95
333.59	14.96
333.803	19.02
334.016	21.46
334.229	27.61
334.442	14.67
334.655	34.22
334.868	27.4
335.081	18.58
335.294	6.78
335.507	28.22
335.72	8.08
335.933	11.65
336.146	17.15
336.359	30.65
336.572	28.1
336.785	18.61
336.997	18.66
337.21	19.92
337.423	-17.55
337.636	-27.27
337.849	-11.06
338.062	-4.07
338.274	-1.92
338.487	-3.59
338.7	-18.43
338.913	-6.19
339.125	-21.75
339.338	-27.63
339.551	-14.22
339.763	-7.37
339.976	-17.86
340.189	-9.09
340.402	7.57
340.614	2.32
340.827	12.58
341.039	17.58
341.252	16.95
341.465	2.36
341.677	5.98
341.89	-2.91
342.102	7.38
342.315	-1.73
342.527	-6.76
342.74	-22.82
342.952	-10.22
343.165	-19.29
343.377	-3.33
343.59	20.62
343.802	24.39
344.015	28.48
344.227	23.51
344.44	5.04
344.652	-2.96
344.864	-0.1
345.077	-3.16
345.289	0.18
345.502	24.17
345.714	17.03
345.926	27.59
346.139	10.52
346.351	28.86
346.563	22.99
346.775	41.35
346.988	32.57
347.2	21.99
347.412	17.02
347.624	7.18
347.837	2.62
348.049	4.04
348.261	6.69
348.473	-11.06
348.685	-1.93
348.897	-22.23
349.11	-15.09
349.322	-5.56
349.534	13
349.746	-2.44
349.958	-4.24
350.17	-17.01
350.382	-17.18
350.594	-22.2
350.806	9.5
351.018	21.5
351.23	21.57
351.442	19.66
351.654	15.35
351.866	3.34
352.078	12.8
352.29	16.75
352.502	19.32
352.714	12.95
352.926	6.39
353.138	20.7
353.35	2.27
353.561	3.39
353.773	6.73
353.985	15.52
354.197	5.31
354.409	15.62
354.621	-2.28
354.832	-10.43
355.044	-26.43
355.256	-41.23
355.468	-52.2
355.679	-14.19
355.891	0.54
356.103	-11.58
356.314	-15.57
356.526	-17.89
356.738	-20.14
356.949	-27.88
357.161	0.36
357.373	-7.68
357.584	4.89
357.796	6.04
358.008	14.09
358.219	11.02
358.431	15.32
358.642	3.8
358.854	9.36
359.065	-3.49
359.277	-4.87
359.488	-3.37
359.7	1.4
359.911	-11.8
360.123	2.72
360.334	-5.85
360.546	-13.84
360.757	-20.47
360.969	-17.63
361.18	-31.27
361.391	-19.73
361.603	-0.11
361.814	11.03
362.025	18.09
362.237	27.87
362.448	31.74
362.659	18.38
362.871	-0.68
363.082	-5.35
363.293	-22.33
363.504	-36.23
363.716	-28.39
363.927	10.42
364.138	-1.64
364.349	-2.44
364.56	-11
364.772	1.29
364.983	-19.66
365.194	-0.84
365.405	-3.59
365.616	14.38
365.827	-0.87
366.038	16.37
366.25	13.61
366.461	14.64
366.672	5.08
366.883	11.41
367.094	5.38
367.305	0.51
367.516	13.95
367.727	14.64
367.938	17.44
368.149	11.65
368.36	0.53
368.571	-29.58
368.781	-53.05
368.992	-60.97
369.203	-42.66
369.414	-27.54
369.625	-18.85
369.836	15.99
370.047	17.22
370.258	13.77
370.468	5.83
370.679	7.83
370.89	-4.42
371.101	11.5
371.312	3.4
371.522	2.92
371.733	3.1
371.944	-3.87
372.155	0.67
372.365	6.39
372.576	5.4
372.787	11.29
372.997	9.62
373.208	5.48
373.419	2.93
373.629	0.03
373.84	-2.19
374.05	-5.64
374.261	-28.18
374.472	-14.27
374.682	-2.69
374.893	-10.84
375.103	0.49
375.314	13.44
375.524	12.01
375.735	15.18
375.945	18.26
376.156	24.62
376.366	30.97
376.577	14.85
376.787	15.23
376.997	19.51
377.208	7.4
377.418	3.89
377.629	9.51
377.839	4.11
378.049	0.68
378.26	-2.77
378.47	1.39
378.68	-3.64
378.89	-5.39
379.101	-4.6
379.311	5.68
379.521	-6.22
379.732	3.7
379.942	-4.3
380.152	-5.54
380.362	-0.93
380.572	14.61
380.783	18.31
380.993	27.73
381.203	20.2
381.413	16.37
381.623	13.08
381.833	4.54
382.043	0.23
382.253	14.12
382.463	22.72
382.674	15.59
382.884	25.04
383.094	27.8
383.304	29.19
383.514	19.8
383.724	23.05
383.934	15.02
384.144	17.09
384.353	13.51
384.563	14.34
384.773	11.1
384.983	5.49
385.193	-2.45
385.403	-8.46
385.613	-3.32
385.823	-6.18
386.033	-2.33
386.242	-2.91
386.452	-1.79
386.662	-4.04
386.872	-0.88
387.082	-3.23
387.291	1.14
387.501	4.13
387.711	5.46
387.921	8.23
388.13	13.63
388.34	8.25
388.55	5.01
388.759	-0.77
388.969	-3.99
389.179	-0.65
389.388	4.37
389.598	4.35
389.807	0.39
390.017	0.1
390.227	-4.45
390.436	-5.48
390.646	-2.82
390.855	0.33
391.065	3.84
391.274	3.54
391.484	3.67
391.693	2.34
391.903	4.88
392.112	3.97
392.322	5.64
392.531	6.1
392.74	6.51
392.95	4.17
393.159	1.73
393.369	1.15
393.578	1.18
393.787	2.07
393.997	3.44
394.206	5.05
394.415	6.33
394.625	6.41
394.834	4.07
395.043	4.27
395.252	6.14
395.462	5.9
395.671	5.56
395.88	7.64
396.089	7.49
396.298	6.75
396.508	6.66
396.717	7.47
396.926	6.22
397.135	6.04
397.344	5.53
397.553	6
397.762	6.4
397.971	6.96
398.181	7.12
398.39	7.07
398.599	7.05
398.808	6.78
399.017	7.52
399.226	7.97
399.435	8
399.644	8.14
399.853	7.46
400.062	7.33
400.27	6.57
400.479	6.98
400.688	6.7
400.897	7.15
401.106	7.13
401.315	7.38
401.524	7.3
401.733	7.41
401.941	7.67
402.15	7.24
402.359	7.38
402.568	7.58
402.777	7.72
402.985	7.31
403.194	7.47
403.403	7.58
403.612	7.17
403.82	6.78
404.029	7.04
404.238	7.12
404.446	7.26
404.655	7.47
404.864	7.53
405.072	7.35
405.281	7.21
405.489	6.95
405.698	6.97
405.906	7.08
406.115	7.2
406.324	7.48
406.532	7.67
406.741	7.71
406.949	7.61
407.158	7.59
407.366	7.38
407.574	7.31
407.783	7.2
407.991	7.27
408.2	7.44
408.408	7.51
408.617	7.46
408.825	7.29
409.033	7.19
409.242	7.03
409.45	6.86
409.658	6.66
409.867	6.73
410.075	6.76
410.283	6.7
410.491	6.69
410.7	6.72
410.908	6.75
411.116	6.84
411.324	6.8
411.533	6.7
411.741	6.74
411.949	6.7
412.157	6.57
412.365	6.64
412.573	6.79
412.781	6.71
412.99	6.71
413.198	6.78
413.406	6.73
413.614	6.82
413.822	6.98
414.03	6.98
414.238	7.01
414.446	7.05
414.654	6.77
414.862	6.64
415.07	6.5
415.278	6.34
415.486	6.02
415.694	6.1
415.902	6.01
416.109	6.01
416.317	6.09
416.525	6.22
416.733	6.11
416.941	6.1
417.149	6.05
417.357	6.04
417.564	5.99
417.772	6.15
417.98	6.16
418.188	6.17
418.395	5.91
418.603	5.99
418.811	5.9
419.019	5.87
419.226	5.88
419.434	6.04
419.642	5.8
419.849	5.71
420.057	5.81
420.265	5.82
420.472	5.75
420.68	5.89
420.887	5.91
421.095	5.87
421.302	5.9
421.51	5.85
421.717	5.81
421.925	5.9
422.132	5.9
422.34	5.76
422.547	5.66
422.755	5.67
422.962	5.49
423.17	5.19
423.377	5.4
423.585	5.76
423.792	5.8
423.999	6
424.207	6.08
424.414	5.96
424.621	5.7
424.829	5.78
425.036	5.65
425.243	5.78
425.451	5.74
425.658	5.74
425.865	5.64
426.072	5.59
426.28	5.69
426.487	5.73
426.694	5.65
426.901	5.61
427.108	5.69
427.315	5.73
427.523	5.69
427.73	5.83
427.937	5.81
428.144	5.73
428.351	5.61
428.558	5.78
428.765	5.82
428.972	5.93
429.179	5.98
429.386	5.97
429.593	5.81
429.8	5.75
430.007	5.87
430.214	5.87
430.421	6.05
430.628	5.98
430.835	5.99
431.042	5.84
431.249	5.79
431.456	5.65
431.662	5.97
431.869	6.15
432.076	6.3
432.283	6.52
432.49	6.5
432.697	6.47
432.903	6.29
433.11	6.33
433.317	6.21
433.524	6.26
433.73	6.04
433.937	6.21
434.144	5.99
434.35	6.13
434.557	6.16
434.764	6.44
434.97	6.28
435.177	6.62
435.384	6.56
435.59	6.61
435.797	6.54
436.003	6.62
436.21	6.46
436.416	6.45
436.623	6.46
436.829	6.54
437.036	6.54
437.242	6.66
437.449	6.63
437.655	6.67
437.862	6.59
438.068	6.67
438.275	6.75
438.481	6.98
438.687	7
438.894	7.13
439.1	7.15
439.307	7.14
439.513	7.11
439.719	7.16
439.926	7.23
440.132	7.28
440.338	7.12
440.544	7.17
440.751	7.17
440.957	7.11
441.163	6.98
441.369	7.12
441.575	7.02
441.782	7.01
441.988	7.04
442.194	7.1
442.4	7.13
442.606	7.28
442.812	7.3
443.018	7.27
443.224	7.46
443.431	7.43
443.637	7.33
443.843	7.4
444.049	7.53
444.255	7.5
444.461	7.49
444.667	7.48
444.873	7.39
445.079	7.27
445.284	7.23
445.49	7.31
445.696	7.38
445.902	7.4
446.108	7.46
446.314	7.44
446.52	7.55
446.726	7.6
446.931	7.66
447.137	7.7
447.343	7.89
447.549	7.9
447.755	7.84
447.96	7.94
448.166	7.98
448.372	7.88
448.578	7.72
448.783	7.83
448.989	7.81
449.195	7.82
449.4	7.95
449.606	8.04
449.812	7.92
450.017	7.94
450.223	7.98
450.428	7.96
450.634	7.95
450.84	8.01
451.045	8.08
451.251	8.13
451.456	8.02
451.662	8.08
451.867	8.24
452.073	8.18
452.278	8.15
452.483	8.32
452.689	8.35
452.894	8.36
453.1	8.35
453.305	8.38
453.51	8.26
453.716	8.2
453.921	8.16
454.127	8.22
454.332	8.2
454.537	8.25
454.742	8.36
454.948	8.4
455.153	8.4
455.358	8.38
455.563	8.45
455.769	8.51
455.974	8.48
456.179	8.48
456.384	8.54
456.589	8.52
456.795	8.46
457	8.4
457.205	8.37
457.41	8.44
457.615	8.38
457.82	8.48
458.025	8.63
458.23	8.77
458.435	8.83
458.64	9.01
458.845	9.07
459.05	9.1
459.255	9.09
459.46	9.01
459.665	8.98
459.87	8.87
460.075	8.96
460.28	9
460.485	9.16
460.69	9.23
460.895	9.36
461.099	9.24
461.304	9.26
461.509	9.19
461.714	9.23
461.919	9.19
462.123	9.26
462.328	9.18
462.533	9.13
462.738	9.01
462.942	8.95
463.147	8.94
463.352	9.07
463.556	9.22
463.761	9.25
463.966	9.25
464.17	9.41
464.375	9.46
464.58	9.34
464.784	9.34
464.989	9.44
465.193	9.37
465.398	9.35
465.602	9.56
465.807	9.65
466.011	9.61
466.216	9.54
466.42	9.5
466.625	9.47
466.829	9.47
467.034	9.64
467.238	9.81
467.443	9.88
467.647	9.81
467.851	9.87
468.056	9.91
468.26	9.86
468.464	9.87
468.669	9.93
468.873	9.91
469.077	9.84
469.282	9.85
469.486	9.91
469.69	9.98
469.894	10.05
470.099	10.05
470.303	10.17
470.507	10.15
470.711	10.12
470.915	10.15
471.119	10.25
471.324	10.27
471.528	10.32
471.732	10.42
471.936	10.45
472.14	10.44
472.344	10.53
472.548	10.53
472.752	10.53
472.956	10.55
473.16	10.57
473.364	10.5
473.568	10.49
473.772	10.49
473.976	10.52
474.18	10.52
474.384	10.53
474.588	10.64
474.792	10.6
474.995	10.59
475.199	10.59
475.403	10.68
475.607	10.66
475.811	10.78
476.015	10.73
476.218	10.73
476.422	10.66
476.626	10.7
476.83	10.74
477.033	10.83
477.237	10.91
477.441	10.92
477.644	10.84
477.848	10.87
478.052	10.85
478.255	10.87
478.459	10.93
478.663	11.07
478.866	11.05
479.07	11.05
479.273	11.08
479.477	11.07
479.681	11.09
479.884	11.08
480.088	11.12
480.291	11.02
480.495	11.05
480.698	10.97
480.901	11.07
481.105	11.07
481.308	11.13
481.512	11.08
481.715	11.17
481.919	11.15
482.122	11.13
482.325	11.19
482.529	11.18
482.732	11.17
482.935	11.05
483.138	11.06
483.342	11.06
483.545	11.15
483.748	11.21
483.952	11.33
484.155	11.4
484.358	11.32
484.561	11.23
484.764	11.11
484.967	11.11
485.171	11.02
485.374	11.04
485.577	11.1
485.78	11.1
485.983	11.07
486.186	11.13
486.389	11.14
486.592	11.09
486.795	11.19
486.998	11.18
487.201	11.12
487.404	11.26
487.607	11.34
487.81	11.29
488.013	11.27
488.216	11.38
488.419	11.23
488.622	11.16
488.825	11.19
489.028	11.25
489.231	11.24
489.433	11.27
489.636	11.33
489.839	11.33
490.042	11.28
490.245	11.25
490.447	11.25
490.65	11.27
490.853	11.21
491.056	11.23
491.258	11.21
491.461	11.22
491.664	11.19
491.866	11.17
492.069	11.16
492.272	11.11
492.474	11.09
492.677	11.15
492.879	11.22
493.082	11.24
493.285	11.34
493.487	11.42
493.69	11.37
493.892	11.33
494.095	11.31
494.297	11.22
494.5	11.06
494.702	11.1
494.905	11.14
495.107	11.11
495.309	11.18
495.512	11.24
495.714	11.2
495.917	11.25
496.119	11.31
496.321	11.31
496.524	11.35
496.726	11.33
496.928	11.23
497.13	11.18
497.333	11.17
497.535	11.13
497.737	11.23
497.939	11.22
498.142	11.27
498.344	11.29
498.546	11.3
498.748	11.33
498.95	11.5
499.152	11.53
499.355	11.55
499.557	11.59
499.759	11.62
499.961	11.51
500.163	11.53
500.365	11.57
500.567	11.54
500.769	11.46
500.971	11.52
501.173	11.44
501.375	11.51
501.577	11.58
501.779	11.47
501.981	11.41
502.183	11.39
502.385	11.32
502.587	11.35
502.788	11.49
502.99	11.56
503.192	11.66
503.394	11.66
503.596	11.6
503.798	11.51
503.999	11.52
504.201	11.53
504.403	11.55
504.605	11.65
504.806	11.75
505.008	11.78
505.21	11.81
505.411	11.8
505.613	11.81
505.815	11.83
506.016	11.8
506.218	11.79
506.42	11.77
506.621	11.77
506.823	11.79
507.024	11.84
507.226	11.88
507.427	11.96
507.629	11.99
507.83	12.05
508.032	12.02
508.233	12.08
508.435	12.11
508.636	12.08
508.838	12.09
509.039	12.07
509.24	12.04
509.442	12.05
509.643	12.04
509.845	11.99
510.046	12.11
510.247	12.16
510.448	12.22
510.65	12.24
510.851	12.29
511.052	12.22
511.254	12.2
511.455	12.15
511.656	12.13
511.857	12.08
512.058	12.15
512.26	12.16
512.461	12.22
512.662	12.24
512.863	12.22
513.064	12.18
513.265	12.18
513.466	12.22
513.667	12.29
513.868	12.32
514.069	12.44
514.27	12.48
514.471	12.44
514.672	12.47
514.873	12.48
515.074	12.49
515.275	12.46
515.476	12.48
515.677	12.47
515.878	12.56
516.079	12.5
516.28	12.58
516.481	12.61
516.682	12.59
516.882	12.56
517.083	12.57
517.284	12.58
517.485	12.53
517.686	12.5
517.886	12.53
518.087	12.52
518.288	12.54
518.488	12.51
518.689	12.49
518.89	12.48
519.091	12.51
519.291	12.5
519.492	12.6
519.692	12.66
519.893	12.74
520.094	12.74
520.294	12.77
520.495	12.74
520.695	12.85
520.896	12.82
521.096	12.83
521.297	12.81
521.497	12.79
521.698	12.71
521.898	12.72
522.099	12.79
522.299	12.79
522.499	12.75
522.7	12.77
522.9	12.77
523.101	12.72
523.301	12.7
523.501	12.78
523.702	12.81
523.902	12.81
524.102	12.89
524.302	12.96
524.503	12.91
524.703	12.91
524.903	12.9
525.103	12.81
525.304	12.81
525.504	12.9
525.704	12.89
525.904	12.88
526.104	12.95
526.304	12.96
526.504	12.94
526.705	12.89
526.905	12.94
527.105	12.94
527.305	12.96
527.505	12.91
527.705	12.95
527.905	13
528.105	12.99
528.305	12.99
528.505	13.05
528.705	13.09
528.905	13.07
529.105	13.09
529.304	13.15
529.504	13.19
529.704	13.25
529.904	13.27
530.104	13.26
530.304	13.18
530.503	13.22
530.703	13.13
530.903	13.15
531.103	13.2
531.303	13.26
531.502	13.3
531.702	13.43
531.902	13.46
532.101	13.43
532.301	13.44
532.501	13.49
532.7	13.42
532.9	13.45
533.1	13.51
533.299	13.53
533.499	13.49
533.698	13.49
533.898	13.5
534.097	13.51
534.297	13.55
534.496	13.53
534.696	13.66
534.895	13.67
535.095	13.68
535.294	13.65
535.494	13.66
535.693	13.61
535.892	13.57
536.092	13.64
536.291	13.7
536.491	13.78
536.69	13.83
536.889	13.82
537.088	13.78
537.288	13.74
537.487	13.73
537.686	13.68
537.886	13.83
538.085	13.86
538.284	13.92
538.483	13.91
538.682	14
538.882	13.98
539.081	14.01
539.28	14.03
539.479	14.06
539.678	14.06
539.877	14.06
540.076	14.08
540.275	14.16
540.474	14.15
540.673	14.21
540.872	14.25
541.071	14.32
541.27	14.33
541.469	14.38
541.668	14.41
541.867	14.5
542.066	14.52
542.265	14.53
542.464	14.58
542.663	14.65
542.862	14.72
543.06	14.81
543.259	14.93
543.458	15.06
543.657	15.05
543.856	15.04
544.054	15.02
544.253	14.99
544.452	14.97
544.651	15.04
544.849	15.07
545.048	15.11
545.247	15.13
545.445	15.15
545.644	15.13
545.843	15.2
546.041	15.27
546.24	15.3
546.438	15.37
546.637	15.45
546.836	15.47
547.034	15.51
547.233	15.63
547.431	15.63
547.63	15.65
547.828	15.68
548.027	15.66
548.225	15.64
548.423	15.74
548.622	15.84
548.82	15.99
549.019	16.13
549.217	16.33
549.415	16.38
549.614	16.5
549.812	16.53
550.01	16.56
550.209	16.57
550.407	16.62
550.605	16.54
550.803	16.6
551.002	16.65
551.2	16.63
551.398	16.77
551.596	16.88
551.794	16.95
551.993	17.02
552.191	17.17
552.389	17.19
552.587	17.32
552.785	17.41
552.983	17.51
553.181	17.58
553.379	17.65
553.577	17.66
553.775	17.75
553.973	17.83
554.171	17.9
554.369	17.99
554.567	18.21
554.765	18.28
554.963	18.41
555.161	18.42
555.359	18.53
555.557	18.55
555.755	18.65
555.952	18.68
556.15	18.88
556.348	18.94
556.546	19.01
556.744	19.1
556.941	19.16
557.139	19.25
557.337	19.38
557.535	19.42
557.732	19.45
557.93	19.68
558.128	19.72
558.325	19.85
558.523	20.03
558.721	20.2
558.918	20.2
559.116	20.27
559.313	20.36
559.511	20.47
559.708	20.54
559.906	20.66
560.104	20.82
560.301	20.9
560.498	21.01
560.696	21.04
560.893	21.13
561.091	21.25
561.288	21.35
561.486	21.36
561.683	21.52
561.88	21.61
562.078	21.69
562.275	21.82
562.473	21.86
562.67	21.99
562.867	22.05
563.064	22.14
563.262	22.12
563.459	22.33
563.656	22.4
563.853	22.43
564.051	22.59
564.248	22.75
564.445	22.9
564.642	23.03
564.839	23.29
565.036	23.45
565.234	23.52
565.431	23.63
565.628	23.62
565.825	23.66
566.022	23.72
566.219	23.84
566.416	23.81
566.613	23.98
566.81	24.03
567.007	24.03
567.204	24.06
567.401	24.19
567.598	24.24
567.795	24.25
567.991	24.36
568.188	24.39
568.385	24.45
568.582	24.6
568.779	24.65
568.976	24.65
569.172	24.73
569.369	24.81
569.566	24.84
569.763	24.84
569.96	24.95
570.156	25.13
570.353	25.03
570.55	25.08
570.746	25.26
570.943	25.36
571.14	25.24
571.336	25.39
571.533	25.4
571.729	25.38
571.926	25.37
572.123	25.56
572.319	25.57
572.516	25.59
572.712	25.66
572.909	25.63
573.105	25.64
573.302	25.68
573.498	25.7
573.695	25.74
573.891	25.74
574.087	25.64
574.284	25.66
574.48	25.76
574.677	25.7
574.873	25.78
575.069	25.92
575.266	25.95
575.462	25.95
575.658	26.09
575.854	26.11
576.051	26.03
576.247	25.98
576.443	25.91
576.639	25.79
576.835	25.77
577.032	25.75
577.228	25.83
577.424	25.76
577.62	25.79
577.816	25.63
578.012	25.63
578.208	25.56
578.404	25.65
578.6	25.75
578.796	25.97
578.993	25.99
579.189	26.12
579.384	26.06
579.58	25.99
579.776	25.94
579.972	25.9
580.168	25.79
580.364	25.92
580.56	25.84
580.756	25.78
580.952	25.69
581.148	25.69
581.343	25.61
581.539	25.69
581.735	25.68
581.931	25.71
582.127	25.66
582.322	25.6
582.518	25.49
582.714	25.41
582.909	25.52
583.105	25.52
583.301	25.57
583.496	25.6
583.692	25.55
583.888	25.46
584.083	25.48
584.279	25.33
584.474	25.36
584.67	25.38
584.866	25.37
585.061	25.37
585.257	25.49
585.452	25.48
585.648	25.49
585.843	25.52
586.039	25.51
586.234	25.48
586.429	25.34
586.625	25.38
586.82	25.38
587.015	25.4
587.211	25.38
587.406	25.46
587.601	25.42
587.797	25.36
587.992	25.22
588.187	25.22
588.383	25.31
588.578	25.33
588.773	25.31
588.968	25.5
589.163	25.49
589.359	25.39
589.554	25.45
589.749	25.54
589.944	25.57
590.139	25.59
590.334	25.74
590.529	25.77
590.724	25.84
590.919	25.75
591.114	25.75
591.309	25.71
591.504	25.74
591.699	25.65
591.894	25.67
592.089	25.74
592.284	25.77
592.479	25.7
592.674	25.84
592.869	25.9
593.064	25.99
593.259	26.05
593.454	26.13
593.648	26.13
593.843	26.23
594.038	26.29
594.233	26.31
594.428	26.39
594.622	26.55
594.817	26.6
595.012	26.71
595.206	26.87
595.401	27
595.596	26.95
595.79	27.01
595.985	27.01
596.18	27
596.374	27.11
596.569	27.18
596.763	27.24
596.958	27.28
597.153	27.39
597.347	27.31
597.542	27.46
597.736	27.51
597.931	27.58
598.125	27.67
598.319	27.79
598.514	27.78
598.708	27.9
598.903	28.06
599.097	28.03
599.291	28.15
599.486	28.31
599.68	28.33
599.874	28.33
600.069	28.43
600.263	28.46
600.457	28.43
600.651	28.48
600.846	28.42
601.04	28.5
601.234	28.48
601.428	28.59
601.622	28.66
601.817	28.77
602.011	28.73
602.205	28.88
602.399	28.81
602.593	28.77
602.787	28.65
602.981	28.62
603.175	28.56
603.369	28.56
603.563	28.66
603.757	28.75
603.951	28.88
604.145	28.8
604.339	28.92
604.533	28.8
604.727	28.8
604.921	28.72
605.115	28.69
605.309	28.56
605.502	28.67
605.696	28.64
605.89	28.65
606.084	28.71
606.278	28.71
606.471	28.54
606.665	28.45
606.859	28.29
607.053	28.19
607.246	28.13
607.44	28.01
607.634	27.98
607.827	28.04
608.021	28.02
608.214	27.91
608.408	27.86
608.602	27.74
608.795	27.7
608.989	27.57
609.182	27.57
609.376	27.59
609.569	27.61
609.763	27.52
609.956	27.52
610.15	27.43
610.343	27.4
610.537	27.31
610.73	27.14
610.923	27.08
611.117	27.02
611.31	26.84
611.504	26.79
611.697	26.78
611.89	26.63
612.083	26.41
612.277	26.33
612.47	26.19
612.663	26.14
612.856	26.2
613.05	26.31
613.243	26.3
613.436	26.25
613.629	26.03
613.822	25.88
614.015	25.71
614.209	25.65
614.402	25.6
614.595	25.75
614.788	25.66
614.981	25.6
615.174	25.39
615.367	25.25
615.56	25.01
615.753	24.98
615.946	24.94
616.139	25
616.332	25.02
616.525	24.92
616.718	24.88
616.911	24.81
617.103	24.8
617.296	24.67
617.489	24.66
617.682	24.53
617.875	24.5
618.067	24.43
618.26	24.43
618.453	24.35
618.646	24.34
618.838	24.27
619.031	24.16
619.224	24.04
619.417	24.04
619.609	24.04
619.802	23.92
619.994	23.92
620.187	23.79
620.38	23.78
620.572	23.68
620.765	23.69
620.957	23.61
621.15	23.71
621.342	23.69
621.535	23.62
621.727	23.59
621.92	23.6
622.112	23.53
622.305	23.42
622.497	23.46
622.69	23.45
622.882	23.45
623.074	23.51
623.267	23.57
623.459	23.45
623.651	23.46
623.844	23.37
624.036	23.33
624.228	23.31
624.42	23.25
624.613	23.24
624.805	23.21
624.997	23.17
625.189	23.21
625.381	23.3
625.574	23.22
625.766	23.23
625.958	23.19
626.15	23.04
626.342	23.02
626.534	23
626.726	22.91
626.918	22.85
627.11	22.76
627.302	22.66
627.494	22.62
627.686	22.54
627.878	22.5
628.07	22.6
628.262	22.72
628.454	22.68
628.646	22.72
628.838	22.81
629.029	22.68
629.221	22.5
629.413	22.36
629.605	22.3
629.797	22.15
629.989	22.17
630.18	22.18
630.372	22.3
630.564	22.29
630.755	22.3
630.947	22.25
631.139	22.21
631.33	22.08
631.522	22.08
631.714	22.01
631.905	21.97
632.097	21.98
632.289	21.99
632.48	21.94
632.672	21.93
632.863	21.9
633.055	21.8
633.246	21.82
633.438	21.78
633.629	21.8
633.821	21.78
634.012	21.78
634.203	21.74
634.395	21.67
634.586	21.66
634.777	21.66
634.969	21.62
635.16	21.53
635.351	21.54
635.543	21.43
635.734	21.31
635.925	21.29
636.117	21.34
636.308	21.47
636.499	21.49
636.69	21.53
636.881	21.53
637.073	21.52
637.264	21.34
637.455	21.37
637.646	21.35
637.837	21.34
638.028	21.32
638.219	21.4
638.41	21.37
638.601	21.39
638.792	21.44
638.983	21.39
639.174	21.26
639.365	21.23
639.556	21.16
639.747	21
639.938	21.01
640.129	21
640.32	20.88
640.511	20.85
640.701	20.95
640.892	20.86
641.083	20.92
641.274	20.96
641.465	20.96
641.655	20.81
641.846	20.82
642.037	20.74
642.228	20.61
642.418	20.45
642.609	20.52
642.8	20.47
642.99	20.5
643.181	20.66
643.372	20.71
643.562	20.63
643.753	20.54
643.943	20.4
644.134	20.17
644.324	20.2
644.515	20.15
644.705	20.24
644.896	20.36
645.086	20.34
645.277	20.26
645.467	20.26
645.658	20.11
645.848	19.98
646.038	20.13
646.229	20.15
646.419	20.08
646.61	20.16
646.8	20.17
646.99	20.05
647.18	19.98
647.371	19.96
647.561	19.87
647.751	19.81
647.941	19.82
648.132	19.8
648.322	19.84
648.512	19.85
648.702	19.84
648.892	19.81
649.082	19.82
649.272	19.72
649.462	19.71
649.653	19.56
649.843	19.44
650.033	19.4
650.223	19.36
650.413	19.36
650.603	19.48
650.793	19.47
650.983	19.48
651.172	19.5
651.362	19.32
651.552	19.2
651.742	19.12
651.932	19.03
652.122	18.95
652.312	18.98
652.502	18.93
652.691	19
652.881	18.9
653.071	18.81
653.261	18.71
653.45	18.67
653.64	18.49
653.83	18.43
654.019	18.29
654.209	18.19
654.399	18.09
654.588	17.99
654.778	17.92
654.968	17.94
655.157	17.77
655.347	17.6
655.536	17.5
655.726	17.23
655.915	17.03
656.105	16.99
656.294	16.88
656.484	16.63
656.673	16.58
656.863	16.44
657.052	16.26
657.241	16.16
657.431	16.04
657.62	15.85
657.809	15.71
657.999	15.57
658.188	15.39
658.377	15.33
658.567	15.21
658.756	15.14
658.945	15
659.134	14.87
659.324	14.68
659.513	14.59
659.702	14.34
659.891	14.17
660.08	14.01
660.269	13.86
660.458	13.75
660.648	13.66
660.837	13.59
661.026	13.4
661.215	13.35
661.404	13.13
661.593	13
661.782	12.83
661.971	12.61
662.16	12.43
662.349	12.33
662.538	12.15
662.726	12.08
662.915	12.02
663.104	11.91
663.293	11.87
663.482	11.82
663.671	11.7
663.86	11.74
664.048	11.66
664.237	11.52
664.426	11.41
664.615	11.38
664.803	11.21
664.992	11.06
665.181	11.05
665.369	10.87
665.558	10.75
665.747	10.76
665.935	10.82
666.124	10.82
666.312	10.91
666.501	10.85
666.69	10.79
666.878	10.68
667.067	10.46
667.255	10.39
667.444	10.42
667.632	10.49
667.82	10.48
668.009	10.5
668.197	10.5
668.386	10.5
668.574	10.38
668.762	10.34
668.951	10.27
669.139	10.16
669.327	10.03
669.516	9.93
669.704	9.88
669.892	9.9
670.08	9.98
670.269	10.08
670.457	10.18
670.645	10.18
670.833	10.26
671.021	10.29
671.21	10.23
671.398	10.16
671.586	10.33
671.774	10.41
671.962	10.36
672.15	10.46
672.338	10.57
672.526	10.47
672.714	10.36
672.902	10.35
673.09	10.41
673.278	10.51
673.466	10.7
673.654	10.8
673.842	10.97
674.03	11.1
674.218	11.09
674.405	11.15
674.593	11.25
674.781	11.34
674.969	11.28
675.157	11.3
675.344	11.28
675.532	11.25
675.72	11.24
675.908	11.26
676.095	11.29
676.283	11.44
676.471	11.59
676.658	11.74
676.846	11.84
677.033	11.94
677.221	11.94
677.409	11.93
677.596	11.85
677.784	11.87
677.971	11.89
678.159	11.99
678.346	12.04
678.534	12.26
678.721	12.44
678.909	12.62
679.096	12.76
679.283	12.99
679.471	13.1
679.658	13.16
679.846	13.24
680.033	13.41
680.22	13.58
680.408	13.58
680.595	13.69
680.782	13.82
680.969	13.85
681.157	13.71
681.344	13.82
681.531	13.9
681.718	13.98
681.905	14.13
682.093	14.48
682.28	14.65
682.467	14.96
682.654	15.09
682.841	15.18
683.028	15.19
683.215	15.37
683.402	15.37
683.589	15.58
683.776	15.7
683.963	15.97
684.15	16.2
684.337	16.43
684.524	16.65
684.711	17.1
684.898	17.24
685.085	17.36
685.271	17.71
685.458	18.02
685.645	18.04
685.832	18.42
686.019	18.85
686.205	19.19
686.392	19.47
686.579	19.93
686.766	20.26
686.952	20.48
687.139	20.88
687.326	21.29
687.512	21.54
687.699	21.89
687.886	22.29
688.072	22.49
688.259	22.9
688.445	23.47
688.632	23.86
688.818	24.5
689.005	24.84
689.191	25.38
689.378	25.8
689.564	26.33
689.751	26.8
689.937	27.55
690.124	28.08
690.31	28.45
690.496	29.03
690.683	29.56
690.869	30.04
691.055	30.67
691.242	31.41
691.428	31.99
691.614	32.95
691.8	33.6
691.987	34.2
692.173	34.95
692.359	35.69
692.545	36.2
692.731	37.01
692.918	37.67
693.104	38.42
693.29	39.11
693.476	39.89
693.662	40.5
693.848	41.15
694.034	41.8
694.22	42.61
694.406	43
694.592	43.82
694.778	44.49
694.964	45.28
695.15	45.82
695.336	46.46
695.522	47.16
695.708	47.9
695.894	48.62
696.08	49.54
696.265	50.63
696.451	51.34
696.637	52.03
696.823	52.52
697.009	52.9
697.194	53.49
697.38	54.08
697.566	54.91
697.751	55.75
697.937	56.84
698.123	57.5
698.308	58.11
698.494	58.8
698.68	59.61
698.865	59.96
699.051	60.55
699.236	61.22
699.422	61.65
699.607	62.08
699.793	63.06
699.978	63.55
700.164	64.04
700.349	64.79
700.535	65.31
700.72	65.62
700.906	66.19
701.091	66.88
701.276	67.25
701.462	68.08
701.647	68.76
701.832	69.35
702.018	70.15
702.203	70.92
702.388	71.01
702.573	71.55
702.759	72.15
702.944	72.17
703.129	72.42
703.314	73.06
703.499	73.43
703.684	73.97
703.87	74.66
704.055	75.18
704.24	75.44
704.425	75.64
704.61	75.73
704.795	76.47
704.98	76.68
705.165	77.25
705.35	77.55
705.535	78.18
705.72	78.16
705.905	78.96
706.09	79.35
706.275	80.09
706.459	80.42
706.644	80.91
706.829	81.48
707.014	82.2
707.199	82.45
707.384	82.97
707.568	82.9
707.753	83.18
707.938	83.25
708.123	83.8
708.307	83.8
708.492	84.49
708.677	84.55
708.861	84.23
709.046	83.81
709.231	84.02
709.415	84.05
709.6	83.94
709.784	84.87
709.969	85.67
710.153	85.75
710.338	86.63
710.522	87.05
710.707	87.12
710.891	87.42
711.076	87.62
711.26	87.26
711.445	87.43
711.629	87.2
711.813	87.36
711.998	87.89
712.182	87.84
712.366	88.77
712.551	89.19
712.735	89
712.919	89.13
713.103	89.67
713.288	89.35
713.472	89.88
713.656	90.25
713.84	90.22
714.024	90.07
714.208	89.69
714.393	89.66
714.577	89.85
714.761	90.35
714.945	90.66
715.129	91.24
715.313	91.31
715.497	91.51
715.681	91.33
715.865	91.4
716.049	91.53
716.233	91.49
716.417	91.57
716.601	91.91
716.785	92.36
716.968	92.64
717.152	93.09
717.336	93.2
717.52	93.6
717.704	93.98
717.888	93.99
718.071	93.98
718.255	94.34
718.439	94.2
718.622	93.6
718.806	93.71
718.99	93.24
719.174	93.51
719.357	93.72
719.541	94.35
719.724	94.81
719.908	95.73
720.092	95.47
720.275	95.45
720.459	95.37
720.642	95.18
720.826	94.66
721.009	94.42
721.193	94.65
721.376	95.02
721.559	94.97
721.743	95.84
721.926	96.23
722.11	96.45
722.293	96.88
722.476	96.58
722.66	97.02
722.843	96.84
723.026	97.07
723.21	96.63
723.393	97.84
723.576	97.38
723.759	97.83
723.942	97.79
724.126	98.16
724.309	97.4
724.492	97.26
724.675	97.24
724.858	97.18
725.041	97.3
725.224	97.65
725.407	97.82
725.59	97.52
725.774	97.69
725.957	97.59
726.14	97.83
726.322	98.5
726.505	99.29
726.688	99.44
726.871	98.93
727.054	98.86
727.237	98.4
727.42	97.65
727.603	97.73
727.786	98.53
727.968	98.61
728.151	98.44
728.334	99.09
728.517	98.65
728.699	98.28
728.882	98.28
729.065	98.06
729.248	98.18
729.43	98.45
729.613	98.75
729.796	99.53
729.978	100.03
730.161	99.91
730.343	99.94
730.526	100.23
730.708	99.31
730.891	99.76
731.073	99.9
731.256	100.06
731.438	100.66
731.621	101.07
731.803	100.82
731.986	100.9
732.168	101.39
732.35	100.67
732.533	100.85
732.715	101.02
732.898	100.86
733.08	100.75
733.262	100.23
733.444	100.7
733.627	101.01
733.809	101.6
733.991	101.29
734.173	101.6
734.355	100.64
734.538	100.32
734.72	100.2
734.902	100.95
735.084	101.43
735.266	102.76
735.448	103.15
735.63	103.32
735.812	102.95
735.994	103.54
736.176	102.77
736.358	102.87
736.54	103.58
736.722	103.02
736.904	102.17
737.086	101.69
737.268	102.48
737.45	102.4
737.632	102.46
737.814	103.49
737.995	104.45
738.177	103.94
738.359	103.62
738.541	103.54
738.723	102.76
738.904	102.09
739.086	102.57
739.268	101.73
739.449	102.19
739.631	102.74
739.813	103.1
739.994	101.95
740.176	103.23
740.358	103.66
740.539	102.49
740.721	103.13
740.902	103.94
741.084	104.01
741.265	104.19
741.447	106.06
741.628	105.64
741.81	105.91
741.991	105.43
742.172	104.98
742.354	104.26
742.535	104.33
742.717	102.34
742.898	102.33
743.079	103.61
743.261	103.6
743.442	102.58
743.623	104.64
743.804	104.13
743.986	103.61
744.167	102.82
744.348	103.58
744.529	102.55
744.71	102.7
744.891	101.87
745.073	103.1
745.254	103.66
745.435	103.55
745.616	103.37
745.797	103.45
745.978	102.51
746.159	101.19
746.34	102.08
746.521	102.87
746.702	104.22
746.883	104.36
747.064	105.23
747.245	105.18
747.426	105.44
747.606	104.09
747.787	104.57
747.968	104
748.149	104.35
748.33	102.63
748.51	102.18
748.691	101.42
748.872	102.82
749.053	102.29
749.233	103.17
749.414	105
749.595	105.72
749.775	105.37
749.956	104.4
750.137	103.75
750.317	101.55
750.498	100.92
750.678	99.63
750.859	99.76
751.04	100.44
751.22	100.42
751.4	101.65
751.581	102.46
751.761	103.16
751.942	103.44
752.122	102.95
752.303	101.62
752.483	100.31
752.663	99.75
752.844	99.04
753.024	101.45
753.204	102.67
753.385	102.92
753.565	103.55
753.745	103.35
753.925	101.22
754.106	100.32
754.286	100.3
754.466	99.68
754.646	100.57
754.826	102.14
755.006	101.06
755.187	103.06
755.367	102.3
755.547	101.6
755.727	100.93
755.907	101.52
756.087	100.3
756.267	99.65
756.447	100.51
756.627	100.5
756.807	101.79
756.987	100.8
757.167	101.1
757.346	99.83
757.526	100
757.706	99.23
757.886	100.76
758.066	102.49
758.246	101.54
758.425	100.6
758.605	99.26
758.785	99.06
758.965	98.71
759.144	98.68
759.324	99.69
759.504	100.94
759.683	99.43
759.863	99.87
760.043	100.23
760.222	98.78
760.402	97.48
760.581	98.18
760.761	97.57
760.94	98.49
761.12	98.79
761.299	100.38
761.479	101.25
761.658	101.3
761.838	102.18
762.017	101.95
762.197	99.28
762.376	98.24
762.555	96.55
762.735	95.23
762.914	94.27
763.093	95.62
763.273	95.22
763.452	96.51
763.631	96.24
763.81	97.79
763.99	97.25
764.169	97.5
764.348	96.46
764.527	96.23
764.706	94.72
764.885	96.75
765.064	96.92
765.243	97.98
765.423	98.68
765.602	100.69
765.781	97.19
765.96	97.32
766.139	94.88
766.318	95.58
766.497	94.7
766.676	96.51
766.854	97.3
767.033	100.49
767.212	101.34
767.391	102.36
767.57	103.14
767.749	100.42
767.928	99.41
768.106	97.05
768.285	96.02
768.464	96.78
768.643	97.25
768.821	97.08
769	97.11
769.179	96.79
769.357	95.76
769.536	94.82
769.715	93.99
769.893	94.48
770.072	93.35
770.25	91.8
770.429	93.38
770.607	93.99
770.786	93.65
770.964	96.02
771.143	97.82
771.321	96.31
771.5	96.93
771.678	96.33
771.857	94.11
772.035	94.39
772.213	95.99
772.392	93.44
772.57	92.83
772.748	93.18
772.927	91.63
773.105	91.51
773.283	93.36
773.461	94.69
773.64	93.87
773.818	93.6
773.996	92.92
774.174	93.23
774.352	92.03
774.531	92.67
774.709	93.5
774.887	91.27
775.065	91.43
775.243	92.81
775.421	92.46
775.599	94.47
775.777	95.22
775.955	91.98
776.133	92.2
776.311	91.44
776.489	89.42
776.667	88.72
776.844	90.06
777.022	90.04
777.2	90.13
777.378	88.42
777.556	92.39
777.734	94.41
777.911	94.59
778.089	98.17
778.267	96.84
778.445	96.09
778.622	94.96
778.8	91.38
778.978	89.49
779.155	92.39
779.333	91.14
779.511	91.23
779.688	94
779.866	94.5
780.043	93.66
780.221	94.05
780.398	92.85
780.576	92.79
780.753	91.49
780.931	91.88
781.108	93.45
781.286	94.23
781.463	92.39
781.64	92.47
781.818	95.08
781.995	92.19
782.172	92.49
782.35	92.04
782.527	92.41
782.704	89.17
782.882	86.52
783.059	85.39
783.236	87.15
783.413	86.63
783.59	88.64
783.768	91.31
783.945	91.17
784.122	90.16
784.299	90.28
784.476	87.22
784.653	86.55
784.83	86.39
785.007	86.47
785.184	85.34
785.361	86.9
785.538	86.69
785.715	87.56
785.892	87.8
786.069	91.6
786.246	91.65
786.423	93.12
786.6	92.99
786.776	93.77
786.953	88.93
787.13	91.61
787.307	90.03
787.484	88.25
787.66	87.91
787.837	89.84
788.014	89.18
788.191	91.1
788.367	89.91
788.544	88.53
788.721	88.86
788.897	86.95
789.074	85.55
789.25	86.05
789.427	85.3
789.603	80.77
789.78	82.75
789.956	81.83
790.133	81.44
790.309	82.99
790.486	87.87
790.662	85.96
790.839	85.06
791.015	86.54
791.192	85.66
791.368	82.03
791.544	81.28
791.721	83.77
791.897	82.47
792.073	80.61
792.249	82.05
792.426	80
792.602	77.43
792.778	76.96
792.954	79.12
793.13	77.57
793.307	79.36
793.483	81.03
793.659	81.66
793.835	83.9
794.011	88.88
794.187	88.1
794.363	86.65
794.539	92.76
794.715	90.32
794.891	86.37
795.067	86.08
795.243	86.94
795.419	79.23
795.595	82.03
795.771	82.79
795.947	82.36
796.122	77.73
796.298	76.48
796.474	76.26
796.65	80.93
796.826	78.26
797.001	84.08
797.177	79.82
797.353	75.85
797.529	74.26
797.704	79.16
797.88	76.18
798.056	83.8
798.231	81.47
798.407	81.44
798.582	77.84
798.758	81.37
798.934	80.27
799.109	82.86
799.285	79.94
799.46	77.88
799.636	74.62
799.811	77.54
799.986	76.31
800.162	69.64
800.337	75.14
800.513	71.53
800.688	65.35
800.863	76.5
801.039	83.33
801.214	78.08
801.389	80.75
801.565	83.47
801.74	77.17
801.915	78.8
802.09	77.87
802.265	79.51
802.441	79.59
802.616	76.72
802.791	75.93
802.966	86.84
803.141	86.32
803.316	87.03
803.491	89.08
803.666	91.68
803.841	82.75
804.016	83.16
804.191	83.93
804.366	80.51
804.541	80.01
804.716	78.24
804.891	82.49
805.066	85.63
805.241	85.7
805.416	87.72
805.591	98.29
805.765	99.55
805.94	97.13
806.115	94.33
806.29	82.82
806.464	82.2
806.639	79.34
806.814	79.99
806.989	82.8
807.163	94.84
807.338	84.36
807.512	87.95
807.687	83.45
807.862	82.47
808.036	77.96
808.211	83.5
808.385	76.67
808.56	73.39
808.734	63.12
808.909	61.87
809.083	62.37
809.258	66.07
809.432	64.38
809.606	76.27
809.781	77.67
809.955	79.1
810.13	73.34
810.304	79.02
810.478	77.45
810.652	71.1
810.827	71.91
811.001	71.04
811.175	71.72
811.349	75.84
811.524	82.72
811.698	75.2
811.872	79.41
812.046	75.27
812.22	69.67
812.394	61.75
812.568	63.4
812.742	61.54
812.916	70.85
813.09	71.37
813.264	71.51
813.438	71.56
813.612	69.56
813.786	58.73
813.96	60.49
814.134	63.51
814.308	69.06
814.482	75.41
814.656	81.3
814.83	84.54
815.003	88.86
815.177	83.97
815.351	94.34
815.525	101.61
815.698	89.9
815.872	78.91
816.046	76.08
816.219	67.44
816.393	53.82
816.567	56.79
816.74	61.18
816.914	62.75
817.088	61.54
817.261	69.75
817.435	81.32
817.608	83.96
817.782	75.84
817.955	78.4
818.129	78.35
818.302	66.85
818.475	65.95
818.649	71.64
818.822	64.95
818.996	72.38
819.169	81.04
819.342	74.88
819.516	76.54
819.689	77.14
819.862	63.75
820.035	63.88
820.209	68.09
820.382	58.8
820.555	54
820.728	61.18
820.901	53.12
821.075	51.35
821.248	58.03
821.421	64.31
821.594	60.41
821.767	68.79
821.94	63.21
822.113	64.66
822.286	61.2
822.459	63.6
822.632	58.26
822.805	60.29
822.978	64.52
823.151	62.43
823.324	55.53
823.496	50.38
823.669	56.76
823.842	62.75
824.015	63.42
824.188	62.87
824.361	77.74
824.533	69.24
824.706	63.03
824.879	66.65
825.051	75.99
825.224	66.41
825.397	65.67
825.569	68.45
825.742	81.45
825.915	79.84
826.087	78.06
826.26	77.18
826.432	65.72
826.605	53.49
826.777	55.14
826.95	53.99
827.122	46.56
827.295	71.51
827.467	85.61
827.64	67.1
827.812	70.14
827.984	91.23
828.157	75.92
828.329	61.33
828.501	63.84
828.674	56.43
828.846	55.11
829.018	48.13
829.19	44.82
829.363	57.34
829.535	62.89
829.707	49.64
829.879	37.16
830.051	47.84
830.223	46.01
830.395	40.33
830.568	52.8
830.74	68.87
830.912	57.15
831.084	45.19
831.256	45.89
831.428	44.16
831.6	39.72
831.772	32.46
831.943	27.79
832.115	32.24
832.287	43.95
832.459	36.34
832.631	46.97
832.803	59.04
832.975	62.4
833.146	53.72
833.318	55.9
833.49	63.84
833.662	70.72
833.833	62.49
834.005	62.45
834.177	65.08
834.348	59.21
834.52	47.75
834.692	43.53
834.863	40.43
835.035	35.31
835.206	30.93
835.378	35.44
835.549	40.37
835.721	41.65
835.892	44.6
836.064	37.16
836.235	35.19
836.407	45.62
836.578	43.61
836.749	40.21
836.921	46.43
837.092	54.76
837.264	31.15
837.435	36.32
837.606	40.09
837.777	57.85
837.949	60.85
838.12	72.9
838.291	65.66
838.462	66.4
838.633	51.84
838.805	24.04
838.976	22.02
839.147	30.42
839.318	40.72
839.489	36.37
839.66	65.63
839.831	61.12
840.002	56.08
840.173	42.3
840.344	50.67
840.515	32.93
840.686	38.45
840.857	41.96
841.028	44.44
841.199	31.73
841.369	46.04
841.54	35.6
841.711	69.11
841.882	73.25
842.053	83.11
842.223	59.5
842.394	56.66
842.565	33.2
842.736	35.73
842.906	15.68
843.077	13.35
843.248	28.48
843.418	28.2
843.589	41.81
843.759	71.46
843.93	76.3
844.101	54.06
844.271	81.89
844.442	48.21
844.612	32.78
844.783	51.66
844.953	54.76
845.123	27.38
845.294	45.42
845.464	41.39
845.635	41.9
845.805	55.73
845.975	93.45
846.146	43.86
846.316	44.88
846.486	49.37
846.656	53.84
846.827	64.19
846.997	78.75
847.167	73.44
847.337	60.85
847.507	48.41
847.677	51.84
847.848	64.55
848.018	73.09
848.188	71.05
848.358	74.57
848.528	68.06
848.698	43.88
848.868	32.58
849.038	30.1
849.208	37.99
849.378	41.27
849.548	35.24
849.718	37.17
849.887	29.51
850.057	33.04
850.227	41.55
850.397	29.09
850.567	14.79
850.737	37.62
850.906	13.67
851.076	-17.29
851.246	7.97
851.415	26.26
851.585	14.02
851.755	39.55
851.924	61.55
852.094	56.33
852.264	50.06
852.433	61.26
852.603	47.15
852.772	50.07
852.942	69.44
853.111	50.75
853.281	50.29
853.45	46.59
853.62	51.25
853.789	21.95
853.959	44.86
854.128	34.46
854.297	47.38
854.467	40.93
854.636	45.95
854.805	54.43
854.975	47.05
855.144	41.49
855.313	55.98
855.482	47.5
855.652	34.04
855.821	7.81
855.99	-0.23
856.159	-10.01
856.328	-6.58
856.497	-2.95
856.667	23.95
856.836	33.98
857.005	27.58
857.174	26.9
857.343	27.26
857.512	20.11
857.681	17.45
857.85	12.57
858.019	-27.99
858.188	-42.42
858.356	-15.1
858.525	-5.5
858.694	11.56
858.863	21.52
859.032	29.01
859.201	2.45
859.369	-7.99
859.538	-3.09
859.707	-22.41
859.876	-10.23
860.044	30.13
860.213	47.82
860.382	53.99
860.55	55.97
860.719	73.83
860.888	57.32
861.056	36.35
861.225	6.52
861.393	8.25
861.562	-7.18
861.73	-20.86
861.899	-27.01
862.067	-30.68
862.236	-26.57
862.404	-4.04
862.572	8.15
862.741	30.95
862.909	37.31
863.078	62.03
863.246	25.84
863.414	32.38
863.582	14.69
863.751	20.65
863.919	19.01
864.087	39.23
864.255	39.54
864.424	43.05
864.592	51.02
864.76	52.85
864.928	44.89
865.096	37.15
865.264	44.25
865.432	24.04
865.6	6.87
865.768	-54.28
865.936	-50.5
866.104	-38.06
866.272	-107.45
866.44	-51.72
866.608	-4.71
866.776	20.57
866.944	39.25
867.112	43.17
867.28	38.83
867.448	44.25
867.615	35.18
867.783	7.97
867.951	-7.4
868.119	-0.66
868.286	30.96
868.454	37.53
868.622	45.72
868.789	58.27
868.957	49.71
869.125	31.7
869.292	-8.52
869.46	-3.15
869.627	-3.28
869.795	-47.52
869.963	-38.22
870.13	2.03
870.298	-4.01
870.465	1.88
870.632	37.26
870.8	43.53
870.967	36.46
871.135	53.78
871.302	49.15
871.469	44.94
871.637	52.58
871.804	52.87
871.971	36.98
872.139	27.08
872.306	-29.54
872.473	-62.06
872.64	-209.82
872.807	-175.44
872.975	-323.11
873.142	-62.98
873.309	-28.27
873.476	29.01
873.643	64.63
873.81	27.62
873.977	-8.48
874.144	37.77
874.311	-43.95
874.478	-75.79
874.645	-97.51
874.812	45.6
874.979	-12.37
875.146	13.64
875.313	19.02
875.48	91.61
875.647	23.86
875.813	18.72
875.98	46.56
876.147	16.84
876.314	-42.7
876.481	-29.89
876.647	30.05
876.814	-2.11
876.981	6.44
877.147	-14.56
877.314	-30.38
877.481	-32.32
877.647	-27.19
877.814	-32.32
877.98	4.69
878.147	37.84
878.314	32.92
878.48	42.36
878.647	34.67
878.813	35.63
878.979	10.16
879.146	23.38
879.312	46.5
879.479	61.29
879.645	38.87
879.811	39.04
879.978	37.73
880.144	34.1
880.31	29.63
880.477	39.71
880.643	41.56
880.809	55.67
880.975	13.19
881.142	-33.1
881.308	225.71
881.474	53.32
881.64	-6.94
881.806	6.65
881.972	32.88
882.138	56.31
882.304	32.05
882.47	1.9
882.636	-6.2
882.802	-21.52
882.968	-92.38
883.134	-38.69
883.3	-45.96
883.466	-57.72
883.632	-27.68
883.798	-74.49
883.964	-158.55
884.129	-894.76
884.295	-151.85
884.461	-194.61
884.627	-82.29
884.793	-90.09
884.958	-5.77
885.124	3.56
885.29	-33.36
885.455	20.44
885.621	-6.32
885.787	-5.49
885.952	-39.06
886.118	31.68
886.283	10.4
886.449	5.53
886.614	-11.8
886.78	20.74
886.945	-18.27
887.111	-32.71
887.276	-19.37
887.442	-75.75
887.607	-86.34
887.773	-24.44
887.938	-15.77
888.103	0.87
888.269	26.63
888.434	33.38
888.599	3.23
888.764	24.6
888.93	36.1
889.095	18.79
889.26	-3.22
889.425	20.01
889.59	9.07
889.756	-39.34
889.921	-11.29
890.086	29.15
890.251	36.9
890.416	2.88
890.581	29.3
890.746	69.39
890.911	37.49
891.076	23.99
891.241	24.67
891.406	7.46
891.571	-32.33
891.736	-76.83
891.901	23.83
892.065	25.6
892.23	69.12
892.395	34.94
892.56	38.52
892.725	100.94
892.889	240.65
893.054	45.77
893.219	6.9
893.384	-43.19
893.548	-163.15
893.713	-271.87
893.878	-373.61
