Data from Ofra_PS_T2_1A_6EV18_Reflection_3.txt Node
Date: Wed Jul 21 18:10:10 EDT 2021
User: Adam
Spectrometer: FLMT01687
Trigger mode: 0
Integration Time (sec): 1.100000E0
Scans to average: 2
Electric dark correction enabled: true
Nonlinearity correction enabled: false
Boxcar width: 2
XAxis mode: Wavelengths
Number of Pixels in Spectrum: 3648
>>>>>Begin Spectral Data<<<<<
179.494	488.8
179.716	561.65
179.937	592.34
180.158	591.25
180.38	1099.37
180.601	302.21
180.823	68.54
181.044	-130.33
181.265	11.76
181.486	-5.36
181.708	161.66
181.929	1728.57
182.15	-821.13
182.372	23.99
182.593	8.01
182.814	33.91
183.035	91.13
183.257	65.6
183.478	-50.64
183.699	-29.76
183.92	-56.31
184.141	-54.08
184.363	-92.07
184.584	-10.49
184.805	-11.19
185.026	30.62
185.247	38.02
185.468	26.47
185.689	7.05
185.91	21.03
186.132	1.01
186.353	1.85
186.574	37.34
186.795	44.4
187.016	1.84
187.237	0.47
187.458	-37.18
187.679	-65.8
187.9	-57.04
188.121	-64.6
188.342	-94.19
188.563	-38.08
188.784	-23.14
189.005	-43.67
189.226	2.83
189.447	-22.68
189.667	-245.15
189.888	-529.56
190.109	-1497.4
190.33	-796.13
190.551	-1219.47
190.772	-302.42
190.993	-258.71
191.214	-190.17
191.434	-101.68
191.655	-38.77
191.876	-91.83
192.097	-105.59
192.318	-183.4
192.538	-352.2
192.759	-209.63
192.98	-68.82
193.201	-32.99
193.421	1.34
193.642	32.73
193.863	25.5
194.083	-1.43
194.304	-6.09
194.525	-19.59
194.745	-56.01
194.966	-57.21
195.187	-54.94
195.407	-49.46
195.628	-89.22
195.848	-112.58
196.069	-119.46
196.29	-80.16
196.51	-119.24
196.731	-111.02
196.951	-129.48
197.172	-132.15
197.392	-169.31
197.613	-175.06
197.833	-182.4
198.054	-123.37
198.274	-71.43
198.495	-91.62
198.715	-54.35
198.936	-82.81
199.156	-89.77
199.377	-191.66
199.597	-158.26
199.817	-144.42
200.038	-69.39
200.258	-122.12
200.479	-62.06
200.699	-38.34
200.919	2.58
201.14	-15.7
201.36	-12.89
201.58	10.7
201.801	33.88
202.021	-0.06
202.241	-7.09
202.461	-5.46
202.682	-79.64
202.902	-168.09
203.122	-92.36
203.342	-74.95
203.563	-40.63
203.783	-13.01
204.003	-37
204.223	-61.83
204.443	5.71
204.663	-33.04
204.884	-7.02
205.104	26.41
205.324	50.74
205.544	42.34
205.764	53.4
205.984	35.82
206.204	20.34
206.424	16.81
206.644	-34.88
206.864	-25.97
207.084	-64.24
207.304	5.34
207.525	-95
207.745	-37.9
207.964	-13.84
208.184	-73.7
208.404	-122.37
208.624	-119.31
208.844	-121.89
209.064	-414.29
209.284	-377.2
209.504	-173.55
209.724	-35.54
209.944	-15.92
210.164	-0.73
210.384	9.15
210.604	-2.23
210.823	-57.58
211.043	-81.42
211.263	-44.26
211.483	-38
211.703	-89.14
211.922	-60.86
212.142	-3.8
212.362	-10.35
212.582	-8.19
212.801	-0.32
213.021	-21.45
213.241	-23.84
213.461	-56.35
213.68	-95.63
213.9	-80.77
214.12	-53.09
214.339	-123.63
214.559	-90.76
214.779	-29.43
214.998	-29.24
215.218	-88.61
215.438	-44.98
215.657	-80.5
215.877	-97.39
216.096	-57.16
216.316	-39.41
216.535	-49.06
216.755	-25.09
216.974	-125.54
217.194	-177.37
217.413	-163.27
217.633	-169.47
217.852	-297.89
218.072	-124.63
218.291	-57.85
218.511	3.25
218.73	-5.81
218.95	-17.07
219.169	-15.21
219.389	-60.19
219.608	-62.28
219.827	-74.38
220.047	-46.39
220.266	-35.43
220.485	-27.89
220.705	-26.13
220.924	-30.06
221.143	11.24
221.363	-7.74
221.582	14.92
221.801	25.63
222.021	38.37
222.24	-24.86
222.459	55.08
222.678	-23.19
222.897	-86.08
223.117	-157.07
223.336	-124.53
223.555	-119.98
223.774	-55.7
223.993	-55.76
224.213	17.88
224.432	-0.4
224.651	33.51
224.87	8.04
225.089	20.92
225.308	21.67
225.527	39.49
225.746	31.69
225.965	21.31
226.184	-8.42
226.404	8.75
226.623	-20.15
226.842	-18.14
227.061	4.13
227.28	17.23
227.499	-18.27
227.718	6.59
227.936	-3.68
228.155	9.4
228.374	-3.13
228.593	29.74
228.812	22.38
229.031	27.09
229.25	-34.86
229.469	-26.8
229.688	-19.94
229.907	3.12
230.125	-7.23
230.344	20.23
230.563	19.52
230.782	31.83
231.001	-33.28
231.22	-29.7
231.438	-17.2
231.657	-17.74
231.876	-55.14
232.095	4.85
232.313	25.09
232.532	2.15
232.751	-10.95
232.969	-37.93
233.188	-159.43
233.407	-77.56
233.625	-41.51
233.844	-65.85
234.063	-41.3
234.281	-0.25
234.5	-30.13
234.719	-26.73
234.937	-9.91
235.156	-0.74
235.374	0.65
235.593	-6.22
235.811	-7.07
236.03	2.17
236.249	-21.42
236.467	-39.56
236.686	-9.98
236.904	3.46
237.123	-22.98
237.341	-23.19
237.559	-18.88
237.778	-37.83
237.996	-80.3
238.215	-20.69
238.433	-6.06
238.652	-5.92
238.87	-28.93
239.088	-12.93
239.307	-18.51
239.525	-30.35
239.743	-58.9
239.962	-39.4
240.18	-61.93
240.398	-118.47
240.617	-121.32
240.835	-95.82
241.053	-80.46
241.271	-23.62
241.49	2.76
241.708	-4.46
241.926	-1.28
242.144	5.93
242.363	-46.85
242.581	-51.21
242.799	-31.47
243.017	-21.32
243.235	-38.16
243.453	-40.01
243.672	-47.36
243.89	-51.14
244.108	-70.19
244.326	-54.6
244.544	-41.71
244.762	-36.45
244.98	-22.31
245.198	-9.62
245.416	-39.88
245.634	-48.64
245.852	-53.84
246.07	-78.45
246.288	-88.27
246.506	-101.46
246.724	-95.11
246.942	-97.82
247.16	-41.61
247.378	-20.98
247.596	18.49
247.814	6.54
248.032	-0.97
248.25	-8.87
248.468	-5.21
248.685	-17.41
248.903	26.18
249.121	30.33
249.339	-4.39
249.557	-3.06
249.775	9.05
249.992	-67.51
250.21	-65.47
250.428	-35.79
250.646	-75.89
250.863	-101.41
251.081	-48.15
251.299	-43.21
251.517	-32.71
251.734	-10.38
251.952	12.52
252.17	0.44
252.387	11.54
252.605	-6.48
252.823	12.04
253.04	6.09
253.258	21.31
253.475	2.15
253.693	13.1
253.911	-11.26
254.128	-3.19
254.346	-26.13
254.563	-30.17
254.781	-39.68
254.998	-46.57
255.216	-45.15
255.433	-24.74
255.651	29.54
255.868	67.3
256.086	75.79
256.303	56.06
256.521	30.5
256.738	-6.29
256.956	-52.93
257.173	-82.1
257.39	-94.32
257.608	-104.83
257.825	6.29
258.043	81.76
258.26	63.48
258.477	88.9
258.695	86.74
258.912	-1.92
259.129	-27.14
259.346	-58.04
259.564	-100.65
259.781	-142.02
259.998	-72.31
260.216	-49.43
260.433	-5.06
260.65	-1.21
260.867	23.11
261.084	-4.11
261.302	-27.84
261.519	-39.01
261.736	-55.47
261.953	-77.4
262.17	-41.44
262.387	-66.28
262.604	-65
262.822	-49.72
263.039	-26.91
263.256	-74.4
263.473	-38.96
263.69	-32.05
263.907	-7.62
264.124	4.92
264.341	4.39
264.558	-1.88
264.775	2.89
264.992	-14.31
265.209	-13.24
265.426	16.28
265.643	15.93
265.86	21.33
266.077	20.47
266.294	-11.09
266.51	-50.39
266.727	-50.36
266.944	-52.26
267.161	-31.91
267.378	-30.42
267.595	-2.27
267.812	-17.56
268.028	-42.8
268.245	-39.14
268.462	-30.89
268.679	-29.15
268.896	18.95
269.112	23.63
269.329	13.87
269.546	11.56
269.763	-8.78
269.979	-35.68
270.196	-38.41
270.413	-78.27
270.629	-95.92
270.846	-92.75
271.063	-94.6
271.279	-94.97
271.496	-71.06
271.712	-32.33
271.929	-35.4
272.146	-55.99
272.362	-38
272.579	-8.07
272.795	-2.33
273.012	19.64
273.228	32.98
273.445	-15.86
273.661	-39.67
273.878	-90.23
274.094	-85.16
274.311	-115.55
274.527	-28.21
274.744	-36.97
274.96	-24.54
275.177	-16.9
275.393	14.35
275.609	1.8
275.826	38.86
276.042	41.4
276.259	18.18
276.475	16.57
276.691	10.78
276.908	-26.16
277.124	-12.84
277.34	-2.49
277.557	-21.6
277.773	-18.55
277.989	-9.67
278.205	-22.44
278.422	-8.11
278.638	5.91
278.854	30.61
279.07	34.46
279.286	20.65
279.503	2.97
279.719	-26.91
279.935	-76.18
280.151	-103.1
280.367	-59.94
280.583	-79.67
280.799	-61.88
281.016	-80.64
281.232	-33.3
281.448	-41.45
281.664	-15.01
281.88	-35.88
282.096	3.62
282.312	15.96
282.528	24.57
282.744	33.19
282.96	41.96
283.176	26.42
283.392	13.34
283.608	1.41
283.824	-0.32
284.04	3.65
284.256	4.1
284.471	-8.02
284.687	-4.9
284.903	10.55
285.119	31.83
285.335	10.49
285.551	7.96
285.767	-1.93
285.982	-24.17
286.198	-71.92
286.414	-7.35
286.63	14.59
286.846	35.67
287.061	17.73
287.277	49.1
287.493	8.33
287.709	6.74
287.924	-6.57
288.14	23.69
288.356	10.35
288.571	47.95
288.787	44.11
289.003	33.97
289.218	14.31
289.434	-15.1
289.65	-25.21
289.865	-38.79
290.081	-12.9
290.296	6.37
290.512	12.31
290.727	-12.55
290.943	-24.42
291.159	-34.56
291.374	-51.87
291.59	-70.43
291.805	-50.9
292.021	-20.09
292.236	-26.36
292.451	-3.79
292.667	-3.45
292.882	8.87
293.098	-18.84
293.313	-37
293.529	-68.9
293.744	-77.84
293.959	-76.53
294.175	-70.97
294.39	-26.01
294.605	-9.06
294.821	17.64
295.036	12.85
295.251	21.96
295.467	-20.92
295.682	-37.93
295.897	-98.58
296.112	-106.54
296.328	-86.2
296.543	-76.57
296.758	-94.3
296.973	-48.14
297.188	-1.86
297.404	-40.08
297.619	-50.69
297.834	-36.72
298.049	-53.13
298.264	-82.58
298.479	-14.79
298.694	-22.05
298.909	-6.17
299.125	1.58
299.34	0.57
299.555	-44.22
299.77	-14.77
299.985	-45.18
300.2	-89.85
300.415	-99.54
300.63	-47.54
300.845	-51.72
301.06	-48.54
301.275	-15.87
301.49	-4.76
301.704	-16.76
301.919	-38.33
302.134	-38.35
302.349	-39.98
302.564	-100.16
302.779	-146.45
302.994	-146.39
303.209	-130.91
303.423	-98.16
303.638	-6.5
303.853	-9.7
304.068	0.68
304.283	14.17
304.497	6.65
304.712	-6.5
304.927	-1.94
305.142	-14.36
305.356	-22.2
305.571	-34.05
305.786	-45.1
306	-80.74
306.215	-68.86
306.43	-70.63
306.644	-64.07
306.859	-14.23
307.074	14.99
307.288	-29.39
307.503	-53.96
307.717	-38.23
307.932	-46.19
308.147	-52.28
308.361	-35.46
308.576	-34.23
308.79	-89.92
309.005	-83.2
309.219	-62.88
309.434	-61.51
309.648	-50.46
309.863	-24.12
310.077	-26.13
310.292	-37.2
310.506	-32.55
310.72	-14.72
310.935	-12.74
311.149	-13.3
311.364	4.88
311.578	14.46
311.792	2.36
312.007	7.45
312.221	-5.79
312.435	-14.6
312.649	-21.79
312.864	-46.73
313.078	-16.79
313.292	56
313.507	9.55
313.721	7.19
313.935	30.74
314.149	3.96
314.363	-19.81
314.578	-3.66
314.792	-5.6
315.006	-19.77
315.22	4.22
315.434	4.07
315.648	15.94
315.862	15.9
316.077	24.59
316.291	6.26
316.505	11.79
316.719	1.19
316.933	-13.96
317.147	-13.96
317.361	-82.62
317.575	-94.23
317.789	-124.02
318.003	-197.71
318.217	-166.19
318.431	-64.37
318.645	-12.86
318.859	-9.95
319.073	10.88
319.287	-2.55
319.5	-15.22
319.714	-69.68
319.928	-109.04
320.142	-113.9
320.356	-52.4
320.57	-20.62
320.784	-31.19
320.997	-1.48
321.211	-17.14
321.425	-82.6
321.639	-115.67
321.853	-36.63
322.066	-23.15
322.28	-27.94
322.494	-16.71
322.707	7.54
322.921	-24.33
323.135	-20.5
323.349	-10.59
323.562	-35.18
323.776	-64.34
323.989	-47.61
324.203	-86.66
324.417	-77.2
324.63	-76.95
324.844	-73.52
325.057	-74.81
325.271	-46.99
325.485	-25.99
325.698	-6.54
325.912	6.22
326.125	-17.58
326.339	-3.53
326.552	-38.98
326.766	-28.6
326.979	-16.9
327.193	18.5
327.406	1.33
327.619	10.44
327.833	11.42
328.046	-11.17
328.26	-39.03
328.473	-37.39
328.686	-62.83
328.9	-67.05
329.113	-42.49
329.326	-70.36
329.54	-47.94
329.753	-71.19
329.966	-86.85
330.179	-89.03
330.393	-53.71
330.606	-34.16
330.819	1.39
331.032	7.11
331.246	12.81
331.459	37.48
331.672	21.95
331.885	11.54
332.098	8.31
332.311	2.6
332.525	-57.79
332.738	-47.54
332.951	-28.2
333.164	-12.35
333.377	-3.86
333.59	19.1
333.803	35.09
334.016	18.29
334.229	7.45
334.442	17.62
334.655	39.91
334.868	18.63
335.081	29.61
335.294	20.1
335.507	-4.36
335.72	-20.29
335.933	-34.38
336.146	-45.34
336.359	-41.89
336.572	-47.86
336.785	-76.48
336.997	-59
337.21	-44.62
337.423	-41.72
337.636	-45.78
337.849	-14.92
338.062	-22.34
338.274	-19.16
338.487	-38.74
338.7	-34.3
338.913	-72.61
339.125	-88.28
339.338	-144.29
339.551	-94.53
339.763	-60.17
339.976	-26.32
340.189	-6.06
340.402	15.89
340.614	-3
340.827	-13
341.039	-46.23
341.252	-32.85
341.465	-11.97
341.677	-16.27
341.89	-42.87
342.102	-9.61
342.315	-33.54
342.527	-80.8
342.74	-71.95
342.952	-42.39
343.165	-51.1
343.377	-19.75
343.59	-13.93
343.802	4.62
344.015	2.33
344.227	15.64
344.44	3.09
344.652	0.7
344.864	-10.32
345.077	15.24
345.289	11.23
345.502	8.61
345.714	-1.61
345.926	-0.59
346.139	-20
346.351	-13.05
346.563	2.05
346.775	14.84
346.988	11.02
347.2	2
347.412	-45.24
347.624	-76.19
347.837	-103.08
348.049	-68.07
348.261	-22.01
348.473	3.85
348.685	5.72
348.897	13.56
349.11	-19.76
349.322	-68.33
349.534	-73.76
349.746	-56.13
349.958	-48.33
350.17	-37.09
350.382	-1.79
350.594	2.54
350.806	-1.29
351.018	-7.75
351.23	-31.54
351.442	-70.28
351.654	-79.46
351.866	-74.89
352.078	-55.12
352.29	-17.6
352.502	-9.02
352.714	4.44
352.926	-3.86
353.138	-3.89
353.35	-15.5
353.561	-11.41
353.773	-38.07
353.985	-20.24
354.197	-32.17
354.409	-38.39
354.621	-46.18
354.832	-24.68
355.044	-43
355.256	-42.13
355.468	-19.93
355.679	-21.29
355.891	-26.11
356.103	-40.23
356.314	-25.03
356.526	-32.15
356.738	-33.84
356.949	-53.45
357.161	-20.68
357.373	-41.78
357.584	-50.16
357.796	-39.43
358.008	-30.74
358.219	-16.13
358.431	-17.44
358.642	-6.2
358.854	-7.52
359.065	-12.4
359.277	-51.53
359.488	-45.81
359.7	-71.48
359.911	-73.56
360.123	-47.51
360.334	-50.41
360.546	-65.7
360.757	-59.5
360.969	-51.47
361.18	-48.09
361.391	-29.56
361.603	-35.81
361.814	-27.23
362.025	-13.27
362.237	-16.76
362.448	-7.58
362.659	17.35
362.871	5.99
363.082	5.23
363.293	1.22
363.504	-8.31
363.716	-22.51
363.927	-22.77
364.138	-54
364.349	-59.1
364.56	-49.76
364.772	-53.82
364.983	-28.67
365.194	-21.38
365.405	-7.22
365.616	4.34
365.827	8.9
366.038	-19.78
366.25	-39.43
366.461	-78.69
366.672	-42.91
366.883	-20.72
367.094	-10.54
367.305	-5
367.516	3.09
367.727	-34.81
367.938	-49.93
368.149	-34.23
368.36	-22.03
368.571	-24.99
368.781	-27.38
368.992	-46.64
369.203	-82.16
369.414	-104.32
369.625	-109.98
369.836	-96.61
370.047	-109.66
370.258	-69.13
370.468	-68.68
370.679	-72.13
370.89	-57.81
371.101	-29.39
371.312	-42.22
371.522	-22.3
371.733	-11.69
371.944	-10.36
372.155	3.16
372.365	-2.89
372.576	-6.22
372.787	-10.85
372.997	-38.25
373.208	-47.61
373.419	-13.86
373.629	-49.32
373.84	-57.62
374.05	-74.51
374.261	-50.42
374.472	-66.65
374.682	-10.8
374.893	-1.06
375.103	47.37
375.314	27.86
375.524	16.03
375.735	5.12
375.945	11.51
376.156	-26.72
376.366	-18.72
376.577	-17.62
376.787	-20.72
376.997	-25.71
377.208	-18.17
377.418	-42.45
377.629	-21.32
377.839	-16.11
378.049	-15.15
378.26	-0.7
378.47	11.24
378.68	-4.61
378.89	-18.08
379.101	-22.78
379.311	-53.09
379.521	-78.88
379.732	-81.48
379.942	-85.18
380.152	-98.45
380.362	-62.54
380.572	-55.06
380.783	-32.29
380.993	-7.01
381.203	10.39
381.413	14.61
381.623	22.27
381.833	14.32
382.043	4.14
382.253	-10.36
382.463	-5.76
382.674	-12.59
382.884	-30.4
383.094	-30.55
383.304	-24.71
383.514	-19.88
383.724	-15.71
383.934	-17
384.144	-23.63
384.353	-27.25
384.563	-39.47
384.773	-27.96
384.983	-28.94
385.193	-10.58
385.403	-8.48
385.613	-2.38
385.823	-18.33
386.033	-17.2
386.242	-27.49
386.452	-27.89
386.662	-36.83
386.872	-18.46
387.082	-21.12
387.291	-27.37
387.501	-24.51
387.711	-17.43
387.921	-31.18
388.13	-26
388.34	-10.13
388.55	-11.04
388.759	-12.01
388.969	0.24
389.179	-2.29
389.388	-7.15
389.598	-1.93
389.807	-7.34
390.017	-15.72
390.227	-12.34
390.436	-11.73
390.646	-14.4
390.855	-9.66
391.065	-5.91
391.274	-5.9
391.484	-7.31
391.693	-5.93
391.903	-4.58
392.112	-0.85
392.322	0.73
392.531	4.67
392.74	5.72
392.95	-0.26
393.159	-2.99
393.369	-2.44
393.578	-5.18
393.787	-7.51
393.997	-3.15
394.206	-5.74
394.415	-6.04
394.625	-5.17
394.834	-6.02
395.043	-5.23
395.252	-1.45
395.462	0.3
395.671	1.02
395.88	2.01
396.089	2.89
396.298	0.75
396.508	0.15
396.717	-0.97
396.926	-0.23
397.135	-1.61
397.344	-1.21
397.553	-0.77
397.762	1.15
397.971	1.49
398.181	1.67
398.39	1.1
398.599	0.91
398.808	0.53
399.017	0.87
399.226	2.31
399.435	3.82
399.644	3.88
399.853	3.06
400.062	2.47
400.27	1.76
400.479	1.36
400.688	0.32
400.897	0.67
401.106	0.7
401.315	0.69
401.524	0.91
401.733	1.55
401.941	1.86
402.15	2.03
402.359	1.92
402.568	2.1
402.777	2.48
402.985	2.42
403.194	2.41
403.403	2.39
403.612	1.63
403.82	1.26
404.029	1.44
404.238	1.33
404.446	1.7
404.655	1.63
404.864	1.84
405.072	1.53
405.281	1.67
405.489	1.3
405.698	1.42
405.906	1.29
406.115	1.32
406.324	1.2
406.532	1.48
406.741	1.83
406.949	1.91
407.158	1.91
407.366	2.02
407.574	1.97
407.783	1.99
407.991	1.72
408.2	1.96
408.408	1.84
408.617	1.69
408.825	1.4
409.033	1.62
409.242	1.49
409.45	1.65
409.658	1.55
409.867	1.69
410.075	1.49
410.283	1.39
410.491	1.32
410.7	1.37
410.908	1.38
411.116	1.74
411.324	1.7
411.533	1.61
411.741	1.77
411.949	1.8
412.157	1.54
412.365	1.58
412.573	1.63
412.781	1.68
412.99	1.48
413.198	1.64
413.406	1.67
413.614	1.58
413.822	1.39
414.03	1.49
414.238	1.35
414.446	1.42
414.654	1.28
414.862	1.37
415.07	1.5
415.278	1.74
415.486	1.55
415.694	1.81
415.902	1.75
416.109	1.47
416.317	1.31
416.525	1.17
416.733	1.13
416.941	1.24
417.149	1.22
417.357	1.21
417.564	1.46
417.772	1.53
417.98	1.38
418.188	1.53
418.395	1.62
418.603	1.66
418.811	1.45
419.019	1.34
419.226	1.59
419.434	1.66
419.642	1.5
419.849	1.72
420.057	1.95
420.265	1.7
420.472	1.39
420.68	1.38
420.887	1.17
421.095	1.15
421.302	1.05
421.51	1.32
421.717	1.44
421.925	1.59
422.132	1.41
422.34	1.35
422.547	1.28
422.755	1.19
422.962	1.06
423.17	1.16
423.377	1.27
423.585	1.32
423.792	1.38
423.999	1.52
424.207	1.47
424.414	1.56
424.621	1.5
424.829	1.44
425.036	1.34
425.243	1.49
425.451	1.32
425.658	1.06
425.865	1.14
426.072	1.14
426.28	1.2
426.487	1.27
426.694	1.39
426.901	1.27
427.108	1.16
427.315	1.04
427.523	1.16
427.73	1.19
427.937	1.2
428.144	1.2
428.351	1.15
428.558	1.34
428.765	1.26
428.972	1.19
429.179	1.36
429.386	1.61
429.593	1.26
429.8	1.24
430.007	1.38
430.214	1.34
430.421	1.12
430.628	0.97
430.835	0.89
431.042	0.97
431.249	1.07
431.456	1.08
431.662	1.2
431.869	1.32
432.076	1.38
432.283	1.41
432.49	1.46
432.697	1.55
432.903	1.45
433.11	1.38
433.317	1.4
433.524	1.63
433.73	1.59
433.937	1.87
434.144	1.73
434.35	1.66
434.557	1.24
434.764	1.25
434.97	1.08
435.177	1.27
435.384	1.08
435.59	1.28
435.797	1.5
436.003	1.52
436.21	1.47
436.416	1.65
436.623	1.62
436.829	1.59
437.036	1.67
437.242	1.69
437.449	1.63
437.655	1.65
437.862	1.57
438.068	1.41
438.275	1.54
438.481	1.72
438.687	1.66
438.894	1.64
439.1	1.71
439.307	1.83
439.513	1.66
439.719	1.71
439.926	1.77
440.132	1.78
440.338	1.45
440.544	1.6
440.751	1.59
440.957	1.67
441.163	1.63
441.369	1.75
441.575	1.54
441.782	1.52
441.988	1.42
442.194	1.39
442.4	1.37
442.606	1.72
442.812	1.83
443.018	1.85
443.224	1.92
443.431	2.01
443.637	1.64
443.843	1.53
444.049	1.53
444.255	1.46
444.461	1.44
444.667	1.5
444.873	1.67
445.079	1.63
445.284	1.75
445.49	1.56
445.696	1.43
445.902	1.32
446.108	1.25
446.314	1.13
446.52	1.24
446.726	1.53
446.931	1.58
447.137	1.66
447.343	1.79
447.549	1.66
447.755	1.49
447.96	1.49
448.166	1.48
448.372	1.39
448.578	1.54
448.783	1.53
448.989	1.57
449.195	1.76
449.4	1.77
449.606	1.69
449.812	1.63
450.017	1.63
450.223	1.46
450.428	1.34
450.634	1.43
450.84	1.67
451.045	1.57
451.251	1.45
451.456	1.83
451.662	1.93
451.867	1.86
452.073	1.86
452.278	2.05
452.483	2.01
452.689	1.87
452.894	1.92
453.1	1.97
453.305	1.84
453.51	1.77
453.716	1.68
453.921	1.61
454.127	1.51
454.332	1.52
454.537	1.42
454.742	1.51
454.948	1.46
455.153	1.48
455.358	1.54
455.563	1.71
455.769	1.85
455.974	1.86
456.179	1.78
456.384	1.72
456.589	1.62
456.795	1.35
457	1.32
457.205	1.58
457.41	1.58
457.615	1.56
457.82	1.66
458.025	1.71
458.23	1.55
458.435	1.64
458.64	1.54
458.845	1.65
459.05	1.62
459.255	1.62
459.46	1.52
459.665	1.57
459.87	1.52
460.075	1.51
460.28	1.58
460.485	1.7
460.69	1.8
460.895	1.66
461.099	1.62
461.304	1.69
461.509	1.69
461.714	1.57
461.919	1.72
462.123	1.68
462.328	1.68
462.533	1.58
462.738	1.71
462.942	1.69
463.147	1.76
463.352	1.77
463.556	1.85
463.761	1.82
463.966	1.87
464.17	1.9
464.375	1.78
464.58	1.72
464.784	1.64
464.989	1.56
465.193	1.54
465.398	1.61
465.602	1.72
465.807	1.7
466.011	1.78
466.216	1.83
466.42	1.81
466.625	1.73
466.829	1.84
467.034	1.86
467.238	2.03
467.443	2.01
467.647	2.01
467.851	2.11
468.056	2.12
468.26	2.01
468.464	2.01
468.669	2.16
468.873	2.17
469.077	2.1
469.282	2.15
469.486	2.24
469.69	2.16
469.894	1.97
470.099	2.07
470.303	2.1
470.507	2
470.711	1.9
470.915	1.98
471.119	1.89
471.324	1.8
471.528	1.83
471.732	1.89
471.936	1.84
472.14	1.95
472.344	1.95
472.548	1.99
472.752	2.21
472.956	2.47
473.16	2.39
473.364	2.39
473.568	2.37
473.772	2.28
473.976	2.14
474.18	2.16
474.384	2.14
474.588	2.12
474.792	2.04
474.995	2.04
475.199	2.09
475.403	2.15
475.607	2.19
475.811	2.18
476.015	2.21
476.218	2.31
476.422	2.25
476.626	2.35
476.83	2.46
477.033	2.42
477.237	2.29
477.441	2.33
477.644	2.25
477.848	2.2
478.052	2.19
478.255	2.2
478.459	2.22
478.663	2.34
478.866	2.33
479.07	2.36
479.273	2.54
479.477	2.57
479.681	2.49
479.884	2.46
480.088	2.42
480.291	2.31
480.495	2.33
480.698	2.36
480.901	2.42
481.105	2.5
481.308	2.48
481.512	2.44
481.715	2.53
481.919	2.6
482.122	2.64
482.325	2.61
482.529	2.66
482.732	2.67
482.935	2.57
483.138	2.46
483.342	2.58
483.545	2.66
483.748	2.6
483.952	2.7
484.155	2.87
484.358	2.9
484.561	2.82
484.764	2.79
484.967	2.85
485.171	2.86
485.374	2.79
485.577	2.92
485.78	2.97
485.983	2.86
486.186	2.74
486.389	2.7
486.592	2.59
486.795	2.61
486.998	2.66
487.201	2.73
487.404	2.8
487.607	2.89
487.81	2.88
488.013	2.9
488.216	2.91
488.419	2.94
488.622	2.81
488.825	2.79
489.028	2.82
489.231	2.76
489.433	2.67
489.636	2.67
489.839	2.7
490.042	2.59
490.245	2.52
490.447	2.63
490.65	2.67
490.853	2.64
491.056	2.72
491.258	2.84
491.461	2.82
491.664	2.84
491.866	2.83
492.069	2.94
492.272	2.88
492.474	2.96
492.677	3.01
492.879	3.07
493.082	3.12
493.285	3.3
493.487	3.2
493.69	3.14
493.892	3.05
494.095	2.92
494.297	2.82
494.5	2.9
494.702	2.92
494.905	3.01
495.107	3.04
495.309	3.11
495.512	3.15
495.714	3.23
495.917	3.29
496.119	3.29
496.321	3.35
496.524	3.31
496.726	3.27
496.928	3.25
497.13	3.25
497.333	3.21
497.535	3.26
497.737	3.25
497.939	3.26
498.142	3.3
498.344	3.25
498.546	3.17
498.748	3.22
498.95	3.3
499.152	3.29
499.355	3.35
499.557	3.46
499.759	3.53
499.961	3.53
500.163	3.59
500.365	3.53
500.567	3.59
500.769	3.56
500.971	3.53
501.173	3.45
501.375	3.62
501.577	3.54
501.779	3.53
501.981	3.6
502.183	3.67
502.385	3.59
502.587	3.55
502.788	3.6
502.99	3.56
503.192	3.58
503.394	3.57
503.596	3.64
503.798	3.69
503.999	3.78
504.201	3.82
504.403	3.92
504.605	3.93
504.806	3.88
505.008	3.77
505.21	3.78
505.411	3.73
505.613	3.78
505.815	3.81
506.016	3.92
506.218	4.02
506.42	4.03
506.621	4.05
506.823	4.09
507.024	4.06
507.226	3.99
507.427	4.02
507.629	4
507.83	4.03
508.032	4.05
508.233	4.14
508.435	4.25
508.636	4.32
508.838	4.32
509.039	4.34
509.24	4.3
509.442	4.33
509.643	4.26
509.845	4.27
510.046	4.32
510.247	4.42
510.448	4.37
510.65	4.47
510.851	4.56
511.052	4.58
511.254	4.54
511.455	4.63
511.656	4.7
511.857	4.73
512.058	4.75
512.26	4.78
512.461	4.78
512.662	4.72
512.863	4.66
513.064	4.67
513.265	4.7
513.466	4.71
513.667	4.73
513.868	4.75
514.069	4.8
514.27	4.83
514.471	4.77
514.672	4.84
514.873	4.82
515.074	4.85
515.275	4.75
515.476	4.79
515.677	4.76
515.878	4.91
516.079	4.88
516.28	4.95
516.481	5.04
516.682	5.08
516.882	4.95
517.083	4.92
517.284	4.92
517.485	4.91
517.686	4.84
517.886	4.88
518.087	4.97
518.288	5.04
518.488	4.98
518.689	5.02
518.89	4.98
519.091	4.97
519.291	4.89
519.492	4.98
519.692	5.02
519.893	5.13
520.094	5.13
520.294	5.18
520.495	5.09
520.695	5.12
520.896	5.1
521.096	5.12
521.297	5.12
521.497	5.18
521.698	5.13
521.898	5.11
522.099	5.13
522.299	5.22
522.499	5.17
522.7	5.23
522.9	5.23
523.101	5.25
523.301	5.21
523.501	5.2
523.702	5.15
523.902	5.2
524.102	5.27
524.302	5.24
524.503	5.31
524.703	5.35
524.903	5.37
525.103	5.3
525.304	5.4
525.504	5.44
525.704	5.5
525.904	5.5
526.104	5.51
526.304	5.49
526.504	5.49
526.705	5.47
526.905	5.49
527.105	5.49
527.305	5.49
527.505	5.44
527.705	5.41
527.905	5.39
528.105	5.42
528.305	5.37
528.505	5.41
528.705	5.53
528.905	5.51
529.105	5.48
529.304	5.62
529.504	5.7
529.704	5.65
529.904	5.73
530.104	5.8
530.304	5.79
530.503	5.74
530.703	5.66
530.903	5.56
531.103	5.57
531.303	5.53
531.502	5.59
531.702	5.77
531.902	5.84
532.101	5.83
532.301	5.84
532.501	5.75
532.7	5.63
532.9	5.66
533.1	5.64
533.299	5.67
533.499	5.77
533.698	5.82
533.898	5.86
534.097	5.89
534.297	5.96
534.496	5.95
534.696	5.96
534.895	6.03
535.095	6.14
535.294	6.11
535.494	6.05
535.693	6.08
535.892	6.07
536.092	5.94
536.291	5.96
536.491	6.07
536.69	6.09
536.889	6.02
537.088	6.1
537.288	6.11
537.487	6.19
537.686	6.2
537.886	6.28
538.085	6.3
538.284	6.46
538.483	6.39
538.682	6.48
538.882	6.5
539.081	6.55
539.28	6.38
539.479	6.4
539.678	6.29
539.877	6.38
540.076	6.38
540.275	6.41
540.474	6.52
540.673	6.68
540.872	6.65
541.071	6.73
541.27	6.8
541.469	6.85
541.668	6.83
541.867	6.87
542.066	6.9
542.265	6.97
542.464	6.91
542.663	6.97
542.862	7.07
543.06	7.12
543.259	7.15
543.458	7.26
543.657	7.29
543.856	7.3
544.054	7.27
544.253	7.27
544.452	7.23
544.651	7.33
544.849	7.32
545.048	7.42
545.247	7.44
545.445	7.5
545.644	7.45
545.843	7.46
546.041	7.45
546.24	7.58
546.438	7.66
546.637	7.77
546.836	7.95
547.034	8.07
547.233	8.08
547.431	8.15
547.63	8.19
547.828	8.14
548.027	8.18
548.225	8.17
548.423	8.15
548.622	8.2
548.82	8.21
549.019	8.22
549.217	8.35
549.415	8.42
549.614	8.48
549.812	8.57
550.01	8.58
550.209	8.63
550.407	8.68
550.605	8.71
550.803	8.87
551.002	9.01
551.2	9.06
551.398	9.2
551.596	9.33
551.794	9.3
551.993	9.36
552.191	9.45
552.389	9.58
552.587	9.66
552.785	9.74
552.983	9.85
553.181	9.92
553.379	9.92
553.577	9.93
553.775	10.13
553.973	10.23
554.171	10.35
554.369	10.39
554.567	10.45
554.765	10.44
554.963	10.53
555.161	10.52
555.359	10.64
555.557	10.8
555.755	10.87
555.952	10.95
556.15	11.02
556.348	11.11
556.546	11.18
556.744	11.23
556.941	11.21
557.139	11.42
557.337	11.51
557.535	11.58
557.732	11.77
557.93	12.01
558.128	12.07
558.325	12.13
558.523	12.23
558.721	12.31
558.918	12.29
559.116	12.4
559.313	12.47
559.511	12.55
559.708	12.57
559.906	12.71
560.104	12.71
560.301	12.9
560.498	12.98
560.696	13.11
560.893	13.22
561.091	13.39
561.288	13.5
561.486	13.61
561.683	13.7
561.88	13.76
562.078	13.89
562.275	13.88
562.473	13.98
562.67	14.16
562.867	14.31
563.064	14.43
563.262	14.57
563.459	14.65
563.656	14.75
563.853	14.82
564.051	14.86
564.248	14.98
564.445	15.09
564.642	15.1
564.839	15.24
565.036	15.46
565.234	15.63
565.431	15.75
565.628	15.88
565.825	15.96
566.022	16.03
566.219	16.09
566.416	16.23
566.613	16.35
566.81	16.51
567.007	16.43
567.204	16.53
567.401	16.56
567.598	16.65
567.795	16.68
567.991	16.88
568.188	16.95
568.385	17.17
568.582	17.29
568.779	17.36
568.976	17.44
569.172	17.59
569.369	17.53
569.566	17.59
569.763	17.66
569.96	17.67
570.156	17.7
570.353	17.72
570.55	17.76
570.746	17.79
570.943	17.89
571.14	17.92
571.336	18.06
571.533	18.13
571.729	18.18
571.926	18.23
572.123	18.31
572.319	18.4
572.516	18.38
572.712	18.44
572.909	18.47
573.105	18.62
573.302	18.6
573.498	18.79
573.695	18.79
573.891	18.84
574.087	18.8
574.284	18.73
574.48	18.67
574.677	18.76
574.873	18.81
575.069	18.85
575.266	18.97
575.462	18.93
575.658	19.1
575.854	19.17
576.051	19.17
576.247	19.18
576.443	19.23
576.639	19.07
576.835	18.99
577.032	18.92
577.228	19.06
577.424	19.14
577.62	19.11
577.816	19.2
578.012	19.23
578.208	19.1
578.404	19.13
578.6	19.19
578.796	19.26
578.993	19.24
579.189	19.26
579.384	19.13
579.58	19.06
579.776	18.99
579.972	18.93
580.168	18.82
580.364	18.89
580.56	18.95
580.756	18.9
580.952	18.91
581.148	18.99
581.343	19
581.539	18.97
581.735	18.92
581.931	18.98
582.127	18.98
582.322	18.91
582.518	19.04
582.714	19.09
582.909	19.09
583.105	19.04
583.301	19.06
583.496	18.97
583.692	18.94
583.888	18.83
584.083	18.86
584.279	18.87
584.474	18.8
584.67	18.88
584.866	18.93
585.061	18.84
585.257	18.87
585.452	18.93
585.648	18.83
585.843	18.82
586.039	18.86
586.234	18.82
586.429	18.69
586.625	18.73
586.82	18.71
587.015	18.65
587.211	18.6
587.406	18.68
587.601	18.64
587.797	18.63
587.992	18.69
588.187	18.77
588.383	18.7
588.578	18.7
588.773	18.71
588.968	18.73
589.163	18.76
589.359	18.79
589.554	18.85
589.749	18.93
589.944	19.02
590.139	19.04
590.334	19.1
590.529	19.15
590.724	19.26
590.919	19.28
591.114	19.27
591.309	19.38
591.504	19.41
591.699	19.42
591.894	19.48
592.089	19.51
592.284	19.58
592.479	19.68
592.674	19.64
592.869	19.64
593.064	19.75
593.259	19.88
593.454	19.97
593.648	20.09
593.843	20.1
594.038	20.11
594.233	19.95
594.428	19.94
594.622	19.86
594.817	20.1
595.012	20.18
595.206	20.26
595.401	20.31
595.596	20.45
595.79	20.43
595.985	20.56
596.18	20.7
596.374	20.81
596.569	20.88
596.763	20.99
596.958	20.95
597.153	21.06
597.347	21.01
597.542	21.11
597.736	21.17
597.931	21.29
598.125	21.36
598.319	21.54
598.514	21.48
598.708	21.44
598.903	21.44
599.097	21.4
599.291	21.4
599.486	21.51
599.68	21.58
599.874	21.74
600.069	21.81
600.263	21.85
600.457	21.89
600.651	21.98
600.846	21.95
601.04	21.96
601.234	22.01
601.428	22.14
601.622	22.15
601.817	22.21
602.011	22.27
602.205	22.3
602.399	22.27
602.593	22.31
602.787	22.32
602.981	22.37
603.175	22.47
603.369	22.51
603.563	22.55
603.757	22.6
603.951	22.61
604.145	22.56
604.339	22.65
604.533	22.53
604.727	22.43
604.921	22.36
605.115	22.33
605.309	22.27
605.502	22.35
605.696	22.41
605.89	22.42
606.084	22.32
606.278	22.19
606.471	21.98
606.665	21.79
606.859	21.63
607.053	21.6
607.246	21.55
607.44	21.63
607.634	21.52
607.827	21.63
608.021	21.51
608.214	21.42
608.408	21.32
608.602	21.38
608.795	21.28
608.989	21.22
609.182	21.25
609.376	21.31
609.569	21.18
609.763	21.01
609.956	20.96
610.15	20.83
610.343	20.65
610.537	20.63
610.73	20.69
610.923	20.66
611.117	20.65
611.31	20.61
611.504	20.65
611.697	20.51
611.89	20.44
612.083	20.37
612.277	20.29
612.47	20.12
612.663	20.15
612.856	20.03
613.05	19.82
613.243	19.69
613.436	19.55
613.629	19.36
613.822	19.27
614.015	19.26
614.209	19.19
614.402	19.17
614.595	19.16
614.788	19.13
614.981	18.96
615.174	18.82
615.367	18.77
615.56	18.69
615.753	18.61
615.946	18.59
616.139	18.66
616.332	18.66
616.525	18.62
616.718	18.66
616.911	18.73
617.103	18.7
617.296	18.61
617.489	18.51
617.682	18.39
617.875	18.3
618.067	18.21
618.26	18.05
618.453	18.1
618.646	18.06
618.838	18.06
619.031	18.08
619.224	18.18
619.417	18.08
619.609	18.07
619.802	17.95
619.994	17.88
620.187	17.77
620.38	17.72
620.572	17.69
620.765	17.78
620.957	17.64
621.15	17.55
621.342	17.53
621.535	17.48
621.727	17.37
621.92	17.36
622.112	17.36
622.305	17.4
622.497	17.35
622.69	17.35
622.882	17.42
623.074	17.49
623.267	17.4
623.459	17.3
623.651	17.23
623.844	17.17
624.036	17.09
624.228	17.03
624.42	17.17
624.613	17.25
624.805	17.16
624.997	17.13
625.189	17.05
625.381	16.99
625.574	16.85
625.766	16.79
625.958	16.77
626.15	16.89
626.342	16.88
626.534	16.91
626.726	16.91
626.918	16.9
627.11	16.86
627.302	16.77
627.494	16.68
627.686	16.8
627.878	16.7
628.07	16.6
628.262	16.55
628.454	16.58
628.646	16.51
628.838	16.54
629.029	16.56
629.221	16.59
629.413	16.49
629.605	16.35
629.797	16.3
629.989	16.19
630.18	16.09
630.372	16.08
630.564	16.13
630.755	16.13
630.947	16.15
631.139	16
631.33	15.86
631.522	15.95
631.714	15.81
631.905	15.77
632.097	15.8
632.289	15.85
632.48	15.69
632.672	15.7
632.863	15.55
633.055	15.52
633.246	15.59
633.438	15.5
633.629	15.45
633.821	15.5
634.012	15.52
634.203	15.33
634.395	15.38
634.586	15.46
634.777	15.43
634.969	15.45
635.16	15.56
635.351	15.49
635.543	15.46
635.734	15.48
635.925	15.43
636.117	15.43
636.308	15.51
636.499	15.46
636.69	15.37
636.881	15.38
637.073	15.34
637.264	15.29
637.455	15.31
637.646	15.44
637.837	15.49
638.028	15.45
638.219	15.51
638.41	15.41
638.601	15.31
638.792	15.24
638.983	15.17
639.174	15.08
639.365	15.18
639.556	15.15
639.747	15.12
639.938	15.2
640.129	15.15
640.32	15.12
640.511	15.25
640.701	15.35
640.892	15.26
641.083	15.32
641.274	15.3
641.465	15.28
641.655	15.08
641.846	15.11
642.037	15.09
642.228	15.01
642.418	14.98
642.609	15.03
642.8	15.01
642.99	14.88
643.181	14.94
643.372	14.87
643.562	14.86
643.753	14.87
643.943	14.85
644.134	14.69
644.324	14.64
644.515	14.58
644.705	14.6
644.896	14.59
645.086	14.66
645.277	14.6
645.467	14.58
645.658	14.51
645.848	14.62
646.038	14.65
646.229	14.71
646.419	14.68
646.61	14.64
646.8	14.54
646.99	14.48
647.18	14.33
647.371	14.27
647.561	14.18
647.751	14.16
647.941	14.08
648.132	14.07
648.322	14.11
648.512	14.22
648.702	14.18
648.892	14.2
649.082	14.22
649.272	14.06
649.462	13.95
649.653	13.83
649.843	13.74
650.033	13.75
650.223	13.86
650.413	13.76
650.603	13.86
650.793	13.84
650.983	13.75
651.172	13.66
651.362	13.7
651.552	13.57
651.742	13.55
651.932	13.51
652.122	13.47
652.312	13.48
652.502	13.42
652.691	13.44
652.881	13.39
653.071	13.32
653.261	13.11
653.45	13
653.64	12.95
653.83	12.79
654.019	12.71
654.209	12.61
654.399	12.57
654.588	12.39
654.778	12.26
654.968	12.14
655.157	12.11
655.347	12
655.536	11.85
655.726	11.8
655.915	11.68
656.105	11.58
656.294	11.47
656.484	11.28
656.673	11.17
656.863	11.03
657.052	10.82
657.241	10.55
657.431	10.42
657.62	10.23
657.809	10.03
657.999	9.94
658.188	9.85
658.377	9.72
658.567	9.62
658.756	9.47
658.945	9.22
659.134	9.04
659.324	8.89
659.513	8.75
659.702	8.58
659.891	8.46
660.08	8.37
660.269	8.35
660.458	8.12
660.648	8.01
660.837	7.88
661.026	7.81
661.215	7.54
661.404	7.41
661.593	7.33
661.782	7.11
661.971	6.99
662.16	6.94
662.349	6.86
662.538	6.7
662.726	6.67
662.915	6.46
663.104	6.24
663.293	6.14
663.482	6.11
663.671	6.11
663.86	6.06
664.048	6
664.237	6.03
664.426	5.86
664.615	5.72
664.803	5.6
664.992	5.46
665.181	5.3
665.369	5.27
665.558	5.21
665.747	5.11
665.935	5.21
666.124	5.24
666.312	5.21
666.501	5.18
666.69	5.11
666.878	5.07
667.067	4.85
667.255	4.9
667.444	5.05
667.632	5.14
667.82	5.15
668.009	5.22
668.197	5.06
668.386	4.94
668.574	5.07
668.762	4.96
668.951	4.93
669.139	4.96
669.327	4.82
669.516	4.82
669.704	4.81
669.892	5.01
670.08	5.06
670.269	5.13
670.457	5.01
670.645	4.99
670.833	5
671.021	4.98
671.21	5.02
671.398	5.22
671.586	5.19
671.774	5.08
671.962	5.13
672.15	5.15
672.338	5.03
672.526	5.14
672.714	5.14
672.902	5.22
673.09	5.35
673.278	5.52
673.466	5.6
673.654	5.84
673.842	5.84
674.03	5.82
674.218	5.65
674.405	5.69
674.593	5.53
674.781	5.59
674.969	5.66
675.157	5.91
675.344	6.08
675.532	6.18
675.72	6.28
675.908	6.28
676.095	6.17
676.283	6.09
676.471	6.25
676.658	6.27
676.846	6.34
677.033	6.5
677.221	6.56
677.409	6.53
677.596	6.62
677.784	6.62
677.971	6.62
678.159	6.75
678.346	6.89
678.534	6.92
678.721	7.16
678.909	7.28
679.096	7.35
679.283	7.55
679.471	7.64
679.658	7.75
679.846	7.93
680.033	8.14
680.22	8.08
680.408	8.18
680.595	8.14
680.782	8.04
680.969	8.04
681.157	8.01
681.344	8.1
681.531	8.29
681.718	8.43
681.905	8.59
682.093	9.01
682.28	9.28
682.467	9.44
682.654	9.64
682.841	9.68
683.028	9.76
683.215	9.85
683.402	9.8
683.589	9.99
683.776	10.22
683.963	10.2
684.15	10.37
684.337	10.74
684.524	10.84
684.711	11.16
684.898	11.32
685.085	11.51
685.271	11.85
685.458	12.21
685.645	12.3
685.832	12.69
686.019	13.01
686.205	13.12
686.392	13.3
686.579	13.59
686.766	14
686.952	14.33
687.139	14.88
687.326	15.2
687.512	15.59
687.699	15.85
687.886	16.06
688.072	16.18
688.259	16.73
688.445	17.21
688.632	17.43
688.818	18.03
689.005	18.46
689.191	18.79
689.378	19.39
689.564	20.13
689.751	20.52
689.937	21.04
690.124	21.68
690.31	21.91
690.496	22.34
690.683	22.94
690.869	23.48
691.055	23.88
691.242	24.71
691.428	25.32
691.614	25.93
691.8	26.66
691.987	27.33
692.173	27.9
692.359	28.68
692.545	29.33
692.731	29.86
692.918	30.66
693.104	31.18
693.29	31.79
693.476	32.49
693.662	33.08
693.848	33.67
694.034	34.48
694.22	34.98
694.406	35.49
694.592	36.18
694.778	36.73
694.964	37.19
695.15	37.96
695.336	38.63
695.522	39.65
695.708	40.25
695.894	40.93
696.08	41.71
696.265	42.27
696.451	42.59
696.637	43.22
696.823	43.8
697.009	44.08
697.194	44.74
697.38	45.35
697.566	46.03
697.751	46.69
697.937	47.61
698.123	48.28
698.308	49.15
698.494	49.78
698.68	50.37
698.865	50.72
699.051	51.28
699.236	51.48
699.422	51.93
699.607	52.32
699.793	52.75
699.978	53.07
700.164	53.63
700.349	54.35
700.535	54.99
700.72	55.43
700.906	56.02
701.091	56.44
701.276	56.76
701.462	57.6
701.647	58.57
701.832	58.87
702.018	59.24
702.203	59.5
702.388	59.4
702.573	59.37
702.759	59.94
702.944	60.22
703.129	60.61
703.314	60.96
703.499	61.41
703.684	61.68
703.87	62.93
704.055	63.58
704.24	63.96
704.425	64.39
704.61	65.04
704.795	64.69
704.98	64.96
705.165	65.12
705.35	65.31
705.535	65.42
705.72	65.72
705.905	66.1
706.09	66.69
706.275	67.07
706.459	67.1
706.644	67.18
706.829	67.51
707.014	67.42
707.199	67.52
707.384	68.03
707.568	68.32
707.753	68.3
707.938	68.63
708.123	68.82
708.307	68.92
708.492	69.05
708.677	69.31
708.861	69.4
709.046	69.55
709.231	70.02
709.415	70.55
709.6	70.3
709.784	70.37
709.969	70.5
710.153	70.19
710.338	70.1
710.522	70.7
710.707	71.1
710.891	71.42
711.076	71.75
711.26	71.7
711.445	71.74
711.629	72.07
711.813	71.89
711.998	72.17
712.182	72.33
712.366	72.73
712.551	72.97
712.735	73.53
712.919	73.48
713.103	73.86
713.288	73.5
713.472	73.27
713.656	73.77
713.84	73.95
714.024	74.29
714.208	74.37
714.393	74.93
714.577	74.84
714.761	75.22
714.945	74.92
715.129	75.2
715.313	75.2
715.497	75
715.681	75.35
715.865	75.3
716.049	75.52
716.233	75.26
716.417	75.55
716.601	75.34
716.785	75.67
716.968	75.59
717.152	75.88
717.336	75.92
717.52	75.53
717.704	75.59
717.888	76.18
718.071	76.27
718.255	76.58
718.439	76.69
718.622	77.1
718.806	77.14
718.99	77.04
719.174	76.8
719.357	77.12
719.541	77.03
719.724	76.66
719.908	77.37
720.092	77.62
720.275	77.86
720.459	77.58
720.642	77.25
720.826	76.82
721.009	76.53
721.193	76.14
721.376	76.36
721.559	77.04
721.743	77.19
721.926	77.44
722.11	77.91
722.293	77.6
722.476	77.11
722.66	77
722.843	76.81
723.026	76.06
723.21	76.63
723.393	78.22
723.576	78.07
723.759	77.91
723.942	78.53
724.126	78.63
724.309	77.63
724.492	78.11
724.675	78.64
724.858	78.87
725.041	78.86
725.224	78.94
725.407	78.86
725.59	78.95
725.774	78.57
725.957	77.9
726.14	78
726.322	78.59
726.505	78.41
726.688	79.11
726.871	79.74
727.054	79.93
727.237	79.79
727.42	80.47
727.603	79.99
727.786	80.93
727.968	80.76
728.151	80.44
728.334	80.38
728.517	80.49
728.699	80.11
728.882	79.55
729.065	80.09
729.248	79.88
729.43	80.7
729.613	81.73
729.796	82.79
729.978	82.64
730.161	82.72
730.343	82.36
730.526	81.84
730.708	81.41
730.891	80.96
731.073	80.66
731.256	80.29
731.438	80.13
731.621	81.17
731.803	81.42
731.986	81.83
732.168	81.49
732.35	81.82
732.533	80.81
732.715	81.04
732.898	81.47
733.08	82.25
733.262	81.98
733.444	81.75
733.627	81.64
733.809	81.75
733.991	82.28
734.173	81.66
734.355	82.32
734.538	82.92
734.72	81.94
734.902	82.11
735.084	82.73
735.266	82.45
735.448	82.59
735.63	83.49
735.812	83.26
735.994	84.09
736.176	84.92
736.358	85.03
736.54	85.71
736.722	85.23
736.904	84.71
737.086	84.92
737.268	85.29
737.45	84.83
737.632	84.38
737.814	83.86
737.995	83.39
738.177	83.6
738.359	83.56
738.541	84.18
738.723	84.36
738.904	84.62
739.086	83.32
739.268	83.22
739.449	83.4
739.631	83.87
739.813	83.74
739.994	83.83
740.176	83.73
740.358	84.24
740.539	84.25
740.721	84.95
740.902	86.07
741.084	86.36
741.265	86.71
741.447	87.79
741.628	88.02
741.81	87.49
741.991	87.78
742.172	87.84
742.354	87.41
742.535	86.48
742.717	87.33
742.898	87.75
743.079	87.68
743.261	87.11
743.442	86.65
743.623	86.35
743.804	85.55
743.986	86.32
744.167	85.47
744.348	86.03
744.529	85.41
744.71	84.92
744.891	83.91
745.073	83.79
745.254	83.56
745.435	83.71
745.616	83.88
745.797	83.58
745.978	83.07
746.159	82.49
746.34	81.74
746.521	82.97
746.702	82.28
746.883	83.49
747.064	83.99
747.245	84.42
747.426	83.52
747.606	84.68
747.787	85.28
747.968	86.02
748.149	86
748.33	86.53
748.51	86.14
748.691	84.92
748.872	84.4
749.053	84.74
749.233	83.72
749.414	83.21
749.595	83.8
749.775	82.83
749.956	82.53
750.137	82.36
750.317	83.99
750.498	85
750.678	85.73
750.859	86.48
751.04	86.44
751.22	84.26
751.4	83.03
751.581	81.89
751.761	81.78
751.942	83.49
752.122	84.01
752.303	84.21
752.483	85.01
752.663	83.9
752.844	82.31
753.024	84.1
753.204	84.33
753.385	83.62
753.565	85.06
753.745	85.2
753.925	83.55
754.106	82.81
754.286	83
754.466	82.38
754.646	81.73
754.826	80.25
755.006	79.37
755.187	80.97
755.367	81.05
755.547	82.31
755.727	85
755.907	86.43
756.087	86.32
756.267	85.39
756.447	85.11
756.627	82.35
756.807	82.39
756.987	81.64
757.167	82.56
757.346	82.05
757.526	81.68
757.706	81.67
757.886	82.15
758.066	81.66
758.246	83.24
758.425	84.75
758.605	83.15
758.785	82.71
758.965	82.72
759.144	81.41
759.324	80.69
759.504	82.09
759.683	81.42
759.863	80.79
760.043	79.82
760.222	79.99
760.402	79.86
760.581	81.41
760.761	82.72
760.94	82.24
761.12	85.16
761.299	84.57
761.479	82.94
761.658	81.8
761.838	82.25
762.017	80.18
762.197	81.75
762.376	81.63
762.555	81.71
762.735	83.01
762.914	81.41
763.093	80.35
763.273	80.51
763.452	80.49
763.631	78.84
763.81	79.52
763.99	79.97
764.169	80.14
764.348	77.68
764.527	77.44
764.706	79.33
764.885	79.92
765.064	77.94
765.243	79.44
765.423	81.92
765.602	80.54
765.781	77.74
765.96	78.43
766.139	77.65
766.318	76.7
766.497	75.19
766.676	76.37
766.854	77.44
767.033	78.35
767.212	77.24
767.391	78.94
767.57	79.28
767.749	79.47
767.928	81.43
768.106	81.48
768.285	79.28
768.464	79.68
768.643	78.13
768.821	75.87
769	77.84
769.179	78.62
769.357	76.79
769.536	77.64
769.715	78.41
769.893	76.7
770.072	77.49
770.25	78.75
770.429	78.03
770.607	76.82
770.786	77.74
770.964	77.7
771.143	76.6
771.321	79.47
771.5	79.28
771.678	77.8
771.857	75.97
772.035	77.06
772.213	73.04
772.392	74.14
772.57	75.91
772.748	76.82
772.927	75.93
773.105	77.97
773.283	78.77
773.461	78.42
773.64	80.28
773.818	79.72
773.996	79.94
774.174	79.58
774.352	76.51
774.531	73.19
774.709	75.49
774.887	73.77
775.065	72.09
775.243	73.31
775.421	72.32
775.599	72.53
775.777	70.45
775.955	69.02
776.133	68.71
776.311	69.87
776.489	66.93
776.667	68.91
776.844	71.04
777.022	69.64
777.2	70.06
777.378	69.75
777.556	71.61
777.734	73.87
777.911	77.06
778.089	77.79
778.267	78.23
778.445	74.24
778.622	70.79
778.8	70.43
778.978	72.4
779.155	73.93
779.333	76.48
779.511	76.25
779.688	77.12
779.866	72.33
780.043	69.05
780.221	68.68
780.398	66.6
780.576	67.9
780.753	69.93
780.931	69.8
781.108	69.89
781.286	73.9
781.463	68.46
781.64	67.04
781.818	68.51
781.995	67.82
782.172	66.93
782.35	70.34
782.527	74.17
782.704	74.08
782.882	77.61
783.059	75.86
783.236	73.51
783.413	73.18
783.59	73.06
783.768	68.89
783.945	70.2
784.122	72.23
784.299	69.98
784.476	69.27
784.653	68.24
784.83	66.19
785.007	63.87
785.184	63.98
785.361	64.36
785.538	69.9
785.715	74.13
785.892	76.12
786.069	79.05
786.246	80.69
786.423	77.72
786.6	76.92
786.776	80.04
786.953	76.13
787.13	76.16
787.307	74.6
787.484	73.81
787.66	68.99
787.837	72.45
788.014	70.66
788.191	70.32
788.367	67.45
788.544	70.16
788.721	65.16
788.897	69.58
789.074	70.59
789.25	69.62
789.427	69.23
789.603	70.26
789.78	66.69
789.956	65.67
790.133	65.35
790.309	65.84
790.486	67.66
790.662	65.55
790.839	67.6
791.015	70.12
791.192	66
791.368	64.46
791.544	63.47
791.721	64.17
791.897	63.54
792.073	64.52
792.249	61.47
792.426	66.64
792.602	68.07
792.778	65.85
792.954	64.93
793.13	68.1
793.307	59.55
793.483	48.4
793.659	51.52
793.835	54.17
794.011	53.69
794.187	58.59
794.363	63.2
794.539	63.93
794.715	57.1
794.891	57.85
795.067	57.72
795.243	61.13
795.419	58.86
795.595	60.12
795.771	60.73
795.947	59.45
796.122	57.4
796.298	62.33
796.474	64.71
796.65	62.84
796.826	62.75
797.001	64.45
797.177	55.99
797.353	63.41
797.529	67.95
797.704	67.79
797.88	62.16
798.056	61.45
798.231	54.76
798.407	56
798.582	55.52
798.758	68.92
798.934	79.11
799.109	77.77
799.285	73.14
799.46	74.25
799.636	66.78
799.811	61.57
799.986	61.18
800.162	61.59
800.337	65.09
800.513	61.38
800.688	58.37
800.863	69.56
801.039	64.55
801.214	59.09
801.389	58.48
801.565	56.34
801.74	41.15
801.915	45.75
802.09	46.25
802.265	52.75
802.441	58.6
802.616	62.61
802.791	60.27
802.966	59.53
803.141	58.19
803.316	51.88
803.491	54.77
803.666	59.31
803.841	53.94
804.016	47.14
804.191	54.08
804.366	50.48
804.541	51.94
804.716	58.68
804.891	59.83
805.066	59.73
805.241	55.7
805.416	47.5
805.591	43.42
805.765	51.14
805.94	51.06
806.115	51.03
806.29	48.94
806.464	47.93
806.639	40.14
806.814	35.94
806.989	28.02
807.163	46.59
807.338	50.54
807.512	46.38
807.687	37.3
807.862	58.46
808.036	55.39
808.211	59.1
808.385	70.24
808.56	87.73
808.734	82.33
808.909	81.23
809.083	75.44
809.258	75.27
809.432	68.37
809.606	61.58
809.781	56.41
809.955	64.32
810.13	67.25
810.304	65.76
810.478	62.67
810.652	68.5
810.827	61.39
811.001	47.97
811.175	44.34
811.349	45.61
811.524	35.89
811.698	22.26
811.872	31.57
812.046	38.11
812.22	48.78
812.394	53.27
812.568	63.09
812.742	62.6
812.916	54.47
813.09	46.39
813.264	44.16
813.438	49.28
813.612	44.81
813.786	46.85
813.96	57.47
814.134	54.89
814.308	61.93
814.482	69.08
814.656	62.44
814.83	60.71
815.003	68.21
815.177	49.42
815.351	41.85
815.525	53.18
815.698	43.08
815.872	30.96
816.046	30.87
816.219	36.31
816.393	37.65
816.567	46.71
816.74	50.92
816.914	63.37
817.088	66.66
817.261	60.2
817.435	54.47
817.608	64.66
817.782	53.68
817.955	57.9
818.129	53.19
818.302	56.48
818.475	58.3
818.649	59.2
818.822	41.9
818.996	58.05
819.169	50.04
819.342	21.87
819.516	38.22
819.689	50.7
819.862	31.81
820.035	28.87
820.209	44.47
820.382	40.82
820.555	40.59
820.728	30.64
820.901	31.85
821.075	31.63
821.248	25.8
821.421	13.19
821.594	25.56
821.767	45.35
821.94	61.53
822.113	40.5
822.286	38.88
822.459	48.13
822.632	35.44
822.805	9.7
822.978	13.7
823.151	18.74
823.324	5.4
823.496	-10.81
823.669	-15.38
823.842	3.64
824.015	-11.65
824.188	-21.63
824.361	-4.91
824.533	5.12
824.706	-7.98
824.879	-0.18
825.051	13.5
825.224	10.98
825.397	-1.41
825.569	-10.62
825.742	13.74
825.915	37.51
826.087	64.58
826.26	47.76
826.432	58.08
826.605	51.74
826.777	25.58
826.95	15.5
827.122	16.77
827.295	21.95
827.467	22.83
827.64	10.84
827.812	-9.6
827.984	-12.52
828.157	-28.26
828.329	-71.67
828.501	-62.56
828.674	-29.6
828.846	-30.38
829.018	4.08
829.19	-11.23
829.363	24.15
829.535	23.57
829.707	29.3
829.879	-9.29
830.051	7.97
830.223	-24.79
830.395	-39.41
830.568	-49.28
830.74	-28.72
830.912	1.42
831.084	8.31
831.256	-1.73
831.428	10.7
831.6	17.16
831.772	-11.59
831.943	-16.42
832.115	2.08
832.287	25.7
832.459	17.04
832.631	33.71
832.803	66.28
832.975	85.27
833.146	60.8
833.318	64.28
833.49	63.83
833.662	26.75
833.833	-1.9
834.005	1.52
834.177	15.65
834.348	8.47
834.52	-13.67
834.692	-9.53
834.863	-35.87
835.035	-44.31
835.206	-83.37
835.378	-43.74
835.549	-31.22
835.721	-23.05
835.892	-16.3
836.064	-4.62
836.235	-3.78
836.407	56.19
836.578	35.15
836.749	30.66
836.921	4.53
837.092	-31.89
837.264	-85.79
837.435	-90.47
837.606	-38.69
837.777	-9.27
837.949	1.65
838.12	9.18
838.291	26.72
838.462	19.86
838.633	4.46
838.805	21.41
838.976	41.31
839.147	20.27
839.318	-32.41
839.489	-90.97
839.66	-87.63
839.831	-58.86
840.002	-59.1
840.173	-57.78
840.344	23.21
840.515	-1.19
840.686	-139.7
840.857	-83.01
841.028	-123.06
841.199	-115.43
841.369	-119.08
841.54	-84.29
841.711	-40.43
841.882	-3.64
842.053	-11.68
842.223	-22.97
842.394	-0.5
842.565	-13.52
842.736	-6.51
842.906	-16.68
843.077	11.31
843.248	-1.13
843.418	2.69
843.589	-56.31
843.759	-8.39
843.93	-21.68
844.101	-24.29
844.271	-11.77
844.442	16.81
844.612	19.96
844.783	-17.92
844.953	-47.02
845.123	-100.26
845.294	-159.94
845.464	-463.28
845.635	-239.13
845.805	-107.61
845.975	-29.44
846.146	-67.23
846.316	-38.91
846.486	-8.73
846.656	13.04
846.827	3.69
846.997	16.03
847.167	40.24
847.337	12.89
847.507	0.5
847.677	2.7
847.848	42.25
848.018	30.39
848.188	30.43
848.358	-1.14
848.528	-18.38
848.698	-55.79
848.868	-176.83
849.038	-317.23
849.208	-121.49
849.378	-78.31
849.548	-59.88
849.718	-14.25
849.887	7.54
850.057	-10.31
850.227	-46.94
850.397	-100.58
850.567	-212.38
850.737	-462.17
850.906	-1400
851.076	-891.41
851.246	-371.2
851.415	-56.58
851.585	-50.3
851.755	-82.13
851.924	-35.27
852.094	-56.26
852.264	-184.07
852.433	-1296.15
852.603	-232.67
852.772	-303.41
852.942	-176.99
853.111	-141.28
853.281	-66.51
853.45	-25.97
853.62	-58.6
853.789	-48.37
853.959	-59.73
854.128	-70.41
854.297	-108.73
854.467	-147.01
854.636	-147.71
854.805	-42.27
854.975	-123.24
855.144	-296.16
855.313	-460.14
855.482	-714.6
855.652	-433.45
855.821	-227.91
855.99	-7.2
856.159	23.05
856.328	27.88
856.497	23.31
856.667	12.41
856.836	-2.08
857.005	-40.14
857.174	-74.43
857.343	-96.34
857.512	-90.07
857.681	-116.85
857.85	-159.19
858.019	-56.64
858.188	-46.16
858.356	-77.87
858.525	-130.31
858.694	-115.96
858.863	-276.41
859.032	-228.03
859.201	-276.13
859.369	-212.24
859.538	-203.83
859.707	-166.31
859.876	-176.33
860.044	-169.39
860.213	-37.24
860.382	-32.92
860.55	-18.79
860.719	3.83
860.888	26.34
861.056	-12.3
861.225	-6.69
861.393	27.61
861.562	26.32
861.73	-40.04
861.899	-225.13
862.067	-2941.38
862.236	-178.67
862.404	-378.96
862.572	-208.4
862.741	-91.6
862.909	-50
863.078	-166.1
863.246	-110.91
863.414	-103.46
863.582	-45.25
863.751	-66.32
863.919	-53.93
864.087	-1.31
864.255	-12.56
864.424	-337.45
864.592	-72.58
864.76	-141.7
864.928	-404
865.096	-240.13
865.264	-174.93
865.432	-2409.09
865.6	-299
865.768	-188.09
865.936	-211.18
866.104	-238.08
866.272	-219.69
866.44	-364.17
866.608	771.74
866.776	310.08
866.944	3183.72
867.112	-663.98
867.28	-310.09
867.448	-131.65
867.615	-86.77
867.783	-53.14
867.951	-61.6
868.119	-28.31
868.286	-54.87
868.454	-193.32
868.622	-177.09
868.789	-185.34
868.957	-3928.57
869.125	-2734.21
869.292	-177.89
869.46	-251.56
869.627	-56.5
869.795	-75.89
869.963	-22.21
870.13	6.28
870.298	1.52
870.465	-102.35
870.632	-90.19
870.8	-70.86
870.967	-160.59
871.135	-217.83
871.302	-187.09
871.469	-196.02
871.637	-238.43
871.804	-87.99
871.971	-100.4
872.139	-378.6
872.306	-16.94
872.473	-53.93
872.64	-327.47
872.807	-134.74
872.975	33.69
873.142	-225.09
873.309	2459.46
873.476	11.01
873.643	49.01
873.81	-35.41
873.977	9.08
874.144	22.99
874.311	-146.35
874.478	-160.34
874.645	-169.9
874.812	-154.36
874.979	-80
875.146	-88.79
875.313	-118.26
875.48	-16.58
875.647	-24.44
875.813	-71.76
875.98	-43.59
876.147	-83.77
876.314	-175.41
876.481	1153.72
876.647	-1329.21
876.814	682.9
876.981	-157.31
877.147	-86.4
877.314	-33.78
877.481	-11.61
877.647	22.74
877.814	-15.44
877.98	-71.97
878.147	-4.75
878.314	20.94
878.48	-38.95
878.647	-9.54
878.813	53.41
878.979	26.86
879.146	-9.39
879.312	2.92
879.479	-57.48
879.645	-203.83
879.811	-400.63
879.978	-990.08
880.144	-301.12
880.31	-112.48
880.477	-313.98
880.643	-393.31
880.809	-196.83
880.975	-183.2
881.142	-1356.36
881.308	-218.16
881.474	-99.84
881.64	-78.83
881.806	-124.13
881.972	-16.01
882.138	3.34
882.304	-51.3
882.47	-221.49
882.636	-859.02
882.802	-387.26
882.968	-127.33
883.134	-77.45
883.3	-78.65
883.466	-13.57
883.632	26.91
883.798	-12.89
883.964	-31.55
884.129	-12.55
884.295	-18.03
884.461	-64.49
884.627	-80.71
884.793	-100.3
884.958	-59.1
885.124	-180.31
885.29	-275
885.455	-450.49
885.621	-120.79
885.787	-166.84
885.952	-61.44
886.118	-77.42
886.283	-85.35
886.449	-205.08
886.614	-221.96
886.78	-400.77
886.945	2022.95
887.111	-978.61
887.276	-777.84
887.442	-1405.45
887.607	-698.11
887.773	-392.04
887.938	-293.21
888.103	-442.41
888.269	-315.66
888.434	-608.65
888.599	-208.53
888.764	-55.86
888.93	-5.5
889.095	-31.6
889.26	-58.31
889.425	-38.92
889.59	-64.78
889.756	-93.93
889.921	-101.86
890.086	-65.79
890.251	-94.92
890.416	-317.39
890.581	-2203.23
890.746	273.57
890.911	516.56
891.076	228.57
891.241	-470.9
891.406	-43.04
891.571	-162.32
891.736	-424.31
891.901	-584.96
892.065	607.69
892.23	154.68
892.395	256.75
892.56	364.45
892.725	-664.06
892.889	-2446.34
893.054	-357.1
893.219	-84.98
893.384	-28.63
893.548	-44.15
893.713	-58.93
893.878	-12.15
