Data from Ofra_PS_T2_2A_9GT30_Reflection_2.txt Node
Date: Wed Jul 21 17:23:21 EDT 2021
User: Adam
Spectrometer: FLMT01687
Trigger mode: 0
Integration Time (sec): 1.100000E0
Scans to average: 2
Electric dark correction enabled: true
Nonlinearity correction enabled: false
Boxcar width: 2
XAxis mode: Wavelengths
Number of Pixels in Spectrum: 3648
>>>>>Begin Spectral Data<<<<<
179.494	552.2
179.716	658.12
179.937	637.75
180.158	627.31
180.38	1050.78
180.601	592.4
180.823	210.55
181.044	58.89
181.265	329.6
181.486	102.48
181.708	82.04
181.929	259.69
182.15	23.59
182.372	182.01
182.593	97.82
182.814	42.13
183.035	82.74
183.257	45.54
183.478	-19.41
183.699	60.51
183.92	42.49
184.141	51.46
184.363	8.5
184.584	58.15
184.805	26.36
185.026	48.42
185.247	38
185.468	23.09
185.689	17.98
185.91	21.5
186.132	28.01
186.353	35.19
186.574	72.39
186.795	57.05
187.016	13.84
187.237	2.13
187.458	-45.76
187.679	-66.89
187.9	-55.46
188.121	-29.31
188.342	19.29
188.563	54.23
188.784	130.3
189.005	158.03
189.226	201.8
189.447	114.82
189.667	67.84
189.888	-266.63
190.109	-1139.29
190.33	-620.16
190.551	-1238.27
190.772	-243.64
190.993	-192.18
191.214	-178.44
191.434	-113.61
191.655	8.31
191.876	-58.84
192.097	-80.46
192.318	-120.13
192.538	-270.45
192.759	-227.97
192.98	-64.83
193.201	-18.83
193.421	-6.5
193.642	26.22
193.863	42.47
194.083	7.33
194.304	-6.49
194.525	4.8
194.745	-30.04
194.966	-37.4
195.187	-45.91
195.407	-67.62
195.628	-110.52
195.848	-90.57
196.069	-80.29
196.29	-25.5
196.51	-27.17
196.731	-37.4
196.951	-52.41
197.172	-86.71
197.392	-104.29
197.613	-107.46
197.833	-121.91
198.054	-88.34
198.274	-34.58
198.495	-47.21
198.715	-21.85
198.936	-46.16
199.156	-54.83
199.377	-166.66
199.597	-169.82
199.817	-177.24
200.038	-96.22
200.258	-147.98
200.479	-46.41
200.699	-31.49
200.919	0.61
201.14	-28.55
201.36	-26.73
201.58	11.88
201.801	38.31
202.021	9.6
202.241	17.36
202.461	11.68
202.682	-80.38
202.902	-158.94
203.122	-88
203.342	-80.99
203.563	-29.03
203.783	11.22
204.003	-20.69
204.223	-27.64
204.443	31.18
204.663	-4.05
204.884	-8.43
205.104	45.56
205.324	65.55
205.544	67.03
205.764	70.47
205.984	80.35
206.204	66.75
206.424	64.1
206.644	39.5
206.864	65.38
207.084	54.56
207.304	69.41
207.525	23.05
207.745	-7.55
207.964	0.96
208.184	-40.36
208.404	-73.66
208.624	-63.38
208.844	-68.04
209.064	-350.06
209.284	-348.51
209.504	-182.6
209.724	-72.29
209.944	-20.5
210.164	6.96
210.384	23.74
210.604	38.3
210.823	22.1
211.043	-22.91
211.263	-17.85
211.483	-29.49
211.703	-78.12
211.922	-53.74
212.142	38.77
212.362	88.22
212.582	60.71
212.801	41.28
213.021	21.29
213.241	-14.79
213.461	-55.37
213.68	-54.87
213.9	-11.05
214.12	-9.11
214.339	-59.43
214.559	-46.7
214.779	-12.32
214.998	-7.72
215.218	-44.68
215.438	-20.92
215.657	-14.26
215.877	2.12
216.096	11.37
216.316	30.17
216.535	36.46
216.755	21.51
216.974	-75.07
217.194	-114.33
217.413	-109.57
217.633	-109.67
217.852	-196.59
218.072	-71.92
218.291	-42.85
218.511	-17.9
218.73	-35.15
218.95	-21.54
219.169	-29.91
219.389	-70.6
219.608	-58.58
219.827	-59.71
220.047	-60.4
220.266	-34.67
220.485	-15.67
220.705	-5.35
220.924	-21.95
221.143	23.49
221.363	-4.41
221.582	2.14
221.801	23.73
222.021	49.84
222.24	-6.88
222.459	97.38
222.678	52.1
222.897	-43.87
223.117	-92.72
223.336	-60.48
223.555	-38.19
223.774	35.84
223.993	40.76
224.213	101.61
224.432	68.73
224.651	60.64
224.87	11.43
225.089	35.34
225.308	15.35
225.527	36.81
225.746	28.91
225.965	29.05
226.184	4.31
226.404	30.4
226.623	14.27
226.842	22.41
227.061	33.49
227.28	50.03
227.499	36.52
227.718	41.55
227.936	34.43
228.155	48.04
228.374	23.07
228.593	38.19
228.812	46.57
229.031	48.59
229.25	15.27
229.469	17.42
229.688	4.98
229.907	19.33
230.125	21.58
230.344	18.78
230.563	20.67
230.782	31.44
231.001	-57.6
231.22	-68.92
231.438	-30.11
231.657	10.27
231.876	-2.61
232.095	54.69
232.313	90.34
232.532	94.37
232.751	37.99
232.969	33.24
233.188	3.8
233.407	23.58
233.625	23.68
233.844	-0.9
234.063	18.96
234.281	31.1
234.5	-2.51
234.719	-8.59
234.937	2.17
235.156	-0.58
235.374	5.21
235.593	-8.29
235.811	-3.48
236.03	3.91
236.249	-28.88
236.467	-52.06
236.686	-3.1
236.904	15.21
237.123	-6.13
237.341	-8.56
237.559	3.28
237.778	-16.18
237.996	-55.48
238.215	7.75
238.433	18.94
238.652	16.42
238.87	-13.74
239.088	-1.53
239.307	-19.27
239.525	-11.88
239.743	-21.8
239.962	33.77
240.18	-6.19
240.398	-49.73
240.617	-71.04
240.835	-83
241.053	-55.31
241.271	14.05
241.49	55.17
241.708	34.07
241.926	19.87
242.144	-7.96
242.363	-78.13
242.581	-122.01
242.799	-50.16
243.017	-3.69
243.235	-27.52
243.453	2.58
243.672	-3.41
243.89	-1.13
244.108	-2.06
244.326	18.17
244.544	17.23
244.762	26.12
244.98	18.73
245.198	5.1
245.416	-24.38
245.634	-32.82
245.852	-64.9
246.07	-62.09
246.288	-36.86
246.506	-58
246.724	-26.59
246.942	-9.06
247.16	-0.53
247.378	-13.21
247.596	15.97
247.814	11.81
248.032	-9.5
248.25	-3.93
248.468	10.42
248.685	22.48
248.903	34.8
249.121	41.96
249.339	-1.63
249.557	-16.03
249.775	-15.37
249.992	-76.39
250.21	-63.92
250.428	-29.51
250.646	-53.3
250.863	-66.52
251.081	-36.46
251.299	-19.71
251.517	0.16
251.734	14.1
251.952	10.37
252.17	4.6
252.387	-3.87
252.605	-23.6
252.823	-20.89
253.04	-4.26
253.258	4.73
253.475	-10.77
253.693	28.48
253.911	24.63
254.128	30.27
254.346	34.49
254.563	23.97
254.781	-1.75
254.998	-25.06
255.216	-54.61
255.433	-45.16
255.651	13.86
255.868	45.2
256.086	74.62
256.303	69.61
256.521	61.23
256.738	30.92
256.956	-12.35
257.173	-26.62
257.39	-40.42
257.608	-64.5
257.825	5.14
258.043	56.78
258.26	55.83
258.477	109.95
258.695	106.03
258.912	49.94
259.129	40.63
259.346	5.08
259.564	-51.12
259.781	-53.77
259.998	21.78
260.216	38.47
260.433	76.22
260.65	78.75
260.867	98.93
261.084	48.57
261.302	29.24
261.519	9.42
261.736	-29.27
261.953	-65.11
262.17	-21.53
262.387	-56.69
262.604	-63.73
262.822	-51.71
263.039	-44.48
263.256	-85.13
263.473	-37.3
263.69	-24.43
263.907	20.93
264.124	41.16
264.341	45.86
264.558	37.55
264.775	52.5
264.992	26.56
265.209	22.92
265.426	35.71
265.643	37.97
265.86	36.19
266.077	46.76
266.294	27.19
266.51	-4.02
266.727	-17.75
266.944	-2.72
267.161	-10.42
267.378	17.51
267.595	52.26
267.812	40.78
268.028	18.27
268.245	44.63
268.462	1.97
268.679	-23.61
268.896	16.35
269.112	23.46
269.329	24.21
269.546	27.35
269.763	25.65
269.979	18.2
270.196	16.63
270.413	-24.31
270.629	-42.1
270.846	-35.77
271.063	-38.23
271.279	-68.16
271.496	-44.99
271.712	-9.68
271.929	8.97
272.146	4.41
272.362	29.89
272.579	54.8
272.795	50.06
273.012	56.23
273.228	44.28
273.445	9.32
273.661	-29.8
273.878	-72
274.094	-100.18
274.311	-107
274.527	-18.01
274.744	-19.48
274.96	-1.87
275.177	14.79
275.393	33.34
275.609	26.75
275.826	49.64
276.042	44.3
276.259	37.59
276.475	41.65
276.691	35.46
276.908	6.66
277.124	13.79
277.34	13.76
277.557	-2.56
277.773	-2.28
277.989	-4.79
278.205	-7.31
278.422	-5.44
278.638	-2.39
278.854	9.01
279.07	10.45
279.286	2.44
279.503	-11.6
279.719	-24.43
279.935	-66.44
280.151	-81.34
280.367	-46.35
280.583	-55.62
280.799	-50.39
281.016	-65.23
281.232	-8.61
281.448	-12.58
281.664	19.01
281.88	8.66
282.096	30.2
282.312	32.44
282.528	57.33
282.744	50.71
282.96	63.78
283.176	47.19
283.392	50.04
283.608	19.57
283.824	16.27
284.04	18.71
284.256	37.04
284.471	5.74
284.687	15.71
284.903	38.77
285.119	61.93
285.335	20.33
285.551	49.71
285.767	34.78
285.982	12.68
286.198	-31.03
286.414	41.76
286.63	48.21
286.846	70.51
287.061	55.33
287.277	72.48
287.493	42.82
287.709	43.32
287.924	18.14
288.14	44.31
288.356	50.04
288.571	60.26
288.787	39.99
289.003	37.94
289.218	16.37
289.434	-31.55
289.65	-41.51
289.865	-38.2
290.081	-4.68
290.296	-0.09
290.512	5.8
290.727	-7.69
290.943	-20.81
291.159	-32.54
291.374	-19.89
291.59	-27.02
291.805	-19.3
292.021	-10.64
292.236	-8.5
292.451	-6.29
292.667	5.61
292.882	35.62
293.098	41.79
293.313	25.21
293.529	4.1
293.744	-10.2
293.959	-45.2
294.175	-42.01
294.39	-2.36
294.605	9.44
294.821	31.48
295.036	34.46
295.251	40.72
295.467	25.84
295.682	29.25
295.897	-33.6
296.112	-37.12
296.328	-20.68
296.543	-44.9
296.758	-57.75
296.973	3.83
297.188	35.84
297.404	6.1
297.619	-2.63
297.834	-14.34
298.049	-47.93
298.264	-80.91
298.479	-20.22
298.694	-10.85
298.909	9.59
299.125	24.52
299.34	42.23
299.555	12.37
299.77	29.15
299.985	-5.78
300.2	-60.99
300.415	-95.24
300.63	-54.37
300.845	-63.87
301.06	-72.7
301.275	-24.69
301.49	8.34
301.704	-4.77
301.919	-29.93
302.134	-25.66
302.349	-31.83
302.564	-89.29
302.779	-102.84
302.994	-30.76
303.209	-9.39
303.423	49.22
303.638	70.2
303.853	26.72
304.068	3.07
304.283	10.02
304.497	-6.18
304.712	-9.4
304.927	5.62
305.142	6.82
305.356	18.37
305.571	18.55
305.786	2.26
306	-19.86
306.215	-5.64
306.43	-30.1
306.644	-24.7
306.859	11.85
307.074	29.55
307.288	-13.54
307.503	-13.13
307.717	-16.03
307.932	-9.65
308.147	-16.72
308.361	21.06
308.576	7.53
308.79	-31.78
309.005	-43.41
309.219	-18.79
309.434	-36.51
309.648	-42.75
309.863	-12.97
310.077	-4.65
310.292	-7.29
310.506	1.66
310.72	18.86
310.935	12.46
311.149	15.96
311.364	20.83
311.578	34.22
311.792	21.76
312.007	47.83
312.221	22.67
312.435	27.93
312.649	10.14
312.864	67.93
313.078	78.29
313.292	155.52
313.507	138.6
313.721	190.33
313.935	75.9
314.149	47.08
314.363	24.56
314.578	38.98
314.792	32.18
315.006	18.65
315.22	21.73
315.434	28.79
315.648	28.05
315.862	17.63
316.077	14.96
316.291	-3.35
316.505	-12.7
316.719	-29.71
316.933	-33.39
317.147	-10.99
317.361	-50.15
317.575	-69.79
317.789	-99.09
318.003	-141.94
318.217	-126.44
318.431	-19.52
318.645	32.3
318.859	30.71
319.073	63.81
319.287	39.08
319.5	14.46
319.714	-31.24
319.928	-52.3
320.142	-87.18
320.356	-27.87
320.57	14.97
320.784	18.21
320.997	7.35
321.211	7.18
321.425	-38.8
321.639	-76.82
321.853	-10.95
322.066	7.97
322.28	2.88
322.494	15.67
322.707	34.93
322.921	17.21
323.135	11.89
323.349	26.92
323.562	3.91
323.776	-19.08
323.989	-32.26
324.203	-55.37
324.417	-69.91
324.63	-64.64
324.844	-59.52
325.057	-48.03
325.271	-23.55
325.485	9.69
325.698	21.97
325.912	34.14
326.125	6.31
326.339	8.11
326.552	-23.51
326.766	-26.07
326.979	-11.69
327.193	32.63
327.406	11.01
327.619	9.99
327.833	24.77
328.046	-2.23
328.26	-45.89
328.473	-3.26
328.686	-24.03
328.9	-33.37
329.113	-5.29
329.326	-2.09
329.54	-18.42
329.753	-17.88
329.966	-29.13
330.179	-19.42
330.393	-5.35
330.606	10.83
330.819	21.85
331.032	35.56
331.246	21.49
331.459	44.81
331.672	30.55
331.885	17.25
332.098	-15.42
332.311	-7.88
332.525	-72.92
332.738	-69.78
332.951	-14.04
333.164	31.7
333.377	32.81
333.59	51.08
333.803	56.77
334.016	46.01
334.229	33.9
334.442	39.36
334.655	71.33
334.868	62.17
335.081	37.97
335.294	20.08
335.507	4.02
335.72	-15.29
335.933	-19.71
336.146	-18.15
336.359	2.32
336.572	-26.32
336.785	-46.98
336.997	-26.78
337.21	-7.32
337.423	-20.12
337.636	-0.25
337.849	27.16
338.062	21.26
338.274	24.81
338.487	15.13
338.7	16.02
338.913	-24.05
339.125	-59.4
339.338	-122.27
339.551	-83.25
339.763	-50.97
339.976	-36.58
340.189	-8.87
340.402	19.48
340.614	5.8
340.827	1.85
341.039	-4.04
341.252	13.79
341.465	13.89
341.677	14.59
341.89	-25.68
342.102	2.88
342.315	-30
342.527	-57.69
342.74	-56.04
342.952	-1.65
343.165	-7.17
343.377	11.88
343.59	10.29
343.802	35.62
344.015	31.56
344.227	45.99
344.44	48
344.652	49.66
344.864	28.43
345.077	40.47
345.289	35.57
345.502	36.64
345.714	31.5
345.926	39.88
346.139	28.96
346.351	30.11
346.563	33.16
346.775	39.96
346.988	30.25
347.2	17.64
347.412	-24.53
347.624	-38.76
347.837	-65.01
348.049	-24.58
348.261	2.38
348.473	14.08
348.685	14.96
348.897	13.2
349.11	-22.69
349.322	-37.22
349.534	-10.88
349.746	-16.3
349.958	-0.32
350.17	-3.29
350.382	16.55
350.594	7.04
350.806	13.82
351.018	9.85
351.23	12.42
351.442	-38.72
351.654	-25.67
351.866	-21.34
352.078	-10.35
352.29	7.31
352.502	24.51
352.714	20.19
352.926	5.25
353.138	-3.53
353.35	-11.37
353.561	-7.72
353.773	-30
353.985	-15.76
354.197	-23.88
354.409	-35.6
354.621	-49.94
354.832	-21.12
355.044	-28.34
355.256	-17.72
355.468	-4.35
355.679	-9.92
355.891	-12.95
356.103	-19.92
356.314	-14.44
356.526	-12.76
356.738	3.54
356.949	8.5
357.161	21.96
357.373	27.81
357.584	21.7
357.796	28.96
358.008	16.82
358.219	46.05
358.431	36.08
358.642	47.57
358.854	40.95
359.065	41.41
359.277	-11.49
359.488	-33.59
359.7	-64.24
359.911	-81.49
360.123	-65.42
360.334	-67.1
360.546	-74.43
360.757	-77.38
360.969	-52.86
361.18	-38.97
361.391	-19.75
361.603	-14.81
361.814	4.33
362.025	-2.99
362.237	-5.53
362.448	6.77
362.659	27.54
362.871	18.33
363.082	14.48
363.293	19.02
363.504	7.19
363.716	-15.92
363.927	0.46
364.138	-14.42
364.349	-30.98
364.56	-21.82
364.772	-28.13
364.983	-14.78
365.194	-10.54
365.405	-0.83
365.616	7.64
365.827	20.86
366.038	-3.98
366.25	-9.99
366.461	-23.16
366.672	-6.73
366.883	12.82
367.094	23.53
367.305	19.43
367.516	19.87
367.727	-8.82
367.938	-25.37
368.149	-23.64
368.36	-11.6
368.571	-4.99
368.781	-4.63
368.992	-27.17
369.203	-38.99
369.414	-61.93
369.625	-68.93
369.836	-70.52
370.047	-84.06
370.258	-69.15
370.468	-67.8
370.679	-93.01
370.89	-84.62
371.101	-42.5
371.312	-46.76
371.522	-29.78
371.733	-7.32
371.944	2.35
372.155	-0.32
372.365	-14.03
372.576	-18.46
372.787	-14.64
372.997	-24.81
373.208	-26.59
373.419	11.36
373.629	-18.56
373.84	-23.8
374.05	-42.13
374.261	-29.82
374.472	-57.64
374.682	-2.21
374.893	-3.4
375.103	40.5
375.314	28.69
375.524	27.77
375.735	28.39
375.945	36.48
376.156	6.98
376.366	12.56
376.577	12.74
376.787	-6.44
376.997	-7.73
377.208	-5.82
377.418	-14.9
377.629	3.26
377.839	12.65
378.049	14.25
378.26	24.42
378.47	26.64
378.68	13.61
378.89	17.24
379.101	7.35
379.311	-22.34
379.521	-43.49
379.732	-45.36
379.942	-57.33
380.152	-65.76
380.362	-23.38
380.572	-21.72
380.783	-2.45
380.993	3.27
381.203	11.64
381.413	16.48
381.623	18.8
381.833	13.47
382.043	10.71
382.253	8.41
382.463	1.72
382.674	-4.16
382.884	-26.1
383.094	-25.72
383.304	-22.95
383.514	-17.64
383.724	-4.75
383.934	3.82
384.144	-9.07
384.353	-17.24
384.563	-18.67
384.773	-19.21
384.983	-27.16
385.193	-4.78
385.403	7.5
385.613	8.24
385.823	1.46
386.033	6.93
386.242	-0.24
386.452	-7
386.662	-15.67
386.872	0.11
387.082	-5.96
387.291	-12.66
387.501	-10.74
387.711	-8
387.921	-20.4
388.13	-14.49
388.34	0.38
388.55	-8.75
388.759	-6.53
388.969	2.1
389.179	-0.52
389.388	-3.97
389.598	6.53
389.807	-0.16
390.017	-7.15
390.227	-7.2
390.436	-7.66
390.646	-11.48
390.855	-6.55
391.065	-3.47
391.274	-3.55
391.484	-7.72
391.693	-1.69
391.903	-1.05
392.112	5.22
392.322	6.75
392.531	11.78
392.74	10.29
392.95	5.33
393.159	0.91
393.369	1.59
393.578	0.49
393.787	-0.39
393.997	2.14
394.206	-0.66
394.415	-0.31
394.625	-1.8
394.834	-2.94
395.043	-1.23
395.252	2.26
395.462	3.94
395.671	5.68
395.88	6.98
396.089	7.39
396.298	5.26
396.508	4.24
396.717	3.15
396.926	3.43
397.135	2.67
397.344	3.03
397.553	3.86
397.762	5.89
397.971	5.35
398.181	5.8
398.39	5.66
398.599	5.08
398.808	4.27
399.017	5.37
399.226	6.08
399.435	7.19
399.644	6.77
399.853	5.84
400.062	5.04
400.27	4.15
400.479	3.5
400.688	3.18
400.897	3.95
401.106	4.15
401.315	4.07
401.524	3.98
401.733	4.71
401.941	4.8
402.15	4.87
402.359	5.08
402.568	5.68
402.777	5.71
402.985	5.47
403.194	5.12
403.403	5.08
403.612	4.46
403.82	4.27
404.029	4.4
404.238	4.41
404.446	4.55
404.655	4.33
404.864	4.32
405.072	4.09
405.281	4.23
405.489	4.04
405.698	4.07
405.906	3.91
406.115	3.99
406.324	3.89
406.532	4
406.741	4.53
406.949	4.49
407.158	4.48
407.366	4.54
407.574	4.53
407.783	4.28
407.991	4.18
408.2	4.39
408.408	4.27
408.617	4.1
408.825	3.99
409.033	4.14
409.242	4.02
409.45	4.3
409.658	4.23
409.867	4.3
410.075	4.19
410.283	4.08
410.491	3.78
410.7	3.74
410.908	3.69
411.116	3.94
411.324	3.91
411.533	3.88
411.741	4.14
411.949	4.22
412.157	3.96
412.365	3.96
412.573	4.13
412.781	4.14
412.99	3.98
413.198	4.07
413.406	4.07
413.614	3.92
413.822	3.66
414.03	3.63
414.238	3.46
414.446	3.51
414.654	3.38
414.862	3.57
415.07	3.66
415.278	3.88
415.486	3.65
415.694	3.85
415.902	3.68
416.109	3.63
416.317	3.71
416.525	3.56
416.733	3.42
416.941	3.57
417.149	3.42
417.357	3.23
417.564	3.54
417.772	3.81
417.98	3.7
418.188	3.76
418.395	3.76
418.603	3.89
418.811	3.57
419.019	3.48
419.226	3.67
419.434	3.79
419.642	3.47
419.849	3.62
420.057	3.75
420.265	3.81
420.472	3.52
420.68	3.64
420.887	3.38
421.095	3.25
421.302	2.99
421.51	3.3
421.717	3.32
421.925	3.51
422.132	3.64
422.34	3.53
422.547	3.52
422.755	3.45
422.962	3.37
423.17	3.27
423.377	3.42
423.585	3.2
423.792	3.07
423.999	3.01
424.207	2.96
424.414	2.96
424.621	3.03
424.829	3.1
425.036	3.17
425.243	3.37
425.451	3.29
425.658	3.13
425.865	3.27
426.072	3.27
426.28	3.44
426.487	3.36
426.694	3.52
426.901	3.38
427.108	3.34
427.315	3.07
427.523	3.46
427.73	3.49
427.937	3.42
428.144	3.34
428.351	3.3
428.558	3.3
428.765	3.12
428.972	3.12
429.179	3.36
429.386	3.65
429.593	3.41
429.8	3.33
430.007	3.47
430.214	3.61
430.421	3.28
430.628	3.18
430.835	3.11
431.042	3.28
431.249	3.21
431.456	3.33
431.662	3.43
431.869	3.75
432.076	3.79
432.283	3.79
432.49	3.86
432.697	3.95
432.903	3.7
433.11	3.61
433.317	3.75
433.524	3.91
433.73	3.75
433.937	4.2
434.144	4.07
434.35	3.89
434.557	3.75
434.764	3.91
434.97	3.69
435.177	3.96
435.384	3.92
435.59	4.01
435.797	4.22
436.003	4.36
436.21	4.24
436.416	4.45
436.623	4.43
436.829	4.39
437.036	4.46
437.242	4.51
437.449	4.4
437.655	4.47
437.862	4.48
438.068	4.35
438.275	4.47
438.481	4.72
438.687	4.68
438.894	4.69
439.1	4.8
439.307	4.93
439.513	4.77
439.719	4.83
439.926	4.97
440.132	4.92
440.338	4.71
440.544	4.88
440.751	4.86
440.957	4.81
441.163	4.75
441.369	4.88
441.575	4.71
441.782	4.72
441.988	4.6
442.194	4.67
442.4	4.73
442.606	4.97
442.812	5.12
443.018	5.3
443.224	5.35
443.431	5.46
443.637	5.26
443.843	5.06
444.049	5.16
444.255	5.18
444.461	5.14
444.667	5.09
444.873	5.42
445.079	5.36
445.284	5.44
445.49	5.3
445.696	5.36
445.902	5.13
446.108	5.06
446.314	5.04
446.52	5.12
446.726	5.38
446.931	5.52
447.137	5.62
447.343	5.56
447.549	5.5
447.755	5.23
447.96	5.2
448.166	5.05
448.372	5.03
448.578	5.12
448.783	5.2
448.989	5.24
449.195	5.5
449.4	5.54
449.606	5.46
449.812	5.41
450.017	5.4
450.223	5.22
450.428	5.18
450.634	5.42
450.84	5.62
451.045	5.61
451.251	5.56
451.456	5.75
451.662	5.79
451.867	5.81
452.073	5.81
452.278	5.97
452.483	6.07
452.689	5.93
452.894	5.9
453.1	5.87
453.305	5.84
453.51	5.74
453.716	5.73
453.921	5.71
454.127	5.71
454.332	5.56
454.537	5.5
454.742	5.41
454.948	5.47
455.153	5.53
455.358	5.74
455.563	5.93
455.769	6.18
455.974	6.05
456.179	6
456.384	6
456.589	5.83
456.795	5.54
457	5.61
457.205	5.84
457.41	5.78
457.615	5.7
457.82	5.86
458.025	5.87
458.23	5.64
458.435	5.69
458.64	5.75
458.845	5.89
459.05	5.89
459.255	5.97
459.46	5.98
459.665	5.98
459.87	5.93
460.075	5.89
460.28	5.9
460.485	6.06
460.69	6.14
460.895	6.02
461.099	6.08
461.304	6.13
461.509	6.16
461.714	6.08
461.919	6.24
462.123	6.16
462.328	6.24
462.533	5.99
462.738	6.07
462.942	6.01
463.147	6.07
463.352	6.05
463.556	6.2
463.761	6.25
463.966	6.25
464.17	6.29
464.375	6.16
464.58	6.16
464.784	6.12
464.989	6.04
465.193	6.08
465.398	6.17
465.602	6.21
465.807	6.19
466.011	6.38
466.216	6.48
466.42	6.55
466.625	6.59
466.829	6.71
467.034	6.66
467.238	6.78
467.443	6.72
467.647	6.68
467.851	6.67
468.056	6.75
468.26	6.62
468.464	6.7
468.669	6.78
468.873	6.95
469.077	6.89
469.282	7.07
469.486	7.1
469.69	7.07
469.894	6.84
470.099	6.87
470.303	6.89
470.507	6.8
470.711	6.73
470.915	6.84
471.119	6.83
471.324	6.71
471.528	6.8
471.732	6.89
471.936	6.88
472.14	6.99
472.344	7.14
472.548	7.18
472.752	7.38
472.956	7.64
473.16	7.54
473.364	7.41
473.568	7.42
473.772	7.42
473.976	7.22
474.18	7.22
474.384	7.33
474.588	7.32
474.792	7.17
474.995	7.34
475.199	7.49
475.403	7.58
475.607	7.58
475.811	7.58
476.015	7.63
476.218	7.69
476.422	7.62
476.626	7.79
476.83	7.92
477.033	7.89
477.237	7.75
477.441	7.81
477.644	7.72
477.848	7.72
478.052	7.63
478.255	7.63
478.459	7.63
478.663	7.75
478.866	7.8
479.07	7.82
479.273	8.06
479.477	8.13
479.681	8.09
479.884	8.09
480.088	8.12
480.291	8.06
480.495	8.04
480.698	8.08
480.901	8.2
481.105	8.33
481.308	8.27
481.512	8.23
481.715	8.25
481.919	8.23
482.122	8.19
482.325	8.19
482.529	8.24
482.732	8.28
482.935	8.17
483.138	8.17
483.342	8.31
483.545	8.4
483.748	8.42
483.952	8.46
484.155	8.59
484.358	8.53
484.561	8.46
484.764	8.42
484.967	8.57
485.171	8.63
485.374	8.6
485.577	8.72
485.78	8.77
485.983	8.76
486.186	8.63
486.389	8.63
486.592	8.6
486.795	8.64
486.998	8.6
487.201	8.65
487.404	8.72
487.607	8.77
487.81	8.75
488.013	8.76
488.216	8.72
488.419	8.71
488.622	8.63
488.825	8.59
489.028	8.54
489.231	8.56
489.433	8.49
489.636	8.46
489.839	8.41
490.042	8.41
490.245	8.47
490.447	8.53
490.65	8.58
490.853	8.7
491.056	8.76
491.258	8.68
491.461	8.76
491.664	8.91
491.866	8.77
492.069	8.85
492.272	8.86
492.474	8.82
492.677	8.71
492.879	8.88
493.082	8.87
493.285	9.02
493.487	9.02
493.69	9.01
493.892	8.85
494.095	8.83
494.297	8.7
494.5	8.7
494.702	8.76
494.905	8.91
495.107	8.91
495.309	8.96
495.512	9.06
495.714	9.1
495.917	9.07
496.119	9.04
496.321	9.13
496.524	9.17
496.726	9.14
496.928	9.19
497.13	9.26
497.333	9.26
497.535	9.21
497.737	9.22
497.939	9.22
498.142	9.24
498.344	9.17
498.546	9.13
498.748	9.17
498.95	9.3
499.152	9.3
499.355	9.41
499.557	9.45
499.759	9.55
499.961	9.38
500.163	9.39
500.365	9.38
500.567	9.51
500.769	9.4
500.971	9.5
501.173	9.47
501.375	9.44
501.577	9.37
501.779	9.4
501.981	9.45
502.183	9.52
502.385	9.55
502.587	9.53
502.788	9.66
502.99	9.72
503.192	9.79
503.394	9.75
503.596	9.76
503.798	9.78
503.999	9.74
504.201	9.74
504.403	9.84
504.605	9.91
504.806	9.81
505.008	9.87
505.21	9.91
505.411	9.93
505.613	9.97
505.815	9.99
506.016	9.96
506.218	10.06
506.42	10.12
506.621	10.14
506.823	10.26
507.024	10.19
507.226	10.09
507.427	10.09
507.629	10.11
507.83	10.08
508.032	10.13
508.233	10.27
508.435	10.3
508.636	10.38
508.838	10.35
509.039	10.43
509.24	10.4
509.442	10.45
509.643	10.35
509.845	10.44
510.046	10.47
510.247	10.47
510.448	10.46
510.65	10.53
510.851	10.64
511.052	10.68
511.254	10.7
511.455	10.76
511.656	10.81
511.857	10.85
512.058	10.83
512.26	10.85
512.461	10.85
512.662	10.89
512.863	10.82
513.064	10.84
513.265	10.87
513.466	10.9
513.667	10.91
513.868	11
514.069	11.14
514.27	11.23
514.471	11.23
514.672	11.22
514.873	11.18
515.074	11.14
515.275	11.01
515.476	11.02
515.677	11.04
515.878	11.16
516.079	11.17
516.28	11.25
516.481	11.36
516.682	11.4
516.882	11.28
517.083	11.28
517.284	11.25
517.485	11.29
517.686	11.27
517.886	11.35
518.087	11.38
518.288	11.42
518.488	11.35
518.689	11.35
518.89	11.33
519.091	11.35
519.291	11.44
519.492	11.52
519.692	11.62
519.893	11.73
520.094	11.72
520.294	11.63
520.495	11.61
520.695	11.61
520.896	11.55
521.096	11.56
521.297	11.63
521.497	11.61
521.698	11.62
521.898	11.59
522.099	11.66
522.299	11.74
522.499	11.76
522.7	11.8
522.9	11.88
523.101	11.95
523.301	11.92
523.501	11.94
523.702	11.93
523.902	12
524.102	12
524.302	12.01
524.503	12.11
524.703	12.08
524.903	12.14
525.103	12.08
525.304	12.21
525.504	12.27
525.704	12.38
525.904	12.31
526.104	12.39
526.304	12.34
526.504	12.35
526.705	12.37
526.905	12.46
527.105	12.45
527.305	12.41
527.505	12.38
527.705	12.36
527.905	12.4
528.105	12.4
528.305	12.41
528.505	12.42
528.705	12.46
528.905	12.42
529.105	12.43
529.304	12.49
529.504	12.54
529.704	12.48
529.904	12.48
530.104	12.58
530.304	12.65
530.503	12.63
530.703	12.63
530.903	12.67
531.103	12.65
531.303	12.61
531.502	12.67
531.702	12.79
531.902	12.86
532.101	12.8
532.301	12.84
532.501	12.8
532.7	12.77
532.9	12.74
533.1	12.84
533.299	12.9
533.499	13
533.698	12.98
533.898	12.99
534.097	13
534.297	13.08
534.496	13.03
534.696	13.11
534.895	13.24
535.095	13.34
535.294	13.24
535.494	13.22
535.693	13.24
535.892	13.19
536.092	13.1
536.291	13.16
536.491	13.37
536.69	13.41
536.889	13.36
537.088	13.38
537.288	13.42
537.487	13.41
537.686	13.44
537.886	13.55
538.085	13.61
538.284	13.73
538.483	13.76
538.682	13.82
538.882	13.88
539.081	14.01
539.28	13.87
539.479	13.84
539.678	13.79
539.877	13.92
540.076	13.9
540.275	14
540.474	14.08
540.673	14.18
540.872	14.12
541.071	14.19
541.27	14.21
541.469	14.25
541.668	14.32
541.867	14.34
542.066	14.37
542.265	14.53
542.464	14.49
542.663	14.51
542.862	14.65
543.06	14.71
543.259	14.69
543.458	14.75
543.657	14.82
543.856	14.84
544.054	14.81
544.253	14.8
544.452	14.83
544.651	14.85
544.849	14.84
545.048	14.93
545.247	15.02
545.445	15.12
545.644	15.18
545.843	15.2
546.041	15.24
546.24	15.37
546.438	15.46
546.637	15.55
546.836	15.69
547.034	15.74
547.233	15.74
547.431	15.78
547.63	15.8
547.828	15.78
548.027	15.86
548.225	15.84
548.423	15.84
548.622	15.89
548.82	15.92
549.019	15.98
549.217	16.19
549.415	16.23
549.614	16.32
549.812	16.45
550.01	16.45
550.209	16.43
550.407	16.59
550.605	16.64
550.803	16.77
551.002	16.96
551.2	17.03
551.398	17.11
551.596	17.23
551.794	17.29
551.993	17.29
552.191	17.36
552.389	17.49
552.587	17.61
552.785	17.63
552.983	17.78
553.181	17.95
553.379	17.99
553.577	18.04
553.775	18.19
553.973	18.22
554.171	18.27
554.369	18.24
554.567	18.3
554.765	18.38
554.963	18.49
555.161	18.47
555.359	18.62
555.557	18.79
555.755	18.84
555.952	18.96
556.15	19.07
556.348	19.15
556.546	19.19
556.744	19.23
556.941	19.22
557.139	19.4
557.337	19.44
557.535	19.43
557.732	19.6
557.93	19.82
558.128	19.8
558.325	20
558.523	20.11
558.721	20.2
558.918	20.2
559.116	20.28
559.313	20.28
559.511	20.52
559.708	20.53
559.906	20.6
560.104	20.76
560.301	20.92
560.498	20.87
560.696	20.95
560.893	21.11
561.091	21.23
561.288	21.32
561.486	21.43
561.683	21.55
561.88	21.6
562.078	21.74
562.275	21.84
562.473	21.93
562.67	22.11
562.867	22.33
563.064	22.38
563.262	22.42
563.459	22.57
563.656	22.65
563.853	22.7
564.051	22.87
564.248	23.05
564.445	23.18
564.642	23.31
564.839	23.41
565.036	23.55
565.234	23.77
565.431	23.89
565.628	23.99
565.825	24.2
566.022	24.36
566.219	24.34
566.416	24.47
566.613	24.65
566.81	24.69
567.007	24.63
567.204	24.68
567.401	24.78
567.598	24.82
567.795	24.91
567.991	24.95
568.188	25.11
568.385	25.16
568.582	25.26
568.779	25.36
568.976	25.5
569.172	25.66
569.369	25.68
569.566	25.77
569.763	25.79
569.96	25.87
570.156	25.93
570.353	26.03
570.55	26.07
570.746	26.16
570.943	26.21
571.14	26.19
571.336	26.25
571.533	26.32
571.729	26.38
571.926	26.42
572.123	26.54
572.319	26.66
572.516	26.64
572.712	26.78
572.909	26.84
573.105	26.88
573.302	26.92
573.498	27.13
573.695	27.01
573.891	27.05
574.087	27.16
574.284	27.16
574.48	27.03
574.677	27.11
574.873	27.19
575.069	27.15
575.266	27.15
575.462	27.21
575.658	27.26
575.854	27.36
576.051	27.46
576.247	27.52
576.443	27.6
576.639	27.58
576.835	27.51
577.032	27.5
577.228	27.58
577.424	27.58
577.62	27.65
577.816	27.76
578.012	27.71
578.208	27.65
578.404	27.67
578.6	27.74
578.796	27.76
578.993	27.85
579.189	27.97
579.384	27.84
579.58	27.75
579.776	27.67
579.972	27.62
580.168	27.47
580.364	27.63
580.56	27.58
580.756	27.57
580.952	27.46
581.148	27.56
581.343	27.51
581.539	27.53
581.735	27.51
581.931	27.64
582.127	27.62
582.322	27.6
582.518	27.62
582.714	27.66
582.909	27.69
583.105	27.62
583.301	27.68
583.496	27.76
583.692	27.74
583.888	27.68
584.083	27.82
584.279	27.86
584.474	27.8
584.67	27.91
584.866	27.87
585.061	27.7
585.257	27.74
585.452	27.73
585.648	27.59
585.843	27.73
586.039	27.83
586.234	27.77
586.429	27.81
586.625	27.9
586.82	27.81
587.015	27.83
587.211	27.69
587.406	27.7
587.601	27.71
587.797	27.67
587.992	27.63
588.187	27.84
588.383	27.74
588.578	27.67
588.773	27.79
588.968	27.85
589.163	27.88
589.359	28
589.554	28.03
589.749	28.08
589.944	28.07
590.139	28.06
590.334	28.07
590.529	28.21
590.724	28.18
590.919	28.33
591.114	28.28
591.309	28.39
591.504	28.4
591.699	28.48
591.894	28.56
592.089	28.58
592.284	28.61
592.479	28.74
592.674	28.71
592.869	28.75
593.064	28.88
593.259	29
593.454	29.08
593.648	29.19
593.843	29.21
594.038	29.25
594.233	29.15
594.428	29.04
594.622	28.98
594.817	29.08
595.012	29.11
595.206	29.31
595.401	29.46
595.596	29.57
595.79	29.55
595.985	29.69
596.18	29.71
596.374	29.86
596.569	29.9
596.763	29.95
596.958	30
597.153	30.12
597.347	30.01
597.542	30.21
597.736	30.32
597.931	30.36
598.125	30.37
598.319	30.6
598.514	30.51
598.708	30.58
598.903	30.64
599.097	30.73
599.291	30.76
599.486	30.85
599.68	30.94
599.874	31.05
600.069	31.05
600.263	30.92
600.457	31.05
600.651	30.98
600.846	30.98
601.04	31.01
601.234	31.22
601.428	31.22
601.622	31.34
601.817	31.42
602.011	31.47
602.205	31.49
602.399	31.45
602.593	31.35
602.787	31.37
602.981	31.39
603.175	31.5
603.369	31.48
603.563	31.58
603.757	31.65
603.951	31.64
604.145	31.45
604.339	31.51
604.533	31.36
604.727	31.16
604.921	31.15
605.115	31.21
605.309	31.34
605.502	31.39
605.696	31.43
605.89	31.4
606.084	31.32
606.278	31.2
606.471	31.09
606.665	31.06
606.859	30.95
607.053	30.88
607.246	30.86
607.44	31
607.634	30.87
607.827	30.88
608.021	30.82
608.214	30.76
608.408	30.59
608.602	30.69
608.795	30.64
608.989	30.65
609.182	30.51
609.376	30.48
609.569	30.31
609.763	30.19
609.956	30.03
610.15	30
610.343	30.01
610.537	29.98
610.73	30.05
610.923	30.08
611.117	30.01
611.31	29.88
611.504	29.78
611.697	29.62
611.89	29.56
612.083	29.55
612.277	29.5
612.47	29.37
612.663	29.37
612.856	29.37
613.05	29.25
613.243	29.22
613.436	29.15
613.629	29.07
613.822	28.83
614.015	28.72
614.209	28.62
614.402	28.7
614.595	28.64
614.788	28.54
614.981	28.52
615.174	28.33
615.367	28.11
615.56	28
615.753	28.07
615.946	27.96
616.139	28
616.332	28.19
616.525	28.21
616.718	28.23
616.911	28.28
617.103	28.32
617.296	28.13
617.489	28.04
617.682	27.9
617.875	27.89
618.067	27.79
618.26	27.75
618.453	27.78
618.646	27.77
618.838	27.75
619.031	27.8
619.224	27.78
619.417	27.79
619.609	27.83
619.802	27.74
619.994	27.62
620.187	27.63
620.38	27.51
620.572	27.43
620.765	27.53
620.957	27.52
621.15	27.42
621.342	27.42
621.535	27.38
621.727	27.28
621.92	27.31
622.112	27.3
622.305	27.3
622.497	27.22
622.69	27.2
622.882	27.19
623.074	27.26
623.267	27.21
623.459	27.22
623.651	27.19
623.844	27.24
624.036	27.25
624.228	27.18
624.42	27.17
624.613	27.3
624.805	27.16
624.997	27.07
625.189	27.17
625.381	27.07
625.574	26.89
625.766	26.83
625.958	26.77
626.15	26.78
626.342	26.91
626.534	26.89
626.726	26.86
626.918	26.95
627.11	26.82
627.302	26.79
627.494	26.8
627.686	26.85
627.878	26.72
628.07	26.76
628.262	26.72
628.454	26.72
628.646	26.71
628.838	26.71
629.029	26.57
629.221	26.58
629.413	26.48
629.605	26.36
629.797	26.28
629.989	26.33
630.18	26.24
630.372	26.27
630.564	26.27
630.755	26.42
630.947	26.46
631.139	26.38
631.33	26.18
631.522	26.31
631.714	26.19
631.905	26.16
632.097	26.12
632.289	26.21
632.48	26.14
632.672	26.06
632.863	25.9
633.055	25.91
633.246	25.96
633.438	25.87
633.629	25.86
633.821	25.91
634.012	25.91
634.203	25.74
634.395	25.72
634.586	25.7
634.777	25.63
634.969	25.63
635.16	25.76
635.351	25.66
635.543	25.67
635.734	25.75
635.925	25.74
636.117	25.7
636.308	25.76
636.499	25.71
636.69	25.57
636.881	25.53
637.073	25.56
637.264	25.52
637.455	25.53
637.646	25.64
637.837	25.69
638.028	25.58
638.219	25.64
638.41	25.61
638.601	25.53
638.792	25.51
638.983	25.42
639.174	25.27
639.365	25.31
639.556	25.26
639.747	25.17
639.938	25.28
640.129	25.3
640.32	25.19
640.511	25.16
640.701	25.3
640.892	25.13
641.083	25.13
641.274	25.23
641.465	25.23
641.655	25.06
641.846	25.05
642.037	24.99
642.228	24.83
642.418	24.84
642.609	24.88
642.8	24.94
642.99	24.84
643.181	24.91
643.372	24.94
643.562	24.81
643.753	24.72
643.943	24.83
644.134	24.72
644.324	24.62
644.515	24.74
644.705	24.82
644.896	24.72
645.086	24.76
645.277	24.7
645.467	24.53
645.658	24.39
645.848	24.41
646.038	24.32
646.229	24.26
646.419	24.2
646.61	24.19
646.8	24.07
646.99	24.01
647.18	23.96
647.371	24.03
647.561	24.01
647.751	24.04
647.941	23.93
648.132	23.95
648.322	23.81
648.512	23.77
648.702	23.73
648.892	23.73
649.082	23.62
649.272	23.48
649.462	23.34
649.653	23.27
649.843	23.21
650.033	23.25
650.223	23.38
650.413	23.35
650.603	23.35
650.793	23.37
650.983	23.22
651.172	23.07
651.362	22.98
651.552	22.77
651.742	22.61
651.932	22.55
652.122	22.53
652.312	22.56
652.502	22.5
652.691	22.46
652.881	22.45
653.071	22.36
653.261	22.18
653.45	22.04
653.64	22.05
653.83	21.86
654.019	21.74
654.209	21.67
654.399	21.73
654.588	21.66
654.778	21.48
654.968	21.26
655.157	21.25
655.347	20.99
655.536	20.69
655.726	20.54
655.915	20.44
656.105	20.18
656.294	20.1
656.484	19.86
656.673	19.74
656.863	19.66
657.052	19.41
657.241	19.18
657.431	19.04
657.62	18.86
657.809	18.43
657.999	18.33
658.188	18.14
658.377	17.93
658.567	17.82
658.756	17.85
658.945	17.71
659.134	17.44
659.324	17.27
659.513	17.09
659.702	16.77
659.891	16.57
660.08	16.52
660.269	16.35
660.458	16.15
660.648	16.08
660.837	15.83
661.026	15.7
661.215	15.59
661.404	15.26
661.593	15.04
661.782	14.82
661.971	14.75
662.16	14.63
662.349	14.65
662.538	14.57
662.726	14.52
662.915	14.19
663.104	13.96
663.293	13.87
663.482	13.76
663.671	13.65
663.86	13.54
664.048	13.52
664.237	13.36
664.426	13.15
664.615	13.04
664.803	12.89
664.992	12.65
665.181	12.5
665.369	12.36
665.558	12.22
665.747	12.2
665.935	12.31
666.124	12.28
666.312	12.29
666.501	12.3
666.69	12.19
666.878	11.96
667.067	11.86
667.255	11.85
667.444	11.98
667.632	12
667.82	12.03
668.009	11.95
668.197	11.86
668.386	11.71
668.574	11.82
668.762	11.66
668.951	11.59
669.139	11.45
669.327	11.24
669.516	11.11
669.704	11.17
669.892	11.33
670.08	11.45
670.269	11.31
670.457	11.19
670.645	11.05
670.833	11.1
671.021	11
671.21	11.2
671.398	11.33
671.586	11.32
671.774	11.07
671.962	11.12
672.15	11.12
672.338	10.97
672.526	11.07
672.714	11.02
672.902	10.98
673.09	11.08
673.278	11.31
673.466	11.27
673.654	11.49
673.842	11.51
674.03	11.56
674.218	11.36
674.405	11.42
674.593	11.41
674.781	11.56
674.969	11.52
675.157	11.78
675.344	11.91
675.532	11.96
675.72	12.04
675.908	12.06
676.095	11.94
676.283	12.07
676.471	12.19
676.658	12.19
676.846	12.2
677.033	12.41
677.221	12.4
677.409	12.35
677.596	12.45
677.784	12.6
677.971	12.64
678.159	12.72
678.346	12.88
678.534	13.04
678.721	13.25
678.909	13.27
679.096	13.35
679.283	13.62
679.471	13.7
679.658	13.72
679.846	13.98
680.033	14.3
680.22	14.21
680.408	14.38
680.595	14.58
680.782	14.5
680.969	14.53
681.157	14.71
681.344	14.82
681.531	14.89
681.718	15.05
681.905	15.23
682.093	15.45
682.28	15.66
682.467	16.1
682.654	16.42
682.841	16.67
683.028	17.02
683.215	17.24
683.402	17.2
683.589	17.51
683.776	17.7
683.963	17.79
684.15	18.06
684.337	18.43
684.524	18.69
684.711	19.06
684.898	19.34
685.085	19.62
685.271	19.93
685.458	20.27
685.645	20.46
685.832	20.77
686.019	21.25
686.205	21.6
686.392	22
686.579	22.57
686.766	23.11
686.952	23.59
687.139	24.16
687.326	24.56
687.512	24.82
687.699	25.25
687.886	25.34
688.072	25.67
688.259	26.07
688.445	26.71
688.632	27.13
688.818	27.99
689.005	28.36
689.191	28.88
689.378	29.56
689.564	30.13
689.751	30.51
689.937	31.09
690.124	31.77
690.31	32.1
690.496	32.65
690.683	33.31
690.869	33.94
691.055	34.48
691.242	35.39
691.428	35.86
691.614	36.4
691.8	37.24
691.987	37.73
692.173	38.15
692.359	39.09
692.545	39.81
692.731	40.18
692.918	40.95
693.104	41.46
693.29	41.97
693.476	42.73
693.662	43.45
693.848	44.12
694.034	44.67
694.22	45.08
694.406	45.56
694.592	46.25
694.778	46.85
694.964	47.53
695.15	48.21
695.336	48.77
695.522	49.51
695.708	50.14
695.894	50.77
696.08	51.6
696.265	52.3
696.451	52.84
696.637	53.45
696.823	54.12
697.009	54.31
697.194	54.73
697.38	55.21
697.566	55.72
697.751	56.14
697.937	57.26
698.123	57.79
698.308	58.3
698.494	58.88
698.68	59.34
698.865	59.49
699.051	59.94
699.236	60.19
699.422	60.6
699.607	60.89
699.793	61.35
699.978	61.68
700.164	62.24
700.349	62.69
700.535	63.23
700.72	63.62
700.906	64.49
701.091	64.59
701.276	64.69
701.462	65.55
701.647	66.25
701.832	66.33
702.018	67.07
702.203	67.37
702.388	67.35
702.573	67.74
702.759	68.46
702.944	68.66
703.129	69.03
703.314	69.5
703.499	69.46
703.684	69.32
703.87	70.28
704.055	71.29
704.24	71.53
704.425	72.09
704.61	72.68
704.795	72.64
704.98	72.24
705.165	72.29
705.35	72.43
705.535	72.33
705.72	72.48
705.905	73.15
706.09	73.78
706.275	73.9
706.459	74.31
706.644	74.57
706.829	74.44
707.014	74.25
707.199	74.77
707.384	74.66
707.568	74.52
707.753	75.53
707.938	75.79
708.123	75.69
708.307	75.98
708.492	76.56
708.677	76.02
708.861	76.15
709.046	76.12
709.231	76.71
709.415	77.11
709.6	77.17
709.784	77.44
709.969	77.84
710.153	77.75
710.338	77.54
710.522	77.82
710.707	78.17
710.891	78.05
711.076	78.14
711.26	77.99
711.445	78.08
711.629	78.38
711.813	78.87
711.998	79.47
712.182	79.78
712.366	80.38
712.551	80.88
712.735	81.13
712.919	80.74
713.103	80.78
713.288	80.57
713.472	79.76
713.656	80.31
713.84	80.56
714.024	80.79
714.208	80.92
714.393	81.54
714.577	81.45
714.761	81.82
714.945	82.21
715.129	82.19
715.313	82.32
715.497	81.69
715.681	82.04
715.865	81.95
716.049	82.02
716.233	81.74
716.417	81.98
716.601	81.53
716.785	81.71
716.968	81.77
717.152	82.12
717.336	82.28
717.52	82.25
717.704	82.24
717.888	82.92
718.071	82.86
718.255	83.1
718.439	83.39
718.622	83.15
718.806	83.37
718.99	83.3
719.174	83.47
719.357	83.61
719.541	83.96
719.724	83.32
719.908	84.52
720.092	84.65
720.275	84.69
720.459	84.57
720.642	84.45
720.826	83.17
721.009	82.83
721.193	82.61
721.376	82.82
721.559	83.49
721.743	84.06
721.926	84.39
722.11	84.64
722.293	84.16
722.476	83.67
722.66	83.16
722.843	82.84
723.026	82.59
723.21	83.05
723.393	83.79
723.576	84.27
723.759	84.25
723.942	84.67
724.126	84.66
724.309	84.51
724.492	84.68
724.675	84.94
724.858	85.15
725.041	85.7
725.224	85.82
725.407	85.79
725.59	85.95
725.774	85.66
725.957	84.61
726.14	84.29
726.322	84.41
726.505	84.2
726.688	84.63
726.871	85.23
727.054	85.61
727.237	85.05
727.42	85.11
727.603	85.05
727.786	85.23
727.968	84.97
728.151	85.83
728.334	85.89
728.517	85.8
728.699	86.49
728.882	86.52
729.065	86.48
729.248	86.89
729.43	87.54
729.613	88.1
729.796	89.11
729.978	88.75
730.161	88.23
730.343	87.53
730.526	87.23
730.708	85.74
730.891	85.97
731.073	86.06
731.256	85.87
731.438	85.34
731.621	86.53
731.803	86.42
731.986	86.58
732.168	86.34
732.35	86.75
732.533	86.16
732.715	86.52
732.898	87.22
733.08	87.38
733.262	87.45
733.444	87.67
733.627	87.48
733.809	87.49
733.991	88.43
734.173	87.82
734.355	87.42
734.538	87.63
734.72	86.99
734.902	86.32
735.084	85.92
735.266	86.37
735.448	86.74
735.63	86.73
735.812	86.99
735.994	88.94
736.176	88.91
736.358	88.18
736.54	89.57
736.722	88.95
736.904	87.6
737.086	88.01
737.268	89.01
737.45	88.2
737.632	88.34
737.814	87.66
737.995	87.04
738.177	86.28
738.359	85.35
738.541	86.01
738.723	87.36
738.904	88.3
739.086	88.72
739.268	89.42
739.449	89.64
739.631	89.12
739.813	89.15
739.994	89.45
740.176	89.72
740.358	89.73
740.539	91.13
740.721	90.63
740.902	91.32
741.084	91.42
741.265	91.41
741.447	90.4
741.628	90.98
741.81	89.73
741.991	90.38
742.172	91.52
742.354	91.8
742.535	91.16
742.717	91.69
742.898	91.63
743.079	91.97
743.261	91.62
743.442	91.56
743.623	92.79
743.804	93.33
743.986	91.98
744.167	90.26
744.348	89.23
744.529	88.61
744.71	86.79
744.891	86.5
745.073	87.15
745.254	87.99
745.435	87.03
745.616	86.77
745.797	86.86
745.978	86.86
746.159	86.68
746.34	86.4
746.521	87.68
746.702	86.79
746.883	87.09
747.064	87.07
747.245	87.16
747.426	87.22
747.606	88.63
747.787	88.59
747.968	88.95
748.149	90.03
748.33	89.87
748.51	89
748.691	88.58
748.872	89.01
749.053	87.61
749.233	87.23
749.414	86.18
749.595	85.57
749.775	83.98
749.956	84.42
750.137	84.47
750.317	87.04
750.498	89.19
750.678	90.19
750.859	91.38
751.04	92.03
751.22	89.93
751.4	88.82
751.581	87.96
751.761	87.36
751.942	87.43
752.122	87.99
752.303	87.61
752.483	88.26
752.663	87.05
752.844	85.11
753.024	85.82
753.204	86.6
753.385	85.58
753.565	85.85
753.745	86.64
753.925	86.07
754.106	85.88
754.286	85.93
754.466	85.98
754.646	86.39
754.826	85.59
755.006	84.19
755.187	85.19
755.367	86.27
755.547	87.36
755.727	88.84
755.907	90
756.087	91.01
756.267	88.72
756.447	86.75
756.627	84.28
756.807	84.7
756.987	82.56
757.167	83.77
757.346	83.77
757.526	83.83
757.706	84.32
757.886	86.03
758.066	87.32
758.246	89.38
758.425	89.67
758.605	87.66
758.785	86.05
758.965	85.3
759.144	82.69
759.324	83.56
759.504	84.44
759.683	84.57
759.863	83.27
760.043	83.41
760.222	83.97
760.402	83.85
760.581	84.21
760.761	85.58
760.94	84.99
761.12	85.08
761.299	85.34
761.479	83.94
761.658	81.66
761.838	82.42
762.017	81.6
762.197	82.55
762.376	84.92
762.555	86.89
762.735	87.01
762.914	85.96
763.093	85.51
763.273	82.97
763.452	81.83
763.631	81.82
763.81	82.46
763.99	81.63
764.169	82.28
764.348	80.98
764.527	79.96
764.706	81.35
764.885	82.71
765.064	82.88
765.243	84
765.423	85.62
765.602	83.89
765.781	82.24
765.96	81.05
766.139	81.38
766.318	82.17
766.497	82.47
766.676	82.84
766.854	85.28
767.033	85.27
767.212	83.46
767.391	83.4
767.57	85.31
767.749	84.79
767.928	87.49
768.106	86.81
768.285	86.74
768.464	85.67
768.643	83.73
768.821	81.5
769	84.11
769.179	84.18
769.357	81.82
769.536	83.32
769.715	83.56
769.893	83.6
770.072	83.08
770.25	84.89
770.429	85.38
770.607	85.13
770.786	83.81
770.964	85.78
771.143	84.91
771.321	86.29
771.5	86.25
771.678	84.1
771.857	81.01
772.035	80.57
772.213	78.85
772.392	75.55
772.57	78.73
772.748	80.43
772.927	79.87
773.105	78.6
773.283	82.06
773.461	81.33
773.64	80.82
773.818	82.25
773.996	85.19
774.174	84.06
774.352	81.4
774.531	77.77
774.709	79.36
774.887	76.12
775.065	75.31
775.243	77.19
775.421	81.56
775.599	82.05
775.777	80.89
775.955	80.01
776.133	78.21
776.311	76.54
776.489	72.81
776.667	74.98
776.844	75.22
777.022	74.51
777.2	73.77
777.378	72.57
777.556	72.72
777.734	78.33
777.911	81.24
778.089	83.56
778.267	85.45
778.445	83.25
778.622	79.28
778.8	78.43
778.978	79.27
779.155	78.6
779.333	80.9
779.511	80.28
779.688	82.63
779.866	78.74
780.043	77.31
780.221	76.93
780.398	73.65
780.576	72.86
780.753	76.96
780.931	77.6
781.108	76.28
781.286	79.78
781.463	75.57
781.64	68.93
781.818	71.5
781.995	72.41
782.172	71.19
782.35	75.25
782.527	81.73
782.704	79.32
782.882	80.44
783.059	78.6
783.236	76.98
783.413	74.94
783.59	74.65
783.768	71
783.945	77.62
784.122	78.01
784.299	78.97
784.476	77.01
784.653	75.99
784.83	71.25
785.007	66.25
785.184	67.59
785.361	69.59
785.538	77.07
785.715	79.36
785.892	84.18
786.069	82.72
786.246	86.76
786.423	82.35
786.6	79.8
786.776	81.32
786.953	80.16
787.13	76.76
787.307	78.19
787.484	79.08
787.66	75.86
787.837	75.98
788.014	75.15
788.191	71.63
788.367	67.99
788.544	71.45
788.721	70.04
788.897	70.97
789.074	73.03
789.25	72.56
789.427	72.47
789.603	73.31
789.78	76
789.956	73.32
790.133	77.3
790.309	76.05
790.486	79.69
790.662	73.22
790.839	76.36
791.015	76.38
791.192	74.43
791.368	73.54
791.544	74.81
791.721	73.78
791.897	72.43
792.073	68.46
792.249	61.54
792.426	67.38
792.602	71.39
792.778	71.31
792.954	72.68
793.13	75.27
793.307	68.35
793.483	59.07
793.659	59.14
793.835	65.34
794.011	67.52
794.187	64.69
794.363	68.8
794.539	73.13
794.715	66.33
794.891	65.37
795.067	68.34
795.243	73.05
795.419	66.14
795.595	68.33
795.771	68.29
795.947	69.56
796.122	64.93
796.298	71.7
796.474	70.39
796.65	69.06
796.826	64.46
797.001	65
797.177	59.31
797.353	62.83
797.529	64.42
797.704	64.99
797.88	61.02
798.056	58.77
798.231	56.83
798.407	62.01
798.582	68.27
798.758	78.28
798.934	85.4
799.109	83.51
799.285	75.55
799.46	76.21
799.636	73
799.811	72.61
799.986	76.79
800.162	83.56
800.337	83.04
800.513	79.4
800.688	76.84
800.863	85.13
801.039	71.92
801.214	64.11
801.389	68.98
801.565	58.94
801.74	41.52
801.915	59.25
802.09	62.59
802.265	67.95
802.441	73.76
802.616	79.21
802.791	74.68
802.966	72.71
803.141	66.62
803.316	61.85
803.491	67.28
803.666	70.08
803.841	67.87
804.016	58.47
804.191	64.9
804.366	56.2
804.541	52.57
804.716	55.56
804.891	59.31
805.066	64.21
805.241	67.85
805.416	66.4
805.591	64.14
805.765	69.79
805.94	69.31
806.115	68.01
806.29	64.35
806.464	70.2
806.639	61.02
806.814	53.45
806.989	45.42
807.163	52.5
807.338	53.68
807.512	55.39
807.687	48.11
807.862	66.78
808.036	69.13
808.211	69.01
808.385	76.35
808.56	90.3
808.734	94.37
808.909	91.1
809.083	81.97
809.258	85.91
809.432	83.81
809.606	56.98
809.781	53.75
809.955	63.43
810.13	59.42
810.304	53.47
810.478	57.54
810.652	65.73
810.827	68.55
811.001	62.3
811.175	58.46
811.349	62.38
811.524	53.48
811.698	39.93
811.872	45.57
812.046	55.56
812.22	63.57
812.394	63.72
812.568	72.8
812.742	70.05
812.916	65.74
813.09	53.13
813.264	51.24
813.438	52.54
813.612	52.97
813.786	52.9
813.96	64.35
814.134	71.69
814.308	81.48
814.482	87.72
814.656	77.51
814.83	82.47
815.003	80.63
815.177	64.51
815.351	56.88
815.525	59.24
815.698	49.13
815.872	41.89
816.046	34.81
816.219	42.78
816.393	53.87
816.567	57.34
816.74	56.01
816.914	65.53
817.088	63.24
817.261	54.63
817.435	35.58
817.608	46.23
817.782	36.93
817.955	40.38
818.129	43.66
818.302	58.5
818.475	63.39
818.649	69.24
818.822	61.32
818.996	71.85
819.169	61.59
819.342	46.52
819.516	50.09
819.689	57.09
819.862	49.67
820.035	52.74
820.209	52.54
820.382	51.58
820.555	50.41
820.728	34.79
820.901	27.16
821.075	37.57
821.248	40.74
821.421	32.41
821.594	46.78
821.767	71.42
821.94	74.22
822.113	46.3
822.286	49.81
822.459	56.44
822.632	39.76
822.805	25.8
822.978	45.26
823.151	43.08
823.324	30.73
823.496	18.85
823.669	24.65
823.842	14.4
824.015	-7.64
824.188	13.54
824.361	31.84
824.533	30.65
824.706	42.6
824.879	52.37
825.051	40.18
825.224	28.83
825.397	21.23
825.569	19.33
825.742	30.49
825.915	44.16
826.087	70.75
826.26	57.46
826.432	57.92
826.605	59.46
826.777	44.27
826.95	25.73
827.122	10.92
827.295	4.34
827.467	5.27
827.64	-15.44
827.812	-8.08
827.984	12.56
828.157	18.04
828.329	-26.16
828.501	-18.56
828.674	14.27
828.846	-10.88
829.018	21.34
829.19	25.77
829.363	54.07
829.535	55.78
829.707	62.46
829.879	20.28
830.051	25.31
830.223	7.15
830.395	-25.81
830.568	-18.9
830.74	-18.3
830.912	18.05
831.084	4.3
831.256	17.89
831.428	6.53
831.6	-5.42
831.772	-45.96
831.943	-46.93
832.115	-26.66
832.287	7.2
832.459	23.16
832.631	39.61
832.803	62.47
832.975	85.86
833.146	77.29
833.318	79.79
833.49	76.68
833.662	54
833.833	10.06
834.005	9.06
834.177	11.12
834.348	3.6
834.52	-15.92
834.692	-9.55
834.863	-32.83
835.035	-10.45
835.206	-52.67
835.378	-8.73
835.549	-5.25
835.721	19.82
835.892	4.86
836.064	1.11
836.235	-7.51
836.407	-2.61
836.578	-15.24
836.749	-5.35
836.921	-2.72
837.092	-36.68
837.264	-39.58
837.435	-75.09
837.606	-26.96
837.777	11.89
837.949	29.98
838.12	27.77
838.291	37.71
838.462	10.63
838.633	-26.3
838.805	-38.93
838.976	-43.45
839.147	-67.27
839.318	-39.59
839.489	-67.34
839.66	-24.3
839.831	-7.99
840.002	-28.96
840.173	-67.2
840.344	16.01
840.515	2.85
840.686	-112.63
840.857	-52.94
841.028	-21.9
841.199	-58.01
841.369	-72.41
841.54	-37.48
841.711	-22.66
841.882	1.8
842.053	-6.14
842.223	-16.86
842.394	-4.2
842.565	19.1
842.736	8.93
842.906	7.51
843.077	21.13
843.248	24.98
843.418	2.66
843.589	-30.73
843.759	93.39
843.93	89.99
844.101	46.28
844.271	53.6
844.442	65.48
844.612	53.57
844.783	28.56
844.953	8.19
845.123	-17.49
845.294	-23.49
845.464	-192.01
845.635	-61.38
845.805	39.75
845.975	55.52
846.146	2.27
846.316	-10.52
846.486	13.87
846.656	26.93
846.827	17.14
846.997	24.16
847.167	67
847.337	31.97
847.507	4.34
847.677	0.44
847.848	45.28
848.018	28.69
848.188	32.68
848.358	8.49
848.528	-0.25
848.698	-35.6
848.868	-110.24
849.038	-228.41
849.208	-80.82
849.378	-27.12
849.548	-17.76
849.718	-0.93
849.887	18.84
850.057	-10.1
850.227	-50.69
850.397	-76.7
850.567	-225.39
850.737	-497.5
850.906	-1467.81
851.076	-1130.66
851.246	-493.85
851.415	-29.35
851.585	-29.36
851.755	-50.21
851.924	-5.27
852.094	-80.04
852.264	-235.9
852.433	-1155.05
852.603	-185.21
852.772	-116.13
852.942	-29.06
853.111	-9.94
853.281	3.72
853.45	28.97
853.62	-15.83
853.789	-31.71
853.959	4.34
854.128	-20.13
854.297	-77.95
854.467	-117.44
854.636	-108.12
854.805	-67.09
854.975	-65.92
855.144	-70.21
855.313	181.64
855.482	-99.45
855.652	-61.71
855.821	-43.97
855.99	52.7
856.159	40.32
856.328	50.06
856.497	40.45
856.667	27.03
856.836	25.69
857.005	-6.5
857.174	-35.24
857.343	-63.87
857.512	-55.69
857.681	-92.08
857.85	-153.4
858.019	-103.32
858.188	-57.27
858.356	-74.6
858.525	-145.19
858.694	-117.81
858.863	-203.81
859.032	-222.88
859.201	-286.75
859.369	-224.55
859.538	-154.1
859.707	-113.27
859.876	-102.61
860.044	-84.83
860.213	7.33
860.382	-19.7
860.55	-16.89
860.719	42.6
860.888	49.73
861.056	15.62
861.225	25.73
861.393	67.04
861.562	29.82
861.73	0.34
861.899	-137.3
862.067	-1007.76
862.236	-29.44
862.404	-193.16
862.572	-153.25
862.741	-25.72
862.909	-26.36
863.078	-130.69
863.246	-76.64
863.414	-52.07
863.582	-27.47
863.751	-69.45
863.919	-55.53
864.087	-8.84
864.255	-35.57
864.424	-390.14
864.592	-38.64
864.76	-100.49
864.928	-289
865.096	-151.35
865.264	-103.84
865.432	-1864.2
865.6	-62.13
865.768	-116.65
865.936	-106.2
866.104	-61.75
866.272	-81.02
866.44	-376.08
866.608	550.14
866.776	293.8
866.944	3163.37
867.112	-545.87
867.28	-208.39
867.448	-92.15
867.615	-24.64
867.783	-10.1
867.951	-19
868.119	25.51
868.286	4.44
868.454	-136.94
868.622	-152.09
868.789	-214.76
868.957	-5430.36
869.125	-2458.55
869.292	-160.26
869.46	-224.45
869.627	-5.82
869.795	-7.39
869.963	7.35
870.13	29.94
870.298	57.58
870.465	-51.28
870.632	-89.5
870.8	-76.22
870.967	-135.59
871.135	-230.99
871.302	-118.46
871.469	-139.66
871.637	-82.65
871.804	-79.6
871.971	-112.3
872.139	-435.93
872.306	-12.54
872.473	-77.91
872.64	-321.14
872.807	-53.98
872.975	27.71
873.142	-231.73
873.309	2062.84
873.476	25.51
873.643	76.83
873.81	19.04
873.977	56.92
874.144	58.12
874.311	-29.24
874.478	-99.36
874.645	-137.76
874.812	-50.88
874.979	-30.83
875.146	-60.32
875.313	-85.59
875.48	13.43
875.647	-11.52
875.813	-54.06
875.98	-0.53
876.147	-21.37
876.314	-68.59
876.481	809.3
876.647	-598.03
876.814	350.39
876.981	49.13
877.147	-19.32
877.314	12.12
877.481	1.55
877.647	-1.17
877.814	-43.05
877.98	-90.91
878.147	-44.17
878.314	44.39
878.48	12.56
878.647	39.07
878.813	87.7
878.979	92.23
879.146	27.75
879.312	37.68
879.479	-5.19
879.645	-162.39
879.811	-435.73
879.978	-1104.77
880.144	-345.86
880.31	-163.07
880.477	-385.18
880.643	-426.14
880.809	-185.47
880.975	-138.66
881.142	-808.41
881.308	-72.31
881.474	21.09
881.64	15.49
881.806	-91.47
881.972	-73.03
882.138	-89.83
882.304	-118.8
882.47	-204.05
882.636	-645.29
882.802	-98.81
882.968	-11.37
883.134	-9.83
883.3	6.94
883.466	36.56
883.632	79.97
883.798	31.81
883.964	33.24
884.129	42
884.295	75.37
884.461	-44.57
884.627	-29.12
884.793	-54.69
884.958	-24.75
885.124	-118.72
885.29	-196.36
885.455	-332.65
885.621	-111.74
885.787	-223.2
885.952	-115.86
886.118	-100.64
886.283	-71.5
886.449	-148.69
886.614	-140.58
886.78	-252.02
886.945	1064.34
887.111	-578.18
887.276	-597.3
887.442	-996.59
887.607	-474.65
887.773	-363.46
887.938	-344.19
888.103	-362.62
888.269	-254.29
888.434	-415.81
888.599	-147.45
888.764	-10.79
888.93	-2.46
889.095	-14.39
889.26	-60.42
889.425	27.54
889.59	35.9
889.756	12.63
889.921	8.21
890.086	68.8
890.251	12.4
890.416	-126.6
890.581	-1056.85
890.746	155.8
890.911	146.02
891.076	156.44
891.241	-318.84
891.406	34.28
891.571	35.25
891.736	-282.68
891.901	-386.06
892.065	294.78
892.23	122.12
892.395	260.32
892.56	357.59
892.725	-399.41
892.889	-1495.73
893.054	-218.06
893.219	-57.99
893.384	-7.5
893.548	-64.37
893.713	-70.69
893.878	-43.57
