Data from Ofra_PS_T2_2A_9CX06_Reflection_3.txt Node
Date: Wed Jul 21 17:26:35 EDT 2021
User: Adam
Spectrometer: FLMT01687
Trigger mode: 0
Integration Time (sec): 1.100000E0
Scans to average: 2
Electric dark correction enabled: true
Nonlinearity correction enabled: false
Boxcar width: 2
XAxis mode: Wavelengths
Number of Pixels in Spectrum: 3648
>>>>>Begin Spectral Data<<<<<
179.494	738
179.716	834.35
179.937	773.29
180.158	729.37
180.38	1103.44
180.601	242.82
180.823	26.47
181.044	-211.14
181.265	-1.1
181.486	56.7
181.708	180.48
181.929	1429.59
182.15	-897.89
182.372	23.82
182.593	-4.7
182.814	6.97
183.035	75.39
183.257	30.26
183.478	-84.57
183.699	-41.78
183.92	-62.48
184.141	-85.58
184.363	-127.82
184.584	-38.55
184.805	-29.72
185.026	17.96
185.247	31.71
185.468	8.53
185.689	-17.19
185.91	-25.21
186.132	-32.4
186.353	-41.29
186.574	-3.23
186.795	4.01
187.016	-24.86
187.237	-37.15
187.458	-84.46
187.679	-76.86
187.9	-59.33
188.121	-47.41
188.342	-57.77
188.563	6.79
188.784	25.76
189.005	32.57
189.226	42.64
189.447	5.99
189.667	-245.39
189.888	-575.62
190.109	-1848.7
190.33	-1024.84
190.551	-1687.17
190.772	-409.32
190.993	-301.07
191.214	-256.44
191.434	-148.4
191.655	-35.15
191.876	-106.84
192.097	-164.42
192.318	-203.79
192.538	-306.6
192.759	-233.79
192.98	-83.86
193.201	-37.57
193.421	-34.74
193.642	1.45
193.863	13.42
194.083	-22.72
194.304	-33.52
194.525	-36.31
194.745	-72.32
194.966	-94.84
195.187	-73.9
195.407	-103.2
195.628	-146.01
195.848	-174.66
196.069	-167.26
196.29	-135.72
196.51	-125.97
196.731	-95.44
196.951	-128.44
197.172	-152.02
197.392	-203.35
197.613	-204.97
197.833	-244.44
198.054	-204.5
198.274	-135.87
198.495	-148.05
198.715	-105
198.936	-133.04
199.156	-77.27
199.377	-176.17
199.597	-135.24
199.817	-133.08
200.038	-34.08
200.258	-106.69
200.479	-44.44
200.699	-81.89
200.919	-28.03
201.14	-90.94
201.36	-88.55
201.58	-22.23
201.801	25.61
202.021	-20.03
202.241	-12.33
202.461	-12.63
202.682	-117.34
202.902	-214.83
203.122	-139.8
203.342	-140.83
203.563	-92.13
203.783	-43.46
204.003	-83.32
204.223	-71.16
204.443	10.08
204.663	0.49
204.884	0.69
205.104	18.47
205.324	43.11
205.544	33.74
205.764	35.84
205.984	38.74
206.204	47.04
206.424	19.6
206.644	-62.76
206.864	-69.06
207.084	-173.81
207.304	-160.02
207.525	-316.41
207.745	-83.02
207.964	-7.6
208.184	-36.95
208.404	-71.35
208.624	-75.49
208.844	-89.74
209.064	-380.53
209.284	-388.21
209.504	-214.73
209.724	-58.34
209.944	-31.8
210.164	-2.09
210.384	14.5
210.604	8.95
210.823	-54.22
211.043	-69.81
211.263	-58.81
211.483	-72.81
211.703	-124.08
211.922	-84.01
212.142	-17.11
212.362	-0.75
212.582	-14.57
212.801	-21.05
213.021	-35.82
213.241	-75.67
213.461	-117.14
213.68	-145.29
213.9	-94.21
214.12	-81.69
214.339	-135.54
214.559	-116.31
214.779	-29.69
214.998	-37.36
215.218	-81.24
215.438	-36.25
215.657	-23.43
215.877	-40.12
216.096	-11.79
216.316	14.81
216.535	-9.49
216.755	-13.76
216.974	-126.05
217.194	-200.08
217.413	-216.69
217.633	-214.31
217.852	-356.72
218.072	-135.4
218.291	-72.67
218.511	-17.92
218.73	-42.39
218.95	-11.37
219.169	-22.26
219.389	-73.68
219.608	-68.29
219.827	-47.22
220.047	-74.84
220.266	-57.8
220.485	-47.47
220.705	-57.92
220.924	-80.03
221.143	-12.19
221.363	-42.34
221.582	-20.67
221.801	0.31
222.021	10.55
222.24	-82.33
222.459	-25.56
222.678	-72.01
222.897	-162.58
223.117	-197.02
223.336	-188.69
223.555	-137.62
223.774	-67.16
223.993	-55.43
224.213	22.74
224.432	22.6
224.651	36
224.87	-1.17
225.089	22.44
225.308	7.62
225.527	22.22
225.746	18.74
225.965	9.93
226.184	-31.28
226.404	-10.58
226.623	-35.11
226.842	-39.97
227.061	-7.08
227.28	2.05
227.499	-16.56
227.718	6.71
227.936	0.6
228.155	-11.17
228.374	-13.44
228.593	-2.62
228.812	-12.75
229.031	-19.12
229.25	-67.66
229.469	-71.9
229.688	-56.36
229.907	-27.99
230.125	-14.18
230.344	-6.05
230.563	-11.54
230.782	-9.8
231.001	-107.53
231.22	-78.97
231.438	-32.58
231.657	-22.48
231.876	-32.79
232.095	25.61
232.313	12.58
232.532	-34.63
232.751	-58.73
232.969	-89.52
233.188	-198.08
233.407	-95.41
233.625	-42.91
233.844	-57.7
234.063	-21.09
234.281	-12.79
234.5	-19.87
234.719	-8.23
234.937	2.16
235.156	-11.03
235.374	-5.9
235.593	-25.12
235.811	-63.3
236.03	-52.55
236.249	-99.95
236.467	-93.57
236.686	-43.3
236.904	-15.2
237.123	-46.59
237.341	-34.06
237.559	-28.52
237.778	-50.39
237.996	-78.6
238.215	-26.07
238.433	-10.31
238.652	-9.92
238.87	-35.79
239.088	-17.67
239.307	-16.12
239.525	-5.43
239.743	-39.83
239.962	-23.92
240.18	-53.69
240.398	-99.08
240.617	-118.79
240.835	-105.79
241.053	-68.49
241.271	-35.13
241.49	-14.03
241.708	-52.69
241.926	-45.64
242.144	-48.69
242.363	-95.08
242.581	-124.11
242.799	-71.01
243.017	-33.99
243.235	-44.31
243.453	-33.39
243.672	-23.83
243.89	-21.73
244.108	-43.46
244.326	-18.48
244.544	-13.43
244.762	-20.83
244.98	-1.18
245.198	1.14
245.416	-28.9
245.634	-30.54
245.852	-11.64
246.07	-35.9
246.288	-30.77
246.506	-66.48
246.724	-33.95
246.942	-58.84
247.16	-9.83
247.378	4.56
247.596	38.05
247.814	23.7
248.032	17.57
248.25	-15.21
248.468	-16.59
248.685	-9.3
248.903	26.64
249.121	18.18
249.339	4.08
249.557	-1.5
249.775	-10.92
249.992	-83.54
250.21	-80.39
250.428	-60.15
250.646	-104.08
250.863	-132.12
251.081	-103.25
251.299	-115.11
251.517	-123.29
251.734	-61.26
251.952	-44.91
252.17	-40.27
252.387	-13.64
252.605	-29.63
252.823	-26
253.04	-7.86
253.258	17.48
253.475	-6.12
253.693	30.89
253.911	22.13
254.128	27.87
254.346	12.11
254.563	3.58
254.781	-25.12
254.998	-43.92
255.216	-59.87
255.433	-42.81
255.651	-2.38
255.868	38.58
256.086	67.68
256.303	43.14
256.521	24.47
256.738	-9.52
256.956	-51.64
257.173	-94.39
257.39	-97.16
257.608	-144.18
257.825	-61.52
258.043	-42.84
258.26	-14.34
258.477	25.3
258.695	23.89
258.912	-33.55
259.129	-10.85
259.346	-51.92
259.564	-91.9
259.781	-107.45
259.998	-41.2
260.216	-24.45
260.433	16.08
260.65	17.32
260.867	36.78
261.084	0.74
261.302	-17.13
261.519	-40.91
261.736	-73.29
261.953	-95.32
262.17	-55.99
262.387	-101.56
262.604	-113.66
262.822	-129.67
263.039	-97.64
263.256	-150.31
263.473	-108.9
263.69	-83.05
263.907	-21.23
264.124	-12.17
264.341	-21.28
264.558	-21.7
264.775	0.08
264.992	-26.54
265.209	-20.54
265.426	15.81
265.643	36.04
265.86	31.34
266.077	41.56
266.294	40.58
266.51	-13.94
266.727	-38.32
266.944	-41.1
267.161	-59.86
267.378	-66.14
267.595	-32.99
267.812	-54.46
268.028	-86.55
268.245	-47.97
268.462	-85.17
268.679	-80.51
268.896	-21.34
269.112	-14.74
269.329	-19.72
269.546	6.89
269.763	2.26
269.979	-19.88
270.196	-13.38
270.413	-42.65
270.629	-70.2
270.846	-78.84
271.063	-72.69
271.279	-93.43
271.496	-85
271.712	-38.9
271.929	-16.31
272.146	-25.42
272.362	-18.68
272.579	13.1
272.795	5.53
273.012	-6.82
273.228	-5.55
273.445	-16.6
273.661	-32.74
273.878	-79.49
274.094	-63.63
274.311	-81.81
274.527	-7.04
274.744	-7.7
274.96	-3.08
275.177	-14.12
275.393	-0.84
275.609	-30.28
275.826	0.24
276.042	-7.28
276.259	-7.75
276.475	6.95
276.691	13.3
276.908	-13.84
277.124	-6.17
277.34	-7.4
277.557	-34.78
277.773	-35.64
277.989	-49.86
278.205	-46.32
278.422	-34.27
278.638	-29.01
278.854	-8.82
279.07	-2.83
279.286	-1.06
279.503	-17.69
279.719	-15.81
279.935	-57.14
280.151	-77.69
280.367	-50.56
280.583	-70.41
280.799	-65.25
281.016	-100.61
281.232	-45.67
281.448	-65.57
281.664	-38.77
281.88	-72.69
282.096	-30.18
282.312	-8.25
282.528	30.69
282.744	42.69
282.96	25.9
283.176	10.64
283.392	-3.86
283.608	-30.61
283.824	-32.03
284.04	-10.71
284.256	-3.55
284.471	-21.49
284.687	-14.08
284.903	-7.3
285.119	10.13
285.335	-9.94
285.551	-9.76
285.767	-24.04
285.982	-36.77
286.198	-87.54
286.414	-35.68
286.63	-10.07
286.846	18.66
287.061	-4.63
287.277	33.21
287.493	13.35
287.709	30.03
287.924	5.09
288.14	41.18
288.356	49.85
288.571	65.03
288.787	27.8
289.003	31.81
289.218	15.32
289.434	-38.86
289.65	-48.58
289.865	-46.37
290.081	-21.18
290.296	-32.75
290.512	-22.83
290.727	-54.13
290.943	-53.14
291.159	-72.86
291.374	-55.18
291.59	-59.84
291.805	-37.4
292.021	-22.65
292.236	-7.99
292.451	-1.95
292.667	8.15
292.882	19.2
293.098	15.3
293.313	-1.04
293.529	-17.38
293.744	-52.98
293.959	-60.32
294.175	-54.51
294.39	-10.55
294.605	-1.13
294.821	32.28
295.036	32.43
295.251	30.88
295.467	8.66
295.682	1.21
295.897	-60.38
296.112	-77.7
296.328	-73.96
296.543	-107.11
296.758	-107.93
296.973	-45.44
297.188	13.15
297.404	-5.59
297.619	-12.46
297.834	-21.76
298.049	-51.5
298.264	-106.52
298.479	-45.06
298.694	-38.68
298.909	-24.55
299.125	-25.88
299.34	-16.94
299.555	-31.63
299.77	-7.06
299.985	-36.12
300.2	-76.24
300.415	-99.97
300.63	-56.27
300.845	-79.96
301.06	-76.8
301.275	-29.73
301.49	-1.77
301.704	-26.84
301.919	-37.84
302.134	-50.03
302.349	-52.42
302.564	-121.96
302.779	-164.85
302.994	-118.73
303.209	-69.27
303.423	-44.71
303.638	5.25
303.853	-15.91
304.068	-22.51
304.283	-25.88
304.497	-32.84
304.712	-40.79
304.927	-34.59
305.142	-44.24
305.356	-33.69
305.571	-29.22
305.786	-50.44
306	-57.5
306.215	-53.14
306.43	-93.16
306.644	-108.24
306.859	-46.52
307.074	-32.25
307.288	-57.64
307.503	-54.26
307.717	-61.42
307.932	-70.34
308.147	-83.85
308.361	-62.04
308.576	-60.35
308.79	-99.76
309.005	-81.37
309.219	-41.79
309.434	-44.33
309.648	-41.85
309.863	-13.29
310.077	-22.46
310.292	-49.31
310.506	-33.61
310.72	-15.77
310.935	-0.88
311.149	-1.53
311.364	26.67
311.578	34.21
311.792	23.31
312.007	25.35
312.221	14.95
312.435	11.43
312.649	-9.99
312.864	22.13
313.078	8.47
313.292	80.43
313.507	42.33
313.721	65.74
313.935	18.95
314.149	-1.82
314.363	-16.7
314.578	-10.59
314.792	-4.79
315.006	-17.06
315.22	9.2
315.434	15.28
315.648	9.73
315.862	-0.65
316.077	3.23
316.291	-22.36
316.505	-28.47
316.719	-20.64
316.933	-31.47
317.147	-15.91
317.361	-58.03
317.575	-95.76
317.789	-135
318.003	-203.5
318.217	-167.9
318.431	-54.58
318.645	-0.68
318.859	4.1
319.073	30.4
319.287	2.13
319.5	-42.52
319.714	-88.3
319.928	-126.18
320.142	-140.92
320.356	-73.8
320.57	-27.17
320.784	-29.38
320.997	-12.09
321.211	-10.8
321.425	-56.13
321.639	-84.72
321.853	-16.19
322.066	-0.79
322.28	-3.69
322.494	1.18
322.707	24.13
322.921	-15.98
323.135	-21.32
323.349	-7.82
323.562	-31.08
323.776	-53.57
323.989	-44
324.203	-70.64
324.417	-103.62
324.63	-103.31
324.844	-95.16
325.057	-96.82
325.271	-61.57
325.485	-20.71
325.698	11.24
325.912	18.88
326.125	0.08
326.339	11.28
326.552	-13.6
326.766	-26.87
326.979	8.03
327.193	46.76
327.406	18.78
327.619	9.68
327.833	22.29
328.046	-19.22
328.26	-65.39
328.473	-40.13
328.686	-47.34
328.9	-63.21
329.113	-48.93
329.326	-71.65
329.54	-59.43
329.753	-76.58
329.966	-94.44
330.179	-74.39
330.393	-36.57
330.606	-21.21
330.819	-2.52
331.032	13.5
331.246	11.17
331.459	31.15
331.672	4.69
331.885	-6.88
332.098	-25.92
332.311	-38.71
332.525	-80.27
332.738	-33.09
332.951	1.42
333.164	22.56
333.377	30.57
333.59	35
333.803	35.07
334.016	22.14
334.229	8.17
334.442	15.84
334.655	41.16
334.868	20.03
335.081	13.03
335.294	0.45
335.507	-19.64
335.72	-39.65
335.933	-42.6
336.146	-55.83
336.359	-55.94
336.572	-75.56
336.785	-93.06
336.997	-87.9
337.21	-52.07
337.423	-40.7
337.636	-38.42
337.849	-27.64
338.062	-44.27
338.274	-46.7
338.487	-78.57
338.7	-65.74
338.913	-109.14
339.125	-118.94
339.338	-185.83
339.551	-129.64
339.763	-101.62
339.976	-55.16
340.189	-22.07
340.402	-5.03
340.614	-21.51
340.827	-35.4
341.039	-68.31
341.252	-67.55
341.465	-46.34
341.677	-44.42
341.89	-63.67
342.102	-13.46
342.315	-34.13
342.527	-76.83
342.74	-70.15
342.952	-42.07
343.165	-46.56
343.377	-6.9
343.59	-1.91
343.802	8.03
344.015	7.05
344.227	6.5
344.44	-19.55
344.652	-19.96
344.864	-30.41
345.077	5.94
345.289	11.72
345.502	20.71
345.714	19.1
345.926	23.11
346.139	15.43
346.351	16.67
346.563	13.67
346.775	25.33
346.988	11.69
347.2	-14.94
347.412	-65.06
347.624	-81.55
347.837	-99.74
348.049	-63.59
348.261	-22.45
348.473	-0.09
348.685	9.93
348.897	8.64
349.11	-23.56
349.322	-75.75
349.534	-66.45
349.746	-81.35
349.958	-82.39
350.17	-80.31
350.382	-21.38
350.594	-33.73
350.806	-22.07
351.018	-18.73
351.23	-46.7
351.442	-122.55
351.654	-128.21
351.866	-104
352.078	-94.48
352.29	-37.94
352.502	-3.66
352.714	10.06
352.926	-9.46
353.138	-12.99
353.35	-21.12
353.561	-28.48
353.773	-52.14
353.985	-32.89
354.197	-48.93
354.409	-56.04
354.621	-56.01
354.832	-34.56
355.044	-49.23
355.256	-46.44
355.468	-28.29
355.679	-28.65
355.891	-30.62
356.103	-39.31
356.314	-35.65
356.526	-38.16
356.738	-22.13
356.949	-25.85
357.161	-23.37
357.373	-10.88
357.584	-23.56
357.796	-26.88
358.008	-35.67
358.219	-19.27
358.431	-31.21
358.642	-9.51
358.854	-8.81
359.065	-23.03
359.277	-50.88
359.488	-52.54
359.7	-97.87
359.911	-111.28
360.123	-82.24
360.334	-88.04
360.546	-107.66
360.757	-92.45
360.969	-81.92
361.18	-79.36
361.391	-49.65
361.603	-57.22
361.814	-46.18
362.025	-46.6
362.237	-35.37
362.448	-34.46
362.659	-6.83
362.871	-10.77
363.082	-19.03
363.293	-21.69
363.504	-32.84
363.716	-58.2
363.927	-70.52
364.138	-83.81
364.349	-96.29
364.56	-91.56
364.772	-82.19
364.983	-46.16
365.194	-34.72
365.405	-25.09
365.616	5.74
365.827	14.24
366.038	-22.94
366.25	-29.85
366.461	-51.97
366.672	-41.06
366.883	-15.5
367.094	5.38
367.305	-4.9
367.516	3.99
367.727	-26.62
367.938	-45.07
368.149	-57.83
368.36	-34.01
368.571	-27.87
368.781	-45.44
368.992	-62.86
369.203	-77.47
369.414	-118.2
369.625	-131.53
369.836	-114.87
370.047	-134.76
370.258	-113.22
370.468	-94.62
370.679	-103.53
370.89	-93.56
371.101	-59.85
371.312	-60.35
371.522	-57.34
371.733	-40.09
371.944	-24.98
372.155	-23.54
372.365	-28.28
372.576	-32.41
372.787	-35.04
372.997	-52.81
373.208	-56.33
373.419	-22.76
373.629	-48.28
373.84	-60.21
374.05	-68.43
374.261	-53.49
374.472	-82.28
374.682	-24.54
374.893	-18.92
375.103	14.43
375.314	15.8
375.524	22.07
375.735	21.46
375.945	22.21
376.156	-6.49
376.366	-13.12
376.577	-15.13
376.787	-31.89
376.997	-29.26
377.208	-24.32
377.418	-35.42
377.629	-20.99
377.839	-14.27
378.049	-8.89
378.26	8.39
378.47	14.48
378.68	-2.69
378.89	-9.84
379.101	-18.03
379.311	-54.44
379.521	-78.91
379.732	-69.52
379.942	-60.72
380.152	-84.82
380.362	-47.34
380.572	-42.07
380.783	-32.09
380.993	-19.2
381.203	-7.96
381.413	-7.07
381.623	11.74
381.833	5.15
382.043	-12.27
382.253	-8.92
382.463	-1.71
382.674	-20.04
382.884	-32.57
383.094	-31.55
383.304	-24.02
383.514	-21.88
383.724	-11.53
383.934	-14.88
384.144	-25.49
384.353	-36.91
384.563	-40.02
384.773	-35.45
384.983	-37.13
385.193	-12.88
385.403	-6.18
385.613	-14.76
385.823	-21.49
386.033	-13.88
386.242	-21.8
386.452	-20.3
386.662	-24.41
386.872	-8.71
387.082	-14.34
387.291	-26.64
387.501	-35.23
387.711	-16.63
387.921	-32.11
388.13	-27.65
388.34	-5.98
388.55	-9.98
388.759	-15.25
388.969	-8.88
389.179	-8.69
389.388	-12.22
389.598	-1.55
389.807	-7.68
390.017	-10.33
390.227	-13.23
390.436	-12.8
390.646	-15.16
390.855	-11.34
391.065	-10.35
391.274	-9.9
391.484	-14.61
391.693	-10.97
391.903	-9.12
392.112	-3.94
392.322	1.27
392.531	4.35
392.74	2.85
392.95	-0.42
393.159	-2.34
393.369	-3.62
393.578	-2.67
393.787	-2.6
393.997	0.1
394.206	-2.41
394.415	-2.87
394.625	-4.87
394.834	-5.51
395.043	-4
395.252	-0.2
395.462	1.14
395.671	4.18
395.88	5.1
396.089	4.47
396.298	2.34
396.508	2.46
396.717	0.64
396.926	1.26
397.135	1.54
397.344	1.86
397.553	2.65
397.762	4.52
397.971	4.44
398.181	4.12
398.39	3.87
398.599	3.49
398.808	2.93
399.017	3.65
399.226	4.35
399.435	5.81
399.644	5.85
399.853	5.35
400.062	4.9
400.27	4.59
400.479	3.78
400.688	3.27
400.897	3.79
401.106	3.7
401.315	3.49
401.524	3.72
401.733	4.53
401.941	4.7
402.15	5.08
402.359	4.96
402.568	5.32
402.777	5.46
402.985	5.1
403.194	4.8
403.403	4.93
403.612	4.58
403.82	4.25
404.029	4.6
404.238	4.48
404.446	4.71
404.655	4.52
404.864	4.64
405.072	4.28
405.281	4.53
405.489	4.3
405.698	4.34
405.906	4.14
406.115	4.28
406.324	4.07
406.532	4.31
406.741	4.36
406.949	4.44
407.158	4.45
407.366	4.63
407.574	4.6
407.783	4.64
407.991	4.51
408.2	4.64
408.408	4.5
408.617	4.39
408.825	4.26
409.033	4.36
409.242	4.3
409.45	4.38
409.658	4.28
409.867	4.51
410.075	4.28
410.283	4.12
410.491	3.99
410.7	4.07
410.908	3.98
411.116	4.3
411.324	4.39
411.533	4.4
411.741	4.6
411.949	4.63
412.157	4.36
412.365	4.29
412.573	4.39
412.781	4.25
412.99	4.05
413.198	4.19
413.406	4.07
413.614	3.88
413.822	3.77
414.03	3.74
414.238	3.59
414.446	3.86
414.654	3.75
414.862	3.91
415.07	4.02
415.278	4.25
415.486	3.95
415.694	4.08
415.902	3.79
416.109	3.65
416.317	3.54
416.525	3.43
416.733	3.41
416.941	3.67
417.149	3.61
417.357	3.61
417.564	3.78
417.772	3.96
417.98	3.8
418.188	3.81
418.395	3.84
418.603	4.12
418.811	3.76
419.019	3.71
419.226	4.08
419.434	4.13
419.642	3.73
419.849	3.99
420.057	4.01
420.265	3.84
420.472	3.46
420.68	3.44
420.887	3.29
421.095	3.33
421.302	3.19
421.51	3.59
421.717	3.78
421.925	3.81
422.132	3.71
422.34	3.51
422.547	3.45
422.755	3.35
422.962	3.19
423.17	2.96
423.377	3.12
423.585	3.05
423.792	2.93
423.999	3.09
424.207	3.23
424.414	3.33
424.621	3.4
424.829	3.36
425.036	3.38
425.243	3.51
425.451	3.39
425.658	3.12
425.865	3.39
426.072	3.39
426.28	3.64
426.487	3.46
426.694	3.61
426.901	3.33
427.108	3.19
427.315	2.84
427.523	3.34
427.73	3.29
427.937	3.4
428.144	3.38
428.351	3.35
428.558	3.31
428.765	3.34
428.972	3.31
429.179	3.45
429.386	3.85
429.593	3.54
429.8	3.36
430.007	3.47
430.214	3.55
430.421	3.22
430.628	3.2
430.835	3.28
431.042	3.47
431.249	3.51
431.456	3.48
431.662	3.63
431.869	3.73
432.076	3.67
432.283	3.68
432.49	3.79
432.697	3.76
432.903	3.56
433.11	3.43
433.317	3.48
433.524	3.63
433.73	3.61
433.937	3.89
434.144	3.88
434.35	3.8
434.557	3.62
434.764	3.63
434.97	3.46
435.177	3.54
435.384	3.49
435.59	3.55
435.797	3.75
436.003	3.95
436.21	4.01
436.416	4.14
436.623	4.1
436.829	4.1
437.036	4.12
437.242	4.07
437.449	3.98
437.655	4.06
437.862	4.06
438.068	3.95
438.275	4.09
438.481	4.29
438.687	4.28
438.894	4.19
439.1	4.22
439.307	4.21
439.513	4.16
439.719	4.11
439.926	4.27
440.132	4.26
440.338	4.16
440.544	4.32
440.751	4.41
440.957	4.32
441.163	4.29
441.369	4.4
441.575	4.08
441.782	3.99
441.988	3.86
442.194	3.9
442.4	3.75
442.606	4.06
442.812	4.21
443.018	4.4
443.224	4.49
443.431	4.66
443.637	4.33
443.843	4.2
444.049	4.19
444.255	4.11
444.461	4.21
444.667	4.32
444.873	4.53
445.079	4.53
445.284	4.52
445.49	4.27
445.696	4.15
445.902	3.98
446.108	3.81
446.314	3.83
446.52	3.97
446.726	4.23
446.931	4.28
447.137	4.44
447.343	4.51
447.549	4.46
447.755	4.39
447.96	4.4
448.166	4.36
448.372	4.3
448.578	4.33
448.783	4.31
448.989	4.46
449.195	4.71
449.4	4.71
449.606	4.69
449.812	4.65
450.017	4.59
450.223	4.36
450.428	4.36
450.634	4.52
450.84	4.67
451.045	4.6
451.251	4.46
451.456	4.73
451.662	4.72
451.867	4.73
452.073	4.75
452.278	4.96
452.483	4.98
452.689	4.86
452.894	4.88
453.1	4.96
453.305	4.85
453.51	4.71
453.716	4.64
453.921	4.56
454.127	4.52
454.332	4.52
454.537	4.45
454.742	4.54
454.948	4.57
455.153	4.52
455.358	4.64
455.563	4.76
455.769	4.87
455.974	4.72
456.179	4.66
456.384	4.67
456.589	4.68
456.795	4.59
457	4.68
457.205	4.93
457.41	4.82
457.615	4.7
457.82	4.64
458.025	4.64
458.23	4.5
458.435	4.59
458.64	4.55
458.845	4.72
459.05	4.77
459.255	4.74
459.46	4.7
459.665	4.7
459.87	4.67
460.075	4.58
460.28	4.63
460.485	4.72
460.69	4.79
460.895	4.6
461.099	4.62
461.304	4.67
461.509	4.68
461.714	4.5
461.919	4.73
462.123	4.64
462.328	4.68
462.533	4.5
462.738	4.7
462.942	4.58
463.147	4.68
463.352	4.71
463.556	4.8
463.761	4.87
463.966	4.94
464.17	4.95
464.375	4.81
464.58	4.84
464.784	4.77
464.989	4.64
465.193	4.69
465.398	4.75
465.602	4.89
465.807	4.81
466.011	4.97
466.216	5.05
466.42	5.07
466.625	5.01
466.829	5.09
467.034	5.06
467.238	5.17
467.443	5.15
467.647	5.07
467.851	5.26
468.056	5.3
468.26	5.17
468.464	5.3
468.669	5.34
468.873	5.34
469.077	5.4
469.282	5.51
469.486	5.44
469.69	5.53
469.894	5.46
470.099	5.48
470.303	5.56
470.507	5.44
470.711	5.4
470.915	5.43
471.119	5.41
471.324	5.29
471.528	5.37
471.732	5.39
471.936	5.34
472.14	5.39
472.344	5.52
472.548	5.58
472.752	5.83
472.956	6.04
473.16	6.01
473.364	5.91
473.568	5.99
473.772	5.94
473.976	5.84
474.18	5.8
474.384	5.88
474.588	5.8
474.792	5.72
474.995	5.83
475.199	5.95
475.403	6.01
475.607	6.07
475.811	6.04
476.015	6.04
476.218	6.07
476.422	6
476.626	6.1
476.83	6.23
477.033	6.13
477.237	6.03
477.441	6.07
477.644	6.04
477.848	6.04
478.052	6.09
478.255	6.17
478.459	6.21
478.663	6.39
478.866	6.42
479.07	6.44
479.273	6.64
479.477	6.69
479.681	6.56
479.884	6.55
480.088	6.46
480.291	6.35
480.495	6.32
480.698	6.4
480.901	6.46
481.105	6.65
481.308	6.62
481.512	6.62
481.715	6.67
481.919	6.71
482.122	6.7
482.325	6.7
482.529	6.71
482.732	6.64
482.935	6.56
483.138	6.49
483.342	6.69
483.545	6.83
483.748	6.85
483.952	6.86
484.155	7.01
484.358	6.93
484.561	6.92
484.764	6.96
484.967	7.08
485.171	7.1
485.374	7.06
485.577	7.08
485.78	7.11
485.983	7.05
486.186	6.99
486.389	6.99
486.592	6.98
486.795	7.03
486.998	7.06
487.201	7.16
487.404	7.21
487.607	7.31
487.81	7.21
488.013	7.24
488.216	7.1
488.419	7.12
488.622	6.99
488.825	6.98
489.028	6.93
489.231	6.95
489.433	6.88
489.636	6.81
489.839	6.87
490.042	6.81
490.245	6.88
490.447	6.98
490.65	7.04
490.853	6.99
491.056	7.1
491.258	7.09
491.461	7.07
491.664	7.16
491.866	7.16
492.069	7.25
492.272	7.21
492.474	7.24
492.677	7.27
492.879	7.35
493.082	7.35
493.285	7.52
493.487	7.43
493.69	7.39
493.892	7.31
494.095	7.27
494.297	7.18
494.5	7.3
494.702	7.36
494.905	7.44
495.107	7.45
495.309	7.47
495.512	7.51
495.714	7.56
495.917	7.64
496.119	7.64
496.321	7.74
496.524	7.81
496.726	7.8
496.928	7.82
497.13	7.83
497.333	7.82
497.535	7.8
497.737	7.82
497.939	7.79
498.142	7.87
498.344	7.81
498.546	7.8
498.748	7.84
498.95	8.02
499.152	8.02
499.355	8.08
499.557	8.18
499.759	8.28
499.961	8.2
500.163	8.25
500.365	8.34
500.567	8.38
500.769	8.28
500.971	8.3
501.173	8.22
501.375	8.16
501.577	8.14
501.779	8.16
501.981	8.23
502.183	8.37
502.385	8.39
502.587	8.36
502.788	8.53
502.99	8.54
503.192	8.54
503.394	8.57
503.596	8.65
503.798	8.62
503.999	8.68
504.201	8.76
504.403	8.88
504.605	8.95
504.806	8.95
505.008	8.97
505.21	9.06
505.411	9.09
505.613	9.1
505.815	9.18
506.016	9.27
506.218	9.32
506.42	9.31
506.621	9.32
506.823	9.4
507.024	9.3
507.226	9.29
507.427	9.33
507.629	9.44
507.83	9.49
508.032	9.61
508.233	9.69
508.435	9.71
508.636	9.8
508.838	9.81
509.039	9.83
509.24	9.86
509.442	9.93
509.643	9.88
509.845	9.9
510.046	10.01
510.247	9.99
510.448	10.05
510.65	10.1
510.851	10.3
511.052	10.29
511.254	10.4
511.455	10.5
511.656	10.62
511.857	10.6
512.058	10.64
512.26	10.63
512.461	10.63
512.662	10.67
512.863	10.61
513.064	10.63
513.265	10.64
513.466	10.72
513.667	10.72
513.868	10.75
514.069	10.92
514.27	11.01
514.471	11.01
514.672	11.01
514.873	10.95
515.074	10.97
515.275	10.85
515.476	10.86
515.677	10.98
515.878	11.19
516.079	11.19
516.28	11.31
516.481	11.43
516.682	11.45
516.882	11.38
517.083	11.41
517.284	11.4
517.485	11.37
517.686	11.35
517.886	11.38
518.087	11.39
518.288	11.44
518.488	11.41
518.689	11.45
518.89	11.45
519.091	11.5
519.291	11.56
519.492	11.68
519.692	11.73
519.893	11.87
520.094	11.86
520.294	11.85
520.495	11.8
520.695	11.82
520.896	11.8
521.096	11.86
521.297	11.9
521.497	11.91
521.698	11.9
521.898	11.83
522.099	11.82
522.299	11.93
522.499	12.01
522.7	12.04
522.9	12.1
523.101	12.16
523.301	12.18
523.501	12.16
523.702	12.2
523.902	12.3
524.102	12.4
524.302	12.36
524.503	12.43
524.703	12.41
524.903	12.43
525.103	12.37
525.304	12.49
525.504	12.52
525.704	12.63
525.904	12.62
526.104	12.65
526.304	12.62
526.504	12.66
526.705	12.61
526.905	12.71
527.105	12.71
527.305	12.67
527.505	12.59
527.705	12.67
527.905	12.59
528.105	12.61
528.305	12.64
528.505	12.73
528.705	12.82
528.905	12.85
529.105	12.88
529.304	12.95
529.504	13.06
529.704	12.96
529.904	13
530.104	13.03
530.304	13.11
530.503	13.05
530.703	13.02
530.903	13.04
531.103	13.07
531.303	13.05
531.502	13.13
531.702	13.36
531.902	13.41
532.101	13.41
532.301	13.4
532.501	13.43
532.7	13.3
532.9	13.31
533.1	13.36
533.299	13.44
533.499	13.42
533.698	13.49
533.898	13.56
534.097	13.61
534.297	13.68
534.496	13.67
534.696	13.71
534.895	13.81
535.095	13.92
535.294	13.88
535.494	13.94
535.693	13.95
535.892	13.97
536.092	13.87
536.291	13.9
536.491	14.02
536.69	14.1
536.889	14.04
537.088	14.15
537.288	14.24
537.487	14.28
537.686	14.35
537.886	14.44
538.085	14.51
538.284	14.64
538.483	14.61
538.682	14.64
538.882	14.7
539.081	14.77
539.28	14.68
539.479	14.67
539.678	14.65
539.877	14.77
540.076	14.8
540.275	14.85
540.474	15.03
540.673	15.18
540.872	15.13
541.071	15.16
541.27	15.23
541.469	15.28
541.668	15.3
541.867	15.37
542.066	15.42
542.265	15.5
542.464	15.45
542.663	15.47
542.862	15.68
543.06	15.73
543.259	15.81
543.458	15.96
543.657	16.07
543.856	16.04
544.054	16.09
544.253	16.1
544.452	16.12
544.651	16.23
544.849	16.19
545.048	16.31
545.247	16.36
545.445	16.41
545.644	16.42
545.843	16.53
546.041	16.63
546.24	16.76
546.438	16.93
546.637	16.97
546.836	17.15
547.034	17.2
547.233	17.2
547.431	17.22
547.63	17.34
547.828	17.34
548.027	17.38
548.225	17.43
548.423	17.49
548.622	17.61
548.82	17.7
549.019	17.72
549.217	17.87
549.415	18
549.614	18.08
549.812	18.09
550.01	18.17
550.209	18.27
550.407	18.36
550.605	18.39
550.803	18.59
551.002	18.79
551.2	18.9
551.398	19.04
551.596	19.23
551.794	19.37
551.993	19.47
552.191	19.53
552.389	19.62
552.587	19.65
552.785	19.66
552.983	19.76
553.181	19.92
553.379	20.03
553.577	20.13
553.775	20.26
553.973	20.29
554.171	20.36
554.369	20.36
554.567	20.43
554.765	20.6
554.963	20.77
555.161	20.85
555.359	21.02
555.557	21.27
555.755	21.36
555.952	21.53
556.15	21.62
556.348	21.75
556.546	21.86
556.744	21.9
556.941	21.94
557.139	22.09
557.337	22.19
557.535	22.13
557.732	22.27
557.93	22.48
558.128	22.61
558.325	22.78
558.523	22.93
558.721	23.06
558.918	23.12
559.116	23.22
559.313	23.21
559.511	23.4
559.708	23.47
559.906	23.65
560.104	23.74
560.301	23.99
560.498	24.07
560.696	24.21
560.893	24.22
561.091	24.44
561.288	24.54
561.486	24.66
561.683	24.8
561.88	24.96
562.078	25.07
562.275	25.05
562.473	25.24
562.67	25.49
562.867	25.67
563.064	25.74
563.262	25.89
563.459	26.07
563.656	26.23
563.853	26.28
564.051	26.48
564.248	26.74
564.445	26.79
564.642	26.73
564.839	26.95
565.036	27.06
565.234	27.21
565.431	27.31
565.628	27.53
565.825	27.66
566.022	27.79
566.219	27.89
566.416	28.02
566.613	28.11
566.81	28.17
567.007	28.19
567.204	28.11
567.401	28.17
567.598	28.23
567.795	28.32
567.991	28.39
568.188	28.57
568.385	28.69
568.582	28.75
568.779	28.87
568.976	28.99
569.172	29.2
569.369	29.2
569.566	29.31
569.763	29.44
569.96	29.46
570.156	29.41
570.353	29.49
570.55	29.49
570.746	29.41
570.943	29.5
571.14	29.49
571.336	29.47
571.533	29.57
571.729	29.67
571.926	29.74
572.123	29.96
572.319	30.14
572.516	30.15
572.712	30.18
572.909	30.26
573.105	30.26
573.302	30.29
573.498	30.44
573.695	30.49
573.891	30.5
574.087	30.5
574.284	30.45
574.48	30.45
574.677	30.48
574.873	30.48
575.069	30.5
575.266	30.64
575.462	30.5
575.658	30.52
575.854	30.63
576.051	30.76
576.247	30.66
576.443	30.78
576.639	30.7
576.835	30.61
577.032	30.44
577.228	30.67
577.424	30.67
577.62	30.71
577.816	30.76
578.012	30.91
578.208	30.71
578.404	30.74
578.6	30.85
578.796	30.81
578.993	30.74
579.189	30.82
579.384	30.77
579.58	30.66
579.776	30.66
579.972	30.62
580.168	30.52
580.364	30.51
580.56	30.5
580.756	30.46
580.952	30.37
581.148	30.34
581.343	30.34
581.539	30.4
581.735	30.45
581.931	30.53
582.127	30.6
582.322	30.61
582.518	30.66
582.714	30.63
582.909	30.63
583.105	30.54
583.301	30.36
583.496	30.22
583.692	30.2
583.888	30.11
584.083	30.12
584.279	30.31
584.474	30.34
584.67	30.3
584.866	30.38
585.061	30.26
585.257	30.17
585.452	30.19
585.648	30.12
585.843	30.12
586.039	30.3
586.234	30.38
586.429	30.34
586.625	30.44
586.82	30.43
587.015	30.37
587.211	30.23
587.406	30.18
587.601	30.16
587.797	30.1
587.992	30.02
588.187	30.2
588.383	30.23
588.578	30.24
588.773	30.28
588.968	30.29
589.163	30.25
589.359	30.26
589.554	30.27
589.749	30.24
589.944	30.28
590.139	30.32
590.334	30.43
590.529	30.46
590.724	30.55
590.919	30.68
591.114	30.73
591.309	30.82
591.504	31.02
591.699	31
591.894	31
592.089	31.03
592.284	31
592.479	31
592.674	31.04
592.869	31.17
593.064	31.27
593.259	31.41
593.454	31.44
593.648	31.59
593.843	31.53
594.038	31.58
594.233	31.48
594.428	31.51
594.622	31.56
594.817	31.84
595.012	31.81
595.206	31.87
595.401	31.9
595.596	31.86
595.79	31.89
595.985	32.04
596.18	32.24
596.374	32.37
596.569	32.55
596.763	32.49
596.958	32.55
597.153	32.54
597.347	32.59
597.542	32.65
597.736	32.67
597.931	32.75
598.125	32.79
598.319	32.98
598.514	32.97
598.708	33.18
598.903	33.24
599.097	33.31
599.291	33.26
599.486	33.27
599.68	33.22
599.874	33.35
600.069	33.45
600.263	33.43
600.457	33.54
600.651	33.58
600.846	33.58
601.04	33.63
601.234	33.64
601.428	33.78
601.622	33.89
601.817	33.83
602.011	33.88
602.205	33.98
602.399	33.88
602.593	33.89
602.787	33.86
602.981	33.84
603.175	33.97
603.369	33.93
603.563	33.94
603.757	34.12
603.951	34.13
604.145	33.98
604.339	34.12
604.533	34.07
604.727	33.94
604.921	33.91
605.115	33.91
605.309	34.08
605.502	34.04
605.696	34.01
605.89	33.88
606.084	33.76
606.278	33.47
606.471	33.34
606.665	33.26
606.859	33.17
607.053	33.18
607.246	33.19
607.44	33.19
607.634	33.11
607.827	33.14
608.021	33.02
608.214	32.88
608.408	32.72
608.602	32.67
608.795	32.62
608.989	32.52
609.182	32.44
609.376	32.44
609.569	32.33
609.763	32.15
609.956	32.1
610.15	32.04
610.343	31.96
610.537	31.84
610.73	31.8
610.923	31.74
611.117	31.58
611.31	31.52
611.504	31.43
611.697	31.32
611.89	31.27
612.083	31.23
612.277	31.16
612.47	31.05
612.663	31.01
612.856	30.81
613.05	30.71
613.243	30.57
613.436	30.43
613.629	30.36
613.822	30.33
614.015	30.22
614.209	30.13
614.402	30.21
614.595	30.17
614.788	30.01
614.981	29.86
615.174	29.66
615.367	29.5
615.56	29.26
615.753	29.17
615.946	29.1
616.139	29.18
616.332	29.26
616.525	29.29
616.718	29.39
616.911	29.34
617.103	29.33
617.296	29.21
617.489	29.24
617.682	29.12
617.875	29.11
618.067	28.94
618.26	28.82
618.453	28.73
618.646	28.73
618.838	28.75
619.031	28.88
619.224	28.87
619.417	28.82
619.609	28.85
619.802	28.76
619.994	28.68
620.187	28.67
620.38	28.57
620.572	28.5
620.765	28.45
620.957	28.31
621.15	28.24
621.342	28.21
621.535	28.13
621.727	28.06
621.92	28.03
622.112	27.94
622.305	28.04
622.497	27.99
622.69	28.05
622.882	28.13
623.074	28.25
623.267	28.16
623.459	28.01
623.651	27.9
623.844	27.82
624.036	27.74
624.228	27.63
624.42	27.78
624.613	27.9
624.805	27.88
624.997	27.76
625.189	27.83
625.381	27.69
625.574	27.48
625.766	27.34
625.958	27.43
626.15	27.47
626.342	27.54
626.534	27.53
626.726	27.55
626.918	27.5
627.11	27.33
627.302	27.21
627.494	27.25
627.686	27.27
627.878	27.23
628.07	27.26
628.262	27.25
628.454	27.26
628.646	27.31
628.838	27.22
629.029	27.21
629.221	27.22
629.413	27.02
629.605	26.82
629.797	26.79
629.989	26.73
630.18	26.69
630.372	26.76
630.564	26.77
630.755	26.85
630.947	26.82
631.139	26.65
631.33	26.62
631.522	26.68
631.714	26.59
631.905	26.59
632.097	26.65
632.289	26.61
632.48	26.54
632.672	26.38
632.863	26.27
633.055	26.21
633.246	26.18
633.438	26.12
633.629	26.2
633.821	26.21
634.012	26.27
634.203	26.2
634.395	26.22
634.586	26.18
634.777	26.11
634.969	26.06
635.16	26.09
635.351	25.99
635.543	25.98
635.734	26.08
635.925	26.03
636.117	26.11
636.308	26.25
636.499	26.18
636.69	26.04
636.881	26.08
637.073	26.11
637.264	26
637.455	26.05
637.646	26.13
637.837	26.11
638.028	25.92
638.219	25.97
638.41	25.87
638.601	25.82
638.792	25.87
638.983	25.93
639.174	25.87
639.365	25.95
639.556	25.96
639.747	25.86
639.938	25.81
640.129	25.74
640.32	25.65
640.511	25.61
640.701	25.72
640.892	25.65
641.083	25.59
641.274	25.7
641.465	25.68
641.655	25.52
641.846	25.46
642.037	25.49
642.228	25.36
642.418	25.35
642.609	25.43
642.8	25.53
642.99	25.51
643.181	25.52
643.372	25.48
643.562	25.38
643.753	25.24
643.943	25.15
644.134	25.07
644.324	25
644.515	24.93
644.705	24.99
644.896	25.05
645.086	25.01
645.277	24.97
645.467	24.98
645.658	24.89
645.848	24.83
646.038	24.75
646.229	24.68
646.419	24.58
646.61	24.48
646.8	24.44
646.99	24.45
647.18	24.41
647.371	24.4
647.561	24.31
647.751	24.33
647.941	24.25
648.132	24.26
648.322	24.25
648.512	24.35
648.702	24.3
648.892	24.34
649.082	24.28
649.272	24.1
649.462	23.9
649.653	23.7
649.843	23.56
650.033	23.51
650.223	23.49
650.413	23.48
650.603	23.52
650.793	23.5
650.983	23.39
651.172	23.34
651.362	23.22
651.552	23.09
651.742	22.95
651.932	23.03
652.122	22.95
652.312	23.01
652.502	22.95
652.691	22.88
652.881	22.66
653.071	22.63
653.261	22.34
653.45	22.17
653.64	22.23
653.83	22.11
654.019	21.96
654.209	21.98
654.399	21.88
654.588	21.66
654.778	21.47
654.968	21.24
655.157	21.08
655.347	20.9
655.536	20.71
655.726	20.54
655.915	20.34
656.105	20.17
656.294	20.02
656.484	19.75
656.673	19.64
656.863	19.65
657.052	19.44
657.241	19.16
657.431	18.95
657.62	18.75
657.809	18.33
657.999	18.18
658.188	18.01
658.377	17.88
658.567	17.73
658.756	17.6
658.945	17.31
659.134	17.15
659.324	16.86
659.513	16.55
659.702	16.3
659.891	16.1
660.08	15.81
660.269	15.66
660.458	15.46
660.648	15.29
660.837	15.12
661.026	14.98
661.215	14.86
661.404	14.51
661.593	14.37
661.782	14.12
661.971	14
662.16	13.8
662.349	13.81
662.538	13.55
662.726	13.39
662.915	13.09
663.104	12.91
663.293	12.75
663.482	12.72
663.671	12.58
663.86	12.47
664.048	12.28
664.237	12.21
664.426	11.87
664.615	11.81
664.803	11.66
664.992	11.52
665.181	11.2
665.369	11.13
665.558	10.94
665.747	10.86
665.935	10.82
666.124	10.88
666.312	10.89
666.501	10.78
666.69	10.56
666.878	10.43
667.067	10.25
667.255	10.19
667.444	10.37
667.632	10.49
667.82	10.57
668.009	10.48
668.197	10.33
668.386	10.1
668.574	10.07
668.762	9.92
668.951	9.91
669.139	9.88
669.327	9.66
669.516	9.69
669.704	9.67
669.892	9.79
670.08	9.82
670.269	9.81
670.457	9.66
670.645	9.49
670.833	9.49
671.021	9.44
671.21	9.51
671.398	9.64
671.586	9.71
671.774	9.57
671.962	9.61
672.15	9.57
672.338	9.43
672.526	9.52
672.714	9.37
672.902	9.45
673.09	9.6
673.278	9.83
673.466	9.87
673.654	10.19
673.842	10.12
674.03	10.16
674.218	9.95
674.405	9.99
674.593	9.95
674.781	10.09
674.969	10.12
675.157	10.36
675.344	10.48
675.532	10.61
675.72	10.71
675.908	10.68
676.095	10.58
676.283	10.64
676.471	10.78
676.658	10.78
676.846	10.89
677.033	11.08
677.221	11.09
677.409	10.9
677.596	10.95
677.784	11.05
677.971	11.18
678.159	11.3
678.346	11.53
678.534	11.69
678.721	11.91
678.909	11.86
679.096	11.95
679.283	12.11
679.471	12.32
679.658	12.5
679.846	12.8
680.033	13.16
680.22	13.27
680.408	13.31
680.595	13.24
680.782	13.18
680.969	13.24
681.157	13.37
681.344	13.35
681.531	13.61
681.718	13.77
681.905	13.98
682.093	14.2
682.28	14.58
682.467	14.92
682.654	15.15
682.841	15.17
683.028	15.49
683.215	15.61
683.402	15.47
683.589	15.84
683.776	16.17
683.963	16.15
684.15	16.51
684.337	16.96
684.524	17.16
684.711	17.55
684.898	17.91
685.085	18.1
685.271	18.61
685.458	18.99
685.645	19.24
685.832	19.7
686.019	20.32
686.205	20.5
686.392	20.79
686.579	21.17
686.766	21.5
686.952	21.71
687.139	22.49
687.326	22.91
687.512	23.31
687.699	23.79
687.886	24.19
688.072	24.28
688.259	24.84
688.445	25.5
688.632	25.93
688.818	26.78
689.005	27.53
689.191	28.06
689.378	28.67
689.564	29.36
689.751	29.8
689.937	30.1
690.124	30.82
690.31	31.34
690.496	32.03
690.683	32.79
690.869	33.66
691.055	34.21
691.242	34.93
691.428	35.64
691.614	36.16
691.8	36.94
691.987	37.78
692.173	38.45
692.359	39.27
692.545	40.01
692.731	40.73
692.918	41.41
693.104	41.93
693.29	42.52
693.476	43.15
693.662	43.84
693.848	44.33
694.034	45.26
694.22	45.68
694.406	46.52
694.592	47.17
694.778	48
694.964	48.62
695.15	49.46
695.336	49.9
695.522	50.5
695.708	51.07
695.894	51.68
696.08	52.43
696.265	53.1
696.451	53.79
696.637	54.55
696.823	55.2
697.009	55.63
697.194	56.39
697.38	57.06
697.566	57.72
697.751	58.43
697.937	59.33
698.123	59.93
698.308	60.47
698.494	61.03
698.68	61.6
698.865	62.19
699.051	63.02
699.236	63.73
699.422	64.28
699.607	64.53
699.793	64.89
699.978	65.01
700.164	65.47
700.349	66.1
700.535	66.66
700.72	67.09
700.906	67.73
701.091	68.03
701.276	68.49
701.462	69.1
701.647	69.83
701.832	70.33
702.018	70.68
702.203	71.02
702.388	71.09
702.573	71.19
702.759	71.99
702.944	72.29
703.129	72.38
703.314	73.01
703.499	73.33
703.684	73.24
703.87	74.37
704.055	75.37
704.24	75.68
704.425	76.4
704.61	76.86
704.795	76.69
704.98	76.62
705.165	76.77
705.35	76.79
705.535	77.03
705.72	77.25
705.905	77.6
706.09	78.14
706.275	78.45
706.459	78.45
706.644	78.72
706.829	79.11
707.014	79.23
707.199	79.8
707.384	80.54
707.568	80.37
707.753	80.77
707.938	81.28
708.123	81.05
708.307	80.99
708.492	81.86
708.677	81.64
708.861	81.45
709.046	81.75
709.231	82.28
709.415	82.21
709.6	82.48
709.784	82.48
709.969	82.36
710.153	82.15
710.338	82.23
710.522	82.43
710.707	83.17
710.891	83.57
711.076	83.77
711.26	83.55
711.445	83.78
711.629	83.61
711.813	83.76
711.998	83.78
712.182	84.05
712.366	84.61
712.551	85.03
712.735	85.04
712.919	85.09
713.103	85.65
713.288	85.3
713.472	85.17
713.656	85.88
713.84	86.22
714.024	86.32
714.208	86.2
714.393	86.45
714.577	85.97
714.761	86.1
714.945	86.06
715.129	86.27
715.313	86.22
715.497	86.63
715.681	87.03
715.865	87.19
716.049	87.33
716.233	87.34
716.417	87.29
716.601	87.12
716.785	87.13
716.968	87.15
717.152	87.72
717.336	88.21
717.52	88.18
717.704	88.63
717.888	89.56
718.071	89.75
718.255	89.49
718.439	89.64
718.622	89.51
718.806	89.25
718.99	88.78
719.174	88.6
719.357	88.83
719.541	88.9
719.724	88.66
719.908	89.63
720.092	89.99
720.275	90.18
720.459	89.74
720.642	89.31
720.826	88.26
721.009	88.13
721.193	87.35
721.376	87.81
721.559	88.72
721.743	89.46
721.926	90.15
722.11	90.59
722.293	90.41
722.476	89.85
722.66	89.64
722.843	89.41
723.026	89.4
723.21	89.98
723.393	90.92
723.576	90.41
723.759	90.1
723.942	90.16
724.126	89.59
724.309	88.95
724.492	89.61
724.675	89.7
724.858	90.41
725.041	91.07
725.224	91.48
725.407	91.42
725.59	92.08
725.774	91.48
725.957	90.65
726.14	90.11
726.322	90.31
726.505	89.37
726.688	89.55
726.871	89.7
727.054	90.31
727.237	90.1
727.42	90.99
727.603	91.09
727.786	91.38
727.968	91.16
728.151	91.14
728.334	90.6
728.517	90.75
728.699	91.7
728.882	90.98
729.065	91.56
729.248	92.12
729.43	92.51
729.613	92.61
729.796	93.6
729.978	92.67
730.161	92.6
730.343	92.28
730.526	92.85
730.708	92.44
730.891	93.26
731.073	92.67
731.256	92.22
731.438	91.65
731.621	92.72
731.803	92.98
731.986	93.39
732.168	93
732.35	92.45
732.533	91.41
732.715	91.07
732.898	91.88
733.08	92.59
733.262	92.85
733.444	92.98
733.627	93.59
733.809	93.07
733.991	93.72
734.173	93.02
734.355	93.45
734.538	93.75
734.72	93.79
734.902	93.89
735.084	94.7
735.266	94.25
735.448	94.17
735.63	93.98
735.812	93.28
735.994	93.79
736.176	93.88
736.358	92.67
736.54	93.74
736.722	93.13
736.904	92.4
737.086	92.63
737.268	94.07
737.45	93.67
737.632	94.68
737.814	94.24
737.995	94.89
738.177	93.8
738.359	92.82
738.541	93.38
738.723	94.1
738.904	94.07
739.086	95.04
739.268	95.71
739.449	95.32
739.631	95.24
739.813	94.88
739.994	94.64
740.176	94.73
740.358	94.21
740.539	94.77
740.721	94.99
740.902	95.99
741.084	96.43
741.265	96.96
741.447	97.07
741.628	96.84
741.81	95.63
741.991	95.34
742.172	96.34
742.354	96.76
742.535	96.23
742.717	95.97
742.898	96.64
743.079	96.13
743.261	95.06
743.442	94.49
743.623	96
743.804	94.88
743.986	95.06
744.167	94.77
744.348	95.6
744.529	95.04
744.71	94.94
744.891	93.48
745.073	92.71
745.254	91.65
745.435	90.62
745.616	89.37
745.797	89.73
745.978	90.16
746.159	91.27
746.34	90.02
746.521	93.61
746.702	92.62
746.883	93.09
747.064	92.67
747.245	93.49
747.426	91.31
747.606	92.4
747.787	92.95
747.968	93.16
748.149	93.47
748.33	94.03
748.51	94.64
748.691	94.74
748.872	96.43
749.053	96.3
749.233	95.31
749.414	93.07
749.595	90.87
749.775	88.49
749.956	88.01
750.137	87.72
750.317	90.77
750.498	93.49
750.678	94.51
750.859	95.72
751.04	96.53
751.22	94.88
751.4	92.95
751.581	90.92
751.761	91.44
751.942	91.37
752.122	91.19
752.303	89.81
752.483	91.18
752.663	89.84
752.844	88.68
753.024	89.7
753.204	91.29
753.385	90.59
753.565	91.08
753.745	91.24
753.925	89.89
754.106	89.48
754.286	90.85
754.466	91.23
754.646	91.83
754.826	91.9
755.006	91.18
755.187	91.76
755.367	91.46
755.547	91.42
755.727	92.09
755.907	92.35
756.087	92.13
756.267	90.85
756.447	90.74
756.627	89.22
756.807	90.36
756.987	89.68
757.167	90.72
757.346	91.06
757.526	90.88
757.706	91.65
757.886	92.09
758.066	92.5
758.246	93.64
758.425	94.19
758.605	92.35
758.785	91.95
758.965	91.29
759.144	88.28
759.324	90.05
759.504	91.67
759.683	91.17
759.863	90.4
760.043	90.42
760.222	88.91
760.402	87.87
760.581	88.59
760.761	90.79
760.94	90.12
761.12	91.64
761.299	92.3
761.479	90.56
761.658	86.53
761.838	87.71
762.017	85.69
762.197	85.1
762.376	86.09
762.555	90.09
762.735	91.35
762.914	91.12
763.093	91.36
763.273	90.4
763.452	88.94
763.631	88.48
763.81	88.89
763.99	87.78
764.169	87.57
764.348	85.1
764.527	83.45
764.706	85.28
764.885	87.32
765.064	86.59
765.243	87.69
765.423	91.67
765.602	89.05
765.781	87.02
765.96	87.17
766.139	87.59
766.318	84.55
766.497	85.16
766.676	84.62
766.854	86.51
767.033	86.05
767.212	86.25
767.391	86.86
767.57	88.68
767.749	89.75
767.928	91.74
768.106	91.18
768.285	89.1
768.464	87.59
768.643	85.74
768.821	85.69
769	85.78
769.179	85.43
769.357	84.07
769.536	83.53
769.715	81.79
769.893	84.37
770.072	85.28
770.25	87.95
770.429	88.02
770.607	87.69
770.786	84.22
770.964	84.3
771.143	81.82
771.321	83.71
771.5	84.53
771.678	85.07
771.857	83.54
772.035	84.83
772.213	82.3
772.392	80.6
772.57	80.98
772.748	83.87
772.927	81.52
773.105	82.27
773.283	83.36
773.461	85.12
773.64	84.34
773.818	86.63
773.996	87.31
774.174	86.02
774.352	82.25
774.531	78.76
774.709	80.96
774.887	79.82
775.065	80.07
775.243	81.76
775.421	83.65
775.599	82.83
775.777	78.78
775.955	78.14
776.133	76.97
776.311	77.94
776.489	75.28
776.667	78.78
776.844	79.83
777.022	79.05
777.2	78.24
777.378	77.97
777.556	78.62
777.734	81.92
777.911	83.75
778.089	82.54
778.267	84.39
778.445	82.24
778.622	77.49
778.8	78.21
778.978	81.38
779.155	80.44
779.333	80.95
779.511	81.97
779.688	83.02
779.866	77.85
780.043	74.07
780.221	74.9
780.398	74.05
780.576	75.69
780.753	80.33
780.931	81.71
781.108	79.72
781.286	82.14
781.463	76.82
781.64	69.91
781.818	73.2
781.995	76.05
782.172	73.88
782.35	76.33
782.527	82.42
782.704	78.3
782.882	77.42
783.059	77.67
783.236	77.13
783.413	76.8
783.59	76.45
783.768	73.53
783.945	76.52
784.122	75.82
784.299	76.15
784.476	77.26
784.653	78.25
784.83	72.36
785.007	68.47
785.184	68.47
785.361	66.86
785.538	69.32
785.715	74.43
785.892	78.57
786.069	79.11
786.246	82.42
786.423	81.02
786.6	79.35
786.776	79.72
786.953	74.87
787.13	77.19
787.307	77.05
787.484	76.69
787.66	73.44
787.837	74.05
788.014	70.21
788.191	69.97
788.367	67.18
788.544	70.66
788.721	73.88
788.897	76.67
789.074	78.23
789.25	77.47
789.427	78.57
789.603	76.64
789.78	78.23
789.956	74.88
790.133	73.75
790.309	71.91
790.486	75.9
790.662	72.6
790.839	72.73
791.015	75.28
791.192	72.93
791.368	72.9
791.544	70.89
791.721	72.31
791.897	70.93
792.073	69.81
792.249	61.95
792.426	64.95
792.602	69.11
792.778	70.9
792.954	68.8
793.13	73.39
793.307	66.94
793.483	58.15
793.659	55.09
793.835	62.04
794.011	57.04
794.187	59.28
794.363	60.05
794.539	66.72
794.715	59.96
794.891	61.38
795.067	58.74
795.243	62.11
795.419	57.89
795.595	62.38
795.771	61.85
795.947	66
796.122	62.23
796.298	66.64
796.474	68.16
796.65	70.77
796.826	68.4
797.001	72.49
797.177	66.04
797.353	65.85
797.529	66.84
797.704	63.71
797.88	59.59
798.056	59.71
798.231	53.97
798.407	56.1
798.582	57.2
798.758	68.06
798.934	78.79
799.109	79.59
799.285	71.98
799.46	76.71
799.636	66.25
799.811	59.72
799.986	63.11
800.162	66.49
800.337	65.86
800.513	63.98
800.688	62.88
800.863	69.21
801.039	65.52
801.214	60.95
801.389	69.86
801.565	65.98
801.74	52.34
801.915	61.12
802.09	62.27
802.265	64.3
802.441	63.44
802.616	66.04
802.791	59.15
802.966	61.63
803.141	56.12
803.316	57.74
803.491	66.34
803.666	73.67
803.841	69.31
804.016	67.5
804.191	68.95
804.366	56.84
804.541	48.28
804.716	50.13
804.891	47.97
805.066	54.43
805.241	56.66
805.416	56.38
805.591	52.44
805.765	56.88
805.94	47.78
806.115	44.82
806.29	42.23
806.464	45.52
806.639	34.87
806.814	32.71
806.989	24.44
807.163	37.23
807.338	39.97
807.512	43.33
807.687	40.38
807.862	60.43
808.036	57.18
808.211	60.47
808.385	61.05
808.56	68.26
808.734	66.94
808.909	52.01
809.083	38.06
809.258	48.9
809.432	53.14
809.606	35.19
809.781	37.85
809.955	54.11
810.13	59.49
810.304	53.3
810.478	52.42
810.652	72.79
810.827	67.7
811.001	58.11
811.175	54.31
811.349	59.96
811.524	42.87
811.698	31.47
811.872	37.34
812.046	43.64
812.22	49.85
812.394	53.87
812.568	62.92
812.742	63.12
812.916	61.46
813.09	50.55
813.264	50.85
813.438	52.89
813.612	47.14
813.786	41.6
813.96	53.18
814.134	53.6
814.308	58.19
814.482	62.79
814.656	60.8
814.83	66.54
815.003	66.16
815.177	53.75
815.351	47.45
815.525	50.98
815.698	34.89
815.872	27.76
816.046	17.38
816.219	23.25
816.393	30.61
816.567	48.65
816.74	52.57
816.914	63.17
817.088	59.72
817.261	53.17
817.435	18.41
817.608	20.32
817.782	11.35
817.955	16.03
818.129	16.1
818.302	32.97
818.475	51.21
818.649	53.9
818.822	45.13
818.996	57.72
819.169	54.22
819.342	30.91
819.516	40.55
819.689	53.55
819.862	42.82
820.035	32.01
820.209	31.9
820.382	31.1
820.555	32.09
820.728	22.41
820.901	29.84
821.075	30.61
821.248	32.59
821.421	14.42
821.594	20.1
821.767	35.02
821.94	52.08
822.113	28.74
822.286	30.78
822.459	46.96
822.632	39.47
822.805	22.96
822.978	20.98
823.151	17.74
823.324	-0.33
823.496	-20.94
823.669	-25.68
823.842	-16.16
824.015	-22.96
824.188	-20.6
824.361	-11.53
824.533	-10.11
824.706	4.18
824.879	2.81
825.051	12.94
825.224	20.42
825.397	12.76
825.569	-5.75
825.742	28.73
825.915	33.79
826.087	36.82
826.26	24.48
826.432	30.34
826.605	20.61
826.777	8.77
826.95	4.5
827.122	-6.32
827.295	-12.13
827.467	-16.63
827.64	-52.44
827.812	-53.78
827.984	-26.05
828.157	-23.66
828.329	-59.54
828.501	-34.47
828.674	-6.46
828.846	-26.06
829.018	-9.45
829.19	-18.77
829.363	8.76
829.535	-4.3
829.707	11.2
829.879	-16.33
830.051	-11.85
830.223	-20.83
830.395	-49.39
830.568	-54.07
830.74	-41.23
830.912	9.53
831.084	-17.98
831.256	7.13
831.428	-9.16
831.6	-24.71
831.772	-83.75
831.943	-98.2
832.115	-96.06
832.287	-68.42
832.459	-48.2
832.631	-22.02
832.803	17.02
832.975	35.1
833.146	27.13
833.318	30.29
833.49	30.51
833.662	-0.11
833.833	-29.58
834.005	-18.96
834.177	-20.14
834.348	-28.8
834.52	-60.74
834.692	-47.11
834.863	-68.62
835.035	-68.41
835.206	-101.93
835.378	-38.51
835.549	-53.39
835.721	-45.59
835.892	-36.85
836.064	-36.56
836.235	-54.79
836.407	-34.52
836.578	-58.08
836.749	-54.33
836.921	-88.9
837.092	-74.21
837.264	-64.29
837.435	-76.21
837.606	-41.22
837.777	-0.4
837.949	9.37
838.12	1.98
838.291	12.12
838.462	6.66
838.633	-15.89
838.805	-14.99
838.976	-2.56
839.147	-43.57
839.318	-65.06
839.489	-119.49
839.66	-119.54
839.831	-62.84
840.002	-62
840.173	-76.94
840.344	-5.53
840.515	-37.05
840.686	-201.63
840.857	-110.91
841.028	-106.63
841.199	-128.26
841.369	-129.37
841.54	-108.88
841.711	-68.28
841.882	-78.41
842.053	-68.78
842.223	-70.46
842.394	-40.09
842.565	-53.88
842.736	-15.54
842.906	-14.9
843.077	-0.93
843.248	-22.08
843.418	-20.71
843.589	-85.03
843.759	-40.78
843.93	-7.6
844.101	-6.93
844.271	1.15
844.442	29.04
844.612	21.41
844.783	-17.76
844.953	-48.88
845.123	-52.95
845.294	-74.77
845.464	-244.03
845.635	-136.96
845.805	-23.1
845.975	-40.98
846.146	-114.64
846.316	-86.21
846.486	-47.02
846.656	-16.41
846.827	-24.46
846.997	-15.8
847.167	-39.6
847.337	-49.92
847.507	-122.89
847.677	-86.01
847.848	-9.82
848.018	14.02
848.188	30.69
848.358	11.44
848.528	-15.9
848.698	-79.99
848.868	-198
849.038	-384.77
849.208	-142.08
849.378	-78.75
849.548	-61.76
849.718	-42.21
849.887	-22.52
850.057	-65.16
850.227	-131.1
850.397	-166.8
850.567	-336.84
850.737	-845.87
850.906	-2188.13
851.076	-1421.48
851.246	-787.7
851.415	-154.47
851.585	-86.37
851.755	-137.93
851.924	-79.65
852.094	-120.65
852.264	-272.46
852.433	-1489.9
852.603	-282.55
852.772	-201.19
852.942	-94.96
853.111	-49.87
853.281	-20.55
853.45	9.65
853.62	-80.06
853.789	-72.73
853.959	-129.1
854.128	-131.25
854.297	-143.07
854.467	-154.48
854.636	-168.72
854.805	-80.31
854.975	-102.13
855.144	-237.95
855.313	-353.5
855.482	-787.23
855.652	-406.16
855.821	-353.63
855.99	-80.58
856.159	-4.5
856.328	-7.88
856.497	-33.41
856.667	-7.86
856.836	-16.59
857.005	-82.54
857.174	-103.73
857.343	-116.62
857.512	-120.46
857.681	-172.05
857.85	-240.37
858.019	-106.75
858.188	-94.83
858.356	-119.21
858.525	-182.02
858.694	-127.71
858.863	-294.05
859.032	-199.05
859.201	-246.11
859.369	-164.92
859.538	-147.77
859.707	-118.85
859.876	-118.07
860.044	-130.52
860.213	-9.04
860.382	-20.79
860.55	-9.21
860.719	2.18
860.888	18.58
861.056	-56.28
861.225	-58.43
861.393	5.38
861.562	3.31
861.73	-93.46
861.899	-115.45
862.067	-1753.45
862.236	-210.07
862.404	-406.77
862.572	-180.9
862.741	-113.63
862.909	-88.11
863.078	-217.04
863.246	-128.71
863.414	-161.28
863.582	-94.79
863.751	-132.13
863.919	-102.68
864.087	-50.66
864.255	-35.6
864.424	-363.94
864.592	-70.42
864.76	-133.95
864.928	-342
865.096	-267.99
865.264	-145.15
865.432	-1401.14
865.6	-12.75
865.768	-152.44
865.936	-119.85
866.104	-137.31
866.272	-184.22
866.44	-520.28
866.608	905.71
866.776	468.8
866.944	4405.81
867.112	-926.06
867.28	-347.22
867.448	-118.78
867.615	-50.92
867.783	-28.37
867.951	-17.94
868.119	3.07
868.286	-55.41
868.454	-235.77
868.622	-250.95
868.789	-391.92
868.957	-7275
869.125	-3896.05
869.292	-302.58
869.46	-399.84
869.627	-104.7
869.795	-87
869.963	-62.9
870.13	-25.08
870.298	-14.09
870.465	-127.77
870.632	-110.35
870.8	-61.23
870.967	-155.1
871.135	-218.44
871.302	-187.18
871.469	-231.31
871.637	-377.4
871.804	-171.95
871.971	-243.38
872.139	-582.56
872.306	-95.48
872.473	-105.43
872.64	-415.24
872.807	-196.27
872.975	-61.97
873.142	-459.82
873.309	3490.54
873.476	-54.57
873.643	29.94
873.81	37.71
873.977	110.03
874.144	92.91
874.311	-15.18
874.478	-127.88
874.645	-179.33
874.812	-141.09
874.979	-137.05
875.146	-152.18
875.313	-141.21
875.48	-41.17
875.647	-72.57
875.813	-110.64
875.98	-91.13
876.147	-143.27
876.314	-292.18
876.481	1751.65
876.647	-2182.58
876.814	879.02
876.981	-274.04
877.147	-134.51
877.314	-44.85
877.481	-22.83
877.647	-15
877.814	-72.02
877.98	-121.18
878.147	-114.18
878.314	-45.4
878.48	-110.23
878.647	-82.77
878.813	-11.18
878.979	-6.97
879.146	-67.88
879.312	-69.1
879.479	-128.32
879.645	-292.02
879.811	-469.87
879.978	-1052.29
880.144	-318.96
880.31	-162.64
880.477	-460.03
880.643	-559.33
880.809	-219.13
880.975	-179.25
881.142	-1125
881.308	-165.53
881.474	-93.63
881.64	-147.67
881.806	-218.91
881.972	-115.81
882.138	-115.82
882.304	-185.45
882.47	-224.8
882.636	-876.64
882.802	-250.8
882.968	-23.06
883.134	-16.23
883.3	-51.74
883.466	5.28
883.632	34.97
883.798	-26.95
883.964	-62.73
884.129	-27.67
884.295	13.64
884.461	-65.68
884.627	-102.15
884.793	-136.26
884.958	-116.46
885.124	-266.41
885.29	-385.76
885.455	-763.83
885.621	-249.18
885.787	-359
885.952	-167.7
886.118	-149.63
886.283	-117.13
886.449	-203.64
886.614	-165.8
886.78	-334.04
886.945	1374.59
887.111	-744.8
887.276	-708.24
887.442	-1277.73
887.607	-596.46
887.773	-395.06
887.938	-299.61
888.103	-391.49
888.269	-244.43
888.434	-432.16
888.599	-221.45
888.764	-85.25
888.93	-31.65
889.095	-57.51
889.26	-107.22
889.425	-68.27
889.59	-118.52
889.756	-139.02
889.921	-129.85
890.086	-65.86
890.251	-56.92
890.416	-277
890.581	-2175
890.746	279.11
890.911	597.13
891.076	257.99
891.241	-529.48
891.406	-22.54
891.571	-105.57
891.736	-424.54
891.901	-773.89
892.065	898.35
892.23	175.84
892.395	276.81
892.56	385.4
892.725	-591.8
892.889	-1715.85
893.054	-367.67
893.219	-157.69
893.384	-88.94
893.548	-150
893.713	-174.05
893.878	-108.64
