Data from Ofra_PS_T2_1A_2CX08_Reflection_3.txt Node
Date: Wed Jul 21 17:53:40 EDT 2021
User: Adam
Spectrometer: FLMT01687
Trigger mode: 0
Integration Time (sec): 1.100000E0
Scans to average: 2
Electric dark correction enabled: true
Nonlinearity correction enabled: false
Boxcar width: 2
XAxis mode: Wavelengths
Number of Pixels in Spectrum: 3648
>>>>>Begin Spectral Data<<<<<
179.494	507.6
179.716	569.65
179.937	583.97
180.158	583.12
180.38	970.31
180.601	450
180.823	152.3
181.044	-63.27
181.265	20.96
181.486	14.88
181.708	62.01
181.929	272.45
182.15	-251.41
182.372	99.83
182.593	-6.79
182.814	14.2
183.035	33.65
183.257	45.07
183.478	-22.02
183.699	44.9
183.92	36.79
184.141	54.14
184.363	7.09
184.584	56.59
184.805	45.43
185.026	66.5
185.247	55.1
185.468	41.19
185.689	31.45
185.91	50.79
186.132	44.26
186.353	52.41
186.574	114.59
186.795	85.22
187.016	15.44
187.237	33.22
187.458	1.02
187.679	9.05
187.9	30.22
188.121	66.87
188.342	75.61
188.563	98.29
188.784	116.75
189.005	120.04
189.226	149.15
189.447	132.99
189.667	117.23
189.888	-142.61
190.109	-843.51
190.33	-703.55
190.551	-1206.64
190.772	-243.7
190.993	-159.31
191.214	-115.61
191.434	-11.66
191.655	49.14
191.876	30.64
192.097	-52.19
192.318	-122.03
192.538	-256.45
192.759	-172.15
192.98	-69.98
193.201	-23.39
193.421	13.87
193.642	26.55
193.863	33.69
194.083	7.31
194.304	5.15
194.525	-12.92
194.745	-0.49
194.966	-44.34
195.187	-30.58
195.407	-50.6
195.628	-52.51
195.848	-93.59
196.069	-24.5
196.29	27.55
196.51	-13.85
196.731	-10.07
196.951	-3.47
197.172	-53.36
197.392	-99.57
197.613	-45.15
197.833	-80.87
198.054	-82.72
198.274	-27.65
198.495	-35.27
198.715	-19.35
198.936	-27.16
199.156	2.54
199.377	-71.11
199.597	-115.55
199.817	-127.56
200.038	-59.17
200.258	-112.65
200.479	-54.09
200.699	-1.33
200.919	69.01
201.14	19.23
201.36	4.66
201.58	33.99
201.801	59.7
202.021	21.74
202.241	29.98
202.461	24.39
202.682	-37.81
202.902	-87.57
203.122	-38.76
203.342	-28.11
203.563	3.44
203.783	42.64
204.003	-2.87
204.223	-12.31
204.443	42.28
204.663	37.66
204.884	26.76
205.104	83.32
205.324	116.05
205.544	103.12
205.764	79.55
205.984	78.64
206.204	71.13
206.424	55.32
206.644	26.09
206.864	55.33
207.084	37.17
207.304	64.36
207.525	-24.84
207.745	15.48
207.964	9.83
208.184	-26.35
208.404	-79.23
208.624	-55.81
208.844	-62.96
209.064	-341.82
209.284	-364.12
209.504	-145.5
209.724	-28.11
209.944	-6.36
210.164	42.43
210.384	57.91
210.604	55.1
210.823	15.55
211.043	1.9
211.263	4.44
211.483	-4.6
211.703	-52.99
211.922	-15.54
212.142	58.07
212.362	87.59
212.582	63.98
212.801	61.71
213.021	22.34
213.241	-7.61
213.461	-49.92
213.68	-64.59
213.9	-39.52
214.12	-14.79
214.339	-77.68
214.559	-46.44
214.779	-3.45
214.998	12.9
215.218	17.38
215.438	36.25
215.657	36.46
215.877	25.3
216.096	11.79
216.316	11.78
216.535	10.43
216.755	-1.48
216.974	-54.64
217.194	-94.62
217.413	-85.24
217.633	-91.38
217.852	-105.66
218.072	-29.94
218.291	8.53
218.511	32.22
218.73	15.83
218.95	5.01
219.169	0.72
219.389	-24.56
219.608	-22.23
219.827	-6.07
220.047	14.53
220.266	10.59
220.485	8.78
220.705	18.5
220.924	-14.42
221.143	10.24
221.363	-11.94
221.582	9.27
221.801	8.46
222.021	37.08
222.24	-11.52
222.459	72.03
222.678	27.25
222.897	-34.89
223.117	-75.38
223.336	-42.96
223.555	-33.91
223.774	26.54
223.993	57.02
224.213	118.27
224.432	96.31
224.651	105.48
224.87	70.73
225.089	71.6
225.308	54.76
225.527	60.13
225.746	44.58
225.965	35.47
226.184	16.8
226.404	39.19
226.623	21.33
226.842	18.17
227.061	40.03
227.28	48.41
227.499	40.32
227.718	49.07
227.936	67.88
228.155	82.25
228.374	66.31
228.593	56.63
228.812	62.46
229.031	54.42
229.25	-11.41
229.469	2.02
229.688	-1.05
229.907	48.32
230.125	47.16
230.344	70.03
230.563	79.02
230.782	97.77
231.001	12.67
231.22	-4.55
231.438	11.23
231.657	-4.61
231.876	-28.9
232.095	35.58
232.313	52.49
232.532	48.93
232.751	37.96
232.969	21
233.188	-31.3
233.407	15.87
233.625	15.96
233.844	7.79
234.063	1.79
234.281	13.35
234.5	4.14
234.719	8.04
234.937	26.87
235.156	40.28
235.374	45.54
235.593	30.25
235.811	19.65
236.03	-2.13
236.249	-32.45
236.467	-22.78
236.686	4.96
236.904	21.93
237.123	4.34
237.341	-0.37
237.559	-6.88
237.778	-22.64
237.996	-55.75
238.215	-10.41
238.433	3.33
238.652	1.78
238.87	-17.07
239.088	8.61
239.307	5.5
239.525	-8.44
239.743	-32.02
239.962	-15.13
240.18	-33.97
240.398	-66.59
240.617	-60.75
240.835	-22.91
241.053	4.15
241.271	56.83
241.49	70.59
241.708	87.51
241.926	98.4
242.144	78.54
242.363	3.59
242.581	-13.98
242.799	15.83
243.017	32.79
243.235	10.16
243.453	20.83
243.672	11.87
243.89	-6.79
244.108	-27.34
244.326	-10.09
244.544	-16.32
244.762	-8.28
244.98	8.02
245.198	27.51
245.416	-6.41
245.634	-3.86
245.852	-4.68
246.07	-7
246.288	-14.23
246.506	-23.93
246.724	-4.62
246.942	1.34
247.16	5.63
247.378	-0.78
247.596	37.21
247.814	17.96
248.032	-7.95
248.25	17.47
248.468	25.87
248.685	37.71
248.903	72.11
249.121	76.7
249.339	50.03
249.557	48.94
249.775	39.97
249.992	-12.64
250.21	-11.85
250.428	-16.25
250.646	-26.2
250.863	-40.73
251.081	-8.94
251.299	6.14
251.517	45.97
251.734	32.4
251.952	13.34
252.17	3.25
252.387	22.68
252.605	4.72
252.823	4.44
253.04	31.98
253.258	54.25
253.475	43.7
253.693	58.24
253.911	64.78
254.128	58.58
254.346	67.22
254.563	33.51
254.781	23.25
254.998	-5.26
255.216	-10.87
255.433	-5.81
255.651	62.21
255.868	98.23
256.086	126.71
256.303	117.91
256.521	79.23
256.738	41.35
256.956	-6.32
257.173	-50.04
257.39	-70.63
257.608	-105.13
257.825	-38.78
258.043	0.84
258.26	28.16
258.477	72.32
258.695	75.98
258.912	28.71
259.129	30.57
259.346	-4.67
259.564	-58.22
259.781	-56.11
259.998	-6.52
260.216	12.05
260.433	36.45
260.65	44.87
260.867	46.43
261.084	11.15
261.302	-10.41
261.519	-22.11
261.736	-57.79
261.953	-68.15
262.17	-24.8
262.387	-47.11
262.604	-63.49
262.822	-42.76
263.039	-27.99
263.256	-72.56
263.473	-34.53
263.69	-18.47
263.907	20.77
264.124	43.63
264.341	48.34
264.558	36.47
264.775	47.9
264.992	40.17
265.209	17.49
265.426	39.26
265.643	41.32
265.86	59.98
266.077	46.15
266.294	32.68
266.51	-17.07
266.727	-30.58
266.944	-33
267.161	-14.99
267.378	11.24
267.595	51.84
267.812	29.18
268.028	22.23
268.245	47.46
268.462	12.64
268.679	-6.95
268.896	54.87
269.112	52.44
269.329	33.32
269.546	40.19
269.763	30.62
269.979	0.09
270.196	2.13
270.413	-18.61
270.629	-52.04
270.846	-59.16
271.063	-51.57
271.279	-89.59
271.496	-86.71
271.712	-31.96
271.929	-9.93
272.146	-10.78
272.362	20.59
272.579	67.76
272.795	76.69
273.012	67.47
273.228	67.81
273.445	33.08
273.661	4.8
273.878	-65.12
274.094	-45.82
274.311	-79.03
274.527	9.16
274.744	1.43
274.96	16.61
275.177	13.79
275.393	41.91
275.609	23.01
275.826	53.28
276.042	32.47
276.259	24.62
276.475	27.73
276.691	41.66
276.908	12.74
277.124	36.32
277.34	36.2
277.557	31.35
277.773	10.19
277.989	12.23
278.205	13.41
278.422	35.47
278.638	28.43
278.854	56.28
279.07	60.57
279.286	42.87
279.503	-4.02
279.719	-13.31
279.935	-54.47
280.151	-62.52
280.367	-23.34
280.583	-19.9
280.799	-15.13
281.016	-26.04
281.232	-2.14
281.448	-1.75
281.664	30
281.88	19.85
282.096	39.6
282.312	80.31
282.528	83.94
282.744	90.93
282.96	85.19
283.176	53.88
283.392	25.13
283.608	27.56
283.824	6.85
284.04	16.63
284.256	31.82
284.471	18.5
284.687	3.86
284.903	28.71
285.119	42.89
285.335	14.16
285.551	35.46
285.767	16.2
285.982	-1.11
286.198	-33.97
286.414	36.89
286.63	39.21
286.846	58.3
287.061	41.94
287.277	66.01
287.493	22.74
287.709	37.44
287.924	26.31
288.14	51.01
288.356	50.91
288.571	74.6
288.787	47.16
289.003	44.76
289.218	34.11
289.434	-11.87
289.65	-11.85
289.865	-13.35
290.081	16.37
290.296	7.62
290.512	30.35
290.727	6.34
290.943	-9.94
291.159	-31.83
291.374	-23.49
291.59	-44.81
291.805	-27.46
292.021	-4.02
292.236	10.06
292.451	17.97
292.667	23.59
292.882	35.45
293.098	33.51
293.313	3.6
293.529	-10.15
293.744	-19.62
293.959	-38.8
294.175	-34.82
294.39	17.97
294.605	25.22
294.821	48.45
295.036	58.75
295.251	70.05
295.467	28.05
295.682	37.04
295.897	-5.06
296.112	-8.49
296.328	-8.84
296.543	-4.41
296.758	12.54
296.973	48.37
297.188	56.01
297.404	32.43
297.619	22.86
297.834	-16.35
298.049	-48.99
298.264	-68.86
298.479	-17.68
298.694	-2.56
298.909	25.34
299.125	32.25
299.34	41.29
299.555	5.7
299.77	15.39
299.985	-27.91
300.2	-77.62
300.415	-91.73
300.63	-28.28
300.845	-39.28
301.06	-34.17
301.275	20.21
301.49	49.52
301.704	25.05
301.919	17.76
302.134	17.91
302.349	5.59
302.564	-63.53
302.779	-57.4
302.994	-43.97
303.209	-17.92
303.423	5.7
303.638	60.54
303.853	27.86
304.068	21.77
304.283	15.96
304.497	12.45
304.712	-9.24
304.927	-1.82
305.142	-0.62
305.356	1.78
305.571	-3.32
305.786	-13.88
306	-23.56
306.215	-24.74
306.43	-44.88
306.644	-41.61
306.859	18.88
307.074	38.43
307.288	10.69
307.503	31.28
307.717	15.47
307.932	16.41
308.147	4.47
308.361	35.13
308.576	16.1
308.79	-10.95
309.005	-20.74
309.219	-5.65
309.434	-15.91
309.648	-10.02
309.863	6.69
310.077	11.01
310.292	1.53
310.506	6.48
310.72	18.7
310.935	20.48
311.149	15.51
311.364	39.58
311.578	53.13
311.792	49.24
312.007	67.08
312.221	51.92
312.435	54.67
312.649	29.43
312.864	80.12
313.078	66.75
313.292	125.8
313.507	87.07
313.721	132.9
313.935	53.86
314.149	54.73
314.363	40.07
314.578	47.91
314.792	49.26
315.006	30.16
315.22	37.25
315.434	45.12
315.648	45.32
315.862	45.75
316.077	55.36
316.291	54.83
316.505	73.06
316.719	96.37
316.933	51.71
317.147	51
317.361	-28.43
317.575	-90.82
317.789	-116.21
318.003	-160.7
318.217	-114.86
318.431	1.39
318.645	65.06
318.859	44.46
319.073	68.57
319.287	44.95
319.5	12.51
319.714	-39.28
319.928	-70.1
320.142	-106.58
320.356	-18.02
320.57	29.25
320.784	2.95
320.997	33.2
321.211	36.05
321.425	-56.67
321.639	-100.22
321.853	-17.86
322.066	-15.13
322.28	-19.27
322.494	-4.98
322.707	19.18
322.921	4.1
323.135	8.26
323.349	27.73
323.562	-8.17
323.776	-21.19
323.989	-21.71
324.203	-39.93
324.417	-63.02
324.63	-66.12
324.844	-73.15
325.057	-65.63
325.271	-27.83
325.485	4.37
325.698	46.71
325.912	64.2
326.125	41.66
326.339	25.96
326.552	2.48
326.766	-16.91
326.979	-7.65
327.193	33.53
327.406	14.11
327.619	18.28
327.833	42.76
328.046	14.9
328.26	-29.23
328.473	9.97
328.686	-14.56
328.9	-15.42
329.113	-0.5
329.326	-5.59
329.54	-1.72
329.753	-5.48
329.966	-55.27
330.179	-37.4
330.393	-16.48
330.606	-11.34
330.819	10.02
331.032	35.18
331.246	37.34
331.459	62.93
331.672	50.6
331.885	29.24
332.098	-12.39
332.311	-24.83
332.525	-75
332.738	-31.92
332.951	29.76
333.164	58.02
333.377	73.45
333.59	92.71
333.803	74.7
334.016	55.69
334.229	41.02
334.442	37.01
334.655	42.02
334.868	49.83
335.081	45.37
335.294	42.04
335.507	18.27
335.72	1.34
335.933	-10.16
336.146	-5.42
336.359	7.91
336.572	-10.07
336.785	-31.72
336.997	-18.09
337.21	-8.82
337.423	-22.4
337.636	-3.6
337.849	22.47
338.062	13.88
338.274	30.4
338.487	29.57
338.7	31.31
338.913	-14.89
339.125	-41.52
339.338	-99.95
339.551	-59.24
339.763	-22.12
339.976	10.14
340.189	41.05
340.402	55.73
340.614	49.68
340.827	30.13
341.039	19.32
341.252	18.08
341.465	33.17
341.677	22
341.89	-17.94
342.102	8.25
342.315	-19.54
342.527	-65.97
342.74	-55.45
342.952	-5.16
343.165	-1.44
343.377	30.48
343.59	23.31
343.802	41.51
344.015	44.01
344.227	39.74
344.44	39.5
344.652	43.17
344.864	30.87
345.077	37.74
345.289	41.24
345.502	38.53
345.714	31.26
345.926	29.94
346.139	23.57
346.351	38.95
346.563	29.62
346.775	43.42
346.988	33.28
347.2	5.45
347.412	-48.63
347.624	-43.49
347.837	-68.18
348.049	-27.93
348.261	24.3
348.473	37.55
348.685	34.03
348.897	25.06
349.11	7.11
349.322	8.42
349.534	10.21
349.746	16.31
349.958	20.57
350.17	14.28
350.382	8.74
350.594	-0.09
350.806	-5.19
351.018	4.87
351.23	-14.22
351.442	-71.54
351.654	-64.71
351.866	-74.18
352.078	-60.64
352.29	-29.63
352.502	6.28
352.714	15.82
352.926	6.19
353.138	-4.91
353.35	-6.51
353.561	-9.32
353.773	-28.56
353.985	-9.86
354.197	-5.78
354.409	-5.11
354.621	-9.44
354.832	1.79
355.044	-3.63
355.256	0.21
355.468	11.35
355.679	18.53
355.891	33.08
356.103	20.72
356.314	26.26
356.526	28.55
356.738	21.76
356.949	5.13
357.161	31.9
357.373	16.51
357.584	5.4
357.796	10.71
358.008	8.44
358.219	27.38
358.431	24.88
358.642	32.37
358.854	29.1
359.065	19.23
359.277	-20.71
359.488	-33.94
359.7	-66.55
359.911	-72.83
360.123	-49.4
360.334	-53.54
360.546	-62.09
360.757	-46.36
360.969	-44.44
361.18	-43.87
361.391	-27.86
361.603	-38.89
361.814	-28.92
362.025	-17.08
362.237	-14.91
362.448	2.82
362.659	26.38
362.871	24.22
363.082	17.32
363.293	24.23
363.504	10.51
363.716	-9.99
363.927	-16.94
364.138	-41.5
364.349	-60.61
364.56	-55.66
364.772	-37.86
364.983	-9.56
365.194	-0.19
365.405	14.99
365.616	43.69
365.827	41.08
366.038	19.18
366.25	8.22
366.461	-23.79
366.672	-26.72
366.883	-1.27
367.094	11.99
367.305	16.39
367.516	32.71
367.727	1.03
367.938	-15.32
368.149	-23.5
368.36	-14.22
368.571	-16.44
368.781	-25.96
368.992	-38.77
369.203	-56.94
369.414	-87.53
369.625	-91.54
369.836	-69.13
370.047	-89.31
370.258	-58.23
370.468	-47.57
370.679	-68.45
370.89	-60.07
371.101	-26
371.312	-28.37
371.522	-11.9
371.733	-1.44
371.944	12.66
372.155	18.34
372.365	-2.91
372.576	-10.32
372.787	-5.06
372.997	-27.29
373.208	-26.75
373.419	-1.2
373.629	-23.72
373.84	-20.76
374.05	-30.27
374.261	-27.97
374.472	-34.25
374.682	14.86
374.893	15.59
375.103	42.14
375.314	32.37
375.524	36.29
375.735	37.19
375.945	39.18
376.156	15.78
376.366	20.91
376.577	17.53
376.787	-1.8
376.997	5.6
377.208	11.26
377.418	-3.08
377.629	3.61
377.839	6.11
378.049	-3.34
378.26	16.74
378.47	32.36
378.68	23.99
378.89	21.46
379.101	14.24
379.311	-16.53
379.521	-44.22
379.732	-49.63
379.942	-44.82
380.152	-55.13
380.362	-20.4
380.572	-20.95
380.783	-1.8
380.993	7.47
381.203	28.59
381.413	42.88
381.623	54.19
381.833	42.27
382.043	28.98
382.253	14.86
382.463	-1.34
382.674	-11.8
382.884	-28.8
383.094	-22.96
383.304	-16.08
383.514	-11.44
383.724	2.53
383.934	-6.27
384.144	-16.45
384.353	-22.25
384.563	-21.38
384.773	-18.82
384.983	-13.15
385.193	3.48
385.403	8.87
385.613	8.16
385.823	-7.98
386.033	-1.49
386.242	-10.46
386.452	-12.26
386.662	-19.39
386.872	-2.29
387.082	-6.61
387.291	-10.59
387.501	-11.23
387.711	-8.15
387.921	-11.88
388.13	-9.47
388.34	7.07
388.55	1.76
388.759	-0.03
388.969	2.45
389.179	-4.38
389.388	-11.76
389.598	-5.52
389.807	-11.25
390.017	-15.41
390.227	-9.24
390.436	-11.42
390.646	-9.15
390.855	-0.06
391.065	1.44
391.274	1.98
391.484	0.26
391.693	-0.25
391.903	0.14
392.112	5.79
392.322	6.86
392.531	11.03
392.74	10.42
392.95	4.9
393.159	0.76
393.369	0.73
393.578	-0.47
393.787	-1.63
393.997	0.68
394.206	-0.96
394.415	-0.04
394.625	0.19
394.834	-0.6
395.043	0.31
395.252	3.21
395.462	4.13
395.671	5.92
395.88	6.55
396.089	7.11
396.298	4.58
396.508	3.28
396.717	1.91
396.926	2.52
397.135	1.78
397.344	2.28
397.553	3.64
397.762	5.18
397.971	4.91
398.181	4.84
398.39	4.43
398.599	3.53
398.808	3.08
399.017	3.97
399.226	5.14
399.435	6.21
399.644	6.12
399.853	5.02
400.062	4.37
400.27	3.61
400.479	2.84
400.688	2.71
400.897	3.25
401.106	3.11
401.315	3
401.524	3.13
401.733	3.74
401.941	4.07
402.15	4.37
402.359	4.1
402.568	4.49
402.777	4.36
402.985	3.97
403.194	3.71
403.403	3.95
403.612	3.42
403.82	3.12
404.029	3.34
404.238	3.16
404.446	3.32
404.655	3.16
404.864	3.04
405.072	2.73
405.281	3.16
405.489	2.77
405.698	2.79
405.906	2.71
406.115	2.87
406.324	2.57
406.532	2.81
406.741	3.14
406.949	3.08
407.158	2.96
407.366	3.09
407.574	2.98
407.783	3
407.991	2.94
408.2	3.11
408.408	3.09
408.617	3.03
408.825	2.79
409.033	2.9
409.242	2.9
409.45	2.9
409.658	2.82
409.867	3.02
410.075	2.98
410.283	2.76
410.491	2.65
410.7	2.54
410.908	2.49
411.116	2.82
411.324	2.92
411.533	2.84
411.741	3.1
411.949	3.03
412.157	2.65
412.365	2.7
412.573	2.84
412.781	2.9
412.99	2.84
413.198	3.01
413.406	3.01
413.614	2.95
413.822	2.68
414.03	2.65
414.238	2.43
414.446	2.5
414.654	2.32
414.862	2.53
415.07	2.64
415.278	2.88
415.486	2.61
415.694	2.87
415.902	2.67
416.109	2.66
416.317	2.62
416.525	2.49
416.733	2.32
416.941	2.59
417.149	2.45
417.357	2.52
417.564	2.7
417.772	2.95
417.98	2.74
418.188	2.74
418.395	2.81
418.603	3
418.811	2.62
419.019	2.56
419.226	2.79
419.434	2.81
419.642	2.54
419.849	2.73
420.057	2.81
420.265	2.74
420.472	2.3
420.68	2.34
420.887	2.14
421.095	2.19
421.302	2.02
421.51	2.49
421.717	2.65
421.925	2.86
422.132	2.68
422.34	2.51
422.547	2.35
422.755	2.19
422.962	2.03
423.17	2.03
423.377	2.25
423.585	2.21
423.792	2.12
423.999	2.23
424.207	2.24
424.414	2.31
424.621	2.23
424.829	2.27
425.036	2.3
425.243	2.47
425.451	2.29
425.658	2.2
425.865	2.57
426.072	2.56
426.28	2.64
426.487	2.66
426.694	2.8
426.901	2.4
427.108	2.35
427.315	2.21
427.523	2.49
427.73	2.52
427.937	2.52
428.144	2.39
428.351	2.4
428.558	2.47
428.765	2.38
428.972	2.39
429.179	2.57
429.386	2.78
429.593	2.42
429.8	2.4
430.007	2.61
430.214	2.62
430.421	2.38
430.628	2.32
430.835	2.08
431.042	2.18
431.249	2.2
431.456	2.24
431.662	2.4
431.869	2.82
432.076	2.85
432.283	2.97
432.49	3.04
432.697	3.01
432.903	2.74
433.11	2.46
433.317	2.38
433.524	2.57
433.73	2.55
433.937	2.81
434.144	2.79
434.35	2.74
434.557	2.47
434.764	2.42
434.97	2.25
435.177	2.51
435.384	2.54
435.59	2.58
435.797	2.81
436.003	2.84
436.21	2.74
436.416	2.82
436.623	2.86
436.829	2.93
437.036	3.06
437.242	3
437.449	2.82
437.655	2.88
437.862	2.79
438.068	2.62
438.275	2.77
438.481	3
438.687	2.95
438.894	2.89
439.1	3.01
439.307	3.16
439.513	3.06
439.719	3.06
439.926	3.18
440.132	3.07
440.338	2.86
440.544	2.98
440.751	2.99
440.957	3.05
441.163	3.06
441.369	3.15
441.575	2.92
441.782	2.87
441.988	2.66
442.194	2.7
442.4	2.69
442.606	2.96
442.812	3.07
443.018	3.2
443.224	3.24
443.431	3.35
443.637	3.15
443.843	3.06
444.049	3.09
444.255	3.12
444.461	3.09
444.667	3.1
444.873	3.2
445.079	3.16
445.284	3.11
445.49	2.89
445.696	2.76
445.902	2.63
446.108	2.59
446.314	2.56
446.52	2.67
446.726	3.01
446.931	3.09
447.137	3.17
447.343	3.25
447.549	3.2
447.755	2.99
447.96	2.96
448.166	2.88
448.372	2.8
448.578	2.82
448.783	2.9
448.989	3.07
449.195	3.29
449.4	3.42
449.606	3.42
449.812	3.33
450.017	3.26
450.223	3.07
450.428	2.93
450.634	3.06
450.84	3.23
451.045	3.2
451.251	3.14
451.456	3.45
451.662	3.52
451.867	3.51
452.073	3.51
452.278	3.63
452.483	3.69
452.689	3.54
452.894	3.59
453.1	3.58
453.305	3.54
453.51	3.29
453.716	3.24
453.921	3.2
454.127	3.21
454.332	3.14
454.537	3.13
454.742	3.12
454.948	3.14
455.153	3.12
455.358	3.29
455.563	3.47
455.769	3.68
455.974	3.68
456.179	3.7
456.384	3.67
456.589	3.62
456.795	3.39
457	3.34
457.205	3.65
457.41	3.54
457.615	3.52
457.82	3.7
458.025	3.75
458.23	3.45
458.435	3.56
458.64	3.5
458.845	3.64
459.05	3.59
459.255	3.74
459.46	3.77
459.665	3.84
459.87	3.82
460.075	3.87
460.28	3.86
460.485	3.98
460.69	4.04
460.895	3.89
461.099	3.94
461.304	4.03
461.509	4.01
461.714	3.88
461.919	3.97
462.123	3.92
462.328	4.01
462.533	3.94
462.738	4.2
462.942	4.19
463.147	4.34
463.352	4.37
463.556	4.45
463.761	4.45
463.966	4.48
464.17	4.44
464.375	4.34
464.58	4.32
464.784	4.27
464.989	4.26
465.193	4.35
465.398	4.44
465.602	4.64
465.807	4.65
466.011	4.76
466.216	4.84
466.42	4.89
466.625	4.84
466.829	5.02
467.034	5.14
467.238	5.28
467.443	5.29
467.647	5.25
467.851	5.22
468.056	5.22
468.26	5.05
468.464	5.03
468.669	5.22
468.873	5.41
469.077	5.34
469.282	5.5
469.486	5.58
469.69	5.56
469.894	5.36
470.099	5.54
470.303	5.62
470.507	5.59
470.711	5.51
470.915	5.56
471.119	5.46
471.324	5.35
471.528	5.46
471.732	5.55
471.936	5.53
472.14	5.61
472.344	5.74
472.548	5.75
472.752	5.9
472.956	6.19
473.16	6.19
473.364	6.08
473.568	6.02
473.772	6.02
473.976	5.82
474.18	5.82
474.384	5.9
474.588	5.92
474.792	5.79
474.995	5.88
475.199	5.98
475.403	6
475.607	6.04
475.811	6
476.015	6.03
476.218	6.04
476.422	5.99
476.626	6.15
476.83	6.34
477.033	6.32
477.237	6.23
477.441	6.32
477.644	6.18
477.848	6.09
478.052	6
478.255	6.09
478.459	6.05
478.663	6.27
478.866	6.38
479.07	6.5
479.273	6.65
479.477	6.72
479.681	6.6
479.884	6.52
480.088	6.46
480.291	6.36
480.495	6.34
480.698	6.34
480.901	6.46
481.105	6.53
481.308	6.51
481.512	6.48
481.715	6.49
481.919	6.47
482.122	6.49
482.325	6.43
482.529	6.45
482.732	6.5
482.935	6.44
483.138	6.37
483.342	6.5
483.545	6.6
483.748	6.59
483.952	6.67
484.155	6.8
484.358	6.76
484.561	6.73
484.764	6.67
484.967	6.73
485.171	6.79
485.374	6.75
485.577	6.82
485.78	6.85
485.983	6.85
486.186	6.63
486.389	6.69
486.592	6.62
486.795	6.68
486.998	6.55
487.201	6.67
487.404	6.69
487.607	6.73
487.81	6.67
488.013	6.79
488.216	6.71
488.419	6.68
488.622	6.66
488.825	6.6
489.028	6.48
489.231	6.54
489.433	6.45
489.636	6.3
489.839	6.27
490.042	6.27
490.245	6.21
490.447	6.27
490.65	6.39
490.853	6.43
491.056	6.49
491.258	6.53
491.461	6.56
491.664	6.6
491.866	6.55
492.069	6.58
492.272	6.52
492.474	6.51
492.677	6.48
492.879	6.52
493.082	6.6
493.285	6.78
493.487	6.7
493.69	6.59
493.892	6.56
494.095	6.43
494.297	6.3
494.5	6.36
494.702	6.44
494.905	6.52
495.107	6.52
495.309	6.54
495.512	6.55
495.714	6.58
495.917	6.59
496.119	6.57
496.321	6.61
496.524	6.68
496.726	6.71
496.928	6.7
497.13	6.63
497.333	6.6
497.535	6.53
497.737	6.43
497.939	6.39
498.142	6.49
498.344	6.41
498.546	6.36
498.748	6.39
498.95	6.5
499.152	6.49
499.355	6.6
499.557	6.68
499.759	6.86
499.961	6.79
500.163	6.8
500.365	6.76
500.567	6.8
500.769	6.64
500.971	6.63
501.173	6.52
501.375	6.63
501.577	6.54
501.779	6.52
501.981	6.56
502.183	6.64
502.385	6.57
502.587	6.49
502.788	6.56
502.99	6.6
503.192	6.66
503.394	6.63
503.596	6.71
503.798	6.79
503.999	6.86
504.201	6.83
504.403	6.87
504.605	6.92
504.806	6.83
505.008	6.78
505.21	6.88
505.411	6.9
505.613	6.9
505.815	6.92
506.016	6.95
506.218	7.02
506.42	7.05
506.621	7.03
506.823	7.04
507.024	6.95
507.226	6.87
507.427	6.79
507.629	6.88
507.83	6.95
508.032	6.95
508.233	7
508.435	7.1
508.636	7.11
508.838	7.06
509.039	7.1
509.24	7.11
509.442	7.08
509.643	7.01
509.845	7.04
510.046	7.07
510.247	7.07
510.448	7.06
510.65	7.11
510.851	7.19
511.052	7.16
511.254	7.13
511.455	7.26
511.656	7.34
511.857	7.37
512.058	7.41
512.26	7.46
512.461	7.35
512.662	7.34
512.863	7.23
513.064	7.24
513.265	7.22
513.466	7.24
513.667	7.19
513.868	7.23
514.069	7.3
514.27	7.43
514.471	7.4
514.672	7.41
514.873	7.36
515.074	7.35
515.275	7.18
515.476	7.16
515.677	7.17
515.878	7.32
516.079	7.27
516.28	7.35
516.481	7.49
516.682	7.54
516.882	7.38
517.083	7.37
517.284	7.32
517.485	7.24
517.686	7.18
517.886	7.27
518.087	7.38
518.288	7.4
518.488	7.38
518.689	7.42
518.89	7.36
519.091	7.36
519.291	7.31
519.492	7.36
519.692	7.36
519.893	7.47
520.094	7.39
520.294	7.36
520.495	7.34
520.695	7.39
520.896	7.34
521.096	7.4
521.297	7.49
521.497	7.45
521.698	7.41
521.898	7.4
522.099	7.39
522.299	7.43
522.499	7.44
522.7	7.45
522.9	7.48
523.101	7.55
523.301	7.5
523.501	7.49
523.702	7.49
523.902	7.54
524.102	7.55
524.302	7.59
524.503	7.67
524.703	7.66
524.903	7.63
525.103	7.52
525.304	7.59
525.504	7.66
525.704	7.75
525.904	7.67
526.104	7.7
526.304	7.67
526.504	7.64
526.705	7.58
526.905	7.69
527.105	7.71
527.305	7.68
527.505	7.57
527.705	7.55
527.905	7.55
528.105	7.6
528.305	7.6
528.505	7.71
528.705	7.8
528.905	7.75
529.105	7.75
529.304	7.83
529.504	7.89
529.704	7.82
529.904	7.84
530.104	7.89
530.304	7.93
530.503	7.87
530.703	7.85
530.903	7.87
531.103	7.92
531.303	7.84
531.502	7.88
531.702	7.98
531.902	8
532.101	7.93
532.301	7.97
532.501	7.95
532.7	7.93
532.9	7.94
533.1	7.97
533.299	8
533.499	8.03
533.698	7.99
533.898	7.99
534.097	7.98
534.297	8.03
534.496	8.02
534.696	8.13
534.895	8.21
535.095	8.3
535.294	8.3
535.494	8.29
535.693	8.29
535.892	8.29
536.092	8.22
536.291	8.17
536.491	8.24
536.69	8.27
536.889	8.2
537.088	8.22
537.288	8.33
537.487	8.4
537.686	8.38
537.886	8.51
538.085	8.57
538.284	8.65
538.483	8.57
538.682	8.62
538.882	8.65
539.081	8.7
539.28	8.56
539.479	8.63
539.678	8.67
539.877	8.7
540.076	8.69
540.275	8.78
540.474	8.89
540.673	8.85
540.872	8.84
541.071	8.93
541.27	8.99
541.469	9.01
541.668	9.11
541.867	9.22
542.066	9.26
542.265	9.32
542.464	9.24
542.663	9.24
542.862	9.31
543.06	9.35
543.259	9.37
543.458	9.51
543.657	9.55
543.856	9.54
544.054	9.54
544.253	9.53
544.452	9.52
544.651	9.64
544.849	9.65
545.048	9.69
545.247	9.72
545.445	9.76
545.644	9.78
545.843	9.76
546.041	9.83
546.24	9.98
546.438	10.09
546.637	10.14
546.836	10.3
547.034	10.39
547.233	10.38
547.431	10.36
547.63	10.37
547.828	10.46
548.027	10.45
548.225	10.48
548.423	10.53
548.622	10.67
548.82	10.63
549.019	10.71
549.217	10.84
549.415	10.94
549.614	10.96
549.812	10.97
550.01	10.99
550.209	11
550.407	11.08
550.605	11.12
550.803	11.27
551.002	11.4
551.2	11.49
551.398	11.55
551.596	11.75
551.794	11.84
551.993	11.94
552.191	12.01
552.389	12.12
552.587	12.18
552.785	12.22
552.983	12.27
553.181	12.33
553.379	12.4
553.577	12.39
553.775	12.53
553.973	12.65
554.171	12.75
554.369	12.76
554.567	12.86
554.765	12.9
554.963	12.93
555.161	12.94
555.359	13.07
555.557	13.21
555.755	13.34
555.952	13.5
556.15	13.7
556.348	13.79
556.546	13.92
556.744	13.93
556.941	13.97
557.139	14.01
557.337	14.07
557.535	14.03
557.732	14.18
557.93	14.34
558.128	14.43
558.325	14.56
558.523	14.68
558.721	14.8
558.918	14.84
559.116	14.96
559.313	15
559.511	15.22
559.708	15.25
559.906	15.38
560.104	15.49
560.301	15.69
560.498	15.75
560.696	15.86
560.893	15.88
561.091	15.99
561.288	16.06
561.486	16.08
561.683	16.16
561.88	16.3
562.078	16.37
562.275	16.4
562.473	16.55
562.67	16.74
562.867	16.91
563.064	17.03
563.262	17.2
563.459	17.3
563.656	17.46
563.853	17.57
564.051	17.66
564.248	17.82
564.445	18.01
564.642	18.02
564.839	18.14
565.036	18.33
565.234	18.47
565.431	18.5
565.628	18.64
565.825	18.79
566.022	18.93
566.219	19
566.416	19.12
566.613	19.18
566.81	19.27
567.007	19.22
567.204	19.17
567.401	19.21
567.598	19.36
567.795	19.32
567.991	19.41
568.188	19.64
568.385	19.81
568.582	19.86
568.779	20.01
568.976	20.17
569.172	20.23
569.369	20.19
569.566	20.25
569.763	20.37
569.96	20.4
570.156	20.36
570.353	20.41
570.55	20.42
570.746	20.38
570.943	20.38
571.14	20.47
571.336	20.63
571.533	20.73
571.729	20.8
571.926	20.97
572.123	21.03
572.319	21.06
572.516	21.04
572.712	21.16
572.909	21.12
573.105	21.17
573.302	21.19
573.498	21.37
573.695	21.31
573.891	21.36
574.087	21.35
574.284	21.28
574.48	21.14
574.677	21.19
574.873	21.18
575.069	21.3
575.266	21.41
575.462	21.4
575.658	21.49
575.854	21.65
576.051	21.66
576.247	21.66
576.443	21.74
576.639	21.67
576.835	21.55
577.032	21.47
577.228	21.58
577.424	21.64
577.62	21.6
577.816	21.65
578.012	21.62
578.208	21.54
578.404	21.52
578.6	21.67
578.796	21.66
578.993	21.72
579.189	21.69
579.384	21.58
579.58	21.46
579.776	21.45
579.972	21.38
580.168	21.27
580.364	21.36
580.56	21.31
580.756	21.22
580.952	21.15
581.148	21.23
581.343	21.18
581.539	21.21
581.735	21.26
581.931	21.36
582.127	21.32
582.322	21.31
582.518	21.28
582.714	21.24
582.909	21.16
583.105	21.09
583.301	21.06
583.496	21.16
583.692	21.09
583.888	21.06
584.083	21.11
584.279	21.09
584.474	20.94
584.67	20.99
584.866	21.04
585.061	20.93
585.257	21.05
585.452	21.01
585.648	20.91
585.843	20.99
586.039	21.06
586.234	20.93
586.429	20.92
586.625	21.09
586.82	20.96
587.015	20.94
587.211	20.84
587.406	20.89
587.601	20.71
587.797	20.74
587.992	20.74
588.187	20.85
588.383	20.78
588.578	20.86
588.773	20.88
588.968	20.91
589.163	21.04
589.359	21.07
589.554	21.11
589.749	21.13
589.944	21.17
590.139	21.09
590.334	21.13
590.529	21.15
590.724	21.12
590.919	21.2
591.114	21.2
591.309	21.37
591.504	21.39
591.699	21.36
591.894	21.43
592.089	21.44
592.284	21.44
592.479	21.49
592.674	21.57
592.869	21.5
593.064	21.66
593.259	21.77
593.454	21.87
593.648	22.02
593.843	22.07
594.038	22.09
594.233	21.97
594.428	21.88
594.622	21.96
594.817	22.19
595.012	22.22
595.206	22.29
595.401	22.43
595.596	22.4
595.79	22.45
595.985	22.61
596.18	22.77
596.374	22.96
596.569	23.05
596.763	23.04
596.958	23.09
597.153	23.13
597.347	23.06
597.542	23.21
597.736	23.31
597.931	23.4
598.125	23.45
598.319	23.64
598.514	23.69
598.708	23.71
598.903	23.6
599.097	23.75
599.291	23.82
599.486	23.84
599.68	23.87
599.874	24.09
600.069	24.01
600.263	23.99
600.457	24.1
600.651	24.23
600.846	24.27
601.04	24.42
601.234	24.44
601.428	24.48
601.622	24.51
601.817	24.55
602.011	24.57
602.205	24.66
602.399	24.66
602.593	24.71
602.787	24.69
602.981	24.65
603.175	24.68
603.369	24.65
603.563	24.66
603.757	24.75
603.951	24.85
604.145	24.73
604.339	24.82
604.533	24.75
604.727	24.68
604.921	24.63
605.115	24.73
605.309	24.75
605.502	24.8
605.696	24.74
605.89	24.7
606.084	24.59
606.278	24.41
606.471	24.28
606.665	24.26
606.859	24.03
607.053	23.94
607.246	23.89
607.44	23.84
607.634	23.74
607.827	23.91
608.021	23.81
608.214	23.8
608.408	23.72
608.602	23.68
608.795	23.6
608.989	23.59
609.182	23.42
609.376	23.38
609.569	23.3
609.763	23.06
609.956	22.95
610.15	22.93
610.343	22.82
610.537	22.77
610.73	22.8
610.923	22.7
611.117	22.62
611.31	22.5
611.504	22.39
611.697	22.23
611.89	22.18
612.083	22.14
612.277	22.13
612.47	22
612.663	21.98
612.856	21.86
613.05	21.69
613.243	21.57
613.436	21.44
613.629	21.33
613.822	21.21
614.015	21.14
614.209	20.98
614.402	20.99
614.595	20.94
614.788	20.89
614.981	20.78
615.174	20.72
615.367	20.58
615.56	20.5
615.753	20.46
615.946	20.44
616.139	20.46
616.332	20.6
616.525	20.59
616.718	20.56
616.911	20.5
617.103	20.5
617.296	20.35
617.489	20.2
617.682	20.16
617.875	20.07
618.067	19.95
618.26	19.78
618.453	19.83
618.646	19.86
618.838	19.91
619.031	20.02
619.224	20.05
619.417	19.97
619.609	19.93
619.802	19.77
619.994	19.6
620.187	19.56
620.38	19.49
620.572	19.33
620.765	19.41
620.957	19.38
621.15	19.33
621.342	19.35
621.535	19.43
621.727	19.37
621.92	19.26
622.112	19.21
622.305	19.25
622.497	19.16
622.69	19.1
622.882	19.19
623.074	19.17
623.267	19.05
623.459	19.03
623.651	19.02
623.844	18.98
624.036	18.99
624.228	18.93
624.42	18.86
624.613	18.88
624.805	18.83
624.997	18.85
625.189	18.9
625.381	18.93
625.574	18.84
625.766	18.73
625.958	18.63
626.15	18.64
626.342	18.57
626.534	18.51
626.726	18.49
626.918	18.5
627.11	18.36
627.302	18.33
627.494	18.33
627.686	18.36
627.878	18.22
628.07	18.25
628.262	18.17
628.454	18.17
628.646	18.16
628.838	18.18
629.029	18.08
629.221	18.06
629.413	17.94
629.605	17.81
629.797	17.75
629.989	17.77
630.18	17.72
630.372	17.74
630.564	17.78
630.755	17.87
630.947	17.93
631.139	17.82
631.33	17.67
631.522	17.75
631.714	17.65
631.905	17.52
632.097	17.56
632.289	17.65
632.48	17.47
632.672	17.39
632.863	17.32
633.055	17.3
633.246	17.26
633.438	17.22
633.629	17.16
633.821	17.2
634.012	17.2
634.203	17.1
634.395	17.13
634.586	17.16
634.777	17.04
634.969	17.03
635.16	17.18
635.351	17.08
635.543	17.03
635.734	17.06
635.925	17
636.117	16.91
636.308	16.94
636.499	16.88
636.69	16.81
636.881	16.82
637.073	16.85
637.264	16.85
637.455	16.9
637.646	16.96
637.837	17
638.028	16.93
638.219	16.91
638.41	16.89
638.601	16.8
638.792	16.77
638.983	16.69
639.174	16.62
639.365	16.63
639.556	16.63
639.747	16.52
639.938	16.64
640.129	16.62
640.32	16.51
640.511	16.51
640.701	16.63
640.892	16.51
641.083	16.55
641.274	16.57
641.465	16.56
641.655	16.37
641.846	16.36
642.037	16.33
642.228	16.36
642.418	16.41
642.609	16.42
642.8	16.46
642.99	16.34
643.181	16.34
643.372	16.35
643.562	16.34
643.753	16.17
643.943	16.2
644.134	16.11
644.324	15.89
644.515	15.82
644.705	15.96
644.896	15.92
645.086	16.01
645.277	16.03
645.467	16.03
645.658	15.87
645.848	15.83
646.038	15.74
646.229	15.73
646.419	15.68
646.61	15.61
646.8	15.63
646.99	15.57
647.18	15.55
647.371	15.58
647.561	15.65
647.751	15.6
647.941	15.51
648.132	15.48
648.322	15.42
648.512	15.4
648.702	15.41
648.892	15.46
649.082	15.44
649.272	15.31
649.462	15.22
649.653	15.03
649.843	14.87
650.033	14.8
650.223	14.85
650.413	14.82
650.603	14.95
650.793	15.04
650.983	15.02
651.172	15
651.362	14.98
651.552	14.84
651.742	14.71
651.932	14.65
652.122	14.59
652.312	14.59
652.502	14.61
652.691	14.71
652.881	14.67
653.071	14.58
653.261	14.39
653.45	14.14
653.64	14.02
653.83	13.86
654.019	13.77
654.209	13.68
654.399	13.7
654.588	13.61
654.778	13.51
654.968	13.33
655.157	13.29
655.347	13.19
655.536	12.95
655.726	12.92
655.915	12.9
656.105	12.84
656.294	12.71
656.484	12.55
656.673	12.34
656.863	12.18
657.052	11.97
657.241	11.79
657.431	11.61
657.62	11.56
657.809	11.3
657.999	11.11
658.188	10.96
658.377	10.84
658.567	10.72
658.756	10.61
658.945	10.43
659.134	10.22
659.324	10.1
659.513	9.87
659.702	9.76
659.891	9.7
660.08	9.59
660.269	9.54
660.458	9.31
660.648	9.12
660.837	8.89
661.026	8.78
661.215	8.61
661.404	8.46
661.593	8.38
661.782	8.18
661.971	8.06
662.16	7.97
662.349	8.01
662.538	7.88
662.726	7.95
662.915	7.77
663.104	7.61
663.293	7.5
663.482	7.53
663.671	7.48
663.86	7.37
664.048	7.31
664.237	7.25
664.426	6.98
664.615	6.85
664.803	6.81
664.992	6.7
665.181	6.55
665.369	6.44
665.558	6.39
665.747	6.36
665.935	6.44
666.124	6.52
666.312	6.67
666.501	6.55
666.69	6.46
666.878	6.32
667.067	6.11
667.255	6.1
667.444	6.34
667.632	6.41
667.82	6.51
668.009	6.64
668.197	6.58
668.386	6.37
668.574	6.48
668.762	6.3
668.951	6.15
669.139	6.06
669.327	6.03
669.516	5.96
669.704	5.9
669.892	6.08
670.08	6.18
670.269	6.03
670.457	5.88
670.645	5.88
670.833	5.85
671.021	5.74
671.21	5.92
671.398	6.12
671.586	6.25
671.774	6.08
671.962	6.18
672.15	6.13
672.338	6.04
672.526	6.06
672.714	6.1
672.902	6.1
673.09	6.28
673.278	6.5
673.466	6.54
673.654	6.78
673.842	6.81
674.03	6.81
674.218	6.64
674.405	6.68
674.593	6.57
674.781	6.65
674.969	6.67
675.157	6.88
675.344	7
675.532	7.09
675.72	7.29
675.908	7.38
676.095	7.23
676.283	7.28
676.471	7.52
676.658	7.37
676.846	7.41
677.033	7.56
677.221	7.47
677.409	7.25
677.596	7.32
677.784	7.3
677.971	7.4
678.159	7.65
678.346	7.81
678.534	8
678.721	8.26
678.909	8.31
679.096	8.13
679.283	8.3
679.471	8.42
679.658	8.41
679.846	8.62
680.033	9.09
680.22	9.1
680.408	9.09
680.595	9.14
680.782	9
680.969	8.87
681.157	8.98
681.344	9.1
681.531	9.2
681.718	9.31
681.905	9.57
682.093	9.66
682.28	9.82
682.467	10.15
682.654	10.46
682.841	10.42
683.028	10.65
683.215	10.76
683.402	10.68
683.589	10.82
683.776	11.2
683.963	11.31
684.15	11.65
684.337	11.99
684.524	12.11
684.711	12.33
684.898	12.52
685.085	12.68
685.271	12.96
685.458	13.17
685.645	13.28
685.832	13.61
686.019	13.94
686.205	14.16
686.392	14.57
686.579	14.92
686.766	15.3
686.952	15.47
687.139	16.05
687.326	16.3
687.512	16.74
687.699	17.04
687.886	17.55
688.072	17.68
688.259	18.22
688.445	18.67
688.632	19.14
688.818	19.69
689.005	20.27
689.191	20.71
689.378	21.46
689.564	22.05
689.751	22.6
689.937	22.96
690.124	23.64
690.31	23.9
690.496	24.48
690.683	25.03
690.869	25.82
691.055	26.47
691.242	27.4
691.428	27.92
691.614	28.54
691.8	29.35
691.987	29.96
692.173	30.47
692.359	31.33
692.545	32.22
692.731	32.83
692.918	33.64
693.104	34.32
693.29	34.98
693.476	35.53
693.662	36.12
693.848	36.72
694.034	37.4
694.22	37.99
694.406	38.74
694.592	39.58
694.778	40.34
694.964	41.06
695.15	41.94
695.336	42.59
695.522	43.68
695.708	44.37
695.894	45.11
696.08	45.92
696.265	46.78
696.451	47.26
696.637	48.04
696.823	48.74
697.009	49.17
697.194	49.66
697.38	50.16
697.566	50.81
697.751	51.51
697.937	52.44
698.123	53.03
698.308	53.7
698.494	54.53
698.68	55.01
698.865	55.69
699.051	56.74
699.236	57.34
699.422	57.75
699.607	58.32
699.793	58.82
699.978	59.14
700.164	59.71
700.349	60.5
700.535	61.1
700.72	61.35
700.906	61.94
701.091	62.44
701.276	62.75
701.462	63.51
701.647	64.23
701.832	64.85
702.018	65.36
702.203	65.55
702.388	65.71
702.573	66.2
702.759	66.68
702.944	66.9
703.129	67.56
703.314	68.17
703.499	68.55
703.684	68.75
703.87	69.92
704.055	70.51
704.24	70.62
704.425	71.12
704.61	71.66
704.795	71.47
704.98	71.67
705.165	72.03
705.35	72.25
705.535	72.31
705.72	72.68
705.905	73.19
706.09	73.99
706.275	74.31
706.459	74.45
706.644	74.33
706.829	74.56
707.014	74.5
707.199	74.98
707.384	75.5
707.568	75.91
707.753	76.15
707.938	76.49
708.123	76.49
708.307	76.63
708.492	76.95
708.677	77.09
708.861	76.99
709.046	77.04
709.231	77.43
709.415	77.85
709.6	77.78
709.784	78.05
709.969	78.39
710.153	78.3
710.338	78.35
710.522	78.43
710.707	79.07
710.891	78.97
711.076	79.42
711.26	79
711.445	79.68
711.629	79.58
711.813	80.02
711.998	80.14
712.182	80.51
712.366	80.86
712.551	81.74
712.735	81.68
712.919	81.72
713.103	82.6
713.288	82.03
713.472	81.55
713.656	82.39
713.84	82.64
714.024	82.37
714.208	82.48
714.393	82.64
714.577	82.41
714.761	82.61
714.945	82.96
715.129	83.51
715.313	83.8
715.497	83.76
715.681	84.51
715.865	84.26
716.049	84.47
716.233	84.12
716.417	84.45
716.601	83.75
716.785	83.6
716.968	83.51
717.152	83.95
717.336	83.92
717.52	83.87
717.704	84.4
717.888	84.81
718.071	85.19
718.255	85.07
718.439	85.32
718.622	85.3
718.806	85.43
718.99	84.96
719.174	84.9
719.357	84.84
719.541	84.74
719.724	84.94
719.908	85.81
720.092	86.63
720.275	86.93
720.459	87.06
720.642	86.21
720.826	85.94
721.009	85.4
721.193	84.87
721.376	85.34
721.559	85.83
721.743	85.94
721.926	86.36
722.11	86.88
722.293	85.82
722.476	85.77
722.66	85.64
722.843	85.1
723.026	84.66
723.21	85.93
723.393	86.79
723.576	86.28
723.759	86.47
723.942	86.94
724.126	86.89
724.309	86.39
724.492	86.61
724.675	86.97
724.858	87.18
725.041	87.54
725.224	87.4
725.407	87.95
725.59	88.37
725.774	88.27
725.957	86.91
726.14	87.15
726.322	87.13
726.505	86.54
726.688	87.12
726.871	87.7
727.054	87.31
727.237	87.12
727.42	87.32
727.603	87.58
727.786	88
727.968	88.73
728.151	88.51
728.334	88.67
728.517	87.91
728.699	88.32
728.882	87.32
729.065	87.92
729.248	88.28
729.43	88.58
729.613	89.22
729.796	90.45
729.978	89.78
730.161	89.7
730.343	89.52
730.526	89.36
730.708	88.44
730.891	88.92
731.073	88.5
731.256	88.35
731.438	87.63
731.621	89.01
731.803	88.97
731.986	88.93
732.168	88.77
732.35	89.02
732.533	88.49
732.715	88.85
732.898	89.72
733.08	89.82
733.262	90.53
733.444	90.4
733.627	89.71
733.809	89.5
733.991	91.13
734.173	90.34
734.355	90.18
734.538	91.21
734.72	90.89
734.902	90.15
735.084	90.5
735.266	90.95
735.448	91.05
735.63	91.34
735.812	91.17
735.994	92.19
736.176	92.44
736.358	91.91
736.54	92.78
736.722	91.91
736.904	90.73
737.086	90.37
737.268	91.53
737.45	91.36
737.632	91.82
737.814	91.59
737.995	91.78
738.177	90.98
738.359	89.77
738.541	90.2
738.723	90.51
738.904	91.16
739.086	91.49
739.268	91.45
739.449	91.91
739.631	91.73
739.813	91.4
739.994	91.97
740.176	93.16
740.358	92.24
740.539	92.85
740.721	92.46
740.902	92.48
741.084	92.01
741.265	92.74
741.447	93.25
741.628	93.63
741.81	92.12
741.991	92.61
742.172	92.99
742.354	93.17
742.535	93.01
742.717	93.65
742.898	93.52
743.079	93.7
743.261	93.61
743.442	93.67
743.623	95.36
743.804	95.77
743.986	96.25
744.167	94.8
744.348	94.06
744.529	93.7
744.71	92.88
744.891	91.67
745.073	92.31
745.254	92.1
745.435	90.26
745.616	89.31
745.797	89.52
745.978	88.97
746.159	90.3
746.34	89.93
746.521	92.45
746.702	91.61
746.883	92.66
747.064	91.44
747.245	92.73
747.426	91.19
747.606	92.09
747.787	91.66
747.968	92.48
748.149	93.28
748.33	93.48
748.51	93.62
748.691	92.87
748.872	92.91
749.053	91.86
749.233	91.06
749.414	90.43
749.595	90.43
749.775	88.91
749.956	88.06
750.137	88.36
750.317	90.66
750.498	92.25
750.678	93.92
750.859	94.71
751.04	95.14
751.22	91.39
751.4	89.36
751.581	87.92
751.761	88.77
751.942	88.75
752.122	90.06
752.303	90.89
752.483	91.8
752.663	91.59
752.844	90.51
753.024	92.16
753.204	92.33
753.385	91.2
753.565	89.73
753.745	90.62
753.925	87.85
754.106	87.07
754.286	87.61
754.466	87.68
754.646	87.74
754.826	88.55
755.006	87.73
755.187	88.17
755.367	90.11
755.547	89.84
755.727	91.61
755.907	91.88
756.087	92.97
756.267	91.5
756.447	92.2
756.627	88.43
756.807	91.1
756.987	90.04
757.167	91.02
757.346	90.35
757.526	90.51
757.706	89.33
757.886	90.14
758.066	89.2
758.246	91.44
758.425	92.71
758.605	91.73
758.785	91.46
758.965	91.43
759.144	87.17
759.324	88.62
759.504	89.4
759.683	88.82
759.863	87.79
760.043	88.29
760.222	86.26
760.402	85.37
760.581	84.79
760.761	85.42
760.94	85.4
761.12	88.84
761.299	89.47
761.479	88.82
761.658	87.15
761.838	87.23
762.017	85.35
762.197	85.25
762.376	86.87
762.555	89.56
762.735	91.47
762.914	88.8
763.093	89.06
763.273	87.96
763.452	87.01
763.631	85.42
763.81	85.93
763.99	84.54
764.169	84.57
764.348	82.23
764.527	81.55
764.706	85.14
764.885	88.18
765.064	87.45
765.243	89.06
765.423	90.53
765.602	87.81
765.781	83.97
765.96	83.38
766.139	82.97
766.318	83
766.497	83.15
766.676	84.42
766.854	87.07
767.033	87.13
767.212	85.54
767.391	85.59
767.57	85.65
767.749	85.54
767.928	86.89
768.106	87.57
768.285	86.98
768.464	87.49
768.643	85.52
768.821	85.3
769	86.66
769.179	86.1
769.357	84.16
769.536	83.8
769.715	82.87
769.893	83.65
770.072	82.69
770.25	83.98
770.429	85.9
770.607	86.46
770.786	84.6
770.964	86.21
771.143	84.22
771.321	83.59
771.5	82.47
771.678	81.72
771.857	80.19
772.035	83.15
772.213	81.66
772.392	80.13
772.57	82.19
772.748	84.87
772.927	82.17
773.105	81.83
773.283	84.09
773.461	82.9
773.64	81.92
773.818	82.39
773.996	84.61
774.174	83.13
774.352	81.94
774.531	80.06
774.709	82.17
774.887	81.1
775.065	82
775.243	83.46
775.421	83.37
775.599	83.35
775.777	81.34
775.955	80.39
776.133	77.48
776.311	78.88
776.489	75.63
776.667	76.98
776.844	76.82
777.022	77.42
777.2	75.55
777.378	76.34
777.556	76.45
777.734	78.81
777.911	81.17
778.089	82.76
778.267	84.08
778.445	81.1
778.622	78.75
778.8	76.72
778.978	80.01
779.155	79.12
779.333	81.82
779.511	81.19
779.688	84.9
779.866	77.97
780.043	76.58
780.221	76.57
780.398	74.79
780.576	74.15
780.753	78.74
780.931	76.57
781.108	76.07
781.286	81.27
781.463	78.8
781.64	74.96
781.818	79.96
781.995	80.19
782.172	77.67
782.35	80.57
782.527	83.34
782.704	79.9
782.882	81.72
783.059	79.57
783.236	77.63
783.413	79.73
783.59	83.55
783.768	78.39
783.945	83.08
784.122	83.24
784.299	81.72
784.476	77.86
784.653	76.83
784.83	72.72
785.007	67.08
785.184	67.81
785.361	69.93
785.538	76.58
785.715	81.1
785.892	84.77
786.069	88.55
786.246	86.35
786.423	84.89
786.6	83.02
786.776	84.67
786.953	76.81
787.13	80.72
787.307	80.5
787.484	80.82
787.66	78.5
787.837	81
788.014	76.54
788.191	73.46
788.367	68.96
788.544	73.04
788.721	72.17
788.897	77.65
789.074	82.66
789.25	79.73
789.427	78.85
789.603	77.54
789.78	75.31
789.956	70.18
790.133	72.81
790.309	74.03
790.486	78.11
790.662	75.75
790.839	74.82
791.015	78.51
791.192	75.08
791.368	74.57
791.544	72.83
791.721	74.84
791.897	73.6
792.073	71.99
792.249	65.29
792.426	69.99
792.602	72.06
792.778	74.12
792.954	73.3
793.13	77.42
793.307	69.67
793.483	63.24
793.659	58.57
793.835	63.73
794.011	62.41
794.187	66.64
794.363	66.62
794.539	73.27
794.715	66.84
794.891	67.59
795.067	67.62
795.243	76.01
795.419	69.67
795.595	67.78
795.771	70.36
795.947	69.38
796.122	63.27
796.298	68.43
796.474	73.63
796.65	70.42
796.826	67.89
797.001	71.8
797.177	64.14
797.353	65.52
797.529	68.47
797.704	71.6
797.88	65.75
798.056	65.16
798.231	62.97
798.407	67.8
798.582	68.86
798.758	78.76
798.934	87.25
799.109	85.49
799.285	77.31
799.46	76.86
799.636	70.45
799.811	69.09
799.986	71.18
800.162	72.57
800.337	69.96
800.513	64.47
800.688	61.1
800.863	68.39
801.039	62.46
801.214	64.04
801.389	72
801.565	71.19
801.74	57.94
801.915	66.08
802.09	63.97
802.265	66.65
802.441	66.75
802.616	71.99
802.791	69.64
802.966	71.95
803.141	72.02
803.316	69.61
803.491	74.48
803.666	80.25
803.841	73.95
804.016	64.75
804.191	68.7
804.366	62.96
804.541	57.16
804.716	57.14
804.891	57.71
805.066	61.09
805.241	57.58
805.416	59.11
805.591	59.97
805.765	64.34
805.94	66.61
806.115	70.91
806.29	65.9
806.464	70.39
806.639	66.83
806.814	55.73
806.989	44.43
807.163	52.28
807.338	49.82
807.512	46.45
807.687	41.92
807.862	62.42
808.036	64.69
808.211	76.23
808.385	87.68
808.56	96.39
808.734	92.25
808.909	88.2
809.083	72.71
809.258	74.48
809.432	75.02
809.606	61.07
809.781	59.12
809.955	71.99
810.13	75.67
810.304	75.57
810.478	69.03
810.652	80.18
810.827	68.47
811.001	61.89
811.175	56.31
811.349	68.86
811.524	50.97
811.698	40.46
811.872	35.89
812.046	49.68
812.22	49.43
812.394	57.92
812.568	71.41
812.742	82.75
812.916	73.93
813.09	68.03
813.264	62.88
813.438	66.17
813.612	53.19
813.786	50.87
813.96	64.43
814.134	72.44
814.308	84.84
814.482	91.98
814.656	79.76
814.83	84.54
815.003	81.05
815.177	62.34
815.351	59.18
815.525	65.54
815.698	46.99
815.872	40.67
816.046	31.53
816.219	32.52
816.393	47.12
816.567	54.6
816.74	58.07
816.914	72.22
817.088	79.23
817.261	71.67
817.435	62.23
817.608	64.06
817.782	47.3
817.955	29.42
818.129	30.08
818.302	31.24
818.475	44.14
818.649	53.28
818.822	50.3
818.996	69.4
819.169	80.84
819.342	68.18
819.516	75.71
819.689	89.39
819.862	69.97
820.035	55.69
820.209	46.26
820.382	42.41
820.555	39.34
820.728	30
820.901	33.53
821.075	29.6
821.248	32.26
821.421	23.9
821.594	33.5
821.767	69.07
821.94	98.53
822.113	75.68
822.286	73.31
822.459	84.15
822.632	63.09
822.805	42.89
822.978	50.58
823.151	48.35
823.324	27.4
823.496	5.05
823.669	4.69
823.842	3.47
824.015	-4.25
824.188	-6.45
824.361	17.77
824.533	16.19
824.706	38.05
824.879	38.36
825.051	44.19
825.224	37.22
825.397	31.01
825.569	11.02
825.742	45.31
825.915	67.5
826.087	78.61
826.26	70.86
826.432	80.93
826.605	77.04
826.777	49.51
826.95	52.12
827.122	50.23
827.295	48.32
827.467	37.68
827.64	32.07
827.812	16.79
827.984	18.44
828.157	13.19
828.329	-24.72
828.501	-1.83
828.674	28.61
828.846	27.72
829.018	44.9
829.19	42.69
829.363	62.28
829.535	57.11
829.707	66.62
829.879	44.04
830.051	49.19
830.223	18.55
830.395	-3.35
830.568	-14.78
830.74	-13.61
830.912	22.66
831.084	20.26
831.256	18.55
831.428	16.33
831.6	0.51
831.772	-45.98
831.943	-57.77
832.115	-30.39
832.287	-1.59
832.459	20.33
832.631	47.23
832.803	72.27
832.975	95.26
833.146	64.48
833.318	33.62
833.49	25.63
833.662	-4.4
833.833	-8.57
834.005	13.61
834.177	28.45
834.348	35.2
834.52	38.89
834.692	33.32
834.863	-10.73
835.035	-11.51
835.206	-87.72
835.378	-48.24
835.549	-47.21
835.721	-13.01
835.892	-1.69
836.064	12.98
836.235	-1.27
836.407	37.57
836.578	1.1
836.749	-23.18
836.921	-37.55
837.092	-30.67
837.264	-44.32
837.435	-48.28
837.606	6.14
837.777	35.16
837.949	40.19
838.12	34.94
838.291	51.21
838.462	36.12
838.633	17.63
838.805	19.43
838.976	29.83
839.147	-3.52
839.318	-28.17
839.489	-59.49
839.66	-38.33
839.831	-8.01
840.002	8.45
840.173	3.08
840.344	57.52
840.515	85.6
840.686	-2.64
840.857	-37.93
841.028	-13.68
841.199	-50.47
841.369	-61.57
841.54	-54.23
841.711	-19.26
841.882	30.68
842.053	16.8
842.223	11.45
842.394	33.18
842.565	28.2
842.736	9.09
842.906	14.36
843.077	23.49
843.248	46.12
843.418	40.18
843.589	4.78
843.759	92.24
843.93	57.43
844.101	17.52
844.271	37.08
844.442	56.65
844.612	56.18
844.783	38.16
844.953	-6.35
845.123	-30.23
845.294	-57.53
845.464	-300.45
845.635	-90.96
845.805	5.45
845.975	12.55
846.146	-29.52
846.316	-30.51
846.486	-14.79
846.656	24
846.827	9.12
846.997	13.48
847.167	66.98
847.337	41.51
847.507	-18.92
847.677	5.44
847.848	50.6
848.018	35.44
848.188	45.51
848.358	40.69
848.528	26.14
848.698	-17.13
848.868	-74.69
849.038	-176.16
849.208	-65.73
849.378	-9.05
849.548	16.46
849.718	27.82
849.887	37.53
850.057	20.13
850.227	-16.37
850.397	-47.29
850.567	-132.32
850.737	-234.13
850.906	-541.88
851.076	-413.67
851.246	-98.17
851.415	49.14
851.585	2.81
851.755	-22.19
851.924	26.74
852.094	26.12
852.264	-24.89
852.433	-685.1
852.603	-109.53
852.772	-66.04
852.942	-25.49
853.111	-73.96
853.281	7.9
853.45	35.13
853.62	-43.38
853.789	-68.74
853.959	-9.45
854.128	-32.52
854.297	-42.55
854.467	-26.3
854.636	33.3
854.805	47.16
854.975	76.54
855.144	106.44
855.313	554.9
855.482	189.42
855.652	37.5
855.821	18.75
855.99	74.26
856.159	59.29
856.328	56.92
856.497	38.86
856.667	24.43
856.836	31.62
857.005	-16.39
857.174	-55.22
857.343	-80.16
857.512	-12.07
857.681	-76.49
857.85	-109.45
858.019	-17.88
858.188	7.25
858.356	-48.27
858.525	-92.87
858.694	-39.65
858.863	-95.51
859.032	-117.04
859.201	-142.09
859.369	-66.96
859.538	-75.64
859.707	-76.85
859.876	-77.89
860.044	-8.07
860.213	38.77
860.382	23.96
860.55	31.76
860.719	46.48
860.888	33.18
861.056	-13.97
861.225	-15.54
861.393	23.64
861.562	63.75
861.73	-1.46
861.899	13.35
862.067	-1112.07
862.236	-84.95
862.404	-264.12
862.572	-112.5
862.741	-18.91
862.909	-6.88
863.078	-111.22
863.246	-91.66
863.414	-79.17
863.582	-71.04
863.751	-80.07
863.919	-44.18
864.087	64.85
864.255	44.33
864.424	-109.36
864.592	51.19
864.76	66.48
864.928	8.4
865.096	-64.49
865.264	-36.79
865.432	-1114.77
865.6	-56.25
865.768	-110.2
865.936	-97.49
866.104	-130.62
866.272	-248.91
866.44	-532.09
866.608	791.58
866.776	410.76
866.944	3010.47
867.112	-418.86
867.28	-186
867.448	-39.35
867.615	29.04
867.783	32.65
867.951	8.23
868.119	95.24
868.286	73.49
868.454	-77.6
868.622	-86.28
868.789	-164.1
868.957	-4767.86
869.125	-3003.95
869.292	-151.47
869.46	-275.16
869.627	-38.37
869.795	-45.32
869.963	-15.9
870.13	6.24
870.298	39.85
870.465	-44.25
870.632	-56.88
870.8	-19.86
870.967	-23.88
871.135	-83.13
871.302	-10.59
871.469	71.35
871.637	97.69
871.804	-4.22
871.971	-67.29
872.139	-293.72
872.306	-39.23
872.473	-68.91
872.64	-300.64
872.807	-28.73
872.975	74.31
873.142	-50.73
873.309	1082.43
873.476	83.12
873.643	207.81
873.81	127.43
873.977	157.47
874.144	147.15
874.311	78.71
874.478	-90.25
874.645	-107.18
874.812	-82.1
874.979	-41.65
875.146	-38.19
875.313	-31.68
875.48	39.24
875.647	20.17
875.813	-10.82
875.98	16.9
876.147	7.67
876.314	-11.85
876.481	564.05
876.647	-436.52
876.814	106.48
876.981	229.04
877.147	72.55
877.314	91.68
877.481	102.65
877.647	93.05
877.814	59.08
877.98	15.35
878.147	10.27
878.314	59.55
878.48	-0.25
878.647	5.52
878.813	77.6
878.979	80.11
879.146	46.3
879.312	30.39
879.479	16.2
879.645	-117.77
879.811	-257.89
879.978	-715.65
880.144	-131.04
880.31	-67.16
880.477	-191.03
880.643	-269.89
880.809	-46.62
880.975	-52.99
881.142	-694.09
881.308	-52.44
881.474	7.02
881.64	-50.39
881.806	-127.73
881.972	-14.86
882.138	-15.62
882.304	-31.56
882.47	-150.8
882.636	-443.85
882.802	-118.95
882.968	34.7
883.134	20.17
883.3	38.26
883.466	63.31
883.632	95.24
883.798	37.11
883.964	35.78
884.129	59.28
884.295	60.13
884.461	-26.91
884.627	-21.14
884.793	-72.9
884.958	-36.24
885.124	-121.33
885.29	-161.99
885.455	-188.59
885.621	66.94
885.787	-39.72
885.952	-5.4
886.118	-45.09
886.283	-66.57
886.449	-150.25
886.614	-112.23
886.78	-162.12
886.945	263.11
887.111	-132.66
887.276	-21.31
887.442	-451.36
887.607	-183.25
887.773	-165.76
887.938	-193.08
888.103	-236.38
888.269	-69.13
888.434	-104.59
888.599	-60.78
888.764	17.87
888.93	8.25
889.095	-46.24
889.26	-104.1
889.425	-46.5
889.59	-29.84
889.756	-73.66
889.921	-3.79
890.086	56.3
890.251	36.36
890.416	-129.41
890.581	-1168.55
890.746	122.68
890.911	308.6
891.076	168.89
891.241	-287.69
891.406	60.95
891.571	-28.79
891.736	-185.09
891.901	-277.43
892.065	459.89
892.23	120.65
892.395	236.3
892.56	297.83
892.725	-341.02
892.889	-691.46
893.054	-184.07
893.219	-7.69
893.384	5.09
893.548	-45.42
893.713	-55.42
893.878	-16.12
