Data from Ofra_2a_PS_4HS15_Reflection_1.txt Node
Date: Tue Jul 20 09:51:10 EDT 2021
User: Adam
Spectrometer: FLMT01687
Trigger mode: 0
Integration Time (sec): 9.450000E-1
Scans to average: 3
Electric dark correction enabled: true
Nonlinearity correction enabled: false
Boxcar width: 3
XAxis mode: Wavelengths
Number of Pixels in Spectrum: 3648
>>>>>Begin Spectral Data<<<<<
179.494	401.18
179.716	295.51
179.937	322.53
180.158	1660.55
180.38	-834.59
180.601	-242.29
180.823	-73.36
181.044	-166.43
181.265	-208.49
181.486	27.16
181.708	479.35
181.929	75
182.15	632.39
182.372	12.18
182.593	-105.57
182.814	761.23
183.035	410.02
183.257	204.43
183.478	113.77
183.699	123.76
183.92	86.6
184.141	84.39
184.363	81.42
184.584	54.83
184.805	57.72
185.026	61.81
185.247	17.58
185.468	24.97
185.689	26.52
185.91	-1.88
186.132	22.05
186.353	-1.6
186.574	7.3
186.795	5.21
187.016	5.02
187.237	6.43
187.458	-7.2
187.679	-32.29
187.9	4.97
188.121	25.55
188.342	53.36
188.563	48.03
188.784	48.91
189.005	60.21
189.226	68.75
189.447	63.16
189.667	47.78
189.888	36.32
190.109	48.72
190.33	36.77
190.551	30.04
190.772	15.21
190.993	21.09
191.214	28.72
191.434	24.95
191.655	21.94
191.876	30.4
192.097	26.85
192.318	29.25
192.538	19.64
192.759	29.67
192.98	27.03
193.201	31.26
193.421	26.86
193.642	24.69
193.863	28.63
194.083	21.47
194.304	-7.46
194.525	12.55
194.745	-15
194.966	-12.19
195.187	4.46
195.407	6.34
195.628	16.52
195.848	18.47
196.069	11.49
196.29	19.96
196.51	29.47
196.731	38.6
196.951	46.19
197.172	29.32
197.392	31.02
197.613	33.39
197.833	32.62
198.054	18.8
198.274	-11.51
198.495	-13.71
198.715	-1.25
198.936	-4.8
199.156	-15.12
199.377	-4.75
199.597	5.03
199.817	21.74
200.038	15.89
200.258	21.7
200.479	29.11
200.699	43.49
200.919	23.79
201.14	19.43
201.36	29.38
201.58	38.16
201.801	32.67
202.021	29.38
202.241	24.16
202.461	40.29
202.682	52.62
202.902	48.03
203.122	47.82
203.342	42.78
203.563	49.75
203.783	52.23
204.003	47.24
204.223	44.73
204.443	50.86
204.663	45.59
204.884	46.55
205.104	38.96
205.324	44.03
205.544	49.46
205.764	44.4
205.984	16.61
206.204	6.24
206.424	18.41
206.644	7.84
206.864	3.4
207.084	20.9
207.304	13.17
207.525	13.34
207.745	25.54
207.964	36.57
208.184	40.86
208.404	38.19
208.624	11.63
208.844	17.62
209.064	45.55
209.284	50.42
209.504	41.57
209.724	18.82
209.944	21.63
210.164	24.6
210.384	39.06
210.604	6.52
210.823	-13.21
211.043	-15.45
211.263	7.42
211.483	10.81
211.703	14.53
211.922	10.43
212.142	21.62
212.362	29.9
212.582	33.83
212.801	33.67
213.021	35.02
213.241	27.63
213.461	26.66
213.68	37.53
213.9	42.05
214.12	36.09
214.339	35.26
214.559	50.24
214.779	58.72
214.998	57.64
215.218	58.23
215.438	63.12
215.657	63.77
215.877	68.26
216.096	54.05
216.316	45.58
216.535	42.9
216.755	21.03
216.974	28.35
217.194	23.3
217.413	37.83
217.633	23.58
217.852	20.75
218.072	19.76
218.291	42.46
218.511	29.4
218.73	25.91
218.95	16.22
219.169	18.41
219.389	18.19
219.608	24.49
219.827	14.95
220.047	22.31
220.266	38.09
220.485	37.99
220.705	34.91
220.924	46.7
221.143	46.75
221.363	51.21
221.582	48.39
221.801	46.53
222.021	40.7
222.24	48.75
222.459	37.12
222.678	31.77
222.897	13.88
223.117	3.51
223.336	-1.63
223.555	-5.75
223.774	-4.39
223.993	10.95
224.213	12.38
224.432	17.71
224.651	14.03
224.87	8.31
225.089	14.96
225.308	20.34
225.527	14.83
225.746	17.67
225.965	24.32
226.184	32.43
226.404	39.14
226.623	44.62
226.842	33.64
227.061	39.75
227.28	46.68
227.499	40.92
227.718	32.46
227.936	27.53
228.155	21.88
228.374	16.96
228.593	11.73
228.812	11.36
229.031	-2.84
229.25	7.58
229.469	20.8
229.688	28.4
229.907	28.74
230.125	27.42
230.344	33.68
230.563	41.36
230.782	36.12
231.001	35.31
231.22	29.92
231.438	38.97
231.657	40.58
231.876	31.97
232.095	32.34
232.313	32.79
232.532	37.69
232.751	45.25
232.969	45.82
233.188	34.58
233.407	33.22
233.625	33.6
233.844	40.95
234.063	41.99
234.281	30.42
234.5	30.61
234.719	42.76
234.937	48.25
235.156	48.81
235.374	52.79
235.593	41.27
235.811	54.69
236.03	35.98
236.249	36.9
236.467	40.55
236.686	35.14
236.904	22.89
237.123	27.12
237.341	20.02
237.559	29.85
237.778	35.39
237.996	34.1
238.215	30.25
238.433	34.08
238.652	29.11
238.87	31.65
239.088	20.45
239.307	19.29
239.525	10.78
239.743	13.27
239.962	13.34
240.18	25.37
240.398	35.39
240.617	58.03
240.835	53.75
241.053	68.52
241.271	69.28
241.49	59.21
241.708	57.03
241.926	46.81
242.144	37.77
242.363	35.38
242.581	21.67
242.799	7.46
243.017	16.52
243.235	3.45
243.453	9.27
243.672	0.58
243.89	-0.69
244.108	7.7
244.326	14.32
244.544	18.73
244.762	27.91
244.98	23.65
245.198	26.34
245.416	39.83
245.634	46.11
245.852	47.27
246.07	44.79
246.288	48.48
246.506	57.77
246.724	70.78
246.942	61.03
247.16	46.82
247.378	34.52
247.596	34.79
247.814	24.01
248.032	26.32
248.25	15.62
248.468	22.04
248.685	31.02
248.903	24.35
249.121	33.25
249.339	35.29
249.557	30.34
249.775	16.61
249.992	3.55
250.21	-2.81
250.428	1.17
250.646	-2.79
250.863	-1.59
251.081	-3.9
251.299	23.98
251.517	36.68
251.734	44.98
251.952	55.71
252.17	40.19
252.387	32.92
252.605	27.59
252.823	-3.52
253.04	4.17
253.258	5.51
253.475	7.09
253.693	21.46
253.911	30.81
254.128	22.15
254.346	28.65
254.563	20.62
254.781	18.24
254.998	14.28
255.216	15.64
255.433	13.68
255.651	23.88
255.868	27.21
256.086	35.43
256.303	30.27
256.521	29.4
256.738	14.85
256.956	8.98
257.173	5.15
257.39	1.64
257.608	0.21
257.825	-1.06
258.043	7.94
258.26	9.61
258.477	19.16
258.695	16.61
258.912	28.16
259.129	22.17
259.346	29.09
259.564	30.41
259.781	34.11
259.998	32.31
260.216	47.91
260.433	38.48
260.65	44.17
260.867	33.15
261.084	30.32
261.302	30.37
261.519	26.06
261.736	16.79
261.953	25.73
262.17	30.84
262.387	39.34
262.604	32.52
262.822	38.58
263.039	34.06
263.256	32.37
263.473	18.28
263.69	8.03
263.907	-3.48
264.124	-1
264.341	-5.19
264.558	2.72
264.775	2.92
264.992	9.64
265.209	27.61
265.426	34.25
265.643	40.79
265.86	34.83
266.077	40.59
266.294	40.73
266.51	41.83
266.727	30.49
266.944	31.91
267.161	25.69
267.378	32.11
267.595	22.21
267.812	15.79
268.028	17.57
268.245	18.68
268.462	25.28
268.679	25.88
268.896	16.83
269.112	30.64
269.329	36.95
269.546	27.99
269.763	31.51
269.979	26.27
270.196	27.17
270.413	41.71
270.629	33.3
270.846	38.53
271.063	47
271.279	44.89
271.496	40.51
271.712	34.02
271.929	29.49
272.146	25.48
272.362	1.3
272.579	-0.67
272.795	-7.67
273.012	-2.17
273.228	6.54
273.445	6.2
273.661	5
273.878	20.84
274.094	26.9
274.311	33.88
274.527	27.58
274.744	29.89
274.96	35.57
275.177	42.85
275.393	35.57
275.609	24.31
275.826	22.36
276.042	34.08
276.259	37.85
276.475	31.52
276.691	31.79
276.908	32.29
277.124	39.73
277.34	32.93
277.557	36.89
277.773	29.66
277.989	30.44
278.205	28
278.422	34.32
278.638	41.29
278.854	47.49
279.07	39.84
279.286	40.7
279.503	39.44
279.719	35.62
279.935	29.38
280.151	23.45
280.367	21.71
280.583	20.06
280.799	24.59
281.016	25.44
281.232	27.07
281.448	26.16
281.664	19.98
281.88	22.79
282.096	31.55
282.312	31.03
282.528	27.8
282.744	23.7
282.96	32.11
283.176	37.61
283.392	48.46
283.608	49.42
283.824	44.61
284.04	38.68
284.256	37.86
284.471	36.8
284.687	30.58
284.903	22.78
285.119	4.75
285.335	7.12
285.551	15.94
285.767	18.5
285.982	17.19
286.198	22.89
286.414	30.37
286.63	42.63
286.846	39.81
287.061	41.8
287.277	45.65
287.493	41.88
287.709	32.65
287.924	35.12
288.14	36.72
288.356	40.68
288.571	31.94
288.787	34.6
289.003	40.72
289.218	34.4
289.434	25.4
289.65	30.42
289.865	35.16
290.081	38.01
290.296	35.18
290.512	37.94
290.727	51.99
290.943	44.03
291.159	33.24
291.374	30.82
291.59	21.16
291.805	15.47
292.021	3.05
292.236	6.76
292.451	16.1
292.667	15.41
292.882	7.68
293.098	5.46
293.313	-2.4
293.529	3.64
293.744	-0.28
293.959	3.21
294.175	10.85
294.39	23.84
294.605	43.04
294.821	45.39
295.036	43.43
295.251	46.07
295.467	36.01
295.682	34.93
295.897	24.43
296.112	9.82
296.328	15.46
296.543	9.64
296.758	6.93
296.973	10.17
297.188	-0.57
297.404	3.82
297.619	15.69
297.834	30.59
298.049	22.17
298.264	25.2
298.479	19.83
298.694	38.56
298.909	28.82
299.125	27.57
299.34	17.43
299.555	24.76
299.77	20.4
299.985	21.37
300.2	8.42
300.415	16.34
300.63	9.98
300.845	9.09
301.06	12.22
301.275	16.01
301.49	25.99
301.704	24.22
301.919	24.15
302.134	20.33
302.349	17.11
302.564	4.57
302.779	6.59
302.994	-0.21
303.209	6.03
303.423	15.62
303.638	25.94
303.853	32.49
304.068	37.67
304.283	31.3
304.497	17.61
304.712	15.29
304.927	8.04
305.142	7.29
305.356	4.95
305.571	10.32
305.786	13.01
306	24.09
306.215	28.09
306.43	33.74
306.644	36.63
306.859	41.04
307.074	34.45
307.288	34.44
307.503	35.08
307.717	35.31
307.932	41.33
308.147	36.36
308.361	26.37
308.576	25.32
308.79	23.18
309.005	17.34
309.219	20.9
309.434	12.27
309.648	2.82
309.863	13.06
310.077	21.28
310.292	20.9
310.506	32.46
310.72	26.91
310.935	33.08
311.149	37.35
311.364	33.55
311.578	21.86
311.792	19.06
312.007	13.2
312.221	25.11
312.435	16.32
312.649	22.06
312.864	21.1
313.078	36.2
313.292	47.86
313.507	46.61
313.721	28.16
313.935	46.67
314.149	41.07
314.363	42.15
314.578	61.66
314.792	56.4
315.006	66.14
315.22	66.33
315.434	54.23
315.648	54.57
315.862	50.79
316.077	43.73
316.291	51.48
316.505	39.56
316.719	29.75
316.933	36.73
317.147	31
317.361	37.93
317.575	34.73
317.789	26.65
318.003	32.34
318.217	40.41
318.431	37.49
318.645	43.92
318.859	37.24
319.073	32.97
319.287	37.4
319.5	35
319.714	38.72
319.928	41.15
320.142	38.59
320.356	52.05
320.57	51.35
320.784	42.6
320.997	42.24
321.211	24.66
321.425	23.51
321.639	20.47
321.853	8.42
322.066	4.76
322.28	12.25
322.494	13.17
322.707	28.84
322.921	30.47
323.135	43.44
323.349	40.48
323.562	43.1
323.776	38.58
323.989	35.04
324.203	29.72
324.417	18.17
324.63	-1.36
324.844	-12.33
325.057	-5.95
325.271	-18.76
325.485	-11.88
325.698	-10.91
325.912	6.11
326.125	8.33
326.339	23.51
326.552	19.26
326.766	30.92
326.979	28.54
327.193	20.59
327.406	14.6
327.619	9.84
327.833	1.41
328.046	5.87
328.26	-8.73
328.473	-4.78
328.686	1.47
328.9	-1.51
329.113	14.87
329.326	16.5
329.54	4.3
329.753	12.57
329.966	11.49
330.179	21.54
330.393	32.19
330.606	38.35
330.819	40.4
331.032	51.46
331.246	60.88
331.459	64.73
331.672	60.86
331.885	49.36
332.098	43.39
332.311	33.94
332.525	20.14
332.738	12.48
332.951	20.24
333.164	12.38
333.377	9.31
333.59	7.09
333.803	17.09
334.016	17.79
334.229	22.56
334.442	27.46
334.655	33.75
334.868	41.7
335.081	49.88
335.294	44.25
335.507	45.08
335.72	27.15
335.933	19.71
336.146	21.93
336.359	16.08
336.572	5.49
336.785	20.34
336.997	17.43
337.21	31.7
337.423	30.68
337.636	35.26
337.849	33.57
338.062	43.71
338.274	34
338.487	36.71
338.7	38.27
338.913	33.16
339.125	25.5
339.338	32.22
339.551	25.14
339.763	26.43
339.976	20.64
340.189	17.22
340.402	14.56
340.614	20.37
340.827	12.02
341.039	13.21
341.252	11.54
341.465	14.53
341.677	13.57
341.89	18.17
342.102	9.69
342.315	18.67
342.527	10.69
342.74	12.63
342.952	10.09
343.165	21.73
343.377	27.27
343.59	34.23
343.802	31.39
344.015	36.56
344.227	33
344.44	34.97
344.652	34.45
344.864	32.75
345.077	34.01
345.289	35.88
345.502	37.44
345.714	42.22
345.926	46.98
346.139	33.16
346.351	22.67
346.563	37.21
346.775	33.15
346.988	31.84
347.2	29.87
347.412	30.82
347.624	42.06
347.837	47.31
348.049	36.84
348.261	32.64
348.473	29.84
348.685	27.73
348.897	23.3
349.11	16.68
349.322	11.82
349.534	-0.19
349.746	15.73
349.958	21.57
350.17	25.64
350.382	26.8
350.594	30.52
350.806	36.17
351.018	42.42
351.23	39.96
351.442	38.62
351.654	37.28
351.866	36.79
352.078	33.51
352.29	39.29
352.502	41.19
352.714	40.71
352.926	40.9
353.138	42.71
353.35	36.77
353.561	28.14
353.773	24.85
353.985	30.23
354.197	24.08
354.409	27.5
354.621	26.31
354.832	31.09
355.044	48.65
355.256	46.14
355.468	38.29
355.679	39.6
355.891	34.37
356.103	35.59
356.314	35.82
356.526	22.42
356.738	15.58
356.949	17
357.161	16.42
357.373	17.16
357.584	24.47
357.796	15.85
358.008	17.35
358.219	26.57
358.431	25.4
358.642	26.56
358.854	29.16
359.065	22.7
359.277	27.36
359.488	29.11
359.7	28.72
359.911	26.45
360.123	28.77
360.334	23.86
360.546	19.97
360.757	26.68
360.969	33.36
361.18	28.21
361.391	27.77
361.603	29.95
361.814	36.39
362.025	37.49
362.237	37.02
362.448	27.9
362.659	25.27
362.871	34.22
363.082	29.08
363.293	23.19
363.504	22.47
363.716	21.13
363.927	25.02
364.138	28.34
364.349	23.46
364.56	27.33
364.772	29.23
364.983	24.79
365.194	18.61
365.405	14.9
365.616	3.97
365.827	7.11
366.038	13.23
366.25	12.23
366.461	18.39
366.672	18.52
366.883	24.89
367.094	33.17
367.305	32.88
367.516	31.01
367.727	26.42
367.938	25.5
368.149	26.94
368.36	21.77
368.571	24.7
368.781	21.55
368.992	17.12
369.203	20.88
369.414	16.08
369.625	21.53
369.836	24.85
370.047	19.89
370.258	15.85
370.468	12.59
370.679	17.36
370.89	25.78
371.101	16.69
371.312	11.51
371.522	20.54
371.733	18.83
371.944	18.9
372.155	2.88
372.365	-4.96
372.576	-4.57
372.787	-1.36
372.997	-7.75
373.208	-2.57
373.419	-2.98
373.629	15.44
373.84	15.02
374.05	27.23
374.261	23.23
374.472	18.84
374.682	16.4
374.893	9.22
375.103	3.66
375.314	4.68
375.524	-1.89
375.735	1.58
375.945	6.82
376.156	14.11
376.366	24.95
376.577	23.8
376.787	27.15
376.997	33.53
377.208	32.83
377.418	31.65
377.629	22.58
377.839	19.99
378.049	26.22
378.26	27.35
378.47	25.2
378.68	22.95
378.89	19.27
379.101	22.47
379.311	16.46
379.521	12.48
379.732	0.43
379.942	0.86
380.152	8.26
380.362	9.82
380.572	16.27
380.783	20.76
380.993	21.51
381.203	34.34
381.413	35.78
381.623	29.99
381.833	27.87
382.043	19.27
382.253	20.19
382.463	20.6
382.674	14.49
382.884	7.84
383.094	7.51
383.304	10.1
383.514	16.45
383.724	14.36
383.934	10.56
384.144	11.77
384.353	12.75
384.563	12.18
384.773	14.86
384.983	16.5
385.193	17.67
385.403	22.51
385.613	20.02
385.823	21.79
386.033	23.66
386.242	20.19
386.452	15.52
386.662	16.84
386.872	14.33
387.082	14.58
387.291	10.24
387.501	12.63
387.711	12.8
387.921	13.08
388.13	11.29
388.34	13.28
388.55	14.75
388.759	18.04
388.969	14.79
389.179	16.3
389.388	17.25
389.598	15.26
389.807	12.47
390.017	12.33
390.227	12.79
390.436	13.76
390.646	13.26
390.855	12.28
391.065	13.87
391.274	12.98
391.484	12.52
391.693	12.42
391.903	12.16
392.112	11.72
392.322	11.56
392.531	12.02
392.74	10.86
392.95	11.05
393.159	10.37
393.369	9.94
393.578	10.22
393.787	10.19
393.997	10.35
394.206	11.43
394.415	12.01
394.625	11.13
394.834	10.26
395.043	9.61
395.252	10.57
395.462	10.09
395.671	10.5
395.88	10.1
396.089	10.6
396.298	11.02
396.508	11.38
396.717	10.64
396.926	10.04
397.135	9.45
397.344	9.47
397.553	9.54
397.762	9.41
397.971	9.24
398.181	8.8
398.39	9.21
398.599	9.35
398.808	9.12
399.017	9.4
399.226	9.73
399.435	9.6
399.644	9.93
399.853	10.09
400.062	10.17
400.27	10.17
400.479	9.75
400.688	9.69
400.897	9.85
401.106	9.93
401.315	9.64
401.524	9.63
401.733	9.8
401.941	9.88
402.15	9.7
402.359	9.68
402.568	9.53
402.777	9.53
402.985	9.53
403.194	9.38
403.403	9.14
403.612	9.16
403.82	9.03
404.029	8.98
404.238	9.03
404.446	8.88
404.655	8.7
404.864	8.86
405.072	8.9
405.281	8.72
405.489	8.8
405.698	8.7
405.906	8.73
406.115	8.89
406.324	8.75
406.532	8.77
406.741	8.89
406.949	8.75
407.158	8.81
407.366	8.77
407.574	8.77
407.783	8.82
407.991	8.64
408.2	8.61
408.408	8.58
408.617	8.49
408.825	8.48
409.033	8.36
409.242	8.28
409.45	8.31
409.658	8.28
409.867	8.33
410.075	8.35
410.283	8.27
410.491	8.23
410.7	8.31
410.908	8.3
411.116	8.16
411.324	8.18
411.533	8.03
411.741	8.04
411.949	8.09
412.157	8.03
412.365	8.02
412.573	8.18
412.781	8.11
412.99	8.17
413.198	8.18
413.406	8.18
413.614	8.19
413.822	8.2
414.03	8.09
414.238	8.1
414.446	8.03
414.654	7.91
414.862	7.76
415.07	7.73
415.278	7.63
415.486	7.71
415.694	7.56
415.902	7.53
416.109	7.58
416.317	7.54
416.525	7.66
416.733	7.68
416.941	7.59
417.149	7.7
417.357	7.75
417.564	7.74
417.772	7.79
417.98	7.5
418.188	7.27
418.395	7.26
418.603	7.13
418.811	7.07
419.019	7
419.226	7.04
419.434	7.04
419.642	7.2
419.849	7.12
420.057	7.15
420.265	7.09
420.472	7.12
420.68	7.12
420.887	7.21
421.095	7.22
421.302	7.26
421.51	7.35
421.717	7.41
421.925	7.29
422.132	7.21
422.34	7.13
422.547	7.08
422.755	7.03
422.962	6.92
423.17	6.87
423.377	7.04
423.585	7.05
423.792	7.04
423.999	7.03
424.207	7
424.414	7.02
424.621	7.01
424.829	6.91
425.036	6.89
425.243	6.93
425.451	6.95
425.658	7
425.865	7.02
426.072	7.08
426.28	7.04
426.487	7.05
426.694	7.02
426.901	6.95
427.108	6.93
427.315	6.9
427.523	6.95
427.73	7.02
427.937	6.97
428.144	6.94
428.351	7.03
428.558	7.07
428.765	7.03
428.972	7
429.179	6.96
429.386	7.01
429.593	7.02
429.8	7.08
430.007	7.03
430.214	7.07
430.421	7.13
430.628	7.04
430.835	6.99
431.042	7.16
431.249	7.14
431.456	7.32
431.662	7.37
431.869	7.44
432.076	7.61
432.283	7.68
432.49	7.69
432.697	7.67
432.903	7.67
433.11	7.76
433.317	7.72
433.524	7.63
433.73	7.69
433.937	7.56
434.144	7.61
434.35	7.57
434.557	7.45
434.764	7.41
434.97	7.59
435.177	7.53
435.384	7.65
435.59	7.65
435.797	7.66
436.003	7.69
436.21	7.71
436.416	7.61
436.623	7.73
436.829	7.76
437.036	7.79
437.242	7.84
437.449	7.89
437.655	7.99
437.862	8.01
438.068	8.01
438.275	8
438.481	8.1
438.687	8.16
438.894	8.17
439.1	8.15
439.307	8.14
439.513	8.11
439.719	8.19
439.926	8.15
440.132	8.15
440.338	8.26
440.544	8.24
440.751	8.35
440.957	8.35
441.163	8.37
441.369	8.33
441.575	8.31
441.782	8.2
441.988	8.23
442.194	8.23
442.4	8.33
442.606	8.41
442.812	8.48
443.018	8.5
443.224	8.58
443.431	8.7
443.637	8.67
443.843	8.65
444.049	8.57
444.255	8.56
444.461	8.59
444.667	8.6
444.873	8.56
445.079	8.65
445.284	8.67
445.49	8.63
445.696	8.66
445.902	8.67
446.108	8.72
446.314	8.77
446.52	8.75
446.726	8.76
446.931	8.84
447.137	8.86
447.343	8.89
447.549	8.84
447.755	8.8
447.96	8.86
448.166	8.93
448.372	8.97
448.578	9
448.783	9.02
448.989	9.12
449.195	9.16
449.4	9.15
449.606	9.09
449.812	9.16
450.017	9.19
450.223	9.19
450.428	9.19
450.634	9.23
450.84	9.25
451.045	9.3
451.251	9.28
451.456	9.24
451.662	9.27
451.867	9.34
452.073	9.32
452.278	9.36
452.483	9.4
452.689	9.41
452.894	9.48
453.1	9.46
453.305	9.45
453.51	9.48
453.716	9.46
453.921	9.46
454.127	9.45
454.332	9.49
454.537	9.66
454.742	9.65
454.948	9.67
455.153	9.69
455.358	9.76
455.563	9.82
455.769	9.83
455.974	9.71
456.179	9.67
456.384	9.76
456.589	9.87
456.795	9.81
457	9.83
457.205	9.79
457.41	9.87
457.615	10.02
457.82	10.02
458.025	10.01
458.23	10.14
458.435	10.15
458.64	10.33
458.845	10.34
459.05	10.38
459.255	10.36
459.46	10.36
459.665	10.36
459.87	10.43
460.075	10.35
460.28	10.44
460.485	10.47
460.69	10.53
460.895	10.59
461.099	10.62
461.304	10.67
461.509	10.66
461.714	10.66
461.919	10.64
462.123	10.68
462.328	10.7
462.533	10.71
462.738	10.64
462.942	10.75
463.147	10.74
463.352	10.81
463.556	10.87
463.761	10.85
463.966	10.96
464.17	11.14
464.375	11.11
464.58	11.15
464.784	11.15
464.989	11.16
465.193	11.22
465.398	11.19
465.602	11.14
465.807	11.23
466.011	11.29
466.216	11.33
466.42	11.39
466.625	11.39
466.829	11.41
467.034	11.46
467.238	11.44
467.443	11.42
467.647	11.46
467.851	11.49
468.056	11.55
468.26	11.56
468.464	11.55
468.669	11.64
468.873	11.66
469.077	11.64
469.282	11.66
469.486	11.67
469.69	11.7
469.894	11.75
470.099	11.76
470.303	11.8
470.507	11.87
470.711	11.86
470.915	11.93
471.119	11.93
471.324	11.91
471.528	11.92
471.732	11.89
471.936	11.88
472.14	11.91
472.344	11.89
472.548	11.96
472.752	12
472.956	12.07
473.16	12.05
473.364	12.07
473.568	12.1
473.772	12.11
473.976	12.07
474.18	12.07
474.384	12.04
474.588	12.16
474.792	12.14
474.995	12.14
475.199	12.15
475.403	12.21
475.607	12.21
475.811	12.22
476.015	12.23
476.218	12.27
476.422	12.23
476.626	12.3
476.83	12.27
477.033	12.3
477.237	12.29
477.441	12.26
477.644	12.27
477.848	12.29
478.052	12.29
478.255	12.35
478.459	12.38
478.663	12.44
478.866	12.4
479.07	12.4
479.273	12.4
479.477	12.44
479.681	12.43
479.884	12.37
480.088	12.36
480.291	12.4
480.495	12.41
480.698	12.43
480.901	12.35
481.105	12.38
481.308	12.44
481.512	12.46
481.715	12.51
481.919	12.53
482.122	12.52
482.325	12.56
482.529	12.58
482.732	12.59
482.935	12.52
483.138	12.52
483.342	12.58
483.545	12.61
483.748	12.61
483.952	12.57
484.155	12.58
484.358	12.63
484.561	12.6
484.764	12.55
484.967	12.6
485.171	12.58
485.374	12.6
485.577	12.62
485.78	12.66
485.983	12.68
486.186	12.67
486.389	12.61
486.592	12.66
486.795	12.67
486.998	12.67
487.201	12.62
487.404	12.64
487.607	12.64
487.81	12.66
488.013	12.57
488.216	12.56
488.419	12.51
488.622	12.48
488.825	12.43
489.028	12.42
489.231	12.42
489.433	12.44
489.636	12.4
489.839	12.43
490.042	12.48
490.245	12.5
490.447	12.48
490.65	12.45
490.853	12.45
491.056	12.45
491.258	12.46
491.461	12.44
491.664	12.41
491.866	12.42
492.069	12.44
492.272	12.41
492.474	12.41
492.677	12.35
492.879	12.36
493.082	12.41
493.285	12.42
493.487	12.4
493.69	12.39
493.892	12.41
494.095	12.42
494.297	12.41
494.5	12.39
494.702	12.39
494.905	12.43
495.107	12.46
495.309	12.37
495.512	12.42
495.714	12.42
495.917	12.42
496.119	12.43
496.321	12.47
496.524	12.47
496.726	12.55
496.928	12.55
497.13	12.54
497.333	12.57
497.535	12.54
497.737	12.45
497.939	12.47
498.142	12.4
498.344	12.38
498.546	12.42
498.748	12.31
498.95	12.33
499.152	12.31
499.355	12.29
499.557	12.34
499.759	12.38
499.961	12.36
500.163	12.44
500.365	12.41
500.567	12.45
500.769	12.48
500.971	12.43
501.173	12.36
501.375	12.38
501.577	12.37
501.779	12.4
501.981	12.42
502.183	12.4
502.385	12.44
502.587	12.45
502.788	12.42
502.99	12.4
503.192	12.4
503.394	12.41
503.596	12.42
503.798	12.49
503.999	12.51
504.201	12.53
504.403	12.55
504.605	12.56
504.806	12.54
505.008	12.53
505.21	12.48
505.411	12.5
505.613	12.5
505.815	12.52
506.016	12.51
506.218	12.54
506.42	12.57
506.621	12.6
506.823	12.57
507.024	12.57
507.226	12.53
507.427	12.48
507.629	12.45
507.83	12.44
508.032	12.4
508.233	12.42
508.435	12.41
508.636	12.46
508.838	12.49
509.039	12.51
509.24	12.5
509.442	12.51
509.643	12.51
509.845	12.54
510.046	12.52
510.247	12.6
510.448	12.61
510.65	12.65
510.851	12.65
511.052	12.68
511.254	12.68
511.455	12.68
511.656	12.64
511.857	12.65
512.058	12.65
512.26	12.64
512.461	12.63
512.662	12.6
512.863	12.63
513.064	12.62
513.265	12.65
513.466	12.66
513.667	12.67
513.868	12.67
514.069	12.71
514.27	12.69
514.471	12.73
514.672	12.7
514.873	12.71
515.074	12.68
515.275	12.65
515.476	12.64
515.677	12.65
515.878	12.66
516.079	12.66
516.28	12.63
516.481	12.62
516.682	12.68
516.882	12.68
517.083	12.66
517.284	12.63
517.485	12.63
517.686	12.64
517.886	12.65
518.087	12.66
518.288	12.62
518.488	12.65
518.689	12.6
518.89	12.64
519.091	12.65
519.291	12.66
519.492	12.61
519.692	12.69
519.893	12.68
520.094	12.7
520.294	12.66
520.495	12.66
520.695	12.67
520.896	12.69
521.096	12.64
521.297	12.66
521.497	12.68
521.698	12.7
521.898	12.69
522.099	12.73
522.299	12.73
522.499	12.76
522.7	12.78
522.9	12.79
523.101	12.79
523.301	12.8
523.501	12.78
523.702	12.77
523.902	12.74
524.102	12.72
524.302	12.74
524.503	12.76
524.703	12.78
524.903	12.79
525.103	12.81
525.304	12.83
525.504	12.82
525.704	12.79
525.904	12.79
526.104	12.79
526.304	12.79
526.504	12.79
526.705	12.78
526.905	12.8
527.105	12.84
527.305	12.8
527.505	12.79
527.705	12.78
527.905	12.78
528.105	12.8
528.305	12.81
528.505	12.79
528.705	12.8
528.905	12.81
529.105	12.83
529.304	12.85
529.504	12.83
529.704	12.84
529.904	12.84
530.104	12.82
530.304	12.84
530.503	12.86
530.703	12.86
530.903	12.93
531.103	12.88
531.303	12.93
531.502	12.95
531.702	12.91
531.902	12.86
532.101	12.82
532.301	12.77
532.501	12.81
532.7	12.79
532.9	12.83
533.1	12.87
533.299	12.92
533.499	12.96
533.698	13.01
533.898	13.02
534.097	13.02
534.297	13.02
534.496	13
534.696	12.99
534.895	13.02
535.095	13.04
535.294	13.03
535.494	13.09
535.693	13.1
535.892	13.15
536.092	13.17
536.291	13.2
536.491	13.2
536.69	13.24
536.889	13.19
537.088	13.18
537.288	13.21
537.487	13.24
537.686	13.27
537.886	13.25
538.085	13.27
538.284	13.28
538.483	13.34
538.682	13.31
538.882	13.29
539.081	13.27
539.28	13.28
539.479	13.28
539.678	13.32
539.877	13.28
540.076	13.28
540.275	13.34
540.474	13.33
540.673	13.37
540.872	13.42
541.071	13.45
541.27	13.5
541.469	13.56
541.668	13.6
541.867	13.61
542.066	13.64
542.265	13.65
542.464	13.67
542.663	13.75
542.862	13.84
543.06	13.89
543.259	13.91
543.458	13.96
543.657	14.01
543.856	14.03
544.054	14.04
544.253	13.97
544.452	13.95
544.651	13.96
544.849	13.99
545.048	13.96
545.247	13.98
545.445	13.97
545.644	14.01
545.843	14.02
546.041	14.1
546.24	14.15
546.438	14.22
546.637	14.31
546.836	14.38
547.034	14.43
547.233	14.47
547.431	14.49
547.63	14.5
547.828	14.52
548.027	14.47
548.225	14.52
548.423	14.57
548.622	14.6
548.82	14.62
549.019	14.65
549.217	14.74
549.415	14.82
549.614	14.84
549.812	14.89
550.01	14.93
550.209	15.03
550.407	15.12
550.605	15.16
550.803	15.23
551.002	15.25
551.2	15.28
551.398	15.38
551.596	15.41
551.794	15.44
551.993	15.43
552.191	15.51
552.389	15.58
552.587	15.6
552.785	15.62
552.983	15.66
553.181	15.67
553.379	15.75
553.577	15.8
553.775	15.85
553.973	15.97
554.171	16.06
554.369	16.12
554.567	16.21
554.765	16.28
554.963	16.29
555.161	16.35
555.359	16.39
555.557	16.46
555.755	16.53
555.952	16.59
556.15	16.67
556.348	16.76
556.546	16.85
556.744	16.91
556.941	16.99
557.139	17.08
557.337	17.13
557.535	17.22
557.732	17.31
557.93	17.37
558.128	17.42
558.325	17.49
558.523	17.53
558.721	17.66
558.918	17.69
559.116	17.71
559.313	17.78
559.511	17.93
559.708	18
559.906	18.1
560.104	18.14
560.301	18.21
560.498	18.31
560.696	18.38
560.893	18.46
561.091	18.5
561.288	18.6
561.486	18.68
561.683	18.78
561.88	18.87
562.078	18.94
562.275	18.96
562.473	19.04
562.67	19.06
562.867	19.14
563.064	19.22
563.262	19.35
563.459	19.46
563.656	19.6
563.853	19.72
564.051	19.8
564.248	19.9
564.445	19.96
564.642	20.01
564.839	20.11
565.036	20.15
565.234	20.24
565.431	20.32
565.628	20.36
565.825	20.47
566.022	20.49
566.219	20.49
566.416	20.59
566.613	20.64
566.81	20.72
567.007	20.79
567.204	20.84
567.401	20.95
567.598	21.05
567.795	21.06
567.991	21.1
568.188	21.2
568.385	21.25
568.582	21.32
568.779	21.43
568.976	21.51
569.172	21.65
569.369	21.7
569.566	21.68
569.763	21.79
569.96	21.81
570.156	21.79
570.353	21.82
570.55	21.81
570.746	21.85
570.943	21.9
571.14	21.91
571.336	21.92
571.533	21.98
571.729	21.99
571.926	22.02
572.123	22.01
572.319	22.09
572.516	22.1
572.712	22.16
572.909	22.2
573.105	22.25
573.302	22.29
573.498	22.32
573.695	22.33
573.891	22.36
574.087	22.38
574.284	22.37
574.48	22.32
574.677	22.28
574.873	22.33
575.069	22.36
575.266	22.37
575.462	22.41
575.658	22.47
575.854	22.56
576.051	22.6
576.247	22.58
576.443	22.55
576.639	22.6
576.835	22.55
577.032	22.49
577.228	22.46
577.424	22.48
577.62	22.51
577.816	22.48
578.012	22.43
578.208	22.48
578.404	22.54
578.6	22.54
578.796	22.53
578.993	22.51
579.189	22.48
579.384	22.45
579.58	22.4
579.776	22.35
579.972	22.31
580.168	22.29
580.364	22.27
580.56	22.28
580.756	22.29
580.952	22.29
581.148	22.24
581.343	22.25
581.539	22.2
581.735	22.19
581.931	22.21
582.127	22.18
582.322	22.18
582.518	22.18
582.714	22.17
582.909	22.14
583.105	22.11
583.301	22.04
583.496	22.01
583.692	21.96
583.888	21.92
584.083	21.89
584.279	21.92
584.474	21.89
584.67	21.92
584.866	21.9
585.061	21.9
585.257	21.96
585.452	21.91
585.648	21.91
585.843	21.94
586.039	21.92
586.234	21.94
586.429	21.94
586.625	21.89
586.82	21.91
587.015	21.84
587.211	21.85
587.406	21.88
587.601	21.88
587.797	21.84
587.992	21.86
588.187	21.93
588.383	21.9
588.578	21.86
588.773	21.88
588.968	21.95
589.163	22.01
589.359	21.98
589.554	21.99
589.749	22.04
589.944	22.1
590.139	22.08
590.334	22.05
590.529	22.12
590.724	22.17
590.919	22.19
591.114	22.23
591.309	22.24
591.504	22.25
591.699	22.23
591.894	22.25
592.089	22.23
592.284	22.18
592.479	22.18
592.674	22.18
592.869	22.26
593.064	22.37
593.259	22.37
593.454	22.43
593.648	22.49
593.843	22.6
594.038	22.65
594.233	22.67
594.428	22.7
594.622	22.74
594.817	22.8
595.012	22.9
595.206	22.93
595.401	23.01
595.596	23.06
595.79	23.09
595.985	23.15
596.18	23.21
596.374	23.23
596.569	23.32
596.763	23.43
596.958	23.5
597.153	23.56
597.347	23.63
597.542	23.65
597.736	23.76
597.931	23.75
598.125	23.74
598.319	23.77
598.514	23.82
598.708	23.88
598.903	23.99
599.097	24.01
599.291	24.1
599.486	24.16
599.68	24.22
599.874	24.32
600.069	24.35
600.263	24.36
600.457	24.37
600.651	24.41
600.846	24.46
601.04	24.49
601.234	24.52
601.428	24.51
601.622	24.56
601.817	24.59
602.011	24.6
602.205	24.61
602.399	24.67
602.593	24.65
602.787	24.72
602.981	24.73
603.175	24.73
603.369	24.75
603.563	24.76
603.757	24.69
603.951	24.68
604.145	24.59
604.339	24.59
604.533	24.65
604.727	24.62
604.921	24.58
605.115	24.58
605.309	24.53
605.502	24.55
605.696	24.5
605.89	24.43
606.084	24.38
606.278	24.39
606.471	24.3
606.665	24.28
606.859	24.22
607.053	24.21
607.246	24.14
607.44	24.11
607.634	24.01
607.827	23.97
608.021	23.9
608.214	23.88
608.408	23.81
608.602	23.78
608.795	23.71
608.989	23.69
609.182	23.69
609.376	23.62
609.569	23.55
609.763	23.54
609.956	23.43
610.15	23.37
610.343	23.28
610.537	23.21
610.73	23.24
610.923	23.21
611.117	23.1
611.31	23.1
611.504	23.04
611.697	23.02
611.89	22.93
612.083	22.79
612.277	22.66
612.47	22.56
612.663	22.48
612.856	22.41
613.05	22.33
613.243	22.25
613.436	22.2
613.629	22.22
613.822	22.15
614.015	22.04
614.209	22
614.402	21.94
614.595	21.85
614.788	21.75
614.981	21.64
615.174	21.58
615.367	21.54
615.56	21.46
615.753	21.38
615.946	21.41
616.139	21.43
616.332	21.39
616.525	21.42
616.718	21.38
616.911	21.36
617.103	21.33
617.296	21.25
617.489	21.17
617.682	21.14
617.875	21.04
618.067	20.99
618.26	20.92
618.453	20.83
618.646	20.77
618.838	20.71
619.031	20.65
619.224	20.69
619.417	20.65
619.609	20.57
619.802	20.6
619.994	20.59
620.187	20.58
620.38	20.55
620.572	20.48
620.765	20.44
620.957	20.42
621.15	20.37
621.342	20.35
621.535	20.3
621.727	20.28
621.92	20.28
622.112	20.27
622.305	20.28
622.497	20.26
622.69	20.24
622.882	20.3
623.074	20.27
623.267	20.17
623.459	20.18
623.651	20.12
623.844	20.1
624.036	20.08
624.228	20.02
624.42	19.99
624.613	20.02
624.805	20.02
624.997	20.05
625.189	19.99
625.381	19.96
625.574	19.93
625.766	19.91
625.958	19.88
626.15	19.85
626.342	19.8
626.534	19.78
626.726	19.75
626.918	19.67
627.11	19.63
627.302	19.6
627.494	19.53
627.686	19.54
627.878	19.5
628.07	19.44
628.262	19.43
628.454	19.41
628.646	19.39
628.838	19.3
629.029	19.22
629.221	19.23
629.413	19.23
629.605	19.22
629.797	19.18
629.989	19.16
630.18	19.18
630.372	19.18
630.564	19.13
630.755	19.07
630.947	19.02
631.139	18.99
631.33	18.97
631.522	18.96
631.714	18.9
631.905	18.9
632.097	18.87
632.289	18.86
632.48	18.8
632.672	18.73
632.863	18.69
633.055	18.68
633.246	18.7
633.438	18.71
633.629	18.74
633.821	18.78
634.012	18.77
634.203	18.74
634.395	18.76
634.586	18.69
634.777	18.61
634.969	18.58
635.16	18.55
635.351	18.56
635.543	18.59
635.734	18.51
635.925	18.51
636.117	18.53
636.308	18.47
636.499	18.41
636.69	18.4
636.881	18.39
637.073	18.43
637.264	18.44
637.455	18.51
637.646	18.54
637.837	18.55
638.028	18.59
638.219	18.53
638.41	18.48
638.601	18.45
638.792	18.31
638.983	18.23
639.174	18.26
639.365	18.15
639.556	18.16
639.747	18.16
639.938	18.13
640.129	18.16
640.32	18.15
640.511	18.08
640.701	18.06
640.892	18.07
641.083	18.02
641.274	17.93
641.465	17.95
641.655	17.98
641.846	17.95
642.037	17.95
642.228	17.87
642.418	17.83
642.609	17.85
642.8	17.79
642.99	17.75
643.181	17.79
643.372	17.83
643.562	17.84
643.753	17.81
643.943	17.76
644.134	17.77
644.324	17.73
644.515	17.72
644.705	17.65
644.896	17.64
645.086	17.6
645.277	17.64
645.467	17.62
645.658	17.62
645.848	17.54
646.038	17.48
646.229	17.44
646.419	17.46
646.61	17.39
646.8	17.37
646.99	17.35
647.18	17.33
647.371	17.33
647.561	17.3
647.751	17.28
647.941	17.23
648.132	17.24
648.322	17.26
648.512	17.25
648.702	17.24
648.892	17.28
649.082	17.27
649.272	17.27
649.462	17.26
649.653	17.24
649.843	17.21
650.033	17.2
650.223	17.15
650.413	17.15
650.603	17.14
650.793	17.03
650.983	16.99
651.172	16.95
651.362	16.9
651.552	16.85
651.742	16.8
651.932	16.77
652.122	16.78
652.312	16.7
652.502	16.66
652.691	16.69
652.881	16.66
653.071	16.56
653.261	16.52
653.45	16.48
653.64	16.5
653.83	16.44
654.019	16.26
654.209	16.2
654.399	16.14
654.588	16.07
654.778	15.94
654.968	15.77
655.157	15.66
655.347	15.56
655.536	15.44
655.726	15.38
655.915	15.19
656.105	15.13
656.294	15.07
656.484	14.96
656.673	14.91
656.863	14.78
657.052	14.62
657.241	14.57
657.431	14.48
657.62	14.27
657.809	14.2
657.999	14.07
658.188	13.94
658.377	13.88
658.567	13.75
658.756	13.57
658.945	13.52
659.134	13.34
659.324	13.22
659.513	13.11
659.702	12.99
659.891	12.86
660.08	12.81
660.269	12.71
660.458	12.64
660.648	12.53
660.837	12.53
661.026	12.4
661.215	12.27
661.404	12.19
661.593	12.07
661.782	12.01
661.971	11.87
662.16	11.71
662.349	11.63
662.538	11.62
662.726	11.53
662.915	11.47
663.104	11.3
663.293	11.29
663.482	11.27
663.671	11.24
663.86	11.15
664.048	11.06
664.237	11.04
664.426	11.08
664.615	11
664.803	10.91
664.992	10.91
665.181	10.85
665.369	10.81
665.558	10.73
665.747	10.71
665.935	10.72
666.124	10.69
666.312	10.59
666.501	10.57
666.69	10.56
666.878	10.51
667.067	10.49
667.255	10.45
667.444	10.44
667.632	10.39
667.82	10.4
668.009	10.37
668.197	10.39
668.386	10.29
668.574	10.24
668.762	10.25
668.951	10.24
669.139	10.27
669.327	10.3
669.516	10.35
669.704	10.41
669.892	10.42
670.08	10.42
670.269	10.49
670.457	10.42
670.645	10.39
670.833	10.38
671.021	10.41
671.21	10.52
671.398	10.53
671.586	10.59
671.774	10.63
671.962	10.63
672.15	10.61
672.338	10.71
672.526	10.69
672.714	10.75
672.902	10.75
673.09	10.85
673.278	10.95
673.466	11.12
673.654	11.05
673.842	11.05
674.03	11.12
674.218	11.15
674.405	11.13
674.593	11.15
674.781	11.07
674.969	11.17
675.157	11.18
675.344	11.24
675.532	11.35
675.72	11.4
675.908	11.44
676.095	11.56
676.283	11.6
676.471	11.7
676.658	11.79
676.846	11.81
677.033	11.83
677.221	11.97
677.409	11.97
677.596	12.13
677.784	12.16
677.971	12.16
678.159	12.29
678.346	12.39
678.534	12.4
678.721	12.5
678.909	12.4
679.096	12.54
679.283	12.58
679.471	12.67
679.658	12.77
679.846	12.9
680.033	12.91
680.22	13.01
680.408	13.06
680.595	13.08
680.782	13.04
680.969	13.11
681.157	13.1
681.344	13.35
681.531	13.47
681.718	13.56
681.905	13.77
682.093	14
682.28	14.15
682.467	14.35
682.654	14.27
682.841	14.5
683.028	14.66
683.215	14.74
683.402	14.76
683.589	14.85
683.776	15.01
683.963	15.18
684.15	15.23
684.337	15.34
684.524	15.5
684.711	15.6
684.898	15.72
685.085	15.82
685.271	16.01
685.458	16.24
685.645	16.46
685.832	16.72
686.019	17.02
686.205	17.27
686.392	17.46
686.579	17.68
686.766	17.88
686.952	18.21
687.139	18.45
687.326	18.74
687.512	18.99
687.699	19.33
687.886	19.67
688.072	20.02
688.259	20.22
688.445	20.49
688.632	20.86
688.818	21.26
689.005	21.72
689.191	22.11
689.378	22.5
689.564	22.9
689.751	23.4
689.937	23.79
690.124	24.26
690.31	24.62
690.496	25.16
690.683	25.67
690.869	26.18
691.055	26.69
691.242	27.17
691.428	27.67
691.614	28.28
691.8	28.71
691.987	29.23
692.173	29.87
692.359	30.43
692.545	31.08
692.731	31.68
692.918	32.23
693.104	32.92
693.29	33.55
693.476	34.08
693.662	34.64
693.848	35.19
694.034	35.71
694.22	36.38
694.406	36.97
694.592	37.52
694.778	38.17
694.964	38.81
695.15	39.47
695.336	40.3
695.522	41.01
695.708	41.61
695.894	42.34
696.08	43.07
696.265	43.68
696.451	44.44
696.637	44.95
696.823	45.39
697.009	46.16
697.194	46.7
697.38	47.18
697.566	47.7
697.751	48.37
697.937	49.08
698.123	49.85
698.308	50.44
698.494	51.24
698.68	52.03
698.865	52.89
699.051	53.44
699.236	53.95
699.422	54.52
699.607	54.9
699.793	55.29
699.978	55.69
700.164	56.17
700.349	56.46
700.535	57.04
700.72	57.45
700.906	58.05
701.091	58.53
701.276	58.98
701.462	59.55
701.647	60.14
701.832	60.65
702.018	61.13
702.203	61.53
702.388	61.97
702.573	62.62
702.759	62.88
702.944	63.44
703.129	63.73
703.314	64.35
703.499	64.81
703.684	65.31
703.87	65.61
704.055	66.1
704.24	66.46
704.425	67.08
704.61	67.37
704.795	67.88
704.98	68.26
705.165	68.56
705.35	68.93
705.535	69.31
705.72	69.44
705.905	69.63
706.09	69.92
706.275	70.24
706.459	70.75
706.644	71.12
706.829	71.38
707.014	71.73
707.199	72.07
707.384	72.47
707.568	72.96
707.753	73.24
707.938	73.59
708.123	73.74
708.307	74.26
708.492	74.54
708.677	74.87
708.861	74.89
709.046	74.93
709.231	75.23
709.415	75.5
709.6	75.52
709.784	75.68
709.969	75.94
710.153	76.45
710.338	76.8
710.522	76.97
710.707	77.04
710.891	77.44
711.076	77.63
711.26	77.87
711.445	77.86
711.629	78.1
711.813	78.04
711.998	78.41
712.182	78.77
712.366	79.16
712.551	79.12
712.735	79.25
712.919	79.54
713.103	79.8
713.288	80.13
713.472	79.91
713.656	79.74
713.84	80
714.024	80.44
714.208	80.6
714.393	80.88
714.577	81
714.761	81.41
714.945	81.78
715.129	81.95
715.313	81.91
715.497	81.88
715.681	82.22
715.865	82.36
716.049	82.38
716.233	82.71
716.417	82.89
716.601	83
716.785	83.33
716.968	83
717.152	83.22
717.336	83.3
717.52	83.44
717.704	83.75
717.888	84.07
718.071	84.29
718.255	84.65
718.439	84.57
718.622	84.66
718.806	84.38
718.99	84.4
719.174	84.32
719.357	84.25
719.541	84.32
719.724	84.66
719.908	84.94
720.092	85.54
720.275	85.6
720.459	86.13
720.642	86.26
720.826	86.42
721.009	86.43
721.193	86.65
721.376	86.71
721.559	86.56
721.743	86.33
721.926	86.49
722.11	86.43
722.293	86.07
722.476	85.76
722.66	85.71
722.843	85.96
723.026	86.18
723.21	86.09
723.393	86.79
723.576	87.27
723.759	87.8
723.942	87.79
724.126	88.05
724.309	88.03
724.492	88.56
724.675	88.26
724.858	88.64
725.041	88.63
725.224	88.68
725.407	88.63
725.59	88.48
725.774	88.19
725.957	88.54
726.14	88.32
726.322	88.23
726.505	88.53
726.688	88.82
726.871	89.35
727.054	89.4
727.237	88.99
727.42	89.44
727.603	89.7
727.786	89.99
727.968	90.25
728.151	90.28
728.334	90.76
728.517	91.07
728.699	91.31
728.882	91.7
729.065	91.6
729.248	91.36
729.43	91.39
729.613	91.25
729.796	91.1
729.978	91.13
730.161	91.59
730.343	91.84
730.526	91.79
730.708	92.19
730.891	92.4
731.073	92.82
731.256	92.43
731.438	92.14
731.621	92.49
731.803	92.93
731.986	92.76
732.168	92.74
732.35	92.88
732.533	93.29
732.715	93.14
732.898	93.15
733.08	93.41
733.262	93.45
733.444	93.43
733.627	93.45
733.809	93.48
733.991	94
734.173	93.73
734.355	93.96
734.538	93.96
734.72	94.53
734.902	94.58
735.084	94.87
735.266	94.48
735.448	94.8
735.63	94.46
735.812	94.69
735.994	94.2
736.176	94.34
736.358	94.28
736.54	94.07
736.722	93.9
736.904	93.97
737.086	93.99
737.268	94.58
737.45	94.57
737.632	93.93
737.814	94.19
737.995	94.78
738.177	95.25
738.359	95.39
738.541	95.09
738.723	95.28
738.904	95.78
739.086	96.34
739.268	96.43
739.449	95.93
739.631	95.85
739.813	95.92
739.994	96.45
740.176	96.62
740.358	96.41
740.539	95.93
740.721	96.37
740.902	96.53
741.084	96.73
741.265	96.2
741.447	95.86
741.628	95.8
741.81	96.13
741.991	96.43
742.172	96.13
742.354	96.58
742.535	96.86
742.717	97.27
742.898	97.61
743.079	97.7
743.261	97.51
743.442	97.75
743.623	96.79
743.804	96.92
743.986	96.37
744.167	95.95
744.348	95.89
744.529	95.29
744.71	94.74
744.891	95.4
745.073	94.98
745.254	95.93
745.435	95.92
745.616	95.64
745.797	95.52
745.978	96.76
746.159	96.33
746.34	96.9
746.521	96.66
746.702	96.34
746.883	96.42
747.064	96.83
747.245	97
747.426	97.97
747.606	97.61
747.787	98.09
747.968	98.76
748.149	98.7
748.33	99.29
748.51	97.59
748.691	96.8
748.872	96.76
749.053	96.08
749.233	95.49
749.414	95.73
749.595	94.47
749.775	95.2
749.956	94.71
750.137	94.47
750.317	94.61
750.498	95.16
750.678	94.97
750.859	95.03
751.04	95.13
751.22	94.95
751.4	95.38
751.581	95.24
751.761	95.72
751.942	95.98
752.122	96.24
752.303	95.93
752.483	97.34
752.663	97.71
752.844	97.49
753.024	97.1
753.204	96.58
753.385	96.26
753.565	96.25
753.745	95.19
753.925	94.53
754.106	94.63
754.286	94.29
754.466	94.4
754.646	94.55
754.826	94.99
755.006	95.32
755.187	95.55
755.367	95.42
755.547	96.03
755.727	95.5
755.907	96.34
756.087	96.06
756.267	95.82
756.447	95.43
756.627	95.76
756.807	95.32
756.987	96.9
757.167	96.62
757.346	96.06
757.526	95.85
757.706	96.09
757.886	95.79
758.066	95.08
758.246	94.49
758.425	94.56
758.605	94.36
758.785	94.69
758.965	93.51
759.144	94.02
759.324	94.67
759.504	94.33
759.683	93.59
759.863	93.65
760.043	93.3
760.222	93.63
760.402	93.72
760.581	92.94
760.761	91.71
760.94	91.98
761.12	91.72
761.299	91.31
761.479	92.6
761.658	91.35
761.838	92.25
762.017	93.82
762.197	94
762.376	94.84
762.555	95.78
762.735	93.7
762.914	94.09
763.093	93.31
763.273	92.37
763.452	92.18
763.631	91
763.81	91.4
763.99	92.81
764.169	92.52
764.348	93.02
764.527	93.16
764.706	92.97
764.885	93.86
765.064	93.53
765.243	93.24
765.423	94.51
765.602	93.35
765.781	93.32
765.96	93.69
766.139	93.04
766.318	92.38
766.497	92.31
766.676	91.79
766.854	92.01
767.033	90.97
767.212	90.31
767.391	91.07
767.57	91.51
767.749	91.85
767.928	90.97
768.106	90.65
768.285	91.77
768.464	92.24
768.643	92.25
768.821	91.24
769	90.82
769.179	90
769.357	90.75
769.536	90.41
769.715	90.37
769.893	89.75
770.072	90.17
770.25	89.99
770.429	90.66
770.607	90.8
770.786	91.31
770.964	91.12
771.143	91.48
771.321	90.36
771.5	89.7
771.678	90.27
771.857	89.64
772.035	89.01
772.213	89.47
772.392	89.33
772.57	90.62
772.748	90.89
772.927	90.35
773.105	91
773.283	89.43
773.461	88.32
773.64	87.49
773.818	86.13
773.996	85.61
774.174	86.43
774.352	86.48
774.531	86.75
774.709	86.84
774.887	87.34
775.065	88.18
775.243	89.6
775.421	88.27
775.599	87.13
775.777	88
775.955	88.19
776.133	88.77
776.311	88.51
776.489	88.09
776.667	88.48
776.844	88.62
777.022	89.43
777.2	90.34
777.378	90.27
777.556	91
777.734	90.38
777.911	91.63
778.089	91.01
778.267	90.56
778.445	89.3
778.622	87.47
778.8	86.71
778.978	86.45
779.155	84.94
779.333	84.66
779.511	85.16
779.688	84.19
779.866	83.75
780.043	84.27
780.221	84.82
780.398	85.94
780.576	86.52
780.753	84.92
780.931	85.7
781.108	87.6
781.286	86.4
781.463	86.78
781.64	85.43
781.818	85.97
781.995	86.86
782.172	87.45
782.35	85.57
782.527	87.49
782.704	86.27
782.882	88.23
783.059	87.46
783.236	87.31
783.413	86.2
783.59	85.7
783.768	84.06
783.945	85.39
784.122	82.75
784.299	83.07
784.476	83.82
784.653	83.6
784.83	84.54
785.007	84.73
785.184	83.76
785.361	84.74
785.538	84.66
785.715	83.85
785.892	85.04
786.069	85.39
786.246	85.3
786.423	86.58
786.6	86.75
786.776	86.09
786.953	86.28
787.13	85.75
787.307	86.17
787.484	86.51
787.66	84.97
787.837	85.05
788.014	86.42
788.191	86.79
788.367	86.28
788.544	84.85
788.721	86.41
788.897	88.39
789.074	87.61
789.25	87.85
789.427	87.27
789.603	88.92
789.78	91.02
789.956	87.8
790.133	84.8
790.309	84.96
790.486	87.09
790.662	87.88
790.839	87.27
791.015	87.73
791.192	87.61
791.368	88.77
791.544	89.81
791.721	86.46
791.897	86.28
792.073	85.22
792.249	86.24
792.426	87.64
792.602	86.4
792.778	86.89
792.954	85.83
793.13	85.71
793.307	83.18
793.483	81.59
793.659	82.01
793.835	82.53
794.011	80.15
794.187	78.52
794.363	78.19
794.539	80.33
794.715	79.03
794.891	74.8
795.067	77.04
795.243	78.23
795.419	80.94
795.595	79.87
795.771	80.13
795.947	80.35
796.122	83.24
796.298	80.93
796.474	82.39
796.65	83.59
796.826	86.72
797.001	87.39
797.177	85.39
797.353	86.42
797.529	87.29
797.704	84.89
797.88	83.93
798.056	83.43
798.231	82.33
798.407	86.55
798.582	86.33
798.758	86.87
798.934	87.15
799.109	85.28
799.285	83.8
799.46	86.44
799.636	86.63
799.811	89.78
799.986	90.83
800.162	89.47
800.337	89.26
800.513	88.72
800.688	88.81
800.863	86.25
801.039	82.03
801.214	78.03
801.389	78.41
801.565	83.68
801.74	81.02
801.915	80.92
802.09	80.66
802.265	82.5
802.441	84.73
802.616	84.94
802.791	81.45
802.966	81.26
803.141	76.2
803.316	81.43
803.491	81.09
803.666	81.52
803.841	82.35
804.016	83.49
804.191	85.41
804.366	88.32
804.541	82.22
804.716	78.29
804.891	80.16
805.066	81.31
805.241	79.45
805.416	78.95
805.591	81.03
805.765	82.59
805.94	87.46
806.115	81.98
806.29	81.01
806.464	80.17
806.639	79.94
806.814	75.93
806.989	73.27
807.163	70.17
807.338	72.93
807.512	69.64
807.687	69.68
807.862	72.03
808.036	72.84
808.211	77.75
808.385	77.35
808.56	75.84
808.734	77.08
808.909	75.73
809.083	75.57
809.258	82.26
809.432	78.42
809.606	77.88
809.781	80.18
809.955	84.38
810.13	88.48
810.304	83.64
810.478	82.2
810.652	87.43
810.827	87.61
811.001	86.44
811.175	78
811.349	74.73
811.524	74.37
811.698	70.6
811.872	70.12
812.046	69.27
812.22	67.74
812.394	74.25
812.568	77.64
812.742	80.28
812.916	81.22
813.09	77.84
813.264	80.25
813.438	89.62
813.612	85.37
813.786	86.78
813.96	84.89
814.134	79.76
814.308	75.16
814.482	74.23
814.656	68.06
814.83	75.39
815.003	74.08
815.177	77.91
815.351	83.09
815.525	86.45
815.698	84.67
815.872	81.02
816.046	76.35
816.219	80.41
816.393	73.4
816.567	65.3
816.74	65.68
816.914	65.46
817.088	66.65
817.261	68.56
817.435	58.05
817.608	61.71
817.782	72.86
817.955	71
818.129	70.55
818.302	72.7
818.475	71.7
818.649	74.67
818.822	79.59
818.996	75.28
819.169	77.37
819.342	79.38
819.516	79.46
819.689	84.46
819.862	84.75
820.035	81.67
820.209	82.47
820.382	76.1
820.555	76.63
820.728	69.2
820.901	62.43
821.075	65.76
821.248	67.97
821.421	62.18
821.594	67.38
821.767	69.54
821.94	71.92
822.113	73.3
822.286	72.28
822.459	75.87
822.632	80.62
822.805	79.3
822.978	73.12
823.151	74.01
823.324	65.94
823.496	56.41
823.669	53.59
823.842	55.83
824.015	53.31
824.188	58.58
824.361	59.73
824.533	71.02
824.706	85.65
824.879	88.85
825.051	81.06
825.224	78.55
825.397	72.64
825.569	75.85
825.742	76.89
825.915	76.21
826.087	74.56
826.26	74.73
826.432	84.02
826.605	83.16
826.777	81.76
826.95	72.92
827.122	77.71
827.295	69.88
827.467	62.1
827.64	53.84
827.812	58.75
827.984	65.58
828.157	65.89
828.329	57.84
828.501	67.59
828.674	78
828.846	79.55
829.018	70.97
829.19	66.84
829.363	67.04
829.535	70.9
829.707	66.82
829.879	72.11
830.051	68.69
830.223	68.1
830.395	61.24
830.568	79.04
830.74	83.68
830.912	79.51
831.084	67.72
831.256	67.3
831.428	72.75
831.6	78.54
831.772	63.89
831.943	59.39
832.115	65.99
832.287	68.5
832.459	72.27
832.631	73.9
832.803	79.75
832.975	70.43
833.146	59.25
833.318	60.28
833.49	69.03
833.662	68.53
833.833	70.16
834.005	67.75
834.177	75.35
834.348	77.29
834.52	70.8
834.692	71.58
834.863	72.16
835.035	63.03
835.206	56.37
835.378	54.25
835.549	53.4
835.721	51.72
835.892	39.64
836.064	49.41
836.235	58.17
836.407	52.99
836.578	62.58
836.749	66.96
836.921	71.13
837.092	88.04
837.264	80.76
837.435	64.83
837.606	74.78
837.777	63.93
837.949	58.28
838.12	63.38
838.291	66.43
838.462	60.86
838.633	72.7
838.805	71.64
838.976	72.45
839.147	74.57
839.318	63.66
839.489	45.07
839.66	54.58
839.831	48.62
840.002	40.52
840.173	40.82
840.344	55.2
840.515	54.41
840.686	68.25
840.857	58.76
841.028	60.71
841.199	64.42
841.369	59.79
841.54	48.13
841.711	55.47
841.882	50.15
842.053	50.56
842.223	54.77
842.394	48.07
842.565	50.1
842.736	60.19
842.906	59.38
843.077	65.75
843.248	72.08
843.418	62.6
843.589	74.19
843.759	65.74
843.93	62.86
844.101	64.44
844.271	56.51
844.442	58.58
844.612	48.73
844.783	27.91
844.953	29.51
845.123	30.89
845.294	27.01
845.464	38.94
845.635	40.72
845.805	64.04
845.975	68.67
846.146	78.14
846.316	88.21
846.486	85.95
846.656	84.85
846.827	73.35
846.997	75.55
847.167	76.39
847.337	76.48
847.507	71.73
847.677	70.42
847.848	73.51
848.018	72.22
848.188	59.33
848.358	66.15
848.528	75.07
848.698	60.85
848.868	54.34
849.038	49.28
849.208	65.56
849.378	48.92
849.548	56.89
849.718	57.26
849.887	54.85
850.057	53.58
850.227	53.96
850.397	38.18
850.567	72.73
850.737	55.61
850.906	44.05
851.076	50.82
851.246	57.56
851.415	66.46
851.585	69.38
851.755	76.42
851.924	89.86
852.094	97.9
852.264	92.42
852.433	96.24
852.603	92.31
852.772	75.6
852.942	47.75
853.111	46.9
853.281	45.39
853.45	48.53
853.62	45.68
853.789	48.29
853.959	64.3
854.128	58.76
854.297	50.95
854.467	39.19
854.636	35.07
854.805	37.5
854.975	40.28
855.144	45.67
855.313	56.63
855.482	55
855.652	58.68
855.821	67.93
855.99	79.22
856.159	45.21
856.328	42.12
856.497	45.89
856.667	50.8
856.836	46.74
857.005	42.07
857.174	47
857.343	65.19
857.512	55.88
857.681	50.51
857.85	32.02
858.019	43.55
858.188	45.79
858.356	13.59
858.525	18.25
858.694	32.14
858.863	38.06
859.032	46.99
859.201	43.06
859.369	33.84
859.538	31.17
859.707	34.29
859.876	34.57
860.044	45.93
860.213	47.94
860.382	53.75
860.55	71.53
860.719	89.23
860.888	99.62
861.056	111.84
861.225	109.13
861.393	114.78
861.562	88.13
861.73	78.36
861.899	58.17
862.067	57.01
862.236	41.32
862.404	29.26
862.572	14.57
862.741	27.36
862.909	30.3
863.078	26.63
863.246	25.29
863.414	31.23
863.582	47.4
863.751	45.78
863.919	55.06
864.087	59
864.255	73.07
864.424	65.77
864.592	70.55
864.76	80.88
864.928	94.19
865.096	84.04
865.264	86.85
865.432	94.3
865.6	68.81
865.768	62.77
865.936	36.6
866.104	6.58
866.272	14.67
866.44	-47.64
866.608	-54.42
866.776	15.33
866.944	6.18
867.112	-9.75
867.28	12.61
867.448	3.68
867.615	47.09
867.783	1.93
867.951	-38.5
868.119	-7.43
868.286	20.6
868.454	33.45
868.622	43.09
868.789	42.43
868.957	77.59
869.125	77.09
869.292	82.73
869.46	85.68
869.627	76.03
869.795	63.82
869.963	72.74
870.13	70.82
870.298	76.7
870.465	52.61
870.632	33.38
870.8	24.49
870.967	30.54
871.135	24.12
871.302	20.66
871.469	18.99
871.637	17.02
871.804	33.02
871.971	37.99
872.139	34.82
872.306	34.13
872.473	38.91
872.64	38.08
872.807	56.53
872.975	50.33
873.142	57.17
873.309	86.78
873.476	135.24
873.643	104.97
873.81	78.95
873.977	47.35
874.144	42.4
874.311	0.82
874.478	-43.72
874.645	-57.15
874.812	-5.97
874.979	-9.73
875.146	-46.46
875.313	-35.62
875.48	16.1
875.647	-4.15
875.813	-9.67
875.98	-85.98
876.147	1.08
876.314	10.49
876.481	-4.23
876.647	13.58
876.814	40.12
876.981	39.9
877.147	41.79
877.314	21.65
877.481	39.85
877.647	36.31
877.814	21.7
877.98	17.53
878.147	11.11
878.314	32.49
878.48	39.32
878.647	48.19
878.813	66.11
878.979	86.31
879.146	54.99
879.312	75.67
879.479	66.66
879.645	43.95
879.811	26.91
879.978	32.61
880.144	38.24
880.31	33.87
880.477	5.8
880.643	-114.76
880.809	-6.64
880.975	-19.49
881.142	-21.17
881.308	-41.87
881.474	-17.35
881.64	-44.06
881.806	3.3
881.972	24.31
882.138	17.05
882.304	-3.06
882.47	-15.21
882.636	-37.19
882.802	-15.26
882.968	-51.79
883.134	-192.56
883.3	-55.06
883.466	0.54
883.632	-2.05
883.798	27.01
883.964	13.14
884.129	28.98
884.295	30.58
884.461	18.29
884.627	14.32
884.793	55.45
884.958	19.48
885.124	-8.65
885.29	11.53
885.455	-1.92
885.621	2.57
885.787	-20.37
885.952	-38.64
886.118	-29.28
886.283	4.69
886.449	-31.27
886.614	-17.92
886.78	10.15
886.945	11.35
887.111	4.7
887.276	-22.29
887.442	-28.44
887.607	-19.98
887.773	-24.75
887.938	-39.23
888.103	12.51
888.269	23.74
888.434	41.71
888.599	66.08
888.764	54.05
888.93	71.2
889.095	69.85
889.26	88.8
889.425	94.59
889.59	73.25
889.756	53.52
889.921	63.18
890.086	77.94
890.251	59.94
890.416	14.91
890.581	5.03
890.746	14.68
890.911	-15.13
891.076	-32.91
891.241	-61.29
891.406	17.71
891.571	24.71
891.736	11.37
891.901	33.46
892.065	46.59
892.23	34.11
892.395	5.71
892.56	-16
892.725	-15.48
892.889	-41.39
893.054	-105.11
893.219	-155.9
893.384	-228.15
893.548	-505.83
893.713	735.89
893.878	396.2
