Data from Ofra_1a_PS_2HS9_Reflection_3.txt Node
Date: Tue Jul 20 10:54:54 EDT 2021
User: Adam
Spectrometer: FLMT01687
Trigger mode: 0
Integration Time (sec): 1.004000E0
Scans to average: 2
Electric dark correction enabled: true
Nonlinearity correction enabled: false
Boxcar width: 2
XAxis mode: Wavelengths
Number of Pixels in Spectrum: 3648
>>>>>Begin Spectral Data<<<<<
179.494	-31.47
179.716	-79.39
179.937	492.98
180.158	-778.34
180.38	124.71
180.601	62.99
180.823	78.39
181.044	10.43
181.265	28.16
181.486	59.4
181.708	18.33
181.929	2818.18
182.15	44.29
182.372	64.04
182.593	83.01
182.814	-91.34
183.035	1.77
183.257	-5.44
183.478	-4.14
183.699	-38.77
183.92	-97.18
184.141	-105.21
184.363	-99.03
184.584	-114.83
184.805	-44.69
185.026	15.83
185.247	22.49
185.468	20.58
185.689	11.83
185.91	-29.17
186.132	-35.72
186.353	-42.28
186.574	-43.78
186.795	-38.89
187.016	-17.72
187.237	-25.37
187.458	-21.24
187.679	-45.5
187.9	-6.67
188.121	16.04
188.342	21.13
188.563	48.38
188.784	61.14
189.005	24.11
189.226	20.03
189.447	0.58
189.667	-19.55
189.888	-32
190.109	-35.53
190.33	-40.19
190.551	-41.2
190.772	-44.51
190.993	-35.23
191.214	-56.51
191.434	-103.44
191.655	-173.69
191.876	-69.99
192.097	-26.11
192.318	1.98
192.538	-27.37
192.759	4.22
192.98	8.11
193.201	-8.43
193.421	-10.78
193.642	13.17
193.863	19.36
194.083	3.4
194.304	5.99
194.525	-9.83
194.745	-17.36
194.966	-19.02
195.187	-11.38
195.407	-32.39
195.628	-8.2
195.848	-6.77
196.069	-5.09
196.29	-21.63
196.51	-22.29
196.731	-28.3
196.951	-35.21
197.172	-52.66
197.392	-57.93
197.613	-21.93
197.833	-27.37
198.054	-38.32
198.274	-19.35
198.495	-1.49
198.715	-20.1
198.936	-9.64
199.156	-14.86
199.377	-21.47
199.597	-3.15
199.817	13.64
200.038	0.9
200.258	28.26
200.479	43.17
200.699	28.15
200.919	1.8
201.14	6.27
201.36	3.54
201.58	-33.46
201.801	-59.81
202.021	-66.28
202.241	-75.33
202.461	-56.59
202.682	-8.76
202.902	-0.8
203.122	19.05
203.342	33.22
203.563	-7.86
203.783	-17.67
204.003	-22.57
204.223	-23.3
204.443	-29.62
204.663	-22.99
204.884	-1.94
205.104	11.16
205.324	11
205.544	-25.98
205.764	20.63
205.984	3.13
206.204	1.67
206.424	-32.44
206.644	-42.36
206.864	-86.18
207.084	-40.17
207.304	-49.81
207.525	-22.39
207.745	12.07
207.964	20.44
208.184	19.77
208.404	22.54
208.624	35.97
208.844	17.25
209.064	18.81
209.284	2.68
209.504	-26.25
209.724	-31.67
209.944	-28.06
210.164	-36.03
210.384	-27.88
210.604	-41.33
210.823	-48.76
211.043	-27.24
211.263	-75.26
211.483	-71.6
211.703	-55.7
211.922	-67.26
212.142	-56.8
212.362	-31.33
212.582	-31.73
212.801	-35.46
213.021	-44.96
213.241	-60.52
213.461	-41.07
213.68	-25.11
213.9	-13.51
214.12	-6.2
214.339	-8.88
214.559	-11.51
214.779	7.96
214.998	11.79
215.218	13.68
215.438	21.14
215.657	3.27
215.877	-19.51
216.096	-6.53
216.316	0.2
216.535	7.5
216.755	11.7
216.974	1.12
217.194	-17.3
217.413	-39
217.633	-69.08
217.852	-46.89
218.072	-32.18
218.291	-30.85
218.511	-15.35
218.73	1.1
218.95	-21.95
219.169	-19.35
219.389	-24.2
219.608	-34.24
219.827	-28.83
220.047	0.22
220.266	-14.05
220.485	-16.2
220.705	-12.56
220.924	-9.57
221.143	-8.21
221.363	12.29
221.582	3.01
221.801	4.96
222.021	14.75
222.24	6.7
222.459	17.95
222.678	28.26
222.897	15.43
223.117	10.01
223.336	17.88
223.555	13.18
223.774	33.68
223.993	53.03
224.213	42.93
224.432	18.67
224.651	12.82
224.87	-0.52
225.089	-6.38
225.308	1.83
225.527	-0.33
225.746	-10.71
225.965	-10.8
226.184	-6.93
226.404	-11.01
226.623	3.12
226.842	1.37
227.061	-0.32
227.28	13.36
227.499	20.54
227.718	19.11
227.936	23.65
228.155	28.27
228.374	12.35
228.593	-0.3
228.812	0.39
229.031	7.97
229.25	-1.27
229.469	12.34
229.688	29.82
229.907	32.82
230.125	24.9
230.344	30.12
230.563	16.85
230.782	-1.15
231.001	-15.69
231.22	-3.82
231.438	-5.02
231.657	1.19
231.876	7.02
232.095	22.46
232.313	-2.36
232.532	-9.95
232.751	-4.01
232.969	-7.76
233.188	-21.86
233.407	3.21
233.625	5.46
233.844	6.25
234.063	10.61
234.281	9.2
234.5	3.72
234.719	-3.38
234.937	-25.84
235.156	-24.69
235.374	-27.25
235.593	-19.11
235.811	-5.01
236.03	14.17
236.249	19.59
236.467	26.35
236.686	22.01
236.904	25.39
237.123	7.88
237.341	-14
237.559	-25.6
237.778	-4.42
237.996	-41.63
238.215	-66.43
238.433	-71.59
238.652	-25.43
238.87	-39.66
239.088	-23.97
239.307	-4.41
239.525	1.38
239.743	-10.87
239.962	-32.6
240.18	-19.74
240.398	-24.62
240.617	-32.74
240.835	-37.59
241.053	-19.92
241.271	-30.82
241.49	-7.61
241.708	-5.51
241.926	-11.16
242.144	-8.39
242.363	-22.14
242.581	-90.54
242.799	-85.31
243.017	-52.75
243.235	-34.61
243.453	-34.53
243.672	-9.09
243.89	-15.94
244.108	1.14
244.326	22.95
244.544	42.78
244.762	30.9
244.98	38.15
245.198	32.57
245.416	8.18
245.634	-11.76
245.852	-23.17
246.07	-12.62
246.288	-11.48
246.506	3.83
246.724	6.14
246.942	6.22
247.16	-2.19
247.378	-25.47
247.596	-29.78
247.814	-56.15
248.032	-35.74
248.25	3.88
248.468	13.42
248.685	12.5
248.903	20.51
249.121	24.23
249.339	6.84
249.557	13.19
249.775	10.22
249.992	-3.12
250.21	-8.33
250.428	1.51
250.646	-3.95
250.863	-29.68
251.081	-16.64
251.299	-18.8
251.517	-5.89
251.734	-6.43
251.952	6.73
252.17	-7.16
252.387	-30.18
252.605	-56.45
252.823	-85.35
253.04	-44.17
253.258	-28.99
253.475	-16.87
253.693	-7.33
253.911	-8.66
254.128	-22.29
254.346	-18.47
254.563	0.68
254.781	-3.11
254.998	-17.1
255.216	-40.57
255.433	-56.86
255.651	-42.05
255.868	-36.1
256.086	7.96
256.303	3.68
256.521	23.55
256.738	8.03
256.956	20.39
257.173	1.06
257.39	8
257.608	0.03
257.825	-3.48
258.043	-5.52
258.26	4.55
258.477	2.81
258.695	-1.82
258.912	-1.65
259.129	-17.29
259.346	-50.07
259.564	-22.45
259.781	-27.53
259.998	-17.76
260.216	9.25
260.433	5.67
260.65	-3.41
260.867	10.08
261.084	11.87
261.302	2.82
261.519	39.49
261.736	31.24
261.953	19.95
262.17	38.59
262.387	30.56
262.604	26.78
262.822	34.36
263.039	29.83
263.256	15.32
263.473	17.34
263.69	12.34
263.907	7.98
264.124	12.32
264.341	20.74
264.558	9.28
264.775	2.9
264.992	10.57
265.209	-19.66
265.426	-59.44
265.643	-45.36
265.86	-87.94
266.077	-103.26
266.294	-37.15
266.51	8.36
266.727	17.15
266.944	31.35
267.161	31.24
267.378	38.81
267.595	21.84
267.812	-1.55
268.028	-23.5
268.245	-25.24
268.462	-36.7
268.679	-18.58
268.896	11.49
269.112	7.1
269.329	-7.45
269.546	4.36
269.763	1.31
269.979	-8.61
270.196	11.42
270.413	4.39
270.629	-12.04
270.846	-22.56
271.063	-35.6
271.279	-41.19
271.496	-36.36
271.712	-23.5
271.929	-16.91
272.146	-7.12
272.362	-4.48
272.579	-6.61
272.795	4.87
273.012	23.77
273.228	36.34
273.445	18.92
273.661	35.63
273.878	7.29
274.094	2.49
274.311	-14.33
274.527	-20.65
274.744	-15.17
274.96	3.52
275.177	-14.95
275.393	-3.76
275.609	14.9
275.826	14.7
276.042	6.7
276.259	16.66
276.475	7.38
276.691	-6.48
276.908	-16.75
277.124	-18.27
277.34	-28.11
277.557	-37.76
277.773	-37.94
277.989	-36.22
278.205	-24.96
278.422	-21.1
278.638	5.06
278.854	-5.19
279.07	10.69
279.286	3.03
279.503	10.01
279.719	0.72
279.935	2.82
280.151	-14.36
280.367	-3.09
280.583	-11.54
280.799	-10.88
281.016	-32.89
281.232	-19.43
281.448	-19.8
281.664	-10.42
281.88	-18.06
282.096	0.92
282.312	1.51
282.528	-4.01
282.744	-14.14
282.96	-22.17
283.176	-44.93
283.392	-69.89
283.608	-62.04
283.824	-74
284.04	-110.21
284.256	-56.79
284.471	-42.2
284.687	-25.62
284.903	-10.99
285.119	9.91
285.335	11.35
285.551	13.5
285.767	-2.02
285.982	-6.72
286.198	-16.29
286.414	-23.55
286.63	-11.6
286.846	-2.32
287.061	-13.21
287.277	-27.59
287.493	-41.93
287.709	-57.73
287.924	-40.83
288.14	-13.75
288.356	3.19
288.571	22.78
288.787	8.13
289.003	4.86
289.218	-36.67
289.434	-42.21
289.65	-34.53
289.865	-20.15
290.081	-15.48
290.296	12.75
290.512	7.48
290.727	-9.55
290.943	1.92
291.159	8.84
291.374	-15.14
291.59	-4.78
291.805	-2.77
292.021	-20.38
292.236	-29.96
292.451	-17.11
292.667	-5.25
292.882	8.37
293.098	29.27
293.313	15.26
293.529	10.55
293.744	-1.5
293.959	-9.41
294.175	-17.93
294.39	-34.52
294.605	0.49
294.821	-14.03
295.036	-15.48
295.251	-9.32
295.467	-3.75
295.682	-23.84
295.897	-30
296.112	-38.64
296.328	-29.61
296.543	-30.79
296.758	-33.11
296.973	-17.74
297.188	1.04
297.404	-7.93
297.619	-38.52
297.834	-55.71
298.049	-41.55
298.264	-42.27
298.479	-52.75
298.694	5.85
298.909	20.96
299.125	11.88
299.34	2.12
299.555	9.25
299.77	11.15
299.985	3.27
300.2	14.25
300.415	17.68
300.63	17.69
300.845	3.63
301.06	8.37
301.275	-2.64
301.49	1.94
301.704	3.11
301.919	-4.73
302.134	-11.06
302.349	3.4
302.564	1.15
302.779	-13.07
302.994	1.48
303.209	14.29
303.423	0.88
303.638	10.72
303.853	-0.58
304.068	-19.05
304.283	-5.98
304.497	-11.68
304.712	-4.23
304.927	-0.67
305.142	4.43
305.356	-4.84
305.571	-9.44
305.786	-15.58
306	6.74
306.215	0.62
306.43	-20.91
306.644	-11.94
306.859	-35.28
307.074	-41.4
307.288	-26.39
307.503	-6.79
307.717	-21.31
307.932	-4.7
308.147	-11
308.361	-8.67
308.576	-26.31
308.79	-0.62
309.005	-19.24
309.219	-5.98
309.434	-7.95
309.648	1.87
309.863	-7.44
310.077	-14.02
310.292	-11.18
310.506	-14.48
310.72	-21.46
310.935	-15.79
311.149	9.47
311.364	7.15
311.578	13.36
311.792	26.13
312.007	21.29
312.221	-6.88
312.435	-6.71
312.649	-4.07
312.864	-12.67
313.078	-1.27
313.292	-2.35
313.507	0.49
313.721	-17.88
313.935	-29.09
314.149	-21.34
314.363	-4.86
314.578	-5.21
314.792	-26.13
315.006	-15.56
315.22	-20.35
315.434	-22.13
315.648	-22.45
315.862	-10.65
316.077	-10.97
316.291	-18.1
316.505	-41.53
316.719	-43.42
316.933	-39.07
317.147	-43.62
317.361	-45.94
317.575	-25.25
317.789	-22.67
318.003	-5.28
318.217	17.42
318.431	23.5
318.645	9.75
318.859	19.15
319.073	16.66
319.287	1.33
319.5	1.99
319.714	-2.22
319.928	-4.25
320.142	-4.75
320.356	19.76
320.57	13.3
320.784	17.53
320.997	-2.29
321.211	1.43
321.425	-34.86
321.639	-13.35
321.853	10.38
322.066	13.15
322.28	7.34
322.494	9.22
322.707	4.18
322.921	-15.84
323.135	-5.67
323.349	-10.77
323.562	-1.89
323.776	0.03
323.989	25.39
324.203	13.93
324.417	14.47
324.63	-1.12
324.844	-14.19
325.057	-59.87
325.271	-57.07
325.485	-47.22
325.698	-13.26
325.912	4.09
326.125	10.04
326.339	18.84
326.552	9.31
326.766	-6.35
326.979	-10.46
327.193	-1.06
327.406	-5.45
327.619	-0.3
327.833	-4.27
328.046	-1.57
328.26	-11.93
328.473	-1.88
328.686	3
328.9	12.79
329.113	21.29
329.326	21.72
329.54	19.66
329.753	28.31
329.966	22.09
330.179	12.41
330.393	17.09
330.606	2.37
330.819	-16.54
331.032	-7.16
331.246	5.54
331.459	6.7
331.672	19.89
331.885	23.56
332.098	25.26
332.311	11.44
332.525	8.07
332.738	9.02
332.951	1.36
333.164	4.15
333.377	8.17
333.59	-2.13
333.803	-13.87
334.016	-4.63
334.229	0.18
334.442	-17.37
334.655	-0.73
334.868	-9.87
335.081	-11.52
335.294	-25.68
335.507	-6.42
335.72	-15.3
335.933	-8.36
336.146	-14.58
336.359	-5.67
336.572	-6.6
336.785	-16.88
336.997	-15.07
337.21	8.55
337.423	-18.35
337.636	-21.96
337.849	-8.2
338.062	3.42
338.274	9.99
338.487	2.14
338.7	-6.62
338.913	4.48
339.125	-23.29
339.338	-39.13
339.551	-27.35
339.763	-18.11
339.976	-28.01
340.189	-17.23
340.402	-1.94
340.614	3.7
340.827	9.01
341.039	14.86
341.252	17.42
341.465	11.62
341.677	9.93
341.89	-2.44
342.102	7.84
342.315	8.23
342.527	3.03
342.74	-5.56
342.952	-7.91
343.165	-16.39
343.377	-23.41
343.59	-19.26
343.802	-11.39
344.015	0.51
344.227	0.55
344.44	-0.28
344.652	4.17
344.864	11.24
345.077	16.64
345.289	16.79
345.502	35.01
345.714	24.68
345.926	11.83
346.139	-0.16
346.351	-1.66
346.563	-2.21
346.775	5.76
346.988	24.93
347.2	29.86
347.412	31.59
347.624	18.02
347.837	24.54
348.049	19.38
348.261	3.28
348.473	-12.57
348.685	-2.76
348.897	-16.45
349.11	-8.89
349.322	10.04
349.534	8.62
349.746	-4.31
349.958	-16.49
350.17	-31.53
350.382	-18.4
350.594	1.9
350.806	17.44
351.018	27.19
351.23	27.57
351.442	25.18
351.654	17.99
351.866	7.9
352.078	21.55
352.29	21.84
352.502	9.98
352.714	18.81
352.926	19.89
353.138	8.32
353.35	-2.91
353.561	-6.95
353.773	-13.73
353.985	-10.94
354.197	-10.22
354.409	-4.45
354.621	-7.93
354.832	-2.25
355.044	-3.73
355.256	-4.01
355.468	-14.37
355.679	4.9
355.891	11.76
356.103	4.4
356.314	-9.99
356.526	-8.72
356.738	-21.06
356.949	-30.7
357.161	-24.5
357.373	-5.56
357.584	4.3
357.796	20.3
358.008	34.14
358.219	35.89
358.431	23.21
358.642	32.55
358.854	24.2
359.065	2.6
359.277	3.8
359.488	14.46
359.7	1.89
359.911	-12.23
360.123	9.75
360.334	6.06
360.546	-3.68
360.757	-0.74
360.969	9.94
361.18	-13.41
361.391	-0.41
361.603	7.49
361.814	13.88
362.025	11.41
362.237	12.08
362.448	12.06
362.659	9.65
362.871	-8.71
363.082	-12.9
363.293	5.81
363.504	-6.97
363.716	-4.36
363.927	16.19
364.138	-6.35
364.349	-27.24
364.56	-54.42
364.772	-47.38
364.983	-43.13
365.194	-19.68
365.405	-15.93
365.616	-3.56
365.827	-13.78
366.038	-10.86
366.25	6.34
366.461	8.46
366.672	10.36
366.883	10.01
367.094	-2.5
367.305	-32.78
367.516	-39.46
367.727	-38.54
367.938	-41.12
368.149	-45.22
368.36	-38.28
368.571	-63.66
368.781	-58.17
368.992	-49.37
369.203	-50.58
369.414	-52.79
369.625	-28.01
369.836	-2.92
370.047	-8.43
370.258	2.24
370.468	3.75
370.679	-5.27
370.89	-30.22
371.101	5.48
371.312	2.22
371.522	2.3
371.733	-3.18
371.944	-18.79
372.155	-31.14
372.365	-28.07
372.576	-34.12
372.787	-13.93
372.997	-2.92
373.208	-8.57
373.419	-19.94
373.629	-18.68
373.84	-27.95
374.05	-34.18
374.261	-56.58
374.472	-47
374.682	-26.94
374.893	-35.14
375.103	2.6
375.314	18.65
375.524	19.94
375.735	13.31
375.945	26.97
376.156	3.12
376.366	-5.7
376.577	-0.87
376.787	4.79
376.997	-0.95
377.208	3.9
377.418	7.74
377.629	7.88
377.839	4.37
378.049	8.97
378.26	1.98
378.47	-6.28
378.68	-4.43
378.89	-7.05
379.101	-6.66
379.311	-1.9
379.521	-1.5
379.732	3.92
379.942	-1.01
380.152	-10.13
380.362	-10.54
380.572	-2.11
380.783	0.31
380.993	6.71
381.203	6.8
381.413	18
381.623	20.23
381.833	14.93
382.043	9.23
382.253	15.63
382.463	10.97
382.674	15.04
382.884	16.31
383.094	20
383.304	17.02
383.514	14.03
383.724	3.83
383.934	-4.69
384.144	-5.95
384.353	-9.39
384.563	-10.24
384.773	-5.87
384.983	-5.68
385.193	-3.89
385.403	-3.45
385.613	1.22
385.823	-3.23
386.033	0.79
386.242	-3.26
386.452	-2.23
386.662	-9.39
386.872	-1.64
387.082	-5.75
387.291	-5.82
387.501	-5.18
387.711	0.37
387.921	-3.31
388.13	-1.88
388.34	-0.87
388.55	-4.17
388.759	-14.11
388.969	-15.01
389.179	-11.96
389.388	-14.88
389.598	-12.9
389.807	-11.17
390.017	-11.46
390.227	-12.71
390.436	-8.61
390.646	-6.99
390.855	-3.34
391.065	-3.44
391.274	-3.73
391.484	-3.44
391.693	-3.65
391.903	-4.95
392.112	-2.84
392.322	-2.78
392.531	-4.12
392.74	-3.5
392.95	-1.69
393.159	-2.73
393.369	-0.62
393.578	-0.93
393.787	-0.62
393.997	-0.61
394.206	-0.73
394.415	-1.17
394.625	-0.28
394.834	-1.95
395.043	-2.43
395.252	-0.01
395.462	0.22
395.671	0.84
395.88	2.23
396.089	1.7
396.298	0.65
396.508	0.75
396.717	0.03
396.926	-0.4
397.135	-0.03
397.344	-0.17
397.553	-0.12
397.762	1.78
397.971	2.13
398.181	2.58
398.39	2.66
398.599	2.7
398.808	1.81
399.017	2.59
399.226	2.86
399.435	2.75
399.644	2.94
399.853	2.81
400.062	2.38
400.27	1.73
400.479	1.97
400.688	1.77
400.897	1.51
401.106	1.48
401.315	1.64
401.524	1.75
401.733	1.49
401.941	1.97
402.15	1.51
402.359	1.79
402.568	1.9
402.777	2.14
402.985	1.77
403.194	2.01
403.403	2.1
403.612	1.87
403.82	1.55
404.029	1.56
404.238	1.67
404.446	1.76
404.655	1.87
404.864	2.23
405.072	2.36
405.281	2.29
405.489	2.12
405.698	2.19
405.906	2.19
406.115	2.24
406.324	2.29
406.532	2.55
406.741	2.48
406.949	2.52
407.158	2.51
407.366	2.34
407.574	2.24
407.783	2.29
407.991	2.17
408.2	2.37
408.408	2.5
408.617	2.39
408.825	2.22
409.033	2.23
409.242	2.18
409.45	2.18
409.658	2.14
409.867	2.16
410.075	2.15
410.283	2.02
410.491	1.95
410.7	1.83
410.908	1.99
411.116	2.13
411.324	2.1
411.533	2.02
411.741	2.08
411.949	2.05
412.157	1.81
412.365	1.86
412.573	1.96
412.781	2.02
412.99	1.95
413.198	2.11
413.406	2.16
413.614	2.25
413.822	2.28
414.03	2.23
414.238	2.17
414.446	2.14
414.654	1.96
414.862	1.86
415.07	1.85
415.278	2.03
415.486	1.82
415.694	1.91
415.902	1.88
416.109	1.75
416.317	1.63
416.525	1.78
416.733	1.8
416.941	2
417.149	2.08
417.357	1.93
417.564	1.96
417.772	1.9
417.98	1.75
418.188	1.67
418.395	1.5
418.603	1.42
418.811	1.46
419.019	1.45
419.226	1.56
419.434	1.75
419.642	1.55
419.849	1.47
420.057	1.41
420.265	1.36
420.472	1.37
420.68	1.59
420.887	1.71
421.095	1.87
421.302	1.89
421.51	1.86
421.717	1.93
421.925	1.95
422.132	1.94
422.34	1.83
422.547	1.83
422.755	1.73
422.962	1.65
423.17	1.45
423.377	1.58
423.585	1.72
423.792	1.68
423.999	1.74
424.207	1.72
424.414	1.68
424.621	1.64
424.829	1.76
425.036	1.67
425.243	1.77
425.451	1.8
425.658	1.74
425.865	1.79
426.072	1.87
426.28	1.96
426.487	1.9
426.694	1.85
426.901	1.81
427.108	1.74
427.315	1.72
427.523	1.7
427.73	1.77
427.937	1.68
428.144	1.58
428.351	1.48
428.558	1.57
428.765	1.43
428.972	1.47
429.179	1.56
429.386	1.72
429.593	1.7
429.8	1.72
430.007	1.77
430.214	1.71
430.421	1.79
430.628	1.84
430.835	1.92
431.042	1.88
431.249	1.97
431.456	1.83
431.662	1.85
431.869	1.98
432.076	2
432.283	2.05
432.49	2
432.697	2
432.903	1.94
433.11	2.01
433.317	2.03
433.524	2.12
433.73	1.94
433.937	1.99
434.144	1.79
434.35	1.64
434.557	1.74
434.764	1.91
434.97	1.86
435.177	2.08
435.384	2.27
435.59	2.21
435.797	2.24
436.003	2.28
436.21	2.09
436.416	2.08
436.623	2.07
436.829	1.96
437.036	1.9
437.242	2.05
437.449	1.92
437.655	2
437.862	2.14
438.068	2.09
438.275	2.22
438.481	2.35
438.687	2.27
438.894	2.34
439.1	2.36
439.307	2.37
439.513	2.36
439.719	2.42
439.926	2.36
440.132	2.43
440.338	2.35
440.544	2.36
440.751	2.28
440.957	2.29
441.163	2.19
441.369	2.23
441.575	2.17
441.782	2.26
441.988	2.28
442.194	2.39
442.4	2.26
442.606	2.41
442.812	2.41
443.018	2.4
443.224	2.46
443.431	2.61
443.637	2.45
443.843	2.45
444.049	2.56
444.255	2.56
444.461	2.5
444.667	2.54
444.873	2.56
445.079	2.41
445.284	2.39
445.49	2.34
445.696	2.3
445.902	2.23
446.108	2.36
446.314	2.33
446.52	2.38
446.726	2.41
446.931	2.47
447.137	2.42
447.343	2.59
447.549	2.62
447.755	2.66
447.96	2.68
448.166	2.72
448.372	2.63
448.578	2.57
448.783	2.64
448.989	2.65
449.195	2.64
449.4	2.69
449.606	2.73
449.812	2.6
450.017	2.74
450.223	2.64
450.428	2.57
450.634	2.65
450.84	2.67
451.045	2.58
451.251	2.67
451.456	2.72
451.662	2.77
451.867	2.83
452.073	2.84
452.278	2.85
452.483	2.83
452.689	2.78
452.894	2.81
453.1	2.73
453.305	2.73
453.51	2.78
453.716	2.76
453.921	2.83
454.127	2.83
454.332	2.81
454.537	2.72
454.742	2.7
454.948	2.63
455.153	2.61
455.358	2.6
455.563	2.77
455.769	2.74
455.974	2.75
456.179	2.74
456.384	2.75
456.589	2.63
456.795	2.65
457	2.65
457.205	2.71
457.41	2.71
457.615	2.71
457.82	2.83
458.025	2.81
458.23	2.81
458.435	2.86
458.64	2.84
458.845	2.78
459.05	2.85
459.255	2.88
459.46	2.84
459.665	2.88
459.87	2.92
460.075	3.03
460.28	3.08
460.485	3.16
460.69	3.21
460.895	3.19
461.099	2.98
461.304	2.88
461.509	2.85
461.714	2.86
461.919	2.79
462.123	2.81
462.328	2.81
462.533	2.7
462.738	2.64
462.942	2.66
463.147	2.63
463.352	2.72
463.556	2.85
463.761	2.9
463.966	2.99
464.17	3.13
464.375	3.16
464.58	3.1
464.784	3.06
464.989	2.94
465.193	2.9
465.398	2.9
465.602	3.13
465.807	3.17
466.011	3.26
466.216	3.17
466.42	3.21
466.625	3.18
466.829	3.21
467.034	3.26
467.238	3.37
467.443	3.33
467.647	3.26
467.851	3.3
468.056	3.41
468.26	3.47
468.464	3.46
468.669	3.45
468.873	3.45
469.077	3.32
469.282	3.31
469.486	3.34
469.69	3.43
469.894	3.46
470.099	3.43
470.303	3.39
470.507	3.43
470.711	3.34
470.915	3.36
471.119	3.43
471.324	3.5
471.528	3.57
471.732	3.65
471.936	3.63
472.14	3.66
472.344	3.78
472.548	3.73
472.752	3.71
472.956	3.67
473.16	3.7
473.364	3.6
473.568	3.57
473.772	3.48
473.976	3.58
474.18	3.59
474.384	3.58
474.588	3.67
474.792	3.71
474.995	3.67
475.199	3.61
475.403	3.68
475.607	3.7
475.811	3.78
476.015	3.79
476.218	3.84
476.422	3.85
476.626	3.77
476.83	3.9
477.033	3.99
477.237	4
477.441	3.97
477.644	4.02
477.848	3.94
478.052	3.88
478.255	3.91
478.459	3.93
478.663	4.07
478.866	4.12
479.07	4.06
479.273	4.03
479.477	4.1
479.681	4.07
479.884	4.01
480.088	4.08
480.291	4.1
480.495	4.07
480.698	4.01
480.901	4.03
481.105	4.09
481.308	4.11
481.512	4.14
481.715	4.29
481.919	4.36
482.122	4.36
482.325	4.4
482.529	4.4
482.732	4.31
482.935	4.25
483.138	4.21
483.342	4.2
483.545	4.31
483.748	4.4
483.952	4.52
484.155	4.59
484.358	4.6
484.561	4.47
484.764	4.38
484.967	4.33
485.171	4.31
485.374	4.27
485.577	4.37
485.78	4.39
485.983	4.32
486.186	4.28
486.389	4.33
486.592	4.29
486.795	4.35
486.998	4.33
487.201	4.46
487.404	4.66
487.607	4.68
487.81	4.61
488.013	4.72
488.216	4.63
488.419	4.49
488.622	4.43
488.825	4.46
489.028	4.42
489.231	4.43
489.433	4.36
489.636	4.39
489.839	4.42
490.042	4.49
490.245	4.52
490.447	4.57
490.65	4.55
490.853	4.51
491.056	4.44
491.258	4.46
491.461	4.42
491.664	4.43
491.866	4.39
492.069	4.42
492.272	4.32
492.474	4.39
492.677	4.43
492.879	4.47
493.082	4.54
493.285	4.65
493.487	4.63
493.69	4.6
493.892	4.64
494.095	4.6
494.297	4.64
494.5	4.64
494.702	4.65
494.905	4.59
495.107	4.55
495.309	4.56
495.512	4.6
495.714	4.68
495.917	4.82
496.119	4.9
496.321	4.78
496.524	4.72
496.726	4.63
496.928	4.49
497.13	4.47
497.333	4.49
497.535	4.55
497.737	4.61
497.939	4.69
498.142	4.71
498.344	4.79
498.546	4.79
498.748	4.85
498.95	4.89
499.152	4.89
499.355	4.83
499.557	4.85
499.759	4.86
499.961	4.82
500.163	4.86
500.365	4.97
500.567	5.02
500.769	4.99
500.971	5.03
501.173	4.97
501.375	5.06
501.577	5.03
501.779	5.01
501.981	5.04
502.183	5.06
502.385	4.96
502.587	4.96
502.788	5.03
502.99	5.01
503.192	5.07
503.394	5.08
503.596	5.05
503.798	4.99
503.999	5.02
504.201	5.05
504.403	5.05
504.605	5.13
504.806	5.23
505.008	5.24
505.21	5.26
505.411	5.31
505.613	5.33
505.815	5.33
506.016	5.43
506.218	5.44
506.42	5.4
506.621	5.47
506.823	5.44
507.024	5.36
507.226	5.38
507.427	5.46
507.629	5.41
507.83	5.46
508.032	5.46
508.233	5.42
508.435	5.37
508.636	5.4
508.838	5.37
509.039	5.39
509.24	5.46
509.442	5.5
509.643	5.46
509.845	5.45
510.046	5.47
510.247	5.48
510.448	5.48
510.65	5.56
510.851	5.61
511.052	5.65
511.254	5.71
511.455	5.71
511.656	5.62
511.857	5.62
512.058	5.64
512.26	5.57
512.461	5.54
512.662	5.59
512.863	5.49
513.064	5.45
513.265	5.46
513.466	5.56
513.667	5.61
513.868	5.67
514.069	5.71
514.27	5.74
514.471	5.63
514.672	5.6
514.873	5.68
515.074	5.71
515.275	5.72
515.476	5.81
515.677	5.87
515.878	5.86
516.079	5.86
516.28	5.88
516.481	5.88
516.682	5.83
516.882	5.83
517.083	5.83
517.284	5.86
517.485	5.83
517.686	5.86
517.886	5.85
518.087	5.83
518.288	5.8
518.488	5.84
518.689	5.83
518.89	5.82
519.091	5.91
519.291	5.93
519.492	5.9
519.692	5.95
519.893	6
520.094	5.91
520.294	5.93
520.495	5.91
520.695	5.9
520.896	5.89
521.096	5.97
521.297	5.94
521.497	5.96
521.698	5.99
521.898	5.98
522.099	5.95
522.299	5.94
522.499	6.01
522.7	6.04
522.9	6.04
523.101	6.03
523.301	6.08
523.501	6.09
523.702	6.08
523.902	6.12
524.102	6.23
524.302	6.25
524.503	6.28
524.703	6.31
524.903	6.3
525.103	6.22
525.304	6.24
525.504	6.24
525.704	6.23
525.904	6.22
526.104	6.22
526.304	6.19
526.504	6.17
526.705	6.15
526.905	6.12
527.105	6.16
527.305	6.14
527.505	6.13
527.705	6.12
527.905	6.22
528.105	6.24
528.305	6.29
528.505	6.35
528.705	6.45
528.905	6.44
529.105	6.47
529.304	6.48
529.504	6.43
529.704	6.39
529.904	6.38
530.104	6.34
530.304	6.36
530.503	6.43
530.703	6.4
530.903	6.4
531.103	6.49
531.303	6.46
531.502	6.49
531.702	6.54
531.902	6.62
532.101	6.6
532.301	6.68
532.501	6.76
532.7	6.78
532.9	6.75
533.1	6.77
533.299	6.75
533.499	6.64
533.698	6.6
533.898	6.62
534.097	6.61
534.297	6.61
534.496	6.61
534.696	6.67
534.895	6.67
535.095	6.7
535.294	6.72
535.494	6.71
535.693	6.74
535.892	6.74
536.092	6.76
536.291	6.8
536.491	6.88
536.69	6.84
536.889	6.83
537.088	6.8
537.288	6.77
537.487	6.78
537.686	6.83
537.886	6.9
538.085	6.96
538.284	7.01
538.483	6.97
538.682	6.99
538.882	6.97
539.081	7.02
539.28	7.01
539.479	7.03
539.678	7.05
539.877	7.09
540.076	7.02
540.275	7.03
540.474	7.07
540.673	7.13
540.872	7.11
541.071	7.19
541.27	7.26
541.469	7.28
541.668	7.27
541.867	7.35
542.066	7.4
542.265	7.41
542.464	7.39
542.663	7.43
542.862	7.46
543.06	7.49
543.259	7.58
543.458	7.66
543.657	7.68
543.856	7.73
544.054	7.76
544.253	7.75
544.452	7.81
544.651	7.85
544.849	7.84
545.048	7.84
545.247	7.9
545.445	7.92
545.644	7.93
545.843	7.93
546.041	7.96
546.24	7.95
546.438	8.01
546.637	8
546.836	8.09
547.034	8.14
547.233	8.22
547.431	8.24
547.63	8.31
547.828	8.27
548.027	8.29
548.225	8.31
548.423	8.36
548.622	8.42
548.82	8.5
549.019	8.58
549.217	8.63
549.415	8.61
549.614	8.74
549.812	8.77
550.01	8.75
550.209	8.8
550.407	8.91
550.605	8.82
550.803	8.94
551.002	9.05
551.2	9.07
551.398	9.13
551.596	9.25
551.794	9.26
551.993	9.28
552.191	9.41
552.389	9.47
552.587	9.52
552.785	9.55
552.983	9.64
553.181	9.61
553.379	9.65
553.577	9.7
553.775	9.82
553.973	9.86
554.171	9.93
554.369	9.99
554.567	10.05
554.765	10.07
554.963	10.12
555.161	10.19
555.359	10.27
555.557	10.38
555.755	10.49
555.952	10.59
556.15	10.67
556.348	10.72
556.546	10.78
556.744	10.85
556.941	10.88
557.139	10.95
557.337	11.05
557.535	11.09
557.732	11.16
557.93	11.31
558.128	11.4
558.325	11.48
558.523	11.64
558.721	11.68
558.918	11.71
559.116	11.8
559.313	11.85
559.511	11.94
559.708	12.07
559.906	12.18
560.104	12.25
560.301	12.39
560.498	12.42
560.696	12.37
560.893	12.42
561.091	12.54
561.288	12.67
561.486	12.72
561.683	12.89
561.88	13.06
562.078	13.08
562.275	13.12
562.473	13.21
562.67	13.3
562.867	13.34
563.064	13.43
563.262	13.47
563.459	13.61
563.656	13.68
563.853	13.72
564.051	13.95
564.248	14.04
564.445	14.12
564.642	14.18
564.839	14.31
565.036	14.34
565.234	14.49
565.431	14.59
565.628	14.71
565.825	14.77
566.022	14.78
566.219	14.84
566.416	14.9
566.613	15.03
566.81	15.14
567.007	15.25
567.204	15.29
567.401	15.38
567.598	15.54
567.795	15.57
567.991	15.65
568.188	15.73
568.385	15.75
568.582	15.77
568.779	15.87
568.976	15.98
569.172	16.06
569.369	16.11
569.566	16.11
569.763	16.23
569.96	16.32
570.156	16.39
570.353	16.48
570.55	16.51
570.746	16.54
570.943	16.55
571.14	16.58
571.336	16.57
571.533	16.64
571.729	16.7
571.926	16.79
572.123	16.88
572.319	17.04
572.516	17.07
572.712	17.06
572.909	17.01
573.105	16.98
573.302	16.93
573.498	16.98
573.695	17.04
573.891	17.1
574.087	17.12
574.284	17.21
574.48	17.29
574.677	17.28
574.873	17.28
575.069	17.37
575.266	17.43
575.462	17.39
575.658	17.51
575.854	17.6
576.051	17.64
576.247	17.57
576.443	17.6
576.639	17.49
576.835	17.43
577.032	17.39
577.228	17.48
577.424	17.48
577.62	17.55
577.816	17.64
578.012	17.7
578.208	17.69
578.404	17.76
578.6	17.8
578.796	17.79
578.993	17.77
579.189	17.82
579.384	17.8
579.58	17.72
579.776	17.73
579.972	17.74
580.168	17.74
580.364	17.79
580.56	17.82
580.756	17.77
580.952	17.77
581.148	17.74
581.343	17.66
581.539	17.76
581.735	17.79
581.931	17.8
582.127	17.86
582.322	17.93
582.518	17.91
582.714	17.95
582.909	17.91
583.105	17.9
583.301	17.84
583.496	17.77
583.692	17.68
583.888	17.76
584.083	17.69
584.279	17.66
584.474	17.63
584.67	17.63
584.866	17.52
585.061	17.54
585.257	17.63
585.452	17.68
585.648	17.64
585.843	17.75
586.039	17.75
586.234	17.81
586.429	17.8
586.625	17.98
586.82	18.01
587.015	18.02
587.211	18
587.406	18.06
587.601	18.06
587.797	18.02
587.992	17.98
588.187	17.96
588.383	17.9
588.578	17.89
588.773	17.95
588.968	18.07
589.163	18.13
589.359	18.15
589.554	18.08
589.749	18.14
589.944	18.19
590.139	18.18
590.334	18.31
590.529	18.42
590.724	18.5
590.919	18.49
591.114	18.5
591.309	18.44
591.504	18.47
591.699	18.39
591.894	18.4
592.089	18.45
592.284	18.5
592.479	18.51
592.674	18.57
592.869	18.57
593.064	18.71
593.259	18.73
593.454	18.71
593.648	18.78
593.843	18.85
594.038	18.9
594.233	18.96
594.428	19.08
594.622	19.09
594.817	19.26
595.012	19.21
595.206	19.32
595.401	19.47
595.596	19.48
595.79	19.52
595.985	19.6
596.18	19.61
596.374	19.69
596.569	19.82
596.763	19.87
596.958	19.96
597.153	20.01
597.347	19.99
597.542	20.06
597.736	20.03
597.931	20.08
598.125	20.3
598.319	20.41
598.514	20.49
598.708	20.66
598.903	20.79
599.097	20.71
599.291	20.74
599.486	20.84
599.68	20.88
599.874	20.88
600.069	20.88
600.263	20.94
600.457	20.95
600.651	20.96
600.846	21.03
601.04	21.2
601.234	21.22
601.428	21.25
601.622	21.33
601.817	21.35
602.011	21.25
602.205	21.31
602.399	21.27
602.593	21.33
602.787	21.34
602.981	21.41
603.175	21.48
603.369	21.48
603.563	21.48
603.757	21.48
603.951	21.57
604.145	21.58
604.339	21.73
604.533	21.64
604.727	21.64
604.921	21.61
605.115	21.54
605.309	21.45
605.502	21.57
605.696	21.56
605.89	21.53
606.084	21.6
606.278	21.66
606.471	21.52
606.665	21.46
606.859	21.27
607.053	21.09
607.246	20.98
607.44	20.95
607.634	20.97
607.827	20.99
608.021	20.92
608.214	20.85
608.408	20.85
608.602	20.75
608.795	20.83
608.989	20.9
609.182	20.85
609.376	20.84
609.569	20.82
609.763	20.69
609.956	20.63
610.15	20.52
610.343	20.43
610.537	20.37
610.73	20.22
610.923	20.09
611.117	20.19
611.31	20.11
611.504	20.11
611.697	20.17
611.89	20.15
612.083	20.02
612.277	20.04
612.47	19.87
612.663	19.85
612.856	19.73
613.05	19.62
613.243	19.42
613.436	19.47
613.629	19.32
613.822	19.29
614.015	19.22
614.209	19.18
614.402	19.06
614.595	19.13
614.788	19.16
614.981	19.15
615.174	19.11
615.367	19.03
615.56	18.79
615.753	18.77
615.946	18.74
616.139	18.74
616.332	18.77
616.525	18.87
616.718	18.7
616.911	18.7
617.103	18.68
617.296	18.65
617.489	18.47
617.682	18.59
617.875	18.47
618.067	18.37
618.26	18.31
618.453	18.3
618.646	18.17
618.838	18.22
619.031	18.25
619.224	18.21
619.417	18.26
619.609	18.23
619.802	18.16
619.994	18.16
620.187	18.1
620.38	18.05
620.572	18.02
620.765	17.97
620.957	17.9
621.15	17.9
621.342	17.87
621.535	17.84
621.727	17.84
621.92	17.76
622.112	17.8
622.305	17.83
622.497	17.8
622.69	17.72
622.882	17.81
623.074	17.82
623.267	17.77
623.459	17.74
623.651	17.72
623.844	17.64
624.036	17.54
624.228	17.53
624.42	17.5
624.613	17.56
624.805	17.57
624.997	17.57
625.189	17.54
625.381	17.48
625.574	17.38
625.766	17.34
625.958	17.32
626.15	17.31
626.342	17.28
626.534	17.27
626.726	17.24
626.918	17.23
627.11	17.22
627.302	17.2
627.494	17.19
627.686	17.22
627.878	17.04
628.07	16.98
628.262	17.02
628.454	16.91
628.646	16.81
628.838	16.9
629.029	16.81
629.221	16.7
629.413	16.76
629.605	16.73
629.797	16.69
629.989	16.7
630.18	16.77
630.372	16.7
630.564	16.71
630.755	16.66
630.947	16.64
631.139	16.5
631.33	16.43
631.522	16.4
631.714	16.38
631.905	16.32
632.097	16.28
632.289	16.35
632.48	16.22
632.672	16.26
632.863	16.22
633.055	16.27
633.246	16.22
633.438	16.27
633.629	16.14
633.821	16.12
634.012	16.12
634.203	16.13
634.395	16.11
634.586	16.18
634.777	16.18
634.969	16.12
635.16	16
635.351	15.94
635.543	15.82
635.734	15.84
635.925	15.89
636.117	16.01
636.308	16.06
636.499	16.05
636.69	16.02
636.881	15.95
637.073	15.89
637.264	15.86
637.455	15.9
637.646	15.84
637.837	15.83
638.028	15.79
638.219	15.78
638.41	15.76
638.601	15.83
638.792	15.85
638.983	15.82
639.174	15.73
639.365	15.78
639.556	15.62
639.747	15.62
639.938	15.65
640.129	15.72
640.32	15.63
640.511	15.67
640.701	15.63
640.892	15.51
641.083	15.42
641.274	15.39
641.465	15.39
641.655	15.41
641.846	15.45
642.037	15.43
642.228	15.34
642.418	15.23
642.609	15.18
642.8	15.17
642.99	15.2
643.181	15.21
643.372	15.27
643.562	15.19
643.753	15.09
643.943	14.98
644.134	14.9
644.324	14.95
644.515	15
644.705	14.98
644.896	15.01
645.086	15.16
645.277	15.02
645.467	14.94
645.658	14.95
645.848	14.94
646.038	14.81
646.229	14.88
646.419	14.81
646.61	14.87
646.8	14.8
646.99	14.78
647.18	14.76
647.371	14.73
647.561	14.56
647.751	14.52
647.941	14.46
648.132	14.35
648.322	14.33
648.512	14.45
648.702	14.52
648.892	14.56
649.082	14.61
649.272	14.64
649.462	14.56
649.653	14.49
649.843	14.41
650.033	14.42
650.223	14.37
650.413	14.39
650.603	14.4
650.793	14.44
650.983	14.37
651.172	14.34
651.362	14.23
651.552	14.19
651.742	14.12
651.932	14.05
652.122	14.11
652.312	14.1
652.502	13.86
652.691	13.86
652.881	13.82
653.071	13.66
653.261	13.58
653.45	13.68
653.64	13.57
653.83	13.5
654.019	13.47
654.209	13.43
654.399	13.4
654.588	13.29
654.778	13.18
654.968	13.13
655.157	13.02
655.347	12.78
655.536	12.72
655.726	12.55
655.915	12.39
656.105	12.27
656.294	12.24
656.484	12.02
656.673	11.96
656.863	11.9
657.052	11.75
657.241	11.65
657.431	11.65
657.62	11.59
657.809	11.34
657.999	11.26
658.188	11.1
658.377	10.88
658.567	10.74
658.756	10.68
658.945	10.57
659.134	10.45
659.324	10.41
659.513	10.28
659.702	10.13
659.891	9.99
660.08	9.92
660.269	9.77
660.458	9.67
660.648	9.54
660.837	9.43
661.026	9.19
661.215	9.08
661.404	8.84
661.593	8.77
661.782	8.6
661.971	8.46
662.16	8.33
662.349	8.24
662.538	8.09
662.726	7.99
662.915	7.99
663.104	7.89
663.293	7.88
663.482	7.81
663.671	7.72
663.86	7.64
664.048	7.6
664.237	7.52
664.426	7.41
664.615	7.36
664.803	7.22
664.992	7.11
665.181	7.09
665.369	6.98
665.558	6.93
665.747	7
665.935	6.98
666.124	6.93
666.312	6.95
666.501	6.89
666.69	6.78
666.878	6.77
667.067	6.64
667.255	6.57
667.444	6.62
667.632	6.64
667.82	6.55
668.009	6.6
668.197	6.64
668.386	6.49
668.574	6.44
668.762	6.39
668.951	6.34
669.139	6.32
669.327	6.37
669.516	6.38
669.704	6.4
669.892	6.43
670.08	6.47
670.269	6.51
670.457	6.44
670.645	6.41
670.833	6.44
671.021	6.5
671.21	6.51
671.398	6.54
671.586	6.61
671.774	6.69
671.962	6.66
672.15	6.69
672.338	6.81
672.526	6.94
672.714	6.9
672.902	6.93
673.09	6.98
673.278	7.05
673.466	7.08
673.654	7.19
673.842	7.32
674.03	7.39
674.218	7.38
674.405	7.39
674.593	7.36
674.781	7.33
674.969	7.51
675.157	7.58
675.344	7.63
675.532	7.72
675.72	7.77
675.908	7.59
676.095	7.64
676.283	7.79
676.471	7.83
676.658	8.02
676.846	8.15
677.033	8.15
677.221	8.07
677.409	8.15
677.596	8.17
677.784	8.3
677.971	8.44
678.159	8.7
678.346	8.85
678.534	8.93
678.721	9.03
678.909	9.1
679.096	8.97
679.283	9.01
679.471	9.09
679.658	9.2
679.846	9.28
680.033	9.5
680.22	9.64
680.408	9.63
680.595	9.56
680.782	9.7
680.969	9.91
681.157	10.01
681.344	10.15
681.531	10.42
681.718	10.57
681.905	10.59
682.093	10.69
682.28	10.88
682.467	11.01
682.654	11.09
682.841	11.28
683.028	11.29
683.215	11.57
683.402	11.56
683.589	11.8
683.776	11.97
683.963	12.42
684.15	12.59
684.337	12.89
684.524	13.07
684.711	13.33
684.898	13.27
685.085	13.39
685.271	13.74
685.458	13.88
685.645	13.93
685.832	14.4
686.019	14.68
686.205	14.88
686.392	15.44
686.579	15.95
686.766	16.21
686.952	16.6
687.139	17.01
687.326	17.24
687.512	17.48
687.699	18
687.886	18.32
688.072	18.57
688.259	19.02
688.445	19.47
688.632	19.69
688.818	20.23
689.005	20.63
689.191	21.07
689.378	21.69
689.564	22.27
689.751	22.71
689.937	23.34
690.124	23.88
690.31	24.08
690.496	24.67
690.683	25.33
690.869	25.86
691.055	26.5
691.242	27.14
691.428	27.53
691.614	27.97
691.8	28.59
691.987	29.14
692.173	29.87
692.359	30.7
692.545	31.37
692.731	31.93
692.918	32.39
693.104	32.89
693.29	33.25
693.476	33.96
693.662	35.06
693.848	36.03
694.034	36.79
694.22	37.47
694.406	38.03
694.592	38.36
694.778	38.69
694.964	39.35
695.15	40.18
695.336	40.81
695.522	41.34
695.708	42.15
695.894	42.86
696.08	43.5
696.265	44.12
696.451	44.79
696.637	45.21
696.823	45.63
697.009	46.07
697.194	46.81
697.38	47.35
697.566	48.09
697.751	48.94
697.937	49.78
698.123	50.19
698.308	50.56
698.494	51.33
698.68	51.66
698.865	52.04
699.051	52.55
699.236	53.17
699.422	53.35
699.607	54.12
699.793	54.74
699.978	55.29
700.164	55.72
700.349	56.3
700.535	56.44
700.72	56.66
700.906	56.99
701.091	57.66
701.276	58.02
701.462	58.21
701.647	58.57
701.832	58.98
702.018	59.38
702.203	59.84
702.388	60.38
702.573	60.76
702.759	61.75
702.944	61.7
703.129	61.97
703.314	62.23
703.499	62.89
703.684	62.94
703.87	63.76
704.055	64.38
704.24	65.12
704.425	65.06
704.61	65.36
704.795	65.49
704.98	65.26
705.165	65.08
705.35	65.68
705.535	65.65
705.72	65.88
705.905	66.24
706.09	66.92
706.275	67.04
706.459	67.21
706.644	67.3
706.829	67.93
707.014	67.92
707.199	68.33
707.384	68.52
707.568	68.94
707.753	69.02
707.938	69.57
708.123	69.69
708.307	70.01
708.492	70.08
708.677	70.26
708.861	70.13
709.046	69.95
709.231	69.97
709.415	70.18
709.6	70.39
709.784	70.94
709.969	71.57
710.153	71.82
710.338	72.1
710.522	71.82
710.707	71.84
710.891	71.7
711.076	71.91
711.26	72.19
711.445	72.74
711.629	72.9
711.813	73.23
711.998	73.69
712.182	73.6
712.366	73.63
712.551	73.8
712.735	73.65
712.919	73.61
713.103	73.91
713.288	74.13
713.472	73.98
713.656	74.48
713.84	74.52
714.024	74.7
714.208	74.67
714.393	75.06
714.577	75.21
714.761	75.44
714.945	75.41
715.129	75.81
715.313	75.71
715.497	75.23
715.681	75
715.865	74.53
716.049	74.4
716.233	74.36
716.417	74.85
716.601	75.45
716.785	76.17
716.968	76.09
717.152	76.26
717.336	76.33
717.52	76.07
717.704	76.18
717.888	76.85
718.071	76.89
718.255	76.98
718.439	77.13
718.622	76.97
718.806	76.7
718.99	76.75
719.174	77.15
719.357	77.18
719.541	77.57
719.724	77.4
719.908	77.47
720.092	76.64
720.275	76.49
720.459	76.63
720.642	76.71
720.826	76.62
721.009	77.05
721.193	77.11
721.376	76.81
721.559	77.19
721.743	77.49
721.926	77.82
722.11	77.96
722.293	78.55
722.476	77.99
722.66	78.1
722.843	78.49
723.026	78.84
723.21	78.54
723.393	79.4
723.576	79.41
723.759	78.9
723.942	78.93
724.126	79.36
724.309	78.99
724.492	79.14
724.675	79.21
724.858	79.49
725.041	79.13
725.224	79.76
725.407	79.95
725.59	79.85
725.774	79.42
725.957	79.49
726.14	79.21
726.322	79.37
726.505	79.58
726.688	80.01
726.871	80.13
727.054	80.47
727.237	80.5
727.42	80.86
727.603	80.71
727.786	80.63
727.968	80.33
728.151	80.1
728.334	80.24
728.517	80.57
728.699	80.87
728.882	80.56
729.065	80.38
729.248	80.02
729.43	80.21
729.613	79.74
729.796	80.12
729.978	80.32
730.161	81.02
730.343	80.98
730.526	81.39
730.708	81.64
730.891	81.85
731.073	81.43
731.256	81.58
731.438	82.08
731.621	82.17
731.803	82.32
731.986	82.81
732.168	82.59
732.35	82.8
732.533	82.99
732.715	83.53
732.898	83.41
733.08	83.5
733.262	82.85
733.444	83.53
733.627	83.22
733.809	83.28
733.991	83.04
734.173	83.17
734.355	82.42
734.538	82.97
734.72	82.81
734.902	83.62
735.084	84
735.266	84.73
735.448	84.41
735.63	84.52
735.812	84.29
735.994	84.93
736.176	84.9
736.358	84.75
736.54	85.3
736.722	84.82
736.904	84.28
737.086	83.64
737.268	84.33
737.45	84.64
737.632	85.28
737.814	85.4
737.995	85.58
738.177	85.43
738.359	85.41
738.541	85.68
738.723	85.9
738.904	86
739.086	85.99
739.268	85.43
739.449	84.62
739.631	84.32
739.813	83.93
739.994	82.93
740.176	82.95
740.358	83.3
740.539	83.44
740.721	84.71
740.902	85.67
741.084	86.43
741.265	86.68
741.447	87.2
741.628	86.42
741.81	86.67
741.991	86.51
742.172	86.37
742.354	85.94
742.535	85.85
742.717	85.02
742.898	84.86
743.079	85.48
743.261	85.26
743.442	84.9
743.623	85.16
743.804	85
743.986	84.92
744.167	84.84
744.348	83.58
744.529	83.88
744.71	84.61
744.891	84.01
745.073	84.49
745.254	85.8
745.435	85.86
745.616	85.23
745.797	84.91
745.978	84.38
746.159	84.64
746.34	84.77
746.521	84.85
746.702	86.03
746.883	86.19
747.064	86.05
747.245	85.88
747.426	85.51
747.606	84.51
747.787	85.83
747.968	86.29
748.149	85.85
748.33	84.71
748.51	84.08
748.691	83.56
748.872	83.96
749.053	83.38
749.233	84.57
749.414	85.55
749.595	85.26
749.775	84.21
749.956	85.38
750.137	85.16
750.317	84.21
750.498	84.16
750.678	85.01
750.859	85.32
751.04	84.99
751.22	84.88
751.4	84.85
751.581	84.95
751.761	84.88
751.942	85.78
752.122	86.5
752.303	86.42
752.483	84.8
752.663	84.13
752.844	83.8
753.024	84.83
753.204	84.52
753.385	86.73
753.565	87.68
753.745	86.62
753.925	85.1
754.106	86.05
754.286	84.73
754.466	83.38
754.646	84.65
754.826	86.53
755.006	84.5
755.187	85.39
755.367	84.83
755.547	84.28
755.727	83.2
755.907	83.68
756.087	82.52
756.267	82.14
756.447	82.69
756.627	83.19
756.807	84.51
756.987	84.32
757.167	86.18
757.346	85.33
757.526	85.05
757.706	83.95
757.886	84.59
758.066	85.62
758.246	84.84
758.425	83.96
758.605	84.02
758.785	82.51
758.965	81.03
759.144	81.2
759.324	81.67
759.504	81.45
759.683	80.83
759.863	81.11
760.043	80.78
760.222	80.48
760.402	80.31
760.581	82.13
760.761	81.92
760.94	83.29
761.12	83.16
761.299	84.57
761.479	84.97
761.658	84.42
761.838	83.79
762.017	84.68
762.197	83.09
762.376	81.61
762.555	81.46
762.735	81.43
762.914	80.5
763.093	79.84
763.273	80.14
763.452	79.83
763.631	78.55
763.81	78.73
763.99	79.56
764.169	80.7
764.348	80.76
764.527	82.19
764.706	81.25
764.885	82.49
765.064	82.89
765.243	82.98
765.423	83.74
765.602	84.47
765.781	82.29
765.96	80.97
766.139	80.71
766.318	80.64
766.497	79.99
766.676	80.32
766.854	81.65
767.033	82.71
767.212	82.27
767.391	83.49
767.57	84.48
767.749	83.82
767.928	80.51
768.106	79.23
768.285	78.66
768.464	78.87
768.643	77.3
768.821	79.56
769	79.29
769.179	79.26
769.357	78.99
769.536	78.93
769.715	78.43
769.893	79.3
770.072	79.22
770.25	77.77
770.429	78.11
770.607	80.83
770.786	80.89
770.964	81.15
771.143	82.7
771.321	82
771.5	80.32
771.678	79.63
771.857	79.44
772.035	78.84
772.213	79.79
772.392	78.23
772.57	77.85
772.748	76.66
772.927	75.99
773.105	76.89
773.283	78.2
773.461	79.45
773.64	80.38
773.818	82.02
773.996	82.44
774.174	82.39
774.352	81.19
774.531	82.22
774.709	79.71
774.887	77.22
775.065	76.01
775.243	77.01
775.421	74.03
775.599	75.09
775.777	74.4
775.955	73.57
776.133	72.27
776.311	73.38
776.489	73.57
776.667	74.06
776.844	75.82
777.022	76.86
777.2	77.25
777.378	75.98
777.556	76.4
777.734	77.78
777.911	76.97
778.089	77.67
778.267	79.23
778.445	81.26
778.622	78.88
778.8	75.58
778.978	76.25
779.155	76.06
779.333	76
779.511	76.98
779.688	81.61
779.866	79.05
780.043	78.1
780.221	78.18
780.398	77.83
780.576	77.6
780.753	78.12
780.931	78.56
781.108	77.52
781.286	77.95
781.463	74.4
781.64	76.44
781.818	77.07
781.995	76.75
782.172	75.13
782.35	76.2
782.527	75.61
782.704	73.61
782.882	70.69
783.059	68.05
783.236	71.11
783.413	71.92
783.59	74.31
783.768	77.53
783.945	82
784.122	78.02
784.299	77.29
784.476	73.93
784.653	74.19
784.83	71.56
785.007	73.1
785.184	70.49
785.361	73.28
785.538	71.75
785.715	74.4
785.892	74.92
786.069	79.12
786.246	78.78
786.423	78.98
786.6	79.59
786.776	82.36
786.953	77.39
787.13	79.07
787.307	78.15
787.484	76.12
787.66	71.04
787.837	71.14
788.014	70.57
788.191	68.94
788.367	69.84
788.544	71.3
788.721	72.51
788.897	71.78
789.074	74.28
789.25	72.19
789.427	71.26
789.603	67.48
789.78	67.25
789.956	66.4
790.133	64.73
790.309	67.95
790.486	72.53
790.662	73.9
790.839	74.49
791.015	79.89
791.192	76.4
791.368	76.58
791.544	72.99
791.721	68.94
791.897	64.47
792.073	64.16
792.249	62.41
792.426	64.68
792.602	68.52
792.778	67.51
792.954	69.93
793.13	69.89
793.307	68.17
793.483	67.37
793.659	69.5
793.835	71.48
794.011	71.66
794.187	71.53
794.363	74.16
794.539	74.1
794.715	73.27
794.891	69.48
795.067	72.24
795.243	71.07
795.419	70.72
795.595	72.43
795.771	75.26
795.947	71.85
796.122	67.7
796.298	66.57
796.474	67.76
796.65	68.54
796.826	70.85
797.001	74.8
797.177	70.14
797.353	70.1
797.529	71.92
797.704	70.12
797.88	71.04
798.056	76.43
798.231	71.62
798.407	70.93
798.582	67.8
798.758	72.77
798.934	71.51
799.109	70.44
799.285	69.28
799.46	72.21
799.636	63.44
799.811	68.15
799.986	70.73
800.162	69.31
800.337	74.15
800.513	75.36
800.688	66.42
800.863	67.35
801.039	72.48
801.214	65.08
801.389	64.23
801.565	70.49
801.74	62.22
801.915	53.02
802.09	54.1
802.265	54.99
802.441	52.43
802.616	59.41
802.791	65.24
802.966	69.68
803.141	70.33
803.316	70.94
803.491	70.35
803.666	71.06
803.841	66.07
804.016	61.18
804.191	64
804.366	63.78
804.541	63.68
804.716	59.8
804.891	63.74
805.066	59.11
805.241	53.65
805.416	55.95
805.591	62.39
805.765	69.82
805.94	70.31
806.115	67.94
806.29	60.19
806.464	62.6
806.639	57
806.814	62.97
806.989	67.46
807.163	72.26
807.338	71.82
807.512	70.31
807.687	61.95
807.862	61.97
808.036	70.71
808.211	71.48
808.385	74.23
808.56	75.75
808.734	72.46
808.909	67.11
809.083	68.02
809.258	63.81
809.432	62.72
809.606	60.05
809.781	60.4
809.955	55.11
810.13	55.34
810.304	61.19
810.478	61.35
810.652	58.14
810.827	67.24
811.001	65.21
811.175	62.8
811.349	67.49
811.524	70.27
811.698	61.81
811.872	68.31
812.046	68.24
812.22	68.76
812.394	64.5
812.568	63.16
812.742	53.46
812.916	55.66
813.09	50.08
813.264	47.63
813.438	49.77
813.612	57.64
813.786	53.89
813.96	61.53
814.134	69.75
814.308	74.06
814.482	67.51
814.656	66.28
814.83	56.39
815.003	53.02
815.177	51.37
815.351	62.92
815.525	73.48
815.698	70.33
815.872	68.31
816.046	62.63
816.219	59.5
816.393	43.88
816.567	46.35
816.74	48.11
816.914	50.06
817.088	46.08
817.261	51.93
817.435	58.94
817.608	47.97
817.782	37.64
817.955	45.96
818.129	44.06
818.302	41.67
818.475	55.16
818.649	60.39
818.822	47.89
818.996	67.49
819.169	65.38
819.342	64.59
819.516	72.67
819.689	75.51
819.862	64.92
820.035	68.22
820.209	64.84
820.382	46.53
820.555	40.58
820.728	36.78
820.901	35.97
821.075	35.58
821.248	53.78
821.421	61.17
821.594	50.93
821.767	52.91
821.94	49.48
822.113	47.75
822.286	49.1
822.459	63.16
822.632	63.06
822.805	52.09
822.978	61.25
823.151	54.91
823.324	42.15
823.496	33.87
823.669	46
823.842	37.16
824.015	40.87
824.188	40.85
824.361	44.85
824.533	47.52
824.706	48.43
824.879	49.15
825.051	60.32
825.224	61.69
825.397	56.74
825.569	56.78
825.742	58.19
825.915	52.02
826.087	44.22
826.26	44.43
826.432	36.74
826.605	40.55
826.777	51.99
826.95	46.59
827.122	37.45
827.295	44.2
827.467	32.61
827.64	8.22
827.812	29.71
827.984	45.03
828.157	32.77
828.329	44.47
828.501	36.22
828.674	46.02
828.846	38.56
829.018	39.35
829.19	37.54
829.363	34.87
829.535	27.64
829.707	39.4
829.879	39.99
830.051	34.31
830.223	53.06
830.395	38.36
830.568	29.79
830.74	34.52
830.912	36.69
831.084	37.34
831.256	46.3
831.428	55.32
831.6	38.92
831.772	34.49
831.943	26.03
832.115	20.23
832.287	27.52
832.459	46.6
832.631	58.38
832.803	63.83
832.975	58.57
833.146	46.2
833.318	43.52
833.49	36.95
833.662	33.72
833.833	37.73
834.005	47.54
834.177	62.29
834.348	54.35
834.52	50.6
834.692	43.52
834.863	31.14
835.035	20.5
835.206	25.12
835.378	31.67
835.549	34.58
835.721	34.73
835.892	37.15
836.064	35.14
836.235	23.69
836.407	25.66
836.578	42.81
836.749	35.07
836.921	43.8
837.092	40.23
837.264	34.82
837.435	19.99
837.606	22.39
837.777	37.55
837.949	46.76
838.12	55.08
838.291	60.08
838.462	69.74
838.633	64.52
838.805	44.06
838.976	34.06
839.147	35.15
839.318	31.57
839.489	7.79
839.66	32.29
839.831	32.94
840.002	26.01
840.173	20.15
840.344	31.64
840.515	21.23
840.686	19.42
840.857	29.91
841.028	26.45
841.199	26.17
841.369	48.39
841.54	64.49
841.711	66.7
841.882	76.97
842.053	48.14
842.223	20.99
842.394	3.3
842.565	-4.29
842.736	5.81
842.906	-3.79
843.077	-0.92
843.248	31.95
843.418	32.78
843.589	27.57
843.759	47.77
843.93	68.51
844.101	49.27
844.271	66.43
844.442	59.98
844.612	57.65
844.783	52.37
844.953	52.47
845.123	45.17
845.294	39.52
845.464	22.97
845.635	6.58
845.805	1.28
845.975	-1.1
846.146	15.74
846.316	34.19
846.486	44.39
846.656	37.73
846.827	36.3
846.997	30.41
847.167	24.67
847.337	16.12
847.507	30.34
847.677	26.31
847.848	43.28
848.018	52.58
848.188	58.52
848.358	37.92
848.528	50.13
848.698	20.84
848.868	18.23
849.038	12.78
849.208	28.68
849.378	35.53
849.548	24.69
849.718	19.4
849.887	38.52
850.057	18.24
850.227	2.21
850.397	26.86
850.567	12.66
850.737	21.47
850.906	21.94
851.076	20.1
851.246	33.27
851.415	21.93
851.585	1.34
851.755	33.56
851.924	39.93
852.094	41.15
852.264	44.45
852.433	23.26
852.603	-14.03
852.772	3.08
852.942	29.24
853.111	24
853.281	28.74
853.45	16.52
853.62	-10.48
853.789	-53.48
853.959	-25.69
854.128	0.69
854.297	12.46
854.467	22.71
854.636	33.36
854.805	31.61
854.975	8.2
855.144	5.25
855.313	6.76
855.482	1.18
855.652	-1.53
855.821	11.65
855.99	25.65
856.159	14.9
856.328	44.38
856.497	38.23
856.667	41.66
856.836	41.79
857.005	44.98
857.174	25.09
857.343	-2.5
857.512	30.86
857.681	6.94
857.85	-10.51
858.019	-28.85
858.188	-12.2
858.356	-47.56
858.525	-11.52
858.694	-13.59
858.863	-0.37
859.032	3.21
859.201	-37.1
859.369	-26.03
859.538	11.9
859.707	-9.12
859.876	1.95
860.044	39.25
860.213	47.8
860.382	40.54
860.55	45.2
860.719	66.05
860.888	72.39
861.056	36.66
861.225	37.33
861.393	30.77
861.562	-11.7
861.73	-24.74
861.899	-20.12
862.067	-22.7
862.236	-21.2
862.404	12.4
862.572	0.43
862.741	-14.38
862.909	-24.75
863.078	25.62
863.246	9.68
863.414	33.99
863.582	34.72
863.751	54.24
863.919	25.3
864.087	35.95
864.255	-1.5
864.424	-5.79
864.592	11.45
864.76	8.55
864.928	-7.16
865.096	-13.62
865.264	-19.42
865.432	-41.25
865.6	-54.5
865.768	-116.16
865.936	-73.16
866.104	-47.63
866.272	-97.03
866.44	-42.04
866.608	20.7
866.776	17.41
866.944	37.85
867.112	37.02
867.28	14.19
867.448	6.47
867.615	13.08
867.783	0.52
867.951	0.97
868.119	38.4
868.286	59.26
868.454	27.91
868.622	-7.51
868.789	-20.98
868.957	-15.84
869.125	-23.48
869.292	-81.77
869.46	-25.63
869.627	-45.05
869.795	-71.17
869.963	-40.8
870.13	25.54
870.298	21.87
870.465	35.89
870.632	30.54
870.8	38.93
870.967	17.78
871.135	-2.66
871.302	-20.25
871.469	-13.8
871.637	-35.66
871.804	-18.82
871.971	-3.44
872.139	-10.27
872.306	-35.5
872.473	-81.83
872.64	-157.58
872.807	-203.43
872.975	-338.14
873.142	-55.45
873.309	-26.17
873.476	16.09
873.643	45.31
873.81	38.96
873.977	-21.18
874.144	9.49
874.311	-58.11
874.478	-78.02
874.645	-70.56
874.812	46.32
874.979	31.57
875.146	33.83
875.313	31.14
875.48	45.64
875.647	-1.16
875.813	-54.02
875.98	-51.78
876.147	-115.75
876.314	-64.71
876.481	-10.34
876.647	36.77
876.814	26.4
876.981	50.54
877.147	38.36
877.314	23.43
877.481	25.97
877.647	37.97
877.814	-0.29
877.98	-0.93
878.147	25.32
878.314	22.81
878.48	12.56
878.647	46.67
878.813	47.34
878.979	19.48
879.146	65.57
879.312	92.44
879.479	65.82
879.645	51.59
879.811	13.85
879.978	1.13
880.144	-4.74
880.31	-17.34
880.477	-12.97
880.643	1.44
880.809	-44.89
880.975	-93.02
881.142	-118.95
881.308	421.27
881.474	693.36
881.64	-128.35
881.806	-158.44
881.972	-95.18
882.138	-18.4
882.304	-4.77
882.47	-20.9
882.636	0.43
882.802	3.92
882.968	-1.51
883.134	1.48
883.3	-10.05
883.466	-23.28
883.632	0.11
883.798	-6.15
883.964	-17.7
884.129	-559.83
884.295	-39.83
884.461	-109.03
884.627	-32.97
884.793	-76.47
884.958	3.85
885.124	-25.98
885.29	-55.56
885.455	-133.37
885.621	-25.77
885.787	-52.71
885.952	-61.61
886.118	4.61
886.283	-1.24
886.449	-33.27
886.614	-29.65
886.78	-2.99
886.945	-48.02
887.111	-34.67
887.276	-2.96
887.442	-53.66
887.607	1.22
887.773	10.31
887.938	27.64
888.103	-2.63
888.269	36.02
888.434	28.27
888.599	18.17
888.764	17.4
888.93	21.41
889.095	-4.39
889.26	-40.86
889.425	-46.99
889.59	-107.48
889.756	-89.11
889.921	-67.45
890.086	-122.57
890.251	-53.93
890.416	-45.53
890.581	-32.62
890.746	10.31
890.911	35.56
891.076	23.16
891.241	36.78
891.406	10.12
891.571	13.85
891.736	-87.78
891.901	-18.52
892.065	-15.46
892.23	36.46
892.395	34
892.56	21.63
892.725	13.03
892.889	78.41
893.054	4.13
893.219	-54.32
893.384	-25.44
893.548	-58.03
893.713	-110.31
893.878	-170.26
