Data from Ofra_2a_PS_8HS23_Reflection_2.txt Node
Date: Tue Jul 20 09:56:53 EDT 2021
User: Adam
Spectrometer: FLMT01687
Trigger mode: 0
Integration Time (sec): 9.450000E-1
Scans to average: 3
Electric dark correction enabled: true
Nonlinearity correction enabled: false
Boxcar width: 3
XAxis mode: Wavelengths
Number of Pixels in Spectrum: 3648
>>>>>Begin Spectral Data<<<<<
179.494	1178.11
179.716	712.32
179.937	791.21
180.158	3260.94
180.38	-1376.74
180.601	-183.64
180.823	-10.41
181.044	158.17
181.265	100.96
181.486	148.13
181.708	2534.78
181.929	117.67
182.15	-168.18
182.372	155.6
182.593	165.07
182.814	63.47
183.035	162.81
183.257	42.01
183.478	64.77
183.699	94.6
183.92	100.67
184.141	97.95
184.363	82.64
184.584	58.34
184.805	66.81
185.026	73.45
185.247	40.82
185.468	30.26
185.689	25.72
185.91	25.62
186.132	22.87
186.353	13.67
186.574	14.05
186.795	-11.16
187.016	-13.58
187.237	-3.12
187.458	-11.5
187.679	-22.74
187.9	-11.63
188.121	-10.33
188.342	43.25
188.563	51.88
188.784	48.71
189.005	65.97
189.226	60.27
189.447	49.18
189.667	41.7
189.888	25.9
190.109	18.47
190.33	10.28
190.551	-6.17
190.772	-4.85
190.993	4.18
191.214	10.17
191.434	7.58
191.655	20.7
191.876	32.41
192.097	31.05
192.318	35.07
192.538	35.97
192.759	43.42
192.98	37.85
193.201	33.28
193.421	28.67
193.642	28.17
193.863	36.35
194.083	32.94
194.304	6.31
194.525	34.25
194.745	9.89
194.966	-4.49
195.187	11.39
195.407	1.67
195.628	10.41
195.848	9.65
196.069	1.14
196.29	13.75
196.51	18.43
196.731	20.52
196.951	42.1
197.172	43.25
197.392	48.54
197.613	34.76
197.833	41.26
198.054	36.31
198.274	15.14
198.495	-2.86
198.715	-20.05
198.936	-33.98
199.156	-20.49
199.377	-40.64
199.597	-31.04
199.817	-13.93
200.038	2.24
200.258	16.28
200.479	14.05
200.699	17.16
200.919	6.31
201.14	5.46
201.36	-9.62
201.58	-19.32
201.801	-25.43
202.021	-23.71
202.241	-22.6
202.461	2.55
202.682	2.81
202.902	16.17
203.122	28.39
203.342	31.39
203.563	26.4
203.783	22.32
204.003	17.44
204.223	25.98
204.443	25.39
204.663	16.59
204.884	9.4
205.104	19.48
205.324	35.44
205.544	31.66
205.764	18.23
205.984	19.05
206.204	15.11
206.424	26.78
206.644	25.04
206.864	17.07
207.084	38.01
207.304	35.32
207.525	27.55
207.745	38.87
207.964	44.66
208.184	25.96
208.404	15.8
208.624	-16.25
208.844	-24.57
209.064	-9.83
209.284	-3.76
209.504	-10.04
209.724	-21.11
209.944	-15.4
210.164	-0.98
210.384	17.67
210.604	-17.22
210.823	-35.12
211.043	-30.5
211.263	-18.28
211.483	-10.5
211.703	-5.87
211.922	-5.93
212.142	14.95
212.362	19.62
212.582	11.58
212.801	10.44
213.021	15.38
213.241	-0.32
213.461	-0.32
213.68	1.66
213.9	-3.14
214.12	-4.38
214.339	-2.67
214.559	9.44
214.779	20.39
214.998	19.01
215.218	16.11
215.438	29.8
215.657	30.89
215.877	33.76
216.096	22.24
216.316	16.27
216.535	17.25
216.755	-2.27
216.974	-8.36
217.194	-1.25
217.413	10.23
217.633	-2.36
217.852	-20.86
218.072	-32.17
218.291	11.89
218.511	-1.15
218.73	-8.84
218.95	-25.5
219.169	-25.46
219.389	-9.84
219.608	3.52
219.827	-11.32
220.047	23.75
220.266	22.42
220.485	32.96
220.705	31.01
220.924	32.53
221.143	21.37
221.363	18.4
221.582	-3.46
221.801	11.85
222.021	9.72
222.24	0.15
222.459	6.12
222.678	6.84
222.897	11.83
223.117	30.68
223.336	13.97
223.555	4.64
223.774	26.56
223.993	22.72
224.213	17.54
224.432	25.6
224.651	9.46
224.87	18.54
225.089	30.46
225.308	21.79
225.527	27.82
225.746	30.25
225.965	16.75
226.184	16.27
226.404	13.76
226.623	17.07
226.842	20.32
227.061	18.42
227.28	29.02
227.499	38.17
227.718	38.86
227.936	35.85
228.155	35.1
228.374	33.58
228.593	35.13
228.812	29.94
229.031	22.06
229.25	24.9
229.469	26.71
229.688	24.41
229.907	27.59
230.125	28.55
230.344	35.29
230.563	35.6
230.782	29.51
231.001	36.55
231.22	30.36
231.438	22.24
231.657	18.61
231.876	4.91
232.095	9.1
232.313	19.11
232.532	12.33
232.751	18.85
232.969	26.91
233.188	21.46
233.407	28.3
233.625	18.83
233.844	24.39
234.063	19.61
234.281	18.05
234.5	19.45
234.719	25.68
234.937	30.23
235.156	37
235.374	24.87
235.593	23.79
235.811	21.01
236.03	10.05
236.249	17.33
236.467	19.71
236.686	26.65
236.904	33.49
237.123	39.48
237.341	33.6
237.559	38.74
237.778	31.19
237.996	34.69
238.215	18.07
238.433	19.33
238.652	10.56
238.87	16.74
239.088	1.49
239.307	3.39
239.525	-12.4
239.743	-17.38
239.962	-18.93
240.18	4.04
240.398	6.61
240.617	30.94
240.835	26.01
241.053	41.19
241.271	52.36
241.49	35.55
241.708	10.36
241.926	-3.93
242.144	-20.45
242.363	-22.11
242.581	-25.45
242.799	-39.53
243.017	-21
243.235	-17.16
243.453	-9.64
243.672	-4.1
243.89	3.55
244.108	12.05
244.326	12.16
244.544	24.07
244.762	29.14
244.98	25.23
245.198	15.27
245.416	15.08
245.634	21.45
245.852	27.14
246.07	31.97
246.288	27.48
246.506	39.98
246.724	55.72
246.942	63.18
247.16	50.15
247.378	43.11
247.596	37.68
247.814	28.97
248.032	30.75
248.25	29.26
248.468	31.45
248.685	34.79
248.903	25.68
249.121	22.94
249.339	33.8
249.557	27.79
249.775	4.34
249.992	1.41
250.21	0.03
250.428	4.04
250.646	10.92
250.863	7.48
251.081	10.3
251.299	40.52
251.517	45.21
251.734	34.53
251.952	38.28
252.17	3.55
252.387	18.07
252.605	12.76
252.823	-4.45
253.04	-3.91
253.258	11
253.475	17.57
253.693	36.89
253.911	34.17
254.128	31.36
254.346	27.01
254.563	20.66
254.781	10.21
254.998	9.74
255.216	9.52
255.433	6.49
255.651	-4.23
255.868	4.15
256.086	5.8
256.303	15.31
256.521	7.23
256.738	4.75
256.956	3.92
257.173	16.43
257.39	13.77
257.608	16.11
257.825	15.51
258.043	18.34
258.26	19.13
258.477	17.89
258.695	17.17
258.912	27.65
259.129	20.02
259.346	26.56
259.564	20.83
259.781	20.64
259.998	20.95
260.216	22.46
260.433	14.81
260.65	24.43
260.867	1.28
261.084	10
261.302	-3.21
261.519	-11.18
261.736	-15.44
261.953	-26.73
262.17	-25.75
262.387	-16.04
262.604	-26.48
262.822	-21.55
263.039	-11.43
263.256	-8.78
263.473	-12.46
263.69	-18.98
263.907	-12.47
264.124	-9.73
264.341	-6.67
264.558	-1.38
264.775	4.98
264.992	13.59
265.209	27.51
265.426	23.27
265.643	18.37
265.86	23.53
266.077	24.28
266.294	22.17
266.51	25.67
266.727	11.54
266.944	-5.09
267.161	-7.02
267.378	-19.9
267.595	-33.5
267.812	-36.3
268.028	-23.28
268.245	-13.18
268.462	-1.7
268.679	16.47
268.896	15.48
269.112	28.17
269.329	32.74
269.546	18.6
269.763	18.74
269.979	16.27
270.196	9.11
270.413	12.18
270.629	6.19
270.846	8.21
271.063	13.98
271.279	14.36
271.496	9.7
271.712	16.34
271.929	18.23
272.146	22.4
272.362	10.73
272.579	2.91
272.795	-2.81
273.012	11.05
273.228	6
273.445	-0.22
273.661	-9.53
273.878	3.7
274.094	10.61
274.311	7.83
274.527	-2.59
274.744	0.34
274.96	2.82
275.177	18.88
275.393	8.18
275.609	4.2
275.826	3.7
276.042	22.09
276.259	21.51
276.475	15.72
276.691	14.85
276.908	21.85
277.124	22.15
277.34	25.38
277.557	20.43
277.773	17.82
277.989	29.38
278.205	18.76
278.422	18.94
278.638	29.3
278.854	35.79
279.07	26.44
279.286	19.46
279.503	8.22
279.719	18.18
279.935	3.73
280.151	0.11
280.367	-6.13
280.583	3.25
280.799	14.46
281.016	20.47
281.232	13.31
281.448	17.37
281.664	16.9
281.88	21.03
282.096	27.14
282.312	11.73
282.528	6.57
282.744	9.17
282.96	14.32
283.176	7.02
283.392	9.86
283.608	2.6
283.824	11.54
284.04	22.36
284.256	18.29
284.471	16.83
284.687	25.01
284.903	18.41
285.119	10.34
285.335	11.21
285.551	2.26
285.767	9.94
285.982	17.78
286.198	2
286.414	16.39
286.63	22.45
286.846	19.03
287.061	17.54
287.277	18.93
287.493	10.24
287.709	6.82
287.924	1.44
288.14	9.07
288.356	8.05
288.571	13.8
288.787	11.87
289.003	14.04
289.218	22.59
289.434	27.37
289.65	21.69
289.865	18.25
290.081	13.46
290.296	7.71
290.512	18.3
290.727	22.36
290.943	15.05
291.159	4.73
291.374	11.07
291.59	8.91
291.805	9.35
292.021	-14.71
292.236	-17.73
292.451	-19.47
292.667	-8.09
292.882	-5.85
293.098	-8.1
293.313	-8.41
293.529	5.56
293.744	10.9
293.959	9.81
294.175	7.76
294.39	6.7
294.605	14.98
294.821	14.98
295.036	24.41
295.251	17.59
295.467	13.39
295.682	14.29
295.897	7.4
296.112	10.03
296.328	12.49
296.543	-4.09
296.758	4.66
296.973	9.71
297.188	0.85
297.404	9.28
297.619	-2.68
297.834	-3.39
298.049	4.38
298.264	-7.85
298.479	-20.29
298.694	-5.52
298.909	-9.8
299.125	3.25
299.34	3.78
299.555	7.68
299.77	10.88
299.985	12.32
300.2	7.59
300.415	15.05
300.63	11.19
300.845	18.18
301.06	13.86
301.275	20.99
301.49	32.51
301.704	28.95
301.919	21.04
302.134	11.94
302.349	-6.99
302.564	-7.17
302.779	-15.09
302.994	-21.76
303.209	-26.94
303.423	-7.34
303.638	4.97
303.853	26.54
304.068	23.48
304.283	26
304.497	27.82
304.712	31.05
304.927	16.47
305.142	13.62
305.356	13.79
305.571	15.4
305.786	11.12
306	16.45
306.215	20.1
306.43	41.62
306.644	44.83
306.859	41.85
307.074	32.73
307.288	36.26
307.503	30.53
307.717	24
307.932	16.6
308.147	8.64
308.361	6.69
308.576	13.08
308.79	8.34
309.005	4.51
309.219	4.23
309.434	-4.51
309.648	-10.35
309.863	0.85
310.077	2.3
310.292	7.98
310.506	13.12
310.72	20.69
310.935	28.61
311.149	25.37
311.364	17.01
311.578	10.48
311.792	10.87
312.007	8.36
312.221	13.71
312.435	13.89
312.649	25.91
312.864	19
313.078	30.57
313.292	28.66
313.507	40.22
313.721	27.55
313.935	34.19
314.149	30.86
314.363	40.33
314.578	54.88
314.792	54.24
315.006	51.56
315.22	53.08
315.434	40.15
315.648	39.94
315.862	33.97
316.077	20.99
316.291	21.28
316.505	13.55
316.719	0.12
316.933	11.12
317.147	7.64
317.361	6.51
317.575	-0.25
317.789	7.03
318.003	13.85
318.217	28.8
318.431	21.2
318.645	25.35
318.859	9.71
319.073	4.98
319.287	11.96
319.5	8.89
319.714	3.55
319.928	12.33
320.142	11.46
320.356	32.44
320.57	38.48
320.784	31.51
320.997	35.58
321.211	30.29
321.425	16.54
321.639	22.77
321.853	9.04
322.066	8.16
322.28	8.64
322.494	1.39
322.707	0.5
322.921	10.16
323.135	-0.55
323.349	6.77
323.562	9.17
323.776	3.62
323.989	1.24
324.203	13.44
324.417	5.07
324.63	1.29
324.844	-1.97
325.057	5.32
325.271	7.93
325.485	13.28
325.698	3.69
325.912	11.88
326.125	21.44
326.339	21.54
326.552	21.08
326.766	26.75
326.979	32.66
327.193	32.44
327.406	31.11
327.619	21.67
327.833	20.74
328.046	5.33
328.26	6.18
328.473	-1.83
328.686	-8.23
328.9	-8.23
329.113	-7.34
329.326	-0.51
329.54	4.18
329.753	-6.35
329.966	0.1
330.179	19.59
330.393	20.88
330.606	29.7
330.819	35.72
331.032	38.91
331.246	45.99
331.459	42.62
331.672	34.85
331.885	30.42
332.098	28.45
332.311	10.82
332.525	18.22
332.738	15.78
332.951	18.83
333.164	13.01
333.377	-2.15
333.59	-5.02
333.803	9.55
334.016	-17.15
334.229	-5.82
334.442	-2.56
334.655	10.13
334.868	28.6
335.081	35.32
335.294	30.85
335.507	43.4
335.72	27.19
335.933	33.73
336.146	30.17
336.359	29.47
336.572	22.1
336.785	28.3
336.997	22.72
337.21	31.59
337.423	23.53
337.636	22.36
337.849	20.51
338.062	27.65
338.274	19.1
338.487	19.8
338.7	19.75
338.913	14.04
339.125	5.75
339.338	9.43
339.551	12.24
339.763	12.67
339.976	12.06
340.189	8.76
340.402	10.63
340.614	16.1
340.827	8.19
341.039	9.65
341.252	8.62
341.465	1.06
341.677	-0.24
341.89	-2.51
342.102	1.7
342.315	6.42
342.527	-2.96
342.74	0.4
342.952	7.7
343.165	17.15
343.377	29.97
343.59	28.27
343.802	38.61
344.015	44.71
344.227	32.35
344.44	28.8
344.652	27.23
344.864	19.39
345.077	16.64
345.289	2.03
345.502	-7.98
345.714	-1.22
345.926	1.34
346.139	3.22
346.351	-6.74
346.563	-3.57
346.775	-5.31
346.988	-4.91
347.2	1.72
347.412	3.23
347.624	4.44
347.837	13.34
348.049	12.44
348.261	10.43
348.473	9.82
348.685	10.2
348.897	12.91
349.11	11.59
349.322	5.11
349.534	-0.48
349.746	10.19
349.958	17.22
350.17	18.22
350.382	4.79
350.594	13.54
350.806	20.86
351.018	32.46
351.23	28.13
351.442	24.51
351.654	30.4
351.866	36.35
352.078	22.9
352.29	24.78
352.502	24.21
352.714	28.42
352.926	29.86
353.138	20.64
353.35	21.39
353.561	16.95
353.773	9.43
353.985	6.23
354.197	-0.23
354.409	-2.95
354.621	-1.42
354.832	-7.71
355.044	10.46
355.256	5.85
355.468	3.11
355.679	3.07
355.891	8.99
356.103	6.05
356.314	11.31
356.526	1.89
356.738	4.02
356.949	5.61
357.161	21.15
357.373	25.14
357.584	44.77
357.796	44.65
358.008	42.79
358.219	53.7
358.431	49.35
358.642	30.34
358.854	25.37
359.065	12.92
359.277	8.14
359.488	0.52
359.7	3.53
359.911	9.19
360.123	20.39
360.334	19.14
360.546	14.78
360.757	18.17
360.969	24.83
361.18	21.87
361.391	19.49
361.603	11.81
361.814	13.6
362.025	18.27
362.237	16.23
362.448	12.4
362.659	-2.38
362.871	3.61
363.082	8.64
363.293	12.1
363.504	10.45
363.716	12
363.927	15.43
364.138	26.57
364.349	25.7
364.56	23.98
364.772	24.68
364.983	25.62
365.194	28.58
365.405	27.08
365.616	13.24
365.827	7.64
366.038	14.76
366.25	6.88
366.461	8.29
366.672	-0.93
366.883	2.9
367.094	7.35
367.305	4.78
367.516	-1.88
367.727	-0.77
367.938	1.23
368.149	7.7
368.36	10.08
368.571	13.36
368.781	7.3
368.992	5.91
369.203	10.83
369.414	4.97
369.625	7.52
369.836	2.42
370.047	1.62
370.258	6.66
370.468	3.4
370.679	-2.46
370.89	13.36
371.101	3.27
371.312	0.08
371.522	-2.25
371.733	-1.75
371.944	4.42
372.155	-7.06
372.365	-21.69
372.576	-12.1
372.787	-6.28
372.997	-7.1
373.208	-3.93
373.419	-3.59
373.629	12.66
373.84	9.42
374.05	9.7
374.261	3.04
374.472	9.67
374.682	5.36
374.893	0.53
375.103	2.24
375.314	10.07
375.524	10.17
375.735	21.57
375.945	20.91
376.156	26.91
376.366	31.78
376.577	30.07
376.787	27.81
376.997	24.33
377.208	12.25
377.418	10.65
377.629	9.21
377.839	15.09
378.049	13.88
378.26	17.94
378.47	23.17
378.68	25.8
378.89	20.89
379.101	15.44
379.311	6.28
379.521	12.35
379.732	-0.77
379.942	-1.38
380.152	6.04
380.362	8.37
380.572	15.2
380.783	15.82
380.993	9.15
381.203	18.02
381.413	18.16
381.623	14.65
381.833	14.3
382.043	10.94
382.253	10.27
382.463	16.5
382.674	15.32
382.884	10.41
383.094	11.47
383.304	13.37
383.514	17.19
383.724	16.7
383.934	6.91
384.144	5.43
384.353	8.95
384.563	6.05
384.773	4.13
384.983	0.73
385.193	3.72
385.403	7.4
385.613	6.48
385.823	4.61
386.033	6.8
386.242	5.55
386.452	2.68
386.662	5.55
386.872	5.09
387.082	4.09
387.291	3.96
387.501	2.78
387.711	2.64
387.921	4.48
388.13	0.01
388.34	2.26
388.55	3.21
388.759	2.31
388.969	0.22
389.179	1.99
389.388	2.68
389.598	2.23
389.807	0.33
390.017	2.08
390.227	3.68
390.436	5.26
390.646	6.59
390.855	7.08
391.065	6.57
391.274	5.31
391.484	5.11
391.693	4.25
391.903	3.21
392.112	2.38
392.322	2.97
392.531	3.67
392.74	3.94
392.95	3.38
393.159	4.08
393.369	4.5
393.578	4.9
393.787	4.64
393.997	5.68
394.206	6.29
394.415	6.1
394.625	4.96
394.834	4.22
395.043	4.6
395.252	4.78
395.462	3.59
395.671	4.31
395.88	4.82
396.089	5.57
396.298	5.55
396.508	4.45
396.717	3.81
396.926	3.88
397.135	2.99
397.344	2.62
397.553	2.69
397.762	3.09
397.971	3.39
398.181	3.36
398.39	3.74
398.599	4.01
398.808	4.24
399.017	4.68
399.226	4.86
399.435	4.9
399.644	4.81
399.853	4.8
400.062	4.74
400.27	4.59
400.479	4.39
400.688	4.58
400.897	4.78
401.106	5
401.315	4.9
401.524	5.06
401.733	5.29
401.941	5.05
402.15	4.75
402.359	4.73
402.568	4.74
402.777	4.76
402.985	4.69
403.194	4.52
403.403	4.51
403.612	4.63
403.82	4.61
404.029	4.56
404.238	4.55
404.446	4.4
404.655	4.31
404.864	4.31
405.072	4.27
405.281	4.05
405.489	4.09
405.698	3.95
405.906	3.96
406.115	4.09
406.324	4.04
406.532	4
406.741	4.13
406.949	4.01
407.158	4.11
407.366	4.19
407.574	4.17
407.783	4.13
407.991	4.01
408.2	3.97
408.408	3.99
408.617	3.89
408.825	3.89
409.033	3.82
409.242	3.78
409.45	3.77
409.658	3.8
409.867	3.77
410.075	3.77
410.283	3.6
410.491	3.59
410.7	3.65
410.908	3.74
411.116	3.67
411.324	3.7
411.533	3.66
411.741	3.74
411.949	3.84
412.157	3.92
412.365	3.88
412.573	3.88
412.781	3.84
412.99	4.01
413.198	4.02
413.406	3.88
413.614	3.8
413.822	3.74
414.03	3.67
414.238	3.72
414.446	3.55
414.654	3.57
414.862	3.57
415.07	3.62
415.278	3.55
415.486	3.63
415.694	3.52
415.902	3.56
416.109	3.52
416.317	3.39
416.525	3.37
416.733	3.53
416.941	3.42
417.149	3.53
417.357	3.5
417.564	3.5
417.772	3.62
417.98	3.53
418.188	3.35
418.395	3.41
418.603	3.21
418.811	3.15
419.019	3.16
419.226	3.23
419.434	3.15
419.642	3.2
419.849	3.11
420.057	3.22
420.265	3.23
420.472	3.14
420.68	3.03
420.887	3.14
421.095	3.12
421.302	3.19
421.51	3.26
421.717	3.32
421.925	3.32
422.132	3.27
422.34	3.2
422.547	3.19
422.755	3.15
422.962	2.97
423.17	2.88
423.377	2.97
423.585	3
423.792	2.98
423.999	2.93
424.207	2.88
424.414	3.01
424.621	2.99
424.829	2.85
425.036	2.84
425.243	2.89
425.451	2.94
425.658	3.06
425.865	2.93
426.072	3.01
426.28	3.1
426.487	3.01
426.694	2.94
426.901	2.98
427.108	2.96
427.315	3
427.523	3
427.73	2.98
427.937	3.07
428.144	3.17
428.351	3.28
428.558	3.21
428.765	3.19
428.972	3.23
429.179	3.19
429.386	3.24
429.593	3.23
429.8	3.19
430.007	3.35
430.214	3.49
430.421	3.46
430.628	3.41
430.835	3.36
431.042	3.37
431.249	3.39
431.456	3.36
431.662	3.35
431.869	3.46
432.076	3.6
432.283	3.62
432.49	3.62
432.697	3.55
432.903	3.49
433.11	3.55
433.317	3.53
433.524	3.4
433.73	3.42
433.937	3.38
434.144	3.51
434.35	3.51
434.557	3.39
434.764	3.39
434.97	3.58
435.177	3.57
435.384	3.7
435.59	3.7
435.797	3.74
436.003	3.78
436.21	3.75
436.416	3.63
436.623	3.68
436.829	3.63
437.036	3.6
437.242	3.66
437.449	3.73
437.655	3.75
437.862	3.84
438.068	3.93
438.275	4
438.481	4.07
438.687	4.12
438.894	4.15
439.1	4.14
439.307	4.14
439.513	4.04
439.719	4.02
439.926	4.01
440.132	3.95
440.338	3.95
440.544	3.98
440.751	3.99
440.957	3.97
441.163	3.98
441.369	4.01
441.575	4.03
441.782	4.04
441.988	4.04
442.194	4.11
442.4	4.24
442.606	4.3
442.812	4.33
443.018	4.35
443.224	4.38
443.431	4.42
443.637	4.33
443.843	4.34
444.049	4.24
444.255	4.15
444.461	4.13
444.667	4.13
444.873	4.12
445.079	4.21
445.284	4.17
445.49	4.21
445.696	4.32
445.902	4.42
446.108	4.44
446.314	4.48
446.52	4.51
446.726	4.5
446.931	4.56
447.137	4.51
447.343	4.44
447.549	4.41
447.755	4.37
447.96	4.3
448.166	4.33
448.372	4.29
448.578	4.3
448.783	4.36
448.989	4.41
449.195	4.46
449.4	4.52
449.606	4.49
449.812	4.54
450.017	4.57
450.223	4.57
450.428	4.61
450.634	4.6
450.84	4.62
451.045	4.68
451.251	4.68
451.456	4.71
451.662	4.69
451.867	4.68
452.073	4.67
452.278	4.64
452.483	4.67
452.689	4.66
452.894	4.66
453.1	4.66
453.305	4.65
453.51	4.67
453.716	4.68
453.921	4.64
454.127	4.65
454.332	4.67
454.537	4.75
454.742	4.76
454.948	4.76
455.153	4.78
455.358	4.89
455.563	4.91
455.769	4.86
455.974	4.77
456.179	4.73
456.384	4.79
456.589	4.81
456.795	4.69
457	4.7
457.205	4.73
457.41	4.79
457.615	4.87
457.82	4.89
458.025	4.86
458.23	4.92
458.435	4.89
458.64	4.94
458.845	4.96
459.05	4.94
459.255	4.88
459.46	4.91
459.665	4.93
459.87	5.01
460.075	5.02
460.28	5.01
460.485	5.03
460.69	5.05
460.895	5.09
461.099	5.13
461.304	5.1
461.509	5.02
461.714	5.06
461.919	5.05
462.123	5.13
462.328	5.11
462.533	5.09
462.738	5.13
462.942	5.23
463.147	5.23
463.352	5.33
463.556	5.28
463.761	5.31
463.966	5.34
464.17	5.34
464.375	5.31
464.58	5.3
464.784	5.29
464.989	5.29
465.193	5.31
465.398	5.33
465.602	5.36
465.807	5.41
466.011	5.51
466.216	5.56
466.42	5.59
466.625	5.63
466.829	5.68
467.034	5.71
467.238	5.74
467.443	5.73
467.647	5.74
467.851	5.79
468.056	5.77
468.26	5.72
468.464	5.72
468.669	5.76
468.873	5.72
469.077	5.7
469.282	5.76
469.486	5.82
469.69	5.87
469.894	5.9
470.099	5.89
470.303	5.91
470.507	5.95
470.711	5.88
470.915	5.9
471.119	5.94
471.324	5.9
471.528	5.91
471.732	5.96
471.936	6.04
472.14	6.07
472.344	6.07
472.548	6.11
472.752	6.17
472.956	6.19
473.16	6.2
473.364	6.13
473.568	6.21
473.772	6.25
473.976	6.2
474.18	6.19
474.384	6.21
474.588	6.21
474.792	6.26
474.995	6.22
475.199	6.23
475.403	6.28
475.607	6.34
475.811	6.41
476.015	6.47
476.218	6.5
476.422	6.56
476.626	6.59
476.83	6.6
477.033	6.66
477.237	6.67
477.441	6.72
477.644	6.71
477.848	6.72
478.052	6.7
478.255	6.73
478.459	6.76
478.663	6.75
478.866	6.75
479.07	6.79
479.273	6.81
479.477	6.87
479.681	6.89
479.884	6.82
480.088	6.87
480.291	6.9
480.495	6.92
480.698	6.91
480.901	6.92
481.105	6.99
481.308	7.05
481.512	7.06
481.715	7.12
481.919	7.13
482.122	7.19
482.325	7.22
482.529	7.26
482.732	7.28
482.935	7.31
483.138	7.3
483.342	7.33
483.545	7.33
483.748	7.33
483.952	7.31
484.155	7.33
484.358	7.27
484.561	7.3
484.764	7.3
484.967	7.33
485.171	7.33
485.374	7.35
485.577	7.35
485.78	7.42
485.983	7.41
486.186	7.43
486.389	7.43
486.592	7.42
486.795	7.35
486.998	7.39
487.201	7.37
487.404	7.42
487.607	7.45
487.81	7.49
488.013	7.52
488.216	7.57
488.419	7.56
488.622	7.54
488.825	7.44
489.028	7.44
489.231	7.39
489.433	7.38
489.636	7.34
489.839	7.34
490.042	7.39
490.245	7.44
490.447	7.4
490.65	7.43
490.853	7.48
491.056	7.47
491.258	7.48
491.461	7.43
491.664	7.39
491.866	7.44
492.069	7.43
492.272	7.37
492.474	7.38
492.677	7.34
492.879	7.41
493.082	7.49
493.285	7.5
493.487	7.5
493.69	7.5
493.892	7.54
494.095	7.59
494.297	7.61
494.5	7.59
494.702	7.58
494.905	7.62
495.107	7.66
495.309	7.64
495.512	7.65
495.714	7.68
495.917	7.66
496.119	7.7
496.321	7.74
496.524	7.74
496.726	7.76
496.928	7.8
497.13	7.83
497.333	7.89
497.535	7.89
497.737	7.83
497.939	7.83
498.142	7.81
498.344	7.77
498.546	7.76
498.748	7.75
498.95	7.73
499.152	7.76
499.355	7.79
499.557	7.86
499.759	7.92
499.961	7.92
500.163	7.97
500.365	7.99
500.567	8.01
500.769	8.08
500.971	8.07
501.173	8.07
501.375	8.07
501.577	8.05
501.779	8.07
501.981	8.1
502.183	8.07
502.385	8.09
502.587	8.12
502.788	8.13
502.99	8.11
503.192	8.16
503.394	8.16
503.596	8.19
503.798	8.26
503.999	8.26
504.201	8.3
504.403	8.36
504.605	8.39
504.806	8.41
505.008	8.41
505.21	8.4
505.411	8.41
505.613	8.43
505.815	8.44
506.016	8.49
506.218	8.5
506.42	8.58
506.621	8.62
506.823	8.67
507.024	8.71
507.226	8.72
507.427	8.66
507.629	8.69
507.83	8.66
508.032	8.72
508.233	8.76
508.435	8.8
508.636	8.83
508.838	8.92
509.039	8.96
509.24	8.96
509.442	8.94
509.643	8.89
509.845	8.87
510.046	8.89
510.247	8.9
510.448	8.93
510.65	8.96
510.851	9
511.052	9.09
511.254	9.12
511.455	9.12
511.656	9.13
511.857	9.13
512.058	9.17
512.26	9.16
512.461	9.16
512.662	9.13
512.863	9.18
513.064	9.2
513.265	9.24
513.466	9.25
513.667	9.29
513.868	9.28
514.069	9.34
514.27	9.35
514.471	9.38
514.672	9.39
514.873	9.41
515.074	9.4
515.275	9.41
515.476	9.4
515.677	9.44
515.878	9.48
516.079	9.47
516.28	9.5
516.481	9.54
516.682	9.56
516.882	9.58
517.083	9.59
517.284	9.57
517.485	9.59
517.686	9.56
517.886	9.58
518.087	9.57
518.288	9.58
518.488	9.6
518.689	9.57
518.89	9.62
519.091	9.66
519.291	9.66
519.492	9.69
519.692	9.74
519.893	9.73
520.094	9.78
520.294	9.77
520.495	9.77
520.695	9.78
520.896	9.77
521.096	9.78
521.297	9.8
521.497	9.84
521.698	9.83
521.898	9.87
522.099	9.87
522.299	9.88
522.499	9.89
522.7	9.93
522.9	9.91
523.101	9.94
523.301	9.89
523.501	9.93
523.702	9.97
523.902	9.96
524.102	9.97
524.302	10
524.503	10.02
524.703	10.06
524.903	10.08
525.103	10.11
525.304	10.13
525.504	10.12
525.704	10.08
525.904	10.1
526.104	10.12
526.304	10.11
526.504	10.08
526.705	10.11
526.905	10.14
527.105	10.18
527.305	10.15
527.505	10.15
527.705	10.15
527.905	10.15
528.105	10.15
528.305	10.17
528.505	10.22
528.705	10.28
528.905	10.29
529.105	10.34
529.304	10.42
529.504	10.43
529.704	10.43
529.904	10.43
530.104	10.42
530.304	10.43
530.503	10.43
530.703	10.43
530.903	10.46
531.103	10.46
531.303	10.49
531.502	10.49
531.702	10.51
531.902	10.51
532.101	10.5
532.301	10.47
532.501	10.54
532.7	10.51
532.9	10.57
533.1	10.59
533.299	10.62
533.499	10.63
533.698	10.72
533.898	10.68
534.097	10.72
534.297	10.72
534.496	10.73
534.696	10.78
534.895	10.84
535.095	10.81
535.294	10.83
535.494	10.85
535.693	10.87
535.892	10.91
536.092	10.9
536.291	10.9
536.491	10.92
536.69	10.95
536.889	10.95
537.088	10.98
537.288	11.02
537.487	11.07
537.686	11.1
537.886	11.1
538.085	11.17
538.284	11.19
538.483	11.21
538.682	11.24
538.882	11.25
539.081	11.27
539.28	11.33
539.479	11.32
539.678	11.38
539.877	11.42
540.076	11.44
540.275	11.46
540.474	11.48
540.673	11.51
540.872	11.55
541.071	11.58
541.27	11.54
541.469	11.56
541.668	11.61
541.867	11.65
542.066	11.67
542.265	11.73
542.464	11.79
542.663	11.93
542.862	11.98
543.06	12.04
543.259	12.09
543.458	12.15
543.657	12.16
543.856	12.16
544.054	12.17
544.253	12.2
544.452	12.19
544.651	12.21
544.849	12.21
545.048	12.25
545.247	12.31
545.445	12.31
545.644	12.34
545.843	12.42
546.041	12.45
546.24	12.54
546.438	12.57
546.637	12.61
546.836	12.67
547.034	12.72
547.233	12.75
547.431	12.81
547.63	12.86
547.828	12.93
548.027	12.96
548.225	13.06
548.423	13.14
548.622	13.19
548.82	13.26
549.019	13.26
549.217	13.34
549.415	13.43
549.614	13.44
549.812	13.47
550.01	13.58
550.209	13.63
550.407	13.73
550.605	13.8
550.803	13.83
551.002	13.92
551.2	13.97
551.398	14
551.596	14.08
551.794	14.15
551.993	14.18
552.191	14.32
552.389	14.41
552.587	14.49
552.785	14.57
552.983	14.63
553.181	14.67
553.379	14.76
553.577	14.81
553.775	14.88
553.973	14.97
554.171	15.09
554.369	15.16
554.567	15.29
554.765	15.34
554.963	15.38
555.161	15.42
555.359	15.47
555.557	15.52
555.755	15.62
555.952	15.67
556.15	15.76
556.348	15.87
556.546	16
556.744	16.09
556.941	16.21
557.139	16.33
557.337	16.4
557.535	16.48
557.732	16.55
557.93	16.62
558.128	16.71
558.325	16.75
558.523	16.8
558.721	16.93
558.918	17.02
559.116	17.09
559.313	17.18
559.511	17.29
559.708	17.4
559.906	17.53
560.104	17.64
560.301	17.75
560.498	17.87
560.696	18.02
560.893	18.11
561.091	18.2
561.288	18.28
561.486	18.37
561.683	18.52
561.88	18.62
562.078	18.67
562.275	18.85
562.473	18.94
562.67	19.03
562.867	19.12
563.064	19.2
563.262	19.37
563.459	19.48
563.656	19.55
563.853	19.64
564.051	19.72
564.248	19.85
564.445	19.96
564.642	20.03
564.839	20.15
565.036	20.29
565.234	20.45
565.431	20.62
565.628	20.71
565.825	20.86
566.022	20.91
566.219	20.98
566.416	21.08
566.613	21.19
566.81	21.18
567.007	21.26
567.204	21.27
567.401	21.41
567.598	21.49
567.795	21.48
567.991	21.54
568.188	21.67
568.385	21.71
568.582	21.84
568.779	21.97
568.976	22.09
569.172	22.25
569.369	22.27
569.566	22.33
569.763	22.5
569.96	22.49
570.156	22.48
570.353	22.52
570.55	22.56
570.746	22.68
570.943	22.79
571.14	22.82
571.336	22.93
571.533	23.01
571.729	23.09
571.926	23.19
572.123	23.21
572.319	23.22
572.516	23.27
572.712	23.32
572.909	23.4
573.105	23.46
573.302	23.44
573.498	23.51
573.695	23.55
573.891	23.58
574.087	23.62
574.284	23.63
574.48	23.67
574.677	23.74
574.873	23.79
575.069	23.84
575.266	23.83
575.462	23.88
575.658	23.93
575.854	23.94
576.051	23.96
576.247	23.92
576.443	23.94
576.639	23.98
576.835	23.98
577.032	23.98
577.228	23.99
577.424	24.04
577.62	24.14
577.816	24.2
578.012	24.22
578.208	24.21
578.404	24.24
578.6	24.25
578.796	24.28
578.993	24.21
579.189	24.12
579.384	24.1
579.58	24.14
579.776	24.11
579.972	24.08
580.168	24.02
580.364	24.03
580.56	24.05
580.756	24.05
580.952	24.04
581.148	24.06
581.343	24.09
581.539	24.09
581.735	24.08
581.931	24.11
582.127	24.18
582.322	24.16
582.518	24.16
582.714	24.09
582.909	24.06
583.105	24
583.301	23.98
583.496	23.89
583.692	23.89
583.888	23.83
584.083	23.93
584.279	23.95
584.474	23.99
584.67	24.05
584.866	24.09
585.061	24.12
585.257	24.14
585.452	24.07
585.648	24.07
585.843	24.06
586.039	24.03
586.234	24.02
586.429	24.03
586.625	24.01
586.82	24.01
587.015	23.98
587.211	24.04
587.406	24.1
587.601	24.08
587.797	24.02
587.992	24.04
588.187	24.09
588.383	24.17
588.578	24.12
588.773	24.11
588.968	24.2
589.163	24.31
589.359	24.36
589.554	24.34
589.749	24.39
589.944	24.49
590.139	24.55
590.334	24.54
590.529	24.59
590.724	24.67
590.919	24.75
591.114	24.72
591.309	24.74
591.504	24.75
591.699	24.79
591.894	24.84
592.089	24.83
592.284	24.86
592.479	24.93
592.674	24.97
592.869	25.03
593.064	25.14
593.259	25.16
593.454	25.18
593.648	25.25
593.843	25.32
594.038	25.39
594.233	25.47
594.428	25.5
594.622	25.58
594.817	25.7
595.012	25.78
595.206	25.86
595.401	25.89
595.596	26
595.79	26.06
595.985	26.13
596.18	26.18
596.374	26.22
596.569	26.29
596.763	26.47
596.958	26.48
597.153	26.54
597.347	26.64
597.542	26.77
597.736	26.9
597.931	26.93
598.125	26.96
598.319	27.07
598.514	27.14
598.708	27.18
598.903	27.18
599.097	27.23
599.291	27.31
599.486	27.31
599.68	27.34
599.874	27.37
600.069	27.37
600.263	27.44
600.457	27.44
600.651	27.52
600.846	27.56
601.04	27.56
601.234	27.68
601.428	27.76
601.622	27.78
601.817	27.88
602.011	27.89
602.205	27.97
602.399	28.06
602.593	28.05
602.787	28.1
602.981	28.12
603.175	28.08
603.369	28.07
603.563	28.05
603.757	28.02
603.951	28.03
604.145	28
604.339	27.97
604.533	27.96
604.727	28.01
604.921	27.96
605.115	27.93
605.309	27.92
605.502	27.91
605.696	27.86
605.89	27.86
606.084	27.78
606.278	27.79
606.471	27.79
606.665	27.73
606.859	27.67
607.053	27.64
607.246	27.62
607.44	27.59
607.634	27.51
607.827	27.39
608.021	27.34
608.214	27.3
608.408	27.24
608.602	27.14
608.795	27.03
608.989	26.98
609.182	26.98
609.376	26.88
609.569	26.78
609.763	26.8
609.956	26.73
610.15	26.69
610.343	26.63
610.537	26.57
610.73	26.58
610.923	26.58
611.117	26.45
611.31	26.48
611.504	26.44
611.697	26.38
611.89	26.28
612.083	26.16
612.277	26.06
612.47	25.96
612.663	25.81
612.856	25.7
613.05	25.58
613.243	25.51
613.436	25.43
613.629	25.41
613.822	25.36
614.015	25.31
614.209	25.28
614.402	25.29
614.595	25.22
614.788	25.15
614.981	24.99
615.174	24.91
615.367	24.84
615.56	24.72
615.753	24.55
615.946	24.52
616.139	24.47
616.332	24.43
616.525	24.41
616.718	24.32
616.911	24.31
617.103	24.36
617.296	24.23
617.489	24.24
617.682	24.23
617.875	24.13
618.067	24.07
618.26	24.04
618.453	23.92
618.646	23.91
618.838	23.84
619.031	23.77
619.224	23.82
619.417	23.82
619.609	23.79
619.802	23.8
619.994	23.76
620.187	23.74
620.38	23.73
620.572	23.63
620.765	23.59
620.957	23.51
621.15	23.46
621.342	23.5
621.535	23.46
621.727	23.41
621.92	23.4
622.112	23.4
622.305	23.37
622.497	23.32
622.69	23.27
622.882	23.27
623.074	23.23
623.267	23.18
623.459	23.09
623.651	23.12
623.844	23.13
624.036	23.11
624.228	23.08
624.42	23.09
624.613	23.06
624.805	23.09
624.997	23.07
625.189	23.06
625.381	23.01
625.574	22.93
625.766	22.92
625.958	22.96
626.15	22.96
626.342	22.89
626.534	22.86
626.726	22.86
626.918	22.82
627.11	22.8
627.302	22.7
627.494	22.66
627.686	22.64
627.878	22.56
628.07	22.52
628.262	22.55
628.454	22.5
628.646	22.51
628.838	22.43
629.029	22.32
629.221	22.27
629.413	22.19
629.605	22.09
629.797	22.03
629.989	21.96
630.18	21.93
630.372	21.92
630.564	21.97
630.755	21.98
630.947	21.98
631.139	21.94
631.33	21.93
631.522	21.88
631.714	21.9
631.905	21.8
632.097	21.79
632.289	21.72
632.48	21.71
632.672	21.64
632.863	21.64
633.055	21.57
633.246	21.61
633.438	21.55
633.629	21.62
633.821	21.63
634.012	21.65
634.203	21.69
634.395	21.71
634.586	21.66
634.777	21.66
634.969	21.61
635.16	21.6
635.351	21.54
635.543	21.45
635.734	21.4
635.925	21.41
636.117	21.39
636.308	21.37
636.499	21.32
636.69	21.42
636.881	21.47
637.073	21.47
637.264	21.46
637.455	21.51
637.646	21.51
637.837	21.53
638.028	21.53
638.219	21.49
638.41	21.49
638.601	21.46
638.792	21.38
638.983	21.29
639.174	21.28
639.365	21.19
639.556	21.18
639.747	21.22
639.938	21.24
640.129	21.24
640.32	21.26
640.511	21.23
640.701	21.19
640.892	21.18
641.083	21.13
641.274	21.13
641.465	21.12
641.655	21.1
641.846	21.04
642.037	21.02
642.228	21
642.418	20.97
642.609	20.87
642.8	20.86
642.99	20.88
643.181	20.92
643.372	20.94
643.562	20.9
643.753	20.83
643.943	20.79
644.134	20.83
644.324	20.77
644.515	20.75
644.705	20.73
644.896	20.65
645.086	20.64
645.277	20.69
645.467	20.62
645.658	20.56
645.848	20.54
646.038	20.48
646.229	20.5
646.419	20.52
646.61	20.45
646.8	20.42
646.99	20.4
647.18	20.37
647.371	20.34
647.561	20.29
647.751	20.25
647.941	20.19
648.132	20.16
648.322	20.19
648.512	20.21
648.702	20.14
648.892	20.17
649.082	20.14
649.272	20.11
649.462	20.12
649.653	20.07
649.843	19.96
650.033	20
650.223	20
650.413	20.02
650.603	20.01
650.793	19.89
650.983	19.87
651.172	19.89
651.362	19.81
651.552	19.66
651.742	19.55
651.932	19.54
652.122	19.52
652.312	19.37
652.502	19.3
652.691	19.25
652.881	19.25
653.071	19.16
653.261	19.09
653.45	19.02
653.64	19.02
653.83	18.89
654.019	18.7
654.209	18.56
654.399	18.46
654.588	18.31
654.778	18.15
654.968	17.95
655.157	17.83
655.347	17.72
655.536	17.57
655.726	17.43
655.915	17.31
656.105	17.23
656.294	17.12
656.484	16.98
656.673	16.91
656.863	16.77
657.052	16.6
657.241	16.41
657.431	16.2
657.62	15.98
657.809	15.84
657.999	15.68
658.188	15.54
658.377	15.45
658.567	15.35
658.756	15.19
658.945	15.07
659.134	14.89
659.324	14.69
659.513	14.45
659.702	14.22
659.891	14.02
660.08	13.85
660.269	13.67
660.458	13.51
660.648	13.38
660.837	13.26
661.026	13.15
661.215	12.97
661.404	12.86
661.593	12.74
661.782	12.58
661.971	12.41
662.16	12.28
662.349	12.15
662.538	12.11
662.726	11.93
662.915	11.84
663.104	11.64
663.293	11.49
663.482	11.35
663.671	11.19
663.86	11.04
664.048	10.95
664.237	10.82
664.426	10.8
664.615	10.74
664.803	10.61
664.992	10.55
665.181	10.46
665.369	10.34
665.558	10.2
665.747	10.15
665.935	10.06
666.124	10.04
666.312	9.9
666.501	9.78
666.69	9.74
666.878	9.71
667.067	9.7
667.255	9.68
667.444	9.61
667.632	9.55
667.82	9.58
668.009	9.59
668.197	9.56
668.386	9.46
668.574	9.34
668.762	9.28
668.951	9.28
669.139	9.19
669.327	9.12
669.516	9.11
669.704	9.04
669.892	9.06
670.08	9.04
670.269	9.03
670.457	9.02
670.645	9.06
670.833	9.07
671.021	9.04
671.21	9.1
671.398	9.14
671.586	9.16
671.774	9.17
671.962	9.12
672.15	9.07
672.338	9.15
672.526	9.08
672.714	9.1
672.902	9.15
673.09	9.2
673.278	9.25
673.466	9.39
673.654	9.4
673.842	9.53
674.03	9.64
674.218	9.59
674.405	9.69
674.593	9.69
674.781	9.7
674.969	9.78
675.157	9.79
675.344	9.76
675.532	9.91
675.72	9.88
675.908	9.96
676.095	10.09
676.283	10.12
676.471	10.2
676.658	10.27
676.846	10.39
677.033	10.6
677.221	10.7
677.409	10.72
677.596	10.92
677.784	10.98
677.971	11.14
678.159	11.17
678.346	11.13
678.534	11.21
678.721	11.32
678.909	11.33
679.096	11.42
679.283	11.5
679.471	11.61
679.658	11.83
679.846	12.03
680.033	12.1
680.22	12.16
680.408	12.27
680.595	12.33
680.782	12.41
680.969	12.46
681.157	12.41
681.344	12.62
681.531	12.78
681.718	12.91
681.905	13.09
682.093	13.3
682.28	13.52
682.467	13.67
682.654	13.75
682.841	13.99
683.028	14.21
683.215	14.46
683.402	14.6
683.589	14.74
683.776	15.01
683.963	15.27
684.15	15.47
684.337	15.64
684.524	15.88
684.711	16.08
684.898	16.32
685.085	16.67
685.271	16.99
685.458	17.27
685.645	17.58
685.832	17.85
686.019	18.26
686.205	18.61
686.392	18.83
686.579	19.13
686.766	19.41
686.952	19.85
687.139	20.14
687.326	20.49
687.512	20.83
687.699	21.28
687.886	21.65
688.072	22.21
688.259	22.54
688.445	23.03
688.632	23.56
688.818	24.05
689.005	24.6
689.191	25.14
689.378	25.57
689.564	26.13
689.751	26.75
689.937	27.15
690.124	27.69
690.31	28.21
690.496	28.69
690.683	29.21
690.869	29.78
691.055	30.39
691.242	30.96
691.428	31.52
691.614	32.13
691.8	32.82
691.987	33.57
692.173	34.31
692.359	34.99
692.545	35.69
692.731	36.38
692.918	36.89
693.104	37.64
693.29	38.25
693.476	38.75
693.662	39.24
693.848	39.8
694.034	40.41
694.22	41.18
694.406	41.78
694.592	42.37
694.778	42.98
694.964	43.62
695.15	44.48
695.336	45.26
695.522	45.98
695.708	46.54
695.894	47.3
696.08	48.05
696.265	48.73
696.451	49.4
696.637	49.91
696.823	50.48
697.009	51.16
697.194	51.76
697.38	52.21
697.566	52.64
697.751	53.15
697.937	53.79
698.123	54.31
698.308	54.76
698.494	55.29
698.68	56.04
698.865	56.86
699.051	57.54
699.236	58.12
699.422	58.67
699.607	59.21
699.793	59.64
699.978	60.04
700.164	60.52
700.349	60.8
700.535	61.26
700.72	61.81
700.906	62.42
701.091	62.94
701.276	63.47
701.462	63.93
701.647	64.29
701.832	64.82
702.018	65.16
702.203	65.45
702.388	65.77
702.573	66.29
702.759	66.49
702.944	67.06
703.129	67.34
703.314	67.7
703.499	68.2
703.684	68.67
703.87	69.03
704.055	69.51
704.24	69.93
704.425	70.28
704.61	70.62
704.795	70.98
704.98	71.19
705.165	71.42
705.35	71.75
705.535	71.99
705.72	72.28
705.905	72.55
706.09	72.8
706.275	73.17
706.459	73.57
706.644	73.79
706.829	74.2
707.014	74.35
707.199	74.68
707.384	74.94
707.568	75.27
707.753	75.52
707.938	75.86
708.123	75.79
708.307	76.33
708.492	76.55
708.677	76.99
708.861	77.15
709.046	77.02
709.231	77.2
709.415	77.4
709.6	77.33
709.784	77.8
709.969	77.79
710.153	78.13
710.338	78.44
710.522	78.4
710.707	78.5
710.891	78.8
711.076	78.71
711.26	78.93
711.445	78.85
711.629	79.36
711.813	79.64
711.998	79.95
712.182	80.18
712.366	80.55
712.551	80.77
712.735	80.96
712.919	80.83
713.103	81.02
713.288	81.33
713.472	81.41
713.656	81.24
713.84	81.28
714.024	81.65
714.208	81.75
714.393	82.11
714.577	82.32
714.761	82.66
714.945	82.88
715.129	83.14
715.313	83.09
715.497	83.4
715.681	83.43
715.865	83.51
716.049	83.55
716.233	83.79
716.417	83.97
716.601	84.2
716.785	84.42
716.968	84.35
717.152	84.33
717.336	84.12
717.52	84.32
717.704	84.43
717.888	84.44
718.071	84.39
718.255	84.49
718.439	84.51
718.622	84.73
718.806	84.45
718.99	84.48
719.174	84.48
719.357	84.59
719.541	84.99
719.724	85.21
719.908	85.45
720.092	85.62
720.275	85.8
720.459	85.92
720.642	85.9
720.826	85.68
721.009	85.55
721.193	85.53
721.376	85.6
721.559	85.42
721.743	85.23
721.926	85.09
722.11	85.44
722.293	85.39
722.476	85.07
722.66	85.23
722.843	85.46
723.026	85.64
723.21	86
723.393	86.09
723.576	86.16
723.759	86.69
723.942	86.93
724.126	87.11
724.309	87.51
724.492	87.77
724.675	87.86
724.858	88.39
725.041	88.44
725.224	88.57
725.407	88.39
725.59	88.37
725.774	88.43
725.957	88.54
726.14	88.65
726.322	88.75
726.505	88.81
726.688	88.82
726.871	88.85
727.054	89.02
727.237	88.92
727.42	89.14
727.603	89.27
727.786	89.44
727.968	89.88
728.151	90.35
728.334	90.21
728.517	90.51
728.699	90.46
728.882	90.89
729.065	90.82
729.248	90.74
729.43	90.55
729.613	91.07
729.796	90.79
729.978	90.76
730.161	90.76
730.343	91.09
730.526	91.09
730.708	91.33
730.891	91.11
731.073	91.23
731.256	91.48
731.438	91.57
731.621	91.62
731.803	92
731.986	92.04
732.168	91.96
732.35	92.28
732.533	92.38
732.715	92.45
732.898	92.42
733.08	92.92
733.262	93.28
733.444	93.7
733.627	93.9
733.809	94.07
733.991	94.28
734.173	94.37
734.355	94.09
734.538	94.04
734.72	94.31
734.902	93.97
735.084	94.3
735.266	94.43
735.448	94.66
735.63	94.31
735.812	94.33
735.994	94.1
736.176	94.55
736.358	94.3
736.54	94.18
736.722	94.03
736.904	94.5
737.086	94.28
737.268	94.02
737.45	94.32
737.632	93.9
737.814	94.05
737.995	94.44
738.177	94.86
738.359	95.5
738.541	95.89
738.723	95.89
738.904	96.18
739.086	96.35
739.268	96.74
739.449	96.4
739.631	96.42
739.813	96.53
739.994	97.01
740.176	97.77
740.358	97.79
740.539	97.44
740.721	97.65
740.902	97.3
741.084	97.33
741.265	97.07
741.447	96.3
741.628	96.03
741.81	96.6
741.991	96.85
742.172	97.05
742.354	97.66
742.535	97.62
742.717	97.86
742.898	98.24
743.079	97.75
743.261	97.67
743.442	98.05
743.623	97.68
743.804	97.29
743.986	96.96
744.167	96.42
744.348	96.68
744.529	96.12
744.71	95.77
744.891	95.9
745.073	96.16
745.254	96.74
745.435	96.37
745.616	95.84
745.797	95.76
745.978	96.3
746.159	95.79
746.34	95.84
746.521	95.67
746.702	96.08
746.883	96.47
747.064	96.93
747.245	96.23
747.426	96.46
747.606	96.53
747.787	97.16
747.968	97.6
748.149	97.34
748.33	98.11
748.51	97.62
748.691	98.27
748.872	98.32
749.053	97.08
749.233	97.03
749.414	96.96
749.595	95.56
749.775	95.87
749.956	94.47
750.137	94.11
750.317	94.82
750.498	94.84
750.678	94.45
750.859	95.43
751.04	96.13
751.22	96.04
751.4	96.64
751.581	96.3
751.761	96.53
751.942	97.18
752.122	96.6
752.303	96.09
752.483	97.12
752.663	97.47
752.844	96.97
753.024	96.54
753.204	96.28
753.385	96.1
753.565	95.88
753.745	95.36
753.925	94.3
754.106	95.56
754.286	95.14
754.466	95.12
754.646	94.99
754.826	95.82
755.006	95.36
755.187	95.56
755.367	94.87
755.547	95.69
755.727	95.47
755.907	96.13
756.087	95.4
756.267	95.85
756.447	96.15
756.627	95.83
756.807	96.21
756.987	98.01
757.167	98.38
757.346	97.78
757.526	97.99
757.706	98.31
757.886	98.46
758.066	97.98
758.246	96.32
758.425	95.61
758.605	96.23
758.785	95.71
758.965	94.15
759.144	95.1
759.324	95.02
759.504	95.18
759.683	94.56
759.863	94.67
760.043	95.02
760.222	95.33
760.402	94.95
760.581	94.74
760.761	94.05
760.94	93.38
761.12	92.99
761.299	92.76
761.479	92.86
761.658	91.61
761.838	91.78
762.017	92.46
762.197	94.15
762.376	93.93
762.555	94.27
762.735	93.91
762.914	95.32
763.093	94.48
763.273	93.96
763.452	92.61
763.631	91.97
763.81	91.86
763.99	92.4
764.169	91.31
764.348	91.81
764.527	92.03
764.706	93.03
764.885	94.2
765.064	94.6
765.243	94.28
765.423	95.83
765.602	95.73
765.781	95.87
765.96	95.71
766.139	95.09
766.318	95.27
766.497	95.96
766.676	95.32
766.854	94.83
767.033	93.97
767.212	93.23
767.391	92.95
767.57	92.31
767.749	91.58
767.928	91.03
768.106	91.3
768.285	92.07
768.464	92.86
768.643	94.13
768.821	94.82
769	95.08
769.179	94.15
769.357	93.81
769.536	93.16
769.715	92.74
769.893	91.55
770.072	90.2
770.25	90.49
770.429	92.14
770.607	92.24
770.786	92.51
770.964	92.18
771.143	92.22
771.321	92.06
771.5	91.08
771.678	90.98
771.857	90.61
772.035	90.11
772.213	90.21
772.392	91.29
772.57	90.8
772.748	91.32
772.927	90.12
773.105	91.95
773.283	92.04
773.461	92.08
773.64	91.52
773.818	91.27
773.996	90.96
774.174	90.83
774.352	89.5
774.531	88.7
774.709	89.58
774.887	88.17
775.065	89.2
775.243	89.76
775.421	90.19
775.599	89
775.777	90.65
775.955	89.51
776.133	89.54
776.311	88.72
776.489	88.18
776.667	87.89
776.844	88.58
777.022	87.76
777.2	87.82
777.378	89.7
777.556	90.81
777.734	91.15
777.911	91.57
778.089	90.84
778.267	90.74
778.445	90.23
778.622	89.04
778.8	87.81
778.978	86.59
779.155	85.28
779.333	85.12
779.511	86.08
779.688	85.4
779.866	84.94
780.043	86.2
780.221	86.5
780.398	87.31
780.576	86.73
780.753	84.83
780.931	87.1
781.108	88.95
781.286	87.21
781.463	86.46
781.64	86.37
781.818	87.41
781.995	87.73
782.172	86.08
782.35	84.51
782.527	87.24
782.704	88.37
782.882	88.56
783.059	87.47
783.236	88.68
783.413	89.44
783.59	88.47
783.768	85.26
783.945	85.2
784.122	85.01
784.299	85.89
784.476	85.87
784.653	83.85
784.83	83.82
785.007	85.18
785.184	86.16
785.361	86.56
785.538	86.37
785.715	84.33
785.892	84.45
786.069	84.13
786.246	83.22
786.423	82.97
786.6	83.93
786.776	83.93
786.953	84.42
787.13	85.66
787.307	86.49
787.484	88.18
787.66	85.63
787.837	85.3
788.014	83.69
788.191	83.1
788.367	82.11
788.544	80.55
788.721	78.97
788.897	80.96
789.074	79.01
789.25	83.14
789.427	83.81
789.603	86.31
789.78	88.9
789.956	87.92
790.133	88.72
790.309	88.35
790.486	88.16
790.662	90.21
790.839	88.5
791.015	88.23
791.192	90.61
791.368	90.98
791.544	92.87
791.721	89.57
791.897	88.26
792.073	87.72
792.249	90.39
792.426	91.27
792.602	88.04
792.778	87.19
792.954	88.97
793.13	90.33
793.307	88.09
793.483	83.83
793.659	84.82
793.835	85.3
794.011	82.89
794.187	79.65
794.363	77.82
794.539	79.1
794.715	80.62
794.891	74.97
795.067	77.74
795.243	79.3
795.419	81.18
795.595	81.39
795.771	83.48
795.947	82.54
796.122	84.79
796.298	82.09
796.474	82.06
796.65	82.36
796.826	82.38
797.001	82.36
797.177	83.5
797.353	87.93
797.529	89.7
797.704	90.44
797.88	91.4
798.056	92.36
798.231	92.95
798.407	93.55
798.582	89.5
798.758	91.4
798.934	90.49
799.109	87.64
799.285	88.42
799.46	88.47
799.636	87.57
799.811	86.92
799.986	84.76
800.162	86.2
800.337	87.25
800.513	84.85
800.688	86.82
800.863	85.25
801.039	84.3
801.214	84.03
801.389	84.08
801.565	86.96
801.74	83.66
801.915	80.18
802.09	79.44
802.265	81.65
802.441	81.64
802.616	79.89
802.791	78.9
802.966	82.43
803.141	79.95
803.316	83.27
803.491	82.84
803.666	83.96
803.841	84.08
804.016	80.44
804.191	78.59
804.366	79.91
804.541	72.81
804.716	69.24
804.891	70.18
805.066	70.39
805.241	73.76
805.416	75.22
805.591	77.37
805.765	84.12
805.94	88.94
806.115	81.22
806.29	83.6
806.464	79.59
806.639	79.3
806.814	74.47
806.989	73.2
807.163	68.47
807.338	71.16
807.512	68.34
807.687	70.11
807.862	71.31
808.036	71.45
808.211	71.88
808.385	71.01
808.56	75.86
808.734	73.92
808.909	71.1
809.083	72.58
809.258	79.85
809.432	77.74
809.606	81.39
809.781	79.46
809.955	80.92
810.13	87.96
810.304	84.54
810.478	83.9
810.652	88.34
810.827	88.15
811.001	84.26
811.175	81.94
811.349	78.99
811.524	78.24
811.698	75.42
811.872	72.09
812.046	69.03
812.22	69.8
812.394	74.8
812.568	72.57
812.742	71.95
812.916	69.77
813.09	70.05
813.264	71.47
813.438	77.44
813.612	70.8
813.786	75.8
813.96	78.79
814.134	80.73
814.308	78.71
814.482	80.55
814.656	80.51
814.83	83.52
815.003	82.55
815.177	83.8
815.351	82.71
815.525	77.99
815.698	71.98
815.872	66.19
816.046	63.77
816.219	62.96
816.393	53.42
816.567	53.53
816.74	54.13
816.914	62.99
817.088	63.69
817.261	64.92
817.435	61.18
817.608	62.96
817.782	67.96
817.955	70.37
818.129	68.54
818.302	64.64
818.475	68.3
818.649	69.39
818.822	77.51
818.996	71.75
819.169	75.94
819.342	70.12
819.516	73.89
819.689	73.83
819.862	73.58
820.035	67.64
820.209	64.01
820.382	58.74
820.555	58.84
820.728	59.54
820.901	56.74
821.075	57.11
821.248	57.57
821.421	58.45
821.594	60.77
821.767	65.37
821.94	58.81
822.113	61.07
822.286	64.7
822.459	71.15
822.632	75.61
822.805	76.65
822.978	67.26
823.151	71.55
823.324	63.75
823.496	50.22
823.669	53.06
823.842	50.53
824.015	55.73
824.188	65.31
824.361	66.68
824.533	73.22
824.706	99.97
824.879	89.65
825.051	87.78
825.224	85.23
825.397	73.97
825.569	78.7
825.742	79.39
825.915	71.21
826.087	65.22
826.26	65.96
826.432	68.28
826.605	71.24
826.777	63.49
826.95	59.23
827.122	64.2
827.295	76.2
827.467	70.73
827.64	51.78
827.812	55.56
827.984	63.87
828.157	67.84
828.329	58.38
828.501	53.71
828.674	58.63
828.846	71.52
829.018	62.18
829.19	56.07
829.363	56.99
829.535	58.82
829.707	52.54
829.879	49.64
830.051	47.07
830.223	51.65
830.395	49.86
830.568	52.45
830.74	57.18
830.912	58.68
831.084	55.86
831.256	48.84
831.428	54.07
831.6	51.34
831.772	46.1
831.943	45.23
832.115	52.42
832.287	51.46
832.459	65.92
832.631	59.86
832.803	59.85
832.975	53.75
833.146	46.46
833.318	42.53
833.49	51.61
833.662	48.91
833.833	54.52
834.005	61.15
834.177	69.15
834.348	70.41
834.52	74.55
834.692	76.57
834.863	79.52
835.035	71.85
835.206	66.35
835.378	54.05
835.549	61.61
835.721	53.74
835.892	52.26
836.064	55.25
836.235	59.13
836.407	59.14
836.578	67.48
836.749	66.39
836.921	70.41
837.092	67.61
837.264	57.69
837.435	49.28
837.606	56.74
837.777	45.95
837.949	42.69
838.12	43.61
838.291	50.78
838.462	59.41
838.633	58.26
838.805	51.27
838.976	54.67
839.147	50.12
839.318	37.97
839.489	30.03
839.66	33.05
839.831	32.08
840.002	32.56
840.173	31.57
840.344	47.09
840.515	53.83
840.686	60.39
840.857	42.83
841.028	48.42
841.199	47.42
841.369	46.96
841.54	46.6
841.711	48.44
841.882	40.66
842.053	38.12
842.223	41.74
842.394	50.45
842.565	53.57
842.736	41.66
842.906	56.96
843.077	65.81
843.248	79.45
843.418	71.24
843.589	68.55
843.759	76.86
843.93	76.46
844.101	61.29
844.271	49.46
844.442	46.4
844.612	48.79
844.783	25.46
844.953	7.13
845.123	17.21
845.294	14.08
845.464	20.69
845.635	28.54
845.805	37.91
845.975	47.87
846.146	46.53
846.316	60.51
846.486	70
846.656	73.89
846.827	68.14
846.997	74.25
847.167	75.52
847.337	90.91
847.507	79.69
847.677	87.16
847.848	97.35
848.018	82.44
848.188	68.86
848.358	77.89
848.528	81.92
848.698	53.87
848.868	26.78
849.038	29.55
849.208	47.48
849.378	43.93
849.548	48.74
849.718	31.97
849.887	28.76
850.057	39.03
850.227	35.54
850.397	32.58
850.567	42.44
850.737	31.72
850.906	28.37
851.076	49.35
851.246	42.37
851.415	47.09
851.585	34.26
851.755	34.76
851.924	43.53
852.094	41.47
852.264	35.57
852.433	52.91
852.603	61.98
852.772	64.66
852.942	49.74
853.111	44.45
853.281	45.04
853.45	42.75
853.62	28.72
853.789	17.49
853.959	19.27
854.128	15.41
854.297	17.38
854.467	25.64
854.636	38.04
854.805	39.06
854.975	44.86
855.144	45.52
855.313	67.03
855.482	65.08
855.652	56.49
855.821	63.2
855.99	73.45
856.159	62.15
856.328	61.8
856.497	42.17
856.667	40.73
856.836	37.5
857.005	25.19
857.174	35.83
857.343	33.34
857.512	22.82
857.681	25.36
857.85	18.95
858.019	31.39
858.188	13.49
858.356	-34.42
858.525	-17.44
858.694	-2.26
858.863	3.92
859.032	14.21
859.201	5.5
859.369	33.55
859.538	40.56
859.707	36.78
859.876	23.33
860.044	17.21
860.213	12.77
860.382	12.71
860.55	8.12
860.719	33.23
860.888	42.12
861.056	56.63
861.225	80
861.393	95.18
861.562	93.23
861.73	81.77
861.899	53.11
862.067	45.47
862.236	48.04
862.404	43.3
862.572	33.14
862.741	30.46
862.909	30.03
863.078	39.81
863.246	39.79
863.414	44.42
863.582	40.53
863.751	32.3
863.919	44.73
864.087	36.81
864.255	42.95
864.424	49.94
864.592	36.83
864.76	34.22
864.928	36.68
865.096	19.07
865.264	36.14
865.432	23.87
865.6	2.49
865.768	0.77
865.936	7.29
866.104	13.11
866.272	13.88
866.44	-49.05
866.608	-35.16
866.776	16.27
866.944	12.33
867.112	-21.09
867.28	-49.82
867.448	-1.24
867.615	39.21
867.783	14.73
867.951	2.22
868.119	21.13
868.286	25.41
868.454	44.37
868.622	39.05
868.789	48.47
868.957	55.39
869.125	49.15
869.292	47.21
869.46	53.58
869.627	29.13
869.795	29.24
869.963	16.81
870.13	34.14
870.298	21.58
870.465	-0.61
870.632	-16.01
870.8	-0.51
870.967	14.58
871.135	13.01
871.302	5.12
871.469	22.6
871.637	21.9
871.804	24.89
871.971	36.08
872.139	33.38
872.306	27.35
872.473	20.86
872.64	17.52
872.807	13.15
872.975	36.17
873.142	-12.42
873.309	3.8
873.476	43.74
873.643	76.82
873.81	58.7
873.977	100.25
874.144	98.9
874.311	116.61
874.478	28.66
874.645	12.54
874.812	23.5
874.979	0.35
875.146	-54.33
875.313	-54.02
875.48	18.01
875.647	-2.85
875.813	-9.41
875.98	-30.74
876.147	37.43
876.314	44.62
876.481	10.25
876.647	10.33
876.814	37.61
876.981	33.83
877.147	30.33
877.314	21.25
877.481	40.97
877.647	50.57
877.814	32.58
877.98	5.93
878.147	16.81
878.314	7.39
878.48	13.86
878.647	4.59
878.813	22.12
878.979	34.22
879.146	28.6
879.312	55.08
879.479	53.05
879.645	20.86
879.811	-2.41
879.978	-10.33
880.144	-16.72
880.31	-57.72
880.477	-96.18
880.643	-240.2
880.809	-18.01
880.975	-33.91
881.142	-40.97
881.308	-29.7
881.474	39.47
881.64	16.38
881.806	54.5
881.972	49.15
882.138	47.34
882.304	2.25
882.47	-1.18
882.636	-35.76
882.802	-66.89
882.968	-321.31
883.134	-680.67
883.3	-249.27
883.466	-87.29
883.632	-55.05
883.798	-38.91
883.964	-48.88
884.129	6.78
884.295	18.52
884.461	-8.73
884.627	-30.13
884.793	-21.03
884.958	-19.22
885.124	-30.51
885.29	11.23
885.455	25.22
885.621	15.88
885.787	-0.78
885.952	-28.97
886.118	-24.11
886.283	-7.48
886.449	-56.17
886.614	-51.04
886.78	-2.35
886.945	-4.46
887.111	5.74
887.276	3.77
887.442	11.03
887.607	19.09
887.773	-18.07
887.938	-42.44
888.103	4.3
888.269	4.65
888.434	2.82
888.599	36.46
888.764	41.42
888.93	60.44
889.095	48.37
889.26	67.65
889.425	99.69
889.59	68.92
889.756	45.5
889.921	25.41
890.086	47.12
890.251	40.38
890.416	-19.68
890.581	-19.23
890.746	-15.72
890.911	-74.81
891.076	-103.88
891.241	-192.27
891.406	-58.99
891.571	-41.87
891.736	-58.42
891.901	-36.53
892.065	-22.7
892.23	-24.67
892.395	-30.75
892.56	-24.95
892.725	-15.77
892.889	-22.72
893.054	-83.55
893.219	-82.2
893.384	-124.6
893.548	-215
893.713	583.17
893.878	330.43
