Data from Ofra_2a_PS_OGT1K_Reflection_3.txt Node
Date: Tue Jul 20 09:28:46 EDT 2021
User: Adam
Spectrometer: FLMT01687
Trigger mode: 0
Integration Time (sec): 9.450000E-1
Scans to average: 3
Electric dark correction enabled: true
Nonlinearity correction enabled: false
Boxcar width: 3
XAxis mode: Wavelengths
Number of Pixels in Spectrum: 3648
>>>>>Begin Spectral Data<<<<<
179.494	97.63
179.716	45.69
179.937	3.85
180.158	-221.48
180.38	555.52
180.601	115.15
180.823	38.84
181.044	77.99
181.265	36.24
181.486	10.69
181.708	-1027.17
181.929	-182.44
182.15	-966.48
182.372	93.95
182.593	-40.33
182.814	431.59
183.035	337.5
183.257	193.85
183.478	99.64
183.699	123.65
183.92	92.59
184.141	77.01
184.363	64.46
184.584	44.33
184.805	36.58
185.026	38.86
185.247	18.22
185.468	11.66
185.689	21.31
185.91	12.29
186.132	26.98
186.353	18.77
186.574	26.36
186.795	16.23
187.016	13.06
187.237	6.9
187.458	8.18
187.679	-3.1
187.9	15.83
188.121	10.63
188.342	32.62
188.563	27.23
188.784	21.85
189.005	33.07
189.226	43.03
189.447	34.73
189.667	35.79
189.888	34.67
190.109	36.77
190.33	34.37
190.551	14.82
190.772	1.66
190.993	16.89
191.214	16.23
191.434	12.17
191.655	24.58
191.876	35.66
192.097	40.71
192.318	52.8
192.538	57.5
192.759	59.31
192.98	53.84
193.201	61.32
193.421	64.31
193.642	75.24
193.863	78.58
194.083	63.31
194.304	50.13
194.525	74.24
194.745	67.04
194.966	59.29
195.187	47.57
195.407	48.16
195.628	44.1
195.848	57.69
196.069	38.28
196.29	30.59
196.51	29.54
196.731	39.89
196.951	29.41
197.172	22.31
197.392	17.49
197.613	19.95
197.833	21.22
198.054	17.15
198.274	-6.58
198.495	-2.87
198.715	8.2
198.936	5
199.156	3.52
199.377	3.41
199.597	5.96
199.817	40.5
200.038	38.6
200.258	38.5
200.479	42.8
200.699	50.72
200.919	42.37
201.14	33.81
201.36	21.49
201.58	21.28
201.801	12.88
202.021	18.02
202.241	15.32
202.461	27.83
202.682	38
202.902	37.59
203.122	32.24
203.342	49.56
203.563	46.65
203.783	41.77
204.003	39.73
204.223	40.99
204.443	37.11
204.663	39.55
204.884	16.95
205.104	22.71
205.324	40.38
205.544	40.59
205.764	39.66
205.984	42.35
206.204	41.13
206.424	54.87
206.644	41.51
206.864	34.48
207.084	42.94
207.304	29.86
207.525	24.31
207.745	28.21
207.964	19.9
208.184	29.49
208.404	18.18
208.624	-2.07
208.844	16.08
209.064	33.08
209.284	39.09
209.504	32.63
209.724	3.92
209.944	18.84
210.164	22.87
210.384	19.11
210.604	-6.18
210.823	-10.75
211.043	-6.02
211.263	23.97
211.483	24.73
211.703	30.66
211.922	32.39
212.142	44.19
212.362	53.84
212.582	53.57
212.801	46.59
213.021	42.26
213.241	48.44
213.461	38.9
213.68	35.96
213.9	28.16
214.12	34.63
214.339	42.02
214.559	55.18
214.779	49.46
214.998	52.56
215.218	56.49
215.438	66.78
215.657	57.59
215.877	53.49
216.096	48.5
216.316	46.66
216.535	51.76
216.755	33.7
216.974	12.56
217.194	19.24
217.413	40.67
217.633	36.76
217.852	30.56
218.072	12.31
218.291	36.22
218.511	42.11
218.73	36.53
218.95	23.78
219.169	17.95
219.389	17.78
219.608	33.8
219.827	29.15
220.047	37.24
220.266	45.96
220.485	46.75
220.705	37.99
220.924	43.22
221.143	36.89
221.363	40.51
221.582	33.71
221.801	36.6
222.021	38.77
222.24	52.63
222.459	48.25
222.678	48.76
222.897	40.02
223.117	37.62
223.336	35.89
223.555	30.85
223.774	26.8
223.993	37.94
224.213	37.94
224.432	41.94
224.651	43.71
224.87	34.63
225.089	35.67
225.308	43.01
225.527	40.39
225.746	42.62
225.965	38.11
226.184	36.12
226.404	35.44
226.623	46.91
226.842	40.22
227.061	45.05
227.28	54.11
227.499	47.42
227.718	45.61
227.936	47.72
228.155	38.31
228.374	29.25
228.593	21.42
228.812	14.97
229.031	14.86
229.25	32.77
229.469	32.47
229.688	42.3
229.907	48.65
230.125	51.32
230.344	61.5
230.563	62.66
230.782	49.48
231.001	53.74
231.22	43.41
231.438	42.44
231.657	32.01
231.876	30.62
232.095	17.89
232.313	23.74
232.532	22.37
232.751	23.22
232.969	30.41
233.188	41.93
233.407	25.03
233.625	26.47
233.844	20.34
234.063	12.71
234.281	19.81
234.5	13.5
234.719	6.94
234.937	15.63
235.156	17.36
235.374	16.81
235.593	25.21
235.811	19.68
236.03	20.33
236.249	25.84
236.467	38.93
236.686	50.52
236.904	52.38
237.123	43.55
237.341	40.1
237.559	40.05
237.778	49.77
237.996	42.29
238.215	34.19
238.433	29.45
238.652	33.67
238.87	29.56
239.088	26.05
239.307	21.88
239.525	19.59
239.743	8.54
239.962	6.12
240.18	15.95
240.398	27.69
240.617	35.09
240.835	36.18
241.053	40.41
241.271	52.59
241.49	56.4
241.708	41.41
241.926	32.01
242.144	29.41
242.363	27.25
242.581	17.17
242.799	14.37
243.017	14.63
243.235	12.99
243.453	21.41
243.672	23.85
243.89	18.83
244.108	23.1
244.326	21.95
244.544	36.25
244.762	38.11
244.98	35.79
245.198	29.01
245.416	27.38
245.634	37.29
245.852	40.13
246.07	25.21
246.288	13.92
246.506	27.16
246.724	50.71
246.942	59.32
247.16	42.02
247.378	31.07
247.596	33.96
247.814	38.94
248.032	28.9
248.25	17.11
248.468	18.53
248.685	25.46
248.903	32.42
249.121	34.75
249.339	33.01
249.557	37.37
249.775	27.59
249.992	22.83
250.21	19.68
250.428	23.34
250.646	26.79
250.863	28.55
251.081	27.05
251.299	22.69
251.517	30.14
251.734	37.94
251.952	30.87
252.17	20.79
252.387	19.88
252.605	16.88
252.823	14.13
253.04	1.69
253.258	4.44
253.475	9.12
253.693	16.44
253.911	14.29
254.128	7.09
254.346	17.12
254.563	13.52
254.781	9.93
254.998	13.97
255.216	11.54
255.433	9.44
255.651	26.93
255.868	24.48
256.086	31.72
256.303	30.04
256.521	24.59
256.738	22.91
256.956	18.66
257.173	15.45
257.39	15.75
257.608	21.79
257.825	26.97
258.043	35.94
258.26	31.44
258.477	39.97
258.695	39.73
258.912	50.13
259.129	45.77
259.346	40.9
259.564	26.91
259.781	48.77
259.998	47.57
260.216	54.83
260.433	49.68
260.65	47.51
260.867	43.67
261.084	55.95
261.302	43.99
261.519	50.1
261.736	43.99
261.953	33.37
262.17	34.37
262.387	28.07
262.604	8.56
262.822	18.91
263.039	15.55
263.256	1.09
263.473	-0.51
263.69	-5.51
263.907	0.86
264.124	7.66
264.341	-2.35
264.558	9.05
264.775	21.25
264.992	31.6
265.209	41.61
265.426	49.3
265.643	45.89
265.86	50.15
266.077	45.28
266.294	44.58
266.51	40.71
266.727	26.25
266.944	19.51
267.161	22.92
267.378	9.21
267.595	3.34
267.812	-1.54
268.028	6.17
268.245	13.05
268.462	14.04
268.679	11.52
268.896	18.27
269.112	26.74
269.329	31.63
269.546	27.15
269.763	30.29
269.979	31.36
270.196	35.54
270.413	34.57
270.629	31.9
270.846	29.57
271.063	29.51
271.279	28.35
271.496	23.42
271.712	23.05
271.929	24.26
272.146	24.04
272.362	15.45
272.579	20.2
272.795	14.62
273.012	25.24
273.228	21.56
273.445	25.7
273.661	27.1
273.878	30.06
274.094	24.36
274.311	30.23
274.527	18.23
274.744	21.13
274.96	26.69
275.177	26.82
275.393	30.27
275.609	33.79
275.826	36.84
276.042	50.83
276.259	42.14
276.475	23.76
276.691	23.68
276.908	24.07
277.124	30.7
277.34	25.76
277.557	26.23
277.773	29.25
277.989	33.41
278.205	25.86
278.422	37.26
278.638	37.96
278.854	30.54
279.07	17.52
279.286	16.26
279.503	19.35
279.719	35.43
279.935	22.33
280.151	21.48
280.367	26.15
280.583	27.89
280.799	28.83
281.016	29.12
281.232	19.08
281.448	12.31
281.664	8.23
281.88	13.28
282.096	21.47
282.312	20.66
282.528	10.96
282.744	3.28
282.96	15.68
283.176	12.36
283.392	20.45
283.608	21.08
283.824	19.23
284.04	32.44
284.256	41.85
284.471	38.49
284.687	36.44
284.903	31.02
285.119	23.79
285.335	28.97
285.551	28.82
285.767	22.81
285.982	23.86
286.198	21.37
286.414	30.33
286.63	32.03
286.846	33.06
287.061	31.8
287.277	40.96
287.493	40.96
287.709	40.13
287.924	38.31
288.14	47.94
288.356	54.98
288.571	58.18
288.787	51.64
289.003	50.93
289.218	58.16
289.434	57.33
289.65	54.6
289.865	52.95
290.081	43.73
290.296	48.31
290.512	50.29
290.727	59.31
290.943	47.85
291.159	38.49
291.374	35.75
291.59	35.3
291.805	22.48
292.021	8.83
292.236	-0.78
292.451	9.22
292.667	18.74
292.882	13.43
293.098	19.9
293.313	26.57
293.529	39.27
293.744	40.53
293.959	43.28
294.175	37.41
294.39	52.75
294.605	50.04
294.821	48.04
295.036	47.85
295.251	51.41
295.467	43.07
295.682	47.07
295.897	33.65
296.112	28.01
296.328	28.59
296.543	17.74
296.758	11.36
296.973	14.07
297.188	10.19
297.404	17.65
297.619	20.11
297.834	22.59
298.049	26.57
298.264	24.93
298.479	16.95
298.694	20.6
298.909	19.27
299.125	25.93
299.34	22.19
299.555	27.5
299.77	34.25
299.985	36.5
300.2	31.96
300.415	30.92
300.63	18.37
300.845	20.83
301.06	22.19
301.275	21.42
301.49	27.54
301.704	26.54
301.919	17.39
302.134	15.02
302.349	6.88
302.564	-2.41
302.779	-8.4
302.994	-13.81
303.209	-19.94
303.423	3.81
303.638	19.53
303.853	31.82
304.068	29.63
304.283	30.56
304.497	29.68
304.712	38.53
304.927	24.24
305.142	22.39
305.356	16.72
305.571	22.49
305.786	16.41
306	19.13
306.215	14.24
306.43	29.66
306.644	37.68
306.859	40.24
307.074	39.53
307.288	55.48
307.503	52.42
307.717	46.01
307.932	40.33
308.147	31.41
308.361	30.13
308.576	30.9
308.79	15.61
309.005	16.13
309.219	19.57
309.434	17.96
309.648	19.99
309.863	19.23
310.077	3.39
310.292	10.57
310.506	22.24
310.72	11.06
310.935	9.79
311.149	10.8
311.364	13.91
311.578	24.8
311.792	20.51
312.007	10.51
312.221	22.69
312.435	28.53
312.649	25.8
312.864	19.56
313.078	19.3
313.292	27.59
313.507	23.45
313.721	17.31
313.935	33.86
314.149	35.65
314.363	44.19
314.578	46.62
314.792	47.4
315.006	46.63
315.22	53.3
315.434	32.12
315.648	31.44
315.862	28.7
316.077	30.88
316.291	27.06
316.505	33
316.719	18.89
316.933	30.97
317.147	26.71
317.361	23.81
317.575	19.38
317.789	27.03
318.003	27.52
318.217	33.15
318.431	35.34
318.645	44.62
318.859	35.91
319.073	33.38
319.287	36.37
319.5	35.73
319.714	32.62
319.928	30.14
320.142	31.29
320.356	46.56
320.57	46.49
320.784	38.56
320.997	45.1
321.211	55.98
321.425	48.81
321.639	48.02
321.853	35.95
322.066	32.64
322.28	33.04
322.494	27.17
322.707	20.49
322.921	20.16
323.135	29.16
323.349	38.08
323.562	46.83
323.776	49.99
323.989	48.71
324.203	55.4
324.417	59.78
324.63	38.62
324.844	26.38
325.057	25.75
325.271	17.93
325.485	19.47
325.698	15.27
325.912	28.21
326.125	34.65
326.339	48.43
326.552	44.65
326.766	52.07
326.979	49.19
327.193	54.12
327.406	40.97
327.619	35.92
327.833	23.7
328.046	22.33
328.26	17.63
328.473	15.69
328.686	7.78
328.9	3.18
329.113	5.44
329.326	14.61
329.54	15.67
329.753	19.14
329.966	19.41
330.179	23.73
330.393	25.7
330.606	32.13
330.819	32.44
331.032	31.92
331.246	34.89
331.459	45.44
331.672	51.46
331.885	54.93
332.098	55.08
332.311	50.26
332.525	47.85
332.738	44.37
332.951	34.94
333.164	26.58
333.377	19.12
333.59	28.13
333.803	35.66
334.016	37.66
334.229	30.18
334.442	35.74
334.655	37.74
334.868	48.85
335.081	48.84
335.294	46.67
335.507	46.43
335.72	39.17
335.933	45.06
336.146	41.42
336.359	31.94
336.572	21.33
336.785	25.01
336.997	20.45
337.21	33.04
337.423	31.31
337.636	40.97
337.849	38.73
338.062	39.47
338.274	35.97
338.487	28.2
338.7	26.09
338.913	20.37
339.125	12.7
339.338	23.49
339.551	23.93
339.763	20.94
339.976	22.36
340.189	18.13
340.402	20.28
340.614	23.44
340.827	8.67
341.039	16.05
341.252	19.73
341.465	23.45
341.677	21.46
341.89	20.88
342.102	21.25
342.315	37.77
342.527	27.26
342.74	23.19
342.952	25.4
343.165	33.34
343.377	29.67
343.59	27.22
343.802	20.67
344.015	23.73
344.227	22.83
344.44	11.16
344.652	16.51
344.864	20.98
345.077	29.54
345.289	35.42
345.502	42.32
345.714	42.01
345.926	46.32
346.139	36.31
346.351	18.69
346.563	9.24
346.775	-2.95
346.988	-4.91
347.2	6.89
347.412	13.1
347.624	14.19
347.837	22.24
348.049	20.27
348.261	28.72
348.473	17.83
348.685	18.52
348.897	19.34
349.11	16.56
349.322	19.01
349.534	18.17
349.746	10.27
349.958	20.22
350.17	25.42
350.382	18.41
350.594	12.52
350.806	22.89
351.018	28.98
351.23	33.84
351.442	32.11
351.654	25.02
351.866	35.86
352.078	37.61
352.29	31.12
352.502	29.86
352.714	24.26
352.926	22.91
353.138	27.74
353.35	9.78
353.561	8.35
353.773	12.85
353.985	19.6
354.197	17.19
354.409	21.65
354.621	19.26
354.832	24.57
355.044	31.61
355.256	26.6
355.468	18.01
355.679	25.15
355.891	27.12
356.103	28.23
356.314	31.82
356.526	25.72
356.738	21.24
356.949	21.23
357.161	17.51
357.373	16.04
357.584	17.6
357.796	22.4
358.008	24.96
358.219	37.05
358.431	38.11
358.642	34.15
358.854	34.68
359.065	28.95
359.277	26.71
359.488	34.43
359.7	34.82
359.911	32.69
360.123	37.03
360.334	33.23
360.546	26.03
360.757	22.23
360.969	24.65
361.18	14.22
361.391	10.83
361.603	8.49
361.814	13.71
362.025	18.04
362.237	17.33
362.448	5.85
362.659	-0.49
362.871	5.5
363.082	12.32
363.293	14.45
363.504	21.34
363.716	21.1
363.927	21.04
364.138	33.97
364.349	37.46
364.56	31.75
364.772	28.04
364.983	22
365.194	24.96
365.405	27
365.616	16.52
365.827	13.14
366.038	21.9
366.25	20.07
366.461	28.71
366.672	28.48
366.883	35.97
367.094	32.75
367.305	28.91
367.516	26.62
367.727	27.77
367.938	23.62
368.149	20.03
368.36	15.07
368.571	17.77
368.781	16.96
368.992	14.2
369.203	15.9
369.414	10.04
369.625	13.75
369.836	14.81
370.047	11.51
370.258	12.44
370.468	11.65
370.679	7.15
370.89	12.86
371.101	9.76
371.312	3.23
371.522	8.24
371.733	6.68
371.944	5.34
372.155	-0.48
372.365	-1.59
372.576	-0.82
372.787	2.52
372.997	2.55
373.208	2.99
373.419	2.27
373.629	15.11
373.84	14.73
374.05	15.72
374.261	16.45
374.472	8.18
374.682	2.2
374.893	0.4
375.103	-2.52
375.314	-3.73
375.524	-9.35
375.735	-7.61
375.945	0.48
376.156	6.85
376.366	13.72
376.577	14.3
376.787	21.2
376.997	29.57
377.208	28.42
377.418	29.26
377.629	29.25
377.839	27.3
378.049	29.48
378.26	26.69
378.47	26.26
378.68	28.62
378.89	29.71
379.101	25.78
379.311	19.2
379.521	22.51
379.732	16.03
379.942	18.1
380.152	22.91
380.362	19.68
380.572	25.8
380.783	26.25
380.993	17.77
381.203	21.49
381.413	20.49
381.623	18.1
381.833	11.81
382.043	4.59
382.253	12.93
382.463	17.19
382.674	18.44
382.884	17.24
383.094	15.5
383.304	19.85
383.514	24.59
383.724	22.4
383.934	19.92
384.144	25.04
384.353	23.73
384.563	18.42
384.773	18.14
384.983	16.95
385.193	14.55
385.403	18.45
385.613	9.94
385.823	9.88
386.033	10.31
386.242	7.73
386.452	9.08
386.662	11.19
386.872	6.07
387.082	9.26
387.291	9.86
387.501	12.47
387.711	12.98
387.921	9.88
388.13	6.91
388.34	6.8
388.55	5.97
388.759	4.51
388.969	2.09
389.179	4.63
389.388	7.32
389.598	8.06
389.807	8.43
390.017	7.95
390.227	8.51
390.436	9.41
390.646	8.06
390.855	6.53
391.065	6.27
391.274	5.99
391.484	6.92
391.693	7.51
391.903	6.96
392.112	6.89
392.322	8.81
392.531	8.5
392.74	7.86
392.95	8.05
393.159	7.65
393.369	8.38
393.578	8.21
393.787	6.89
393.997	8.92
394.206	9.5
394.415	8.77
394.625	7.34
394.834	6.96
395.043	7.59
395.252	7.22
395.462	5.65
395.671	5.49
395.88	5.62
396.089	5.96
396.298	5.51
396.508	4.46
396.717	4.43
396.926	4.3
397.135	3.83
397.344	3.35
397.553	3.56
397.762	3.53
397.971	3.46
398.181	3.24
398.39	3.02
398.599	3.61
398.808	3.64
399.017	3.82
399.226	3.86
399.435	3.94
399.644	3.77
399.853	3.77
400.062	3.66
400.27	3.75
400.479	3.62
400.688	3.52
400.897	3.68
401.106	4.06
401.315	3.93
401.524	3.87
401.733	3.81
401.941	3.67
402.15	3.61
402.359	3.39
402.568	3.2
402.777	3.12
402.985	2.89
403.194	2.86
403.403	2.85
403.612	2.89
403.82	2.98
404.029	2.93
404.238	2.97
404.446	2.96
404.655	2.86
404.864	2.76
405.072	2.71
405.281	2.6
405.489	2.66
405.698	2.59
405.906	2.59
406.115	2.65
406.324	2.64
406.532	2.64
406.741	2.67
406.949	2.63
407.158	2.78
407.366	2.88
407.574	2.9
407.783	2.85
407.991	2.75
408.2	2.71
408.408	2.71
408.617	2.65
408.825	2.57
409.033	2.52
409.242	2.5
409.45	2.59
409.658	2.56
409.867	2.57
410.075	2.51
410.283	2.52
410.491	2.51
410.7	2.58
410.908	2.58
411.116	2.61
411.324	2.57
411.533	2.51
411.741	2.51
411.949	2.59
412.157	2.6
412.365	2.57
412.573	2.64
412.781	2.69
412.99	2.78
413.198	2.69
413.406	2.63
413.614	2.64
413.822	2.67
414.03	2.55
414.238	2.54
414.446	2.49
414.654	2.58
414.862	2.5
415.07	2.51
415.278	2.48
415.486	2.63
415.694	2.51
415.902	2.58
416.109	2.64
416.317	2.67
416.525	2.72
416.733	2.67
416.941	2.48
417.149	2.62
417.357	2.61
417.564	2.51
417.772	2.53
417.98	2.43
418.188	2.37
418.395	2.45
418.603	2.34
418.811	2.28
419.019	2.37
419.226	2.38
419.434	2.28
419.642	2.32
419.849	2.32
420.057	2.33
420.265	2.39
420.472	2.21
420.68	2.22
420.887	2.34
421.095	2.44
421.302	2.5
421.51	2.59
421.717	2.53
421.925	2.62
422.132	2.48
422.34	2.36
422.547	2.3
422.755	2.21
422.962	2.12
423.17	2.15
423.377	2.26
423.585	2.41
423.792	2.52
423.999	2.51
424.207	2.5
424.414	2.62
424.621	2.56
424.829	2.39
425.036	2.24
425.243	2.3
425.451	2.36
425.658	2.37
425.865	2.24
426.072	2.3
426.28	2.38
426.487	2.4
426.694	2.26
426.901	2.17
427.108	2.15
427.315	2.16
427.523	2.17
427.73	2.22
427.937	2.28
428.144	2.31
428.351	2.37
428.558	2.34
428.765	2.31
428.972	2.27
429.179	2.14
429.386	2.18
429.593	2.12
429.8	2.12
430.007	2.18
430.214	2.23
430.421	2.23
430.628	2.13
430.835	2.01
431.042	2.12
431.249	2.03
431.456	1.99
431.662	1.93
431.869	1.98
432.076	2.08
432.283	2.1
432.49	2.12
432.697	2.2
432.903	2.24
433.11	2.32
433.317	2.34
433.524	2.32
433.73	2.36
433.937	2.26
434.144	2.32
434.35	2.3
434.557	2.27
434.764	2.22
434.97	2.35
435.177	2.34
435.384	2.51
435.59	2.42
435.797	2.42
436.003	2.39
436.21	2.31
436.416	2.26
436.623	2.31
436.829	2.21
437.036	2.24
437.242	2.25
437.449	2.29
437.655	2.38
437.862	2.4
438.068	2.45
438.275	2.43
438.481	2.5
438.687	2.54
438.894	2.56
439.1	2.59
439.307	2.58
439.513	2.49
439.719	2.57
439.926	2.53
440.132	2.51
440.338	2.57
440.544	2.5
440.751	2.55
440.957	2.59
441.163	2.6
441.369	2.61
441.575	2.63
441.782	2.58
441.988	2.61
442.194	2.64
442.4	2.6
442.606	2.56
442.812	2.55
443.018	2.52
443.224	2.55
443.431	2.57
443.637	2.49
443.843	2.51
444.049	2.53
444.255	2.51
444.461	2.55
444.667	2.53
444.873	2.5
445.079	2.52
445.284	2.54
445.49	2.53
445.696	2.59
445.902	2.67
446.108	2.68
446.314	2.74
446.52	2.79
446.726	2.8
446.931	2.83
447.137	2.82
447.343	2.74
447.549	2.7
447.755	2.68
447.96	2.61
448.166	2.62
448.372	2.6
448.578	2.58
448.783	2.59
448.989	2.65
449.195	2.68
449.4	2.69
449.606	2.67
449.812	2.74
450.017	2.74
450.223	2.74
450.428	2.74
450.634	2.76
450.84	2.83
451.045	2.8
451.251	2.8
451.456	2.81
451.662	2.76
451.867	2.79
452.073	2.77
452.278	2.69
452.483	2.71
452.689	2.68
452.894	2.66
453.1	2.65
453.305	2.62
453.51	2.64
453.716	2.66
453.921	2.69
454.127	2.68
454.332	2.69
454.537	2.8
454.742	2.79
454.948	2.74
455.153	2.78
455.358	2.81
455.563	2.82
455.769	2.8
455.974	2.72
456.179	2.68
456.384	2.74
456.589	2.76
456.795	2.66
457	2.68
457.205	2.69
457.41	2.76
457.615	2.85
457.82	2.89
458.025	2.87
458.23	2.93
458.435	2.94
458.64	2.98
458.845	2.94
459.05	2.88
459.255	2.84
459.46	2.81
459.665	2.85
459.87	2.87
460.075	2.84
460.28	2.85
460.485	2.87
460.69	2.83
460.895	2.87
461.099	2.83
461.304	2.79
461.509	2.75
461.714	2.78
461.919	2.76
462.123	2.85
462.328	2.83
462.533	2.83
462.738	2.83
462.942	2.86
463.147	2.82
463.352	2.87
463.556	2.86
463.761	2.87
463.966	2.94
464.17	2.95
464.375	2.95
464.58	2.96
464.784	2.95
464.989	2.93
465.193	2.95
465.398	2.92
465.602	2.93
465.807	2.97
466.011	3
466.216	2.99
466.42	3.05
466.625	3.04
466.829	3.07
467.034	3.11
467.238	3.14
467.443	3.18
467.647	3.25
467.851	3.24
468.056	3.26
468.26	3.21
468.464	3.21
468.669	3.21
468.873	3.21
469.077	3.15
469.282	3.15
469.486	3.19
469.69	3.22
469.894	3.22
470.099	3.22
470.303	3.23
470.507	3.26
470.711	3.23
470.915	3.24
471.119	3.3
471.324	3.27
471.528	3.31
471.732	3.29
471.936	3.35
472.14	3.35
472.344	3.35
472.548	3.37
472.752	3.43
472.956	3.48
473.16	3.49
473.364	3.44
473.568	3.5
473.772	3.56
473.976	3.54
474.18	3.51
474.384	3.43
474.588	3.47
474.792	3.49
474.995	3.48
475.199	3.47
475.403	3.51
475.607	3.54
475.811	3.59
476.015	3.61
476.218	3.63
476.422	3.66
476.626	3.63
476.83	3.6
477.033	3.64
477.237	3.61
477.441	3.62
477.644	3.66
477.848	3.64
478.052	3.69
478.255	3.72
478.459	3.76
478.663	3.8
478.866	3.78
479.07	3.79
479.273	3.79
479.477	3.81
479.681	3.85
479.884	3.82
480.088	3.82
480.291	3.84
480.495	3.85
480.698	3.84
480.901	3.81
481.105	3.82
481.308	3.8
481.512	3.81
481.715	3.83
481.919	3.85
482.122	3.91
482.325	3.93
482.529	3.94
482.732	3.98
482.935	4.02
483.138	3.99
483.342	4
483.545	3.95
483.748	3.97
483.952	3.95
484.155	3.96
484.358	3.92
484.561	3.93
484.764	3.96
484.967	4.02
485.171	4
485.374	4.03
485.577	4.07
485.78	4.08
485.983	4.1
486.186	4.11
486.389	4.12
486.592	4.15
486.795	4.13
486.998	4.09
487.201	4.08
487.404	4.13
487.607	4.11
487.81	4.1
488.013	4.1
488.216	4.09
488.419	4.11
488.622	4.12
488.825	4.08
489.028	4.05
489.231	4.05
489.433	4.04
489.636	4.07
489.839	4.07
490.042	4.11
490.245	4.13
490.447	4.13
490.65	4.17
490.853	4.17
491.056	4.17
491.258	4.16
491.461	4.12
491.664	4.1
491.866	4.13
492.069	4.11
492.272	4.1
492.474	4.1
492.677	4.11
492.879	4.14
493.082	4.18
493.285	4.19
493.487	4.21
493.69	4.24
493.892	4.26
494.095	4.25
494.297	4.26
494.5	4.28
494.702	4.29
494.905	4.27
495.107	4.26
495.309	4.2
495.512	4.24
495.714	4.27
495.917	4.24
496.119	4.28
496.321	4.31
496.524	4.35
496.726	4.4
496.928	4.43
497.13	4.48
497.333	4.52
497.535	4.52
497.737	4.51
497.939	4.49
498.142	4.54
498.344	4.53
498.546	4.55
498.748	4.55
498.95	4.54
499.152	4.57
499.355	4.61
499.557	4.58
499.759	4.62
499.961	4.64
500.163	4.7
500.365	4.72
500.567	4.76
500.769	4.81
500.971	4.86
501.173	4.82
501.375	4.8
501.577	4.79
501.779	4.81
501.981	4.78
502.183	4.74
502.385	4.75
502.587	4.78
502.788	4.83
502.99	4.85
503.192	4.87
503.394	4.9
503.596	4.97
503.798	5.03
503.999	5.04
504.201	5.04
504.403	5.02
504.605	5.06
504.806	5.11
505.008	5.11
505.21	5.11
505.411	5.16
505.613	5.22
505.815	5.27
506.016	5.31
506.218	5.32
506.42	5.37
506.621	5.37
506.823	5.38
507.024	5.37
507.226	5.37
507.427	5.4
507.629	5.43
507.83	5.42
508.032	5.51
508.233	5.52
508.435	5.52
508.636	5.55
508.838	5.56
509.039	5.6
509.24	5.62
509.442	5.6
509.643	5.61
509.845	5.64
510.046	5.64
510.247	5.69
510.448	5.7
510.65	5.72
510.851	5.79
511.052	5.84
511.254	5.85
511.455	5.85
511.656	5.83
511.857	5.83
512.058	5.87
512.26	5.84
512.461	5.85
512.662	5.87
512.863	5.9
513.064	5.94
513.265	5.96
513.466	6.01
513.667	6.03
513.868	6.07
514.069	6.1
514.27	6.16
514.471	6.18
514.672	6.2
514.873	6.24
515.074	6.29
515.275	6.27
515.476	6.3
515.677	6.3
515.878	6.35
516.079	6.4
516.28	6.37
516.481	6.35
516.682	6.42
516.882	6.43
517.083	6.43
517.284	6.4
517.485	6.38
517.686	6.4
517.886	6.44
518.087	6.44
518.288	6.46
518.488	6.5
518.689	6.54
518.89	6.59
519.091	6.62
519.291	6.66
519.492	6.66
519.692	6.72
519.893	6.71
520.094	6.74
520.294	6.75
520.495	6.77
520.695	6.75
520.896	6.78
521.096	6.76
521.297	6.81
521.497	6.82
521.698	6.85
521.898	6.88
522.099	6.94
522.299	6.95
522.499	6.99
522.7	7
522.9	7.01
523.101	7.02
523.301	7.02
523.501	7.02
523.702	7.03
523.902	7.05
524.102	7.08
524.302	7.12
524.503	7.14
524.703	7.15
524.903	7.18
525.103	7.2
525.304	7.21
525.504	7.2
525.704	7.19
525.904	7.19
526.104	7.22
526.304	7.21
526.504	7.22
526.705	7.24
526.905	7.27
527.105	7.29
527.305	7.29
527.505	7.32
527.705	7.32
527.905	7.34
528.105	7.35
528.305	7.37
528.505	7.38
528.705	7.41
528.905	7.4
529.105	7.46
529.304	7.5
529.504	7.52
529.704	7.51
529.904	7.57
530.104	7.57
530.304	7.6
530.503	7.6
530.703	7.6
530.903	7.6
531.103	7.64
531.303	7.68
531.502	7.7
531.702	7.71
531.902	7.74
532.101	7.76
532.301	7.79
532.501	7.8
532.7	7.78
532.9	7.82
533.1	7.85
533.299	7.89
533.499	7.91
533.698	7.98
533.898	8
534.097	8.03
534.297	8.1
534.496	8.11
534.696	8.14
534.895	8.21
535.095	8.21
535.294	8.22
535.494	8.25
535.693	8.26
535.892	8.29
536.092	8.3
536.291	8.31
536.491	8.36
536.69	8.41
536.889	8.42
537.088	8.41
537.288	8.44
537.487	8.46
537.686	8.49
537.886	8.48
538.085	8.51
538.284	8.57
538.483	8.61
538.682	8.66
538.882	8.72
539.081	8.78
539.28	8.8
539.479	8.83
539.678	8.85
539.877	8.89
540.076	8.92
540.275	8.94
540.474	8.92
540.673	9
540.872	9.07
541.071	9.11
541.27	9.14
541.469	9.22
541.668	9.25
541.867	9.31
542.066	9.32
542.265	9.33
542.464	9.36
542.663	9.42
542.862	9.4
543.06	9.46
543.259	9.49
543.458	9.53
543.657	9.59
543.856	9.65
544.054	9.7
544.253	9.77
544.452	9.76
544.651	9.81
544.849	9.85
545.048	9.89
545.247	9.92
545.445	9.91
545.644	9.96
545.843	10.03
546.041	10.08
546.24	10.15
546.438	10.23
546.637	10.3
546.836	10.4
547.034	10.44
547.233	10.49
547.431	10.55
547.63	10.62
547.828	10.65
548.027	10.7
548.225	10.8
548.423	10.89
548.622	11.01
548.82	11.07
549.019	11.15
549.217	11.28
549.415	11.36
549.614	11.37
549.812	11.45
550.01	11.51
550.209	11.57
550.407	11.66
550.605	11.7
550.803	11.79
551.002	11.86
551.2	11.94
551.398	11.99
551.596	12.06
551.794	12.12
551.993	12.16
552.191	12.27
552.389	12.39
552.587	12.44
552.785	12.53
552.983	12.67
553.181	12.75
553.379	12.84
553.577	12.9
553.775	12.99
553.973	13.11
554.171	13.2
554.369	13.25
554.567	13.33
554.765	13.41
554.963	13.46
555.161	13.55
555.359	13.6
555.557	13.72
555.755	13.81
555.952	13.91
556.15	14
556.348	14.11
556.546	14.2
556.744	14.32
556.941	14.44
557.139	14.57
557.337	14.66
557.535	14.78
557.732	14.91
557.93	15.01
558.128	15.1
558.325	15.18
558.523	15.23
558.721	15.4
558.918	15.53
559.116	15.61
559.313	15.72
559.511	15.83
559.708	15.93
559.906	16.04
560.104	16.1
560.301	16.15
560.498	16.24
560.696	16.34
560.893	16.44
561.091	16.55
561.288	16.67
561.486	16.76
561.683	16.89
561.88	17.02
562.078	17.11
562.275	17.22
562.473	17.31
562.67	17.42
562.867	17.5
563.064	17.63
563.262	17.73
563.459	17.82
563.656	17.95
563.853	18.07
564.051	18.18
564.248	18.29
564.445	18.38
564.642	18.47
564.839	18.63
565.036	18.68
565.234	18.8
565.431	18.87
565.628	18.97
565.825	19.07
566.022	19.15
566.219	19.21
566.416	19.32
566.613	19.41
566.81	19.54
567.007	19.63
567.204	19.72
567.401	19.83
567.598	19.88
567.795	19.96
567.991	20.06
568.188	20.13
568.385	20.22
568.582	20.32
568.779	20.42
568.976	20.55
569.172	20.62
569.369	20.61
569.566	20.59
569.763	20.64
569.96	20.68
570.156	20.71
570.353	20.73
570.55	20.81
570.746	20.87
570.943	20.99
571.14	21.01
571.336	21.01
571.533	21.08
571.729	21.15
571.926	21.16
572.123	21.23
572.319	21.28
572.516	21.35
572.712	21.47
572.909	21.48
573.105	21.56
573.302	21.59
573.498	21.61
573.695	21.61
573.891	21.6
574.087	21.54
574.284	21.56
574.48	21.53
574.677	21.54
574.873	21.59
575.069	21.65
575.266	21.71
575.462	21.79
575.658	21.79
575.854	21.83
576.051	21.85
576.247	21.82
576.443	21.81
576.639	21.85
576.835	21.82
577.032	21.82
577.228	21.8
577.424	21.85
577.62	21.91
577.816	21.98
578.012	21.92
578.208	21.98
578.404	21.99
578.6	22.06
578.796	22.02
578.993	21.98
579.189	21.93
579.384	21.98
579.58	21.95
579.776	21.92
579.972	21.85
580.168	21.86
580.364	21.89
580.56	21.87
580.756	21.81
580.952	21.82
581.148	21.83
581.343	21.84
581.539	21.76
581.735	21.73
581.931	21.74
582.127	21.74
582.322	21.7
582.518	21.67
582.714	21.62
582.909	21.66
583.105	21.64
583.301	21.59
583.496	21.55
583.692	21.48
583.888	21.46
584.083	21.49
584.279	21.52
584.474	21.5
584.67	21.54
584.866	21.62
585.061	21.7
585.257	21.74
585.452	21.73
585.648	21.69
585.843	21.74
586.039	21.68
586.234	21.62
586.429	21.59
586.625	21.56
586.82	21.5
587.015	21.51
587.211	21.51
587.406	21.56
587.601	21.55
587.797	21.55
587.992	21.57
588.187	21.66
588.383	21.68
588.578	21.63
588.773	21.64
588.968	21.67
589.163	21.71
589.359	21.72
589.554	21.75
589.749	21.77
589.944	21.85
590.139	21.9
590.334	21.92
590.529	21.98
590.724	22
590.919	22.05
591.114	22.05
591.309	22.07
591.504	22.07
591.699	22.11
591.894	22.16
592.089	22.21
592.284	22.2
592.479	22.25
592.674	22.3
592.869	22.35
593.064	22.47
593.259	22.47
593.454	22.54
593.648	22.59
593.843	22.66
594.038	22.72
594.233	22.84
594.428	22.88
594.622	22.88
594.817	22.95
595.012	23.08
595.206	23.13
595.401	23.13
595.596	23.16
595.79	23.22
595.985	23.37
596.18	23.46
596.374	23.54
596.569	23.68
596.763	23.84
596.958	23.83
597.153	23.9
597.347	23.99
597.542	24.04
597.736	24.12
597.931	24.15
598.125	24.23
598.319	24.38
598.514	24.44
598.708	24.49
598.903	24.58
599.097	24.65
599.291	24.7
599.486	24.74
599.68	24.78
599.874	24.87
600.069	24.89
600.263	24.92
600.457	24.91
600.651	24.95
600.846	25.01
601.04	25.05
601.234	25.13
601.428	25.18
601.622	25.2
601.817	25.3
602.011	25.39
602.205	25.4
602.399	25.42
602.593	25.43
602.787	25.51
602.981	25.56
603.175	25.55
603.369	25.5
603.563	25.52
603.757	25.52
603.951	25.52
604.145	25.51
604.339	25.52
604.533	25.53
604.727	25.53
604.921	25.47
605.115	25.46
605.309	25.45
605.502	25.44
605.696	25.36
605.89	25.39
606.084	25.35
606.278	25.34
606.471	25.34
606.665	25.28
606.859	25.2
607.053	25.14
607.246	25.02
607.44	24.94
607.634	24.9
607.827	24.81
608.021	24.75
608.214	24.66
608.408	24.61
608.602	24.58
608.795	24.53
608.989	24.44
609.182	24.45
609.376	24.35
609.569	24.28
609.763	24.25
609.956	24.1
610.15	24.04
610.343	24
610.537	23.91
610.73	23.88
610.923	23.88
611.117	23.75
611.31	23.72
611.504	23.72
611.697	23.64
611.89	23.53
612.083	23.43
612.277	23.27
612.47	23.23
612.663	23.21
612.856	23.1
613.05	23.01
613.243	22.94
613.436	22.87
613.629	22.84
613.822	22.75
614.015	22.65
614.209	22.58
614.402	22.48
614.595	22.4
614.788	22.33
614.981	22.26
615.174	22.18
615.367	22.11
615.56	22
615.753	21.94
615.946	21.96
616.139	21.91
616.332	21.76
616.525	21.75
616.718	21.7
616.911	21.66
617.103	21.61
617.296	21.52
617.489	21.45
617.682	21.5
617.875	21.39
618.067	21.31
618.26	21.25
618.453	21.17
618.646	21.11
618.838	21.07
619.031	21
619.224	21.03
619.417	21
619.609	20.97
619.802	20.97
619.994	20.91
620.187	20.88
620.38	20.92
620.572	20.88
620.765	20.84
620.957	20.78
621.15	20.69
621.342	20.68
621.535	20.63
621.727	20.52
621.92	20.47
622.112	20.49
622.305	20.47
622.497	20.51
622.69	20.47
622.882	20.48
623.074	20.45
623.267	20.4
623.459	20.33
623.651	20.34
623.844	20.33
624.036	20.32
624.228	20.26
624.42	20.3
624.613	20.31
624.805	20.31
624.997	20.31
625.189	20.26
625.381	20.21
625.574	20.2
625.766	20.1
625.958	20.05
626.15	20.04
626.342	20.02
626.534	19.98
626.726	19.99
626.918	19.92
627.11	19.93
627.302	19.97
627.494	19.9
627.686	19.82
627.878	19.76
628.07	19.7
628.262	19.68
628.454	19.65
628.646	19.6
628.838	19.52
629.029	19.45
629.221	19.46
629.413	19.45
629.605	19.37
629.797	19.31
629.989	19.24
630.18	19.24
630.372	19.3
630.564	19.26
630.755	19.2
630.947	19.19
631.139	19.15
631.33	19.11
631.522	19.05
631.714	18.98
631.905	19
632.097	18.97
632.289	18.95
632.48	18.9
632.672	18.84
632.863	18.85
633.055	18.83
633.246	18.8
633.438	18.77
633.629	18.74
633.821	18.77
634.012	18.8
634.203	18.8
634.395	18.76
634.586	18.69
634.777	18.65
634.969	18.65
635.16	18.61
635.351	18.54
635.543	18.48
635.734	18.44
635.925	18.49
636.117	18.54
636.308	18.5
636.499	18.47
636.69	18.53
636.881	18.51
637.073	18.48
637.264	18.43
637.455	18.39
637.646	18.42
637.837	18.42
638.028	18.38
638.219	18.4
638.41	18.41
638.601	18.37
638.792	18.31
638.983	18.23
639.174	18.24
639.365	18.18
639.556	18.13
639.747	18.12
639.938	18.09
640.129	18.09
640.32	18.08
640.511	18.01
640.701	17.94
640.892	17.92
641.083	17.89
641.274	17.85
641.465	17.83
641.655	17.82
641.846	17.78
642.037	17.83
642.228	17.78
642.418	17.71
642.609	17.72
642.8	17.68
642.99	17.63
643.181	17.65
643.372	17.6
643.562	17.56
643.753	17.58
643.943	17.48
644.134	17.48
644.324	17.44
644.515	17.39
644.705	17.41
644.896	17.36
645.086	17.31
645.277	17.38
645.467	17.33
645.658	17.33
645.848	17.3
646.038	17.2
646.229	17.16
646.419	17.16
646.61	17.07
646.8	17.05
646.99	17.01
647.18	16.97
647.371	16.97
647.561	16.98
647.751	16.92
647.941	16.9
648.132	16.91
648.322	16.88
648.512	16.87
648.702	16.84
648.892	16.8
649.082	16.81
649.272	16.71
649.462	16.63
649.653	16.63
649.843	16.57
650.033	16.52
650.223	16.48
650.413	16.4
650.603	16.42
650.793	16.34
650.983	16.26
651.172	16.19
651.362	16.14
651.552	16.09
651.742	16.03
651.932	16
652.122	16.01
652.312	15.9
652.502	15.88
652.691	15.87
652.881	15.78
653.071	15.7
653.261	15.59
653.45	15.46
653.64	15.44
653.83	15.33
654.019	15.16
654.209	15.04
654.399	14.93
654.588	14.85
654.778	14.76
654.968	14.61
655.157	14.5
655.347	14.39
655.536	14.24
655.726	14.13
655.915	13.96
656.105	13.82
656.294	13.71
656.484	13.55
656.673	13.41
656.863	13.29
657.052	13.13
657.241	12.98
657.431	12.83
657.62	12.64
657.809	12.5
657.999	12.36
658.188	12.19
658.377	12.06
658.567	11.87
658.756	11.67
658.945	11.54
659.134	11.31
659.324	11.13
659.513	10.99
659.702	10.75
659.891	10.56
660.08	10.44
660.269	10.26
660.458	10.16
660.648	10.01
660.837	9.85
661.026	9.75
661.215	9.68
661.404	9.49
661.593	9.29
661.782	9.11
661.971	8.97
662.16	8.79
662.349	8.62
662.538	8.47
662.726	8.37
662.915	8.32
663.104	8.16
663.293	8.03
663.482	7.91
663.671	7.82
663.86	7.74
664.048	7.63
664.237	7.52
664.426	7.52
664.615	7.43
664.803	7.34
664.992	7.31
665.181	7.2
665.369	7.1
665.558	7
665.747	6.93
665.935	6.92
666.124	6.86
666.312	6.7
666.501	6.63
666.69	6.58
666.878	6.53
667.067	6.43
667.255	6.3
667.444	6.32
667.632	6.25
667.82	6.19
668.009	6.19
668.197	6.13
668.386	6.07
668.574	6.02
668.762	5.9
668.951	5.92
669.139	5.94
669.327	5.91
669.516	5.9
669.704	5.93
669.892	6
670.08	5.99
670.269	5.94
670.457	5.84
670.645	5.82
670.833	5.8
671.021	5.73
671.21	5.7
671.398	5.73
671.586	5.75
671.774	5.75
671.962	5.77
672.15	5.79
672.338	5.86
672.526	5.82
672.714	5.85
672.902	5.88
673.09	5.97
673.278	5.99
673.466	6.06
673.654	6.05
673.842	6.11
674.03	6.15
674.218	6.2
674.405	6.28
674.593	6.26
674.781	6.27
674.969	6.36
675.157	6.41
675.344	6.45
675.532	6.48
675.72	6.46
675.908	6.57
676.095	6.7
676.283	6.73
676.471	6.77
676.658	6.83
676.846	6.93
677.033	7.02
677.221	7.08
677.409	7.09
677.596	7.17
677.784	7.23
677.971	7.26
678.159	7.33
678.346	7.34
678.534	7.42
678.721	7.49
678.909	7.53
679.096	7.61
679.283	7.72
679.471	7.88
679.658	8.03
679.846	8.1
680.033	8.19
680.22	8.27
680.408	8.41
680.595	8.52
680.782	8.55
680.969	8.59
681.157	8.68
681.344	8.85
681.531	9
681.718	9.11
681.905	9.16
682.093	9.32
682.28	9.53
682.467	9.66
682.654	9.71
682.841	9.89
683.028	10.07
683.215	10.24
683.402	10.32
683.589	10.51
683.776	10.72
683.963	10.92
684.15	11.1
684.337	11.29
684.524	11.55
684.711	11.83
684.898	12.02
685.085	12.25
685.271	12.53
685.458	12.82
685.645	13.08
685.832	13.4
686.019	13.8
686.205	14.16
686.392	14.5
686.579	14.81
686.766	15.11
686.952	15.59
687.139	15.92
687.326	16.27
687.512	16.59
687.699	16.98
687.886	17.51
688.072	18
688.259	18.4
688.445	18.92
688.632	19.41
688.818	19.96
689.005	20.6
689.191	21.06
689.378	21.5
689.564	22.02
689.751	22.71
689.937	23.28
690.124	23.85
690.31	24.31
690.496	24.89
690.683	25.56
690.869	26.16
691.055	26.72
691.242	27.26
691.428	27.92
691.614	28.6
691.8	29.24
691.987	29.93
692.173	30.61
692.359	31.18
692.545	31.92
692.731	32.56
692.918	33.25
693.104	33.94
693.29	34.66
693.476	35.29
693.662	35.96
693.848	36.5
694.034	37.21
694.22	37.94
694.406	38.7
694.592	39.39
694.778	40.08
694.964	40.8
695.15	41.49
695.336	42.21
695.522	42.86
695.708	43.62
695.894	44.27
696.08	44.94
696.265	45.56
696.451	46.36
696.637	46.97
696.823	47.61
697.009	48.26
697.194	48.9
697.38	49.55
697.566	50.28
697.751	50.9
697.937	51.6
698.123	52.29
698.308	52.69
698.494	53.21
698.68	53.94
698.865	54.58
699.051	55.15
699.236	55.65
699.422	56.12
699.607	56.66
699.793	57.43
699.978	57.69
700.164	58.16
700.349	58.61
700.535	59.15
700.72	59.62
700.906	60.15
701.091	60.3
701.276	60.81
701.462	61.21
701.647	61.61
701.832	61.87
702.018	62.26
702.203	62.59
702.388	63.09
702.573	63.71
702.759	64.21
702.944	64.58
703.129	64.99
703.314	65.52
703.499	66.05
703.684	66.41
703.87	66.69
704.055	66.92
704.24	67.49
704.425	68.1
704.61	68.25
704.795	68.52
704.98	68.82
705.165	68.99
705.35	69.22
705.535	69.56
705.72	69.75
705.905	70.05
706.09	70.35
706.275	70.7
706.459	71.12
706.644	71.44
706.829	71.58
707.014	71.65
707.199	71.91
707.384	72.12
707.568	72.42
707.753	72.71
707.938	72.99
708.123	73.18
708.307	73.78
708.492	73.96
708.677	74.28
708.861	74.38
709.046	74.23
709.231	74.48
709.415	74.76
709.6	74.55
709.784	74.94
709.969	75.28
710.153	75.7
710.338	76.15
710.522	76.16
710.707	75.88
710.891	76.12
711.076	76.06
711.26	76.01
711.445	75.83
711.629	75.94
711.813	76
711.998	76.56
712.182	76.85
712.366	77.18
712.551	77.32
712.735	77.43
712.919	77.64
713.103	77.95
713.288	78.15
713.472	78.09
713.656	77.92
713.84	78.1
714.024	78.62
714.208	78.62
714.393	78.89
714.577	78.79
714.761	79
714.945	79.22
715.129	79.17
715.313	79.06
715.497	79.19
715.681	79.18
715.865	79.21
716.049	79.33
716.233	79.57
716.417	79.73
716.601	79.76
716.785	79.79
716.968	79.7
717.152	79.95
717.336	80.2
717.52	80.25
717.704	80.59
717.888	80.85
718.071	80.9
718.255	81.21
718.439	81.03
718.622	81.02
718.806	80.94
718.99	80.82
719.174	80.91
719.357	81.07
719.541	81.15
719.724	81.57
719.908	81.57
720.092	81.82
720.275	81.93
720.459	81.93
720.642	82.18
720.826	82.1
721.009	82.07
721.193	81.93
721.376	81.82
721.559	81.97
721.743	81.82
721.926	81.62
722.11	81.87
722.293	81.68
722.476	81.64
722.66	81.71
722.843	81.77
723.026	81.92
723.21	82.03
723.393	81.91
723.576	81.93
723.759	82.29
723.942	82.62
724.126	82.35
724.309	82.4
724.492	82.63
724.675	82.62
724.858	83.05
725.041	83.13
725.224	83.09
725.407	83.27
725.59	83.49
725.774	83.52
725.957	83.77
726.14	83.72
726.322	83.42
726.505	83.78
726.688	83.81
726.871	83.73
727.054	83.8
727.237	83.8
727.42	84.13
727.603	84.62
727.786	84.56
727.968	84.76
728.151	84.93
728.334	84.66
728.517	84.78
728.699	84.87
728.882	85.42
729.065	85.25
729.248	85.29
729.43	85.33
729.613	85.62
729.796	85.28
729.978	85.25
730.161	85
730.343	85.37
730.526	85.47
730.708	85.95
730.891	86.29
731.073	86.48
731.256	86.67
731.438	86.45
731.621	86.71
731.803	86.88
731.986	86.56
732.168	86.28
732.35	86.79
732.533	86.76
732.715	86.98
732.898	86.79
733.08	87.17
733.262	87.4
733.444	87.55
733.627	87.63
733.809	87.61
733.991	87.67
734.173	87.02
734.355	86.77
734.538	86.34
734.72	86.77
734.902	86.59
735.084	86.7
735.266	86.77
735.448	87.54
735.63	87.61
735.812	88.1
735.994	87.54
736.176	87.6
736.358	87.74
736.54	87.45
736.722	87.33
736.904	87.6
737.086	87.59
737.268	88.05
737.45	88.06
737.632	87.61
737.814	87.71
737.995	87.94
738.177	87.69
738.359	87.91
738.541	87.84
738.723	88.15
738.904	88.54
739.086	89.02
739.268	89.2
739.449	89.48
739.631	89.13
739.813	88.97
739.994	89.06
740.176	88.99
740.358	88.87
740.539	88.18
740.721	88.15
740.902	88.02
741.084	88.35
741.265	88.26
741.447	88.04
741.628	87.61
741.81	88.47
741.991	88.5
742.172	88.54
742.354	88.63
742.535	88.8
742.717	89.24
742.898	89.95
743.079	89.42
743.261	89.29
743.442	89.93
743.623	90.09
743.804	90.03
743.986	89.79
744.167	89.35
744.348	89.72
744.529	89.66
744.71	88.77
744.891	88.57
745.073	88.17
745.254	88.53
745.435	88.33
745.616	88.15
745.797	87.73
745.978	88.47
746.159	88.41
746.34	88.99
746.521	88.9
746.702	88.77
746.883	88.79
747.064	88.97
747.245	88.84
747.426	89.06
747.606	88.34
747.787	88.51
747.968	89.12
748.149	89.25
748.33	90.18
748.51	89.86
748.691	89.57
748.872	90.43
749.053	90.04
749.233	89.81
749.414	89.47
749.595	88.78
749.775	88.9
749.956	88.4
750.137	88.06
750.317	88.37
750.498	89.15
750.678	89.28
750.859	89.15
751.04	89.39
751.22	89.62
751.4	89.24
751.581	88.75
751.761	88.23
751.942	88.29
752.122	88.85
752.303	89.14
752.483	90.05
752.663	90.74
752.844	90.76
753.024	90.87
753.204	90.66
753.385	90.35
753.565	89.59
753.745	88.47
753.925	88.09
754.106	88.49
754.286	88.55
754.466	88.33
754.646	87.93
754.826	87.93
755.006	88.35
755.187	88.42
755.367	88.54
755.547	88.44
755.727	89.06
755.907	89.43
756.087	89.72
756.267	89.36
756.447	89.12
756.627	88.49
756.807	89.02
756.987	88.98
757.167	88.67
757.346	89.08
757.526	89.51
757.706	89.5
757.886	90.15
758.066	89.15
758.246	89.47
758.425	89.9
758.605	88.88
758.785	88.61
758.965	88.1
759.144	87.9
759.324	88.37
759.504	87.76
759.683	87.07
759.863	87.22
760.043	87.52
760.222	87.56
760.402	87.39
760.581	86.43
760.761	86.04
760.94	86.06
761.12	86.61
761.299	86
761.479	86.39
761.658	86.14
761.838	87.19
762.017	87.45
762.197	88.44
762.376	88.25
762.555	89.07
762.735	88.7
762.914	88.97
763.093	88.84
763.273	88.55
763.452	88.8
763.631	88.06
763.81	88.45
763.99	89.37
764.169	89.11
764.348	89.38
764.527	89.45
764.706	88.33
764.885	90.02
765.064	89.55
765.243	88.95
765.423	89.24
765.602	88.17
765.781	88.47
765.96	88.26
766.139	87.18
766.318	87.99
766.497	88.04
766.676	88.42
766.854	88.8
767.033	88.18
767.212	88.1
767.391	87.75
767.57	86.83
767.749	87.32
767.928	86.35
768.106	86.28
768.285	86.8
768.464	86.89
768.643	87.51
768.821	87.58
769	87.63
769.179	87.08
769.357	87.03
769.536	86.35
769.715	86.56
769.893	86.47
770.072	86.08
770.25	84.99
770.429	86.03
770.607	85.93
770.786	86.65
770.964	86.74
771.143	87.39
771.321	86.84
771.5	86.79
771.678	86.75
771.857	86.96
772.035	86.79
772.213	86.96
772.392	86.15
772.57	85.57
772.748	85.57
772.927	85
773.105	86.18
773.283	85.48
773.461	85.19
773.64	85.08
773.818	85.33
773.996	84.8
774.174	85.05
774.352	84.21
774.531	83.5
774.709	84.11
774.887	83.11
775.065	82.99
775.243	84.63
775.421	84.17
775.599	82.78
775.777	83.92
775.955	82.49
776.133	83.24
776.311	83.88
776.489	82.61
776.667	82.41
776.844	82.99
777.022	83.35
777.2	84.12
777.378	84.58
777.556	85.69
777.734	85.33
777.911	87.78
778.089	88.04
778.267	88.29
778.445	88.16
778.622	86.75
778.8	85.19
778.978	85.96
779.155	84.5
779.333	83.42
779.511	82.42
779.688	81.51
779.866	81.9
780.043	82.7
780.221	82.68
780.398	82.03
780.576	82.2
780.753	82.94
780.931	84.59
781.108	84.79
781.286	83.34
781.463	83.62
781.64	85.29
781.818	84.86
781.995	85.21
782.172	84.97
782.35	85.35
782.527	87.82
782.704	86.4
782.882	86.03
783.059	87.11
783.236	87.1
783.413	86.69
783.59	86.09
783.768	85.11
783.945	86.39
784.122	84.77
784.299	84.56
784.476	84.24
784.653	83.04
784.83	83.39
785.007	83.72
785.184	84.26
785.361	84.43
785.538	85.01
785.715	84.06
785.892	83.31
786.069	83.59
786.246	80.82
786.423	81.04
786.6	81.58
786.776	81.06
786.953	80.88
787.13	83.39
787.307	82.58
787.484	84.2
787.66	81.66
787.837	82.25
788.014	81.75
788.191	82.49
788.367	80.33
788.544	81.06
788.721	81.42
788.897	84.36
789.074	83.07
789.25	85.59
789.427	85.51
789.603	88.85
789.78	90.78
789.956	89.14
790.133	88.25
790.309	88.62
790.486	89.39
790.662	89.75
790.839	89.87
791.015	88.44
791.192	90.52
791.368	90.52
791.544	90.36
791.721	86.33
791.897	87.79
792.073	85.47
792.249	85.85
792.426	85.48
792.602	84.18
792.778	85.21
792.954	86.95
793.13	86.52
793.307	83.63
793.483	83
793.659	81.48
793.835	82.24
794.011	79.33
794.187	76.04
794.363	72.54
794.539	75.22
794.715	72.32
794.891	72.62
795.067	71.36
795.243	73.05
795.419	74.9
795.595	76.69
795.771	77.66
795.947	79.45
796.122	80.95
796.298	80.98
796.474	81.57
796.65	83.14
796.826	84.92
797.001	83.89
797.177	82.79
797.353	85.95
797.529	86.92
797.704	87.41
797.88	84.68
798.056	85.06
798.231	85.43
798.407	86.99
798.582	83.86
798.758	84.45
798.934	82.04
799.109	80.37
799.285	78.29
799.46	76.93
799.636	77.56
799.811	76.23
799.986	74.76
800.162	77.96
800.337	80.9
800.513	80.47
800.688	84.73
800.863	86.5
801.039	84.42
801.214	84.6
801.389	83.32
801.565	86.67
801.74	87.13
801.915	83.16
802.09	78.78
802.265	81.82
802.441	82.62
802.616	80.69
802.791	79.8
802.966	79.73
803.141	78.57
803.316	80.68
803.491	78.3
803.666	76.73
803.841	78.96
804.016	76.04
804.191	73.66
804.366	73.54
804.541	74.04
804.716	72.07
804.891	76.12
805.066	76.07
805.241	73.44
805.416	74.75
805.591	79.75
805.765	81.64
805.94	87.06
806.115	84.29
806.29	83.33
806.464	86.27
806.639	87.97
806.814	84.56
806.989	81.07
807.163	81.16
807.338	77.8
807.512	74.79
807.687	71.67
807.862	71.11
808.036	71.07
808.211	72.45
808.385	67.17
808.56	70.04
808.734	73.29
808.909	73.89
809.083	69.51
809.258	72.51
809.432	71.27
809.606	75.93
809.781	75.17
809.955	78
810.13	80.66
810.304	83.09
810.478	81.56
810.652	85.32
810.827	84.03
811.001	83.63
811.175	75.66
811.349	74.3
811.524	74.78
811.698	74.1
811.872	72.45
812.046	70.17
812.22	68.35
812.394	73.39
812.568	73.52
812.742	77.1
812.916	75.84
813.09	72.16
813.264	71.16
813.438	80.81
813.612	80.31
813.786	79.51
813.96	77.44
814.134	78.96
814.308	76.13
814.482	79.42
814.656	74.22
814.83	74.06
815.003	73.98
815.177	74.29
815.351	76.02
815.525	77.73
815.698	76.54
815.872	77.78
816.046	77.17
816.219	81.59
816.393	80.9
816.567	75.23
816.74	79.25
816.914	82.65
817.088	79.28
817.261	81.26
817.435	77.28
817.608	78.05
817.782	83.94
817.955	85.68
818.129	84.62
818.302	88.84
818.475	87.75
818.649	89.71
818.822	93.21
818.996	90.82
819.169	87.08
819.342	84.19
819.516	79.61
819.689	80.26
819.862	76.6
820.035	72.71
820.209	71.36
820.382	68.35
820.555	67.7
820.728	62.52
820.901	61.25
821.075	65.23
821.248	68.08
821.421	65.69
821.594	70.86
821.767	77.52
821.94	81.53
822.113	84.73
822.286	87.88
822.459	86.09
822.632	88.39
822.805	87.4
822.978	73.63
823.151	72.17
823.324	66.64
823.496	59.66
823.669	62.88
823.842	65.29
824.015	61.94
824.188	65.37
824.361	67.75
824.533	70.69
824.706	85.69
824.879	81.12
825.051	78.03
825.224	78.13
825.397	79.39
825.569	82.04
825.742	79.5
825.915	68.71
826.087	62.13
826.26	66.55
826.432	66.14
826.605	63.77
826.777	64.68
826.95	69.16
827.122	69.43
827.295	79.51
827.467	72.63
827.64	68.83
827.812	75.06
827.984	71.18
828.157	64.99
828.329	70.23
828.501	60.47
828.674	60.46
828.846	59.12
829.018	56.21
829.19	58.18
829.363	60.46
829.535	61.32
829.707	62.17
829.879	70.99
830.051	81.95
830.223	78
830.395	78.3
830.568	78.93
830.74	76.84
830.912	76.34
831.084	67.12
831.256	60.61
831.428	64.25
831.6	61.52
831.772	68.09
831.943	66.89
832.115	75.66
832.287	79.27
832.459	86.1
832.631	82.1
832.803	86.67
832.975	81.68
833.146	81.21
833.318	76.16
833.49	78.54
833.662	76.29
833.833	80.92
834.005	72.26
834.177	69.42
834.348	68.82
834.52	66.34
834.692	66.68
834.863	63.27
835.035	62.2
835.206	68.83
835.378	74.5
835.549	75.54
835.721	70.83
835.892	68.31
836.064	69.88
836.235	67.57
836.407	63.29
836.578	60.73
836.749	58.56
836.921	62.39
837.092	73.59
837.264	78.57
837.435	76.24
837.606	78.31
837.777	79.84
837.949	77.42
838.12	70.45
838.291	69.14
838.462	72.12
838.633	72.16
838.805	71.92
838.976	68.76
839.147	67.42
839.318	72.89
839.489	68.43
839.66	63.49
839.831	63.43
840.002	64.76
840.173	71.43
840.344	71.07
840.515	64.28
840.686	62.29
840.857	60.55
841.028	62.68
841.199	67.18
841.369	66.74
841.54	82.92
841.711	106.47
841.882	113
842.053	109.27
842.223	133.44
842.394	118.37
842.565	115.04
842.736	103.79
842.906	94.65
843.077	93.45
843.248	99.39
843.418	86.01
843.589	93.51
843.759	86.73
843.93	97.83
844.101	80.31
844.271	73.14
844.442	75.27
844.612	71.01
844.783	41.33
844.953	53.8
845.123	40.81
845.294	54.62
845.464	59.98
845.635	51.08
845.805	58.55
845.975	68.51
846.146	56.92
846.316	60.35
846.486	60.07
846.656	61.88
846.827	72.05
846.997	83.48
847.167	80.07
847.337	89.59
847.507	93.74
847.677	95.84
847.848	105.61
848.018	93.12
848.188	101.89
848.358	114.13
848.528	95.29
848.698	68.53
848.868	65.26
849.038	75.71
849.208	94.78
849.378	70.46
849.548	82.96
849.718	89.11
849.887	99.04
850.057	91.35
850.227	68.42
850.397	51.74
850.567	67.76
850.737	70.7
850.906	71.27
851.076	73.05
851.246	78.84
851.415	80.12
851.585	80.73
851.755	73.03
851.924	67.91
852.094	68.05
852.264	71.21
852.433	71.42
852.603	73.33
852.772	66.68
852.942	58.21
853.111	60.68
853.281	59.96
853.45	52.16
853.62	51.31
853.789	39.94
853.959	40.55
854.128	34.75
854.297	22.89
854.467	-0.65
854.636	0.16
854.805	17.18
854.975	32.43
855.144	47.31
855.313	60.32
855.482	63.04
855.652	77.82
855.821	85.58
855.99	88.64
856.159	92.07
856.328	76.23
856.497	65.06
856.667	70.91
856.836	64.73
857.005	59.95
857.174	64.07
857.343	56.08
857.512	60.61
857.681	59.43
857.85	51.93
858.019	63.88
858.188	72.59
858.356	46.86
858.525	60.95
858.694	78.77
858.863	93.6
859.032	89.46
859.201	89.2
859.369	84.64
859.538	82.77
859.707	79.61
859.876	57.81
860.044	48.84
860.213	52.11
860.382	68.16
860.55	85.2
860.719	92.2
860.888	87.18
861.056	97.38
861.225	100.44
861.393	92.15
861.562	81.33
861.73	68.32
861.899	57.19
862.067	61.92
862.236	58.94
862.404	56.03
862.572	63.77
862.741	67.91
862.909	62.58
863.078	62.31
863.246	60.34
863.414	43.96
863.582	26.59
863.751	19.45
863.919	25.72
864.087	31.97
864.255	35.96
864.424	35.12
864.592	42.79
864.76	51.26
864.928	55.66
865.096	42.85
865.264	49.28
865.432	50.84
865.6	55.6
865.768	51.51
865.936	59.45
866.104	71.47
866.272	112.1
866.44	89.75
866.608	56.03
866.776	57.47
866.944	83.72
867.112	63.54
867.28	55.22
867.448	53.82
867.615	75.75
867.783	100.71
867.951	120.71
868.119	116.19
868.286	128.02
868.454	103.69
868.622	85.95
868.789	70
868.957	67.17
869.125	65.88
869.292	62.32
869.46	61.36
869.627	70.03
869.795	75.91
869.963	82.85
870.13	92.34
870.298	88.63
870.465	84.56
870.632	91.35
870.8	56.36
870.967	59.07
871.135	65.41
871.302	56.04
871.469	53.2
871.637	49.39
871.804	51.74
871.971	70.77
872.139	70.18
872.306	68.48
872.473	73.62
872.64	84.37
872.807	113
872.975	143.03
873.142	137.16
873.309	168.31
873.476	235.74
873.643	185.17
873.81	154.61
873.977	102.09
874.144	80.91
874.311	42.04
874.478	45.64
874.645	60.97
874.812	66.78
874.979	67.23
875.146	42.94
875.313	-1.71
875.48	73.65
875.647	111.37
875.813	50.64
875.98	67.78
876.147	85.19
876.314	107.87
876.481	116.48
876.647	76.6
876.814	59.69
876.981	55.79
877.147	49.73
877.314	48.18
877.481	48.62
877.647	54.23
877.814	58.76
877.98	74.08
878.147	77.21
878.314	83.44
878.48	85.39
878.647	96.72
878.813	83.48
878.979	82.31
879.146	67.5
879.312	95.7
879.479	84.16
879.645	64.2
879.811	56.44
879.978	56.64
880.144	77.41
880.31	94.7
880.477	58.49
880.643	58.98
880.809	72.79
880.975	44.82
881.142	68.51
881.308	67.79
881.474	87.08
881.64	72.88
881.806	78.56
881.972	111.51
882.138	104.9
882.304	87.99
882.47	97.61
882.636	63.7
882.802	62.73
882.968	-4.76
883.134	-79.83
883.3	25.41
883.466	54
883.632	16.7
883.798	28.62
883.964	46.62
884.129	85.16
884.295	62.38
884.461	70.29
884.627	73.56
884.793	85.56
884.958	81.79
885.124	84.26
885.29	65.59
885.455	63.13
885.621	49.37
885.787	51.98
885.952	39.45
886.118	43.89
886.283	49.18
886.449	32.67
886.614	67.97
886.78	90.29
886.945	81.24
887.111	123.23
887.276	111.24
887.442	79.75
887.607	91.08
887.773	45.19
887.938	24.42
888.103	35.58
888.269	17.26
888.434	27.82
888.599	66.16
888.764	59.95
888.93	77.59
889.095	83
889.26	98.73
889.425	118.31
889.59	88.11
889.756	76.13
889.921	85.86
890.086	109.02
890.251	89.49
890.416	57.62
890.581	41.93
890.746	29.3
890.911	-2.86
891.076	-27.52
891.241	-98.99
891.406	-6.24
891.571	26.6
891.736	4.4
891.901	40.23
892.065	65.53
892.23	64.22
892.395	67.62
892.56	54.42
892.725	55.72
892.889	70.1
893.054	48.4
893.219	47.74
893.384	61.95
893.548	97.5
893.713	-156.68
893.878	-42.39
