Data from Ofra_2a_PS_9GT47_Reflection_1.txt Node
Date: Tue Jul 20 10:00:51 EDT 2021
User: Adam
Spectrometer: FLMT01687
Trigger mode: 0
Integration Time (sec): 9.450000E-1
Scans to average: 3
Electric dark correction enabled: true
Nonlinearity correction enabled: false
Boxcar width: 3
XAxis mode: Wavelengths
Number of Pixels in Spectrum: 3648
>>>>>Begin Spectral Data<<<<<
179.494	988.17
179.716	537.76
179.937	618.13
180.158	2558.98
180.38	-1178.78
180.601	-208.46
180.823	-61.58
181.044	4.88
181.265	-103.23
181.486	63.84
181.708	-155.43
181.929	47.56
182.15	109.66
182.372	-31.5
182.593	0.94
182.814	341.47
183.035	156.3
183.257	156.62
183.478	100.87
183.699	112.3
183.92	73.25
184.141	83.29
184.363	79.2
184.584	79.05
184.805	69.59
185.026	85.33
185.247	60.6
185.468	59.69
185.689	55.02
185.91	51.68
186.132	47.54
186.353	37.76
186.574	36.96
186.795	23.59
187.016	36.76
187.237	34.99
187.458	14.82
187.679	15.74
187.9	32.5
188.121	34.27
188.342	49.1
188.563	47.18
188.784	37.19
189.005	54.03
189.226	60.75
189.447	49.27
189.667	40.69
189.888	49.91
190.109	44.03
190.33	38.11
190.551	24.49
190.772	2.1
190.993	16.48
191.214	28.75
191.434	28.05
191.655	33.65
191.876	40.49
192.097	34.51
192.318	33.9
192.538	24.77
192.759	21.57
192.98	9.19
193.201	23.35
193.421	24.26
193.642	35.21
193.863	52.02
194.083	54.56
194.304	43.99
194.525	57.34
194.745	33.18
194.966	41.03
195.187	38.68
195.407	36.57
195.628	33.17
195.848	27.39
196.069	16.68
196.29	13.49
196.51	-0.56
196.731	16.82
196.951	7.02
197.172	9.8
197.392	22
197.613	5.78
197.833	11.36
198.054	23.23
198.274	-0.11
198.495	21.53
198.715	12.86
198.936	17.14
199.156	54.18
199.377	56.68
199.597	53.76
199.817	55.33
200.038	39.07
200.258	55.34
200.479	62.91
200.699	47.25
200.919	32
201.14	30.31
201.36	40.23
201.58	31.75
201.801	8.15
202.021	7.21
202.241	14.06
202.461	29.12
202.682	25.78
202.902	21.62
203.122	18.14
203.342	44.45
203.563	41.66
203.783	45.68
204.003	51.44
204.223	57.05
204.443	52.46
204.663	54.66
204.884	42.09
205.104	45.27
205.324	48.23
205.544	40.1
205.764	34.05
205.984	44.82
206.204	55.33
206.424	57.57
206.644	53.81
206.864	38.94
207.084	58.37
207.304	51.55
207.525	47.24
207.745	47.01
207.964	34.99
208.184	24.75
208.404	34.15
208.624	5.91
208.844	-1.46
209.064	3.34
209.284	8.36
209.504	23
209.724	16.13
209.944	29.01
210.164	20.43
210.384	42.81
210.604	28.87
210.823	9.12
211.043	5.79
211.263	17.72
211.483	4.06
211.703	21.58
211.922	15.87
212.142	24.53
212.362	29.39
212.582	23.2
212.801	17.89
213.021	29.18
213.241	14.8
213.461	16.83
213.68	28.64
213.9	28.25
214.12	20.81
214.339	25.17
214.559	28.62
214.779	24.34
214.998	22.68
215.218	21.94
215.438	31.73
215.657	36.53
215.877	34.78
216.096	29.55
216.316	38.76
216.535	33.02
216.755	21.73
216.974	19.52
217.194	21.8
217.413	31.27
217.633	23.51
217.852	3.99
218.072	13.06
218.291	36.41
218.511	26.34
218.73	19.46
218.95	18.27
219.169	21.2
219.389	29.28
219.608	38.67
219.827	16.56
220.047	18.46
220.266	21.32
220.485	30.27
220.705	30.16
220.924	36.23
221.143	15.82
221.363	28.52
221.582	30.21
221.801	38.51
222.021	35.49
222.24	35.3
222.459	37.05
222.678	59.58
222.897	36.24
223.117	22.04
223.336	16.91
223.555	1.5
223.774	28.45
223.993	39.81
224.213	31.82
224.432	61.53
224.651	73.19
224.87	72.41
225.089	79.06
225.308	60.8
225.527	41.05
225.746	50.4
225.965	29.97
226.184	30.65
226.404	18.06
226.623	35.89
226.842	28.03
227.061	53.52
227.28	56.84
227.499	50.89
227.718	41.74
227.936	49.42
228.155	44.53
228.374	53.1
228.593	40.29
228.812	25.76
229.031	25.86
229.25	38.39
229.469	40.73
229.688	40.13
229.907	31.28
230.125	28.53
230.344	41.02
230.563	45.01
230.782	34.17
231.001	34.4
231.22	24.42
231.438	34.76
231.657	42.84
231.876	36.71
232.095	33.88
232.313	49.84
232.532	45.44
232.751	45.19
232.969	44.51
233.188	38.88
233.407	49.35
233.625	39.02
233.844	38.83
234.063	43.77
234.281	46.71
234.5	43.58
234.719	44.71
234.937	46.75
235.156	55.54
235.374	51.64
235.593	41.41
235.811	32.91
236.03	30.17
236.249	42.74
236.467	38.35
236.686	31.02
236.904	24.12
237.123	27.92
237.341	31.59
237.559	32.94
237.778	29.4
237.996	32.51
238.215	28.78
238.433	38.03
238.652	34.57
238.87	36.63
239.088	26.47
239.307	18.23
239.525	10.94
239.743	11.61
239.962	6.44
240.18	28.77
240.398	29.12
240.617	31.23
240.835	37.55
241.053	43.48
241.271	43.85
241.49	30.17
241.708	11.33
241.926	4.34
242.144	13.56
242.363	11.38
242.581	11.19
242.799	13.03
243.017	25.17
243.235	25.18
243.453	34.96
243.672	34.83
243.89	34.02
244.108	40.72
244.326	43.96
244.544	51.97
244.762	50.61
244.98	46
245.198	38.99
245.416	46.06
245.634	48.73
245.852	47.67
246.07	42.72
246.288	49.86
246.506	46.25
246.724	58.14
246.942	49.31
247.16	25.96
247.378	22.23
247.596	23.09
247.814	11.84
248.032	11.48
248.25	7.93
248.468	16.87
248.685	30.95
248.903	18.37
249.121	18.88
249.339	20.38
249.557	26.87
249.775	6.3
249.992	-0.56
250.21	-11.56
250.428	-3.15
250.646	2.33
250.863	3.96
251.081	-6.49
251.299	25.46
251.517	42.69
251.734	61.89
251.952	56.76
252.17	45.17
252.387	38.54
252.605	43.29
252.823	32.57
253.04	14.41
253.258	2.15
253.475	4.83
253.693	21.41
253.911	25.31
254.128	22.34
254.346	15.43
254.563	15.18
254.781	13.61
254.998	18.4
255.216	18.71
255.433	20.32
255.651	17.89
255.868	24.47
256.086	32.53
256.303	42.07
256.521	38.75
256.738	28.84
256.956	30.62
257.173	29.87
257.39	37.1
257.608	30.01
257.825	26.48
258.043	33.61
258.26	32.45
258.477	41.85
258.695	46.16
258.912	46.1
259.129	50.53
259.346	49.23
259.564	40.29
259.781	46.57
259.998	37
260.216	40.16
260.433	38.51
260.65	42.52
260.867	35.67
261.084	45.17
261.302	44.57
261.519	26.43
261.736	22.55
261.953	14.4
262.17	11.77
262.387	16.55
262.604	-3.97
262.822	-5.91
263.039	2.85
263.256	0.01
263.473	0.98
263.69	-2.22
263.907	-2.51
264.124	0.17
264.341	-0.76
264.558	12
264.775	24.1
264.992	29.15
265.209	31.96
265.426	29.89
265.643	38.01
265.86	38.32
266.077	42.14
266.294	33.66
266.51	23.89
266.727	19.34
266.944	17.79
267.161	15.52
267.378	17.17
267.595	-7.52
267.812	-11.65
268.028	5.53
268.245	5.22
268.462	9.38
268.679	4.69
268.896	-0.24
269.112	13.41
269.329	25.94
269.546	22.53
269.763	27.69
269.979	25.72
270.196	32.84
270.413	32.21
270.629	28.02
270.846	24.76
271.063	28.88
271.279	22.67
271.496	20.15
271.712	19.59
271.929	29.78
272.146	29.46
272.362	22.63
272.579	14.6
272.795	14.21
273.012	17.05
273.228	9.35
273.445	1.81
273.661	1.84
273.878	12.27
274.094	13.31
274.311	17.78
274.527	16.52
274.744	16.91
274.96	20.01
275.177	30.53
275.393	31.13
275.609	35.14
275.826	26.31
276.042	38.07
276.259	37.2
276.475	38.39
276.691	35.04
276.908	30.02
277.124	34.53
277.34	37.3
277.557	33.09
277.773	28.86
277.989	37.29
278.205	20.16
278.422	25.14
278.638	26.96
278.854	30.22
279.07	14.45
279.286	22.13
279.503	10.43
279.719	31.33
279.935	17.48
280.151	15.7
280.367	11.43
280.583	23.23
280.799	27.2
281.016	27.16
281.232	21.92
281.448	24
281.664	17.34
281.88	28.85
282.096	26.34
282.312	20.74
282.528	12.51
282.744	8.72
282.96	10.57
283.176	13.64
283.392	15.66
283.608	24.11
283.824	19.49
284.04	29.91
284.256	36.93
284.471	44.05
284.687	42.84
284.903	35.58
285.119	15.94
285.335	10.72
285.551	12.85
285.767	0.93
285.982	-3.22
286.198	-9.14
286.414	15.72
286.63	31.18
286.846	39.53
287.061	44.32
287.277	50.17
287.493	52.59
287.709	48.61
287.924	38.54
288.14	39.38
288.356	39.47
288.571	20.61
288.787	25.9
289.003	30.25
289.218	29.62
289.434	25.6
289.65	26.61
289.865	31.56
290.081	34.99
290.296	29.44
290.512	28.95
290.727	37.32
290.943	31.92
291.159	19.58
291.374	26.05
291.59	20.76
291.805	31.98
292.021	33.64
292.236	36.95
292.451	47.02
292.667	47.81
292.882	36.52
293.098	46.31
293.313	30.16
293.529	28.78
293.744	24.04
293.959	22.57
294.175	24.63
294.39	40.02
294.605	33.38
294.821	38.46
295.036	38.44
295.251	35.41
295.467	31.33
295.682	31.04
295.897	17.51
296.112	26.63
296.328	28.5
296.543	18.23
296.758	12.43
296.973	17.39
297.188	18.34
297.404	24.8
297.619	19.32
297.834	22.58
298.049	38.97
298.264	44.15
298.479	35.17
298.694	40.87
298.909	39.63
299.125	34.19
299.34	33.65
299.555	26.52
299.77	21.39
299.985	18.18
300.2	11.69
300.415	17.43
300.63	10.26
300.845	12.15
301.06	7.17
301.275	13.46
301.49	19.89
301.704	17.62
301.919	7.8
302.134	14.12
302.349	8.13
302.564	10.06
302.779	3.81
302.994	5.12
303.209	5.85
303.423	15.55
303.638	14.58
303.853	11.81
304.068	17.48
304.283	22.12
304.497	18.7
304.712	32.11
304.927	25.32
305.142	29.08
305.356	32.09
305.571	35.99
305.786	34.02
306	35.63
306.215	24.55
306.43	30.97
306.644	24.92
306.859	30.22
307.074	21.01
307.288	23.86
307.503	19.81
307.717	15.81
307.932	16.03
308.147	22.08
308.361	14.7
308.576	18.61
308.79	14.44
309.005	20.35
309.219	27.71
309.434	25.13
309.648	22.44
309.863	30.96
310.077	23.67
310.292	25.77
310.506	28.69
310.72	21.17
310.935	18.9
311.149	15.53
311.364	9.09
311.578	12.47
311.792	6.61
312.007	-2.51
312.221	14.58
312.435	18.47
312.649	1.06
312.864	-3.87
313.078	13.38
313.292	31.51
313.507	43.1
313.721	29.79
313.935	37.43
314.149	49.05
314.363	56.3
314.578	68.74
314.792	63.57
315.006	55.38
315.22	54.37
315.434	52.17
315.648	50.14
315.862	38.56
316.077	26.72
316.291	24.54
316.505	32.74
316.719	19.7
316.933	13.18
317.147	8.42
317.361	11.69
317.575	11.81
317.789	23.51
318.003	24.72
318.217	38.61
318.431	46.53
318.645	49.38
318.859	51.45
319.073	45.95
319.287	41.72
319.5	36.01
319.714	31.75
319.928	33.43
320.142	40.45
320.356	48.15
320.57	41.32
320.784	42.28
320.997	47.98
321.211	45.08
321.425	34.11
321.639	30.22
321.853	23.94
322.066	21.66
322.28	23.86
322.494	19.85
322.707	22.51
322.921	26.13
323.135	40.69
323.349	37.06
323.562	45.48
323.776	42.06
323.989	37.84
324.203	41.19
324.417	36.68
324.63	17.85
324.844	2.17
325.057	6.5
325.271	0.47
325.485	12.04
325.698	12.21
325.912	20.68
326.125	27.76
326.339	44.98
326.552	42.11
326.766	44.37
326.979	41.37
327.193	41.22
327.406	36.19
327.619	22.6
327.833	9.55
328.046	12.3
328.26	15.72
328.473	12.59
328.686	19.75
328.9	17.84
329.113	23.8
329.326	30.88
329.54	30.7
329.753	26.84
329.966	27.73
330.179	28.01
330.393	34.13
330.606	43.66
330.819	45.92
331.032	53.64
331.246	51.27
331.459	60.65
331.672	48.88
331.885	47.78
332.098	45.75
332.311	39.28
332.525	32.46
332.738	28.26
332.951	21.36
333.164	19.75
333.377	10.73
333.59	15.14
333.803	26.04
334.016	9.39
334.229	16.75
334.442	24.9
334.655	36.26
334.868	40.73
335.081	37.99
335.294	25.63
335.507	47.87
335.72	42.65
335.933	49.98
336.146	46.82
336.359	43.89
336.572	36.99
336.785	47.15
336.997	38.2
337.21	42.58
337.423	26.25
337.636	17.03
337.849	12.81
338.062	18.77
338.274	8.65
338.487	5.8
338.7	5.52
338.913	6.13
339.125	7.83
339.338	17.54
339.551	18.66
339.763	21.29
339.976	22.04
340.189	21.14
340.402	19.14
340.614	25.38
340.827	15.05
341.039	13.6
341.252	11.93
341.465	7.59
341.677	-2.24
341.89	7.1
342.102	4.9
342.315	17.59
342.527	15.52
342.74	12.42
342.952	14.42
343.165	30.62
343.377	29.66
343.59	29.02
343.802	26.81
344.015	30.02
344.227	30.2
344.44	34.22
344.652	30.41
344.864	27.28
345.077	19.63
345.289	16.33
345.502	11.6
345.714	12.98
345.926	10.49
346.139	11.89
346.351	-2.1
346.563	13.09
346.775	9.63
346.988	12.46
347.2	13.21
347.412	14.18
347.624	15.81
347.837	24.14
348.049	23.55
348.261	21.56
348.473	18.14
348.685	23.96
348.897	30.81
349.11	31.33
349.322	31.31
349.534	20.88
349.746	29.36
349.958	32.86
350.17	29.89
350.382	16.55
350.594	16.12
350.806	22.1
351.018	35.36
351.23	34.71
351.442	35.59
351.654	42.32
351.866	41.65
352.078	39.55
352.29	42.35
352.502	34.3
352.714	30.62
352.926	26.08
353.138	17.57
353.35	18.11
353.561	12.8
353.773	11.86
353.985	21.9
354.197	27.62
354.409	32.29
354.621	31.47
354.832	30.08
355.044	40.26
355.256	28.46
355.468	16.41
355.679	14.85
355.891	17.01
356.103	20.18
356.314	28.09
356.526	22.97
356.738	26.79
356.949	32.52
357.161	29.91
357.373	21.22
357.584	27.83
357.796	19.7
358.008	20.52
358.219	29.39
358.431	25.83
358.642	27.8
358.854	31.04
359.065	24.19
359.277	29.59
359.488	23.28
359.7	19.36
359.911	15.58
360.123	20.31
360.334	23.82
360.546	15.69
360.757	18.58
360.969	26.65
361.18	21.6
361.391	20.84
361.603	17.44
361.814	17.22
362.025	21.64
362.237	23.49
362.448	27.91
362.659	19.98
362.871	24.44
363.082	30.22
363.293	30.4
363.504	31.7
363.716	29.98
363.927	26.36
364.138	36.61
364.349	34.13
364.56	27.61
364.772	28.84
364.983	26.96
365.194	25.08
365.405	19.98
365.616	14.16
365.827	20.74
366.038	32.98
366.25	32.89
366.461	33.08
366.672	32.44
366.883	39.44
367.094	40.66
367.305	45.54
367.516	38.04
367.727	30.73
367.938	34.36
368.149	35.43
368.36	34.25
368.571	36.55
368.781	26.84
368.992	33.84
369.203	40.65
369.414	38.19
369.625	32.8
369.836	29.42
370.047	25.9
370.258	24.98
370.468	9.04
370.679	0.07
370.89	10.3
371.101	6.74
371.312	5.04
371.522	4.79
371.733	2.64
371.944	4.86
372.155	-1.35
372.365	-9.57
372.576	-13.13
372.787	-11.13
372.997	-8.6
373.208	0.73
373.419	-0.9
373.629	10.13
373.84	6.52
374.05	20.01
374.261	17.39
374.472	16.91
374.682	10.17
374.893	13.88
375.103	18.62
375.314	28.55
375.524	26.44
375.735	25.08
375.945	21.25
376.156	19.39
376.366	24.91
376.577	25.95
376.787	22.22
376.997	25.46
377.208	22.91
377.418	23.64
377.629	29.7
377.839	30.43
378.049	28.6
378.26	30.97
378.47	29.79
378.68	31.08
378.89	27.65
379.101	23.21
379.311	15.95
379.521	15.78
379.732	5.21
379.942	3.73
380.152	8.67
380.362	18.91
380.572	16.34
380.783	17.4
380.993	16.31
381.203	20.65
381.413	19.37
381.623	22.32
381.833	11.31
382.043	12.01
382.253	14.56
382.463	15.54
382.674	10.81
382.884	7.95
383.094	9.37
383.304	14.64
383.514	23.92
383.724	20.32
383.934	17.35
384.144	25.78
384.353	26.39
384.563	21.32
384.773	20.36
384.983	14.37
385.193	16.11
385.403	18.3
385.613	12.34
385.823	12.37
386.033	11.99
386.242	10.29
386.452	11.98
386.662	11.49
386.872	8.72
387.082	6.12
387.291	6.06
387.501	6.85
387.711	5.91
387.921	4.82
388.13	6.17
388.34	7.2
388.55	7.98
388.759	5.89
388.969	2.21
389.179	4.56
389.388	6.2
389.598	2.5
389.807	1.08
390.017	1.94
390.227	2.33
390.436	4.2
390.646	3.47
390.855	1.13
391.065	1.26
391.274	0.55
391.484	1.16
391.693	2.3
391.903	1.91
392.112	2.8
392.322	5.36
392.531	6.56
392.74	6.37
392.95	5.34
393.159	5.11
393.369	5.49
393.578	4.43
393.787	3.61
393.997	3.9
394.206	4.93
394.415	5.23
394.625	4.66
394.834	3.27
395.043	3.73
395.252	4.26
395.462	3.85
395.671	3.58
395.88	3.99
396.089	4.24
396.298	5.1
396.508	4.92
396.717	3.83
396.926	3.47
397.135	3.13
397.344	2.9
397.553	2.95
397.762	2.65
397.971	2.38
398.181	2.26
398.39	2.63
398.599	2.76
398.808	2.74
399.017	3.07
399.226	3.5
399.435	3.52
399.644	3.63
399.853	3.37
400.062	3.29
400.27	3.22
400.479	2.94
400.688	2.55
400.897	2.79
401.106	2.8
401.315	2.75
401.524	2.94
401.733	3.13
401.941	3.04
402.15	3.08
402.359	3.07
402.568	3.13
402.777	3.13
402.985	2.95
403.194	2.77
403.403	2.57
403.612	2.59
403.82	2.43
404.029	2.38
404.238	2.41
404.446	2.44
404.655	2.38
404.864	2.42
405.072	2.36
405.281	2.24
405.489	2.24
405.698	2.1
405.906	2.09
406.115	2.17
406.324	2.19
406.532	2.23
406.741	2.3
406.949	2.18
407.158	2.35
407.366	2.38
407.574	2.32
407.783	2.32
407.991	2.26
408.2	2.25
408.408	2.32
408.617	2.22
408.825	2.18
409.033	2.13
409.242	2.06
409.45	2
409.658	1.96
409.867	1.9
410.075	1.9
410.283	1.81
410.491	1.79
410.7	1.87
410.908	1.98
411.116	1.92
411.324	1.96
411.533	1.94
411.741	1.99
411.949	2.06
412.157	2.08
412.365	2.03
412.573	2.14
412.781	2.15
412.99	2.2
413.198	2.3
413.406	2.33
413.614	2.27
413.822	2.3
414.03	2.17
414.238	2.24
414.446	2.19
414.654	2.14
414.862	2.03
415.07	2.09
415.278	2.04
415.486	2.21
415.694	2.02
415.902	1.94
416.109	1.92
416.317	1.91
416.525	1.89
416.733	2.02
416.941	1.92
417.149	2.14
417.357	2.24
417.564	2.21
417.772	2.2
417.98	2.13
418.188	1.94
418.395	1.98
418.603	1.73
418.811	1.66
419.019	1.68
419.226	1.76
419.434	1.78
419.642	1.85
419.849	1.85
420.057	1.97
420.265	1.93
420.472	1.78
420.68	1.73
420.887	1.76
421.095	1.77
421.302	1.79
421.51	1.76
421.717	1.89
421.925	1.95
422.132	1.88
422.34	1.8
422.547	1.76
422.755	1.74
422.962	1.66
423.17	1.59
423.377	1.72
423.585	1.81
423.792	1.83
423.999	1.81
424.207	1.76
424.414	1.81
424.621	1.83
424.829	1.68
425.036	1.66
425.243	1.71
425.451	1.73
425.658	1.79
425.865	1.78
426.072	1.84
426.28	1.86
426.487	1.76
426.694	1.69
426.901	1.69
427.108	1.68
427.315	1.68
427.523	1.64
427.73	1.65
427.937	1.74
428.144	1.79
428.351	1.86
428.558	1.81
428.765	1.81
428.972	1.85
429.179	1.77
429.386	1.8
429.593	1.79
429.8	1.78
430.007	1.8
430.214	1.84
430.421	1.79
430.628	1.78
430.835	1.7
431.042	1.73
431.249	1.68
431.456	1.76
431.662	1.76
431.869	1.8
432.076	1.85
432.283	1.82
432.49	1.79
432.697	1.78
432.903	1.67
433.11	1.7
433.317	1.64
433.524	1.62
433.73	1.69
433.937	1.64
434.144	1.69
434.35	1.76
434.557	1.73
434.764	1.8
434.97	1.91
435.177	1.86
435.384	1.96
435.59	1.92
435.797	1.93
436.003	1.88
436.21	1.85
436.416	1.75
436.623	1.84
436.829	1.75
437.036	1.77
437.242	1.77
437.449	1.88
437.655	1.88
437.862	1.96
438.068	1.96
438.275	1.97
438.481	2.01
438.687	2.02
438.894	1.96
439.1	1.96
439.307	1.92
439.513	1.91
439.719	1.97
439.926	1.98
440.132	1.92
440.338	1.94
440.544	1.94
440.751	1.93
440.957	1.88
441.163	1.93
441.369	1.91
441.575	1.91
441.782	1.87
441.988	1.87
442.194	1.91
442.4	1.9
442.606	1.94
442.812	1.98
443.018	2.03
443.224	2.07
443.431	2.09
443.637	2.05
443.843	2.12
444.049	2.01
444.255	1.97
444.461	1.93
444.667	1.92
444.873	1.89
445.079	1.95
445.284	1.91
445.49	1.89
445.696	1.92
445.902	1.98
446.108	1.95
446.314	1.99
446.52	1.95
446.726	1.97
446.931	2.04
447.137	2.03
447.343	1.97
447.549	1.94
447.755	1.92
447.96	1.93
448.166	1.95
448.372	1.94
448.578	1.97
448.783	2
448.989	2.06
449.195	2.08
449.4	2.09
449.606	2.07
449.812	2.17
450.017	2.14
450.223	2.18
450.428	2.2
450.634	2.23
450.84	2.22
451.045	2.22
451.251	2.17
451.456	2.15
451.662	2.13
451.867	2.11
452.073	2.08
452.278	2.05
452.483	2.1
452.689	2.08
452.894	2.07
453.1	2.02
453.305	2
453.51	2.01
453.716	2.09
453.921	2.07
454.127	2.03
454.332	2.05
454.537	2.09
454.742	2.08
454.948	2.1
455.153	2.07
455.358	2.1
455.563	2.15
455.769	2.16
455.974	2.09
456.179	2.06
456.384	2.06
456.589	2.11
456.795	2.03
457	2.06
457.205	2.03
457.41	2.16
457.615	2.27
457.82	2.3
458.025	2.27
458.23	2.3
458.435	2.24
458.64	2.33
458.845	2.24
459.05	2.18
459.255	2.17
459.46	2.14
459.665	2.16
459.87	2.15
460.075	2.07
460.28	2.11
460.485	2.15
460.69	2.06
460.895	2.1
461.099	2.12
461.304	2.17
461.509	2.12
461.714	2.13
461.919	2.09
462.123	2.18
462.328	2.16
462.533	2.18
462.738	2.17
462.942	2.27
463.147	2.27
463.352	2.33
463.556	2.29
463.761	2.32
463.966	2.33
464.17	2.36
464.375	2.3
464.58	2.31
464.784	2.29
464.989	2.26
465.193	2.28
465.398	2.28
465.602	2.26
465.807	2.28
466.011	2.31
466.216	2.31
466.42	2.4
466.625	2.42
466.829	2.43
467.034	2.48
467.238	2.5
467.443	2.46
467.647	2.52
467.851	2.5
468.056	2.43
468.26	2.39
468.464	2.36
468.669	2.4
468.873	2.42
469.077	2.38
469.282	2.43
469.486	2.47
469.69	2.52
469.894	2.59
470.099	2.56
470.303	2.57
470.507	2.62
470.711	2.59
470.915	2.62
471.119	2.64
471.324	2.56
471.528	2.59
471.732	2.56
471.936	2.57
472.14	2.56
472.344	2.57
472.548	2.56
472.752	2.63
472.956	2.66
473.16	2.73
473.364	2.7
473.568	2.75
473.772	2.81
473.976	2.8
474.18	2.79
474.384	2.72
474.588	2.71
474.792	2.71
474.995	2.66
475.199	2.65
475.403	2.65
475.607	2.66
475.811	2.73
476.015	2.79
476.218	2.81
476.422	2.86
476.626	2.81
476.83	2.82
477.033	2.87
477.237	2.88
477.441	2.84
477.644	2.86
477.848	2.83
478.052	2.91
478.255	2.89
478.459	2.88
478.663	2.88
478.866	2.86
479.07	2.87
479.273	2.92
479.477	2.89
479.681	2.9
479.884	2.86
480.088	2.88
480.291	2.93
480.495	2.93
480.698	2.94
480.901	2.95
481.105	2.96
481.308	2.98
481.512	2.97
481.715	3
481.919	3.02
482.122	3.03
482.325	3.04
482.529	3.12
482.732	3.13
482.935	3.16
483.138	3.13
483.342	3.14
483.545	3.1
483.748	3.15
483.952	3.09
484.155	3.14
484.358	3.09
484.561	3.12
484.764	3.12
484.967	3.16
485.171	3.12
485.374	3.17
485.577	3.18
485.78	3.23
485.983	3.21
486.186	3.2
486.389	3.15
486.592	3.15
486.795	3.17
486.998	3.14
487.201	3.12
487.404	3.17
487.607	3.16
487.81	3.23
488.013	3.26
488.216	3.22
488.419	3.23
488.622	3.21
488.825	3.18
489.028	3.15
489.231	3.15
489.433	3.14
489.636	3.1
489.839	3.11
490.042	3.12
490.245	3.13
490.447	3.16
490.65	3.16
490.853	3.18
491.056	3.22
491.258	3.25
491.461	3.24
491.664	3.22
491.866	3.25
492.069	3.23
492.272	3.22
492.474	3.22
492.677	3.18
492.879	3.25
493.082	3.32
493.285	3.31
493.487	3.31
493.69	3.28
493.892	3.28
494.095	3.26
494.297	3.25
494.5	3.26
494.702	3.25
494.905	3.26
495.107	3.3
495.309	3.27
495.512	3.32
495.714	3.32
495.917	3.26
496.119	3.32
496.321	3.33
496.524	3.34
496.726	3.4
496.928	3.41
497.13	3.46
497.333	3.47
497.535	3.45
497.737	3.44
497.939	3.44
498.142	3.43
498.344	3.41
498.546	3.44
498.748	3.45
498.95	3.44
499.152	3.43
499.355	3.48
499.557	3.55
499.759	3.64
499.961	3.61
500.163	3.68
500.365	3.69
500.567	3.71
500.769	3.72
500.971	3.67
501.173	3.59
501.375	3.59
501.577	3.57
501.779	3.61
501.981	3.65
502.183	3.63
502.385	3.64
502.587	3.7
502.788	3.76
502.99	3.75
503.192	3.76
503.394	3.78
503.596	3.82
503.798	3.93
503.999	3.94
504.201	3.91
504.403	3.97
504.605	3.98
504.806	4
505.008	4
505.21	3.96
505.411	3.97
505.613	4.02
505.815	4.01
506.016	4.08
506.218	4.09
506.42	4.13
506.621	4.16
506.823	4.19
507.024	4.15
507.226	4.17
507.427	4.09
507.629	4.11
507.83	4.13
508.032	4.18
508.233	4.19
508.435	4.25
508.636	4.25
508.838	4.32
509.039	4.36
509.24	4.38
509.442	4.33
509.643	4.35
509.845	4.34
510.046	4.37
510.247	4.41
510.448	4.42
510.65	4.43
510.851	4.46
511.052	4.47
511.254	4.49
511.455	4.5
511.656	4.46
511.857	4.47
512.058	4.51
512.26	4.53
512.461	4.57
512.662	4.56
512.863	4.57
513.064	4.59
513.265	4.62
513.466	4.62
513.667	4.65
513.868	4.67
514.069	4.74
514.27	4.75
514.471	4.77
514.672	4.77
514.873	4.82
515.074	4.82
515.275	4.81
515.476	4.82
515.677	4.85
515.878	4.88
516.079	4.93
516.28	4.95
516.481	4.94
516.682	4.97
516.882	4.96
517.083	4.96
517.284	4.96
517.485	4.94
517.686	4.91
517.886	4.93
518.087	4.95
518.288	4.95
518.488	4.96
518.689	4.96
518.89	5
519.091	5
519.291	5.02
519.492	5.04
519.692	5.12
519.893	5.14
520.094	5.2
520.294	5.18
520.495	5.25
520.695	5.26
520.896	5.25
521.096	5.22
521.297	5.24
521.497	5.21
521.698	5.22
521.898	5.21
522.099	5.18
522.299	5.18
522.499	5.23
522.7	5.26
522.9	5.27
523.101	5.31
523.301	5.34
523.501	5.39
523.702	5.42
523.902	5.43
524.102	5.44
524.302	5.46
524.503	5.45
524.703	5.46
524.903	5.5
525.103	5.51
525.304	5.52
525.504	5.51
525.704	5.53
525.904	5.55
526.104	5.56
526.304	5.56
526.504	5.58
526.705	5.58
526.905	5.62
527.105	5.64
527.305	5.65
527.505	5.68
527.705	5.67
527.905	5.68
528.105	5.68
528.305	5.67
528.505	5.66
528.705	5.7
528.905	5.68
529.105	5.7
529.304	5.71
529.504	5.74
529.704	5.75
529.904	5.81
530.104	5.8
530.304	5.81
530.503	5.83
530.703	5.86
530.903	5.87
531.103	5.89
531.303	5.91
531.502	5.91
531.702	5.93
531.902	5.96
532.101	5.96
532.301	5.97
532.501	6.01
532.7	6
532.9	6.01
533.1	6.03
533.299	6.08
533.499	6.11
533.698	6.16
533.898	6.17
534.097	6.2
534.297	6.23
534.496	6.27
534.696	6.27
534.895	6.3
535.095	6.31
535.294	6.3
535.494	6.31
535.693	6.34
535.892	6.36
536.092	6.35
536.291	6.37
536.491	6.4
536.69	6.45
536.889	6.46
537.088	6.48
537.288	6.53
537.487	6.57
537.686	6.6
537.886	6.61
538.085	6.66
538.284	6.71
538.483	6.75
538.682	6.76
538.882	6.81
539.081	6.83
539.28	6.84
539.479	6.86
539.678	6.91
539.877	6.91
540.076	6.95
540.275	6.95
540.474	6.93
540.673	6.98
540.872	7.01
541.071	7.02
541.27	7.07
541.469	7.12
541.668	7.18
541.867	7.25
542.066	7.3
542.265	7.35
542.464	7.38
542.663	7.42
542.862	7.4
543.06	7.41
543.259	7.46
543.458	7.46
543.657	7.49
543.856	7.52
544.054	7.55
544.253	7.6
544.452	7.6
544.651	7.63
544.849	7.67
545.048	7.69
545.247	7.74
545.445	7.74
545.644	7.81
545.843	7.9
546.041	7.95
546.24	8.03
546.438	8.12
546.637	8.19
546.836	8.27
547.034	8.29
547.233	8.35
547.431	8.39
547.63	8.44
547.828	8.47
548.027	8.5
548.225	8.6
548.423	8.65
548.622	8.68
548.82	8.74
549.019	8.76
549.217	8.84
549.415	8.91
549.614	8.92
549.812	8.96
550.01	9.05
550.209	9.13
550.407	9.21
550.605	9.23
550.803	9.29
551.002	9.34
551.2	9.46
551.398	9.5
551.596	9.54
551.794	9.6
551.993	9.66
552.191	9.74
552.389	9.84
552.587	9.85
552.785	9.91
552.983	10.03
553.181	10.1
553.379	10.18
553.577	10.25
553.775	10.32
553.973	10.43
554.171	10.51
554.369	10.55
554.567	10.64
554.765	10.7
554.963	10.76
555.161	10.83
555.359	10.91
555.557	11.01
555.755	11.12
555.952	11.21
556.15	11.3
556.348	11.41
556.546	11.51
556.744	11.59
556.941	11.65
557.139	11.74
557.337	11.82
557.535	11.95
557.732	11.99
557.93	12.08
558.128	12.16
558.325	12.27
558.523	12.34
558.721	12.42
558.918	12.5
559.116	12.62
559.313	12.69
559.511	12.78
559.708	12.86
559.906	12.96
560.104	13.04
560.301	13.14
560.498	13.2
560.696	13.26
560.893	13.35
561.091	13.47
561.288	13.54
561.486	13.61
561.683	13.66
561.88	13.79
562.078	13.85
562.275	13.95
562.473	14.02
562.67	14.11
562.867	14.23
563.064	14.36
563.262	14.47
563.459	14.64
563.656	14.76
563.853	14.85
564.051	14.96
564.248	15.06
564.445	15.13
564.642	15.18
564.839	15.28
565.036	15.34
565.234	15.44
565.431	15.51
565.628	15.59
565.825	15.68
566.022	15.76
566.219	15.76
566.416	15.85
566.613	15.97
566.81	16.01
567.007	16.07
567.204	16.13
567.401	16.19
567.598	16.32
567.795	16.4
567.991	16.4
568.188	16.5
568.385	16.59
568.582	16.66
568.779	16.74
568.976	16.83
569.172	16.85
569.369	16.95
569.566	17
569.763	17.06
569.96	17.1
570.156	17.16
570.353	17.17
570.55	17.24
570.746	17.24
570.943	17.36
571.14	17.4
571.336	17.44
571.533	17.51
571.729	17.59
571.926	17.63
572.123	17.71
572.319	17.69
572.516	17.69
572.712	17.77
572.909	17.76
573.105	17.77
573.302	17.79
573.498	17.79
573.695	17.85
573.891	17.92
574.087	17.9
574.284	17.9
574.48	17.89
574.677	17.91
574.873	17.96
575.069	17.97
575.266	17.95
575.462	18
575.658	18.04
575.854	18.09
576.051	18.1
576.247	18.11
576.443	18.12
576.639	18.15
576.835	18.14
577.032	18.15
577.228	18.16
577.424	18.2
577.62	18.2
577.816	18.17
578.012	18.16
578.208	18.14
578.404	18.12
578.6	18.12
578.796	18.13
578.993	18.15
579.189	18.13
579.384	18.12
579.58	18.1
579.776	18.08
579.972	18.07
580.168	18.01
580.364	18
580.56	18.01
580.756	17.96
580.952	17.95
581.148	17.99
581.343	17.99
581.539	17.98
581.735	17.95
581.931	17.96
582.127	18.02
582.322	18.01
582.518	17.95
582.714	17.9
582.909	17.86
583.105	17.82
583.301	17.77
583.496	17.78
583.692	17.75
583.888	17.75
584.083	17.75
584.279	17.78
584.474	17.79
584.67	17.75
584.866	17.74
585.061	17.78
585.257	17.8
585.452	17.77
585.648	17.75
585.843	17.77
586.039	17.79
586.234	17.74
586.429	17.69
586.625	17.68
586.82	17.66
587.015	17.6
587.211	17.59
587.406	17.64
587.601	17.66
587.797	17.62
587.992	17.64
588.187	17.68
588.383	17.74
588.578	17.71
588.773	17.66
588.968	17.73
589.163	17.81
589.359	17.76
589.554	17.74
589.749	17.74
589.944	17.77
590.139	17.76
590.334	17.7
590.529	17.72
590.724	17.78
590.919	17.82
591.114	17.83
591.309	17.81
591.504	17.86
591.699	17.91
591.894	17.92
592.089	17.94
592.284	17.98
592.479	18.02
592.674	18.07
592.869	18.13
593.064	18.24
593.259	18.24
593.454	18.26
593.648	18.3
593.843	18.41
594.038	18.46
594.233	18.52
594.428	18.56
594.622	18.7
594.817	18.79
595.012	18.84
595.206	18.87
595.401	18.92
595.596	19
595.79	19.06
595.985	19.06
596.18	19.18
596.374	19.24
596.569	19.28
596.763	19.4
596.958	19.41
597.153	19.43
597.347	19.5
597.542	19.52
597.736	19.58
597.931	19.68
598.125	19.77
598.319	19.79
598.514	19.87
598.708	19.94
598.903	19.99
599.097	20.08
599.291	20.13
599.486	20.13
599.68	20.16
599.874	20.25
600.069	20.26
600.263	20.29
600.457	20.3
600.651	20.32
600.846	20.36
601.04	20.43
601.234	20.47
601.428	20.49
601.622	20.48
601.817	20.53
602.011	20.59
602.205	20.61
602.399	20.66
602.593	20.63
602.787	20.66
602.981	20.77
603.175	20.7
603.369	20.65
603.563	20.68
603.757	20.67
603.951	20.64
604.145	20.66
604.339	20.63
604.533	20.66
604.727	20.7
604.921	20.61
605.115	20.59
605.309	20.6
605.502	20.6
605.696	20.53
605.89	20.54
606.084	20.51
606.278	20.5
606.471	20.43
606.665	20.36
606.859	20.32
607.053	20.28
607.246	20.22
607.44	20.11
607.634	20.06
607.827	19.98
608.021	19.91
608.214	19.87
608.408	19.83
608.602	19.72
608.795	19.68
608.989	19.65
609.182	19.69
609.376	19.65
609.569	19.53
609.763	19.51
609.956	19.44
610.15	19.43
610.343	19.35
610.537	19.27
610.73	19.21
610.923	19.19
611.117	19.05
611.31	19.01
611.504	18.95
611.697	18.89
611.89	18.77
612.083	18.69
612.277	18.55
612.47	18.47
612.663	18.41
612.856	18.28
613.05	18.22
613.243	18.18
613.436	18.06
613.629	18.06
613.822	18.03
614.015	17.96
614.209	17.96
614.402	17.89
614.595	17.77
614.788	17.72
614.981	17.6
615.174	17.57
615.367	17.46
615.56	17.31
615.753	17.23
615.946	17.21
616.139	17.22
616.332	17.2
616.525	17.13
616.718	17.12
616.911	17.19
617.103	17.17
617.296	17.09
617.489	17.01
617.682	16.97
617.875	16.89
618.067	16.81
618.26	16.68
618.453	16.58
618.646	16.56
618.838	16.53
619.031	16.48
619.224	16.49
619.417	16.49
619.609	16.46
619.802	16.44
619.994	16.39
620.187	16.34
620.38	16.31
620.572	16.27
620.765	16.18
620.957	16.08
621.15	16.03
621.342	16.03
621.535	15.98
621.727	15.95
621.92	15.86
622.112	15.83
622.305	15.84
622.497	15.84
622.69	15.77
622.882	15.8
623.074	15.75
623.267	15.73
623.459	15.75
623.651	15.76
623.844	15.75
624.036	15.78
624.228	15.76
624.42	15.77
624.613	15.77
624.805	15.76
624.997	15.75
625.189	15.72
625.381	15.65
625.574	15.63
625.766	15.6
625.958	15.58
626.15	15.57
626.342	15.56
626.534	15.53
626.726	15.54
626.918	15.48
627.11	15.48
627.302	15.45
627.494	15.39
627.686	15.28
627.878	15.23
628.07	15.18
628.262	15.13
628.454	15.07
628.646	15.05
628.838	15.03
629.029	15.04
629.221	15.01
629.413	14.94
629.605	14.9
629.797	14.9
629.989	14.88
630.18	14.83
630.372	14.83
630.564	14.85
630.755	14.82
630.947	14.79
631.139	14.74
631.33	14.71
631.522	14.69
631.714	14.66
631.905	14.62
632.097	14.64
632.289	14.59
632.48	14.54
632.672	14.48
632.863	14.48
633.055	14.44
633.246	14.4
633.438	14.33
633.629	14.35
633.821	14.38
634.012	14.38
634.203	14.38
634.395	14.42
634.586	14.42
634.777	14.37
634.969	14.38
635.16	14.34
635.351	14.33
635.543	14.27
635.734	14.21
635.925	14.22
636.117	14.26
636.308	14.22
636.499	14.17
636.69	14.2
636.881	14.26
637.073	14.23
637.264	14.19
637.455	14.19
637.646	14.2
637.837	14.22
638.028	14.2
638.219	14.09
638.41	14.08
638.601	14.03
638.792	13.95
638.983	13.86
639.174	13.85
639.365	13.81
639.556	13.83
639.747	13.85
639.938	13.86
640.129	13.92
640.32	13.93
640.511	13.9
640.701	13.81
640.892	13.79
641.083	13.76
641.274	13.73
641.465	13.66
641.655	13.67
641.846	13.65
642.037	13.67
642.228	13.65
642.418	13.58
642.609	13.52
642.8	13.49
642.99	13.49
643.181	13.52
643.372	13.51
643.562	13.49
643.753	13.46
643.943	13.45
644.134	13.48
644.324	13.42
644.515	13.38
644.705	13.36
644.896	13.32
645.086	13.29
645.277	13.35
645.467	13.31
645.658	13.27
645.848	13.23
646.038	13.17
646.229	13.19
646.419	13.26
646.61	13.21
646.8	13.18
646.99	13.2
647.18	13.16
647.371	13.15
647.561	13.13
647.751	13.04
647.941	13
648.132	13.02
648.322	13
648.512	13.03
648.702	13.03
648.892	13.01
649.082	12.98
649.272	12.93
649.462	12.88
649.653	12.86
649.843	12.77
650.033	12.69
650.223	12.66
650.413	12.72
650.603	12.75
650.793	12.73
650.983	12.71
651.172	12.75
651.362	12.78
651.552	12.71
651.742	12.6
651.932	12.54
652.122	12.48
652.312	12.36
652.502	12.25
652.691	12.21
652.881	12.2
653.071	12.12
653.261	12.02
653.45	11.96
653.64	11.98
653.83	11.89
654.019	11.75
654.209	11.69
654.399	11.63
654.588	11.54
654.778	11.48
654.968	11.32
655.157	11.2
655.347	11.1
655.536	10.95
655.726	10.83
655.915	10.78
656.105	10.63
656.294	10.54
656.484	10.5
656.673	10.46
656.863	10.31
657.052	10.15
657.241	9.98
657.431	9.87
657.62	9.68
657.809	9.48
657.999	9.28
658.188	9.17
658.377	9.11
658.567	8.99
658.756	8.85
658.945	8.73
659.134	8.64
659.324	8.52
659.513	8.34
659.702	8.16
659.891	8
660.08	7.86
660.269	7.8
660.458	7.68
660.648	7.58
660.837	7.5
661.026	7.42
661.215	7.33
661.404	7.24
661.593	7.06
661.782	6.94
661.971	6.81
662.16	6.7
662.349	6.56
662.538	6.48
662.726	6.34
662.915	6.3
663.104	6.15
663.293	6.02
663.482	5.91
663.671	5.79
663.86	5.71
664.048	5.62
664.237	5.53
664.426	5.5
664.615	5.45
664.803	5.38
664.992	5.39
665.181	5.3
665.369	5.25
665.558	5.18
665.747	5.18
665.935	5.15
666.124	5.17
666.312	5.04
666.501	4.98
666.69	4.9
666.878	4.86
667.067	4.77
667.255	4.74
667.444	4.69
667.632	4.71
667.82	4.7
668.009	4.76
668.197	4.74
668.386	4.72
668.574	4.72
668.762	4.71
668.951	4.69
669.139	4.69
669.327	4.65
669.516	4.67
669.704	4.71
669.892	4.65
670.08	4.57
670.269	4.55
670.457	4.53
670.645	4.52
670.833	4.53
671.021	4.48
671.21	4.55
671.398	4.6
671.586	4.64
671.774	4.64
671.962	4.66
672.15	4.61
672.338	4.66
672.526	4.69
672.714	4.71
672.902	4.72
673.09	4.78
673.278	4.81
673.466	4.94
673.654	4.96
673.842	4.94
674.03	5.02
674.218	5.07
674.405	5.13
674.593	5.22
674.781	5.22
674.969	5.32
675.157	5.38
675.344	5.45
675.532	5.49
675.72	5.44
675.908	5.45
676.095	5.5
676.283	5.51
676.471	5.55
676.658	5.56
676.846	5.63
677.033	5.77
677.221	5.82
677.409	5.85
677.596	5.95
677.784	5.99
677.971	6.04
678.159	6.14
678.346	6.16
678.534	6.27
678.721	6.34
678.909	6.31
679.096	6.37
679.283	6.43
679.471	6.5
679.658	6.68
679.846	6.69
680.033	6.81
680.22	6.91
680.408	6.99
680.595	7.1
680.782	7.12
680.969	7.05
681.157	7.13
681.344	7.22
681.531	7.31
681.718	7.46
681.905	7.6
682.093	7.76
682.28	7.97
682.467	8.07
682.654	8.12
682.841	8.3
683.028	8.52
683.215	8.61
683.402	8.64
683.589	8.77
683.776	8.98
683.963	9.17
684.15	9.3
684.337	9.35
684.524	9.52
684.711	9.73
684.898	9.85
685.085	10.04
685.271	10.24
685.458	10.51
685.645	10.76
685.832	11.04
686.019	11.34
686.205	11.68
686.392	11.91
686.579	12.2
686.766	12.43
686.952	12.83
687.139	13.11
687.326	13.41
687.512	13.61
687.699	13.91
687.886	14.14
688.072	14.56
688.259	14.88
688.445	15.16
688.632	15.63
688.818	16.13
689.005	16.67
689.191	17.2
689.378	17.5
689.564	17.84
689.751	18.43
689.937	18.67
690.124	19.24
690.31	19.62
690.496	20.09
690.683	20.73
690.869	21.32
691.055	21.86
691.242	22.41
691.428	22.92
691.614	23.52
691.8	24.09
691.987	24.56
692.173	25.12
692.359	25.71
692.545	26.5
692.731	27.07
692.918	27.66
693.104	28.21
693.29	28.94
693.476	29.43
693.662	29.94
693.848	30.41
694.034	30.96
694.22	31.63
694.406	32.34
694.592	32.86
694.778	33.56
694.964	34.2
695.15	34.87
695.336	35.64
695.522	36.29
695.708	36.85
695.894	37.4
696.08	37.94
696.265	38.52
696.451	39.19
696.637	39.63
696.823	40.16
697.009	40.84
697.194	41.54
697.38	42.05
697.566	42.6
697.751	43.25
697.937	43.83
698.123	44.37
698.308	44.87
698.494	45.5
698.68	46.16
698.865	46.93
699.051	47.28
699.236	47.86
699.422	48.43
699.607	48.8
699.793	49.06
699.978	49.61
700.164	49.95
700.349	50.42
700.535	50.93
700.72	51.44
700.906	51.99
701.091	52.59
701.276	52.95
701.462	53.41
701.647	53.79
701.832	54.16
702.018	54.45
702.203	54.79
702.388	55.07
702.573	55.64
702.759	55.98
702.944	56.54
703.129	56.89
703.314	57.36
703.499	57.93
703.684	58.48
703.87	58.79
704.055	59.26
704.24	59.44
704.425	60.05
704.61	60.23
704.795	60.55
704.98	60.96
705.165	61.2
705.35	61.34
705.535	61.85
705.72	61.75
705.905	62.04
706.09	62.13
706.275	62.15
706.459	62.59
706.644	62.75
706.829	62.95
707.014	63.27
707.199	63.52
707.384	63.92
707.568	64.34
707.753	64.58
707.938	64.98
708.123	65.07
708.307	65.55
708.492	65.64
708.677	65.96
708.861	66.03
709.046	66.05
709.231	66.51
709.415	66.83
709.6	66.89
709.784	67.29
709.969	67.37
710.153	67.92
710.338	68.17
710.522	68.05
710.707	67.8
710.891	67.93
711.076	67.93
711.26	68.23
711.445	68.02
711.629	68.36
711.813	68.39
711.998	68.93
712.182	69.22
712.366	69.64
712.551	69.79
712.735	69.99
712.919	70.07
713.103	70.44
713.288	70.72
713.472	70.52
713.656	70.45
713.84	70.49
714.024	70.65
714.208	70.7
714.393	70.88
714.577	70.93
714.761	71.39
714.945	71.51
715.129	71.64
715.313	71.83
715.497	72
715.681	72.15
715.865	72.16
716.049	72.44
716.233	72.85
716.417	73.16
716.601	73.16
716.785	73.28
716.968	73.17
717.152	73.35
717.336	73.27
717.52	73.49
717.704	73.63
717.888	73.84
718.071	74.14
718.255	74.42
718.439	74.42
718.622	74.49
718.806	74.06
718.99	74.1
719.174	74.13
719.357	74.06
719.541	74.32
719.724	74.56
719.908	74.72
720.092	75.13
720.275	75.29
720.459	75.47
720.642	75.67
720.826	75.64
721.009	75.47
721.193	75.58
721.376	75.48
721.559	75.44
721.743	75.65
721.926	75.45
722.11	75.59
722.293	75.67
722.476	75.53
722.66	75.68
722.843	76.13
723.026	76.06
723.21	76.24
723.393	76.37
723.576	76.47
723.759	76.73
723.942	76.82
724.126	76.46
724.309	76.66
724.492	76.79
724.675	76.83
724.858	77.22
725.041	77.4
725.224	77.42
725.407	77.21
725.59	76.96
725.774	76.92
725.957	77.03
726.14	77
726.322	76.86
726.505	77.35
726.688	77.79
726.871	78.34
727.054	78.48
727.237	78.45
727.42	78.66
727.603	78.67
727.786	78.63
727.968	78.89
728.151	78.66
728.334	78.7
728.517	79.02
728.699	79.22
728.882	79.76
729.065	79.61
729.248	79.38
729.43	79.72
729.613	79.91
729.796	79.59
729.978	79.65
730.161	79.71
730.343	80.14
730.526	80.42
730.708	80.45
730.891	80.56
731.073	80.61
731.256	80.45
731.438	80.62
731.621	80.96
731.803	80.91
731.986	80.79
732.168	80.76
732.35	81.06
732.533	81.07
732.715	81.29
732.898	81.22
733.08	81.96
733.262	82.29
733.444	82.41
733.627	82.4
733.809	82.53
733.991	82.11
734.173	81.75
734.355	81.22
734.538	80.89
734.72	81.51
734.902	81.83
735.084	82.34
735.266	82.66
735.448	82.99
735.63	82.87
735.812	83.49
735.994	82.99
736.176	83.16
736.358	83.33
736.54	83.21
736.722	83.08
736.904	83.08
737.086	82.63
737.268	82.79
737.45	82.48
737.632	81.67
737.814	82.03
737.995	82.12
738.177	82.74
738.359	83.17
738.541	82.97
738.723	83
738.904	83.17
739.086	83.06
739.268	83.55
739.449	83.33
739.631	83.63
739.813	83.5
739.994	83.92
740.176	83.88
740.358	83.84
740.539	83.3
740.721	83.58
740.902	83.08
741.084	83.72
741.265	83.74
741.447	83.66
741.628	83.36
741.81	83.64
741.991	83.24
742.172	83.44
742.354	83.48
742.535	83.45
742.717	83.69
742.898	84.26
743.079	84.16
743.261	84.46
743.442	84.5
743.623	84.52
743.804	84.45
743.986	84.41
744.167	84.15
744.348	84.55
744.529	84.45
744.71	84.13
744.891	83.39
745.073	83.74
745.254	84.01
745.435	83.42
745.616	82.81
745.797	82.55
745.978	83.54
746.159	84.03
746.34	83.79
746.521	83.63
746.702	83.87
746.883	84.37
747.064	84.33
747.245	83.9
747.426	84.22
747.606	83.67
747.787	83.74
747.968	84.33
748.149	84.08
748.33	85.06
748.51	84.44
748.691	84.6
748.872	85.12
749.053	84.92
749.233	84.48
749.414	84.38
749.595	82.67
749.775	82.81
749.956	81.75
750.137	81.33
750.317	81.49
750.498	81.64
750.678	82.03
750.859	82.95
751.04	83.02
751.22	82.86
751.4	83.45
751.581	83.52
751.761	84.11
751.942	84.02
752.122	83.78
752.303	84.11
752.483	84.88
752.663	85.15
752.844	84.68
753.024	84.1
753.204	83.48
753.385	83.35
753.565	82.6
753.745	82.87
753.925	81.95
754.106	82.23
754.286	81.84
754.466	82.26
754.646	82.06
754.826	82.6
755.006	82.37
755.187	82.32
755.367	82.66
755.547	82.65
755.727	82.85
755.907	84.22
756.087	83.98
756.267	83.57
756.447	84.25
756.627	83.65
756.807	84.33
756.987	85.13
757.167	83.69
757.346	83.34
757.526	83.48
757.706	83.05
757.886	83.64
758.066	82.71
758.246	81.7
758.425	82.04
758.605	82.51
758.785	82.02
758.965	81.15
759.144	81.01
759.324	81.62
759.504	81.41
759.683	80.93
759.863	81.01
760.043	81.05
760.222	81.68
760.402	81.95
760.581	82.29
760.761	81.72
760.94	82.03
761.12	81.99
761.299	81.53
761.479	82.12
761.658	80.9
761.838	80.08
762.017	81.01
762.197	81.17
762.376	80.9
762.555	81.99
762.735	79.73
762.914	80.99
763.093	81.19
763.273	80.89
763.452	80.55
763.631	79.46
763.81	79.87
763.99	81.85
764.169	81.34
764.348	81.65
764.527	81.56
764.706	81.9
764.885	83.07
765.064	81.91
765.243	80.83
765.423	81.11
765.602	80.8
765.781	80.38
765.96	80.51
766.139	79.99
766.318	80.97
766.497	81.28
766.676	80.99
766.854	80.21
767.033	80
767.212	78.96
767.391	79.08
767.57	78.29
767.749	78.29
767.928	77.62
768.106	78.7
768.285	79.48
768.464	80.15
768.643	80.29
768.821	80.47
769	79.55
769.179	78.75
769.357	77.31
769.536	76.81
769.715	76.92
769.893	76.9
770.072	76.43
770.25	77.22
770.429	79.08
770.607	79.48
770.786	79.09
770.964	78.07
771.143	77.86
771.321	77.57
771.5	77.21
771.678	76.68
771.857	76.41
772.035	77.36
772.213	77.64
772.392	78.21
772.57	78.33
772.748	78.49
772.927	78.36
773.105	79.2
773.283	78.02
773.461	77.95
773.64	76.26
773.818	76
773.996	75.21
774.174	74.32
774.352	74.8
774.531	74.04
774.709	75.66
774.887	76.15
775.065	77.14
775.243	78.87
775.421	78.82
775.599	76.59
775.777	77.54
775.955	75.45
776.133	74.38
776.311	73.13
776.489	71.78
776.667	72.4
776.844	73.3
777.022	72.49
777.2	73.73
777.378	75.03
777.556	77.06
777.734	77.46
777.911	79.06
778.089	78.93
778.267	80.11
778.445	77.9
778.622	77.12
778.8	75.07
778.978	74.35
779.155	72.77
779.333	72
779.511	72.36
779.688	72.57
779.866	72.62
780.043	73.72
780.221	74.41
780.398	75.1
780.576	75.32
780.753	74.39
780.931	77.29
781.108	79.61
781.286	76.62
781.463	76.57
781.64	75.5
781.818	75.78
781.995	76.33
782.172	73.59
782.35	72.27
782.527	74.76
782.704	74.65
782.882	75.95
783.059	76
783.236	75.96
783.413	76.94
783.59	74.58
783.768	74.4
783.945	75.7
784.122	74.91
784.299	74.83
784.476	73.92
784.653	72.52
784.83	72.68
785.007	73.62
785.184	72.24
785.361	73.03
785.538	71.64
785.715	71.84
785.892	71.39
786.069	73.65
786.246	71.59
786.423	73.41
786.6	71.65
786.776	72.77
786.953	72.3
787.13	75.34
787.307	73.45
787.484	74.42
787.66	72.11
787.837	72.67
788.014	70.84
788.191	71.67
788.367	71.03
788.544	72.17
788.721	70.78
788.897	72.54
789.074	72.66
789.25	76.56
789.427	76.59
789.603	77.87
789.78	78.45
789.956	79.93
790.133	77.88
790.309	77.4
790.486	77.73
790.662	76.74
790.839	76.53
791.015	75.52
791.192	76.01
791.368	78.47
791.544	79.78
791.721	76.51
791.897	77.05
792.073	74.53
792.249	75.69
792.426	75.55
792.602	73.37
792.778	71.75
792.954	72.59
793.13	73.69
793.307	72.79
793.483	71.83
793.659	73.42
793.835	73.23
794.011	70.86
794.187	69.15
794.363	68.84
794.539	68.89
794.715	67.89
794.891	64.36
795.067	65.67
795.243	66.51
795.419	68.75
795.595	67.57
795.771	68.96
795.947	68.67
796.122	70.16
796.298	69.67
796.474	71.36
796.65	71.05
796.826	72.32
797.001	72.59
797.177	72.82
797.353	75.56
797.529	74.45
797.704	75.59
797.88	73.79
798.056	76
798.231	74.01
798.407	73.63
798.582	73.03
798.758	76.02
798.934	75.09
799.109	73.44
799.285	72.88
799.46	76.19
799.636	78.88
799.811	77.58
799.986	77.81
800.162	78.54
800.337	79.4
800.513	78.95
800.688	80.44
800.863	76.36
801.039	73.13
801.214	70.01
801.389	68.53
801.565	73.63
801.74	68.74
801.915	65.24
802.09	66.75
802.265	68.96
802.441	67.09
802.616	68.63
802.791	64.77
802.966	68.12
803.141	65.97
803.316	67.72
803.491	63.65
803.666	66.65
803.841	64.87
804.016	65.54
804.191	66.36
804.366	67.34
804.541	65.01
804.716	65.08
804.891	66.87
805.066	70.41
805.241	69.2
805.416	67.78
805.591	74.62
805.765	77.31
805.94	84.38
806.115	79.22
806.29	76.02
806.464	76.55
806.639	76.9
806.814	67.84
806.989	68.28
807.163	62.7
807.338	61.99
807.512	57.81
807.687	57.27
807.862	55.26
808.036	57.72
808.211	57.79
808.385	54.78
808.56	62.95
808.734	69.08
808.909	70.83
809.083	74.41
809.258	80.81
809.432	73.77
809.606	77.63
809.781	71.64
809.955	68.05
810.13	71.14
810.304	65.35
810.478	60.56
810.652	67.17
810.827	66.3
811.001	67.39
811.175	67.13
811.349	62.78
811.524	63.76
811.698	63.95
811.872	62.19
812.046	63.71
812.22	58.65
812.394	60.1
812.568	61.82
812.742	60.53
812.916	60.85
813.09	58.57
813.264	59.5
813.438	69.57
813.612	67.92
813.786	74.11
813.96	80.34
814.134	81.11
814.308	81.6
814.482	82.1
814.656	83.63
814.83	85.24
815.003	83.34
815.177	80.49
815.351	77.76
815.525	76.7
815.698	72.98
815.872	64.15
816.046	59.94
816.219	61.59
816.393	55.54
816.567	53.56
816.74	57.79
816.914	60.24
817.088	61.64
817.261	65.62
817.435	58.75
817.608	64.09
817.782	68.9
817.955	67.14
818.129	69.36
818.302	78.55
818.475	81.13
818.649	77.42
818.822	80.41
818.996	79
819.169	75.5
819.342	72.49
819.516	67.71
819.689	67.78
819.862	70.69
820.035	67.58
820.209	65.17
820.382	65.81
820.555	67.92
820.728	59.57
820.901	56.68
821.075	63.02
821.248	63.22
821.421	61.97
821.594	67.94
821.767	68.11
821.94	66.67
822.113	66.96
822.286	63.22
822.459	68.41
822.632	73.18
822.805	68.68
822.978	65.29
823.151	73.57
823.324	69.13
823.496	60.75
823.669	58.32
823.842	66.29
824.015	61.15
824.188	59.86
824.361	53.64
824.533	52.55
824.706	72.15
824.879	77.12
825.051	69.5
825.224	71.48
825.397	66.11
825.569	74.46
825.742	76.32
825.915	67.36
826.087	59.14
826.26	58.28
826.432	60.27
826.605	68.25
826.777	61.4
826.95	56.35
827.122	53.9
827.295	58.1
827.467	46.4
827.64	36.27
827.812	38.17
827.984	44.7
828.157	50.89
828.329	52.88
828.501	49.24
828.674	49.35
828.846	58.81
829.018	48.12
829.19	45.13
829.363	44
829.535	46.49
829.707	46.97
829.879	55.28
830.051	52.7
830.223	47
830.395	40.48
830.568	42.22
830.74	47.72
830.912	48.8
831.084	47.07
831.256	42.52
831.428	46.58
831.6	51.67
831.772	49.2
831.943	41.41
832.115	45.34
832.287	37.87
832.459	48.58
832.631	63.61
832.803	63.51
832.975	64.34
833.146	63.11
833.318	62.1
833.49	72.68
833.662	67.83
833.833	62.82
834.005	68.28
834.177	67.27
834.348	62.96
834.52	62.22
834.692	69.06
834.863	67.81
835.035	57.13
835.206	53.83
835.378	52.44
835.549	58.07
835.721	60.35
835.892	59.85
836.064	68.45
836.235	73.2
836.407	65.49
836.578	69.8
836.749	74.2
836.921	72
837.092	63.71
837.264	46.58
837.435	39.33
837.606	53.67
837.777	43.57
837.949	32.85
838.12	28.79
838.291	39.86
838.462	48.1
838.633	53.77
838.805	50.3
838.976	62.41
839.147	62.08
839.318	57.17
839.489	53
839.66	56.65
839.831	47.54
840.002	39.88
840.173	36.59
840.344	57.99
840.515	68.23
840.686	62.56
840.857	54.24
841.028	71.59
841.199	79.34
841.369	71.88
841.54	55.52
841.711	54.55
841.882	54.43
842.053	41.15
842.223	27.96
842.394	39.67
842.565	55.93
842.736	63.22
842.906	53.86
843.077	57.65
843.248	66.03
843.418	65.12
843.589	63.88
843.759	54.02
843.93	55.44
844.101	53.98
844.271	61.49
844.442	69.88
844.612	59
844.783	38.25
844.953	39.49
845.123	43.05
845.294	60.78
845.464	53.94
845.635	48.54
845.805	58.24
845.975	59.26
846.146	58.7
846.316	72.42
846.486	74.23
846.656	77.14
846.827	77.1
846.997	90.49
847.167	97.99
847.337	103.87
847.507	102.3
847.677	108.38
847.848	109.37
848.018	113.94
848.188	96.86
848.358	108.63
848.528	82.3
848.698	48.44
848.868	23.99
849.038	32.08
849.208	39.5
849.378	39.1
849.548	48.31
849.718	56.45
849.887	69.25
850.057	54.52
850.227	48.79
850.397	37.37
850.567	52.76
850.737	33.31
850.906	42.68
851.076	41.06
851.246	61.69
851.415	68.78
851.585	69.09
851.755	68.05
851.924	81.03
852.094	84.79
852.264	77.88
852.433	66.99
852.603	77.22
852.772	66.9
852.942	49.62
853.111	40.86
853.281	38.77
853.45	35.96
853.62	34.06
853.789	23.13
853.959	24.62
854.128	11.41
854.297	10.54
854.467	3.73
854.636	10.4
854.805	22.46
854.975	26.66
855.144	40.76
855.313	67.46
855.482	65.73
855.652	62.11
855.821	70.3
855.99	76.41
856.159	66.05
856.328	49.44
856.497	39.66
856.667	53
856.836	56.16
857.005	47.94
857.174	52.65
857.343	56.97
857.512	50.92
857.681	40.19
857.85	22.68
858.019	24.61
858.188	27.81
858.356	-0.31
858.525	10.63
858.694	31.1
858.863	40.68
859.032	37.7
859.201	35.18
859.369	48.34
859.538	57.57
859.707	57.47
859.876	50.26
860.044	66.53
860.213	71.25
860.382	56.66
860.55	72.71
860.719	76.92
860.888	79.21
861.056	83.44
861.225	72.22
861.393	96.73
861.562	98.97
861.73	59.29
861.899	48.67
862.067	51.44
862.236	46.92
862.404	46.13
862.572	39.69
862.741	37.04
862.909	50.25
863.078	47.62
863.246	54.3
863.414	72.97
863.582	71.74
863.751	32.98
863.919	62.04
864.087	56.14
864.255	56.77
864.424	41.29
864.592	25.8
864.76	46.73
864.928	69.32
865.096	45.16
865.264	53.83
865.432	41.7
865.6	24.25
865.768	14.86
865.936	-17.69
866.104	-45.31
866.272	-45.3
866.44	-100.32
866.608	-76.39
866.776	-14.13
866.944	-30.95
867.112	-54.87
867.28	-76.63
867.448	-34
867.615	-0.58
867.783	-2.16
867.951	4.83
868.119	53.2
868.286	59.21
868.454	52.26
868.622	42.97
868.789	46.6
868.957	42.56
869.125	35.66
869.292	34
869.46	42.87
869.627	38.13
869.795	40.46
869.963	30.08
870.13	48.1
870.298	32.65
870.465	-5.94
870.632	-20.1
870.8	-14.25
870.967	-3.47
871.135	7.25
871.302	0.74
871.469	11.48
871.637	22.71
871.804	32.95
871.971	35.02
872.139	37.86
872.306	35.77
872.473	23.95
872.64	22.88
872.807	35.25
872.975	61.89
873.142	70.03
873.309	57.45
873.476	119.93
873.643	201.51
873.81	171.4
873.977	86.71
874.144	67.6
874.311	5.16
874.478	-10.56
874.645	-30.9
874.812	0.26
874.979	-22.19
875.146	-38.61
875.313	-30.92
875.48	103.91
875.647	95.68
875.813	68.78
875.98	53.07
876.147	104.17
876.314	104.61
876.481	75.52
876.647	42.11
876.814	59.11
876.981	60.57
877.147	43.41
877.314	20.55
877.481	37.82
877.647	51.55
877.814	54.69
877.98	82.51
878.147	85.65
878.314	90.73
878.48	91.62
878.647	107.05
878.813	91.35
878.979	105.8
879.146	76.17
879.312	88.19
879.479	95.15
879.645	76.88
879.811	42.17
879.978	44.75
880.144	56.61
880.31	23.9
880.477	-6.73
880.643	-57.22
880.809	82.03
880.975	68.11
881.142	54.78
881.308	65.47
881.474	141.57
881.64	96.46
881.806	83.76
881.972	118.83
882.138	146.48
882.304	140.74
882.47	66.66
882.636	-22.74
882.802	-10.74
882.968	-102.61
883.134	-379.06
883.3	-166.73
883.466	-47.08
883.632	-46.17
883.798	3.25
883.964	10.82
884.129	29.95
884.295	29.21
884.461	27.18
884.627	14.08
884.793	57.88
884.958	40.53
885.124	28.19
885.29	34.96
885.455	42.82
885.621	30.29
885.787	25.71
885.952	25.15
886.118	41.24
886.283	54.76
886.449	51.65
886.614	68.19
886.78	87.29
886.945	90.84
887.111	76.77
887.276	65.49
887.442	55.24
887.607	28.77
887.773	-3.18
887.938	-37.24
888.103	-0.69
888.269	7.72
888.434	-5.7
888.599	7.58
888.764	15.49
888.93	41.3
889.095	36.29
889.26	12.41
889.425	27.4
889.59	31.95
889.756	23.8
889.921	39.19
890.086	42.02
890.251	36.7
890.416	25.8
890.581	18.27
890.746	5.55
890.911	-29.74
891.076	-79.39
891.241	-88.53
891.406	-9.73
891.571	11.65
891.736	10.3
891.901	48.28
892.065	70.31
892.23	79.07
892.395	56.08
892.56	46.11
892.725	34
892.889	8.61
893.054	-68.93
893.219	-144.62
893.384	-268.75
893.548	-732.5
893.713	1327.97
893.878	636.96
