Data from Ofra_2a_PS_2GT7_Reflection_3.txt Node
Date: Tue Jul 20 09:44:56 EDT 2021
User: Adam
Spectrometer: FLMT01687
Trigger mode: 0
Integration Time (sec): 9.450000E-1
Scans to average: 3
Electric dark correction enabled: true
Nonlinearity correction enabled: false
Boxcar width: 3
XAxis mode: Wavelengths
Number of Pixels in Spectrum: 3648
>>>>>Begin Spectral Data<<<<<
179.494	752.07
179.716	501.85
179.937	493.96
180.158	2165.23
180.38	-446.22
180.601	-76.86
180.823	-27.88
181.044	95.72
181.265	47.49
181.486	11.97
181.708	-38.04
181.929	-230.12
182.15	-1042.61
182.372	158.03
182.593	223.89
182.814	-10.63
183.035	127.79
183.257	130.76
183.478	66.74
183.699	64.37
183.92	49.46
184.141	58.64
184.363	58.76
184.584	36.67
184.805	22.38
185.026	17.6
185.247	16.36
185.468	13.77
185.689	19.38
185.91	15.7
186.132	31.82
186.353	21.87
186.574	33.14
186.795	23.95
187.016	31.13
187.237	27.73
187.458	11.4
187.679	-18.86
187.9	-7.78
188.121	-34.43
188.342	-11.33
188.563	-12.61
188.784	-14.92
189.005	0.55
189.226	7.79
189.447	-0.24
189.667	3.08
189.888	17.56
190.109	26.69
190.33	26.84
190.551	16.91
190.772	15.48
190.993	37.59
191.214	41.3
191.434	38.42
191.655	37.25
191.876	42.44
192.097	37.56
192.318	45.69
192.538	43.45
192.759	51.07
192.98	36.55
193.201	38.45
193.421	36.14
193.642	50.94
193.863	49.43
194.083	37.73
194.304	30.45
194.525	48.05
194.745	30.21
194.966	35.66
195.187	37.02
195.407	32.71
195.628	31.5
195.848	23.88
196.069	20.12
196.29	17.44
196.51	13.84
196.731	21.16
196.951	11.34
197.172	8.45
197.392	27.28
197.613	20.8
197.833	28.61
198.054	18.52
198.274	-15.58
198.495	-4.79
198.715	-23.72
198.936	-41.66
199.156	-24.17
199.377	-30.09
199.597	-3.54
199.817	28.7
200.038	24.01
200.258	39.48
200.479	32.02
200.699	28.54
200.919	19.34
201.14	14.06
201.36	17.21
201.58	19.78
201.801	21.46
202.021	19.34
202.241	23.36
202.461	33.04
202.682	28.76
202.902	17.06
203.122	13.42
203.342	28.38
203.563	31.06
203.783	38.01
204.003	34.3
204.223	36.88
204.443	37.34
204.663	38.26
204.884	26.21
205.104	27.81
205.324	30.13
205.544	40.45
205.764	36.52
205.984	49.8
206.204	58.95
206.424	51.15
206.644	48.03
206.864	39.98
207.084	46.7
207.304	43.81
207.525	24.85
207.745	16.35
207.964	14.54
208.184	16.27
208.404	14.87
208.624	-15.16
208.844	-4.8
209.064	15.2
209.284	21.38
209.504	22.18
209.724	10.09
209.944	6.55
210.164	21.58
210.384	21.88
210.604	-8.28
210.823	-16.66
211.043	-15.95
211.263	4.41
211.483	10.74
211.703	14.66
211.922	13.3
212.142	27.07
212.362	33.69
212.582	27.68
212.801	19.03
213.021	14.81
213.241	12.17
213.461	8.91
213.68	9.86
213.9	9.2
214.12	13.81
214.339	22.46
214.559	34.3
214.779	37.33
214.998	31.94
215.218	41.49
215.438	54.27
215.657	50.12
215.877	42.19
216.096	39.89
216.316	27.22
216.535	34.33
216.755	7.69
216.974	-6.49
217.194	-9.14
217.413	14.71
217.633	6.63
217.852	10.91
218.072	-8.89
218.291	24.24
218.511	22.78
218.73	18.76
218.95	14.12
219.169	20.15
219.389	16
219.608	31.69
219.827	25.38
220.047	30.16
220.266	32.21
220.485	26.88
220.705	18.12
220.924	21.02
221.143	16.97
221.363	20.71
221.582	16.05
221.801	18.96
222.021	22.45
222.24	27.21
222.459	17.6
222.678	19.82
222.897	10.54
223.117	11.56
223.336	21.71
223.555	19.27
223.774	20.25
223.993	33.44
224.213	24.92
224.432	23.01
224.651	24.49
224.87	15.77
225.089	13.44
225.308	15.79
225.527	13.61
225.746	15.98
225.965	17.2
226.184	7.28
226.404	-7.4
226.623	0.14
226.842	1.24
227.061	9.66
227.28	21.12
227.499	35.88
227.718	34.66
227.936	36.36
228.155	32.08
228.374	31.08
228.593	22.62
228.812	15.91
229.031	-2.45
229.25	9.31
229.469	14.05
229.688	15.48
229.907	6.78
230.125	7.82
230.344	8.72
230.563	21.49
230.782	18.16
231.001	22.65
231.22	26.04
231.438	32.92
231.657	45.39
231.876	48.11
232.095	41
232.313	37.99
232.532	33.7
232.751	34.65
232.969	36.58
233.188	27.88
233.407	30.57
233.625	37.32
233.844	36.85
234.063	36.78
234.281	31.7
234.5	30.17
234.719	22.36
234.937	26.48
235.156	19.23
235.374	17.78
235.593	10.41
235.811	-3.49
236.03	-7.56
236.249	1.49
236.467	-2.45
236.686	7.26
236.904	8.7
237.123	25.4
237.341	36.36
237.559	38.64
237.778	46.66
237.996	44.43
238.215	37.34
238.433	41.39
238.652	31.04
238.87	27.92
239.088	16.53
239.307	15.95
239.525	7.77
239.743	-1.24
239.962	-7.17
240.18	4.56
240.398	3.16
240.617	20.01
240.835	23.57
241.053	29.7
241.271	44.48
241.49	27.23
241.708	16.41
241.926	11.16
242.144	5.25
242.363	-2.39
242.581	-10.98
242.799	-28.07
243.017	-8.35
243.235	-15.21
243.453	-2.6
243.672	-14.53
243.89	-10.73
244.108	11.68
244.326	17.59
244.544	26.31
244.762	26.85
244.98	23.85
245.198	21.64
245.416	20.98
245.634	22.13
245.852	23.15
246.07	16.07
246.288	9.76
246.506	7.68
246.724	23.13
246.942	22.74
247.16	9.52
247.378	2.14
247.596	8.03
247.814	2.04
248.032	-5.73
248.25	-9.15
248.468	-2.88
248.685	4.04
248.903	3.17
249.121	7.37
249.339	13.4
249.557	21.5
249.775	11.29
249.992	8.78
250.21	4.62
250.428	7.44
250.646	14.02
250.863	22.19
251.081	17.61
251.299	31.02
251.517	41.45
251.734	38.78
251.952	42.63
252.17	6.11
252.387	9.88
252.605	5.12
252.823	0.26
253.04	-14.77
253.258	-12.21
253.475	-12.26
253.693	10.49
253.911	5.53
254.128	13.91
254.346	6.1
254.563	0.22
254.781	2.95
254.998	1.39
255.216	2.98
255.433	0.16
255.651	-1.58
255.868	2.86
256.086	18.97
256.303	19.15
256.521	12.71
256.738	10.68
256.956	6.25
257.173	4.11
257.39	8.45
257.608	4.94
257.825	-3.12
258.043	10.5
258.26	3.09
258.477	19.4
258.695	18.16
258.912	25.95
259.129	20
259.346	20.7
259.564	21.62
259.781	29.42
259.998	17.6
260.216	30.03
260.433	17.36
260.65	28.16
260.867	15.56
261.084	5.04
261.302	-5.99
261.519	-22.64
261.736	-28.59
261.953	-24.19
262.17	-21.92
262.387	-8.55
262.604	-20.25
262.822	-11.41
263.039	-0.19
263.256	3.12
263.473	-2.1
263.69	-6.2
263.907	-7.08
264.124	-0.24
264.341	1.02
264.558	3.93
264.775	0.16
264.992	10.4
265.209	13.46
265.426	12.89
265.643	13.61
265.86	11.82
266.077	14.63
266.294	15.88
266.51	11.64
266.727	-0.92
266.944	-1.6
267.161	0.44
267.378	1.46
267.595	-11.17
267.812	-22.31
268.028	-9.98
268.245	6.24
268.462	9.75
268.679	2.05
268.896	-0.16
269.112	9.23
269.329	22.55
269.546	8.89
269.763	10.94
269.979	16.69
270.196	29.12
270.413	31
270.629	24.8
270.846	16.03
271.063	19.05
271.279	14.41
271.496	-0.31
271.712	-13.61
271.929	-5.61
272.146	10.7
272.362	-4.25
272.579	-8.17
272.795	-7.54
273.012	-3.09
273.228	-0.25
273.445	-3.67
273.661	-9.23
273.878	0.67
274.094	11.73
274.311	4.56
274.527	3.75
274.744	3.28
274.96	-0.61
275.177	-5.74
275.393	-2.1
275.609	-0.93
275.826	10.86
276.042	24.53
276.259	26.84
276.475	26.88
276.691	29.89
276.908	33.11
277.124	26.99
277.34	18.69
277.557	16.21
277.773	13.94
277.989	8.1
278.205	-7.1
278.422	-6.04
278.638	6.5
278.854	12.14
279.07	7.27
279.286	10.02
279.503	24.06
279.719	37.84
279.935	19.98
280.151	20.27
280.367	20.14
280.583	23.46
280.799	26.5
281.016	18.24
281.232	11.64
281.448	22.66
281.664	20.84
281.88	26.09
282.096	19.14
282.312	12
282.528	12.96
282.744	17.43
282.96	10.57
283.176	6.39
283.392	2.68
283.608	11.54
283.824	7.25
284.04	10.48
284.256	3.33
284.471	12.33
284.687	17.78
284.903	11.68
285.119	-6.89
285.335	-3.01
285.551	1.26
285.767	10.47
285.982	4.4
286.198	4.34
286.414	15.4
286.63	29.98
286.846	31.16
287.061	30.58
287.277	26.16
287.493	29.31
287.709	24.18
287.924	19.07
288.14	25.9
288.356	31.18
288.571	28.6
288.787	34
289.003	34.86
289.218	29.53
289.434	26.22
289.65	10.33
289.865	17.91
290.081	9.36
290.296	1.58
290.512	4.97
290.727	7.86
290.943	5.41
291.159	2.27
291.374	-0.08
291.59	-1.19
291.805	1.28
292.021	-20.89
292.236	-19.27
292.451	-13.57
292.667	-10.12
292.882	-23.34
293.098	-24.03
293.313	-29.53
293.529	-14.64
293.744	-16.04
293.959	-5.82
294.175	-6.37
294.39	1.05
294.605	6.59
294.821	13.94
295.036	15.92
295.251	21.88
295.467	7.5
295.682	20.11
295.897	15.99
296.112	23.24
296.328	23.08
296.543	9.16
296.758	6.88
296.973	5.57
297.188	-0.99
297.404	3.85
297.619	1.46
297.834	17.11
298.049	30.99
298.264	21.74
298.479	19.86
298.694	25.91
298.909	18.7
299.125	14.74
299.34	-4.1
299.555	-1.8
299.77	2.07
299.985	0.69
300.2	-2.32
300.415	4.62
300.63	6.34
300.845	13.23
301.06	8.41
301.275	12.71
301.49	21.71
301.704	15.58
301.919	3.08
302.134	-3.97
302.349	-12.47
302.564	-20.8
302.779	-23.89
302.994	-32.29
303.209	-33.02
303.423	-8.86
303.638	-4.15
303.853	9.43
304.068	19.77
304.283	20.45
304.497	23.82
304.712	27.66
304.927	22.07
305.142	29.48
305.356	25.17
305.571	28.48
305.786	22.77
306	27.26
306.215	21.62
306.43	28.02
306.644	17.71
306.859	22.74
307.074	17.86
307.288	23.78
307.503	17.59
307.717	16.28
307.932	15.97
308.147	16.66
308.361	7.32
308.576	7.77
308.79	-0.19
309.005	5.59
309.219	12.3
309.434	1.68
309.648	-15.97
309.863	-2.39
310.077	-3.61
310.292	2.95
310.506	0.9
310.72	-7.69
310.935	10.03
311.149	26.25
311.364	26.08
311.578	19.66
311.792	17.13
312.007	10.35
312.221	20.91
312.435	9.06
312.649	-6.83
312.864	-17.81
313.078	-6.52
313.292	3.63
313.507	14.17
313.721	-6.47
313.935	12.13
314.149	22.52
314.363	29.08
314.578	52.38
314.792	44.48
315.006	50.14
315.22	62.14
315.434	50.98
315.648	58.97
315.862	47.86
316.077	35.24
316.291	36.34
316.505	26.98
316.719	6.24
316.933	12.66
317.147	4.9
317.361	3.76
317.575	-6.08
317.789	-5.91
318.003	-5.09
318.217	4.99
318.431	4.24
318.645	14.25
318.859	4.58
319.073	4.78
319.287	13.18
319.5	17.57
319.714	19.03
319.928	23.92
320.142	20.69
320.356	37.95
320.57	34.86
320.784	29.12
320.997	32.4
321.211	25.41
321.425	16.79
321.639	17.08
321.853	7.46
322.066	8.41
322.28	15.1
322.494	1.94
322.707	9.26
322.921	10.48
323.135	5.28
323.349	13.71
323.562	13.53
323.776	9.06
323.989	12.82
324.203	12.23
324.417	13.23
324.63	8.48
324.844	-5.56
325.057	-5.52
325.271	-10.56
325.485	-1.82
325.698	-10.36
325.912	-3.75
326.125	3.95
326.339	13.9
326.552	27.51
326.766	30.27
326.979	24.48
327.193	32.5
327.406	30.01
327.619	25.85
327.833	19.86
328.046	7.5
328.26	5.88
328.473	12.03
328.686	11.49
328.9	7.47
329.113	7.13
329.326	15.6
329.54	11.68
329.753	15.83
329.966	13.18
330.179	18.16
330.393	22.35
330.606	28.23
330.819	25.22
331.032	26.63
331.246	25.47
331.459	17.39
331.672	11.35
331.885	2.53
332.098	-0.54
332.311	-11.76
332.525	-1.4
332.738	-6.45
332.951	5.31
333.164	5.44
333.377	5.68
333.59	21.83
333.803	25.52
334.016	16.87
334.229	20.08
334.442	29.25
334.655	27.08
334.868	29.12
335.081	25.3
335.294	27.84
335.507	40.48
335.72	34.44
335.933	26.06
336.146	30.64
336.359	30.96
336.572	22.43
336.785	27.64
336.997	14.64
337.21	23.26
337.423	18.17
337.636	10.99
337.849	10.62
338.062	14.56
338.274	2.92
338.487	12.09
338.7	13.94
338.913	14.66
339.125	13.99
339.338	19.52
339.551	18.66
339.763	17.39
339.976	15.96
340.189	4.47
340.402	7.83
340.614	11.26
340.827	1.29
341.039	0.68
341.252	1.32
341.465	-6.54
341.677	-5.01
341.89	-6.74
342.102	-1.32
342.315	12.23
342.527	7.36
342.74	6.14
342.952	15.21
343.165	24.45
343.377	27.3
343.59	21.28
343.802	17.65
344.015	17.63
344.227	13.1
344.44	7.62
344.652	7.33
344.864	4.52
345.077	-2.29
345.289	-6.16
345.502	4.09
345.714	-2.32
345.926	-2.61
346.139	-2.15
346.351	-16.1
346.563	-8.25
346.775	-15.48
346.988	-15.03
347.2	5.45
347.412	8.55
347.624	11.06
347.837	14.52
348.049	16.14
348.261	19.68
348.473	16.47
348.685	9.46
348.897	11.41
349.11	14.25
349.322	14.78
349.534	9.38
349.746	12.58
349.958	13.35
350.17	17.15
350.382	5.36
350.594	-0.92
350.806	10.11
351.018	18.83
351.23	19.39
351.442	13.53
351.654	13.79
351.866	27.43
352.078	23.43
352.29	22.83
352.502	21.94
352.714	23.83
352.926	30.35
353.138	31.21
353.35	19.18
353.561	21.86
353.773	19.56
353.985	20.42
354.197	11.56
354.409	14.76
354.621	16.42
354.832	14.55
355.044	18.07
355.256	12.01
355.468	5.2
355.679	13.04
355.891	8.98
356.103	9.15
356.314	9.82
356.526	-1.93
356.738	3.33
356.949	9.34
357.161	13.61
357.373	14.01
357.584	18.33
357.796	8.69
358.008	21.19
358.219	22
358.431	17
358.642	10.16
358.854	4.56
359.065	-2.27
359.277	2.62
359.488	-0.42
359.7	0.21
359.911	-4.27
360.123	-0.5
360.334	2.51
360.546	-10.65
360.757	0.06
360.969	7.69
361.18	4.53
361.391	8.03
361.603	5.22
361.814	14.94
362.025	29.17
362.237	25.09
362.448	13.96
362.659	8.03
362.871	10.79
363.082	15.43
363.293	14.38
363.504	14.78
363.716	11.88
363.927	13.98
364.138	18.51
364.349	19.81
364.56	18.57
364.772	13.41
364.983	6.76
365.194	7.9
365.405	6.11
365.616	-1.48
365.827	-2.67
366.038	4.99
366.25	8.75
366.461	14.53
366.672	24.87
366.883	33.15
367.094	34.18
367.305	39.25
367.516	35.86
367.727	30.14
367.938	33.09
368.149	29.05
368.36	27.46
368.571	32.67
368.781	23.34
368.992	19.65
369.203	19.02
369.414	11.77
369.625	13.5
369.836	12.53
370.047	11.97
370.258	11.58
370.468	10.27
370.679	6.33
370.89	12.96
371.101	7.56
371.312	7.61
371.522	5.53
371.733	0.68
371.944	0.76
372.155	-0.55
372.365	-6.8
372.576	-8.33
372.787	-11.43
372.997	-15.41
373.208	-6.19
373.419	-4.12
373.629	7.31
373.84	7.02
374.05	14.3
374.261	11.97
374.472	8.49
374.682	3.93
374.893	1.41
375.103	-0.69
375.314	-1.01
375.524	-0.62
375.735	0.74
375.945	7.12
376.156	10.93
376.366	15.27
376.577	15.99
376.787	17.89
376.997	14.72
377.208	15.13
377.418	18.38
377.629	18.61
377.839	20.29
378.049	18.63
378.26	18.99
378.47	19.42
378.68	19.6
378.89	9.49
379.101	-1.44
379.311	-9.38
379.521	-4.49
379.732	-15.28
379.942	-13.78
380.152	-7.2
380.362	8.11
380.572	18.45
380.783	23.82
380.993	23.54
381.203	29.7
381.413	30.22
381.623	26.41
381.833	15.34
382.043	5.51
382.253	2.52
382.463	1.9
382.674	-0.75
382.884	-7.53
383.094	-8.83
383.304	-0.34
383.514	10.74
383.724	10.62
383.934	7.1
384.144	11.9
384.353	17.57
384.563	13.6
384.773	7.96
384.983	4.97
385.193	7.31
385.403	13.45
385.613	10.91
385.823	11.29
386.033	12.82
386.242	11.35
386.452	9.44
386.662	7.69
386.872	1.38
387.082	1.13
387.291	-2.78
387.501	-1.51
387.711	1.03
387.921	-0.27
388.13	-0.47
388.34	1.13
388.55	2.71
388.759	3.21
388.969	1.92
389.179	3.78
389.388	6.44
389.598	4.02
389.807	2.45
390.017	1.96
390.227	2.28
390.436	3.08
390.646	3.01
390.855	2.24
391.065	3.1
391.274	3.81
391.484	4.31
391.693	4.59
391.903	4.41
392.112	2.29
392.322	4.93
392.531	6.58
392.74	5.25
392.95	5.51
393.159	5.91
393.369	5.72
393.578	5.79
393.787	4.72
393.997	4.47
394.206	5.91
394.415	5.58
394.625	4.83
394.834	4.02
395.043	4.76
395.252	5.07
395.462	4.25
395.671	4.34
395.88	4.14
396.089	4.27
396.298	4.73
396.508	4.15
396.717	3.44
396.926	3.42
397.135	2.78
397.344	3.01
397.553	3.09
397.762	3.01
397.971	3.48
398.181	2.85
398.39	3.22
398.599	3.48
398.808	3.57
399.017	3.65
399.226	3.75
399.435	3.76
399.644	4.14
399.853	3.96
400.062	4.18
400.27	4.12
400.479	3.98
400.688	4.06
400.897	3.98
401.106	4.12
401.315	4.02
401.524	3.92
401.733	4.11
401.941	4.09
402.15	3.91
402.359	3.88
402.568	3.69
402.777	3.58
402.985	3.6
403.194	3.41
403.403	3.27
403.612	3.39
403.82	3.45
404.029	3.52
404.238	3.72
404.446	3.62
404.655	3.58
404.864	3.69
405.072	3.53
405.281	3.37
405.489	3.46
405.698	3.33
405.906	3.3
406.115	3.3
406.324	3.24
406.532	3.4
406.741	3.53
406.949	3.48
407.158	3.6
407.366	3.65
407.574	3.72
407.783	3.64
407.991	3.54
408.2	3.46
408.408	3.39
408.617	3.35
408.825	3.39
409.033	3.31
409.242	3.44
409.45	3.41
409.658	3.44
409.867	3.51
410.075	3.47
410.283	3.39
410.491	3.37
410.7	3.34
410.908	3.37
411.116	3.32
411.324	3.32
411.533	3.2
411.741	3.17
411.949	3.23
412.157	3.22
412.365	3.23
412.573	3.24
412.781	3.2
412.99	3.35
413.198	3.39
413.406	3.33
413.614	3.31
413.822	3.29
414.03	3.22
414.238	3.29
414.446	3.14
414.654	3.14
414.862	3.17
415.07	3.24
415.278	3.13
415.486	3.23
415.694	3.1
415.902	3.15
416.109	3.13
416.317	3.02
416.525	2.96
416.733	3.15
416.941	3.03
417.149	3.11
417.357	3.14
417.564	3.13
417.772	3.16
417.98	3.16
418.188	3
418.395	3.05
418.603	2.92
418.811	2.82
419.019	2.85
419.226	2.93
419.434	2.8
419.642	2.79
419.849	2.83
420.057	2.86
420.265	2.94
420.472	2.88
420.68	2.82
420.887	2.94
421.095	3.01
421.302	2.92
421.51	3.03
421.717	3.02
421.925	2.93
422.132	2.94
422.34	2.92
422.547	2.83
422.755	2.84
422.962	2.75
423.17	2.74
423.377	2.92
423.585	2.88
423.792	2.81
423.999	2.8
424.207	2.67
424.414	2.71
424.621	2.82
424.829	2.66
425.036	2.65
425.243	2.69
425.451	2.73
425.658	2.89
425.865	2.79
426.072	2.73
426.28	2.78
426.487	2.74
426.694	2.72
426.901	2.67
427.108	2.68
427.315	2.69
427.523	2.62
427.73	2.66
427.937	2.72
428.144	2.77
428.351	2.91
428.558	2.87
428.765	2.89
428.972	2.94
429.179	2.86
429.386	2.83
429.593	2.83
429.8	2.79
430.007	2.91
430.214	2.97
430.421	2.92
430.628	2.84
430.835	2.84
431.042	2.92
431.249	2.91
431.456	2.85
431.662	2.85
431.869	2.95
432.076	3.03
432.283	2.98
432.49	2.91
432.697	2.88
432.903	2.9
433.11	2.94
433.317	2.96
433.524	2.97
433.73	3.04
433.937	3
434.144	3.14
434.35	3.07
434.557	2.98
434.764	2.9
434.97	2.93
435.177	3
435.384	3.09
435.59	2.99
435.797	3.01
436.003	3.04
436.21	3.07
436.416	3.04
436.623	3.01
436.829	2.98
437.036	3.05
437.242	3.06
437.449	3.1
437.655	3.1
437.862	3.1
438.068	3.15
438.275	3.15
438.481	3.17
438.687	3.25
438.894	3.22
439.1	3.24
439.307	3.3
439.513	3.29
439.719	3.35
439.926	3.37
440.132	3.32
440.338	3.4
440.544	3.4
440.751	3.39
440.957	3.35
441.163	3.33
441.369	3.3
441.575	3.29
441.782	3.26
441.988	3.26
442.194	3.31
442.4	3.32
442.606	3.34
442.812	3.38
443.018	3.43
443.224	3.43
443.431	3.49
443.637	3.4
443.843	3.48
444.049	3.45
444.255	3.39
444.461	3.41
444.667	3.44
444.873	3.47
445.079	3.53
445.284	3.49
445.49	3.46
445.696	3.52
445.902	3.56
446.108	3.53
446.314	3.52
446.52	3.56
446.726	3.58
446.931	3.66
447.137	3.68
447.343	3.65
447.549	3.63
447.755	3.56
447.96	3.56
448.166	3.61
448.372	3.57
448.578	3.54
448.783	3.57
448.989	3.62
449.195	3.69
449.4	3.68
449.606	3.62
449.812	3.65
450.017	3.67
450.223	3.63
450.428	3.62
450.634	3.63
450.84	3.63
451.045	3.66
451.251	3.68
451.456	3.71
451.662	3.72
451.867	3.73
452.073	3.72
452.278	3.72
452.483	3.71
452.689	3.72
452.894	3.69
453.1	3.64
453.305	3.7
453.51	3.77
453.716	3.8
453.921	3.81
454.127	3.79
454.332	3.84
454.537	3.91
454.742	3.83
454.948	3.77
455.153	3.78
455.358	3.84
455.563	3.86
455.769	3.84
455.974	3.81
456.179	3.77
456.384	3.78
456.589	3.82
456.795	3.76
457	3.77
457.205	3.77
457.41	3.8
457.615	3.88
457.82	3.96
458.025	3.88
458.23	3.91
458.435	3.87
458.64	3.89
458.845	3.9
459.05	3.91
459.255	3.86
459.46	3.93
459.665	3.97
459.87	4.01
460.075	4.01
460.28	4
460.485	4
460.69	3.96
460.895	3.94
461.099	3.91
461.304	3.98
461.509	3.91
461.714	3.94
461.919	3.94
462.123	4.03
462.328	4.04
462.533	4.09
462.738	4.04
462.942	4.18
463.147	4.18
463.352	4.19
463.556	4.2
463.761	4.25
463.966	4.29
464.17	4.31
464.375	4.26
464.58	4.31
464.784	4.31
464.989	4.29
465.193	4.26
465.398	4.23
465.602	4.22
465.807	4.3
466.011	4.31
466.216	4.35
466.42	4.4
466.625	4.47
466.829	4.51
467.034	4.57
467.238	4.53
467.443	4.53
467.647	4.57
467.851	4.58
468.056	4.49
468.26	4.47
468.464	4.48
468.669	4.54
468.873	4.5
469.077	4.5
469.282	4.49
469.486	4.56
469.69	4.57
469.894	4.61
470.099	4.6
470.303	4.66
470.507	4.65
470.711	4.67
470.915	4.7
471.119	4.72
471.324	4.65
471.528	4.67
471.732	4.68
471.936	4.7
472.14	4.74
472.344	4.73
472.548	4.74
472.752	4.81
472.956	4.84
473.16	4.8
473.364	4.79
473.568	4.77
473.772	4.82
473.976	4.86
474.18	4.84
474.384	4.79
474.588	4.83
474.792	4.89
474.995	4.86
475.199	4.89
475.403	4.86
475.607	4.88
475.811	4.92
476.015	4.94
476.218	4.89
476.422	4.93
476.626	4.88
476.83	4.92
477.033	4.94
477.237	4.94
477.441	4.93
477.644	4.96
477.848	4.96
478.052	5.03
478.255	5.01
478.459	4.98
478.663	4.98
478.866	4.98
479.07	4.99
479.273	4.99
479.477	4.98
479.681	4.97
479.884	4.98
480.088	5.01
480.291	5.06
480.495	5.08
480.698	5.08
480.901	5.11
481.105	5.17
481.308	5.18
481.512	5.17
481.715	5.16
481.919	5.19
482.122	5.21
482.325	5.2
482.529	5.23
482.732	5.26
482.935	5.26
483.138	5.24
483.342	5.25
483.545	5.25
483.748	5.25
483.952	5.25
484.155	5.24
484.358	5.26
484.561	5.31
484.764	5.31
484.967	5.35
485.171	5.33
485.374	5.33
485.577	5.36
485.78	5.4
485.983	5.4
486.186	5.4
486.389	5.38
486.592	5.42
486.795	5.44
486.998	5.45
487.201	5.39
487.404	5.43
487.607	5.4
487.81	5.43
488.013	5.38
488.216	5.37
488.419	5.34
488.622	5.35
488.825	5.31
489.028	5.33
489.231	5.32
489.433	5.36
489.636	5.35
489.839	5.38
490.042	5.41
490.245	5.41
490.447	5.43
490.65	5.46
490.853	5.48
491.056	5.48
491.258	5.52
491.461	5.52
491.664	5.51
491.866	5.51
492.069	5.52
492.272	5.49
492.474	5.49
492.677	5.45
492.879	5.47
493.082	5.52
493.285	5.55
493.487	5.51
493.69	5.53
493.892	5.59
494.095	5.62
494.297	5.64
494.5	5.67
494.702	5.71
494.905	5.78
495.107	5.84
495.309	5.79
495.512	5.87
495.714	5.91
495.917	5.93
496.119	5.95
496.321	5.96
496.524	5.97
496.726	6.01
496.928	6.02
497.13	6.05
497.333	6.06
497.535	6.07
497.737	6.09
497.939	6.09
498.142	6.12
498.344	6.12
498.546	6.15
498.748	6.17
498.95	6.16
499.152	6.15
499.355	6.21
499.557	6.24
499.759	6.29
499.961	6.33
500.163	6.36
500.365	6.4
500.567	6.43
500.769	6.44
500.971	6.41
501.173	6.37
501.375	6.33
501.577	6.36
501.779	6.37
501.981	6.37
502.183	6.33
502.385	6.35
502.587	6.38
502.788	6.39
502.99	6.36
503.192	6.37
503.394	6.38
503.596	6.37
503.798	6.42
503.999	6.45
504.201	6.47
504.403	6.49
504.605	6.49
504.806	6.49
505.008	6.52
505.21	6.51
505.411	6.5
505.613	6.51
505.815	6.49
506.016	6.5
506.218	6.53
506.42	6.52
506.621	6.51
506.823	6.5
507.024	6.45
507.226	6.44
507.427	6.38
507.629	6.36
507.83	6.32
508.032	6.31
508.233	6.31
508.435	6.33
508.636	6.32
508.838	6.34
509.039	6.32
509.24	6.3
509.442	6.26
509.643	6.23
509.845	6.23
510.046	6.23
510.247	6.26
510.448	6.26
510.65	6.32
510.851	6.33
511.052	6.36
511.254	6.29
511.455	6.25
511.656	6.2
511.857	6.23
512.058	6.22
512.26	6.22
512.461	6.19
512.662	6.23
512.863	6.25
513.064	6.25
513.265	6.24
513.466	6.25
513.667	6.21
513.868	6.21
514.069	6.21
514.27	6.19
514.471	6.19
514.672	6.16
514.873	6.16
515.074	6.18
515.275	6.17
515.476	6.17
515.677	6.18
515.878	6.2
516.079	6.22
516.28	6.19
516.481	6.16
516.682	6.17
516.882	6.17
517.083	6.16
517.284	6.16
517.485	6.16
517.686	6.12
517.886	6.11
518.087	6.1
518.288	6.08
518.488	6.07
518.689	6.05
518.89	6.06
519.091	6.08
519.291	6.11
519.492	6.1
519.692	6.1
519.893	6.09
520.094	6.11
520.294	6.06
520.495	6.09
520.695	6.09
520.896	6.1
521.096	6.11
521.297	6.08
521.497	6.07
521.698	6.11
521.898	6.11
522.099	6.13
522.299	6.16
522.499	6.17
522.7	6.22
522.9	6.23
523.101	6.24
523.301	6.21
523.501	6.21
523.702	6.19
523.902	6.19
524.102	6.18
524.302	6.18
524.503	6.16
524.703	6.18
524.903	6.18
525.103	6.16
525.304	6.16
525.504	6.12
525.704	6.11
525.904	6.12
526.104	6.12
526.304	6.13
526.504	6.15
526.705	6.19
526.905	6.23
527.105	6.25
527.305	6.22
527.505	6.22
527.705	6.19
527.905	6.2
528.105	6.19
528.305	6.19
528.505	6.19
528.705	6.2
528.905	6.19
529.105	6.22
529.304	6.23
529.504	6.2
529.704	6.21
529.904	6.21
530.104	6.23
530.304	6.25
530.503	6.26
530.703	6.27
530.903	6.3
531.103	6.3
531.303	6.32
531.502	6.3
531.702	6.29
531.902	6.28
532.101	6.28
532.301	6.29
532.501	6.28
532.7	6.26
532.9	6.27
533.1	6.26
533.299	6.3
533.499	6.3
533.698	6.31
533.898	6.31
534.097	6.34
534.297	6.37
534.496	6.37
534.696	6.36
534.895	6.39
535.095	6.38
535.294	6.36
535.494	6.34
535.693	6.35
535.892	6.4
536.092	6.39
536.291	6.39
536.491	6.4
536.69	6.42
536.889	6.43
537.088	6.42
537.288	6.41
537.487	6.44
537.686	6.47
537.886	6.48
538.085	6.51
538.284	6.54
538.483	6.56
538.682	6.56
538.882	6.56
539.081	6.56
539.28	6.57
539.479	6.57
539.678	6.61
539.877	6.65
540.076	6.67
540.275	6.7
540.474	6.66
540.673	6.69
540.872	6.72
541.071	6.71
541.27	6.7
541.469	6.71
541.668	6.73
541.867	6.79
542.066	6.79
542.265	6.81
542.464	6.82
542.663	6.88
542.862	6.9
543.06	6.96
543.259	6.96
543.458	6.99
543.657	7.01
543.856	7.04
544.054	7.04
544.253	7.02
544.452	6.97
544.651	6.98
544.849	6.98
545.048	6.98
545.247	6.99
545.445	6.97
545.644	7.02
545.843	7.06
546.041	7.1
546.24	7.16
546.438	7.2
546.637	7.23
546.836	7.29
547.034	7.28
547.233	7.31
547.431	7.32
547.63	7.33
547.828	7.35
548.027	7.33
548.225	7.37
548.423	7.41
548.622	7.46
548.82	7.5
549.019	7.53
549.217	7.6
549.415	7.68
549.614	7.68
549.812	7.74
550.01	7.76
550.209	7.83
550.407	7.85
550.605	7.87
550.803	7.92
551.002	7.97
551.2	8.02
551.398	8.05
551.596	8.05
551.794	8.11
551.993	8.12
552.191	8.17
552.389	8.23
552.587	8.25
552.785	8.31
552.983	8.37
553.181	8.41
553.379	8.45
553.577	8.48
553.775	8.51
553.973	8.58
554.171	8.59
554.369	8.64
554.567	8.69
554.765	8.7
554.963	8.77
555.161	8.84
555.359	8.88
555.557	8.95
555.755	9.01
555.952	9.09
556.15	9.16
556.348	9.21
556.546	9.25
556.744	9.32
556.941	9.4
557.139	9.45
557.337	9.5
557.535	9.62
557.732	9.68
557.93	9.74
558.128	9.79
558.325	9.84
558.523	9.89
558.721	9.96
558.918	10.01
559.116	10.03
559.313	10.1
559.511	10.15
559.708	10.25
559.906	10.33
560.104	10.39
560.301	10.43
560.498	10.52
560.696	10.59
560.893	10.68
561.091	10.77
561.288	10.83
561.486	10.88
561.683	10.96
561.88	11.08
562.078	11.13
562.275	11.21
562.473	11.2
562.67	11.27
562.867	11.36
563.064	11.44
563.262	11.5
563.459	11.61
563.656	11.7
563.853	11.82
564.051	11.84
564.248	11.92
564.445	11.98
564.642	12.04
564.839	12.09
565.036	12.16
565.234	12.25
565.431	12.36
565.628	12.44
565.825	12.53
566.022	12.56
566.219	12.62
566.416	12.69
566.613	12.78
566.81	12.84
567.007	12.88
567.204	12.96
567.401	13.02
567.598	13.09
567.795	13.12
567.991	13.14
568.188	13.21
568.385	13.29
568.582	13.33
568.779	13.43
568.976	13.54
569.172	13.62
569.369	13.67
569.566	13.65
569.763	13.7
569.96	13.76
570.156	13.76
570.353	13.78
570.55	13.83
570.746	13.84
570.943	13.99
571.14	14.01
571.336	14.05
571.533	14.13
571.729	14.12
571.926	14.16
572.123	14.22
572.319	14.22
572.516	14.29
572.712	14.33
572.909	14.38
573.105	14.48
573.302	14.48
573.498	14.51
573.695	14.55
573.891	14.54
574.087	14.53
574.284	14.5
574.48	14.45
574.677	14.48
574.873	14.52
575.069	14.57
575.266	14.58
575.462	14.63
575.658	14.73
575.854	14.77
576.051	14.76
576.247	14.75
576.443	14.77
576.639	14.8
576.835	14.81
577.032	14.77
577.228	14.8
577.424	14.87
577.62	14.87
577.816	14.88
578.012	14.89
578.208	14.89
578.404	14.89
578.6	14.88
578.796	14.88
578.993	14.9
579.189	14.84
579.384	14.79
579.58	14.81
579.776	14.78
579.972	14.75
580.168	14.71
580.364	14.69
580.56	14.76
580.756	14.78
580.952	14.74
581.148	14.77
581.343	14.76
581.539	14.79
581.735	14.79
581.931	14.73
582.127	14.7
582.322	14.72
582.518	14.68
582.714	14.68
582.909	14.63
583.105	14.61
583.301	14.6
583.496	14.6
583.692	14.56
583.888	14.54
584.083	14.54
584.279	14.53
584.474	14.51
584.67	14.54
584.866	14.56
585.061	14.56
585.257	14.6
585.452	14.61
585.648	14.65
585.843	14.66
586.039	14.63
586.234	14.6
586.429	14.63
586.625	14.6
586.82	14.59
587.015	14.56
587.211	14.61
587.406	14.66
587.601	14.69
587.797	14.65
587.992	14.68
588.187	14.74
588.383	14.74
588.578	14.67
588.773	14.65
588.968	14.66
589.163	14.69
589.359	14.7
589.554	14.65
589.749	14.74
589.944	14.8
590.139	14.86
590.334	14.86
590.529	14.93
590.724	14.96
590.919	15.05
591.114	15
591.309	15.02
591.504	15
591.699	15.03
591.894	15.04
592.089	15.11
592.284	15.07
592.479	15.09
592.674	15.14
592.869	15.17
593.064	15.23
593.259	15.23
593.454	15.23
593.648	15.31
593.843	15.38
594.038	15.39
594.233	15.46
594.428	15.5
594.622	15.55
594.817	15.55
595.012	15.62
595.206	15.64
595.401	15.64
595.596	15.71
595.79	15.75
595.985	15.81
596.18	15.93
596.374	15.93
596.569	16
596.763	16.12
596.958	16.13
597.153	16.21
597.347	16.25
597.542	16.28
597.736	16.32
597.931	16.41
598.125	16.44
598.319	16.51
598.514	16.54
598.708	16.61
598.903	16.69
599.097	16.76
599.291	16.78
599.486	16.81
599.68	16.86
599.874	16.92
600.069	16.93
600.263	16.92
600.457	16.98
600.651	17.06
600.846	17.1
601.04	17.13
601.234	17.16
601.428	17.15
601.622	17.17
601.817	17.16
602.011	17.14
602.205	17.2
602.399	17.19
602.593	17.15
602.787	17.21
602.981	17.29
603.175	17.28
603.369	17.31
603.563	17.3
603.757	17.26
603.951	17.29
604.145	17.26
604.339	17.18
604.533	17.18
604.727	17.15
604.921	17.08
605.115	17.11
605.309	17.14
605.502	17.15
605.696	17.14
605.89	17.14
606.084	17.11
606.278	17.12
606.471	17.03
606.665	16.91
606.859	16.84
607.053	16.83
607.246	16.8
607.44	16.76
607.634	16.76
607.827	16.72
608.021	16.72
608.214	16.71
608.408	16.67
608.602	16.58
608.795	16.48
608.989	16.37
609.182	16.39
609.376	16.33
609.569	16.24
609.763	16.22
609.956	16.15
610.15	16.15
610.343	16.1
610.537	16.03
610.73	15.99
610.923	15.94
611.117	15.81
611.31	15.75
611.504	15.72
611.697	15.7
611.89	15.64
612.083	15.55
612.277	15.46
612.47	15.46
612.663	15.4
612.856	15.3
613.05	15.22
613.243	15.14
613.436	15.06
613.629	14.98
613.822	14.89
614.015	14.83
614.209	14.83
614.402	14.74
614.595	14.68
614.788	14.61
614.981	14.62
615.174	14.6
615.367	14.57
615.56	14.45
615.753	14.42
615.946	14.4
616.139	14.4
616.332	14.34
616.525	14.26
616.718	14.21
616.911	14.23
617.103	14.2
617.296	14.16
617.489	14.14
617.682	14.09
617.875	14.09
618.067	14.05
618.26	13.98
618.453	13.89
618.646	13.84
618.838	13.78
619.031	13.75
619.224	13.74
619.417	13.68
619.609	13.67
619.802	13.68
619.994	13.66
620.187	13.68
620.38	13.61
620.572	13.58
620.765	13.56
620.957	13.48
621.15	13.4
621.342	13.43
621.535	13.35
621.727	13.33
621.92	13.29
622.112	13.25
622.305	13.26
622.497	13.26
622.69	13.16
622.882	13.17
623.074	13.2
623.267	13.14
623.459	13.16
623.651	13.16
623.844	13.17
624.036	13.19
624.228	13.17
624.42	13.12
624.613	13.12
624.805	13.14
624.997	13.11
625.189	13.13
625.381	13.13
625.574	13.1
625.766	13.12
625.958	13.14
626.15	13.11
626.342	13.1
626.534	13.06
626.726	13.05
626.918	12.98
627.11	12.96
627.302	12.9
627.494	12.86
627.686	12.82
627.878	12.74
628.07	12.68
628.262	12.69
628.454	12.64
628.646	12.62
628.838	12.59
629.029	12.51
629.221	12.51
629.413	12.48
629.605	12.44
629.797	12.39
629.989	12.36
630.18	12.3
630.372	12.29
630.564	12.27
630.755	12.22
630.947	12.2
631.139	12.17
631.33	12.18
631.522	12.16
631.714	12.16
631.905	12.14
632.097	12.15
632.289	12.1
632.48	12.1
632.672	12.02
632.863	12.02
633.055	12.01
633.246	12
633.438	11.96
633.629	11.98
633.821	12
634.012	11.99
634.203	11.99
634.395	11.98
634.586	11.95
634.777	11.94
634.969	11.94
635.16	11.88
635.351	11.86
635.543	11.83
635.734	11.79
635.925	11.81
636.117	11.82
636.308	11.77
636.499	11.76
636.69	11.79
636.881	11.85
637.073	11.84
637.264	11.82
637.455	11.8
637.646	11.84
637.837	11.8
638.028	11.81
638.219	11.72
638.41	11.71
638.601	11.69
638.792	11.64
638.983	11.55
639.174	11.58
639.365	11.5
639.556	11.49
639.747	11.47
639.938	11.43
640.129	11.48
640.32	11.55
640.511	11.54
640.701	11.52
640.892	11.51
641.083	11.48
641.274	11.5
641.465	11.46
641.655	11.41
641.846	11.37
642.037	11.38
642.228	11.36
642.418	11.35
642.609	11.32
642.8	11.27
642.99	11.3
643.181	11.27
643.372	11.32
643.562	11.3
643.753	11.27
643.943	11.23
644.134	11.27
644.324	11.2
644.515	11.23
644.705	11.14
644.896	11.11
645.086	11.05
645.277	11.12
645.467	11.07
645.658	11.09
645.848	11.07
646.038	11.08
646.229	11.1
646.419	11.14
646.61	11.07
646.8	11.04
646.99	10.98
647.18	10.91
647.371	10.9
647.561	10.88
647.751	10.8
647.941	10.79
648.132	10.82
648.322	10.85
648.512	10.88
648.702	10.89
648.892	10.92
649.082	10.94
649.272	10.9
649.462	10.83
649.653	10.8
649.843	10.76
650.033	10.7
650.223	10.68
650.413	10.68
650.603	10.74
650.793	10.69
650.983	10.68
651.172	10.67
651.362	10.67
651.552	10.57
651.742	10.53
651.932	10.43
652.122	10.45
652.312	10.36
652.502	10.31
652.691	10.27
652.881	10.25
653.071	10.17
653.261	10.11
653.45	10.06
653.64	10.08
653.83	10.03
654.019	9.93
654.209	9.88
654.399	9.85
654.588	9.83
654.778	9.76
654.968	9.66
655.157	9.55
655.347	9.51
655.536	9.37
655.726	9.25
655.915	9.18
656.105	9.14
656.294	9.04
656.484	9.02
656.673	8.92
656.863	8.88
657.052	8.81
657.241	8.66
657.431	8.51
657.62	8.39
657.809	8.29
657.999	8.22
658.188	8.09
658.377	8.06
658.567	8.04
658.756	7.95
658.945	7.86
659.134	7.72
659.324	7.62
659.513	7.52
659.702	7.38
659.891	7.24
660.08	7.17
660.269	7.13
660.458	7.09
660.648	6.98
660.837	6.95
661.026	6.87
661.215	6.85
661.404	6.79
661.593	6.73
661.782	6.66
661.971	6.63
662.16	6.53
662.349	6.48
662.538	6.45
662.726	6.42
662.915	6.37
663.104	6.28
663.293	6.21
663.482	6.2
663.671	6.15
663.86	6.04
664.048	5.99
664.237	5.96
664.426	5.98
664.615	5.96
664.803	5.89
664.992	5.92
665.181	5.92
665.369	5.87
665.558	5.86
665.747	5.86
665.935	5.85
666.124	5.91
666.312	5.84
666.501	5.81
666.69	5.81
666.878	5.78
667.067	5.79
667.255	5.8
667.444	5.8
667.632	5.8
667.82	5.87
668.009	5.91
668.197	5.91
668.386	5.89
668.574	5.93
668.762	5.91
668.951	5.94
669.139	5.96
669.327	6
669.516	6.02
669.704	6.11
669.892	6.1
670.08	6.13
670.269	6.17
670.457	6.15
670.645	6.18
670.833	6.19
671.021	6.13
671.21	6.15
671.398	6.18
671.586	6.19
671.774	6.25
671.962	6.24
672.15	6.29
672.338	6.35
672.526	6.43
672.714	6.45
672.902	6.49
673.09	6.51
673.278	6.52
673.466	6.62
673.654	6.66
673.842	6.71
674.03	6.73
674.218	6.73
674.405	6.82
674.593	6.91
674.781	6.94
674.969	6.98
675.157	7.02
675.344	7.12
675.532	7.24
675.72	7.25
675.908	7.33
676.095	7.37
676.283	7.4
676.471	7.47
676.658	7.54
676.846	7.62
677.033	7.71
677.221	7.77
677.409	7.84
677.596	8.02
677.784	8.06
677.971	8.09
678.159	8.15
678.346	8.16
678.534	8.16
678.721	8.24
678.909	8.2
679.096	8.27
679.283	8.37
679.471	8.43
679.658	8.52
679.846	8.65
680.033	8.7
680.22	8.77
680.408	8.84
680.595	8.83
680.782	8.88
680.969	8.88
681.157	8.87
681.344	8.92
681.531	9
681.718	9.05
681.905	9.21
682.093	9.29
682.28	9.42
682.467	9.53
682.654	9.6
682.841	9.69
683.028	9.81
683.215	9.83
683.402	9.81
683.589	9.95
683.776	10
683.963	10.1
684.15	10.2
684.337	10.3
684.524	10.42
684.711	10.56
684.898	10.62
685.085	10.8
685.271	10.92
685.458	11.05
685.645	11.22
685.832	11.42
686.019	11.67
686.205	11.84
686.392	12
686.579	12.23
686.766	12.43
686.952	12.59
687.139	12.74
687.326	12.98
687.512	13.17
687.699	13.45
687.886	13.67
688.072	13.96
688.259	14.3
688.445	14.58
688.632	14.95
688.818	15.29
689.005	15.67
689.191	15.98
689.378	16.27
689.564	16.58
689.751	17.02
689.937	17.25
690.124	17.62
690.31	18.02
690.496	18.42
690.683	18.92
690.869	19.38
691.055	19.89
691.242	20.35
691.428	21
691.614	21.46
691.8	21.98
691.987	22.5
692.173	22.99
692.359	23.44
692.545	24.02
692.731	24.41
692.918	24.96
693.104	25.51
693.29	26.1
693.476	26.66
693.662	27.15
693.848	27.7
694.034	28.23
694.22	28.79
694.406	29.45
694.592	29.96
694.778	30.49
694.964	31.17
695.15	31.81
695.336	32.65
695.522	33.23
695.708	33.75
695.894	34.39
696.08	34.93
696.265	35.45
696.451	36.15
696.637	36.59
696.823	37.15
697.009	37.87
697.194	38.54
697.38	39.25
697.566	39.88
697.751	40.4
697.937	41.05
698.123	41.8
698.308	42.33
698.494	42.88
698.68	43.57
698.865	44.2
699.051	44.69
699.236	45.21
699.422	45.72
699.607	46.23
699.793	46.73
699.978	47.32
700.164	47.97
700.349	48.71
700.535	49.24
700.72	49.86
700.906	50.56
701.091	51.15
701.276	51.52
701.462	52
701.647	52.4
701.832	52.93
702.018	53.43
702.203	53.75
702.388	54.19
702.573	54.81
702.759	55.29
702.944	55.91
703.129	56.38
703.314	56.81
703.499	57.34
703.684	57.9
703.87	58.26
704.055	58.69
704.24	59.09
704.425	59.64
704.61	60.01
704.795	60.44
704.98	60.79
705.165	61.15
705.35	61.5
705.535	61.92
705.72	62.04
705.905	62.43
706.09	62.78
706.275	63.2
706.459	63.74
706.644	64.08
706.829	64.31
707.014	64.75
707.199	64.83
707.384	65.43
707.568	66.14
707.753	66.43
707.938	66.89
708.123	66.96
708.307	67.63
708.492	68.18
708.677	68.18
708.861	68.07
709.046	68.22
709.231	68.34
709.415	68.88
709.6	68.81
709.784	69.11
709.969	69.48
710.153	69.96
710.338	70.32
710.522	70.45
710.707	70.51
710.891	70.87
711.076	71.02
711.26	71.18
711.445	71.15
711.629	71.26
711.813	71.34
711.998	71.43
712.182	71.72
712.366	72.13
712.551	72.46
712.735	72.61
712.919	72.79
713.103	73.24
713.288	73.7
713.472	73.79
713.656	73.86
713.84	74.02
714.024	74.5
714.208	74.8
714.393	74.88
714.577	75.17
714.761	75.46
714.945	75.58
715.129	75.66
715.313	75.55
715.497	75.68
715.681	76.14
715.865	76.2
716.049	76.08
716.233	76.13
716.417	76.56
716.601	76.61
716.785	76.72
716.968	76.59
717.152	76.74
717.336	77.01
717.52	77.41
717.704	77.61
717.888	77.84
718.071	77.95
718.255	78.09
718.439	78.19
718.622	78.47
718.806	78.18
718.99	78
719.174	78.11
719.357	78.17
719.541	78.55
719.724	78.76
719.908	78.73
720.092	79.14
720.275	79.37
720.459	79.62
720.642	79.77
720.826	79.73
721.009	79.55
721.193	79.68
721.376	80.07
721.559	79.86
721.743	79.92
721.926	80.05
722.11	80.15
722.293	80.04
722.476	79.98
722.66	79.77
722.843	80.17
723.026	80.19
723.21	80
723.393	80.04
723.576	80.53
723.759	80.65
723.942	81.03
724.126	81.04
724.309	81.16
724.492	81.76
724.675	82.11
724.858	82.48
725.041	82.73
725.224	82.72
725.407	82.51
725.59	82.83
725.774	82.88
725.957	83.19
726.14	83.05
726.322	83.01
726.505	83.28
726.688	83.85
726.871	83.89
727.054	84.05
727.237	83.67
727.42	83.95
727.603	83.93
727.786	84.01
727.968	84.23
728.151	84.65
728.334	84.81
728.517	85
728.699	85.33
728.882	86.06
729.065	86.12
729.248	85.88
729.43	85.76
729.613	85.83
729.796	85.91
729.978	85.81
730.161	85.72
730.343	86.15
730.526	86.41
730.708	86.82
730.891	87.01
731.073	87.26
731.256	87.46
731.438	87.88
731.621	88.01
731.803	88.14
731.986	87.83
732.168	88
732.35	88.27
732.533	88.36
732.715	88.46
732.898	87.92
733.08	88.42
733.262	88.46
733.444	88.37
733.627	88.76
733.809	88.82
733.991	88.82
734.173	89.28
734.355	89.26
734.538	89.49
734.72	89.8
734.902	89.39
735.084	89.73
735.266	89.82
735.448	89.86
735.63	89.65
735.812	89.85
735.994	89.59
736.176	90.38
736.358	90.44
736.54	90.1
736.722	89.98
736.904	90.11
737.086	90.21
737.268	90.47
737.45	90.23
737.632	89.82
737.814	90.28
737.995	90.94
738.177	91.36
738.359	91.48
738.541	91.66
738.723	92.03
738.904	92.28
739.086	92.21
739.268	92.08
739.449	92.21
739.631	92.38
739.813	92.62
739.994	92.45
740.176	92.9
740.358	93.18
740.539	93.02
740.721	92.88
740.902	92.96
741.084	92.86
741.265	93.09
741.447	92.76
741.628	92.51
741.81	92.91
741.991	93.11
742.172	92.7
742.354	93.14
742.535	92.83
742.717	93.28
742.898	93.88
743.079	93.62
743.261	93.89
743.442	94.52
743.623	94.05
743.804	94.07
743.986	93.36
744.167	92.54
744.348	92.62
744.529	91.92
744.71	91.26
744.891	91.95
745.073	92.18
745.254	92.94
745.435	93.2
745.616	92.76
745.797	92.44
745.978	93.58
746.159	92.68
746.34	92.73
746.521	92.88
746.702	92.35
746.883	92.83
747.064	93.04
747.245	92.98
747.426	93.59
747.606	93.27
747.787	93.36
747.968	94.76
748.149	95.09
748.33	96.16
748.51	95.34
748.691	95.56
748.872	95.87
749.053	95.22
749.233	94.76
749.414	94.2
749.595	93.31
749.775	93.39
749.956	92.48
750.137	92.3
750.317	91.82
750.498	91.23
750.678	92
750.859	91.94
751.04	92.15
751.22	91.76
751.4	92.08
751.581	92.35
751.761	93.5
751.942	93.04
752.122	93.32
752.303	93.17
752.483	94.06
752.663	94.02
752.844	94.18
753.024	93.77
753.204	93.52
753.385	93.57
753.565	93.07
753.745	92.8
753.925	92.26
754.106	92.57
754.286	92.29
754.466	92.1
754.646	92.11
754.826	92.66
755.006	92.43
755.187	92.82
755.367	92.49
755.547	93.14
755.727	93.45
755.907	93.56
756.087	93.76
756.267	94.21
756.447	93.76
756.627	93.54
756.807	93.7
756.987	94.44
757.167	93.88
757.346	93.38
757.526	93.39
757.706	93.62
757.886	93.62
758.066	92.85
758.246	92.56
758.425	93.57
758.605	93.65
758.785	93.26
758.965	92.41
759.144	93.35
759.324	93.56
759.504	93.05
759.683	92.07
759.863	91.8
760.043	91.84
760.222	91.68
760.402	91.93
760.581	91.64
760.761	91.4
760.94	90.82
761.12	90.84
761.299	90.65
761.479	92.15
761.658	91.23
761.838	91.68
762.017	92.19
762.197	93.47
762.376	93.11
762.555	93.41
762.735	92.51
762.914	93.3
763.093	92.23
763.273	92.02
763.452	91.14
763.631	91.31
763.81	91.89
763.99	92.51
764.169	91.21
764.348	91.47
764.527	90.71
764.706	91.19
764.885	91.88
765.064	91.24
765.243	90.6
765.423	92.89
765.602	92.57
765.781	92.89
765.96	92.23
766.139	90.38
766.318	90.39
766.497	90.32
766.676	90.01
766.854	90.54
767.033	89.73
767.212	90.43
767.391	91.29
767.57	91.5
767.749	92.19
767.928	90.41
768.106	89.82
768.285	91.16
768.464	90.54
768.643	90.63
768.821	89.84
769	89.77
769.179	88.49
769.357	88.38
769.536	87.66
769.715	87.21
769.893	87.65
770.072	88.32
770.25	87.75
770.429	89.6
770.607	90.5
770.786	91.17
770.964	90.88
771.143	90.72
771.321	89.32
771.5	89.04
771.678	88.86
771.857	88.27
772.035	87.76
772.213	87.9
772.392	87.89
772.57	88.98
772.748	88.83
772.927	88.35
773.105	89.55
773.283	89.47
773.461	90.67
773.64	89.43
773.818	88.31
773.996	88.9
774.174	89.41
774.352	88.26
774.531	87.69
774.709	87.55
774.887	88.42
775.065	89.21
775.243	90.01
775.421	89.06
775.599	87.95
775.777	88.56
775.955	88.39
776.133	88
776.311	87.57
776.489	86.12
776.667	86.23
776.844	86.76
777.022	86.55
777.2	86.12
777.378	87.25
777.556	88.64
777.734	87.93
777.911	89.98
778.089	89.48
778.267	88.74
778.445	88.14
778.622	87.32
778.8	87.41
778.978	87.77
779.155	85.26
779.333	84.86
779.511	85.75
779.688	86.13
779.866	85.36
780.043	85.47
780.221	85.55
780.398	86.56
780.576	86.97
780.753	85.82
780.931	86.58
781.108	88.18
781.286	86.56
781.463	86.43
781.64	86.27
781.818	86.24
781.995	88.1
782.172	87.47
782.35	86.17
782.527	88.3
782.704	87.65
782.882	88.12
783.059	87.45
783.236	86.42
783.413	86.49
783.59	85.34
783.768	82.78
783.945	84.07
784.122	82.9
784.299	83.31
784.476	83.21
784.653	82.17
784.83	82.5
785.007	82.58
785.184	82.49
785.361	82.91
785.538	84.18
785.715	83.97
785.892	84.11
786.069	85.12
786.246	83.66
786.423	84.27
786.6	83.63
786.776	82.18
786.953	82.3
787.13	84.18
787.307	84.14
787.484	87.01
787.66	85.77
787.837	86.05
788.014	86.8
788.191	86.71
788.367	85.04
788.544	84.14
788.721	83.27
788.897	84.96
789.074	83.61
789.25	84.68
789.427	84.48
789.603	86
789.78	87.1
789.956	87.48
790.133	84.81
790.309	86.51
790.486	87.23
790.662	87.49
790.839	88.26
791.015	88.6
791.192	88.8
791.368	91.73
791.544	91.06
791.721	89.71
791.897	89.8
792.073	87.18
792.249	88.3
792.426	86.67
792.602	83.39
792.778	83.95
792.954	84.46
793.13	84.07
793.307	82.71
793.483	81.23
793.659	83.52
793.835	84.09
794.011	82.27
794.187	78.96
794.363	80.38
794.539	82.58
794.715	81.08
794.891	78.25
795.067	78.99
795.243	80.4
795.419	84.14
795.595	82.4
795.771	82.78
795.947	83.91
796.122	82.93
796.298	82.07
796.474	80.3
796.65	79.45
796.826	81.82
797.001	81.39
797.177	81.19
797.353	86.47
797.529	89.95
797.704	92.75
797.88	91.25
798.056	90.08
798.231	89.81
798.407	89.27
798.582	86.89
798.758	86.93
798.934	85.63
799.109	84.68
799.285	84.29
799.46	82.98
799.636	84.88
799.811	86
799.986	84.9
800.162	85.05
800.337	86.74
800.513	84.97
800.688	88.74
800.863	89.55
801.039	86.57
801.214	84.18
801.389	85.86
801.565	87.6
801.74	87.23
801.915	84.3
802.09	80.74
802.265	80.67
802.441	82.28
802.616	80.69
802.791	79.87
802.966	79.15
803.141	75.53
803.316	79.11
803.491	78.08
803.666	77.78
803.841	78.8
804.016	77.56
804.191	78.55
804.366	80.99
804.541	78.86
804.716	77.69
804.891	82.25
805.066	80.3
805.241	79.12
805.416	78.9
805.591	84.34
805.765	86.1
805.94	88.99
806.115	81.55
806.29	81.52
806.464	79.01
806.639	79.45
806.814	73.52
806.989	70.16
807.163	67.9
807.338	71.76
807.512	69.14
807.687	73.58
807.862	74.61
808.036	74.54
808.211	77.35
808.385	77.99
808.56	83.76
808.734	85.82
808.909	83.11
809.083	80.49
809.258	84.34
809.432	82.19
809.606	81.44
809.781	72.95
809.955	75.08
810.13	80.07
810.304	79.03
810.478	81.01
810.652	84.69
810.827	85.07
811.001	85.72
811.175	82.64
811.349	80.05
811.524	81.63
811.698	77.46
811.872	77.07
812.046	75.43
812.22	72.81
812.394	76.37
812.568	77.76
812.742	77.83
812.916	79.63
813.09	75.08
813.264	80.72
813.438	88.01
813.612	85.03
813.786	82.96
813.96	84.44
814.134	88.09
814.308	86.04
814.482	82.62
814.656	80.46
814.83	84.21
815.003	87.95
815.177	85.61
815.351	84.41
815.525	85.95
815.698	87.24
815.872	84.93
816.046	80.07
816.219	79.42
816.393	73.34
816.567	68.79
816.74	70.3
816.914	71.83
817.088	70.54
817.261	72.07
817.435	66.4
817.608	70.63
817.782	74.64
817.955	71.97
818.129	70.62
818.302	72.93
818.475	70.18
818.649	66.6
818.822	72.73
818.996	70.59
819.169	74.46
819.342	69.36
819.516	70.63
819.689	73.99
819.862	74.8
820.035	67.54
820.209	61.95
820.382	58.77
820.555	62.98
820.728	56.38
820.901	55.24
821.075	64.26
821.248	69.99
821.421	70.31
821.594	76.01
821.767	79.37
821.94	77.55
822.113	81.77
822.286	77.49
822.459	84.7
822.632	91.71
822.805	85.12
822.978	70
823.151	75.56
823.324	67.29
823.496	60.58
823.669	61.01
823.842	62.25
824.015	63.48
824.188	78.02
824.361	78.08
824.533	91.63
824.706	110.28
824.879	101.99
825.051	97.17
825.224	98.06
825.397	84.63
825.569	87.36
825.742	85.59
825.915	72.96
826.087	70.32
826.26	69.62
826.432	70.59
826.605	69.37
826.777	63.6
826.95	56.91
827.122	64.06
827.295	61.41
827.467	54.82
827.64	46.75
827.812	53.3
827.984	55.44
828.157	56.54
828.329	51.75
828.501	55.62
828.674	60.58
828.846	66.07
829.018	63.72
829.19	60.79
829.363	65.33
829.535	68.82
829.707	60.96
829.879	55.87
830.051	49.2
830.223	43.03
830.395	42.87
830.568	44.84
830.74	46.08
830.912	51.55
831.084	55.9
831.256	51.92
831.428	66.16
831.6	65.77
831.772	59.35
831.943	67.53
832.115	69.31
832.287	67.84
832.459	75.25
832.631	68.69
832.803	76.1
832.975	74.94
833.146	58.52
833.318	50.38
833.49	58.59
833.662	65.21
833.833	65.94
834.005	62.79
834.177	66.71
834.348	76.23
834.52	84.01
834.692	87.52
834.863	82.08
835.035	72.77
835.206	69.4
835.378	70.89
835.549	75.45
835.721	68.36
835.892	59.85
836.064	68.83
836.235	73.08
836.407	71.93
836.578	68.31
836.749	61.85
836.921	63.69
837.092	66.33
837.264	57.33
837.435	55.03
837.606	66.98
837.777	58.04
837.949	51.47
838.12	48.36
838.291	57.04
838.462	61.28
838.633	57.9
838.805	50.22
838.976	57.82
839.147	57.9
839.318	48.31
839.489	46.07
839.66	44.25
839.831	45.82
840.002	45.06
840.173	50.36
840.344	68.19
840.515	74.89
840.686	71.53
840.857	57.04
841.028	58.55
841.199	58.83
841.369	60.19
841.54	60.36
841.711	62.1
841.882	59.95
842.053	79.23
842.223	93.12
842.394	82.65
842.565	84.17
842.736	83.02
842.906	87.26
843.077	74.53
843.248	75.06
843.418	67.25
843.589	62.65
843.759	55.11
843.93	59.6
844.101	56.56
844.271	69.14
844.442	68.7
844.612	70.88
844.783	66.74
844.953	58.12
845.123	45.09
845.294	54.35
845.464	53.27
845.635	52.2
845.805	49.27
845.975	46.08
846.146	53.32
846.316	65.8
846.486	80.92
846.656	78.34
846.827	78.13
846.997	97.31
847.167	96.51
847.337	97.07
847.507	94.62
847.677	88.17
847.848	95.23
848.018	88.18
848.188	73.04
848.358	80.53
848.528	61.45
848.698	28.79
848.868	10.25
849.038	14.55
849.208	23.73
849.378	12.15
849.548	24.43
849.718	25.1
849.887	32.17
850.057	29.38
850.227	20.74
850.397	14.35
850.567	33.87
850.737	24.11
850.906	33.04
851.076	47.08
851.246	51.63
851.415	62.75
851.585	65.5
851.755	65.92
851.924	68.39
852.094	60.11
852.264	54.52
852.433	75.17
852.603	70.03
852.772	55.65
852.942	46.55
853.111	42.43
853.281	47.16
853.45	47.44
853.62	27.88
853.789	23.6
853.959	24.73
854.128	10.39
854.297	28.52
854.467	21.2
854.636	27.49
854.805	32.47
854.975	39.08
855.144	53.5
855.313	59.74
855.482	46.26
855.652	54.66
855.821	49.92
855.99	55.36
856.159	42.45
856.328	40.05
856.497	46.46
856.667	42.69
856.836	36.54
857.005	35.96
857.174	41.14
857.343	40.57
857.512	30.02
857.681	26.14
857.85	40.11
858.019	43.98
858.188	45.38
858.356	10.44
858.525	24.35
858.694	34.36
858.863	38.1
859.032	33.55
859.201	39.22
859.369	38.94
859.538	51.28
859.707	54.16
859.876	43.75
860.044	43.81
860.213	37.6
860.382	33.72
860.55	38.13
860.719	60.57
860.888	47.82
861.056	71.46
861.225	60.53
861.393	79.26
861.562	68.64
861.73	55.97
861.899	20.48
862.067	39.95
862.236	27.83
862.404	29.2
862.572	14.4
862.741	19.82
862.909	32.24
863.078	37.65
863.246	38.77
863.414	40.36
863.582	47.13
863.751	55.67
863.919	67.56
864.087	59.28
864.255	68.12
864.424	66.06
864.592	69.79
864.76	60.8
864.928	61.36
865.096	45.8
865.264	53.62
865.432	50.94
865.6	31.6
865.768	23.99
865.936	35.11
866.104	31.45
866.272	29.93
866.44	-18.44
866.608	-12.89
866.776	41.23
866.944	48.32
867.112	17.21
867.28	-13.21
867.448	18.89
867.615	49.95
867.783	29.34
867.951	-9.85
868.119	44.08
868.286	59
868.454	74.21
868.622	65.22
868.789	55.61
868.957	64.27
869.125	61
869.292	46.05
869.46	29.8
869.627	1.99
869.795	21.45
869.963	18.41
870.13	11.83
870.298	10.06
870.465	-17.39
870.632	6.81
870.8	20.75
870.967	10.61
871.135	14.48
871.302	33.52
871.469	30.88
871.637	39.16
871.804	39.74
871.971	45.72
872.139	57.24
872.306	59.77
872.473	33.61
872.64	41.3
872.807	49.14
872.975	69.86
873.142	18.92
873.309	14.02
873.476	-8.9
873.643	55.89
873.81	70.17
873.977	18.71
874.144	-17.44
874.311	33.58
874.478	-35.91
874.645	-34.72
874.812	-3.29
874.979	-40.48
875.146	-88.5
875.313	-132.44
875.48	-24.07
875.647	9.1
875.813	-12.25
875.98	-34.4
876.147	34.66
876.314	44.14
876.481	47.13
876.647	25.16
876.814	35.9
876.981	33.58
877.147	28.59
877.314	22.36
877.481	25.48
877.647	34.2
877.814	17.29
877.98	11.74
878.147	40.23
878.314	51.88
878.48	63.84
878.647	88.21
878.813	62.43
878.979	78.64
879.146	54.86
879.312	66.53
879.479	53.76
879.645	14.62
879.811	7.23
879.978	36.43
880.144	57.6
880.31	37.7
880.477	3.55
880.643	-26.32
880.809	92.27
880.975	43.96
881.142	24.55
881.308	26.92
881.474	92.2
881.64	37.35
881.806	42.73
881.972	28.95
882.138	43.73
882.304	-15.18
882.47	-18.64
882.636	-71.7
882.802	-25.1
882.968	-72.49
883.134	-137.96
883.3	-36.43
883.466	29.16
883.632	28.58
883.798	56.15
883.964	34.1
884.129	51.84
884.295	44.36
884.461	22.04
884.627	8.67
884.793	8.88
884.958	-6.18
885.124	-46.2
885.29	-28.93
885.455	-32.27
885.621	-18.12
885.787	-18.4
885.952	-30.64
886.118	-28.65
886.283	4.59
886.449	-21.2
886.614	-14.86
886.78	2.79
886.945	0.21
887.111	-5.19
887.276	-3.28
887.442	-23.87
887.607	-27.83
887.773	-35.17
887.938	-29.6
888.103	3.73
888.269	24.78
888.434	33.9
888.599	44.15
888.764	37.7
888.93	50.69
889.095	47.5
889.26	70.64
889.425	63.04
889.59	47.28
889.756	47.16
889.921	41.75
890.086	51.38
890.251	46.89
890.416	-14.06
890.581	-15
890.746	-25.53
890.911	-68.68
891.076	-70.76
891.241	-108.04
891.406	-21.49
891.571	-11.86
891.736	-30.83
891.901	3.82
892.065	46.22
892.23	42.72
892.395	15.24
892.56	-13.38
892.725	5.23
892.889	3.51
893.054	-57.73
893.219	-112.13
893.384	-167.35
893.548	-285.83
893.713	457.67
893.878	305.98
