Data from Ofra_2a_PS_6GT17_Reflection_3.txt Node
Date: Tue Jul 20 09:54:23 EDT 2021
User: Adam
Spectrometer: FLMT01687
Trigger mode: 0
Integration Time (sec): 9.450000E-1
Scans to average: 3
Electric dark correction enabled: true
Nonlinearity correction enabled: false
Boxcar width: 3
XAxis mode: Wavelengths
Number of Pixels in Spectrum: 3648
>>>>>Begin Spectral Data<<<<<
179.494	985.21
179.716	609.24
179.937	645.6
180.158	2326.17
180.38	-1246.22
180.601	-214.41
180.823	-85.68
181.044	37.95
181.265	61.36
181.486	100.76
181.708	-525
181.929	69.42
182.15	-151.7
182.372	67.42
182.593	69.09
182.814	110.93
183.035	-13.95
183.257	50.2
183.478	28.46
183.699	32.56
183.92	51.86
184.141	44.83
184.363	44.95
184.584	44.77
184.805	35.93
185.026	30.68
185.247	17.03
185.468	2.1
185.689	10.38
185.91	6.82
186.132	15.31
186.353	11.6
186.574	19.51
186.795	10.33
187.016	18.05
187.237	13.96
187.458	-7.04
187.679	-32.29
187.9	-9.89
188.121	-4.28
188.342	42.17
188.563	41.73
188.784	52.07
189.005	64.54
189.226	61.98
189.447	48.09
189.667	29.47
189.888	23.78
190.109	19.25
190.33	1.65
190.551	-2.89
190.772	0.32
190.993	14.08
191.214	22.45
191.434	3.51
191.655	7.36
191.876	23.98
192.097	19.31
192.318	21.25
192.538	24.83
192.759	21.81
192.98	21.8
193.201	32.93
193.421	29.1
193.642	41.38
193.863	46.17
194.083	27.39
194.304	34.77
194.525	51.97
194.745	33.27
194.966	25.37
195.187	19.25
195.407	10.39
195.628	18.98
195.848	19.82
196.069	12.23
196.29	-1.31
196.51	-11.58
196.731	-6.41
196.951	-1.83
197.172	3.67
197.392	5.79
197.613	-8.84
197.833	13.98
198.054	23.73
198.274	14.94
198.495	27.59
198.715	8.58
198.936	1.39
199.156	9.9
199.377	-11.14
199.597	-25.23
199.817	-26.52
200.038	-20.36
200.258	-16.14
200.479	-9.16
200.699	-2.02
200.919	-23.99
201.14	-21.05
201.36	-5.29
201.58	-8.51
201.801	-8.86
202.021	-8.15
202.241	-11.29
202.461	13.13
202.682	30.01
202.902	21.13
203.122	22.45
203.342	29.5
203.563	31.98
203.783	27.66
204.003	33.56
204.223	33.48
204.443	29.05
204.663	30.39
204.884	34.79
205.104	36.56
205.324	67.08
205.544	63.1
205.764	48.69
205.984	51.57
206.204	46.01
206.424	37.48
206.644	35.21
206.864	20.34
207.084	30.69
207.304	26.37
207.525	20.25
207.745	9.56
207.964	-8.93
208.184	-1.68
208.404	-13.98
208.624	-47.81
208.844	-53.67
209.064	-30.19
209.284	-13.59
209.504	-9.51
209.724	-38.47
209.944	-43.06
210.164	-25.68
210.384	-1.76
210.604	-11.97
210.823	-20.63
211.043	-10.91
211.263	17.31
211.483	22.65
211.703	30.3
211.922	29.23
212.142	31.23
212.362	32.56
212.582	24.07
212.801	9.63
213.021	11.95
213.241	-4.56
213.461	-15.63
213.68	-11.97
213.9	-1.96
214.12	-14.58
214.339	-11.75
214.559	-13.84
214.779	-8.26
214.998	-11.63
215.218	-24.04
215.438	-13.2
215.657	3.18
215.877	11.25
216.096	14.75
216.316	17.52
216.535	25.79
216.755	22.02
216.974	8.96
217.194	11.06
217.413	26.37
217.633	17.08
217.852	12.02
218.072	-1.73
218.291	23.07
218.511	19.75
218.73	17.23
218.95	1.2
219.169	6.51
219.389	10.79
219.608	17.31
219.827	3.35
220.047	10.31
220.266	6.84
220.485	4.33
220.705	0.9
220.924	-9.84
221.143	-11.93
221.363	-16.97
221.582	-15.5
221.801	-23.56
222.021	-17.92
222.24	-23.52
222.459	-7.85
222.678	-6.69
222.897	-1.41
223.117	8.22
223.336	26.35
223.555	22.84
223.774	41.34
223.993	47.57
224.213	37.09
224.432	50.98
224.651	35.87
224.87	21.33
225.089	27.51
225.308	29.51
225.527	17.46
225.746	15.07
225.965	9.04
226.184	11.23
226.404	-0.31
226.623	6.25
226.842	-11.83
227.061	-6.89
227.28	1.59
227.499	4.6
227.718	1.43
227.936	4.76
228.155	-5.36
228.374	3.74
228.593	-0.91
228.812	-7.31
229.031	-19.05
229.25	-3.06
229.469	2.49
229.688	15.27
229.907	2.48
230.125	6.05
230.344	14.77
230.563	38.27
230.782	23.84
231.001	29.43
231.22	18.86
231.438	24.11
231.657	26.54
231.876	26.92
232.095	8.07
232.313	19.86
232.532	18.23
232.751	27.32
232.969	28.53
233.188	24.53
233.407	25.75
233.625	29.73
233.844	31.66
234.063	41.81
234.281	33.94
234.5	32.36
234.719	32.87
234.937	34.93
235.156	30.73
235.374	23.83
235.593	11.6
235.811	2.14
236.03	-10.61
236.249	1.82
236.467	-2.82
236.686	2.94
236.904	-1.87
237.123	2.5
237.341	13.51
237.559	22.58
237.778	31.93
237.996	34.54
238.215	34.57
238.433	39.98
238.652	39.36
238.87	39.09
239.088	31.57
239.307	21.84
239.525	12.4
239.743	-4.5
239.962	-2.78
240.18	2.89
240.398	-7.41
240.617	2.18
240.835	3.52
241.053	14.61
241.271	28.5
241.49	15.14
241.708	5.81
241.926	4.49
242.144	8.39
242.363	-7.7
242.581	-6.18
242.799	-11.09
243.017	2.09
243.235	4.86
243.453	14.2
243.672	1.39
243.89	11.09
244.108	15.07
244.326	13.51
244.544	11.08
244.762	7.96
244.98	4.88
245.198	14.96
245.416	13.2
245.634	23.39
245.852	28.65
246.07	25.08
246.288	26.41
246.506	30.3
246.724	30.21
246.942	39.5
247.16	21.27
247.378	3.08
247.596	4.18
247.814	-11.02
248.032	-11.01
248.25	-19.07
248.468	-19.11
248.685	-9.25
248.903	-0.13
249.121	7.23
249.339	19.96
249.557	18.25
249.775	4.11
249.992	-0.67
250.21	-14.37
250.428	-7.45
250.646	-0.38
250.863	3.84
251.081	3.01
251.299	25.32
251.517	46.13
251.734	54.76
251.952	66.59
252.17	39.41
252.387	39.36
252.605	44.77
252.823	40.51
253.04	22.14
253.258	24.54
253.475	5.45
253.693	26.27
253.911	22.62
254.128	17.57
254.346	11.55
254.563	14.25
254.781	11.47
254.998	13.52
255.216	11.94
255.433	18.2
255.651	25.13
255.868	31.58
256.086	30.57
256.303	35.66
256.521	19.35
256.738	9.82
256.956	-1.36
257.173	-5.1
257.39	1.8
257.608	1.25
257.825	-5.88
258.043	10.9
258.26	16.48
258.477	16.54
258.695	20.93
258.912	20.04
259.129	17.49
259.346	19.67
259.564	8.8
259.781	10.51
259.998	10.34
260.216	16.08
260.433	5.11
260.65	16.59
260.867	9.51
261.084	24.85
261.302	17.39
261.519	7.97
261.736	2.66
261.953	14.47
262.17	12.21
262.387	25.27
262.604	7.03
262.822	14.19
263.039	19.05
263.256	6.65
263.473	-6
263.69	-16.13
263.907	-22.51
264.124	-11.16
264.341	-16.81
264.558	-5.13
264.775	3.62
264.992	21.33
265.209	28.19
265.426	33.19
265.643	34.47
265.86	33.49
266.077	32.55
266.294	25.74
266.51	17.27
266.727	3.59
266.944	-12.48
267.161	-16.74
267.378	-23.95
267.595	-40.07
267.812	-39.73
268.028	-26.15
268.245	-15
268.462	-6.58
268.679	-8.37
268.896	-12.76
269.112	1.87
269.329	10.07
269.546	-0.5
269.763	1
269.979	2.94
270.196	10.38
270.413	9.44
270.629	6.43
270.846	10.4
271.063	8.64
271.279	4.46
271.496	-9.14
271.712	-18.68
271.929	-5.29
272.146	-2.24
272.362	-20.18
272.579	-17.5
272.795	-7.18
273.012	1.01
273.228	3.68
273.445	3.17
273.661	-0.5
273.878	10.85
274.094	11.47
274.311	6.99
274.527	11.91
274.744	8.63
274.96	2.85
275.177	13.85
275.393	11.11
275.609	25.75
275.826	36.8
276.042	42.87
276.259	44.22
276.475	42.63
276.691	41.31
276.908	32.72
277.124	25.01
277.34	12.54
277.557	4.57
277.773	1.27
277.989	1.88
278.205	-22.77
278.422	-15.7
278.638	-15.74
278.854	-15.59
279.07	-23.21
279.286	-20.8
279.503	-21.31
279.719	11.03
279.935	4.25
280.151	9.27
280.367	12.76
280.583	16.99
280.799	25.99
281.016	29.03
281.232	15.66
281.448	14.29
281.664	14.27
281.88	20.9
282.096	29.32
282.312	16.88
282.528	8.08
282.744	12.57
282.96	12.54
283.176	13.36
283.392	11.43
283.608	5.98
283.824	3.78
284.04	9.39
284.256	16.9
284.471	21.1
284.687	20.53
284.903	16.31
285.119	0.83
285.335	6.01
285.551	13.44
285.767	0.9
285.982	-3.97
286.198	-9.57
286.414	6.67
286.63	11.76
286.846	4.36
287.061	9.12
287.277	7.99
287.493	10.75
287.709	12.11
287.924	8.02
288.14	24.14
288.356	33.91
288.571	23.08
288.787	27.65
289.003	30.3
289.218	28.18
289.434	20.86
289.65	13.37
289.865	20.1
290.081	15.91
290.296	17.41
290.512	25.55
290.727	41.45
290.943	36.56
291.159	30.3
291.374	29.81
291.59	25.01
291.805	21.75
292.021	-9.89
292.236	-20.55
292.451	-12.5
292.667	-0.98
292.882	-12.11
293.098	-8.06
293.313	-14.35
293.529	-0.79
293.744	-1.38
293.959	-0.34
294.175	-0.92
294.39	17.69
294.605	18.5
294.821	30.16
295.036	33.2
295.251	30.87
295.467	29.19
295.682	23.17
295.897	9.17
296.112	6.59
296.328	1.45
296.543	-8.34
296.758	-14.51
296.973	-8.84
297.188	-17
297.404	-6.04
297.619	-8.56
297.834	1.18
298.049	0.55
298.264	9.14
298.479	-8.25
298.694	3.85
298.909	-7.61
299.125	1.15
299.34	-3.56
299.555	5.71
299.77	1.43
299.985	2.85
300.2	-2.08
300.415	3.52
300.63	2.34
300.845	8.71
301.06	8.82
301.275	17.51
301.49	25.14
301.704	22.86
301.919	19
302.134	13.82
302.349	6.85
302.564	-9.82
302.779	-28.81
302.994	-41.61
303.209	-44.73
303.423	-27.72
303.638	-25.45
303.853	-20.43
304.068	-4.62
304.283	-1.07
304.497	10.14
304.712	15.56
304.927	6.75
305.142	9.63
305.356	8.79
305.571	16.73
305.786	19.03
306	27.46
306.215	21.35
306.43	28.61
306.644	32.76
306.859	31.53
307.074	24.35
307.288	26.54
307.503	19.92
307.717	19.16
307.932	23.65
308.147	15.5
308.361	11.24
308.576	8.73
308.79	10.42
309.005	7.65
309.219	12.88
309.434	8.43
309.648	4.28
309.863	11.42
310.077	9.83
310.292	6.81
310.506	16.14
310.72	10.02
310.935	10.33
311.149	13.79
311.364	10.3
311.578	7.32
311.792	2.54
312.007	-9.57
312.221	-11.66
312.435	-14.09
312.649	-35.69
312.864	-38.63
313.078	-23.72
313.292	-18.33
313.507	2.89
313.721	19.87
313.935	36.66
314.149	41.35
314.363	45.2
314.578	69.54
314.792	67.87
315.006	61.37
315.22	61.9
315.434	46.72
315.648	39.97
315.862	35.51
316.077	19.93
316.291	23.29
316.505	29.45
316.719	5.75
316.933	14.45
317.147	11.12
317.361	15.33
317.575	14.64
317.789	18.98
318.003	17.98
318.217	28.34
318.431	27.45
318.645	32.76
318.859	25.43
319.073	21.63
319.287	19.93
319.5	12.65
319.714	14.73
319.928	14.57
320.142	14.59
320.356	25.53
320.57	18.87
320.784	15.93
320.997	19.9
321.211	19.44
321.425	7.33
321.639	10.91
321.853	4.65
322.066	11.22
322.28	13.77
322.494	13.52
322.707	14.51
322.921	27.4
323.135	35.75
323.349	34.47
323.562	28.84
323.776	24.67
323.989	21.89
324.203	19.76
324.417	10.5
324.63	-6.34
324.844	-10.83
325.057	-3.31
325.271	-11.05
325.485	-13.45
325.698	-9.69
325.912	2.92
326.125	17.76
326.339	20.6
326.552	24.26
326.766	36.6
326.979	36.07
327.193	37.41
327.406	40.09
327.619	12.13
327.833	7.52
328.046	-5.58
328.26	-16.3
328.473	-13.35
328.686	-18.52
328.9	-31.9
329.113	-9.97
329.326	-7.58
329.54	-11.95
329.753	-10.01
329.966	-1.25
330.179	9.61
330.393	15.87
330.606	15
330.819	19.11
331.032	31.76
331.246	36.81
331.459	36.68
331.672	27.42
331.885	20.79
332.098	22.66
332.311	6.35
332.525	10.38
332.738	10.12
332.951	11.07
333.164	10.11
333.377	7.48
333.59	-0.76
333.803	18.14
334.016	5.03
334.229	-2.34
334.442	1.09
334.655	7.04
334.868	16.64
335.081	28.81
335.294	20.67
335.507	32.33
335.72	27.66
335.933	33.4
336.146	30.41
336.359	24.47
336.572	19.14
336.785	26.13
336.997	16.65
337.21	23.53
337.423	13.62
337.636	10.53
337.849	17.69
338.062	15.79
338.274	10
338.487	7.47
338.7	11.3
338.913	0.55
339.125	3.75
339.338	4.86
339.551	9.02
339.763	2.68
339.976	4.44
340.189	2.88
340.402	9.94
340.614	12.1
340.827	-0.38
341.039	-1.54
341.252	8.08
341.465	3.15
341.677	-4.17
341.89	0.12
342.102	4.03
342.315	19.25
342.527	10.4
342.74	2.56
342.952	8.23
343.165	17.1
343.377	13.41
343.59	12.54
343.802	12.43
344.015	18.81
344.227	16.87
344.44	14.58
344.652	17.29
344.864	22.26
345.077	14.94
345.289	16.89
345.502	18.33
345.714	11.87
345.926	14.65
346.139	6.52
346.351	0.34
346.563	8.32
346.775	4.53
346.988	2.65
347.2	9.99
347.412	11.74
347.624	15.14
347.837	17.73
348.049	10.7
348.261	4.62
348.473	-0.66
348.685	4.58
348.897	4.79
349.11	7.87
349.322	4.11
349.534	7.82
349.746	19.95
349.958	24.81
350.17	28.55
350.382	17.03
350.594	14.33
350.806	15.65
351.018	22.42
351.23	21.01
351.442	18.06
351.654	20.93
351.866	29.38
352.078	20.31
352.29	21.32
352.502	17.13
352.714	17.44
352.926	20.84
353.138	13.13
353.35	6.84
353.561	6.55
353.773	2.86
353.985	6.44
354.197	-2.55
354.409	1.77
354.621	6
354.832	2.52
355.044	11.67
355.256	11.71
355.468	2.77
355.679	8.46
355.891	10.9
356.103	6.47
356.314	4.34
356.526	-1.95
356.738	0.12
356.949	1.44
357.161	1.44
357.373	-1.32
357.584	10.22
357.796	18.17
358.008	28.74
358.219	33.9
358.431	43.97
358.642	43.59
358.854	36.1
359.065	25.24
359.277	29.63
359.488	25.97
359.7	23.39
359.911	17.29
360.123	21.75
360.334	26.99
360.546	26.4
360.757	25.24
360.969	23.32
361.18	18.78
361.391	21.39
361.603	21.41
361.814	19.79
362.025	20.16
362.237	17.79
362.448	20.71
362.659	14.08
362.871	17.23
363.082	11.53
363.293	16.54
363.504	18.93
363.716	17.23
363.927	11.5
364.138	15.84
364.349	13.21
364.56	11.2
364.772	1.73
364.983	-0.38
365.194	0.38
365.405	7.82
365.616	2.33
365.827	1.28
366.038	18.66
366.25	21.85
366.461	29.18
366.672	24.11
366.883	23.01
367.094	26.04
367.305	27.99
367.516	17.33
367.727	23.06
367.938	17.16
368.149	19.2
368.36	16.09
368.571	22.15
368.781	16.99
368.992	17.72
369.203	15.98
369.414	6.36
369.625	5.73
369.836	5.88
370.047	0.76
370.258	-1.71
370.468	-6.39
370.679	-9.94
370.89	8.4
371.101	6.36
371.312	5.43
371.522	9.07
371.733	7.94
371.944	14.39
372.155	5.59
372.365	-4.77
372.576	-3.07
372.787	-4.54
372.997	-8.37
373.208	-1.6
373.419	-8.58
373.629	3.46
373.84	-5.34
374.05	-7.52
374.261	-10.22
374.472	-6.69
374.682	-14.3
374.893	-16.76
375.103	-10.14
375.314	0.88
375.524	6.34
375.735	7.15
375.945	3.52
376.156	9.06
376.366	14.25
376.577	7.32
376.787	13.37
376.997	15.55
377.208	15.05
377.418	17.3
377.629	17.26
377.839	17.86
378.049	19.1
378.26	16.27
378.47	15.57
378.68	20.97
378.89	13.53
379.101	8.33
379.311	2.88
379.521	3.93
379.732	-9.93
379.942	-12.17
380.152	-5.36
380.362	1.52
380.572	3.71
380.783	8.68
380.993	11.24
381.203	21.05
381.413	17.98
381.623	12.82
381.833	10.64
382.043	11.6
382.253	12.55
382.463	10.79
382.674	7.09
382.884	8.95
383.094	8.14
383.304	6.32
383.514	9.17
383.724	3.54
383.934	-0.6
384.144	8.14
384.353	4.48
384.563	0.44
384.773	7.87
384.983	4.67
385.193	8.27
385.403	10.65
385.613	0.34
385.823	3.95
386.033	2.58
386.242	0.4
386.452	1.72
386.662	1.6
386.872	1.24
387.082	2.16
387.291	2.13
387.501	8.01
387.711	7.9
387.921	7.67
388.13	5.54
388.34	4.61
388.55	7.17
388.759	7.22
388.969	2.22
389.179	3.07
389.388	2.16
389.598	3.84
389.807	5.2
390.017	3.69
390.227	2.59
390.436	5.9
390.646	4.67
390.855	5.37
391.065	4.42
391.274	1.78
391.484	2.53
391.693	2.7
391.903	1.14
392.112	1.99
392.322	3.74
392.531	3.93
392.74	4.13
392.95	4.27
393.159	4.49
393.369	4.15
393.578	2.68
393.787	1.68
393.997	2.58
394.206	3.28
394.415	3
394.625	1.49
394.834	1.26
395.043	2.78
395.252	2.43
395.462	1.72
395.671	1.74
395.88	1.75
396.089	2.88
396.298	3.15
396.508	2.11
396.717	1.66
396.926	1.5
397.135	1.37
397.344	1.53
397.553	1.66
397.762	1.55
397.971	1.12
398.181	1.06
398.39	1.38
398.599	1.87
398.808	1.86
399.017	2.16
399.226	2.12
399.435	2.74
399.644	2.86
399.853	2.86
400.062	2.4
400.27	2.22
400.479	1.88
400.688	2.03
400.897	2.11
401.106	2.2
401.315	2.01
401.524	2.34
401.733	2.62
401.941	2.71
402.15	2.5
402.359	2.39
402.568	2.25
402.777	2.22
402.985	1.92
403.194	1.73
403.403	1.43
403.612	1.5
403.82	1.52
404.029	1.58
404.238	1.78
404.446	1.85
404.655	1.75
404.864	1.78
405.072	1.88
405.281	1.69
405.489	1.78
405.698	1.62
405.906	1.5
406.115	1.63
406.324	1.63
406.532	1.57
406.741	1.67
406.949	1.53
407.158	1.65
407.366	1.88
407.574	1.86
407.783	1.84
407.991	1.75
408.2	1.64
408.408	1.7
408.617	1.57
408.825	1.48
409.033	1.42
409.242	1.41
409.45	1.53
409.658	1.6
409.867	1.57
410.075	1.55
410.283	1.48
410.491	1.55
410.7	1.61
410.908	1.58
411.116	1.49
411.324	1.55
411.533	1.48
411.741	1.41
411.949	1.39
412.157	1.41
412.365	1.38
412.573	1.46
412.781	1.43
412.99	1.59
413.198	1.7
413.406	1.71
413.614	1.72
413.822	1.74
414.03	1.68
414.238	1.72
414.446	1.61
414.654	1.55
414.862	1.46
415.07	1.45
415.278	1.35
415.486	1.45
415.694	1.32
415.902	1.33
416.109	1.37
416.317	1.27
416.525	1.31
416.733	1.39
416.941	1.27
417.149	1.44
417.357	1.44
417.564	1.42
417.772	1.53
417.98	1.44
418.188	1.3
418.395	1.31
418.603	1.15
418.811	1.14
419.019	1.13
419.226	1.19
419.434	1.11
419.642	1.17
419.849	1.22
420.057	1.28
420.265	1.24
420.472	1.22
420.68	1.16
420.887	1.24
421.095	1.33
421.302	1.38
421.51	1.41
421.717	1.57
421.925	1.58
422.132	1.43
422.34	1.4
422.547	1.34
422.755	1.26
422.962	1.2
423.17	1.03
423.377	1.09
423.585	1.25
423.792	1.22
423.999	1.18
424.207	1.12
424.414	1.1
424.621	1.18
424.829	1.07
425.036	0.97
425.243	1.09
425.451	1.12
425.658	1.26
425.865	1.22
426.072	1.24
426.28	1.28
426.487	1.34
426.694	1.34
426.901	1.29
427.108	1.27
427.315	1.29
427.523	1.33
427.73	1.34
427.937	1.36
428.144	1.33
428.351	1.42
428.558	1.31
428.765	1.31
428.972	1.34
429.179	1.27
429.386	1.3
429.593	1.25
429.8	1.23
430.007	1.34
430.214	1.37
430.421	1.28
430.628	1.21
430.835	1.2
431.042	1.23
431.249	1.24
431.456	1.25
431.662	1.29
431.869	1.38
432.076	1.5
432.283	1.47
432.49	1.44
432.697	1.4
432.903	1.38
433.11	1.4
433.317	1.32
433.524	1.22
433.73	1.32
433.937	1.33
434.144	1.48
434.35	1.44
434.557	1.37
434.764	1.39
434.97	1.53
435.177	1.46
435.384	1.52
435.59	1.47
435.797	1.56
436.003	1.6
436.21	1.54
436.416	1.51
436.623	1.54
436.829	1.5
437.036	1.48
437.242	1.41
437.449	1.39
437.655	1.46
437.862	1.5
438.068	1.56
438.275	1.58
438.481	1.62
438.687	1.7
438.894	1.72
439.1	1.73
439.307	1.72
439.513	1.67
439.719	1.68
439.926	1.67
440.132	1.61
440.338	1.68
440.544	1.63
440.751	1.62
440.957	1.56
441.163	1.59
441.369	1.53
441.575	1.54
441.782	1.49
441.988	1.51
442.194	1.59
442.4	1.71
442.606	1.74
442.812	1.82
443.018	1.86
443.224	1.91
443.431	1.99
443.637	1.9
443.843	1.86
444.049	1.8
444.255	1.78
444.461	1.76
444.667	1.76
444.873	1.68
445.079	1.75
445.284	1.7
445.49	1.74
445.696	1.8
445.902	1.86
446.108	1.83
446.314	1.94
446.52	1.96
446.726	2.04
446.931	2.03
447.137	2.02
447.343	1.99
447.549	2.01
447.755	1.93
447.96	1.89
448.166	1.9
448.372	1.88
448.578	1.86
448.783	1.87
448.989	1.9
449.195	1.9
449.4	1.87
449.606	1.79
449.812	1.85
450.017	1.82
450.223	1.78
450.428	1.76
450.634	1.87
450.84	1.87
451.045	1.9
451.251	1.9
451.456	1.89
451.662	1.93
451.867	1.92
452.073	1.82
452.278	1.87
452.483	1.9
452.689	1.91
452.894	1.99
453.1	1.95
453.305	2
453.51	2.03
453.716	2.01
453.921	1.93
454.127	1.87
454.332	1.85
454.537	1.93
454.742	1.92
454.948	1.93
455.153	1.98
455.358	2.1
455.563	2.14
455.769	2.15
455.974	2.08
456.179	2.04
456.384	2.07
456.589	2.06
456.795	1.98
457	2
457.205	1.98
457.41	2.06
457.615	2.09
457.82	2.11
458.025	2.1
458.23	2.15
458.435	2.12
458.64	2.16
458.845	2.15
459.05	2.17
459.255	2.11
459.46	2.12
459.665	2.14
459.87	2.12
460.075	2.09
460.28	2.09
460.485	2.1
460.69	2.06
460.895	2.09
461.099	2.09
461.304	2.16
461.509	2.08
461.714	2.1
461.919	2.07
462.123	2.15
462.328	2.09
462.533	2.1
462.738	2.07
462.942	2.19
463.147	2.21
463.352	2.28
463.556	2.3
463.761	2.34
463.966	2.36
464.17	2.4
464.375	2.32
464.58	2.3
464.784	2.28
464.989	2.23
465.193	2.25
465.398	2.25
465.602	2.22
465.807	2.28
466.011	2.26
466.216	2.21
466.42	2.26
466.625	2.29
466.829	2.29
467.034	2.35
467.238	2.41
467.443	2.45
467.647	2.51
467.851	2.5
468.056	2.45
468.26	2.4
468.464	2.36
468.669	2.34
468.873	2.32
469.077	2.32
469.282	2.35
469.486	2.38
469.69	2.43
469.894	2.51
470.099	2.53
470.303	2.55
470.507	2.56
470.711	2.52
470.915	2.6
471.119	2.64
471.324	2.58
471.528	2.57
471.732	2.58
471.936	2.63
472.14	2.67
472.344	2.64
472.548	2.68
472.752	2.78
472.956	2.83
473.16	2.84
473.364	2.78
473.568	2.8
473.772	2.86
473.976	2.81
474.18	2.72
474.384	2.7
474.588	2.7
474.792	2.73
474.995	2.72
475.199	2.69
475.403	2.67
475.607	2.73
475.811	2.74
476.015	2.79
476.218	2.81
476.422	2.86
476.626	2.91
476.83	2.94
477.033	2.92
477.237	2.93
477.441	2.92
477.644	2.95
477.848	2.92
478.052	2.88
478.255	2.9
478.459	3.01
478.663	3
478.866	3
479.07	3.01
479.273	2.98
479.477	3.03
479.681	3.02
479.884	2.92
480.088	2.97
480.291	2.99
480.495	2.99
480.698	3.04
480.901	3.03
481.105	3.06
481.308	3.07
481.512	3.06
481.715	3.06
481.919	3.07
482.122	3.09
482.325	3.12
482.529	3.2
482.732	3.27
482.935	3.26
483.138	3.29
483.342	3.32
483.545	3.3
483.748	3.31
483.952	3.28
484.155	3.29
484.358	3.29
484.561	3.29
484.764	3.29
484.967	3.33
485.171	3.32
485.374	3.3
485.577	3.35
485.78	3.38
485.983	3.4
486.186	3.35
486.389	3.32
486.592	3.33
486.795	3.35
486.998	3.28
487.201	3.26
487.404	3.3
487.607	3.33
487.81	3.38
488.013	3.39
488.216	3.38
488.419	3.38
488.622	3.38
488.825	3.34
489.028	3.36
489.231	3.36
489.433	3.36
489.636	3.34
489.839	3.36
490.042	3.37
490.245	3.38
490.447	3.34
490.65	3.35
490.853	3.35
491.056	3.35
491.258	3.38
491.461	3.38
491.664	3.34
491.866	3.39
492.069	3.35
492.272	3.32
492.474	3.3
492.677	3.27
492.879	3.29
493.082	3.33
493.285	3.29
493.487	3.32
493.69	3.32
493.892	3.39
494.095	3.38
494.297	3.43
494.5	3.45
494.702	3.49
494.905	3.48
495.107	3.54
495.309	3.49
495.512	3.51
495.714	3.5
495.917	3.48
496.119	3.52
496.321	3.58
496.524	3.55
496.726	3.61
496.928	3.64
497.13	3.67
497.333	3.69
497.535	3.7
497.737	3.64
497.939	3.66
498.142	3.63
498.344	3.61
498.546	3.62
498.748	3.6
498.95	3.59
499.152	3.6
499.355	3.58
499.557	3.65
499.759	3.74
499.961	3.74
500.163	3.81
500.365	3.8
500.567	3.82
500.769	3.89
500.971	3.86
501.173	3.81
501.375	3.82
501.577	3.79
501.779	3.85
501.981	3.88
502.183	3.86
502.385	3.87
502.587	3.86
502.788	3.84
502.99	3.83
503.192	3.84
503.394	3.85
503.596	3.87
503.798	3.94
503.999	3.97
504.201	4.01
504.403	4.06
504.605	4.07
504.806	4.06
505.008	4.07
505.21	4.05
505.411	4.09
505.613	4.09
505.815	4.1
506.016	4.1
506.218	4.12
506.42	4.13
506.621	4.14
506.823	4.15
507.024	4.17
507.226	4.19
507.427	4.18
507.629	4.2
507.83	4.22
508.032	4.27
508.233	4.28
508.435	4.29
508.636	4.25
508.838	4.31
509.039	4.32
509.24	4.31
509.442	4.25
509.643	4.29
509.845	4.3
510.046	4.36
510.247	4.41
510.448	4.43
510.65	4.48
510.851	4.53
511.052	4.52
511.254	4.55
511.455	4.57
511.656	4.52
511.857	4.53
512.058	4.55
512.26	4.54
512.461	4.58
512.662	4.54
512.863	4.54
513.064	4.55
513.265	4.61
513.466	4.61
513.667	4.64
513.868	4.61
514.069	4.66
514.27	4.66
514.471	4.68
514.672	4.68
514.873	4.72
515.074	4.75
515.275	4.76
515.476	4.77
515.677	4.79
515.878	4.83
516.079	4.84
516.28	4.8
516.481	4.8
516.682	4.84
516.882	4.83
517.083	4.86
517.284	4.85
517.485	4.85
517.686	4.87
517.886	4.89
518.087	4.89
518.288	4.87
518.488	4.88
518.689	4.89
518.89	4.93
519.091	4.93
519.291	4.93
519.492	4.94
519.692	5.01
519.893	4.98
520.094	4.99
520.294	4.99
520.495	5
520.695	5.04
520.896	5.04
521.096	5.04
521.297	5.07
521.497	5.11
521.698	5.12
521.898	5.14
522.099	5.14
522.299	5.16
522.499	5.15
522.7	5.14
522.9	5.13
523.101	5.13
523.301	5.14
523.501	5.15
523.702	5.16
523.902	5.22
524.102	5.25
524.302	5.25
524.503	5.27
524.703	5.29
524.903	5.3
525.103	5.32
525.304	5.32
525.504	5.33
525.704	5.34
525.904	5.35
526.104	5.37
526.304	5.38
526.504	5.34
526.705	5.37
526.905	5.4
527.105	5.43
527.305	5.41
527.505	5.4
527.705	5.38
527.905	5.4
528.105	5.38
528.305	5.34
528.505	5.36
528.705	5.37
528.905	5.4
529.105	5.46
529.304	5.51
529.504	5.51
529.704	5.54
529.904	5.58
530.104	5.6
530.304	5.61
530.503	5.56
530.703	5.59
530.903	5.61
531.103	5.61
531.303	5.6
531.502	5.62
531.702	5.59
531.902	5.63
532.101	5.61
532.301	5.62
532.501	5.64
532.7	5.64
532.9	5.68
533.1	5.71
533.299	5.74
533.499	5.76
533.698	5.81
533.898	5.85
534.097	5.88
534.297	5.91
534.496	5.91
534.696	5.91
534.895	5.93
535.095	5.94
535.294	5.92
535.494	5.92
535.693	5.93
535.892	5.95
536.092	5.95
536.291	5.97
536.491	5.97
536.69	6
536.889	6
537.088	6.01
537.288	6.09
537.487	6.12
537.686	6.15
537.886	6.16
538.085	6.23
538.284	6.27
538.483	6.32
538.682	6.31
538.882	6.35
539.081	6.38
539.28	6.4
539.479	6.38
539.678	6.43
539.877	6.44
540.076	6.49
540.275	6.49
540.474	6.51
540.673	6.55
540.872	6.61
541.071	6.6
541.27	6.6
541.469	6.61
541.668	6.67
541.867	6.72
542.066	6.75
542.265	6.76
542.464	6.79
542.663	6.88
542.862	6.91
543.06	6.93
543.259	6.89
543.458	6.89
543.657	6.94
543.856	6.97
544.054	6.97
544.253	7
544.452	7
544.651	7.08
544.849	7.16
545.048	7.17
545.247	7.22
545.445	7.24
545.644	7.3
545.843	7.34
546.041	7.38
546.24	7.42
546.438	7.49
546.637	7.52
546.836	7.58
547.034	7.59
547.233	7.66
547.431	7.7
547.63	7.75
547.828	7.81
548.027	7.82
548.225	7.9
548.423	7.96
548.622	8.03
548.82	8.08
549.019	8.14
549.217	8.21
549.415	8.32
549.614	8.35
549.812	8.41
550.01	8.45
550.209	8.54
550.407	8.58
550.605	8.63
550.803	8.66
551.002	8.73
551.2	8.84
551.398	8.92
551.596	8.95
551.794	9.03
551.993	9.05
552.191	9.18
552.389	9.26
552.587	9.28
552.785	9.36
552.983	9.44
553.181	9.5
553.379	9.61
553.577	9.68
553.775	9.73
553.973	9.82
554.171	9.89
554.369	9.96
554.567	10.06
554.765	10.09
554.963	10.12
555.161	10.2
555.359	10.24
555.557	10.34
555.755	10.48
555.952	10.57
556.15	10.69
556.348	10.83
556.546	10.95
556.744	11.06
556.941	11.12
557.139	11.19
557.337	11.26
557.535	11.34
557.732	11.45
557.93	11.54
558.128	11.62
558.325	11.75
558.523	11.86
558.721	11.95
558.918	12.04
559.116	12.08
559.313	12.16
559.511	12.26
559.708	12.31
559.906	12.39
560.104	12.54
560.301	12.62
560.498	12.76
560.696	12.84
560.893	12.95
561.091	13.07
561.288	13.21
561.486	13.28
561.683	13.41
561.88	13.5
562.078	13.58
562.275	13.68
562.473	13.77
562.67	13.83
562.867	13.97
563.064	14.06
563.262	14.23
563.459	14.37
563.656	14.48
563.853	14.56
564.051	14.65
564.248	14.69
564.445	14.75
564.642	14.78
564.839	14.95
565.036	15.09
565.234	15.23
565.431	15.31
565.628	15.46
565.825	15.62
566.022	15.7
566.219	15.74
566.416	15.84
566.613	15.96
566.81	16.05
567.007	16.12
567.204	16.16
567.401	16.3
567.598	16.36
567.795	16.41
567.991	16.49
568.188	16.57
568.385	16.67
568.582	16.8
568.779	16.85
568.976	16.99
569.172	17.07
569.369	17.12
569.566	17.2
569.763	17.27
569.96	17.35
570.156	17.41
570.353	17.43
570.55	17.47
570.746	17.53
570.943	17.64
571.14	17.68
571.336	17.73
571.533	17.79
571.729	17.85
571.926	17.88
572.123	17.94
572.319	17.96
572.516	18
572.712	18.04
572.909	18.1
573.105	18.18
573.302	18.22
573.498	18.27
573.695	18.32
573.891	18.38
574.087	18.39
574.284	18.42
574.48	18.44
574.677	18.51
574.873	18.57
575.069	18.62
575.266	18.65
575.462	18.72
575.658	18.79
575.854	18.82
576.051	18.83
576.247	18.81
576.443	18.79
576.639	18.8
576.835	18.81
577.032	18.81
577.228	18.82
577.424	18.84
577.62	18.88
577.816	18.95
578.012	19
578.208	19.05
578.404	19.07
578.6	19.1
578.796	19.11
578.993	19.12
579.189	19.08
579.384	19.03
579.58	18.99
579.776	18.92
579.972	18.9
580.168	18.9
580.364	18.9
580.56	18.89
580.756	18.92
580.952	18.94
581.148	18.95
581.343	18.89
581.539	18.88
581.735	18.88
581.931	18.91
582.127	18.89
582.322	18.87
582.518	18.9
582.714	18.94
582.909	19
583.105	18.96
583.301	18.96
583.496	18.93
583.692	18.94
583.888	18.9
584.083	18.93
584.279	18.92
584.474	18.88
584.67	18.87
584.866	18.91
585.061	18.93
585.257	18.96
585.452	18.9
585.648	18.87
585.843	18.94
586.039	18.93
586.234	18.92
586.429	18.9
586.625	18.89
586.82	18.91
587.015	18.91
587.211	18.96
587.406	19.04
587.601	19.01
587.797	19.01
587.992	19.01
588.187	19.05
588.383	19.11
588.578	19.07
588.773	19.06
588.968	19.15
589.163	19.19
589.359	19.22
589.554	19.24
589.749	19.19
589.944	19.25
590.139	19.3
590.334	19.3
590.529	19.37
590.724	19.38
590.919	19.42
591.114	19.5
591.309	19.54
591.504	19.58
591.699	19.6
591.894	19.62
592.089	19.72
592.284	19.71
592.479	19.75
592.674	19.77
592.869	19.78
593.064	19.88
593.259	19.93
593.454	19.94
593.648	19.97
593.843	20.03
594.038	20.12
594.233	20.22
594.428	20.26
594.622	20.35
594.817	20.43
595.012	20.58
595.206	20.62
595.401	20.71
595.596	20.84
595.79	20.93
595.985	20.98
596.18	21.06
596.374	21.13
596.569	21.27
596.763	21.36
596.958	21.35
597.153	21.4
597.347	21.5
597.542	21.63
597.736	21.7
597.931	21.74
598.125	21.84
598.319	21.9
598.514	21.97
598.708	21.98
598.903	22.02
599.097	22.09
599.291	22.2
599.486	22.2
599.68	22.26
599.874	22.36
600.069	22.43
600.263	22.44
600.457	22.48
600.651	22.5
600.846	22.54
601.04	22.59
601.234	22.63
601.428	22.65
601.622	22.68
601.817	22.71
602.011	22.76
602.205	22.78
602.399	22.82
602.593	22.82
602.787	22.87
602.981	22.89
603.175	22.86
603.369	22.87
603.563	22.88
603.757	22.87
603.951	22.87
604.145	22.87
604.339	22.9
604.533	22.92
604.727	22.88
604.921	22.85
605.115	22.8
605.309	22.83
605.502	22.79
605.696	22.76
605.89	22.81
606.084	22.78
606.278	22.75
606.471	22.71
606.665	22.61
606.859	22.59
607.053	22.54
607.246	22.42
607.44	22.37
607.634	22.34
607.827	22.3
608.021	22.23
608.214	22.18
608.408	22.07
608.602	22.03
608.795	21.91
608.989	21.84
609.182	21.82
609.376	21.79
609.569	21.68
609.763	21.69
609.956	21.57
610.15	21.54
610.343	21.5
610.537	21.41
610.73	21.41
610.923	21.41
611.117	21.25
611.31	21.2
611.504	21.15
611.697	21.08
611.89	20.97
612.083	20.84
612.277	20.69
612.47	20.65
612.663	20.61
612.856	20.53
613.05	20.48
613.243	20.47
613.436	20.4
613.629	20.41
613.822	20.32
614.015	20.27
614.209	20.27
614.402	20.19
614.595	20.12
614.788	19.97
614.981	19.86
615.174	19.84
615.367	19.73
615.56	19.57
615.753	19.45
615.946	19.36
616.139	19.38
616.332	19.28
616.525	19.27
616.718	19.27
616.911	19.25
617.103	19.26
617.296	19.26
617.489	19.15
617.682	19.12
617.875	19.01
618.067	18.93
618.26	18.91
618.453	18.78
618.646	18.63
618.838	18.6
619.031	18.62
619.224	18.6
619.417	18.55
619.609	18.52
619.802	18.51
619.994	18.51
620.187	18.51
620.38	18.46
620.572	18.45
620.765	18.43
620.957	18.35
621.15	18.28
621.342	18.3
621.535	18.26
621.727	18.2
621.92	18.14
622.112	18.13
622.305	18.12
622.497	18.16
622.69	18.1
622.882	18.09
623.074	18.11
623.267	18.05
623.459	17.99
623.651	17.99
623.844	17.92
624.036	17.93
624.228	17.92
624.42	17.89
624.613	17.88
624.805	17.91
624.997	17.88
625.189	17.87
625.381	17.81
625.574	17.76
625.766	17.74
625.958	17.72
626.15	17.7
626.342	17.69
626.534	17.66
626.726	17.67
626.918	17.65
627.11	17.56
627.302	17.56
627.494	17.51
627.686	17.45
627.878	17.4
628.07	17.39
628.262	17.35
628.454	17.36
628.646	17.29
628.838	17.22
629.029	17.15
629.221	17.14
629.413	17.05
629.605	16.98
629.797	16.96
629.989	16.96
630.18	16.93
630.372	16.92
630.564	16.91
630.755	16.87
630.947	16.85
631.139	16.77
631.33	16.71
631.522	16.67
631.714	16.65
631.905	16.58
632.097	16.55
632.289	16.53
632.48	16.52
632.672	16.48
632.863	16.46
633.055	16.46
633.246	16.46
633.438	16.44
633.629	16.45
633.821	16.46
634.012	16.47
634.203	16.48
634.395	16.5
634.586	16.45
634.777	16.43
634.969	16.41
635.16	16.37
635.351	16.38
635.543	16.34
635.734	16.29
635.925	16.35
636.117	16.35
636.308	16.31
636.499	16.28
636.69	16.29
636.881	16.33
637.073	16.32
637.264	16.29
637.455	16.34
637.646	16.39
637.837	16.41
638.028	16.4
638.219	16.36
638.41	16.32
638.601	16.29
638.792	16.2
638.983	16.16
639.174	16.12
639.365	16.09
639.556	16.1
639.747	16.13
639.938	16.15
640.129	16.16
640.32	16.14
640.511	16.14
640.701	16.09
640.892	16.07
641.083	16.05
641.274	16.02
641.465	15.98
641.655	15.98
641.846	15.94
642.037	15.94
642.228	15.89
642.418	15.82
642.609	15.79
642.8	15.76
642.99	15.74
643.181	15.78
643.372	15.76
643.562	15.73
643.753	15.71
643.943	15.67
644.134	15.71
644.324	15.67
644.515	15.61
644.705	15.58
644.896	15.55
645.086	15.58
645.277	15.57
645.467	15.53
645.658	15.53
645.848	15.52
646.038	15.48
646.229	15.48
646.419	15.43
646.61	15.39
646.8	15.35
646.99	15.32
647.18	15.26
647.371	15.25
647.561	15.23
647.751	15.2
647.941	15.16
648.132	15.19
648.322	15.16
648.512	15.17
648.702	15.15
648.892	15.16
649.082	15.13
649.272	15.07
649.462	15.01
649.653	14.99
649.843	14.97
650.033	14.93
650.223	14.87
650.413	14.9
650.603	14.93
650.793	14.87
650.983	14.83
651.172	14.78
651.362	14.72
651.552	14.66
651.742	14.56
651.932	14.51
652.122	14.47
652.312	14.31
652.502	14.25
652.691	14.21
652.881	14.17
653.071	14.07
653.261	13.95
653.45	13.9
653.64	13.94
653.83	13.8
654.019	13.63
654.209	13.56
654.399	13.44
654.588	13.35
654.778	13.26
654.968	13.11
655.157	13.01
655.347	12.9
655.536	12.68
655.726	12.58
655.915	12.4
656.105	12.26
656.294	12.09
656.484	11.99
656.673	11.91
656.863	11.81
657.052	11.65
657.241	11.5
657.431	11.32
657.62	11.14
657.809	10.97
657.999	10.74
658.188	10.6
658.377	10.52
658.567	10.35
658.756	10.17
658.945	10.03
659.134	9.82
659.324	9.71
659.513	9.52
659.702	9.31
659.891	9.16
660.08	9.05
660.269	8.97
660.458	8.87
660.648	8.76
660.837	8.68
661.026	8.57
661.215	8.46
661.404	8.31
661.593	8.1
661.782	7.96
661.971	7.79
662.16	7.64
662.349	7.45
662.538	7.37
662.726	7.24
662.915	7.16
663.104	6.98
663.293	6.91
663.482	6.78
663.671	6.68
663.86	6.53
664.048	6.41
664.237	6.32
664.426	6.36
664.615	6.21
664.803	6.13
664.992	6.11
665.181	6.04
665.369	5.97
665.558	5.93
665.747	5.88
665.935	5.85
666.124	5.82
666.312	5.7
666.501	5.64
666.69	5.61
666.878	5.54
667.067	5.48
667.255	5.46
667.444	5.41
667.632	5.4
667.82	5.36
668.009	5.39
668.197	5.37
668.386	5.25
668.574	5.21
668.762	5.17
668.951	5.16
669.139	5.17
669.327	5.12
669.516	5.12
669.704	5.2
669.892	5.2
670.08	5.22
670.269	5.23
670.457	5.16
670.645	5.18
670.833	5.21
671.021	5.16
671.21	5.24
671.398	5.25
671.586	5.28
671.774	5.37
671.962	5.35
672.15	5.33
672.338	5.41
672.526	5.37
672.714	5.38
672.902	5.46
673.09	5.53
673.278	5.58
673.466	5.64
673.654	5.65
673.842	5.68
674.03	5.7
674.218	5.65
674.405	5.61
674.593	5.59
674.781	5.63
674.969	5.69
675.157	5.75
675.344	5.82
675.532	5.9
675.72	5.97
675.908	6.03
676.095	6.15
676.283	6.12
676.471	6.19
676.658	6.24
676.846	6.35
677.033	6.49
677.221	6.59
677.409	6.6
677.596	6.75
677.784	6.77
677.971	6.87
678.159	6.93
678.346	6.93
678.534	7.02
678.721	7.09
678.909	7.11
679.096	7.23
679.283	7.31
679.471	7.38
679.658	7.51
679.846	7.63
680.033	7.73
680.22	7.83
680.408	7.91
680.595	7.97
680.782	8.1
680.969	8.12
681.157	8.11
681.344	8.25
681.531	8.39
681.718	8.56
681.905	8.69
682.093	8.77
682.28	9.02
682.467	9.18
682.654	9.31
682.841	9.48
683.028	9.63
683.215	9.8
683.402	9.91
683.589	9.97
683.776	10.13
683.963	10.25
684.15	10.4
684.337	10.58
684.524	10.77
684.711	10.95
684.898	11.15
685.085	11.49
685.271	11.74
685.458	12.03
685.645	12.33
685.832	12.63
686.019	12.97
686.205	13.33
686.392	13.53
686.579	13.83
686.766	14.11
686.952	14.46
687.139	14.8
687.326	15.21
687.512	15.6
687.699	15.97
687.886	16.28
688.072	16.76
688.259	17.17
688.445	17.49
688.632	17.94
688.818	18.39
689.005	19.04
689.191	19.64
689.378	20.04
689.564	20.44
689.751	21.16
689.937	21.65
690.124	22.07
690.31	22.4
690.496	22.9
690.683	23.52
690.869	24.11
691.055	24.69
691.242	25.23
691.428	25.93
691.614	26.69
691.8	27.23
691.987	27.82
692.173	28.53
692.359	29.1
692.545	29.73
692.731	30.31
692.918	30.85
693.104	31.5
693.29	32.3
693.476	32.89
693.662	33.46
693.848	34.01
694.034	34.47
694.22	35.1
694.406	35.73
694.592	36.13
694.778	36.63
694.964	37.26
695.15	37.93
695.336	38.76
695.522	39.34
695.708	40
695.894	40.67
696.08	41.3
696.265	41.89
696.451	42.54
696.637	43.03
696.823	43.65
697.009	44.34
697.194	44.94
697.38	45.46
697.566	46.02
697.751	46.55
697.937	47.06
698.123	47.58
698.308	47.9
698.494	48.38
698.68	49.08
698.865	49.54
699.051	50.09
699.236	50.69
699.422	51.12
699.607	51.58
699.793	51.95
699.978	52.28
700.164	52.82
700.349	53.16
700.535	53.56
700.72	54.07
700.906	54.53
701.091	55.03
701.276	55.43
701.462	55.61
701.647	56.03
701.832	56.47
702.018	56.8
702.203	57.1
702.388	57.37
702.573	57.8
702.759	58.3
702.944	58.72
703.129	58.99
703.314	59.27
703.499	59.93
703.684	60.39
703.87	60.72
704.055	61.03
704.24	61.36
704.425	61.82
704.61	62.17
704.795	62.35
704.98	62.61
705.165	62.79
705.35	62.97
705.535	63.29
705.72	63.45
705.905	63.71
706.09	63.7
706.275	63.93
706.459	64.54
706.644	64.84
706.829	64.95
707.014	65.12
707.199	65.47
707.384	65.83
707.568	65.99
707.753	66.04
707.938	66.27
708.123	66.35
708.307	66.73
708.492	66.7
708.677	67.16
708.861	67.31
709.046	67.27
709.231	67.54
709.415	67.68
709.6	67.63
709.784	67.9
709.969	67.82
710.153	68.29
710.338	68.45
710.522	68.47
710.707	68.33
710.891	68.59
711.076	68.8
711.26	68.97
711.445	68.86
711.629	69.21
711.813	69.42
711.998	69.81
712.182	70.04
712.366	70.19
712.551	70.2
712.735	70.24
712.919	70.37
713.103	70.45
713.288	70.87
713.472	70.87
713.656	70.73
713.84	70.89
714.024	71.13
714.208	71.11
714.393	71.01
714.577	71.03
714.761	71.2
714.945	71.29
715.129	71.66
715.313	71.84
715.497	71.91
715.681	72.42
715.865	72.48
716.049	72.6
716.233	72.95
716.417	72.87
716.601	72.9
716.785	73.11
716.968	72.91
717.152	72.93
717.336	72.9
717.52	72.95
717.704	72.96
717.888	72.79
718.071	72.79
718.255	72.77
718.439	72.65
718.622	72.87
718.806	72.84
718.99	72.99
719.174	73.25
719.357	73.29
719.541	73.5
719.724	73.72
719.908	73.74
720.092	73.75
720.275	73.81
720.459	73.85
720.642	73.81
720.826	73.99
721.009	74.12
721.193	74.04
721.376	74.12
721.559	74.24
721.743	74.3
721.926	74.21
722.11	74.27
722.293	73.9
722.476	73.95
722.66	73.83
722.843	73.8
723.026	73.87
723.21	74.01
723.393	74.03
723.576	74.33
723.759	74.61
723.942	74.96
724.126	75.11
724.309	75.03
724.492	75.25
724.675	75.3
724.858	75.82
725.041	75.66
725.224	75.7
725.407	75.48
725.59	75.6
725.774	75.48
725.957	75.54
726.14	75.37
726.322	75.24
726.505	75.53
726.688	75.63
726.871	76.04
727.054	76.52
727.237	76.66
727.42	76.99
727.603	77.24
727.786	77.24
727.968	77.48
728.151	77.42
728.334	77.56
728.517	77.42
728.699	77.45
728.882	77.82
729.065	77.66
729.248	77.63
729.43	77.31
729.613	77.22
729.796	77.6
729.978	77.67
730.161	77.5
730.343	77.56
730.526	77.59
730.708	78.06
730.891	78.23
731.073	78.17
731.256	78.06
731.438	78.29
731.621	78.58
731.803	78.7
731.986	78.56
732.168	78.21
732.35	78.27
732.533	78.41
732.715	78.86
732.898	78.89
733.08	79.03
733.262	79.1
733.444	79.51
733.627	79.55
733.809	79.51
733.991	79.38
734.173	79.07
734.355	79.49
734.538	79.42
734.72	79.78
734.902	79.34
735.084	79.75
735.266	79.71
735.448	79.97
735.63	79.88
735.812	80.28
735.994	79.7
736.176	80.25
736.358	79.93
736.54	79.57
736.722	79.47
736.904	78.91
737.086	79.19
737.268	79.69
737.45	79.71
737.632	79.5
737.814	79.53
737.995	79.76
738.177	80.4
738.359	80.47
738.541	79.77
738.723	79.62
738.904	79.79
739.086	80.27
739.268	80.49
739.449	80.57
739.631	80.63
739.813	80.96
739.994	81.28
740.176	81.3
740.358	81.02
740.539	80.74
740.721	80.76
740.902	79.92
741.084	80.41
741.265	80.37
741.447	80.43
741.628	80.33
741.81	80.49
741.991	80.67
742.172	81.18
742.354	81.45
742.535	81.87
742.717	82.01
742.898	82.58
743.079	82.56
743.261	82.18
743.442	82.32
743.623	81.46
743.804	80.92
743.986	80.47
744.167	79.73
744.348	80.09
744.529	80.04
744.71	79.27
744.891	79.51
745.073	79.87
745.254	80.68
745.435	81.03
745.616	80.75
745.797	80.25
745.978	81
746.159	80.92
746.34	80.95
746.521	80.55
746.702	80.03
746.883	80.32
747.064	80.32
747.245	80.31
747.426	80.43
747.606	80.19
747.787	80.59
747.968	81.16
748.149	80.94
748.33	82.14
748.51	81.59
748.691	81.94
748.872	81.85
749.053	81.02
749.233	80.85
749.414	80.27
749.595	79.45
749.775	80.06
749.956	78.96
750.137	78.57
750.317	78.56
750.498	78.91
750.678	79.34
750.859	79.66
751.04	79.6
751.22	79.94
751.4	80.53
751.581	80.48
751.761	80.46
751.942	80.2
752.122	79.8
752.303	79.85
752.483	80.72
752.663	80.98
752.844	80.82
753.024	80.93
753.204	81.07
753.385	81.1
753.565	80.43
753.745	79.67
753.925	78.66
754.106	79.04
754.286	78.62
754.466	78.79
754.646	78.35
754.826	78.91
755.006	78.43
755.187	78.87
755.367	78.5
755.547	78.81
755.727	78.35
755.907	79.4
756.087	79.51
756.267	79.73
756.447	79.98
756.627	80.26
756.807	80.55
756.987	81.3
757.167	80.84
757.346	79.72
757.526	80.06
757.706	79.61
757.886	79.63
758.066	79.21
758.246	78.99
758.425	78.58
758.605	79
758.785	78.99
758.965	78.41
759.144	78.48
759.324	78.34
759.504	78.11
759.683	77.66
759.863	77.79
760.043	77.61
760.222	78.07
760.402	78.24
760.581	77.74
760.761	76.4
760.94	76.79
761.12	76.21
761.299	75.56
761.479	76.07
761.658	75.53
761.838	76.37
762.017	77.89
762.197	78.79
762.376	79.38
762.555	79.94
762.735	78.7
762.914	79.08
763.093	78.17
763.273	78.23
763.452	76.73
763.631	76.01
763.81	76.68
763.99	77.92
764.169	77.38
764.348	77.59
764.527	77.11
764.706	78.34
764.885	78.78
765.064	78.14
765.243	77.26
765.423	77.87
765.602	77.7
765.781	77.76
765.96	77.37
766.139	76.82
766.318	77.25
766.497	77.73
766.676	78.26
766.854	78.18
767.033	77.77
767.212	77.14
767.391	77.77
767.57	77.09
767.749	76.83
767.928	74.15
768.106	73.51
768.285	73.43
768.464	73.57
768.643	73.64
768.821	74.15
769	73.81
769.179	75.33
769.357	75.49
769.536	74.9
769.715	74.79
769.893	74.07
770.072	73.53
770.25	73.44
770.429	73.73
770.607	74.19
770.786	75.14
770.964	74.49
771.143	74.96
771.321	74.58
771.5	74.46
771.678	73.54
771.857	72.93
772.035	72.7
772.213	72.96
772.392	72.6
772.57	72.24
772.748	72.31
772.927	72.7
773.105	73.87
773.283	73.32
773.461	74.05
773.64	74
773.818	73.7
773.996	72.86
774.174	73.22
774.352	72.55
774.531	71.99
774.709	72.36
774.887	71.99
775.065	72.5
775.243	73.9
775.421	74.11
775.599	73.49
775.777	74.92
775.955	73.44
776.133	73.78
776.311	74.15
776.489	74.03
776.667	73.67
776.844	73.09
777.022	72.51
777.2	72.2
777.378	72.47
777.556	72.08
777.734	72.07
777.911	73
778.089	73.57
778.267	73.18
778.445	74.3
778.622	73.61
778.8	73.42
778.978	73.02
779.155	71.34
779.333	70.97
779.511	70.43
779.688	69.34
779.866	68.86
780.043	69.66
780.221	68.77
780.398	69.31
780.576	69.22
780.753	70
780.931	71.68
781.108	72.17
781.286	70.25
781.463	70.41
781.64	70.19
781.818	70.21
781.995	70.52
782.172	69.35
782.35	68.62
782.527	72.28
782.704	73.13
782.882	74.05
783.059	74.47
783.236	74.64
783.413	73.6
783.59	73.12
783.768	69.97
783.945	70.65
784.122	69.78
784.299	70
784.476	70.09
784.653	70.55
784.83	70.51
785.007	70.58
785.184	68.7
785.361	68.08
785.538	68.62
785.715	67.79
785.892	68.41
786.069	68.97
786.246	68.85
786.423	70.97
786.6	71.28
786.776	70.45
786.953	68.21
787.13	69.39
787.307	69.25
787.484	69.78
787.66	67.22
787.837	68.5
788.014	66.98
788.191	67.79
788.367	65.51
788.544	65.19
788.721	65.01
788.897	68.58
789.074	65.96
789.25	68.42
789.427	70.21
789.603	72.68
789.78	75.19
789.956	74.76
790.133	72.26
790.309	72.43
790.486	73.82
790.662	72.26
790.839	73.23
791.015	70.46
791.192	70.1
791.368	70.59
791.544	72.79
791.721	70.5
791.897	71.93
792.073	70.26
792.249	72.19
792.426	73.65
792.602	70.55
792.778	70.35
792.954	70.99
793.13	71.47
793.307	69.39
793.483	70.11
793.659	70.21
793.835	70.32
794.011	66.8
794.187	63.91
794.363	61.83
794.539	61.89
794.715	59.21
794.891	55.93
795.067	58.57
795.243	61.86
795.419	65.15
795.595	66.27
795.771	67.79
795.947	67.83
796.122	70.53
796.298	68.77
796.474	68.88
796.65	65.23
796.826	66.28
797.001	65.86
797.177	67.8
797.353	69.09
797.529	69.16
797.704	69.74
797.88	71.48
798.056	72.29
798.231	71.91
798.407	69.71
798.582	67.89
798.758	69.5
798.934	66.45
799.109	64.71
799.285	63.33
799.46	62.38
799.636	64.48
799.811	65.86
799.986	64.87
800.162	67.49
800.337	69.37
800.513	71.5
800.688	74.81
800.863	73.07
801.039	70.49
801.214	72.09
801.389	69.86
801.565	75.9
801.74	73.48
801.915	71.89
802.09	72.04
802.265	75.32
802.441	73.95
802.616	75.59
802.791	70.47
802.966	69.76
803.141	66.61
803.316	68.31
803.491	66.2
803.666	67.37
803.841	67.23
804.016	66.28
804.191	63.84
804.366	66.56
804.541	62.12
804.716	57.55
804.891	58.34
805.066	56.06
805.241	54.68
805.416	55.02
805.591	59.94
805.765	64.15
805.94	71
806.115	64.29
806.29	66.18
806.464	67.4
806.639	69.69
806.814	60.32
806.989	58.15
807.163	53.41
807.338	55.15
807.512	52.56
807.687	51.3
807.862	47.34
808.036	52.63
808.211	54.26
808.385	54.1
808.56	54.73
808.734	57.06
808.909	55.21
809.083	57.35
809.258	60.73
809.432	57.82
809.606	56.42
809.781	60.16
809.955	62.13
810.13	69.26
810.304	66.54
810.478	60.14
810.652	65.89
810.827	67.89
811.001	66.49
811.175	62.76
811.349	57.17
811.524	58.23
811.698	58.45
811.872	55.33
812.046	55.27
812.22	53.05
812.394	55.73
812.568	61.35
812.742	63.54
812.916	64.6
813.09	62.28
813.264	62.61
813.438	70.86
813.612	70.07
813.786	67.31
813.96	69.94
814.134	69.9
814.308	66.82
814.482	67.89
814.656	63.83
814.83	66.89
815.003	66.2
815.177	62.73
815.351	66
815.525	70.51
815.698	66.44
815.872	66.47
816.046	60.16
816.219	66.1
816.393	58.9
816.567	52.38
816.74	55.48
816.914	61.84
817.088	52.89
817.261	55.32
817.435	48.4
817.608	57.85
817.782	63.47
817.955	57.3
818.129	57.8
818.302	69.11
818.475	69.4
818.649	63.85
818.822	66.05
818.996	61.21
819.169	64
819.342	60.82
819.516	61.28
819.689	65.85
819.862	68.18
820.035	64.14
820.209	63.68
820.382	59.76
820.555	58.77
820.728	50.91
820.901	49.9
821.075	57.41
821.248	55.81
821.421	53.09
821.594	55.4
821.767	54.45
821.94	54.6
822.113	54.96
822.286	49.79
822.459	56.38
822.632	66.28
822.805	64.56
822.978	64.14
823.151	67.04
823.324	56.39
823.496	53.19
823.669	51.23
823.842	47.02
824.015	45.19
824.188	41.48
824.361	43.48
824.533	52.45
824.706	60.95
824.879	61.26
825.051	68.19
825.224	70.44
825.397	71.34
825.569	75.38
825.742	75.37
825.915	70.71
826.087	64.74
826.26	58.5
826.432	59.85
826.605	59.77
826.777	59.38
826.95	51.3
827.122	48.02
827.295	54.76
827.467	53.08
827.64	44.64
827.812	44.28
827.984	44.39
828.157	48.42
828.329	46.56
828.501	48.45
828.674	52.56
828.846	57.2
829.018	52.26
829.19	48.24
829.363	51.93
829.535	50.42
829.707	48.82
829.879	46.4
830.051	46.67
830.223	45.86
830.395	33.89
830.568	30.89
830.74	38.85
830.912	38.85
831.084	37.87
831.256	36.91
831.428	46.49
831.6	59.21
831.772	57.9
831.943	58.46
832.115	57.1
832.287	48.35
832.459	55.53
832.631	52.34
832.803	53.4
832.975	54.48
833.146	48.83
833.318	48.02
833.49	73.39
833.662	67.73
833.833	70.48
834.005	61.69
834.177	58.51
834.348	52.41
834.52	57.77
834.692	49.49
834.863	46.73
835.035	46.28
835.206	52.97
835.378	54.17
835.549	65.09
835.721	61.06
835.892	54.61
836.064	55.73
836.235	59.4
836.407	58.25
836.578	63.29
836.749	56.84
836.921	53.27
837.092	62
837.264	52.31
837.435	30.64
837.606	31.64
837.777	17.4
837.949	24.57
838.12	24.08
838.291	17.48
838.462	27.91
838.633	38.66
838.805	42.72
838.976	55.02
839.147	55.4
839.318	49.03
839.489	51.45
839.66	53.48
839.831	47.75
840.002	41.02
840.173	40.24
840.344	48.26
840.515	54.5
840.686	54.14
840.857	45.68
841.028	53.54
841.199	53.93
841.369	48.38
841.54	37.33
841.711	35.18
841.882	33.71
842.053	22.58
842.223	4.75
842.394	19.54
842.565	21.18
842.736	21.92
842.906	16.38
843.077	27.93
843.248	43.01
843.418	47.73
843.589	44.87
843.759	51.72
843.93	56.96
844.101	58.4
844.271	62.75
844.442	62.33
844.612	50.71
844.783	36.9
844.953	33.21
845.123	28.95
845.294	7.82
845.464	17.5
845.635	13.94
845.805	32.61
845.975	36.5
846.146	20.89
846.316	23.28
846.486	55.06
846.656	55.28
846.827	54.13
846.997	61.91
847.167	59.94
847.337	66.72
847.507	62.76
847.677	60.01
847.848	62.19
848.018	68.27
848.188	44.64
848.358	51.39
848.528	53.23
848.698	32.48
848.868	16
849.038	11.08
849.208	29.25
849.378	39.45
849.548	41.23
849.718	34.88
849.887	44.98
850.057	43.58
850.227	24.54
850.397	-2.44
850.567	0.24
850.737	1.86
850.906	15.49
851.076	13.89
851.246	35.23
851.415	51.6
851.585	51.31
851.755	53.23
851.924	50.54
852.094	40.71
852.264	35.22
852.433	27.22
852.603	14.98
852.772	12.42
852.942	2.63
853.111	9.09
853.281	20.53
853.45	33.85
853.62	24.2
853.789	26.68
853.959	26.41
854.128	22.64
854.297	20.26
854.467	12.9
854.636	9.17
854.805	23
854.975	23.12
855.144	29.56
855.313	41.53
855.482	25.07
855.652	30.34
855.821	38.29
855.99	42.97
856.159	46.76
856.328	52.69
856.497	44.81
856.667	66.51
856.836	57.06
857.005	48.21
857.174	45.81
857.343	43.05
857.512	27.98
857.681	28.41
857.85	0.5
858.019	14.37
858.188	19.67
858.356	-6.93
858.525	-2.19
858.694	16.12
858.863	11.37
859.032	9.42
859.201	-12.49
859.369	4.07
859.538	2.33
859.707	3.53
859.876	-2.54
860.044	-2.06
860.213	2.89
860.382	2.36
860.55	10.03
860.719	36.79
860.888	33.71
861.056	27.77
861.225	41.73
861.393	51.57
861.562	55.3
861.73	26.04
861.899	3.3
862.067	16.17
862.236	22.55
862.404	17.66
862.572	19.1
862.741	28.34
862.909	32.09
863.078	23.83
863.246	18.16
863.414	19.02
863.582	4.49
863.751	0.11
863.919	15.89
864.087	31.91
864.255	38.14
864.424	42.46
864.592	39.2
864.76	53.95
864.928	50.3
865.096	30.64
865.264	28.24
865.432	23.07
865.6	0.1
865.768	-2.1
865.936	-3.73
866.104	3.8
866.272	7.07
866.44	-48.68
866.608	-39.62
866.776	7.54
866.944	9.19
867.112	-40.39
867.28	-80.31
867.448	-38.02
867.615	0.35
867.783	-26.21
867.951	-1.94
868.119	21.22
868.286	29.12
868.454	44.01
868.622	32.56
868.789	42.88
868.957	82.33
869.125	53.93
869.292	52.15
869.46	53.38
869.627	32.16
869.795	29.31
869.963	15.4
870.13	11.26
870.298	6.23
870.465	-34.87
870.632	-22.95
870.8	-7.66
870.967	-3.97
871.135	6.93
871.302	5.17
871.469	11.18
871.637	19.19
871.804	23.34
871.971	34.15
872.139	46.59
872.306	40.99
872.473	24.64
872.64	14.57
872.807	25.72
872.975	43.07
873.142	-5.39
873.309	-10.03
873.476	-0.15
873.643	86.91
873.81	69.99
873.977	17.09
874.144	14.06
874.311	42.74
874.478	0.88
874.645	-35.15
874.812	-39.33
874.979	-57.3
875.146	-78.43
875.313	-153.53
875.48	-87.78
875.647	-123.95
875.813	-105.73
875.98	-91.52
876.147	12.85
876.314	8.55
876.481	3.41
876.647	17.2
876.814	38.55
876.981	26.63
877.147	17.01
877.314	-12.69
877.481	8.02
877.647	14.4
877.814	-9.89
877.98	-49.76
878.147	-13.71
878.314	-0.05
878.48	25.71
878.647	51.59
878.813	61.74
878.979	102.61
879.146	68.14
879.312	81.81
879.479	72.47
879.645	35.85
879.811	19.51
879.978	41.97
880.144	16.25
880.31	-3.24
880.477	-31.78
880.643	-74.06
880.809	82.8
880.975	33.54
881.142	-8.91
881.308	25.84
881.474	62.05
881.64	37.96
881.806	23.19
881.972	-5.46
882.138	-3.32
882.304	-68.98
882.47	-59.63
882.636	-69
882.802	-114.2
882.968	-206.71
883.134	-309.43
883.3	-120.71
883.466	-1.32
883.632	-25.64
883.798	-3.04
883.964	-4.86
884.129	19.6
884.295	12.27
884.461	-4.71
884.627	-20.62
884.793	31.99
884.958	11.85
885.124	8.8
885.29	9.87
885.455	15.54
885.621	5.34
885.787	-3.06
885.952	-21.77
886.118	4.83
886.283	29.77
886.449	11.76
886.614	40.78
886.78	59.06
886.945	29.83
887.111	26.66
887.276	-18.79
887.442	-31.77
887.607	-45.79
887.773	-65.27
887.938	-119.96
888.103	-42.65
888.269	-17.92
888.434	-34.91
888.599	-9.36
888.764	-3.1
888.93	-1.5
889.095	-10.44
889.26	-2.86
889.425	4.66
889.59	26.35
889.756	9.16
889.921	20.39
890.086	75.54
890.251	62.21
890.416	6.82
890.581	-2.48
890.746	-17.19
890.911	-57.01
891.076	-124.42
891.241	-255.32
891.406	-76.94
891.571	-36.96
891.736	-63.35
891.901	-11.47
892.065	19.87
892.23	31.92
892.395	12.76
892.56	4.28
892.725	4.95
892.889	13.89
893.054	-71.85
893.219	-139.87
893.384	-237.75
893.548	-479.17
893.713	928.96
893.878	533.15
