Data from Ofra_2a_PS_2CX13O_Reflection_3.txt Node
Date: Tue Jul 20 10:02:33 EDT 2021
User: Adam
Spectrometer: FLMT01687
Trigger mode: 0
Integration Time (sec): 9.450000E-1
Scans to average: 3
Electric dark correction enabled: true
Nonlinearity correction enabled: false
Boxcar width: 3
XAxis mode: Wavelengths
Number of Pixels in Spectrum: 3648
>>>>>Begin Spectral Data<<<<<
179.494	1217.16
179.716	726.06
179.937	764.84
180.158	3026.56
180.38	-1429.07
180.601	-248.33
180.823	-42.47
181.044	75.7
181.265	57.89
181.486	125.7
181.708	565.22
181.929	29.77
182.15	-522.73
182.372	62.45
182.593	69.52
182.814	173.05
183.035	28.93
183.257	47.65
183.478	54.58
183.699	83.95
183.92	59.15
184.141	66.56
184.363	41.06
184.584	36.06
184.805	51.93
185.026	53.64
185.247	22.46
185.468	23.65
185.689	9.88
185.91	33.66
186.132	30.35
186.353	8.7
186.574	12.35
186.795	0.64
187.016	12.95
187.237	13.37
187.458	-10.2
187.679	-21.76
187.9	-14.98
188.121	-10.9
188.342	27.61
188.563	20.63
188.784	23.44
189.005	27.12
189.226	28.24
189.447	24.74
189.667	31.13
189.888	41.97
190.109	31.2
190.33	15.72
190.551	18.68
190.772	25.51
190.993	38.21
191.214	33.07
191.434	14.53
191.655	24.99
191.876	36.41
192.097	30.8
192.318	29.55
192.538	26.94
192.759	32.73
192.98	31.24
193.201	25.04
193.421	33.34
193.642	37.7
193.863	28.42
194.083	10.65
194.304	0.63
194.525	19.64
194.745	6.65
194.966	-0.2
195.187	7.61
195.407	3.89
195.628	12.87
195.848	7.89
196.069	-13.69
196.29	-8.79
196.51	-20.05
196.731	-19.61
196.951	-4.13
197.172	1.07
197.392	8.23
197.613	17.13
197.833	13.47
198.054	19.51
198.274	-3.45
198.495	4.7
198.715	-21.56
198.936	-15.2
199.156	-11.21
199.377	-4.82
199.597	-2.82
199.817	5.93
200.038	16.33
200.258	27.89
200.479	44.81
200.699	36.13
200.919	34.35
201.14	23.76
201.36	47.94
201.58	26.27
201.801	35.37
202.021	18.23
202.241	33.41
202.461	42.12
202.682	49.41
202.902	39.24
203.122	39.87
203.342	39.85
203.563	45.8
203.783	37.85
204.003	38.41
204.223	40.04
204.443	50.17
204.663	46.6
204.884	32.74
205.104	25.33
205.324	32.18
205.544	26.72
205.764	22.52
205.984	6.15
206.204	15.59
206.424	33.55
206.644	23.33
206.864	13.74
207.084	28.23
207.304	26.14
207.525	29.78
207.745	36.39
207.964	31.47
208.184	49.06
208.404	64.12
208.624	54.99
208.844	52.74
209.064	64.47
209.284	58.95
209.504	58.36
209.724	37.76
209.944	25.39
210.164	20.71
210.384	20.05
210.604	-23.96
210.823	-26.3
211.043	-22.52
211.263	3.22
211.483	3.88
211.703	17.64
211.922	20.11
212.142	31.89
212.362	30.51
212.582	32
212.801	20
213.021	21.92
213.241	-1.87
213.461	-17.38
213.68	-22.68
213.9	-8.36
214.12	-10.53
214.339	1.24
214.559	6.4
214.779	22.71
214.998	36.73
215.218	48.56
215.438	48.63
215.657	47.03
215.877	44.62
216.096	39.52
216.316	35.88
216.535	42.25
216.755	24.06
216.974	12.46
217.194	10.61
217.413	21.11
217.633	15.1
217.852	9.28
218.072	-16.37
218.291	22.1
218.511	22.71
218.73	13.4
218.95	-0.07
219.169	9.98
219.389	1.1
219.608	19.56
219.827	11.16
220.047	21.95
220.266	28.69
220.485	33.38
220.705	26.14
220.924	43.72
221.143	27.09
221.363	19.31
221.582	13.24
221.801	22.34
222.021	23.46
222.24	38.59
222.459	24.04
222.678	42.27
222.897	41.79
223.117	43.64
223.336	39.44
223.555	32.48
223.774	31.94
223.993	42.68
224.213	34.74
224.432	48.72
224.651	38.2
224.87	51.31
225.089	61.32
225.308	51.44
225.527	49.66
225.746	55.39
225.965	40.15
226.184	53.82
226.404	36.57
226.623	30.82
226.842	33.35
227.061	31.56
227.28	31.02
227.499	43.41
227.718	31.39
227.936	26.52
228.155	24.12
228.374	18.93
228.593	20.37
228.812	19.14
229.031	6.22
229.25	22.58
229.469	37.5
229.688	44.11
229.907	53.39
230.125	52.08
230.344	54.52
230.563	48.94
230.782	37.28
231.001	31.19
231.22	24.44
231.438	17.04
231.657	12.23
231.876	8.65
232.095	14.17
232.313	20
232.532	28.57
232.751	39.7
232.969	44.95
233.188	51.99
233.407	46.22
233.625	39.04
233.844	45.48
234.063	44.07
234.281	38.68
234.5	34.31
234.719	25.68
234.937	42.7
235.156	37.57
235.374	34.78
235.593	27.36
235.811	25.47
236.03	18.48
236.249	29.56
236.467	16.69
236.686	36.87
236.904	25.24
237.123	29.21
237.341	24.93
237.559	30.16
237.778	37.21
237.996	32.54
238.215	21.23
238.433	33.9
238.652	24.62
238.87	24.18
239.088	15.53
239.307	10.38
239.525	-0.92
239.743	-7.32
239.962	-9.74
240.18	9.04
240.398	15.62
240.617	28.11
240.835	34.12
241.053	62.07
241.271	80.33
241.49	63.95
241.708	53.58
241.926	38.38
242.144	44.66
242.363	38.73
242.581	24.57
242.799	1.47
243.017	14.37
243.235	10.64
243.453	27.08
243.672	14.17
243.89	14.19
244.108	23.72
244.326	25.6
244.544	31.08
244.762	28.42
244.98	26.49
245.198	30.07
245.416	30.21
245.634	32.91
245.852	41.89
246.07	38.73
246.288	44.62
246.506	53.83
246.724	54.5
246.942	55.38
247.16	42.13
247.378	26.52
247.596	32.01
247.814	23.24
248.032	11.7
248.25	11.05
248.468	4.37
248.685	9.15
248.903	10.06
249.121	5.74
249.339	18.95
249.557	24.12
249.775	10.2
249.992	10.34
250.21	-1.71
250.428	-5.01
250.646	-1.31
250.863	-6.32
251.081	-12.33
251.299	10.54
251.517	14.72
251.734	9.58
251.952	16.52
252.17	-14.36
252.387	-3.29
252.605	-4.31
252.823	-23.28
253.04	-22.39
253.258	-1.22
253.475	12.31
253.693	41.28
253.911	43.28
254.128	40.12
254.346	35.21
254.563	36.61
254.781	32.16
254.998	23.69
255.216	15.61
255.433	11.24
255.651	10.31
255.868	18.77
256.086	11.48
256.303	22.77
256.521	25.23
256.738	19.84
256.956	21.43
257.173	20.62
257.39	27.6
257.608	35.94
257.825	37.65
258.043	42.85
258.26	46.68
258.477	42.3
258.695	47.54
258.912	43.98
259.129	22.95
259.346	22.3
259.564	17.79
259.781	29.71
259.998	29.51
260.216	37.29
260.433	28.71
260.65	43.38
260.867	16.52
261.084	18.2
261.302	5.25
261.519	-2.85
261.736	-19.25
261.953	-12.12
262.17	-5.05
262.387	12.68
262.604	1.18
262.822	4.91
263.039	14.34
263.256	16.67
263.473	13.75
263.69	17.11
263.907	16.83
264.124	17.84
264.341	15.29
264.558	18.76
264.775	23.81
264.992	28.36
265.209	34.35
265.426	30.97
265.643	34.97
265.86	31.57
266.077	28.53
266.294	27.34
266.51	30.64
266.727	11.46
266.944	5.86
267.161	3.62
267.378	17.8
267.595	7.22
267.812	-0.86
268.028	-0.28
268.245	11.85
268.462	19.24
268.679	15.45
268.896	8.33
269.112	27.93
269.329	38.57
269.546	34.1
269.763	33.29
269.979	34.26
270.196	36.58
270.413	35.14
270.629	33.05
270.846	34.17
271.063	36.59
271.279	30.66
271.496	24.06
271.712	21.29
271.929	22.4
272.146	16.56
272.362	-3.85
272.579	-10.1
272.795	2.58
273.012	11.91
273.228	13.24
273.445	22.11
273.661	14.68
273.878	25.36
274.094	26.64
274.311	19.47
274.527	14.92
274.744	18.33
274.96	14.99
275.177	25.31
275.393	28
275.609	33.54
275.826	34.09
276.042	46.53
276.259	41.3
276.475	30.69
276.691	23.15
276.908	23.72
277.124	16.13
277.34	15.07
277.557	5.15
277.773	7.22
277.989	7.8
278.205	-3.15
278.422	0.54
278.638	14.79
278.854	13.02
279.07	8.86
279.286	12.31
279.503	14.01
279.719	36.8
279.935	23.22
280.151	24.53
280.367	32.86
280.583	37.71
280.799	40.68
281.016	41.31
281.232	30.27
281.448	40.44
281.664	33.59
281.88	31.1
282.096	32.71
282.312	21.95
282.528	14.8
282.744	31.53
282.96	22.88
283.176	23.94
283.392	32.87
283.608	25.75
283.824	25.92
284.04	31.99
284.256	26.83
284.471	32.61
284.687	28.44
284.903	19.2
285.119	10.68
285.335	10.42
285.551	27.13
285.767	23.83
285.982	13.83
286.198	15.38
286.414	29.69
286.63	43.21
286.846	48.98
287.061	34.52
287.277	40.74
287.493	51.11
287.709	52.91
287.924	52.57
288.14	53.29
288.356	59.98
288.571	53.75
288.787	40.43
289.003	45.05
289.218	33.7
289.434	32.35
289.65	30.39
289.865	27.64
290.081	28.49
290.296	30.83
290.512	24.27
290.727	36.76
290.943	34.97
291.159	27.49
291.374	25.98
291.59	26.59
291.805	26.81
292.021	15.95
292.236	16.63
292.451	25.45
292.667	28.31
292.882	13.03
293.098	14.26
293.313	18.14
293.529	26.08
293.744	30.94
293.959	15.23
294.175	6.14
294.39	22.65
294.605	32.56
294.821	28.36
295.036	20.78
295.251	5.13
295.467	2.53
295.682	16.46
295.897	11.67
296.112	10.59
296.328	7.38
296.543	10.95
296.758	16.92
296.973	29.23
297.188	21.82
297.404	25.69
297.619	20.31
297.834	29.61
298.049	32.74
298.264	31.45
298.479	16.88
298.694	25.7
298.909	19.04
299.125	26.71
299.34	24.35
299.555	26.99
299.77	25.87
299.985	24.89
300.2	16.03
300.415	15.71
300.63	1.79
300.845	8.94
301.06	2.86
301.275	6.84
301.49	14.27
301.704	17.08
301.919	29.48
302.134	24.41
302.349	7.26
302.564	13.2
302.779	3.65
302.994	5.15
303.209	-1.13
303.423	-8.34
303.638	18.12
303.853	28.62
304.068	21.91
304.283	22.05
304.497	22.54
304.712	30.64
304.927	24.39
305.142	17.84
305.356	22.32
305.571	27.73
305.786	28.09
306	34.26
306.215	29.28
306.43	40.84
306.644	43.52
306.859	43.6
307.074	38.95
307.288	43.31
307.503	36.8
307.717	38.25
307.932	34.35
308.147	29.21
308.361	27.77
308.576	26.46
308.79	22.71
309.005	16.53
309.219	21.41
309.434	22.64
309.648	8.71
309.863	10.12
310.077	1.63
310.292	2.62
310.506	16.67
310.72	18.01
310.935	12.18
311.149	25.72
311.364	34.07
311.578	35.81
311.792	37.77
312.007	28.41
312.221	22.29
312.435	23.51
312.649	24.54
312.864	9.86
313.078	29.84
313.292	27.28
313.507	39.59
313.721	43.58
313.935	60.54
314.149	48.49
314.363	47.99
314.578	61.71
314.792	62.02
315.006	57.51
315.22	61.65
315.434	50.56
315.648	54.29
315.862	49.89
316.077	34.53
316.291	35.45
316.505	39.1
316.719	17.44
316.933	28.63
317.147	31.29
317.361	38.4
317.575	35.16
317.789	33.95
318.003	39.03
318.217	51.12
318.431	40.88
318.645	35.76
318.859	21.58
319.073	19.24
319.287	20.85
319.5	12.57
319.714	10.54
319.928	13.4
320.142	18.02
320.356	28.46
320.57	27.13
320.784	30.02
320.997	37.28
321.211	37.77
321.425	27.52
321.639	27.31
321.853	27.65
322.066	28.14
322.28	26.29
322.494	21.88
322.707	19.01
322.921	23.77
323.135	23.6
323.349	22.77
323.562	25.72
323.776	25.84
323.989	27.42
324.203	28.21
324.417	24.87
324.63	18.99
324.844	9.51
325.057	22.87
325.271	17.3
325.485	7.62
325.698	10.31
325.912	22.83
326.125	30.33
326.339	39.92
326.552	33.06
326.766	43.59
326.979	50.25
327.193	49.81
327.406	42.73
327.619	34.3
327.833	32.87
328.046	25.46
328.26	11.48
328.473	12.06
328.686	15.31
328.9	13.29
329.113	2.94
329.326	7.2
329.54	7.2
329.753	8.76
329.966	13.56
330.179	17.88
330.393	25.49
330.606	44.58
330.819	47.9
331.032	47.65
331.246	51.57
331.459	49.1
331.672	43.93
331.885	42.12
332.098	41.73
332.311	33.11
332.525	28.19
332.738	31.74
332.951	31.23
333.164	34
333.377	25.58
333.59	25.99
333.803	28.16
334.016	33.77
334.229	33.51
334.442	34.18
334.655	36
334.868	42.05
335.081	44
335.294	38
335.507	43.99
335.72	32.93
335.933	31.82
336.146	28.57
336.359	27.13
336.572	18.55
336.785	26.49
336.997	18.65
337.21	27.73
337.423	27.31
337.636	27.74
337.849	20.37
338.062	21.45
338.274	14.81
338.487	13.87
338.7	13.06
338.913	14.11
339.125	9.3
339.338	16.28
339.551	20.04
339.763	19.87
339.976	21.58
340.189	20.15
340.402	18.21
340.614	22.07
340.827	14.82
341.039	13.98
341.252	17.1
341.465	11.88
341.677	3.19
341.89	5.22
342.102	8.06
342.315	18.71
342.527	15.32
342.74	14.41
342.952	19.53
343.165	35.96
343.377	36.83
343.59	37.48
343.802	39.27
344.015	44.31
344.227	42.07
344.44	37.62
344.652	35.72
344.864	35.42
345.077	24.87
345.289	21.02
345.502	19.3
345.714	15.49
345.926	24.49
346.139	18.93
346.351	-3.17
346.563	15.31
346.775	7.64
346.988	-1.51
347.2	7.92
347.412	3.47
347.624	8.15
347.837	25.47
348.049	17.03
348.261	18.83
348.473	12.58
348.685	11.47
348.897	6.61
349.11	8.37
349.322	0.26
349.534	4.46
349.746	19.57
349.958	31.34
350.17	33.17
350.382	35.79
350.594	25.37
350.806	25.72
351.018	28.29
351.23	24.87
351.442	22.21
351.654	26.52
351.866	29.3
352.078	32.63
352.29	38.94
352.502	36.31
352.714	40.48
352.926	44.64
353.138	35.14
353.35	30.94
353.561	21.94
353.773	19.63
353.985	23.28
354.197	18
354.409	21.59
354.621	24.52
354.832	25.94
355.044	35.95
355.256	32.92
355.468	35.32
355.679	38.34
355.891	35.66
356.103	38.29
356.314	38.94
356.526	33.81
356.738	24.57
356.949	17.93
357.161	11.51
357.373	10.85
357.584	17.98
357.796	15.6
358.008	19.8
358.219	33.3
358.431	30.78
358.642	33
358.854	30.99
359.065	21.74
359.277	23.69
359.488	20.16
359.7	16.55
359.911	20.63
360.123	25.33
360.334	23.08
360.546	20.68
360.757	26.71
360.969	34.17
361.18	31.24
361.391	32.81
361.603	33.24
361.814	37.29
362.025	39.09
362.237	30.71
362.448	25.83
362.659	23.35
362.871	22.5
363.082	17.94
363.293	18.57
363.504	21.52
363.716	26.47
363.927	26.6
364.138	28.97
364.349	27.46
364.56	25.88
364.772	26.47
364.983	21.08
365.194	21.01
365.405	19.1
365.616	20.52
365.827	18.01
366.038	23.77
366.25	15.26
366.461	18.72
366.672	13.7
366.883	22.85
367.094	17.96
367.305	22.82
367.516	20.98
367.727	25.27
367.938	24.58
368.149	27.59
368.36	23.16
368.571	28.97
368.781	23.02
368.992	22.39
369.203	22.16
369.414	24.47
369.625	20.77
369.836	19.18
370.047	14.18
370.258	14.52
370.468	12.18
370.679	9.33
370.89	15.9
371.101	17.26
371.312	17.98
371.522	19.53
371.733	15.8
371.944	20.32
372.155	13.02
372.365	5.35
372.576	4.16
372.787	4.36
372.997	2.13
373.208	7.74
373.419	6.66
373.629	19.84
373.84	14.8
374.05	20.22
374.261	12.93
374.472	21.33
374.682	20.49
374.893	13.77
375.103	12.24
375.314	17.44
375.524	14.2
375.735	15.43
375.945	11.77
376.156	15.99
376.366	21.08
376.577	18.3
376.787	18.76
376.997	21.8
377.208	22.99
377.418	25.19
377.629	16.95
377.839	19.18
378.049	24.12
378.26	26.27
378.47	22.38
378.68	24.76
378.89	17.46
379.101	17.33
379.311	14.72
379.521	10.29
379.732	-3.01
379.942	0.66
380.152	7.89
380.362	19.17
380.572	22.23
380.783	22.48
380.993	22.47
381.203	30.8
381.413	34.59
381.623	28.27
381.833	18.34
382.043	11.97
382.253	13.96
382.463	18.54
382.674	18.49
382.884	12.12
383.094	12.79
383.304	10.52
383.514	17.28
383.724	8.55
383.934	6.12
384.144	7.62
384.353	9.51
384.563	4.33
384.773	9.22
384.983	10.02
385.193	16.96
385.403	16.73
385.613	12.07
385.823	11.87
386.033	16.44
386.242	17.03
386.452	15.74
386.662	16.52
386.872	16.13
387.082	13.47
387.291	13.19
387.501	12.28
387.711	9.69
387.921	8.57
388.13	6.75
388.34	5.63
388.55	10.06
388.759	9.44
388.969	5.25
389.179	8
389.388	10.74
389.598	8.49
389.807	7.44
390.017	6.33
390.227	4.28
390.436	6.91
390.646	6.71
390.855	5.09
391.065	4.83
391.274	4.69
391.484	5.92
391.693	7.41
391.903	7.35
392.112	6.01
392.322	6.71
392.531	7.35
392.74	7.45
392.95	7.49
393.159	7.35
393.369	7.13
393.578	7.73
393.787	7.73
393.997	9.17
394.206	9.61
394.415	8.42
394.625	6.78
394.834	5.6
395.043	6.19
395.252	5.74
395.462	5.27
395.671	5.52
395.88	5.7
396.089	6.08
396.298	6.39
396.508	5.55
396.717	5.24
396.926	4.7
397.135	4.16
397.344	4.02
397.553	4.57
397.762	4.77
397.971	4.92
398.181	4.61
398.39	4.73
398.599	5.11
398.808	5.43
399.017	5.62
399.226	5.76
399.435	5.73
399.644	5.94
399.853	5.9
400.062	5.68
400.27	5.57
400.479	5.37
400.688	5.27
400.897	5.41
401.106	5.59
401.315	5.57
401.524	5.64
401.733	5.72
401.941	5.48
402.15	5.31
402.359	5.27
402.568	5.14
402.777	5.01
402.985	4.86
403.194	4.69
403.403	4.59
403.612	4.61
403.82	4.55
404.029	4.4
404.238	4.49
404.446	4.51
404.655	4.48
404.864	4.45
405.072	4.44
405.281	4.31
405.489	4.43
405.698	4.29
405.906	4.29
406.115	4.32
406.324	4.39
406.532	4.49
406.741	4.52
406.949	4.37
407.158	4.51
407.366	4.58
407.574	4.56
407.783	4.45
407.991	4.28
408.2	4.3
408.408	4.4
408.617	4.28
408.825	4.2
409.033	4.16
409.242	4.18
409.45	4.25
409.658	4.24
409.867	4.18
410.075	4.14
410.283	4.01
410.491	4.03
410.7	4.15
410.908	4.13
411.116	4.03
411.324	4.06
411.533	3.96
411.741	4
411.949	3.99
412.157	3.94
412.365	3.91
412.573	3.98
412.781	3.92
412.99	4.03
413.198	4.08
413.406	4.03
413.614	4.04
413.822	3.99
414.03	3.88
414.238	4.01
414.446	3.98
414.654	3.96
414.862	3.94
415.07	3.94
415.278	3.92
415.486	4.08
415.694	3.9
415.902	3.86
416.109	3.85
416.317	3.8
416.525	3.86
416.733	3.94
416.941	3.76
417.149	3.88
417.357	3.95
417.564	3.95
417.772	4.02
417.98	3.88
418.188	3.76
418.395	3.8
418.603	3.65
418.811	3.57
419.019	3.59
419.226	3.6
419.434	3.51
419.642	3.59
419.849	3.58
420.057	3.64
420.265	3.69
420.472	3.63
420.68	3.56
420.887	3.63
421.095	3.65
421.302	3.78
421.51	3.9
421.717	3.92
421.925	3.82
422.132	3.85
422.34	3.81
422.547	3.69
422.755	3.57
422.962	3.32
423.17	3.23
423.377	3.39
423.585	3.3
423.792	3.39
423.999	3.4
424.207	3.26
424.414	3.4
424.621	3.46
424.829	3.33
425.036	3.37
425.243	3.36
425.451	3.38
425.658	3.55
425.865	3.47
426.072	3.5
426.28	3.56
426.487	3.56
426.694	3.45
426.901	3.48
427.108	3.46
427.315	3.45
427.523	3.41
427.73	3.48
427.937	3.45
428.144	3.5
428.351	3.58
428.558	3.46
428.765	3.5
428.972	3.48
429.179	3.36
429.386	3.42
429.593	3.46
429.8	3.52
430.007	3.6
430.214	3.66
430.421	3.68
430.628	3.59
430.835	3.58
431.042	3.6
431.249	3.52
431.456	3.56
431.662	3.57
431.869	3.59
432.076	3.73
432.283	3.69
432.49	3.65
432.697	3.57
432.903	3.56
433.11	3.58
433.317	3.6
433.524	3.53
433.73	3.64
433.937	3.67
434.144	3.87
434.35	3.83
434.557	3.74
434.764	3.69
434.97	3.84
435.177	3.77
435.384	3.84
435.59	3.73
435.797	3.79
436.003	3.84
436.21	3.84
436.416	3.76
436.623	3.82
436.829	3.8
437.036	3.8
437.242	3.85
437.449	3.88
437.655	3.89
437.862	3.93
438.068	3.98
438.275	3.91
438.481	3.98
438.687	3.95
438.894	3.93
439.1	3.99
439.307	3.98
439.513	3.96
439.719	4.09
439.926	4.09
440.132	4.12
440.338	4.21
440.544	4.17
440.751	4.2
440.957	4.16
441.163	4.16
441.369	4.09
441.575	4.06
441.782	4.01
441.988	4.05
442.194	4.1
442.4	4.18
442.606	4.19
442.812	4.25
443.018	4.26
443.224	4.33
443.431	4.33
443.637	4.26
443.843	4.27
444.049	4.2
444.255	4.17
444.461	4.2
444.667	4.14
444.873	4.15
445.079	4.22
445.284	4.15
445.49	4.18
445.696	4.25
445.902	4.26
446.108	4.29
446.314	4.35
446.52	4.35
446.726	4.42
446.931	4.46
447.137	4.46
447.343	4.47
447.549	4.5
447.755	4.42
447.96	4.4
448.166	4.43
448.372	4.38
448.578	4.38
448.783	4.35
448.989	4.39
449.195	4.44
449.4	4.44
449.606	4.41
449.812	4.49
450.017	4.51
450.223	4.56
450.428	4.5
450.634	4.53
450.84	4.47
451.045	4.48
451.251	4.5
451.456	4.42
451.662	4.43
451.867	4.46
452.073	4.45
452.278	4.55
452.483	4.58
452.689	4.57
452.894	4.63
453.1	4.57
453.305	4.55
453.51	4.6
453.716	4.54
453.921	4.52
454.127	4.44
454.332	4.46
454.537	4.54
454.742	4.58
454.948	4.54
455.153	4.58
455.358	4.62
455.563	4.66
455.769	4.65
455.974	4.59
456.179	4.52
456.384	4.51
456.589	4.54
456.795	4.46
457	4.51
457.205	4.45
457.41	4.49
457.615	4.58
457.82	4.61
458.025	4.52
458.23	4.57
458.435	4.51
458.64	4.6
458.845	4.55
459.05	4.53
459.255	4.51
459.46	4.56
459.665	4.61
459.87	4.66
460.075	4.65
460.28	4.68
460.485	4.74
460.69	4.71
460.895	4.75
461.099	4.75
461.304	4.77
461.509	4.68
461.714	4.68
461.919	4.62
462.123	4.69
462.328	4.69
462.533	4.66
462.738	4.63
462.942	4.76
463.147	4.72
463.352	4.75
463.556	4.74
463.761	4.71
463.966	4.76
464.17	4.82
464.375	4.8
464.58	4.86
464.784	4.86
464.989	4.86
465.193	4.86
465.398	4.86
465.602	4.83
465.807	4.86
466.011	4.89
466.216	4.94
466.42	4.97
466.625	5.09
466.829	5.08
467.034	5.16
467.238	5.21
467.443	5.21
467.647	5.26
467.851	5.28
468.056	5.26
468.26	5.27
468.464	5.28
468.669	5.29
468.873	5.29
469.077	5.31
469.282	5.36
469.486	5.4
469.69	5.46
469.894	5.49
470.099	5.55
470.303	5.6
470.507	5.58
470.711	5.58
470.915	5.63
471.119	5.61
471.324	5.6
471.528	5.58
471.732	5.61
471.936	5.68
472.14	5.7
472.344	5.69
472.548	5.75
472.752	5.83
472.956	5.88
473.16	5.96
473.364	5.94
473.568	5.98
473.772	6.04
473.976	6.1
474.18	6.09
474.384	6.07
474.588	6.08
474.792	6.13
474.995	6.19
475.199	6.24
475.403	6.27
475.607	6.35
475.811	6.39
476.015	6.45
476.218	6.45
476.422	6.44
476.626	6.43
476.83	6.43
477.033	6.43
477.237	6.53
477.441	6.52
477.644	6.6
477.848	6.61
478.052	6.63
478.255	6.66
478.459	6.76
478.663	6.74
478.866	6.78
479.07	6.81
479.273	6.86
479.477	6.96
479.681	7
479.884	6.9
480.088	6.92
480.291	6.97
480.495	6.99
480.698	7
480.901	7.02
481.105	7.09
481.308	7.17
481.512	7.24
481.715	7.26
481.919	7.3
482.122	7.38
482.325	7.39
482.529	7.44
482.732	7.46
482.935	7.44
483.138	7.45
483.342	7.47
483.545	7.45
483.748	7.5
483.952	7.5
484.155	7.54
484.358	7.53
484.561	7.55
484.764	7.55
484.967	7.57
485.171	7.56
485.374	7.56
485.577	7.56
485.78	7.61
485.983	7.64
486.186	7.62
486.389	7.61
486.592	7.63
486.795	7.6
486.998	7.62
487.201	7.6
487.404	7.65
487.607	7.67
487.81	7.72
488.013	7.7
488.216	7.7
488.419	7.66
488.622	7.68
488.825	7.62
489.028	7.64
489.231	7.64
489.433	7.64
489.636	7.62
489.839	7.64
490.042	7.67
490.245	7.68
490.447	7.69
490.65	7.7
490.853	7.71
491.056	7.75
491.258	7.81
491.461	7.82
491.664	7.82
491.866	7.84
492.069	7.87
492.272	7.88
492.474	7.9
492.677	7.86
492.879	7.89
493.082	7.95
493.285	7.96
493.487	7.94
493.69	7.95
493.892	8
494.095	7.97
494.297	8.01
494.5	8.03
494.702	8.06
494.905	8.11
495.107	8.16
495.309	8.13
495.512	8.24
495.714	8.28
495.917	8.31
496.119	8.32
496.321	8.37
496.524	8.39
496.726	8.4
496.928	8.39
497.13	8.4
497.333	8.42
497.535	8.45
497.737	8.45
497.939	8.47
498.142	8.49
498.344	8.53
498.546	8.55
498.748	8.58
498.95	8.61
499.152	8.63
499.355	8.67
499.557	8.73
499.759	8.79
499.961	8.8
500.163	8.86
500.365	8.87
500.567	8.93
500.769	8.96
500.971	8.97
501.173	8.97
501.375	9
501.577	8.99
501.779	9.04
501.981	9.08
502.183	9.1
502.385	9.12
502.587	9.16
502.788	9.14
502.99	9.16
503.192	9.2
503.394	9.24
503.596	9.27
503.798	9.41
503.999	9.46
504.201	9.53
504.403	9.61
504.605	9.68
504.806	9.7
505.008	9.78
505.21	9.72
505.411	9.73
505.613	9.81
505.815	9.84
506.016	9.87
506.218	9.9
506.42	9.93
506.621	10.04
506.823	10.15
507.024	10.16
507.226	10.19
507.427	10.17
507.629	10.23
507.83	10.22
508.032	10.24
508.233	10.24
508.435	10.27
508.636	10.29
508.838	10.36
509.039	10.42
509.24	10.49
509.442	10.51
509.643	10.56
509.845	10.63
510.046	10.67
510.247	10.73
510.448	10.78
510.65	10.85
510.851	10.89
511.052	10.94
511.254	10.96
511.455	10.98
511.656	11
511.857	11.02
512.058	11.07
512.26	11.1
512.461	11.12
512.662	11.14
512.863	11.21
513.064	11.23
513.265	11.29
513.466	11.31
513.667	11.37
513.868	11.4
514.069	11.46
514.27	11.48
514.471	11.56
514.672	11.62
514.873	11.66
515.074	11.66
515.275	11.66
515.476	11.69
515.677	11.72
515.878	11.75
516.079	11.75
516.28	11.75
516.481	11.8
516.682	11.86
516.882	11.89
517.083	11.94
517.284	11.96
517.485	11.99
517.686	12.06
517.886	12.07
518.087	12.11
518.288	12.09
518.488	12.1
518.689	12.09
518.89	12.12
519.091	12.18
519.291	12.24
519.492	12.22
519.692	12.29
519.893	12.29
520.094	12.32
520.294	12.31
520.495	12.26
520.695	12.27
520.896	12.34
521.096	12.35
521.297	12.4
521.497	12.45
521.698	12.51
521.898	12.58
522.099	12.59
522.299	12.6
522.499	12.64
522.7	12.66
522.9	12.65
523.101	12.65
523.301	12.63
523.501	12.66
523.702	12.73
523.902	12.75
524.102	12.79
524.302	12.85
524.503	12.86
524.703	12.9
524.903	12.92
525.103	12.88
525.304	12.94
525.504	12.95
525.704	12.96
525.904	13
526.104	13.03
526.304	13.05
526.504	13.09
526.705	13.08
526.905	13.1
527.105	13.13
527.305	13.1
527.505	13.12
527.705	13.12
527.905	13.12
528.105	13.13
528.305	13.18
528.505	13.18
528.705	13.23
528.905	13.24
529.105	13.35
529.304	13.42
529.504	13.49
529.704	13.49
529.904	13.54
530.104	13.59
530.304	13.58
530.503	13.53
530.703	13.55
530.903	13.56
531.103	13.58
531.303	13.6
531.502	13.64
531.702	13.69
531.902	13.75
532.101	13.78
532.301	13.79
532.501	13.81
532.7	13.83
532.9	13.87
533.1	13.91
533.299	13.98
533.499	13.99
533.698	14.05
533.898	14.06
534.097	14.07
534.297	14.06
534.496	14.08
534.696	14.09
534.895	14.15
535.095	14.15
535.294	14.22
535.494	14.29
535.693	14.37
535.892	14.39
536.092	14.43
536.291	14.45
536.491	14.51
536.69	14.54
536.889	14.54
537.088	14.58
537.288	14.64
537.487	14.66
537.686	14.69
537.886	14.7
538.085	14.79
538.284	14.84
538.483	14.9
538.682	14.94
538.882	15.01
539.081	15.05
539.28	15.11
539.479	15.14
539.678	15.2
539.877	15.21
540.076	15.24
540.275	15.25
540.474	15.31
540.673	15.37
540.872	15.43
541.071	15.48
541.27	15.5
541.469	15.58
541.668	15.66
541.867	15.73
542.066	15.83
542.265	15.88
542.464	15.94
542.663	16.09
542.862	16.14
543.06	16.22
543.259	16.26
543.458	16.26
543.657	16.28
543.856	16.35
544.054	16.37
544.253	16.41
544.452	16.41
544.651	16.46
544.849	16.5
545.048	16.56
545.247	16.6
545.445	16.63
545.644	16.72
545.843	16.83
546.041	16.93
546.24	17.04
546.438	17.15
546.637	17.24
546.836	17.33
547.034	17.37
547.233	17.43
547.431	17.5
547.63	17.59
547.828	17.68
548.027	17.7
548.225	17.76
548.423	17.86
548.622	17.96
548.82	18.05
549.019	18.12
549.217	18.22
549.415	18.34
549.614	18.41
549.812	18.53
550.01	18.6
550.209	18.7
550.407	18.8
550.605	18.89
550.803	19
551.002	19.12
551.2	19.22
551.398	19.36
551.596	19.41
551.794	19.52
551.993	19.62
552.191	19.75
552.389	19.89
552.587	19.96
552.785	20.09
552.983	20.22
553.181	20.29
553.379	20.38
553.577	20.49
553.775	20.6
553.973	20.72
554.171	20.79
554.369	20.88
554.567	21.02
554.765	21.12
554.963	21.22
555.161	21.31
555.359	21.42
555.557	21.53
555.755	21.68
555.952	21.75
556.15	21.91
556.348	22.02
556.546	22.12
556.744	22.24
556.941	22.36
557.139	22.51
557.337	22.66
557.535	22.8
557.732	22.97
557.93	23.11
558.128	23.22
558.325	23.32
558.523	23.42
558.721	23.55
558.918	23.64
559.116	23.74
559.313	23.93
559.511	24.09
559.708	24.23
559.906	24.35
560.104	24.52
560.301	24.63
560.498	24.73
560.696	24.79
560.893	24.91
561.091	25.05
561.288	25.19
561.486	25.31
561.683	25.48
561.88	25.62
562.078	25.81
562.275	25.97
562.473	26.13
562.67	26.31
562.867	26.44
563.064	26.61
563.262	26.82
563.459	26.94
563.656	27.11
563.853	27.28
564.051	27.38
564.248	27.51
564.445	27.61
564.642	27.73
564.839	27.91
565.036	28.06
565.234	28.2
565.431	28.34
565.628	28.49
565.825	28.67
566.022	28.76
566.219	28.86
566.416	28.93
566.613	29.08
566.81	29.19
567.007	29.33
567.204	29.41
567.401	29.59
567.598	29.73
567.795	29.87
567.991	29.95
568.188	30.06
568.385	30.19
568.582	30.33
568.779	30.41
568.976	30.49
569.172	30.64
569.369	30.77
569.566	30.91
569.763	31
569.96	31.06
570.156	31.1
570.353	31.24
570.55	31.28
570.746	31.31
570.943	31.39
571.14	31.47
571.336	31.54
571.533	31.69
571.729	31.71
571.926	31.8
572.123	31.87
572.319	31.98
572.516	32.01
572.712	32.1
572.909	32.17
573.105	32.26
573.302	32.34
573.498	32.44
573.695	32.46
573.891	32.57
574.087	32.62
574.284	32.61
574.48	32.65
574.677	32.59
574.873	32.65
575.069	32.71
575.266	32.71
575.462	32.74
575.658	32.85
575.854	32.93
576.051	33.05
576.247	32.99
576.443	33
576.639	33.06
576.835	33.11
577.032	33.1
577.228	33.11
577.424	33.13
577.62	33.26
577.816	33.28
578.012	33.31
578.208	33.29
578.404	33.32
578.6	33.32
578.796	33.32
578.993	33.34
579.189	33.32
579.384	33.27
579.58	33.3
579.776	33.25
579.972	33.27
580.168	33.22
580.364	33.22
580.56	33.26
580.756	33.27
580.952	33.29
581.148	33.35
581.343	33.36
581.539	33.41
581.735	33.34
581.931	33.36
582.127	33.38
582.322	33.36
582.518	33.31
582.714	33.27
582.909	33.25
583.105	33.22
583.301	33.18
583.496	33.08
583.692	33.06
583.888	33.01
584.083	33
584.279	33.05
584.474	33.06
584.67	33.02
584.866	33.1
585.061	33.15
585.257	33.22
585.452	33.22
585.648	33.18
585.843	33.18
586.039	33.18
586.234	33.17
586.429	33.15
586.625	33.1
586.82	33.09
587.015	33.06
587.211	33.14
587.406	33.2
587.601	33.22
587.797	33.16
587.992	33.23
588.187	33.21
588.383	33.26
588.578	33.21
588.773	33.23
588.968	33.29
589.163	33.4
589.359	33.36
589.554	33.44
589.749	33.44
589.944	33.49
590.139	33.5
590.334	33.49
590.529	33.55
590.724	33.63
590.919	33.73
591.114	33.8
591.309	33.83
591.504	33.89
591.699	33.89
591.894	33.92
592.089	34.02
592.284	33.98
592.479	34.03
592.674	34.14
592.869	34.25
593.064	34.42
593.259	34.46
593.454	34.47
593.648	34.52
593.843	34.56
594.038	34.62
594.233	34.68
594.428	34.74
594.622	34.78
594.817	34.87
595.012	34.99
595.206	35.14
595.401	35.21
595.596	35.3
595.79	35.34
595.985	35.54
596.18	35.64
596.374	35.78
596.569	35.83
596.763	36.02
596.958	36.07
597.153	36.11
597.347	36.21
597.542	36.32
597.736	36.36
597.931	36.45
598.125	36.45
598.319	36.58
598.514	36.64
598.708	36.69
598.903	36.79
599.097	36.91
599.291	36.97
599.486	37.05
599.68	37.06
599.874	37.18
600.069	37.24
600.263	37.21
600.457	37.25
600.651	37.33
600.846	37.38
601.04	37.49
601.234	37.61
601.428	37.56
601.622	37.64
601.817	37.71
602.011	37.77
602.205	37.83
602.399	37.82
602.593	37.78
602.787	37.92
602.981	37.95
603.175	37.9
603.369	37.89
603.563	37.94
603.757	37.95
603.951	37.98
604.145	37.93
604.339	37.93
604.533	38
604.727	38.01
604.921	37.9
605.115	37.83
605.309	37.83
605.502	37.85
605.696	37.81
605.89	37.76
606.084	37.7
606.278	37.66
606.471	37.68
606.665	37.61
606.859	37.49
607.053	37.45
607.246	37.43
607.44	37.33
607.634	37.31
607.827	37.22
608.021	37.13
608.214	37.09
608.408	37
608.602	36.97
608.795	36.92
608.989	36.9
609.182	36.88
609.376	36.77
609.569	36.69
609.763	36.7
609.956	36.6
610.15	36.49
610.343	36.4
610.537	36.32
610.73	36.33
610.923	36.24
611.117	36.05
611.31	35.92
611.504	35.87
611.697	35.76
611.89	35.64
612.083	35.47
612.277	35.35
612.47	35.26
612.663	35.19
612.856	35.09
613.05	34.97
613.243	34.86
613.436	34.81
613.629	34.78
613.822	34.72
614.015	34.62
614.209	34.63
614.402	34.58
614.595	34.54
614.788	34.42
614.981	34.35
615.174	34.31
615.367	34.25
615.56	34.09
615.753	33.97
615.946	33.94
616.139	33.93
616.332	33.83
616.525	33.77
616.718	33.71
616.911	33.69
617.103	33.69
617.296	33.58
617.489	33.54
617.682	33.51
617.875	33.43
618.067	33.33
618.26	33.28
618.453	33.16
618.646	33.15
618.838	33.08
619.031	33.04
619.224	32.99
619.417	32.99
619.609	32.9
619.802	32.9
619.994	32.82
620.187	32.76
620.38	32.7
620.572	32.68
620.765	32.64
620.957	32.58
621.15	32.52
621.342	32.5
621.535	32.48
621.727	32.45
621.92	32.44
622.112	32.43
622.305	32.39
622.497	32.33
622.69	32.27
622.882	32.26
623.074	32.23
623.267	32.16
623.459	32.14
623.651	32.14
623.844	32.18
624.036	32.19
624.228	32.16
624.42	32.18
624.613	32.14
624.805	32.06
624.997	32.05
625.189	32
625.381	31.99
625.574	31.89
625.766	31.82
625.958	31.78
626.15	31.81
626.342	31.77
626.534	31.68
626.726	31.65
626.918	31.6
627.11	31.57
627.302	31.51
627.494	31.46
627.686	31.41
627.878	31.43
628.07	31.36
628.262	31.29
628.454	31.26
628.646	31.24
628.838	31.15
629.029	31.06
629.221	31.01
629.413	30.99
629.605	30.99
629.797	30.93
629.989	30.87
630.18	30.77
630.372	30.8
630.564	30.8
630.755	30.7
630.947	30.63
631.139	30.6
631.33	30.58
631.522	30.6
631.714	30.55
631.905	30.47
632.097	30.46
632.289	30.43
632.48	30.35
632.672	30.28
632.863	30.22
633.055	30.2
633.246	30.22
633.438	30.21
633.629	30.25
633.821	30.27
634.012	30.27
634.203	30.3
634.395	30.27
634.586	30.17
634.777	30.1
634.969	30.02
635.16	29.98
635.351	29.98
635.543	29.92
635.734	29.84
635.925	29.89
636.117	29.88
636.308	29.86
636.499	29.83
636.69	29.88
636.881	29.88
637.073	29.89
637.264	29.88
637.455	29.89
637.646	29.95
637.837	29.94
638.028	29.92
638.219	29.91
638.41	29.95
638.601	29.92
638.792	29.9
638.983	29.76
639.174	29.79
639.365	29.67
639.556	29.61
639.747	29.61
639.938	29.62
640.129	29.59
640.32	29.64
640.511	29.6
640.701	29.59
640.892	29.56
641.083	29.48
641.274	29.48
641.465	29.5
641.655	29.47
641.846	29.38
642.037	29.33
642.228	29.29
642.418	29.24
642.609	29.16
642.8	29.1
642.99	29.18
643.181	29.28
643.372	29.31
643.562	29.31
643.753	29.32
643.943	29.22
644.134	29.21
644.324	29.09
644.515	29.04
644.705	29
644.896	28.97
645.086	28.92
645.277	29.03
645.467	28.98
645.658	28.96
645.848	28.89
646.038	28.87
646.229	28.88
646.419	28.88
646.61	28.75
646.8	28.75
646.99	28.72
647.18	28.63
647.371	28.6
647.561	28.58
647.751	28.56
647.941	28.52
648.132	28.46
648.322	28.43
648.512	28.43
648.702	28.41
648.892	28.38
649.082	28.33
649.272	28.32
649.462	28.33
649.653	28.33
649.843	28.29
650.033	28.27
650.223	28.19
650.413	28.19
650.603	28.2
650.793	28.11
650.983	28.03
651.172	28.03
651.362	27.92
651.552	27.84
651.742	27.75
651.932	27.62
652.122	27.57
652.312	27.46
652.502	27.35
652.691	27.29
652.881	27.28
653.071	27.11
653.261	27.05
653.45	27
653.64	26.99
653.83	26.88
654.019	26.75
654.209	26.65
654.399	26.57
654.588	26.4
654.778	26.17
654.968	25.92
655.157	25.71
655.347	25.5
655.536	25.22
655.726	25.04
655.915	24.81
656.105	24.69
656.294	24.49
656.484	24.34
656.673	24.14
656.863	23.92
657.052	23.67
657.241	23.48
657.431	23.2
657.62	22.93
657.809	22.64
657.999	22.46
658.188	22.24
658.377	22.03
658.567	21.75
658.756	21.51
658.945	21.29
659.134	21.07
659.324	20.74
659.513	20.48
659.702	20.18
659.891	19.91
660.08	19.7
660.269	19.44
660.458	19.27
660.648	19.06
660.837	18.87
661.026	18.69
661.215	18.47
661.404	18.24
661.593	18
661.782	17.71
661.971	17.43
662.16	17.15
662.349	16.89
662.538	16.72
662.726	16.42
662.915	16.27
663.104	16.02
663.293	15.83
663.482	15.6
663.671	15.44
663.86	15.22
664.048	15.05
664.237	14.81
664.426	14.71
664.615	14.52
664.803	14.36
664.992	14.19
665.181	14.02
665.369	13.82
665.558	13.71
665.747	13.56
665.935	13.51
666.124	13.42
666.312	13.23
666.501	13.07
666.69	13.01
666.878	12.9
667.067	12.78
667.255	12.69
667.444	12.6
667.632	12.55
667.82	12.49
668.009	12.48
668.197	12.36
668.386	12.27
668.574	12.11
668.762	11.98
668.951	11.9
669.139	11.9
669.327	11.79
669.516	11.79
669.704	11.77
669.892	11.8
670.08	11.79
670.269	11.77
670.457	11.71
670.645	11.74
670.833	11.74
671.021	11.68
671.21	11.64
671.398	11.68
671.586	11.76
671.774	11.82
671.962	11.79
672.15	11.8
672.338	11.93
672.526	11.96
672.714	12
672.902	11.98
673.09	12.04
673.278	12.07
673.466	12.15
673.654	12.18
673.842	12.28
674.03	12.33
674.218	12.39
674.405	12.48
674.593	12.55
674.781	12.59
674.969	12.67
675.157	12.74
675.344	12.86
675.532	12.99
675.72	13.07
675.908	13.17
676.095	13.36
676.283	13.36
676.471	13.43
676.658	13.5
676.846	13.66
677.033	13.79
677.221	13.86
677.409	13.93
677.596	14.18
677.784	14.34
677.971	14.49
678.159	14.58
678.346	14.68
678.534	14.86
678.721	15.01
678.909	15.12
679.096	15.34
679.283	15.54
679.471	15.74
679.658	16.01
679.846	16.25
680.033	16.52
680.22	16.69
680.408	16.83
680.595	16.97
680.782	17.13
680.969	17.25
681.157	17.41
681.344	17.59
681.531	17.84
681.718	18.14
681.905	18.39
682.093	18.63
682.28	18.98
682.467	19.26
682.654	19.45
682.841	19.75
683.028	20.02
683.215	20.36
683.402	20.63
683.589	20.85
683.776	21.19
683.963	21.54
684.15	21.87
684.337	22.16
684.524	22.5
684.711	22.86
684.898	23.25
685.085	23.7
685.271	24.16
685.458	24.64
685.645	25.16
685.832	25.67
686.019	26.23
686.205	26.66
686.392	27.06
686.579	27.52
686.766	27.92
686.952	28.41
687.139	28.81
687.326	29.35
687.512	29.89
687.699	30.47
687.886	31.05
688.072	31.69
688.259	32.27
688.445	32.86
688.632	33.43
688.818	34.08
689.005	34.75
689.191	35.4
689.378	36.02
689.564	36.64
689.751	37.35
689.937	37.89
690.124	38.56
690.31	39.1
690.496	39.69
690.683	40.37
690.869	40.97
691.055	41.88
691.242	42.58
691.428	43.26
691.614	44.04
691.8	44.71
691.987	45.42
692.173	46.27
692.359	46.83
692.545	47.61
692.731	48.29
692.918	49
693.104	49.76
693.29	50.59
693.476	50.99
693.662	51.61
693.848	52.19
694.034	52.78
694.22	53.45
694.406	54.15
694.592	54.49
694.778	55.28
694.964	55.88
695.15	56.61
695.336	57.31
695.522	57.91
695.708	58.6
695.894	59.33
696.08	59.99
696.265	60.65
696.451	61.18
696.637	61.89
696.823	62.46
697.009	62.78
697.194	63.38
697.38	63.72
697.566	64.09
697.751	64.69
697.937	65.14
698.123	65.59
698.308	66.07
698.494	66.39
698.68	67.11
698.865	67.68
699.051	68.18
699.236	68.52
699.422	69.02
699.607	69.42
699.793	69.98
699.978	70.18
700.164	70.64
700.349	70.88
700.535	71.33
700.72	71.69
700.906	72.14
701.091	72.3
701.276	72.76
701.462	73.16
701.647	73.56
701.832	73.88
702.018	74.26
702.203	74.57
702.388	74.84
702.573	75.33
702.759	75.6
702.944	75.84
703.129	76.1
703.314	76.19
703.499	76.5
703.684	77.11
703.87	77.23
704.055	77.32
704.24	77.61
704.425	78.03
704.61	78.37
704.795	78.58
704.98	78.73
705.165	78.91
705.35	79.3
705.535	79.68
705.72	79.75
705.905	79.82
706.09	80.05
706.275	80.14
706.459	80.31
706.644	80.31
706.829	80.36
707.014	80.48
707.199	80.7
707.384	80.9
707.568	81.33
707.753	81.68
707.938	81.91
708.123	81.87
708.307	82.34
708.492	82.51
708.677	82.61
708.861	82.57
709.046	82.29
709.231	82.38
709.415	82.83
709.6	82.6
709.784	82.73
709.969	82.75
710.153	83.15
710.338	83.48
710.522	83.7
710.707	83.22
710.891	83.37
711.076	83.47
711.26	83.71
711.445	83.39
711.629	83.54
711.813	83.46
711.998	83.8
712.182	84.16
712.366	84.5
712.551	84.6
712.735	84.6
712.919	84.98
713.103	85.14
713.288	85.66
713.472	85.31
713.656	85.01
713.84	85.11
714.024	85.37
714.208	85.03
714.393	85.27
714.577	85.01
714.761	85.44
714.945	85.66
715.129	85.61
715.313	85.78
715.497	86.14
715.681	86.13
715.865	86.38
716.049	86.35
716.233	86.61
716.417	87
716.601	86.91
716.785	86.9
716.968	86.87
717.152	86.98
717.336	87.15
717.52	86.91
717.704	87.04
717.888	87.28
718.071	87.38
718.255	87.53
718.439	87.22
718.622	87.19
718.806	87.14
718.99	87.11
719.174	87.08
719.357	86.94
719.541	87.12
719.724	87.35
719.908	87.67
720.092	88.01
720.275	88.02
720.459	87.91
720.642	88.02
720.826	87.84
721.009	87.9
721.193	87.41
721.376	87.36
721.559	87.21
721.743	87.32
721.926	87.18
722.11	87.3
722.293	87.08
722.476	87.21
722.66	87.47
722.843	87.65
723.026	87.61
723.21	87.91
723.393	88.25
723.576	88.45
723.759	88.5
723.942	88.51
724.126	88.61
724.309	89.03
724.492	89.28
724.675	88.95
724.858	89.17
725.041	89.31
725.224	89.74
725.407	89.51
725.59	89.22
725.774	89.1
725.957	89.41
726.14	89.54
726.322	89.49
726.505	89.28
726.688	89.41
726.871	89.86
727.054	90.25
727.237	89.89
727.42	90.13
727.603	90.2
727.786	90.31
727.968	90.6
728.151	90.78
728.334	90.52
728.517	90.8
728.699	90.94
728.882	91.31
729.065	91.16
729.248	91.21
729.43	90.94
729.613	91.31
729.796	91.37
729.978	91.3
730.161	91.29
730.343	91.56
730.526	91.49
730.708	91.91
730.891	91.59
731.073	91.72
731.256	92.02
731.438	92.06
731.621	92.08
731.803	92.48
731.986	92.34
732.168	92.51
732.35	92.82
732.533	92.77
732.715	93.12
732.898	93.07
733.08	93.39
733.262	93.26
733.444	93.5
733.627	93.69
733.809	93.74
733.991	94.1
734.173	94.25
734.355	93.9
734.538	93.98
734.72	94.02
734.902	93.63
735.084	94.03
735.266	93.56
735.448	93.87
735.63	93.6
735.812	94.1
735.994	94.11
736.176	94.7
736.358	94.47
736.54	94.23
736.722	94.07
736.904	94.17
737.086	94.14
737.268	94.52
737.45	94.65
737.632	93.98
737.814	94.21
737.995	94
738.177	94.65
738.359	94.88
738.541	94.39
738.723	94.21
738.904	94.46
739.086	95.05
739.268	95.83
739.449	95.67
739.631	95.71
739.813	95.86
739.994	96.23
740.176	96.68
740.358	96.31
740.539	95.89
740.721	95.85
740.902	95.38
741.084	95.45
741.265	95.21
741.447	94.82
741.628	94.8
741.81	95
741.991	95.4
742.172	95.21
742.354	95.89
742.535	96.02
742.717	96.16
742.898	96.56
743.079	96.41
743.261	96.32
743.442	97.26
743.623	96.5
743.804	96.38
743.986	96.28
744.167	96.11
744.348	96.17
744.529	95.88
744.71	94.55
744.891	94.7
745.073	94.39
745.254	94.33
745.435	93.89
745.616	93.94
745.797	93.67
745.978	94.76
746.159	94.59
746.34	95.47
746.521	96.06
746.702	96.29
746.883	96.31
747.064	96.23
747.245	96.74
747.426	96.87
747.606	96.15
747.787	96.48
747.968	96.65
748.149	96.54
748.33	97.25
748.51	96.34
748.691	96.92
748.872	96.92
749.053	96.26
749.233	95.89
749.414	95.9
749.595	95.17
749.775	94.92
749.956	93.98
750.137	93.99
750.317	94.24
750.498	94.91
750.678	94.42
750.859	94.54
751.04	95.05
751.22	95.27
751.4	95.38
751.581	96.13
751.761	95.72
751.942	95.76
752.122	96.15
752.303	95.48
752.483	96.21
752.663	96.6
752.844	95.06
753.024	95.39
753.204	95.62
753.385	94.73
753.565	94.7
753.745	94.02
753.925	93.44
754.106	93.47
754.286	92.66
754.466	93.24
754.646	93.26
754.826	93.94
755.006	93.91
755.187	94.24
755.367	95.21
755.547	95.33
755.727	94.71
755.907	95.85
756.087	95.58
756.267	95.68
756.447	95
756.627	94.12
756.807	94.9
756.987	95.75
757.167	95.22
757.346	94.41
757.526	94.29
757.706	94.74
757.886	95.15
758.066	94.31
758.246	93.75
758.425	93.29
758.605	94.22
758.785	94.76
758.965	94.03
759.144	93.94
759.324	94.68
759.504	94.67
759.683	95.02
759.863	94.28
760.043	93.96
760.222	93.82
760.402	94.79
760.581	94.19
760.761	93.32
760.94	93.27
761.12	93.48
761.299	92.91
761.479	93.86
761.658	93
761.838	93.06
762.017	93.71
762.197	94.08
762.376	94.11
762.555	93.99
762.735	91.98
762.914	92.37
763.093	92.03
763.273	91.43
763.452	90.5
763.631	89.12
763.81	90.12
763.99	91.84
764.169	91.37
764.348	91.9
764.527	92.13
764.706	92.72
764.885	94.06
765.064	92.89
765.243	92.36
765.423	92.65
765.602	91.07
765.781	90.68
765.96	90.75
766.139	90.14
766.318	91.53
766.497	91.99
766.676	91.63
766.854	92.02
767.033	92.25
767.212	90.98
767.391	91.03
767.57	90.35
767.749	90.13
767.928	89.76
768.106	90.23
768.285	90.54
768.464	92.32
768.643	93.5
768.821	93.02
769	94.3
769.179	93.24
769.357	93.34
769.536	93.25
769.715	92.47
769.893	91.34
770.072	91.05
770.25	89.18
770.429	90.48
770.607	91.04
770.786	90.28
770.964	90.5
771.143	90.89
771.321	90.71
771.5	89.66
771.678	89.36
771.857	87.81
772.035	87.6
772.213	87.09
772.392	87.04
772.57	87.55
772.748	88.37
772.927	87.52
773.105	89.08
773.283	89.08
773.461	88.91
773.64	88.45
773.818	88.23
773.996	88.45
774.174	89.43
774.352	88.88
774.531	88.08
774.709	88.49
774.887	87.93
775.065	88.23
775.243	89.52
775.421	88.75
775.599	87.64
775.777	89.35
775.955	88.87
776.133	88.95
776.311	87.55
776.489	86.25
776.667	86.1
776.844	86.71
777.022	86.03
777.2	86.3
777.378	87.83
777.556	90.25
777.734	90.52
777.911	91.96
778.089	91.47
778.267	91.34
778.445	89.95
778.622	87.9
778.8	86.33
778.978	86.76
779.155	84.95
779.333	83.71
779.511	84.37
779.688	84.03
779.866	83.93
780.043	84.34
780.221	83.27
780.398	84.79
780.576	85.94
780.753	84.62
780.931	86.6
781.108	88.37
781.286	86.98
781.463	87.67
781.64	86.07
781.818	86.99
781.995	88.41
782.172	87.82
782.35	85.94
782.527	87.43
782.704	86.7
782.882	88.16
783.059	87.4
783.236	86.61
783.413	87.08
783.59	85.89
783.768	84.88
783.945	86.07
784.122	85.09
784.299	85.62
784.476	85.64
784.653	83.38
784.83	84.01
785.007	85.48
785.184	84.79
785.361	84.4
785.538	82.74
785.715	82.06
785.892	82.45
786.069	83.85
786.246	81.04
786.423	80.87
786.6	81.41
786.776	81.59
786.953	82.89
787.13	84.48
787.307	83.86
787.484	85.36
787.66	85.35
787.837	84.51
788.014	84.98
788.191	82.54
788.367	80.43
788.544	81.35
788.721	80.91
788.897	82.46
789.074	83.54
789.25	84.29
789.427	85.96
789.603	89.77
789.78	90.47
789.956	90.82
790.133	89.03
790.309	87.79
790.486	89.59
790.662	90.05
790.839	90.28
791.015	90.05
791.192	89.81
791.368	91.12
791.544	93.21
791.721	89.64
791.897	89.92
792.073	85.46
792.249	85.41
792.426	85.43
792.602	83.03
792.778	80.6
792.954	80.41
793.13	79.31
793.307	78.03
793.483	77.49
793.659	78.07
793.835	77.58
794.011	76.39
794.187	73.53
794.363	74.07
794.539	76.29
794.715	75.84
794.891	74.31
795.067	75.61
795.243	77.86
795.419	82.4
795.595	82.85
795.771	85.57
795.947	85.55
796.122	86.42
796.298	85.63
796.474	86.49
796.65	86.47
796.826	87.69
797.001	86.37
797.177	89.59
797.353	92.36
797.529	93.34
797.704	92.9
797.88	90.37
798.056	90.55
798.231	86.89
798.407	83.27
798.582	82.18
798.758	82.98
798.934	82.41
799.109	82.87
799.285	82.09
799.46	84.98
799.636	86.95
799.811	86.15
799.986	84.9
800.162	86.68
800.337	87.61
800.513	87.77
800.688	88.67
800.863	89.68
801.039	86.08
801.214	84.53
801.389	81.81
801.565	83.41
801.74	80.62
801.915	79.62
802.09	75.37
802.265	79.04
802.441	78.33
802.616	76.75
802.791	76.45
802.966	77.22
803.141	71.85
803.316	73.17
803.491	71.02
803.666	73.74
803.841	75.89
804.016	76.74
804.191	75.93
804.366	79.72
804.541	78.98
804.716	74.59
804.891	76.49
805.066	76.52
805.241	73.71
805.416	75.63
805.591	78.43
805.765	81.06
805.94	87.5
806.115	81.65
806.29	82.24
806.464	83.6
806.639	84.89
806.814	79.81
806.989	76.38
807.163	75.02
807.338	76.56
807.512	72.77
807.687	70.91
807.862	69.88
808.036	71.54
808.211	77.2
808.385	76.64
808.56	82.05
808.734	83.41
808.909	82.42
809.083	79.19
809.258	87.67
809.432	81.67
809.606	82.21
809.781	80.57
809.955	86.06
810.13	88.26
810.304	87.05
810.478	80.02
810.652	81.26
810.827	81.71
811.001	79.66
811.175	73.69
811.349	74.51
811.524	74.48
811.698	74.01
811.872	77.72
812.046	74.47
812.22	73.28
812.394	74.6
812.568	78.72
812.742	79.86
812.916	77.67
813.09	73.73
813.264	78.34
813.438	84.68
813.612	77.92
813.786	74.71
813.96	78.88
814.134	79.96
814.308	78.71
814.482	77.78
814.656	77.61
814.83	84.4
815.003	84.19
815.177	85.43
815.351	86.6
815.525	84.35
815.698	75.76
815.872	71.63
816.046	71.08
816.219	72.46
816.393	62.01
816.567	61.85
816.74	66.64
816.914	75.63
817.088	71.57
817.261	74.37
817.435	67.98
817.608	72.44
817.782	75.08
817.955	68.61
818.129	70.21
818.302	77.98
818.475	74.34
818.649	71.21
818.822	73.6
818.996	71.05
819.169	75.7
819.342	71.84
819.516	72.02
819.689	76.23
819.862	78.52
820.035	74.45
820.209	71.71
820.382	71.32
820.555	76.33
820.728	63.2
820.901	59.81
821.075	63.54
821.248	63.19
821.421	59.82
821.594	60.05
821.767	57.37
821.94	61.84
822.113	63.35
822.286	64.14
822.459	75.2
822.632	78.53
822.805	75.18
822.978	69.8
823.151	70.25
823.324	61.09
823.496	52.57
823.669	47.78
823.842	54.41
824.015	57.11
824.188	62.86
824.361	68.16
824.533	77.76
824.706	93.09
824.879	88.52
825.051	87.78
825.224	86.31
825.397	79.75
825.569	82.16
825.742	76.16
825.915	70.53
826.087	69.26
826.26	66.56
826.432	71.74
826.605	73.68
826.777	69.94
826.95	71.15
827.122	70.23
827.295	76.55
827.467	71.03
827.64	59.75
827.812	60.06
827.984	61.61
828.157	64.76
828.329	67.71
828.501	66.4
828.674	65.03
828.846	66.09
829.018	57.89
829.19	57.29
829.363	57.72
829.535	53.82
829.707	46.72
829.879	51.74
830.051	52
830.223	51.32
830.395	47.2
830.568	45.62
830.74	49.71
830.912	52.72
831.084	44.6
831.256	41.17
831.428	46.06
831.6	49.42
831.772	49.09
831.943	53.26
832.115	56.74
832.287	54.06
832.459	64.93
832.631	74.56
832.803	80.34
832.975	81.52
833.146	74.13
833.318	76.44
833.49	89.18
833.662	77.9
833.833	81.17
834.005	78.04
834.177	75.39
834.348	67.52
834.52	62.95
834.692	70.85
834.863	82.78
835.035	67.66
835.206	66.35
835.378	71.17
835.549	80.27
835.721	77.92
835.892	73.28
836.064	68.27
836.235	79.22
836.407	76.37
836.578	74.36
836.749	76.24
836.921	76.95
837.092	78.48
837.264	72.3
837.435	53.07
837.606	68.92
837.777	65.64
837.949	59.82
838.12	53.23
838.291	57.77
838.462	68.83
838.633	80.84
838.805	61.12
838.976	61.48
839.147	51.43
839.318	48.16
839.489	44.64
839.66	39.88
839.831	27.29
840.002	27.31
840.173	33.02
840.344	47.7
840.515	57.61
840.686	60.97
840.857	54.55
841.028	63.13
841.199	78.61
841.369	64.72
841.54	68.21
841.711	75.62
841.882	68.14
842.053	79.9
842.223	76.63
842.394	59.02
842.565	73.19
842.736	79.57
842.906	70.73
843.077	67.43
843.248	79.35
843.418	78.26
843.589	82.32
843.759	85.75
843.93	87.1
844.101	83.61
844.271	93.72
844.442	86.01
844.612	86.54
844.783	65.56
844.953	54.02
845.123	50.27
845.294	49.1
845.464	41.57
845.635	38.38
845.805	51.31
845.975	54.93
846.146	51.08
846.316	50.72
846.486	65.62
846.656	69.96
846.827	61.21
846.997	64.49
847.167	67.43
847.337	72.7
847.507	73.47
847.677	76.32
847.848	84.57
848.018	92.16
848.188	76.26
848.358	83.51
848.528	85.44
848.698	63.28
848.868	40.68
849.038	34.11
849.208	39.53
849.378	38.59
849.548	54.44
849.718	52.64
849.887	56.88
850.057	60.71
850.227	54.41
850.397	48.25
850.567	77.57
850.737	57.31
850.906	62.11
851.076	62.33
851.246	76.86
851.415	70.67
851.585	65.63
851.755	63.92
851.924	75.28
852.094	77.59
852.264	81.7
852.433	65.94
852.603	84.82
852.772	85.12
852.942	59.75
853.111	60.89
853.281	54.76
853.45	52.63
853.62	54.66
853.789	50.33
853.959	42.05
854.128	32.58
854.297	19.43
854.467	24.68
854.636	28.97
854.805	34.34
854.975	26.68
855.144	42.37
855.313	66.92
855.482	63.95
855.652	59.65
855.821	62.2
855.99	59.42
856.159	66.93
856.328	57.93
856.497	47.68
856.667	55.21
856.836	44.19
857.005	34.5
857.174	42.36
857.343	40.49
857.512	33.38
857.681	28.82
857.85	28.34
858.019	44.39
858.188	42.21
858.356	15.77
858.525	26.27
858.694	43.35
858.863	36.72
859.032	17.21
859.201	-3.99
859.369	14.99
859.538	23.25
859.707	24.32
859.876	32.93
860.044	53.18
860.213	70.84
860.382	76.89
860.55	96.98
860.719	88.33
860.888	78.33
861.056	61.59
861.225	63.67
861.393	67.07
861.562	48.05
861.73	25.03
861.899	5.2
862.067	37.43
862.236	34.18
862.404	22.38
862.572	18.75
862.741	11.3
862.909	14.92
863.078	19.53
863.246	-6.11
863.414	10.92
863.582	13.01
863.751	8.04
863.919	23.54
864.087	22.9
864.255	36.09
864.424	33.67
864.592	29.37
864.76	45.22
864.928	51.58
865.096	43.71
865.264	57.45
865.432	53.28
865.6	54.71
865.768	37.04
865.936	23.91
866.104	36.64
866.272	34.82
866.44	-41.77
866.608	-38.65
866.776	-6.08
866.944	6.55
867.112	-23.29
867.28	-89.25
867.448	-21.43
867.615	27.23
867.783	17.31
867.951	14.23
868.119	9.62
868.286	24.56
868.454	42.84
868.622	19.03
868.789	17.62
868.957	34.98
869.125	31.45
869.292	45.17
869.46	49.06
869.627	41.29
869.795	40.95
869.963	28.48
870.13	36.84
870.298	24.63
870.465	-27.63
870.632	-23.3
870.8	-12.11
870.967	4.29
871.135	15.06
871.302	15.28
871.469	25.87
871.637	31.63
871.804	35.97
871.971	39.72
872.139	37.31
872.306	37.02
872.473	6.59
872.64	2.75
872.807	23.22
872.975	34.3
873.142	12.6
873.309	28.1
873.476	53.88
873.643	95.99
873.81	54.48
873.977	71.11
874.144	14.33
874.311	22.98
874.478	-21.39
874.645	-26.99
874.812	25.87
874.979	21.52
875.146	-34.66
875.313	-36.72
875.48	15.93
875.647	25.84
875.813	32.93
875.98	-22.82
876.147	42.64
876.314	34.07
876.481	32.63
876.647	46.73
876.814	52.3
876.981	53.23
877.147	46.98
877.314	32.26
877.481	51.36
877.647	50.19
877.814	34.47
877.98	36.98
878.147	37.97
878.314	49.49
878.48	58.92
878.647	56.78
878.813	49.58
878.979	54.4
879.146	40.09
879.312	33.8
879.479	52.61
879.645	13.39
879.811	-0.13
879.978	3.4
880.144	-5.6
880.31	-36.15
880.477	-82.68
880.643	-262.06
880.809	-50.16
880.975	-44.99
881.142	1.81
881.308	-10.91
881.474	62.6
881.64	81.77
881.806	53.45
881.972	90.26
882.138	86.91
882.304	-3.24
882.47	7.51
882.636	-49.79
882.802	-82.45
882.968	-144.88
883.134	-355.83
883.3	-165.15
883.466	7.85
883.632	3.31
883.798	32.62
883.964	14.24
884.129	26.88
884.295	14.73
884.461	6.93
884.627	-20.77
884.793	42.31
884.958	36.3
885.124	44.49
885.29	52.79
885.455	48.69
885.621	45.7
885.787	27.39
885.952	4.11
886.118	17.49
886.283	41.37
886.449	6.67
886.614	22.54
886.78	28.78
886.945	-7.21
887.111	-19.62
887.276	-36.58
887.442	-25.2
887.607	-46.57
887.773	-43.84
887.938	-62.02
888.103	21.1
888.269	17.77
888.434	13.66
888.599	18.35
888.764	39.43
888.93	65.95
889.095	47.96
889.26	63.68
889.425	118.1
889.59	104.92
889.756	91.36
889.921	71.82
890.086	69.2
890.251	83.4
890.416	18.38
890.581	-5.28
890.746	-11.5
890.911	-51.25
891.076	-88.78
891.241	-141.65
891.406	-51.82
891.571	-22.41
891.736	-38.54
891.901	-17.27
892.065	9.05
892.23	35.33
892.395	9.53
892.56	8.34
892.725	24.88
892.889	14.31
893.054	-19.14
893.219	-5.19
893.384	-21.4
893.548	116.67
893.713	-88.12
893.878	77.72
