Data from Ofra_PS_T2_2A_4HS13_Reflection_2.txt Node
Date: Wed Jul 21 17:12:36 EDT 2021
User: Adam
Spectrometer: FLMT01687
Trigger mode: 0
Integration Time (sec): 1.100000E0
Scans to average: 2
Electric dark correction enabled: true
Nonlinearity correction enabled: false
Boxcar width: 2
XAxis mode: Wavelengths
Number of Pixels in Spectrum: 3648
>>>>>Begin Spectral Data<<<<<
179.494	498
179.716	608.47
179.937	596.07
180.158	636.37
180.38	1129.69
180.601	428.45
180.823	89.39
181.044	-138.63
181.265	3.31
181.486	19.71
181.708	116.74
181.929	896.94
182.15	-547.18
182.372	136.32
182.593	59.06
182.814	33.82
183.035	83.22
183.257	44.63
183.478	-43.72
183.699	42.3
183.92	-3.27
184.141	-9.51
184.363	-59.22
184.584	9.78
184.805	-26.64
185.026	32.5
185.247	17.24
185.468	13.17
185.689	1.91
185.91	16.02
186.132	-1.24
186.353	-7.09
186.574	47.84
186.795	19.01
187.016	-20.31
187.237	-45.56
187.458	-57.19
187.679	-59.11
187.9	-19.35
188.121	-36.56
188.342	-3.04
188.563	37.85
188.784	22.11
189.005	29.22
189.226	123.69
189.447	65.89
189.667	-109.95
189.888	-324.38
190.109	-1260.39
190.33	-914.52
190.551	-1259.73
190.772	-228.45
190.993	-147.85
191.214	-156.22
191.434	-92.15
191.655	-15.28
191.876	-97.25
192.097	-120.89
192.318	-191.5
192.538	-300.44
192.759	-264.61
192.98	-142.69
193.201	-105.06
193.421	-72.21
193.642	-20.4
193.863	-10.13
194.083	-32.87
194.304	-26.52
194.525	-21.46
194.745	-78.17
194.966	-85.52
195.187	-68.14
195.407	-104.66
195.628	-180.13
195.848	-150.75
196.069	-154.05
196.29	-126.47
196.51	-115.63
196.731	-72.6
196.951	-90.07
197.172	-97.37
197.392	-121.5
197.613	-121.1
197.833	-145.42
198.054	-123.12
198.274	-80.57
198.495	-91.42
198.715	-59.2
198.936	-82.58
199.156	-82.87
199.377	-156.07
199.597	-144.4
199.817	-164.15
200.038	-98.24
200.258	-138.08
200.479	-82.64
200.699	-93.55
200.919	-17.98
201.14	-58.03
201.36	-78.19
201.58	-9.07
201.801	17.2
202.021	-20.22
202.241	1.91
202.461	3.95
202.682	-86.09
202.902	-164.96
203.122	-101.52
203.342	-88.23
203.563	-33.56
203.783	-14.08
204.003	-41.58
204.223	-43.02
204.443	18.19
204.663	-10.6
204.884	15.94
205.104	53.15
205.324	70.89
205.544	21.7
205.764	32.73
205.984	24.17
206.204	28.58
206.424	3.89
206.644	-44.29
206.864	-32.61
207.084	-118.62
207.304	-118.95
207.525	-282.66
207.745	-110.6
207.964	-37.64
208.184	-58.16
208.404	-98.49
208.624	-76.05
208.844	-88.47
209.064	-412.33
209.284	-409.2
209.504	-173.64
209.724	-27.14
209.944	-0.84
210.164	40.89
210.384	47.92
210.604	43.03
210.823	-7.19
211.043	-38.39
211.263	-42.78
211.483	-59.57
211.703	-124.08
211.922	-97.75
212.142	-27.81
212.362	-7.09
212.582	-15.58
212.801	-3.25
213.021	-28.76
213.241	-38.03
213.461	-92.74
213.68	-106.8
213.9	-99.13
214.12	-60.59
214.339	-139.01
214.559	-97.18
214.779	-21.46
214.998	-19.63
215.218	-83.91
215.438	-55.31
215.657	-79.44
215.877	-100.79
216.096	-56.54
216.316	-37.5
216.535	-22.85
216.755	-7.16
216.974	-106.02
217.194	-153.85
217.413	-151.35
217.633	-189.48
217.852	-304.32
218.072	-110.38
218.291	-51.06
218.511	7.98
218.73	-10.09
218.95	-8.67
219.169	-20.66
219.389	-70.82
219.608	-69.91
219.827	-46.86
220.047	-46.21
220.266	-20.89
220.485	-17.86
220.705	-15.66
220.924	-52.16
221.143	-2.58
221.363	-47.52
221.582	-26.63
221.801	-34.16
222.021	-3.66
222.24	-91.13
222.459	-13.17
222.678	-33.01
222.897	-80.93
223.117	-100.43
223.336	-101.82
223.555	-46.83
223.774	-12.65
223.993	22.45
224.213	54.47
224.432	52.33
224.651	51.42
224.87	28.7
225.089	42.55
225.308	37.24
225.527	58.35
225.746	55.48
225.965	44.74
226.184	15.09
226.404	18.88
226.623	-23.05
226.842	-19.69
227.061	5.29
227.28	4.04
227.499	-18.82
227.718	-1.25
227.936	-9.75
228.155	-12.79
228.374	-13.44
228.593	3.3
228.812	4.69
229.031	-1.36
229.25	-49.59
229.469	-39.52
229.688	-20.89
229.907	-4.68
230.125	13.72
230.344	23.07
230.563	42.18
230.782	49.57
231.001	2.48
231.22	-6.65
231.438	21.68
231.657	7.99
231.876	-32.33
232.095	19.86
232.313	31.49
232.532	10.79
232.751	-33.63
232.969	-25.17
233.188	-101.42
233.407	-51.45
233.625	-16.87
233.844	-18.09
234.063	-21.56
234.281	-2.15
234.5	-18.66
234.719	-22.79
234.937	-5.44
235.156	6.24
235.374	6.43
235.593	-7.48
235.811	-10.73
236.03	-18.94
236.249	-66.04
236.467	-58.75
236.686	-20.6
236.904	-4.69
237.123	-23.5
237.341	-12.82
237.559	-10.08
237.778	-24.43
237.996	-70.16
238.215	-15.75
238.433	-3.82
238.652	-24.97
238.87	-48.47
239.088	-10.6
239.307	-28.6
239.525	-31.32
239.743	-49.38
239.962	-38.92
240.18	-63.43
240.398	-104.01
240.617	-121.88
240.835	-93.82
241.053	-77.65
241.271	-45.68
241.49	1.63
241.708	-20.67
241.926	-59.5
242.144	-1.36
242.363	-64.1
242.581	-87.17
242.799	-30.43
243.017	17.95
243.235	-24.18
243.453	7.89
243.672	-4.84
243.89	-9.53
244.108	-36.81
244.326	-6.21
244.544	-21
244.762	-17.92
244.98	-22.77
245.198	-5.92
245.416	-25.07
245.634	-25.96
245.852	-33.24
246.07	-48.41
246.288	-55.87
246.506	-94.63
246.724	-47.34
246.942	-35
247.16	0.77
247.378	17.01
247.596	46.8
247.814	26.34
248.032	-6.6
248.25	-5.75
248.468	-5.24
248.685	-5.33
248.903	21.75
249.121	34.83
249.339	-1.3
249.557	-7.28
249.775	-3.01
249.992	-65.6
250.21	-69.42
250.428	-38.71
250.646	-69.35
250.863	-103.77
251.081	-73.87
251.299	-68.34
251.517	-63.96
251.734	-31.26
251.952	-15.68
252.17	-7.75
252.387	-6.71
252.605	-15.81
252.823	-15.07
253.04	-1.12
253.258	13
253.475	6.78
253.693	33.93
253.911	34.21
254.128	34.3
254.346	29.63
254.563	20.47
254.781	-12.4
254.998	-30.71
255.216	-31.83
255.433	-30.71
255.651	12.44
255.868	30.54
256.086	48.54
256.303	20.59
256.521	17.01
256.738	-10.02
256.956	-33.7
257.173	-68.31
257.39	-77.53
257.608	-116.51
257.825	-24.45
258.043	13.56
258.26	20.74
258.477	54.83
258.695	62.13
258.912	-11.88
259.129	-11.57
259.346	-39.01
259.564	-75.55
259.781	-119.28
259.998	-61.52
260.216	-27.89
260.433	18.48
260.65	32.62
260.867	54.86
261.084	10.09
261.302	-26.08
261.519	-64.47
261.736	-86.97
261.953	-93.23
262.17	-28.92
262.387	-48.98
262.604	-50.3
262.822	-49.77
263.039	-38.82
263.256	-83.26
263.473	-49.07
263.69	-32.5
263.907	-5.17
264.124	3.11
264.341	1.51
264.558	-5.86
264.775	5.98
264.992	-5.19
265.209	-2.62
265.426	26.94
265.643	30.45
265.86	35.62
266.077	49.34
266.294	35.08
266.51	-5.86
266.727	-19.46
266.944	-24.66
267.161	-29.26
267.378	-20.5
267.595	15.74
267.812	-11.48
268.028	-24.71
268.245	-8.66
268.462	-33.8
268.679	-52.71
268.896	13.74
269.112	15.55
269.329	4.87
269.546	13.86
269.763	16.6
269.979	-4.62
270.196	-13.04
270.413	-28.66
270.629	-59.64
270.846	-77.82
271.063	-66.75
271.279	-78.32
271.496	-88.42
271.712	-27.67
271.929	-4.54
272.146	-15.31
272.362	1.77
272.579	37.81
272.795	13.89
273.012	6.17
273.228	-8.04
273.445	-22.72
273.661	-63
273.878	-98.57
274.094	-67.85
274.311	-73.99
274.527	-21.88
274.744	-20.83
274.96	-11.44
275.177	-21.71
275.393	-1.46
275.609	-1.96
275.826	28.98
276.042	24.59
276.259	21.29
276.475	27.25
276.691	18.08
276.908	0.7
277.124	18.35
277.34	17.98
277.557	10.96
277.773	3.56
277.989	-0.08
278.205	-10.45
278.422	7.09
278.638	9.82
278.854	34.18
279.07	37.35
279.286	40.55
279.503	0.54
279.719	-20.36
279.935	-56.69
280.151	-83.56
280.367	-58.3
280.583	-85.19
280.799	-58.01
281.016	-96.11
281.232	-37.28
281.448	-42.95
281.664	6.96
281.88	-32.51
282.096	-4.6
282.312	-0.56
282.528	3.08
282.744	-13.03
282.96	3.22
283.176	-4.44
283.392	-5.59
283.608	1.67
283.824	-4.64
284.04	5.1
284.256	21.42
284.471	5.89
284.687	-14.79
284.903	-1.8
285.119	10.83
285.335	-5.89
285.551	-7.46
285.767	-17.23
285.982	-22.59
286.198	-61.49
286.414	-2.53
286.63	25.72
286.846	40.88
287.061	24.31
287.277	45.2
287.493	13.07
287.709	14.9
287.924	-1.09
288.14	31.03
288.356	33.97
288.571	46.62
288.787	16.21
289.003	25.4
289.218	-8.66
289.434	-42.89
289.65	-36.28
289.865	-41.07
290.081	-17.06
290.296	20.08
290.512	23.44
290.727	-9.66
290.943	-7.17
291.159	-22.69
291.374	-28.33
291.59	-44.62
291.805	-32.18
292.021	-11.28
292.236	-23.47
292.451	-9.1
292.667	7.86
292.882	12.98
293.098	-8.54
293.313	-23.1
293.529	-53.3
293.744	-93.38
293.959	-82.98
294.175	-69.88
294.39	-21.3
294.605	-5.76
294.821	31.47
295.036	34.18
295.251	43.06
295.467	19.76
295.682	13.64
295.897	-48.01
296.112	-58.08
296.328	-46.91
296.543	-84
296.758	-82.85
296.973	-13.78
297.188	24.7
297.404	-17.43
297.619	-11.67
297.834	-11.65
298.049	-47.32
298.264	-79.02
298.479	-13.47
298.694	-10.72
298.909	-2.8
299.125	12.66
299.34	21.77
299.555	-1.84
299.77	15
299.985	-8.83
300.2	-64.96
300.415	-90.35
300.63	-41.33
300.845	-52.57
301.06	-56.94
301.275	-16.62
301.49	4.46
301.704	-23.43
301.919	-38.01
302.134	-47.03
302.349	-64.31
302.564	-119.6
302.779	-175.12
302.994	-171.87
303.209	-105.85
303.423	-56.1
303.638	-2.89
303.853	-14.36
304.068	-11.95
304.283	-17.61
304.497	-10.12
304.712	-20.77
304.927	-13.33
305.142	-16.17
305.356	-5.03
305.571	-17.08
305.786	-40.8
306	-32.48
306.215	-25.85
306.43	-38.79
306.644	-40.42
306.859	42.84
307.074	14.46
307.288	-20.17
307.503	-32.3
307.717	-27.44
307.932	-33.44
308.147	-37.94
308.361	-15.08
308.576	-14.45
308.79	-51.18
309.005	-57.01
309.219	-35.3
309.434	-45.93
309.648	-48.28
309.863	-15.97
310.077	-17.53
310.292	-31.28
310.506	-29.98
310.72	-10.64
310.935	1.53
311.149	0.95
311.364	29.47
311.578	41.51
311.792	35.21
312.007	20.53
312.221	8.95
312.435	10.18
312.649	-12.57
312.864	4.03
313.078	12.99
313.292	76.86
313.507	24.95
313.721	101.56
313.935	43.96
314.149	37.28
314.363	22.66
314.578	24.07
314.792	20.08
315.006	9.72
315.22	10.83
315.434	0.21
315.648	1.48
315.862	-9.5
316.077	-5.33
316.291	-15.21
316.505	-0.85
316.719	6.01
316.933	-34.8
317.147	-53.99
317.361	-107.82
317.575	-120.47
317.789	-162.48
318.003	-204.65
318.217	-144.7
318.431	-43.24
318.645	-3.39
318.859	6.42
319.073	27.32
319.287	13.32
319.5	-11.54
319.714	-60.97
319.928	-89.02
320.142	-125.22
320.356	-65.52
320.57	-26.91
320.784	-25.65
320.997	-1.87
321.211	12.93
321.425	-71.28
321.639	-108.36
321.853	-51.5
322.066	-49.94
322.28	-45.84
322.494	-32.66
322.707	-14.05
322.921	-23.84
323.135	-13.45
323.349	-18.35
323.562	-24.67
323.776	-41.33
323.989	-43.18
324.203	-81.34
324.417	-70.94
324.63	-83.67
324.844	-71.75
325.057	-60.82
325.271	-14.84
325.485	4.66
325.698	26.33
325.912	35.42
326.125	6.61
326.339	-0.38
326.552	-23.92
326.766	-25.31
326.979	-16.74
327.193	28.36
327.406	11.17
327.619	12.45
327.833	21.42
328.046	1.62
328.26	-41.16
328.473	-26.89
328.686	-73.65
328.9	-84.65
329.113	-50.53
329.326	-76.61
329.54	-49.35
329.753	-55.64
329.966	-82.83
330.179	-89.89
330.393	-51.2
330.606	-31.94
330.819	-4.97
331.032	23.68
331.246	27.04
331.459	49.96
331.672	38.38
331.885	31.55
332.098	1.9
332.311	-17.41
332.525	-79.35
332.738	-74.71
332.951	-31.29
333.164	15.89
333.377	24.22
333.59	50.93
333.803	51.82
334.016	37.8
334.229	26.56
334.442	33.52
334.655	49.93
334.868	55.79
335.081	46.13
335.294	26.79
335.507	7.92
335.72	-4.92
335.933	-29.62
336.146	-42.14
336.359	-50.53
336.572	-71.08
336.785	-100.59
336.997	-72.28
337.21	-38.52
337.423	-44.54
337.636	-31.21
337.849	-13.78
338.062	-35.78
338.274	-29.35
338.487	-31.45
338.7	-29.5
338.913	-64.59
339.125	-85.3
339.338	-136.8
339.551	-70.55
339.763	-54.3
339.976	-22.08
340.189	11.88
340.402	26.68
340.614	-11.84
340.827	-11.11
341.039	-35.52
341.252	-51.62
341.465	-34.58
341.677	-30.45
341.89	-61.99
342.102	-21.97
342.315	-26.47
342.527	-55.35
342.74	-47.28
342.952	-18.45
343.165	-22.39
343.377	5.82
343.59	0.5
343.802	15.99
344.015	18.33
344.227	28.6
344.44	8.56
344.652	4.9
344.864	-16.32
345.077	10.69
345.289	8.07
345.502	15.97
345.714	12.11
345.926	23.33
346.139	2.82
346.351	9.2
346.563	17.85
346.775	21.61
346.988	-0.62
347.2	-12.09
347.412	-63.57
347.624	-93.21
347.837	-122.95
348.049	-87.12
348.261	-50.14
348.473	-18.35
348.685	-14.56
348.897	3.58
349.11	-14.31
349.322	-37.01
349.534	-35.69
349.746	-38.87
349.958	-45.03
350.17	-34.62
350.382	-17.4
350.594	-28.35
350.806	-14.33
351.018	-5.56
351.23	-23.91
351.442	-64.74
351.654	-36.73
351.866	-40.56
352.078	-57.78
352.29	-18.18
352.502	3.52
352.714	-2.24
352.926	-16.95
353.138	-10.25
353.35	-26.11
353.561	-28.61
353.773	-41.67
353.985	-22.03
354.197	-24.43
354.409	-23.16
354.621	-20.69
354.832	-13.98
355.044	-31.78
355.256	-30.15
355.468	-20.07
355.679	-29.78
355.891	-19.47
356.103	-32.22
356.314	-34.13
356.526	-32.9
356.738	-8.58
356.949	-27.95
357.161	8.62
357.373	12.81
357.584	-3.99
357.796	-4.63
358.008	-4.05
358.219	10.07
358.431	1.69
358.642	17.31
358.854	11.77
359.065	-8.94
359.277	-42.36
359.488	-44.5
359.7	-68.84
359.911	-97.33
360.123	-49.09
360.334	-60.25
360.546	-79.3
360.757	-74.2
360.969	-31.69
361.18	-35.8
361.391	-24
361.603	-32.25
361.814	-37
362.025	-47.8
362.237	-53.1
362.448	-24.2
362.659	6.68
362.871	8.3
363.082	12.33
363.293	6.71
363.504	-23.56
363.716	-55.89
363.927	-71.41
364.138	-101.06
364.349	-107.33
364.56	-92.35
364.772	-81.36
364.983	-37.96
365.194	-34.85
365.405	-19.37
365.616	-1.01
365.827	7.91
366.038	-33.74
366.25	-33.43
366.461	-63.82
366.672	-40.21
366.883	-21.49
367.094	-1.23
367.305	-8.53
367.516	0.52
367.727	-29.22
367.938	-42.11
368.149	-48.7
368.36	-29.2
368.571	-19.68
368.781	-20.07
368.992	-38.5
369.203	-42.65
369.414	-56.51
369.625	-85.98
369.836	-88.41
370.047	-102.96
370.258	-102.79
370.468	-105.33
370.679	-98.35
370.89	-95.23
371.101	-70.63
371.312	-65.87
371.522	-52.2
371.733	-39.81
371.944	-20.16
372.155	-14.07
372.365	-16.5
372.576	-17.29
372.787	-21.67
372.997	-48.63
373.208	-42.99
373.419	-11.06
373.629	-39.94
373.84	-40.81
374.05	-35.7
374.261	-38.96
374.472	-56.45
374.682	5.71
374.893	1.09
375.103	38.07
375.314	39.17
375.524	23.8
375.735	10.63
375.945	24.45
376.156	-14.35
376.366	-9.45
376.577	4.51
376.787	-4.59
376.997	0.69
377.208	11.26
377.418	-3.84
377.629	6.56
377.839	4.83
378.049	-1.39
378.26	12.47
378.47	20.12
378.68	2.33
378.89	-2.54
379.101	-8.21
379.311	-51.66
379.521	-93.38
379.732	-90.03
379.942	-76.48
380.152	-97.58
380.362	-46.47
380.572	-24.95
380.783	-0.71
380.993	9.68
381.203	28.71
381.413	29.99
381.623	33.92
381.833	17.11
382.043	-1.51
382.253	-5.16
382.463	-7.9
382.674	-18.53
382.884	-46.46
383.094	-38.96
383.304	-36.79
383.514	-31.89
383.724	-23.7
383.934	-18.24
384.144	-29.7
384.353	-40.19
384.563	-34.98
384.773	-29.16
384.983	-30.66
385.193	-12.47
385.403	-2.73
385.613	-3.6
385.823	-7.27
386.033	3.95
386.242	-1.3
386.452	-1.81
386.662	-19.17
386.872	-8.98
387.082	-22.27
387.291	-28.2
387.501	-27.02
387.711	-14.08
387.921	-22.87
388.13	-18.34
388.34	-4.13
388.55	-13.4
388.759	-12.53
388.969	-4.18
389.179	-6.41
389.388	-11.31
389.598	-2.65
389.807	-7.2
390.017	-12.92
390.227	-10.43
390.436	-12.6
390.646	-14.37
390.855	-8.78
391.065	-10.28
391.274	-8.74
391.484	-8.45
391.693	-5.31
391.903	-5.03
392.112	1.57
392.322	2.56
392.531	6.57
392.74	6.1
392.95	2.56
393.159	3.02
393.369	3.19
393.578	1.47
393.787	1.16
393.997	1.37
394.206	-2.28
394.415	-1.67
394.625	-1.58
394.834	-3.8
395.043	-3.11
395.252	-0.34
395.462	1.3
395.671	1.81
395.88	3.72
396.089	5.22
396.298	3.4
396.508	2.24
396.717	1.68
396.926	2.16
397.135	1.88
397.344	1.44
397.553	2.58
397.762	4.11
397.971	4.03
398.181	4.16
398.39	4.38
398.599	3.54
398.808	3.36
399.017	4.33
399.226	5.53
399.435	6.52
399.644	7.04
399.853	5.87
400.062	4.98
400.27	4.25
400.479	3.96
400.688	3.33
400.897	3.83
401.106	3.97
401.315	3.81
401.524	3.72
401.733	4.17
401.941	4.68
402.15	5.16
402.359	5.19
402.568	5.77
402.777	6.05
402.985	5.7
403.194	5.3
403.403	5.13
403.612	4.37
403.82	3.99
404.029	4.3
404.238	4.1
404.446	4.43
404.655	4.43
404.864	4.49
405.072	4.15
405.281	4.52
405.489	4.26
405.698	4.42
405.906	4.32
406.115	4.4
406.324	4.28
406.532	4.46
406.741	4.62
406.949	4.71
407.158	4.64
407.366	4.73
407.574	4.7
407.783	4.56
407.991	4.34
408.2	4.72
408.408	4.53
408.617	4.4
408.825	4.38
409.033	4.57
409.242	4.39
409.45	4.56
409.658	4.44
409.867	4.56
410.075	4.46
410.283	4.32
410.491	4.23
410.7	4.28
410.908	4.23
411.116	4.42
411.324	4.44
411.533	4.37
411.741	4.59
411.949	4.45
412.157	4.18
412.365	4.12
412.573	4.11
412.781	4.09
412.99	4.04
413.198	4.25
413.406	4.3
413.614	4.33
413.822	4.18
414.03	4.12
414.238	3.86
414.446	3.87
414.654	3.61
414.862	3.69
415.07	3.91
415.278	4.2
415.486	3.96
415.694	4.16
415.902	3.84
416.109	3.58
416.317	3.5
416.525	3.41
416.733	3.38
416.941	3.71
417.149	3.88
417.357	3.83
417.564	4.14
417.772	4.21
417.98	4
418.188	3.86
418.395	3.99
418.603	3.95
418.811	3.74
419.019	3.85
419.226	4.09
419.434	4.05
419.642	3.85
419.849	3.94
420.057	3.91
420.265	3.82
420.472	3.51
420.68	3.6
420.887	3.53
421.095	3.52
421.302	3.51
421.51	3.86
421.717	3.9
421.925	4.04
422.132	3.99
422.34	3.7
422.547	3.51
422.755	3.42
422.962	3.22
423.17	3.07
423.377	3.2
423.585	3.19
423.792	3.17
423.999	3.2
424.207	3.25
424.414	3.33
424.621	3.3
424.829	3.26
425.036	3.36
425.243	3.54
425.451	3.36
425.658	3.32
425.865	3.59
426.072	3.59
426.28	3.66
426.487	3.81
426.694	3.82
426.901	3.49
427.108	3.43
427.315	3.29
427.523	3.47
427.73	3.55
427.937	3.62
428.144	3.49
428.351	3.46
428.558	3.48
428.765	3.33
428.972	3.23
429.179	3.43
429.386	3.72
429.593	3.44
429.8	3.4
430.007	3.67
430.214	3.75
430.421	3.44
430.628	3.36
430.835	3.3
431.042	3.37
431.249	3.3
431.456	3.45
431.662	3.61
431.869	3.87
432.076	3.78
432.283	3.96
432.49	3.79
432.697	3.82
432.903	3.55
433.11	3.46
433.317	3.47
433.524	3.81
433.73	3.66
433.937	3.95
434.144	3.96
434.35	3.89
434.557	3.64
434.764	3.71
434.97	3.54
435.177	3.77
435.384	3.61
435.59	3.66
435.797	3.89
436.003	3.98
436.21	3.81
436.416	3.91
436.623	3.86
436.829	3.84
437.036	3.89
437.242	3.91
437.449	3.86
437.655	4
437.862	3.93
438.068	3.85
438.275	3.99
438.481	4.24
438.687	4.2
438.894	4.24
439.1	4.29
439.307	4.31
439.513	4.12
439.719	4.09
439.926	4.07
440.132	3.99
440.338	3.86
440.544	4.06
440.751	4.03
440.957	4.09
441.163	4.04
441.369	4.12
441.575	3.86
441.782	3.9
441.988	3.75
442.194	3.9
442.4	3.9
442.606	4.19
442.812	4.26
443.018	4.37
443.224	4.34
443.431	4.43
443.637	4.13
443.843	3.96
444.049	3.98
444.255	3.84
444.461	3.77
444.667	3.87
444.873	4.11
445.079	4.03
445.284	4.22
445.49	4.01
445.696	3.88
445.902	3.76
446.108	3.79
446.314	3.62
446.52	3.76
446.726	4.01
446.931	4.01
447.137	4.08
447.343	4.29
447.549	4.21
447.755	4.1
447.96	4.15
448.166	4.02
448.372	3.92
448.578	4.07
448.783	4.09
448.989	4.15
449.195	4.43
449.4	4.47
449.606	4.39
449.812	4.28
450.017	4.31
450.223	4.12
450.428	4.03
450.634	4.15
450.84	4.3
451.045	4.16
451.251	4.03
451.456	4.36
451.662	4.35
451.867	4.39
452.073	4.37
452.278	4.53
452.483	4.48
452.689	4.44
452.894	4.43
453.1	4.46
453.305	4.4
453.51	4.24
453.716	4.1
453.921	4.1
454.127	4.11
454.332	4.05
454.537	3.99
454.742	4.16
454.948	4.07
455.153	4.05
455.358	4.22
455.563	4.38
455.769	4.32
455.974	4.25
456.179	4.1
456.384	4.06
456.589	3.95
456.795	3.83
457	3.88
457.205	4.14
457.41	4.07
457.615	4.03
457.82	4.15
458.025	4.13
458.23	4
458.435	4.03
458.64	3.96
458.845	4.11
459.05	4.15
459.255	4.16
459.46	4.1
459.665	4.17
459.87	4.08
460.075	4.07
460.28	4.13
460.485	4.21
460.69	4.21
460.895	4.03
461.099	3.99
461.304	4.04
461.509	4.1
461.714	4.06
461.919	4.24
462.123	4.12
462.328	4.15
462.533	3.99
462.738	4.05
462.942	3.9
463.147	4.13
463.352	4.12
463.556	4.18
463.761	4.21
463.966	4.29
464.17	4.23
464.375	4.11
464.58	4.11
464.784	4.03
464.989	3.94
465.193	3.92
465.398	3.96
465.602	4.09
465.807	4.07
466.011	4.2
466.216	4.19
466.42	4.24
466.625	4.26
466.829	4.32
467.034	4.31
467.238	4.47
467.443	4.42
467.647	4.25
467.851	4.37
468.056	4.44
468.26	4.28
468.464	4.27
468.669	4.36
468.873	4.47
469.077	4.44
469.282	4.58
469.486	4.57
469.69	4.59
469.894	4.32
470.099	4.33
470.303	4.36
470.507	4.25
470.711	4.1
470.915	4.15
471.119	4.06
471.324	3.94
471.528	4.12
471.732	4.23
471.936	4.19
472.14	4.31
472.344	4.39
472.548	4.41
472.752	4.63
472.956	4.92
473.16	4.81
473.364	4.67
473.568	4.65
473.772	4.56
473.976	4.35
474.18	4.34
474.384	4.5
474.588	4.41
474.792	4.29
474.995	4.36
475.199	4.53
475.403	4.54
475.607	4.53
475.811	4.53
476.015	4.54
476.218	4.54
476.422	4.47
476.626	4.66
476.83	4.81
477.033	4.77
477.237	4.66
477.441	4.78
477.644	4.65
477.848	4.57
478.052	4.56
478.255	4.61
478.459	4.54
478.663	4.71
478.866	4.69
479.07	4.76
479.273	4.94
479.477	4.95
479.681	4.88
479.884	4.9
480.088	4.79
480.291	4.66
480.495	4.66
480.698	4.6
480.901	4.66
481.105	4.83
481.308	4.85
481.512	4.83
481.715	4.94
481.919	5
482.122	4.96
482.325	4.94
482.529	5.03
482.732	5
482.935	4.85
483.138	4.8
483.342	4.91
483.545	4.93
483.748	4.96
483.952	5.03
484.155	5.14
484.358	5.14
484.561	5.01
484.764	5.02
484.967	5.08
485.171	5.12
485.374	5.06
485.577	5.27
485.78	5.27
485.983	5.32
486.186	5.23
486.389	5.19
486.592	5.12
486.795	5.17
486.998	5.13
487.201	5.14
487.404	5.23
487.607	5.27
487.81	5.25
488.013	5.29
488.216	5.33
488.419	5.33
488.622	5.23
488.825	5.19
489.028	5.1
489.231	5
489.433	4.92
489.636	4.93
489.839	4.95
490.042	4.91
490.245	4.94
490.447	5.03
490.65	5.08
490.853	5.08
491.056	5.15
491.258	5.2
491.461	5.15
491.664	5.18
491.866	5.13
492.069	5.22
492.272	5.18
492.474	5.29
492.677	5.32
492.879	5.38
493.082	5.41
493.285	5.56
493.487	5.46
493.69	5.38
493.892	5.27
494.095	5.22
494.297	5.11
494.5	5.15
494.702	5.18
494.905	5.3
495.107	5.3
495.309	5.35
495.512	5.38
495.714	5.39
495.917	5.39
496.119	5.34
496.321	5.41
496.524	5.47
496.726	5.53
496.928	5.56
497.13	5.61
497.333	5.54
497.535	5.54
497.737	5.49
497.939	5.49
498.142	5.53
498.344	5.51
498.546	5.42
498.748	5.47
498.95	5.56
499.152	5.55
499.355	5.6
499.557	5.69
499.759	5.84
499.961	5.82
500.163	5.88
500.365	5.87
500.567	5.96
500.769	5.82
500.971	5.82
501.173	5.75
501.375	5.81
501.577	5.7
501.779	5.71
501.981	5.73
502.183	5.8
502.385	5.78
502.587	5.78
502.788	5.86
502.99	5.84
503.192	5.88
503.394	5.89
503.596	5.98
503.798	6.05
503.999	6.15
504.201	6.11
504.403	6.16
504.605	6.16
504.806	6.05
505.008	6.03
505.21	6.12
505.411	6.09
505.613	6.13
505.815	6.13
506.016	6.18
506.218	6.27
506.42	6.27
506.621	6.29
506.823	6.4
507.024	6.31
507.226	6.24
507.427	6.28
507.629	6.33
507.83	6.38
508.032	6.42
508.233	6.5
508.435	6.57
508.636	6.61
508.838	6.53
509.039	6.6
509.24	6.61
509.442	6.6
509.643	6.49
509.845	6.49
510.046	6.53
510.247	6.55
510.448	6.56
510.65	6.63
510.851	6.8
511.052	6.79
511.254	6.75
511.455	6.89
511.656	7
511.857	7.04
512.058	7.06
512.26	7.03
512.461	6.98
512.662	7.02
512.863	6.91
513.064	6.91
513.265	6.99
513.466	7.04
513.667	6.98
513.868	7.03
514.069	7.13
514.27	7.21
514.471	7.16
514.672	7.21
514.873	7.26
515.074	7.31
515.275	7.21
515.476	7.25
515.677	7.26
515.878	7.35
516.079	7.28
516.28	7.39
516.481	7.52
516.682	7.54
516.882	7.48
517.083	7.5
517.284	7.44
517.485	7.32
517.686	7.35
517.886	7.36
518.087	7.41
518.288	7.49
518.488	7.51
518.689	7.53
518.89	7.5
519.091	7.49
519.291	7.51
519.492	7.57
519.692	7.61
519.893	7.75
520.094	7.81
520.294	7.81
520.495	7.8
520.695	7.82
520.896	7.78
521.096	7.82
521.297	7.86
521.497	7.85
521.698	7.8
521.898	7.84
522.099	7.82
522.299	7.88
522.499	7.95
522.7	8
522.9	7.99
523.101	8.1
523.301	8.05
523.501	8.05
523.702	8.06
523.902	8.16
524.102	8.2
524.302	8.22
524.503	8.3
524.703	8.34
524.903	8.38
525.103	8.33
525.304	8.43
525.504	8.46
525.704	8.55
525.904	8.51
526.104	8.49
526.304	8.49
526.504	8.56
526.705	8.52
526.905	8.61
527.105	8.66
527.305	8.69
527.505	8.57
527.705	8.6
527.905	8.58
528.105	8.59
528.305	8.55
528.505	8.65
528.705	8.71
528.905	8.67
529.105	8.68
529.304	8.79
529.504	8.92
529.704	8.86
529.904	8.86
530.104	8.94
530.304	9.01
530.503	8.93
530.703	8.96
530.903	9.02
531.103	9.04
531.303	8.95
531.502	9.03
531.702	9.09
531.902	9.15
532.101	9.12
532.301	9.17
532.501	9.21
532.7	9.22
532.9	9.28
533.1	9.32
533.299	9.33
533.499	9.29
533.698	9.3
533.898	9.27
534.097	9.29
534.297	9.36
534.496	9.38
534.696	9.4
534.895	9.53
535.095	9.6
535.294	9.62
535.494	9.59
535.693	9.68
535.892	9.73
536.092	9.69
536.291	9.67
536.491	9.81
536.69	9.82
536.889	9.71
537.088	9.75
537.288	9.8
537.487	9.83
537.686	9.82
537.886	9.93
538.085	10.04
538.284	10.19
538.483	10.18
538.682	10.29
538.882	10.32
539.081	10.35
539.28	10.26
539.479	10.3
539.678	10.29
539.877	10.43
540.076	10.42
540.275	10.5
540.474	10.58
540.673	10.58
540.872	10.5
541.071	10.54
541.27	10.6
541.469	10.7
541.668	10.76
541.867	10.82
542.066	10.97
542.265	11
542.464	10.93
542.663	10.97
542.862	11.15
543.06	11.13
543.259	11.18
543.458	11.26
543.657	11.36
543.856	11.38
544.054	11.41
544.253	11.47
544.452	11.48
544.651	11.57
544.849	11.52
545.048	11.65
545.247	11.68
545.445	11.77
545.644	11.76
545.843	11.8
546.041	11.79
546.24	11.89
546.438	11.98
546.637	12.02
546.836	12.24
547.034	12.34
547.233	12.32
547.431	12.32
547.63	12.37
547.828	12.34
548.027	12.36
548.225	12.42
548.423	12.45
548.622	12.57
548.82	12.59
549.019	12.61
549.217	12.77
549.415	12.9
549.614	12.95
549.812	12.99
550.01	13.03
550.209	13.04
550.407	13.08
550.605	13.16
550.803	13.27
551.002	13.43
551.2	13.49
551.398	13.6
551.596	13.74
551.794	13.79
551.993	13.82
552.191	13.9
552.389	14.02
552.587	14.04
552.785	14.14
552.983	14.25
553.181	14.38
553.379	14.41
553.577	14.41
553.775	14.48
553.973	14.52
554.171	14.63
554.369	14.65
554.567	14.75
554.765	14.81
554.963	14.93
555.161	14.92
555.359	15.06
555.557	15.21
555.755	15.33
555.952	15.47
556.15	15.59
556.348	15.69
556.546	15.81
556.744	15.88
556.941	15.91
557.139	16
557.337	16.05
557.535	16.06
557.732	16.19
557.93	16.3
558.128	16.36
558.325	16.54
558.523	16.56
558.721	16.67
558.918	16.76
559.116	16.86
559.313	16.88
559.511	17.16
559.708	17.18
559.906	17.25
560.104	17.33
560.301	17.47
560.498	17.44
560.696	17.56
560.893	17.66
561.091	17.8
561.288	17.84
561.486	17.94
561.683	18.01
561.88	18.17
562.078	18.28
562.275	18.37
562.473	18.49
562.67	18.63
562.867	18.63
563.064	18.7
563.262	18.75
563.459	18.82
563.656	18.96
563.853	19.01
564.051	19.12
564.248	19.35
564.445	19.47
564.642	19.47
564.839	19.73
565.036	19.9
565.234	20.02
565.431	20.15
565.628	20.31
565.825	20.42
566.022	20.51
566.219	20.51
566.416	20.62
566.613	20.69
566.81	20.75
567.007	20.7
567.204	20.78
567.401	20.78
567.598	20.86
567.795	20.88
567.991	21.02
568.188	21.09
568.385	21.24
568.582	21.29
568.779	21.44
568.976	21.54
569.172	21.69
569.369	21.69
569.566	21.77
569.763	21.83
569.96	21.87
570.156	21.85
570.353	21.85
570.55	21.87
570.746	21.85
570.943	21.93
571.14	21.91
571.336	22.05
571.533	22.14
571.729	22.19
571.926	22.22
572.123	22.38
572.319	22.44
572.516	22.39
572.712	22.46
572.909	22.53
573.105	22.62
573.302	22.64
573.498	22.81
573.695	22.77
573.891	22.8
574.087	22.78
574.284	22.74
574.48	22.68
574.677	22.71
574.873	22.66
575.069	22.77
575.266	22.87
575.462	22.88
575.658	22.99
575.854	23.16
576.051	23.14
576.247	23.06
576.443	23.09
576.639	23.06
576.835	22.97
577.032	22.89
577.228	23.1
577.424	23.09
577.62	22.96
577.816	22.98
578.012	23.14
578.208	23.03
578.404	23.13
578.6	23.22
578.796	23.22
578.993	23.19
579.189	23.09
579.384	22.95
579.58	22.9
579.776	22.91
579.972	22.8
580.168	22.79
580.364	22.89
580.56	22.92
580.756	22.83
580.952	22.81
581.148	22.84
581.343	22.86
581.539	22.88
581.735	22.95
581.931	23.02
582.127	23.08
582.322	23.01
582.518	23.07
582.714	23.03
582.909	22.92
583.105	22.91
583.301	22.9
583.496	22.88
583.692	22.8
583.888	22.89
584.083	22.84
584.279	22.81
584.474	22.71
584.67	22.78
584.866	22.76
585.061	22.69
585.257	22.76
585.452	22.81
585.648	22.76
585.843	22.77
586.039	22.86
586.234	22.82
586.429	22.79
586.625	22.87
586.82	22.75
587.015	22.73
587.211	22.61
587.406	22.64
587.601	22.58
587.797	22.63
587.992	22.65
588.187	22.78
588.383	22.74
588.578	22.73
588.773	22.86
588.968	22.9
589.163	22.96
589.359	22.92
589.554	22.92
589.749	22.82
589.944	22.91
590.139	22.91
590.334	23.04
590.529	23.12
590.724	23.2
590.919	23.13
591.114	23.11
591.309	23.14
591.504	23.19
591.699	23.16
591.894	23.18
592.089	23.22
592.284	23.21
592.479	23.22
592.674	23.18
592.869	23.28
593.064	23.37
593.259	23.5
593.454	23.62
593.648	23.68
593.843	23.74
594.038	23.72
594.233	23.56
594.428	23.48
594.622	23.57
594.817	23.61
595.012	23.66
595.206	23.8
595.401	23.86
595.596	23.92
595.79	24.02
595.985	24.2
596.18	24.3
596.374	24.41
596.569	24.48
596.763	24.41
596.958	24.38
597.153	24.5
597.347	24.5
597.542	24.6
597.736	24.7
597.931	24.74
598.125	24.65
598.319	24.82
598.514	24.81
598.708	24.84
598.903	24.82
599.097	24.96
599.291	24.96
599.486	24.94
599.68	24.98
599.874	25.16
600.069	25.11
600.263	25.06
600.457	25.17
600.651	25.18
600.846	25.14
601.04	25.3
601.234	25.39
601.428	25.4
601.622	25.48
601.817	25.57
602.011	25.58
602.205	25.58
602.399	25.61
602.593	25.6
602.787	25.52
602.981	25.46
603.175	25.49
603.369	25.36
603.563	25.4
603.757	25.52
603.951	25.57
604.145	25.53
604.339	25.66
604.533	25.49
604.727	25.31
604.921	25.19
605.115	25.2
605.309	25.21
605.502	25.22
605.696	25.21
605.89	25.19
606.084	25.15
606.278	25.02
606.471	24.98
606.665	24.82
606.859	24.73
607.053	24.67
607.246	24.65
607.44	24.63
607.634	24.64
607.827	24.71
608.021	24.5
608.214	24.46
608.408	24.34
608.602	24.32
608.795	24.16
608.989	24.17
609.182	24.07
609.376	24.01
609.569	23.95
609.763	23.9
609.956	23.79
610.15	23.67
610.343	23.68
610.537	23.51
610.73	23.49
610.923	23.44
611.117	23.46
611.31	23.36
611.504	23.41
611.697	23.27
611.89	23.23
612.083	23.11
612.277	22.97
612.47	22.86
612.663	22.83
612.856	22.77
613.05	22.67
613.243	22.72
613.436	22.65
613.629	22.54
613.822	22.46
614.015	22.43
614.209	22.25
614.402	22.23
614.595	22.25
614.788	22.19
614.981	22.13
615.174	22.03
615.367	21.86
615.56	21.75
615.753	21.72
615.946	21.62
616.139	21.64
616.332	21.77
616.525	21.73
616.718	21.84
616.911	21.83
617.103	21.92
617.296	21.79
617.489	21.71
617.682	21.49
617.875	21.49
618.067	21.4
618.26	21.28
618.453	21.32
618.646	21.24
618.838	21.19
619.031	21.17
619.224	21.1
619.417	21.14
619.609	21.27
619.802	21.23
619.994	21.2
620.187	21.27
620.38	21.09
620.572	20.95
620.765	20.94
620.957	20.82
621.15	20.74
621.342	20.77
621.535	20.82
621.727	20.79
621.92	20.71
622.112	20.69
622.305	20.7
622.497	20.66
622.69	20.58
622.882	20.69
623.074	20.75
623.267	20.73
623.459	20.59
623.651	20.57
623.844	20.53
624.036	20.53
624.228	20.45
624.42	20.52
624.613	20.64
624.805	20.58
624.997	20.55
625.189	20.52
625.381	20.53
625.574	20.43
625.766	20.34
625.958	20.31
626.15	20.45
626.342	20.45
626.534	20.48
626.726	20.51
626.918	20.42
627.11	20.27
627.302	20.22
627.494	20.13
627.686	20.19
627.878	20.13
628.07	20.09
628.262	20
628.454	20.03
628.646	19.99
628.838	20.09
629.029	20.07
629.221	20.12
629.413	20
629.605	19.92
629.797	19.85
629.989	19.81
630.18	19.77
630.372	19.73
630.564	19.68
630.755	19.71
630.947	19.77
631.139	19.74
631.33	19.66
631.522	19.81
631.714	19.73
631.905	19.68
632.097	19.6
632.289	19.7
632.48	19.53
632.672	19.46
632.863	19.31
633.055	19.31
633.246	19.28
633.438	19.24
633.629	19.25
633.821	19.31
634.012	19.29
634.203	19.21
634.395	19.23
634.586	19.21
634.777	19.11
634.969	19.13
635.16	19.22
635.351	19.09
635.543	19.11
635.734	19.19
635.925	19.15
636.117	19.15
636.308	19.25
636.499	19.19
636.69	19.1
636.881	19.14
637.073	19.17
637.264	19.04
637.455	19.03
637.646	19.09
637.837	19
638.028	18.89
638.219	19.04
638.41	18.92
638.601	18.86
638.792	18.88
638.983	18.78
639.174	18.62
639.365	18.67
639.556	18.64
639.747	18.59
639.938	18.7
640.129	18.69
640.32	18.63
640.511	18.65
640.701	18.76
640.892	18.62
641.083	18.68
641.274	18.69
641.465	18.68
641.655	18.52
641.846	18.5
642.037	18.4
642.228	18.44
642.418	18.44
642.609	18.52
642.8	18.58
642.99	18.55
643.181	18.58
643.372	18.54
643.562	18.46
643.753	18.35
643.943	18.37
644.134	18.18
644.324	18.08
644.515	18.02
644.705	18.04
644.896	17.94
645.086	17.99
645.277	18
645.467	17.94
645.658	17.96
645.848	17.99
646.038	17.98
646.229	17.92
646.419	17.92
646.61	17.86
646.8	17.77
646.99	17.75
647.18	17.71
647.371	17.7
647.561	17.63
647.751	17.69
647.941	17.53
648.132	17.48
648.322	17.39
648.512	17.42
648.702	17.3
648.892	17.29
649.082	17.31
649.272	17.2
649.462	17.07
649.653	17.03
649.843	17.01
650.033	16.95
650.223	16.92
650.413	16.87
650.603	16.88
650.793	16.89
650.983	16.84
651.172	16.82
651.362	16.74
651.552	16.63
651.742	16.5
651.932	16.49
652.122	16.46
652.312	16.54
652.502	16.53
652.691	16.46
652.881	16.41
653.071	16.36
653.261	16.15
653.45	16
653.64	16.04
653.83	15.83
654.019	15.7
654.209	15.69
654.399	15.65
654.588	15.46
654.778	15.38
654.968	15.27
655.157	15.09
655.347	14.9
655.536	14.83
655.726	14.7
655.915	14.55
656.105	14.44
656.294	14.41
656.484	14.12
656.673	13.94
656.863	13.89
657.052	13.69
657.241	13.45
657.431	13.19
657.62	13.11
657.809	12.77
657.999	12.68
658.188	12.52
658.377	12.47
658.567	12.33
658.756	12.27
658.945	12.06
659.134	11.9
659.324	11.8
659.513	11.67
659.702	11.51
659.891	11.38
660.08	11.24
660.269	11.17
660.458	10.93
660.648	10.87
660.837	10.69
661.026	10.63
661.215	10.42
661.404	10.26
661.593	10.13
661.782	9.91
661.971	9.74
662.16	9.55
662.349	9.43
662.538	9.16
662.726	9.2
662.915	9.06
663.104	8.96
663.293	8.85
663.482	8.88
663.671	8.76
663.86	8.58
664.048	8.47
664.237	8.45
664.426	8.24
664.615	8.18
664.803	8.23
664.992	8.23
665.181	8.09
665.369	7.97
665.558	7.81
665.747	7.63
665.935	7.55
666.124	7.58
666.312	7.59
666.501	7.52
666.69	7.5
666.878	7.44
667.067	7.25
667.255	7.33
667.444	7.62
667.632	7.54
667.82	7.65
668.009	7.7
668.197	7.51
668.386	7.26
668.574	7.46
668.762	7.26
668.951	7.2
669.139	7.26
669.327	7.13
669.516	7.1
669.704	7.04
669.892	7.12
670.08	7.1
670.269	7.09
670.457	6.93
670.645	6.84
670.833	6.98
671.021	6.97
671.21	7.05
671.398	7.27
671.586	7.43
671.774	7.18
671.962	7.11
672.15	7.14
672.338	6.9
672.526	6.96
672.714	6.92
672.902	7.01
673.09	7.13
673.278	7.46
673.466	7.41
673.654	7.67
673.842	7.72
674.03	7.72
674.218	7.47
674.405	7.56
674.593	7.4
674.781	7.37
674.969	7.35
675.157	7.49
675.344	7.59
675.532	7.73
675.72	7.9
675.908	7.99
676.095	7.96
676.283	7.94
676.471	8.09
676.658	8.06
676.846	8
677.033	8.13
677.221	8.26
677.409	8.13
677.596	8.33
677.784	8.46
677.971	8.49
678.159	8.52
678.346	8.66
678.534	8.58
678.721	8.77
678.909	8.74
679.096	8.86
679.283	9.01
679.471	9.22
679.658	9.28
679.846	9.47
680.033	9.61
680.22	9.68
680.408	9.66
680.595	9.71
680.782	9.7
680.969	9.84
681.157	9.8
681.344	9.91
681.531	10.04
681.718	10.24
681.905	10.4
682.093	10.69
682.28	10.95
682.467	11.18
682.654	11.4
682.841	11.37
683.028	11.59
683.215	11.71
683.402	11.76
683.589	11.97
683.776	12.2
683.963	12.2
684.15	12.48
684.337	12.7
684.524	12.88
684.711	13.25
684.898	13.33
685.085	13.5
685.271	13.87
685.458	14.22
685.645	14.29
685.832	14.82
686.019	15.15
686.205	15.27
686.392	15.57
686.579	15.89
686.766	16.32
686.952	16.55
687.139	17.11
687.326	17.24
687.512	17.64
687.699	17.93
687.886	18.32
688.072	18.55
688.259	19.09
688.445	19.59
688.632	19.92
688.818	20.54
689.005	21.11
689.191	21.57
689.378	22.13
689.564	22.76
689.751	23.25
689.937	23.65
690.124	24.15
690.31	24.33
690.496	24.62
690.683	25
690.869	25.59
691.055	26.08
691.242	26.85
691.428	27.53
691.614	28.09
691.8	28.78
691.987	29.33
692.173	29.96
692.359	30.62
692.545	31.4
692.731	31.98
692.918	32.83
693.104	33.33
693.29	33.93
693.476	34.65
693.662	35
693.848	35.43
694.034	36.03
694.22	36.57
694.406	37.15
694.592	37.9
694.778	38.56
694.964	39.4
695.15	40.1
695.336	40.53
695.522	41.35
695.708	41.76
695.894	42.35
696.08	43.06
696.265	43.53
696.451	44
696.637	44.92
696.823	45.28
697.009	45.68
697.194	46.42
697.38	46.81
697.566	47.12
697.751	47.7
697.937	48.53
698.123	49.14
698.308	49.91
698.494	50.54
698.68	51.16
698.865	51.59
699.051	52.25
699.236	52.6
699.422	53.23
699.607	53.7
699.793	54.23
699.978	54.34
700.164	54.93
700.349	55.6
700.535	56.06
700.72	56.26
700.906	57.04
701.091	57.56
701.276	57.78
701.462	58.59
701.647	59.27
701.832	59.4
702.018	59.85
702.203	59.94
702.388	60.03
702.573	60.45
702.759	61.16
702.944	61.16
703.129	61.72
703.314	62.04
703.499	62.37
703.684	62.66
703.87	63.8
704.055	64.39
704.24	64.57
704.425	65.17
704.61	65.37
704.795	65.21
704.98	65.33
705.165	65.81
705.35	65.99
705.535	66.22
705.72	66.73
705.905	67.22
706.09	67.77
706.275	67.8
706.459	67.96
706.644	67.67
706.829	68.11
707.014	68.12
707.199	68.63
707.384	69.13
707.568	69.57
707.753	69.91
707.938	70.24
708.123	70.08
708.307	70
708.492	70.37
708.677	70.32
708.861	70.13
709.046	70.2
709.231	71.08
709.415	71.58
709.6	71.13
709.784	71.39
709.969	71.98
710.153	71.78
710.338	71.51
710.522	71.97
710.707	72.46
710.891	72.35
711.076	72.16
711.26	72.13
711.445	72.53
711.629	72.93
711.813	72.93
711.998	73.85
712.182	73.92
712.366	74.18
712.551	74.5
712.735	74.87
712.919	74.63
713.103	75.39
713.288	75.06
713.472	74.8
713.656	75.24
713.84	75.46
714.024	75.61
714.208	75.84
714.393	76.1
714.577	76.44
714.761	76.43
714.945	76.3
715.129	76.71
715.313	77.11
715.497	77.08
715.681	77.62
715.865	77.75
716.049	77.81
716.233	77.39
716.417	77.08
716.601	76.7
716.785	76.89
716.968	77.41
717.152	77.57
717.336	78
717.52	78.03
717.704	78.03
717.888	78.18
718.071	78.54
718.255	78.41
718.439	78.68
718.622	78.87
718.806	78.98
718.99	78.62
719.174	78.64
719.357	78.39
719.541	78.4
719.724	77.94
719.908	78.69
720.092	79.1
720.275	79.58
720.459	79.58
720.642	79.76
720.826	79.43
721.009	79.31
721.193	78.86
721.376	79.11
721.559	79.18
721.743	79.32
721.926	79.47
722.11	79.79
722.293	79.1
722.476	78.62
722.66	78.44
722.843	78.23
723.026	78.04
723.21	78.55
723.393	80.03
723.576	79.92
723.759	79.67
723.942	80.32
724.126	80.4
724.309	79.81
724.492	80.14
724.675	80.41
724.858	80.2
725.041	80.27
725.224	80.44
725.407	80.84
725.59	81.27
725.774	81.33
725.957	80.97
726.14	80.59
726.322	80.63
726.505	80.4
726.688	81.16
726.871	81.54
727.054	81.82
727.237	81.77
727.42	82.4
727.603	82.7
727.786	83.07
727.968	83.18
728.151	83.25
728.334	82.69
728.517	81.83
728.699	81.94
728.882	81.19
729.065	81.35
729.248	82.11
729.43	82.24
729.613	82.56
729.796	84.1
729.978	83.2
730.161	83.01
730.343	83.17
730.526	83.91
730.708	82.88
730.891	83.89
731.073	83.13
731.256	82.77
731.438	82.56
731.621	83.59
731.803	83.23
731.986	83.8
732.168	84.1
732.35	83.23
732.533	82.82
732.715	83.33
732.898	84.04
733.08	83.97
733.262	84.85
733.444	84.49
733.627	84.23
733.809	84.07
733.991	85.44
734.173	84.24
734.355	84.43
734.538	85.06
734.72	84.34
734.902	83.7
735.084	84.7
735.266	84.94
735.448	84.43
735.63	84.68
735.812	84.94
735.994	85.38
736.176	85.56
736.358	85.96
736.54	87.08
736.722	86.05
736.904	85.06
737.086	85.06
737.268	85.83
737.45	85.9
737.632	85.98
737.814	85.86
737.995	86.18
738.177	84.88
738.359	84.12
738.541	85.13
738.723	86.16
738.904	86.12
739.086	86.39
739.268	86.29
739.449	85.95
739.631	85.82
739.813	85.78
739.994	86.24
740.176	86.61
740.358	86.7
740.539	86.71
740.721	86.98
740.902	87.47
741.084	87.29
741.265	87.54
741.447	87.9
741.628	88.72
741.81	88
741.991	89.59
742.172	89.7
742.354	89.54
742.535	88.23
742.717	88.82
742.898	87.78
743.079	88.18
743.261	88.15
743.442	87.68
743.623	89.06
743.804	88.87
743.986	88.8
744.167	87.37
744.348	87.75
744.529	85.79
744.71	84.66
744.891	84.19
745.073	84.78
745.254	85.21
745.435	85.36
745.616	85.73
745.797	84.94
745.978	85.04
746.159	85.01
746.34	83.95
746.521	85.47
746.702	85
746.883	85.39
747.064	85.14
747.245	85.69
747.426	84.97
747.606	85.5
747.787	86.18
747.968	85.66
748.149	86.74
748.33	87.07
748.51	88.44
748.691	86.98
748.872	88.88
749.053	87.87
749.233	87.43
749.414	85.71
749.595	85.14
749.775	82.98
749.956	82.24
750.137	81.95
750.317	83.66
750.498	85.9
750.678	87.23
750.859	88.97
751.04	89.57
751.22	88.19
751.4	86.38
751.581	84.87
751.761	84.8
751.942	84.66
752.122	85.08
752.303	85.65
752.483	85.04
752.663	83.92
752.844	83.32
753.024	84.46
753.204	84.89
753.385	85.13
753.565	85.68
753.745	85.53
753.925	84.41
754.106	83.23
754.286	82.77
754.466	83.45
754.646	84.85
754.826	83.82
755.006	83.98
755.187	85.84
755.367	85.93
755.547	85.31
755.727	86.87
755.907	87.67
756.087	88.25
756.267	87.17
756.447	85.92
756.627	83.58
756.807	85.28
756.987	83.77
757.167	83.79
757.346	83.77
757.526	84.42
757.706	83.02
757.886	84.29
758.066	85.84
758.246	88.28
758.425	88.68
758.605	87.32
758.785	87.13
758.965	86.23
759.144	82.62
759.324	83.63
759.504	83.52
759.683	82.37
759.863	80.98
760.043	81.67
760.222	81.13
760.402	82.59
760.581	83.13
760.761	84.55
760.94	84.03
761.12	85.66
761.299	85.15
761.479	85.06
761.658	84.06
761.838	85.44
762.017	83.59
762.197	84.29
762.376	84.83
762.555	86.23
762.735	86.14
762.914	85.52
763.093	84.97
763.273	84.65
763.452	82.69
763.631	82.05
763.81	82.1
763.99	81.48
764.169	82.15
764.348	80.55
764.527	79.14
764.706	80.05
764.885	81.41
765.064	78.77
765.243	79.92
765.423	82.95
765.602	82.72
765.781	80.22
765.96	78.85
766.139	78.63
766.318	77.89
766.497	76.96
766.676	78.37
766.854	82.03
767.033	82.94
767.212	81.79
767.391	82.66
767.57	83.86
767.749	83.38
767.928	80.89
768.106	80.84
768.285	77.51
768.464	76.2
768.643	75.11
768.821	76.83
769	77.46
769.179	79.64
769.357	78.44
769.536	78.26
769.715	79.43
769.893	81.35
770.072	82.3
770.25	82.15
770.429	83.93
770.607	82.95
770.786	79.76
770.964	79.37
771.143	80.52
771.321	80.49
771.5	81.77
771.678	82.56
771.857	81.1
772.035	80.95
772.213	79.33
772.392	77.23
772.57	78.81
772.748	79.83
772.927	78.77
773.105	77.91
773.283	78.41
773.461	79.04
773.64	80.37
773.818	81.56
773.996	83.68
774.174	84.28
774.352	80.49
774.531	76.06
774.709	77.57
774.887	76.3
775.065	75.85
775.243	77.47
775.421	81.52
775.599	81.86
775.777	80.21
775.955	77.9
776.133	75.71
776.311	72.24
776.489	69.44
776.667	69.98
776.844	71.71
777.022	71.7
777.2	71.84
777.378	71.39
777.556	71.16
777.734	74.46
777.911	77.52
778.089	78.18
778.267	78.29
778.445	77.58
778.622	75.64
778.8	72.85
778.978	75.99
779.155	75.9
779.333	77.17
779.511	75.97
779.688	79.8
779.866	75.4
780.043	72.57
780.221	71.9
780.398	69.79
780.576	68.41
780.753	72.01
780.931	72.76
781.108	71.81
781.286	74.2
781.463	71.07
781.64	67.16
781.818	68.83
781.995	70.51
782.172	68.72
782.35	69.72
782.527	73.24
782.704	71.13
782.882	71.59
783.059	76.48
783.236	78.23
783.413	79.51
783.59	81.96
783.768	79.75
783.945	76.9
784.122	76.62
784.299	75.63
784.476	71.59
784.653	70.59
784.83	69.02
785.007	65.68
785.184	66
785.361	67.43
785.538	71.02
785.715	74.68
785.892	75.92
786.069	77.65
786.246	80.95
786.423	81.2
786.6	76.02
786.776	79.5
786.953	76.03
787.13	77.16
787.307	73.89
787.484	76.9
787.66	74.2
787.837	72.51
788.014	70.84
788.191	70.5
788.367	66.73
788.544	69.12
788.721	70.19
788.897	69.07
789.074	71.11
789.25	71.73
789.427	71.88
789.603	70.81
789.78	72.28
789.956	72.44
790.133	72.26
790.309	69.28
790.486	73.22
790.662	69.89
790.839	69.65
791.015	68.54
791.192	67.64
791.368	69.26
791.544	70.14
791.721	68.83
791.897	71.59
792.073	69.93
792.249	59.49
792.426	61.75
792.602	63.39
792.778	62.33
792.954	62.82
793.13	64.47
793.307	55.94
793.483	48.66
793.659	51.82
793.835	57.99
794.011	57.86
794.187	61.34
794.363	65.08
794.539	62.43
794.715	54.14
794.891	53.59
795.067	54.23
795.243	60.76
795.419	58.77
795.595	57.58
795.771	61.4
795.947	63.56
796.122	56.56
796.298	61.98
796.474	64.41
796.65	63.45
796.826	63.77
797.001	69.23
797.177	61.63
797.353	69.31
797.529	72.14
797.704	71.07
797.88	65.26
798.056	67.5
798.231	60.21
798.407	60.59
798.582	57.09
798.758	62.98
798.934	71.21
799.109	69.94
799.285	66.32
799.46	79.12
799.636	75.74
799.811	70.66
799.986	77.1
800.162	80.02
800.337	71.12
800.513	66.22
800.688	66.54
800.863	69.03
801.039	60.21
801.214	54.59
801.389	60.48
801.565	55.29
801.74	41.51
801.915	57.29
802.09	62.21
802.265	62.31
802.441	60.02
802.616	66.04
802.791	60.21
802.966	60.87
803.141	62.13
803.316	59.07
803.491	61.81
803.666	60.07
803.841	51.99
804.016	47.51
804.191	53.62
804.366	49.36
804.541	48.22
804.716	47.48
804.891	43.77
805.066	49.82
805.241	49.92
805.416	48.62
805.591	48.45
805.765	52.2
805.94	49.16
806.115	47.16
806.29	42.78
806.464	51.37
806.639	45.6
806.814	39.79
806.989	31.28
807.163	48.84
807.338	49.26
807.512	44.81
807.687	32.49
807.862	55.57
808.036	49.45
808.211	45.86
808.385	55.68
808.56	74.36
808.734	75.55
808.909	68.7
809.083	69.72
809.258	74.48
809.432	66.89
809.606	44.93
809.781	38.65
809.955	44.07
810.13	46.29
810.304	45.46
810.478	45.56
810.652	58.17
810.827	57.3
811.001	48.68
811.175	45.1
811.349	47.64
811.524	43.09
811.698	25.5
811.872	28.81
812.046	37.52
812.22	46.77
812.394	45.47
812.568	61.2
812.742	61.25
812.916	54.8
813.09	44.42
813.264	45.45
813.438	42.53
813.612	46.16
813.786	47.73
813.96	57.46
814.134	55.63
814.308	65.63
814.482	66.34
814.656	57.28
814.83	61.18
815.003	62.87
815.177	47.4
815.351	38.78
815.525	46.13
815.698	35.57
815.872	20.53
816.046	14.59
816.219	21.36
816.393	33.83
816.567	39.18
816.74	60.32
816.914	76.65
817.088	76.24
817.261	64.78
817.435	54.44
817.608	46.68
817.782	38.34
817.955	48.22
818.129	45.62
818.302	59.16
818.475	68.89
818.649	71.09
818.822	53.08
818.996	75.45
819.169	68.35
819.342	47.82
819.516	53.43
819.689	68.11
819.862	45.27
820.035	44.84
820.209	48.16
820.382	43.65
820.555	34.47
820.728	21.37
820.901	14.9
821.075	8.42
821.248	11.38
821.421	7.18
821.594	19.7
821.767	54.33
821.94	78.81
822.113	49.25
822.286	54.5
822.459	64.75
822.632	48.14
822.805	27.77
822.978	47.64
823.151	30.54
823.324	12.41
823.496	-17.53
823.669	-21.66
823.842	-35.78
824.015	-38.43
824.188	-40.39
824.361	-17.43
824.533	-8.9
824.706	16.08
824.879	19.56
825.051	37.08
825.224	31.84
825.397	17.49
825.569	13.85
825.742	46.19
825.915	46.26
826.087	64.55
826.26	59.3
826.432	57.06
826.605	49.6
826.777	42.72
826.95	44.35
827.122	41.62
827.295	33.42
827.467	39.22
827.64	7.59
827.812	1.28
827.984	-0.43
828.157	-7.95
828.329	-49.55
828.501	-27.38
828.674	-17.74
828.846	-21.28
829.018	1.35
829.19	-11.26
829.363	20.09
829.535	23.71
829.707	31.7
829.879	10.18
830.051	9.24
830.223	-6.75
830.395	-56.09
830.568	-56.96
830.74	-52.29
830.912	-10.82
831.084	-21.97
831.256	-7.3
831.428	-26.53
831.6	-36.81
831.772	-89.08
831.943	-121.39
832.115	-73.58
832.287	-37.06
832.459	-21.32
832.631	4.59
832.803	50.58
832.975	61.08
833.146	57.87
833.318	62.91
833.49	59.36
833.662	7.78
833.833	-10.78
834.005	-6.21
834.177	-19.24
834.348	-31.51
834.52	-31.09
834.692	-40.98
834.863	-92.45
835.035	-54.18
835.206	-67.9
835.378	-40.45
835.549	-32.29
835.721	-5.27
835.892	-19.05
836.064	-29.03
836.235	-35.33
836.407	-26.48
836.578	-63.43
836.749	-42.46
836.921	-66.41
837.092	-90.1
837.264	-86.28
837.435	-88.75
837.606	-42.28
837.777	-10.1
837.949	9.53
838.12	5.05
838.291	28.16
838.462	-3.21
838.633	-17.46
838.805	-13.75
838.976	-7.43
839.147	-92.52
839.318	-64.49
839.489	-128.4
839.66	-125.5
839.831	-51.87
840.002	-33.67
840.173	-60.42
840.344	19.57
840.515	32.96
840.686	-161.68
840.857	-124.81
841.028	-121.6
841.199	-123.87
841.369	-152.08
841.54	-114.73
841.711	-70.78
841.882	-70.23
842.053	-56.2
842.223	-39.77
842.394	0.76
842.565	16.44
842.736	34.23
842.906	27
843.077	37.05
843.248	53.96
843.418	26.55
843.589	-17.01
843.759	31.48
843.93	23.34
844.101	-13.99
844.271	1.36
844.442	31.92
844.612	40.6
844.783	9.12
844.953	-18.54
845.123	-15.21
845.294	-34.24
845.464	-264.63
845.635	-119.11
845.805	-5.45
845.975	-25.86
846.146	-85.26
846.316	-58.25
846.486	-18.75
846.656	-2.18
846.827	-4.35
846.997	-1.65
847.167	21.34
847.337	-1.48
847.507	-19.22
847.677	-11.29
847.848	46.41
848.018	36.28
848.188	42.97
848.358	13.3
848.528	10.15
848.698	-33.89
848.868	-149.17
849.038	-307.25
849.208	-104.98
849.378	-60.65
849.548	-43.33
849.718	-1.16
849.887	26.43
850.057	15.58
850.227	-9.98
850.397	-31.35
850.567	-106.39
850.737	-287.61
850.906	-1190.63
851.076	-910.55
851.246	-476.7
851.415	-59.48
851.585	-60.68
851.755	-82.19
851.924	-34.46
852.094	-68.85
852.264	-194.14
852.433	-1042.79
852.603	-158.54
852.772	-191.98
852.942	-52.11
853.111	-79.23
853.281	-25.47
853.45	-18.75
853.62	-67.45
853.789	-123.52
853.959	-83.3
854.128	-68.12
854.297	-105.71
854.467	-106.95
854.636	-46.51
854.805	-8.21
854.975	-15.22
855.144	1.23
855.313	225.52
855.482	-195.99
855.652	-200.18
855.821	-250.73
855.99	-59.74
856.159	-20.58
856.328	-12.76
856.497	-49.52
856.667	-23.57
856.836	-30.77
857.005	-80.8
857.174	-114.74
857.343	-92.9
857.512	-54.2
857.681	-81.55
857.85	-94.61
858.019	-17.54
858.188	-19.48
858.356	-44.72
858.525	-111.26
858.694	-90.44
858.863	-228.91
859.032	-173.62
859.201	-312.44
859.369	-243.75
859.538	-210.96
859.707	-179.31
859.876	-239.17
860.044	-200.09
860.213	-35.55
860.382	-39.32
860.55	-28.19
860.719	-0.8
860.888	2.25
861.056	-48.42
861.225	-63.93
861.393	-17.45
861.562	1.54
861.73	-57.13
861.899	-226.96
862.067	-987.93
862.236	-82.82
862.404	-304.76
862.572	-170.7
862.741	-60.32
862.909	-83.32
863.078	-205.74
863.246	-131.47
863.414	-110.75
863.582	-75
863.751	-92.87
863.919	-67.74
864.087	-32.13
864.255	-68.22
864.424	-367.53
864.592	-51.19
864.76	-117.58
864.928	-130.8
865.096	-89.33
865.264	-101.48
865.432	-1571.59
865.6	-150.75
865.768	-180.05
865.936	-192.79
866.104	-266.93
866.272	-437.34
866.44	-723.43
866.608	1127.45
866.776	522.75
866.944	4461.63
867.112	-722.67
867.28	-261.13
867.448	-89.59
867.615	-20.57
867.783	10.41
867.951	-6.34
868.119	30.18
868.286	-2.09
868.454	-165.22
868.622	-170.76
868.789	-181.02
868.957	-3246.43
869.125	-2269.74
869.292	-124.2
869.46	-236.72
869.627	-61.34
869.795	-74.05
869.963	-26.41
870.13	-1.91
870.298	32.33
870.465	-36.77
870.632	-65.49
870.8	-67.58
870.967	-117.08
871.135	-218.44
871.302	-147.42
871.469	-156.97
871.637	-175.62
871.804	-122.42
871.971	-156.82
872.139	-623.02
872.306	-78.7
872.473	-113.68
872.64	-525.97
872.807	-249.84
872.975	-30.87
873.142	-310.36
873.309	2590.54
873.476	10.35
873.643	98.12
873.81	55.32
873.977	80.6
874.144	62.78
874.311	-66.71
874.478	-182.29
874.645	-236.42
874.812	-178.94
874.979	-76.19
875.146	-86.87
875.313	-101.98
875.48	-7.59
875.647	-38.28
875.813	-89.53
875.98	-59.98
876.147	-79.24
876.314	-166.1
876.481	1250.83
876.647	-1528.65
876.814	642.75
876.981	-21.35
877.147	-16.27
877.314	14.85
877.481	16.4
877.647	30.13
877.814	-65.89
877.98	-129.69
878.147	-69.34
878.314	6.73
878.48	-69.97
878.647	-5.52
878.813	61.23
878.979	38.58
879.146	-7.34
879.312	0.15
879.479	-49.58
879.645	-138.83
879.811	-267.35
879.978	-804.96
880.144	-197.61
880.31	-120.98
880.477	-460.94
880.643	-569.89
880.809	-208.99
880.975	-218.63
881.142	-1337.73
881.308	-198.34
881.474	-126.53
881.64	-163.4
881.806	-259.28
881.972	-108.48
882.138	-167.09
882.304	-248.56
882.47	-391.91
882.636	-1166.8
882.802	-365.45
882.968	-73.37
883.134	-34.43
883.3	-31.18
883.466	14.28
883.632	23.95
883.798	-3.51
883.964	-12.67
884.129	-28.42
884.295	-21.68
884.461	-45.36
884.627	-99.48
884.793	-126.07
884.958	-64.89
885.124	-147.86
885.29	-225.92
885.455	-439.08
885.621	-179.79
885.787	-256.43
885.952	-146.98
886.118	-158.1
886.283	-101.93
886.449	-148.73
886.614	-139.55
886.78	-275.19
886.945	833.61
887.111	-659.83
887.276	-687.78
887.442	-1296.82
887.607	-580.9
887.773	-387.42
887.938	-287.86
888.103	-306.97
888.269	-142.32
888.434	-265.14
888.599	-157.46
888.764	-81.74
888.93	-63.87
889.095	-81.05
889.26	-120.03
889.425	-75.4
889.59	-51.73
889.756	-42.05
889.921	-30.92
890.086	37.6
890.251	31.79
890.416	-147.94
890.581	-1695.97
890.746	155.89
890.911	455.73
891.076	220.77
891.241	-366.04
891.406	59.28
891.571	-65.05
891.736	-291.06
891.901	-704.87
892.065	664.29
892.23	186.87
892.395	290.9
892.56	433.96
892.725	-212.11
892.889	-1057.32
893.054	-236.12
893.219	-63.34
893.384	-6.31
893.548	-112.85
893.713	-136.49
893.878	-65.19
