Data from Ofra_1a_PS_2GT3_Reflection_2.txt Node
Date: Tue Jul 20 10:49:00 EDT 2021
User: Adam
Spectrometer: FLMT01687
Trigger mode: 0
Integration Time (sec): 1.004000E0
Scans to average: 2
Electric dark correction enabled: true
Nonlinearity correction enabled: false
Boxcar width: 2
XAxis mode: Wavelengths
Number of Pixels in Spectrum: 3648
>>>>>Begin Spectral Data<<<<<
179.494	59.9
179.716	167.94
179.937	-261.54
180.158	765.61
180.38	6.27
180.601	57.6
180.823	103.14
181.044	55.14
181.265	-37.71
181.486	160.53
181.708	173.76
181.929	-12454.55
182.15	105.22
182.372	211.82
182.593	260.17
182.814	-50.59
183.035	-0.47
183.257	0.92
183.478	-1.45
183.699	-39.06
183.92	-70.81
184.141	-56.11
184.363	-59.64
184.584	-80.14
184.805	3.55
185.026	24.77
185.247	11.91
185.468	22.2
185.689	60.72
185.91	34.81
186.132	32.43
186.353	42.59
186.574	30.54
186.795	19.64
187.016	38.41
187.237	22.36
187.458	7.61
187.679	24.73
187.9	27.9
188.121	32.36
188.342	68.69
188.563	65.59
188.784	47.89
189.005	32.79
189.226	40.02
189.447	29.99
189.667	29.49
189.888	35.95
190.109	37.7
190.33	32.03
190.551	29.76
190.772	45.37
190.993	42.15
191.214	1.84
191.434	-34.59
191.655	-45.73
191.876	-25.13
192.097	0.06
192.318	45.07
192.538	42.32
192.759	27.48
192.98	47.5
193.201	31.46
193.421	16.96
193.642	21.12
193.863	24.38
194.083	13.98
194.304	41.66
194.525	54.46
194.745	42.03
194.966	37.59
195.187	22.83
195.407	0.03
195.628	2.71
195.848	2.63
196.069	-6.07
196.29	-1.93
196.51	11.45
196.731	5.03
196.951	-15.1
197.172	3.24
197.392	-6.14
197.613	10.74
197.833	8.4
198.054	22.34
198.274	18.55
198.495	25.74
198.715	15.15
198.936	22.61
199.156	24.32
199.377	8.96
199.597	22.69
199.817	20.9
200.038	-13.09
200.258	14.48
200.479	18.42
200.699	10.12
200.919	10.62
201.14	25.84
201.36	3.54
201.58	-18.25
201.801	-51.97
202.021	-59.23
202.241	-39.55
202.461	-38.38
202.682	-2.03
202.902	29.38
203.122	37.85
203.342	32.36
203.563	24.73
203.783	20.44
204.003	0.04
204.223	3.17
204.443	20.13
204.663	42.76
204.884	50.54
205.104	46.77
205.324	47.6
205.544	-3.38
205.764	17.42
205.984	-5.1
206.204	-4.83
206.424	-44.76
206.644	-74.37
206.864	-136.87
207.084	-60.6
207.304	-80.37
207.525	-39.46
207.745	-0.58
207.964	5.95
208.184	-3.69
208.404	1.34
208.624	1.67
208.844	-5.36
209.064	2.36
209.284	-11.33
209.504	-4.42
209.724	17.16
209.944	18.18
210.164	8.02
210.384	21.32
210.604	-8.14
210.823	-50.69
211.043	-33.49
211.263	-99.37
211.483	-59.42
211.703	-28.08
211.922	-37.6
212.142	-8.25
212.362	32.39
212.582	25.36
212.801	22.13
213.021	6.24
213.241	-28.41
213.461	-37.1
213.68	-3.21
213.9	-11.65
214.12	-20.48
214.339	-16.63
214.559	1.48
214.779	-32.87
214.998	-24.2
215.218	-8.92
215.438	-3.3
215.657	-38.1
215.877	-36.38
216.096	6.08
216.316	25.83
216.535	4.16
216.755	15.11
216.974	13.24
217.194	-30.12
217.413	-29.46
217.633	-17.57
217.852	-5.93
218.072	8.92
218.291	13.31
218.511	2.53
218.73	3.24
218.95	-9.66
219.169	-35.17
219.389	-1.71
219.608	15.75
219.827	21.79
220.047	29.84
220.266	52.16
220.485	14.46
220.705	2.45
220.924	13.32
221.143	27.39
221.363	18.63
221.582	38.62
221.801	39.86
222.021	35.69
222.24	20.26
222.459	47.73
222.678	46.2
222.897	62.21
223.117	72.82
223.336	95.07
223.555	80.31
223.774	98.8
223.993	80.37
224.213	81.56
224.432	62.53
224.651	42.71
224.87	31.76
225.089	50.39
225.308	46.23
225.527	33.84
225.746	45.62
225.965	27.02
226.184	-10.09
226.404	-12.85
226.623	-0.15
226.842	8.27
227.061	15.7
227.28	22.15
227.499	22.06
227.718	25.33
227.936	16.62
228.155	17
228.374	16.77
228.593	21.59
228.812	0.92
229.031	15.92
229.25	7.32
229.469	-2.91
229.688	6.3
229.907	21.45
230.125	21.06
230.344	28.15
230.563	27.7
230.782	19.9
231.001	21.23
231.22	20.91
231.438	22.66
231.657	34.3
231.876	32.53
232.095	31.24
232.313	16.6
232.532	18.81
232.751	8.68
232.969	8.61
233.188	1.58
233.407	4.55
233.625	7.91
233.844	12.3
234.063	4.4
234.281	8.59
234.5	18.02
234.719	11.96
234.937	-3.9
235.156	4.59
235.374	-7.02
235.593	-0.82
235.811	-5.41
236.03	1.86
236.249	-3.46
236.467	4.08
236.686	-0.96
236.904	12.56
237.123	18.13
237.341	30.66
237.559	17.28
237.778	37.07
237.996	25.12
238.215	19.38
238.433	-27.27
238.652	24.15
238.87	-13.09
239.088	-16.16
239.307	-2.19
239.525	11.51
239.743	1.08
239.962	-4.75
240.18	8.66
240.398	20.38
240.617	-3.47
240.835	-2.25
241.053	9.29
241.271	20.81
241.49	18.43
241.708	19.15
241.926	11.78
242.144	15.94
242.363	-7.08
242.581	-33.09
242.799	-14.52
243.017	11.28
243.235	5.84
243.453	-2.2
243.672	4.94
243.89	-6.87
244.108	-4.03
244.326	18.65
244.544	29.64
244.762	24.7
244.98	39.08
245.198	33.12
245.416	20.24
245.634	11.82
245.852	11.28
246.07	26.84
246.288	22.56
246.506	21.77
246.724	27.25
246.942	29.8
247.16	33.36
247.378	50.81
247.596	74.75
247.814	84.38
248.032	60.85
248.25	40.95
248.468	31.53
248.685	22.18
248.903	10.8
249.121	22.21
249.339	20.47
249.557	18.69
249.775	31.25
249.992	41.49
250.21	36.46
250.428	40.35
250.646	47.39
250.863	31.11
251.081	33.83
251.299	33.59
251.517	27.75
251.734	13.81
251.952	24.98
252.17	29.67
252.387	18.12
252.605	22.74
252.823	50.03
253.04	63.13
253.258	62.91
253.475	63
253.693	52.58
253.911	36.55
254.128	10.74
254.346	7.68
254.563	9.78
254.781	3.54
254.998	-9.24
255.216	-30.94
255.433	-73.57
255.651	-80.89
255.868	-73.76
256.086	-55.24
256.303	-29.04
256.521	-12.91
256.738	-10.15
256.956	-6.64
257.173	-15.31
257.39	-1.25
257.608	-3.41
257.825	7.04
258.043	15.12
258.26	18.95
258.477	21.47
258.695	33.83
258.912	25.15
259.129	22.37
259.346	18.71
259.564	0.05
259.781	0.05
259.998	14.98
260.216	21.3
260.433	17.85
260.65	22.05
260.867	10.6
261.084	13.69
261.302	5.84
261.519	23.58
261.736	15.84
261.953	19.58
262.17	18.89
262.387	29.68
262.604	5.29
262.822	15.99
263.039	16.37
263.256	13.63
263.473	0.26
263.69	13.42
263.907	10.04
264.124	4.37
264.341	10.54
264.558	5.65
264.775	5.05
264.992	-2.26
265.209	-22.34
265.426	-46.22
265.643	-20.3
265.86	-30.21
266.077	-15.66
266.294	30.91
266.51	32.45
266.727	28.24
266.944	40.87
267.161	32.14
267.378	34.92
267.595	24.23
267.812	18.27
268.028	8.78
268.245	26.01
268.462	-7.24
268.679	5.97
268.896	20.31
269.112	-6.35
269.329	-21.22
269.546	21.68
269.763	10.41
269.979	-0.64
270.196	22.34
270.413	16.22
270.629	-4.21
270.846	-6.26
271.063	-1.09
271.279	-1.09
271.496	-3.44
271.712	7.2
271.929	18.92
272.146	17.53
272.362	16.05
272.579	16.37
272.795	2.16
273.012	-7
273.228	8.55
273.445	10.9
273.661	12.23
273.878	-0.18
274.094	4.94
274.311	1.8
274.527	-32.62
274.744	-10.1
274.96	8.83
275.177	2.36
275.393	-2.36
275.609	31.23
275.826	25.97
276.042	25.71
276.259	34.44
276.475	41.16
276.691	3.97
276.908	0.71
277.124	0.4
277.34	-21.81
277.557	-37.76
277.773	-22.26
277.989	-6.56
278.205	10.83
278.422	20.66
278.638	30.93
278.854	25.97
279.07	18.47
279.286	0.18
279.503	12.03
279.719	20.66
279.935	10.36
280.151	12.06
280.367	14.73
280.583	-1.56
280.799	-18.31
281.016	-29.88
281.232	-18.82
281.448	-4.67
281.664	-6.44
281.88	5.89
282.096	9.3
282.312	-2.09
282.528	-7
282.744	-4.64
282.96	-5.76
283.176	-4.58
283.392	-28.95
283.608	-10.5
283.824	-16.1
284.04	-57.93
284.256	-31.97
284.471	-3.86
284.687	-6.47
284.903	-3.37
285.119	14.21
285.335	21.5
285.551	21.95
285.767	5.24
285.982	17.05
286.198	3.14
286.414	7.59
286.63	25.74
286.846	44.11
287.061	11.86
287.277	11.6
287.493	-13.29
287.709	-20.05
287.924	-1.83
288.14	23.52
288.356	29.93
288.571	23.26
288.787	23.83
289.003	30.25
289.218	6.52
289.434	1.78
289.65	23.22
289.865	7.57
290.081	4.69
290.296	14.83
290.512	16.09
290.727	13.72
290.943	19.26
291.159	26.47
291.374	2.81
291.59	5.73
291.805	-6.72
292.021	8.09
292.236	-20.15
292.451	7.68
292.667	11.65
292.882	27.42
293.098	17.76
293.313	14.47
293.529	22.44
293.744	4.27
293.959	-8.32
294.175	3.48
294.39	-14.44
294.605	-5.37
294.821	5.29
295.036	4.35
295.251	3.76
295.467	5.67
295.682	9.95
295.897	3.27
296.112	4.56
296.328	5.5
296.543	8.55
296.758	-8.07
296.973	-10.93
297.188	-19.28
297.404	-64.32
297.619	-59.74
297.834	-100.58
298.049	-56.06
298.264	-16.09
298.479	-10.18
298.694	6.9
298.909	20.96
299.125	12.47
299.34	-1.47
299.555	1.54
299.77	32.82
299.985	34.06
300.2	36.84
300.415	38.75
300.63	42.77
300.845	25.44
301.06	31.35
301.275	29.86
301.49	39.73
301.704	28.84
301.919	19.2
302.134	1.61
302.349	-6.58
302.564	-17.01
302.779	-34.07
302.994	-11.57
303.209	-14.06
303.423	-7.95
303.638	-6.65
303.853	-6.06
304.068	-14.28
304.283	2.32
304.497	-19.66
304.712	-6.45
304.927	13.22
305.142	16.04
305.356	18.63
305.571	27.71
305.786	21.69
306	11.83
306.215	-2.51
306.43	-1.97
306.644	3.9
306.859	-5.45
307.074	25.82
307.288	41.13
307.503	49.79
307.717	47.58
307.932	46.38
308.147	24.35
308.361	18.53
308.576	-17.08
308.79	-8.89
309.005	-14.22
309.219	-6.16
309.434	10.87
309.648	18.92
309.863	6.54
310.077	2.58
310.292	21.25
310.506	-5.53
310.72	7.92
310.935	39.73
311.149	48.18
311.364	46.92
311.578	53.18
311.792	50.02
312.007	17.43
312.221	-13.54
312.435	-18.65
312.649	-13.64
312.864	-3.54
313.078	-0.41
313.292	12.17
313.507	31.61
313.721	31.75
313.935	25.63
314.149	33.36
314.363	35.18
314.578	15.4
314.792	-12
315.006	-8.23
315.22	-25.79
315.434	-12.01
315.648	-9.86
315.862	-3.7
316.077	-13.11
316.291	-7.89
316.505	-37.16
316.719	-12.62
316.933	-5
317.147	5.1
317.361	4.5
317.575	8.45
317.789	-0.77
318.003	8.45
318.217	15.4
318.431	28.27
318.645	20.78
318.859	24.87
319.073	23.64
319.287	16.92
319.5	11.82
319.714	12.15
319.928	-0.83
320.142	-5.54
320.356	-2.15
320.57	-3
320.784	8.69
320.997	22.18
321.211	40.34
321.425	49.02
321.639	49.25
321.853	45.21
322.066	41.1
322.28	16.8
322.494	27.09
322.707	22.46
322.921	19.9
323.135	28.36
323.349	34.82
323.562	27.31
323.776	21.6
323.989	27.54
324.203	12.16
324.417	13.63
324.63	2.31
324.844	-0.45
325.057	-27.03
325.271	-12.79
325.485	-19.87
325.698	-8.32
325.912	5.65
326.125	8.83
326.339	10.3
326.552	8.88
326.766	5.55
326.979	2.79
327.193	14.6
327.406	-0.16
327.619	16.66
327.833	9.45
328.046	2.35
328.26	-12.21
328.473	10.36
328.686	-1.02
328.9	5.38
329.113	5.45
329.326	8.22
329.54	2.27
329.753	13.2
329.966	11.96
330.179	11.3
330.393	15.82
330.606	9.8
330.819	-5.05
331.032	4.46
331.246	10.55
331.459	21.65
331.672	21.74
331.885	43.66
332.098	38.9
332.311	21
332.525	12.42
332.738	12.65
332.951	-3.84
333.164	2.02
333.377	18.94
333.59	14.49
333.803	19.18
334.016	24.25
334.229	25.41
334.442	13.2
334.655	21.71
334.868	3
335.081	5.21
335.294	-10.47
335.507	4.78
335.72	-4.37
335.933	5.51
336.146	-8.17
336.359	3.68
336.572	-1.25
336.785	-3.28
336.997	-14.14
337.21	-7.17
337.423	-16.79
337.636	-18.85
337.849	-17.4
338.062	-1.25
338.274	8.52
338.487	-3.6
338.7	-15.37
338.913	-0.87
339.125	-7.81
339.338	-11.78
339.551	1.34
339.763	16.43
339.976	18.61
340.189	18.13
340.402	19.74
340.614	18.91
340.827	20.87
341.039	8.17
341.252	4.54
341.465	5.43
341.677	12.73
341.89	3.8
342.102	22.84
342.315	26.55
342.527	22.33
342.74	7.1
342.952	0.03
343.165	-12.01
343.377	2.43
343.59	-7.85
343.802	1.85
344.015	16.01
344.227	10.76
344.44	-16.36
344.652	-1.98
344.864	-1.31
345.077	-8.05
345.289	3.35
345.502	28.23
345.714	16.56
345.926	16.31
346.139	8.6
346.351	6.25
346.563	8.61
346.775	12.3
346.988	29.95
347.2	30.61
347.412	32.07
347.624	29.14
347.837	41.16
348.049	28.46
348.261	21.76
348.473	1.97
348.685	-6.69
348.897	-14.64
349.11	-0.13
349.322	21.52
349.534	34.06
349.746	47.46
349.958	35.49
350.17	16.89
350.382	-13.59
350.594	-9.65
350.806	-2.53
351.018	11.71
351.23	23.36
351.442	34.51
351.654	27.49
351.866	13.74
352.078	8.16
352.29	2.23
352.502	-1.22
352.714	19.76
352.926	17.78
353.138	28.68
353.35	26.94
353.561	23.79
353.773	15.41
353.985	18.13
354.197	16.22
354.409	14.19
354.621	6.83
354.832	-1.64
355.044	-20.72
355.256	-29.69
355.468	-23.42
355.679	1.21
355.891	19.46
356.103	27.51
356.314	24.47
356.526	26.41
356.738	17.63
356.949	8.76
357.161	35.31
357.373	32.73
357.584	30.34
357.796	39.28
358.008	37.66
358.219	24.41
358.431	23.34
358.642	28.25
358.854	28.01
359.065	28.2
359.277	26.52
359.488	26.72
359.7	18.7
359.911	-0.53
360.123	3.86
360.334	-22.51
360.546	-15.17
360.757	-11.75
360.969	-5.41
361.18	1.99
361.391	20.08
361.603	23.35
361.814	22.16
362.025	32.87
362.237	20.87
362.448	21.84
362.659	18.25
362.871	5.9
363.082	-1.82
363.293	-9.9
363.504	-27.18
363.716	-34.48
363.927	4.62
364.138	-14.6
364.349	-8.07
364.56	-8.3
364.772	12.33
364.983	6.54
365.194	18.42
365.405	19.3
365.616	36.46
365.827	20.05
366.038	24.75
366.25	19.64
366.461	15.13
366.672	5.43
366.883	5.2
367.094	-0.12
367.305	-6.35
367.516	3.5
367.727	3.84
367.938	0.76
368.149	-23.2
368.36	-18.15
368.571	-36.44
368.781	-38.47
368.992	-31.25
369.203	-19.58
369.414	-22.23
369.625	-10.17
369.836	12.28
370.047	18.33
370.258	36.8
370.468	37.17
370.679	28.15
370.89	13.41
371.101	15.27
371.312	9.25
371.522	12.16
371.733	13.95
371.944	1.62
372.155	-1.71
372.365	5.11
372.576	-1.05
372.787	7.43
372.997	17.28
373.208	16.21
373.419	5.23
373.629	9.93
373.84	8.21
374.05	10.55
374.261	8.74
374.472	11.59
374.682	15.63
374.893	16.11
375.103	23.09
375.314	15.97
375.524	19.16
375.735	24.24
375.945	13.38
376.156	4.85
376.366	19.51
376.577	12.74
376.787	12.23
376.997	24.75
377.208	21.08
377.418	8.4
377.629	8.73
377.839	0.83
378.049	-2.15
378.26	-1.43
378.47	6.07
378.68	12.14
378.89	14.05
379.101	9.7
379.311	10.04
379.521	-1.9
379.732	4.14
379.942	0.33
380.152	-2.6
380.362	-0.62
380.572	22.24
380.783	15.58
380.993	17.63
381.203	16.4
381.413	16.91
381.623	10.43
381.833	12.4
382.043	7.9
382.253	14.82
382.463	19.03
382.674	15.22
382.884	17.05
383.094	26.74
383.304	26.14
383.514	24
383.724	24.48
383.934	16.01
384.144	8.89
384.353	13.96
384.563	14.72
384.773	16.53
384.983	14.36
385.193	12.12
385.403	5.1
385.613	7.88
385.823	9.67
386.033	11.81
386.242	12.9
386.452	7.98
386.662	4.78
386.872	0.49
387.082	1.67
387.291	-4.76
387.501	-0.83
387.711	2.11
387.921	3.72
388.13	4.76
388.34	8.45
388.55	6.33
388.759	-4.51
388.969	-5.73
389.179	-3.91
389.388	-1.41
389.598	-5.36
389.807	-3.78
390.017	-4.56
390.227	-6.71
390.436	-4.02
390.646	0.46
390.855	6.24
391.065	8.31
391.274	8.71
391.484	6.54
391.693	4.25
391.903	0.82
392.112	0.73
392.322	-0.57
392.531	-1.76
392.74	0.03
392.95	1.74
393.159	1.5
393.369	2.56
393.578	4.02
393.787	4.94
393.997	5.21
394.206	4.93
394.415	6.1
394.625	5.38
394.834	3.14
395.043	2.05
395.252	3.18
395.462	2.44
395.671	2.49
395.88	4.17
396.089	4.24
396.298	3.31
396.508	3.93
396.717	4.09
396.926	3.18
397.135	3.41
397.344	3.03
397.553	2.22
397.762	3.18
397.971	3.72
398.181	4.05
398.39	4.55
398.599	4.49
398.808	3.73
399.017	4.56
399.226	4.7
399.435	4.43
399.644	4.97
399.853	4.8
400.062	3.81
400.27	3.32
400.479	3.4
400.688	3.19
400.897	3.73
401.106	3.72
401.315	3.92
401.524	4.08
401.733	3.98
401.941	3.4
402.15	3.48
402.359	3.48
402.568	3.72
402.777	4.14
402.985	4.19
403.194	4.26
403.403	4.47
403.612	3.97
403.82	3.42
404.029	3.69
404.238	3.62
404.446	3.5
404.655	3.84
404.864	3.87
405.072	3.78
405.281	3.87
405.489	3.7
405.698	3.72
405.906	4.01
406.115	3.83
406.324	3.89
406.532	4.12
406.741	3.95
406.949	3.9
407.158	4.08
407.366	3.99
407.574	4
407.783	4.08
407.991	3.98
408.2	4.07
408.408	4.01
408.617	3.83
408.825	3.59
409.033	3.54
409.242	3.46
409.45	3.54
409.658	3.47
409.867	3.5
410.075	3.6
410.283	3.44
410.491	3.42
410.7	3.44
410.908	3.44
411.116	3.43
411.324	3.5
411.533	3.47
411.741	3.52
411.949	3.68
412.157	3.58
412.365	3.65
412.573	3.67
412.781	3.59
412.99	3.5
413.198	3.54
413.406	3.54
413.614	3.61
413.822	3.83
414.03	3.85
414.238	3.93
414.446	3.83
414.654	3.6
414.862	3.41
415.07	3.28
415.278	3.27
415.486	3.14
415.694	3.17
415.902	3.07
416.109	3.08
416.317	2.9
416.525	2.94
416.733	3.05
416.941	3.14
417.149	3.11
417.357	3.15
417.564	3.23
417.772	3.28
417.98	3.2
418.188	3.27
418.395	3.07
418.603	2.94
418.811	2.76
419.019	2.9
419.226	3.03
419.434	3.15
419.642	3.09
419.849	3.12
420.057	3.08
420.265	2.87
420.472	2.86
420.68	3.03
420.887	2.96
421.095	3.03
421.302	3.16
421.51	3.08
421.717	3.1
421.925	3.2
422.132	3.07
422.34	2.84
422.547	2.9
422.755	2.9
422.962	2.8
423.17	2.72
423.377	2.9
423.585	3.03
423.792	2.82
423.999	2.87
424.207	2.84
424.414	2.86
424.621	2.85
424.829	2.94
425.036	2.95
425.243	3.09
425.451	3.06
425.658	2.99
425.865	3.04
426.072	3.04
426.28	2.99
426.487	3.05
426.694	2.91
426.901	2.94
427.108	2.98
427.315	2.91
427.523	2.61
427.73	2.64
427.937	2.57
428.144	2.52
428.351	2.54
428.558	2.83
428.765	3
428.972	3.09
429.179	3.07
429.386	3.14
429.593	3.08
429.8	3.04
430.007	3
430.214	3.06
430.421	3.12
430.628	3.14
430.835	3.15
431.042	3.03
431.249	2.92
431.456	2.83
431.662	2.85
431.869	3.02
432.076	3.09
432.283	3.27
432.49	3.27
432.697	3.24
432.903	3.01
433.11	3.18
433.317	3.19
433.524	3.3
433.73	3.3
433.937	3.53
434.144	3.32
434.35	3.15
434.557	3.06
434.764	2.97
434.97	2.8
435.177	2.91
435.384	3.13
435.59	3.14
435.797	3.26
436.003	3.34
436.21	3.33
436.416	3.23
436.623	3.26
436.829	3.23
437.036	3.2
437.242	3.22
437.449	3.28
437.655	3.33
437.862	3.39
438.068	3.39
438.275	3.48
438.481	3.51
438.687	3.46
438.894	3.45
439.1	3.42
439.307	3.46
439.513	3.52
439.719	3.61
439.926	3.69
440.132	3.81
440.338	3.84
440.544	3.72
440.751	3.67
440.957	3.72
441.163	3.53
441.369	3.4
441.575	3.41
441.782	3.49
441.988	3.42
442.194	3.58
442.4	3.65
442.606	3.9
442.812	3.8
443.018	3.82
443.224	3.94
443.431	3.89
443.637	3.7
443.843	3.81
444.049	3.86
444.255	3.81
444.461	3.88
444.667	3.85
444.873	3.87
445.079	3.82
445.284	3.83
445.49	3.8
445.696	3.8
445.902	3.83
446.108	3.94
446.314	3.98
446.52	4.07
446.726	4.1
446.931	4.02
447.137	3.95
447.343	3.92
447.549	3.9
447.755	3.86
447.96	3.95
448.166	3.9
448.372	3.84
448.578	3.75
448.783	3.89
448.989	3.83
449.195	3.9
449.4	3.93
449.606	4
449.812	3.85
450.017	3.91
450.223	3.92
450.428	3.93
450.634	3.89
450.84	3.97
451.045	3.97
451.251	3.97
451.456	4.05
451.662	4.12
451.867	4.16
452.073	4.16
452.278	4.21
452.483	4.2
452.689	4.22
452.894	4.25
453.1	4.23
453.305	4.27
453.51	4.25
453.716	4.22
453.921	4.28
454.127	4.28
454.332	4.13
454.537	4.12
454.742	4.12
454.948	4.06
455.153	4.06
455.358	4.17
455.563	4.32
455.769	4.34
455.974	4.3
456.179	4.28
456.384	4.19
456.589	3.97
456.795	3.99
457	4.11
457.205	4.11
457.41	4.13
457.615	4.19
457.82	4.22
458.025	4.17
458.23	4.21
458.435	4.29
458.64	4.37
458.845	4.43
459.05	4.42
459.255	4.45
459.46	4.41
459.665	4.37
459.87	4.32
460.075	4.39
460.28	4.46
460.485	4.51
460.69	4.53
460.895	4.65
461.099	4.54
461.304	4.45
461.509	4.47
461.714	4.56
461.919	4.42
462.123	4.47
462.328	4.41
462.533	4.33
462.738	4.22
462.942	4.18
463.147	4.27
463.352	4.36
463.556	4.56
463.761	4.57
463.966	4.64
464.17	4.63
464.375	4.7
464.58	4.51
464.784	4.61
464.989	4.68
465.193	4.65
465.398	4.64
465.602	4.87
465.807	4.85
466.011	4.85
466.216	4.81
466.42	4.87
466.625	4.83
466.829	4.82
467.034	4.99
467.238	5.11
467.443	5.04
467.647	5.02
467.851	5.11
468.056	4.95
468.26	4.92
468.464	4.96
468.669	5.01
468.873	4.92
469.077	4.91
469.282	4.92
469.486	4.88
469.69	4.88
469.894	4.93
470.099	5
470.303	5
470.507	5.07
470.711	5.01
470.915	5.11
471.119	5.13
471.324	5.23
471.528	5.29
471.732	5.4
471.936	5.37
472.14	5.4
472.344	5.43
472.548	5.43
472.752	5.37
472.956	5.42
473.16	5.41
473.364	5.42
473.568	5.43
473.772	5.47
473.976	5.56
474.18	5.61
474.384	5.58
474.588	5.61
474.792	5.56
474.995	5.5
475.199	5.43
475.403	5.47
475.607	5.47
475.811	5.54
476.015	5.49
476.218	5.56
476.422	5.53
476.626	5.52
476.83	5.59
477.033	5.69
477.237	5.7
477.441	5.72
477.644	5.76
477.848	5.77
478.052	5.79
478.255	5.85
478.459	5.88
478.663	5.9
478.866	5.9
479.07	5.85
479.273	5.93
479.477	5.91
479.681	5.93
479.884	5.94
480.088	5.97
480.291	5.86
480.495	5.87
480.698	5.87
480.901	5.91
481.105	5.95
481.308	6.01
481.512	6.05
481.715	6.08
481.919	6.08
482.122	6.05
482.325	6.08
482.529	6.02
482.732	6.02
482.935	5.95
483.138	5.99
483.342	5.99
483.545	6.15
483.748	6.19
483.952	6.24
484.155	6.3
484.358	6.29
484.561	6.22
484.764	6.17
484.967	6.16
485.171	6.11
485.374	6.04
485.577	6.04
485.78	6.09
485.983	6.1
486.186	6.05
486.389	6.08
486.592	6.1
486.795	6.13
486.998	6.15
487.201	6.22
487.404	6.37
487.607	6.37
487.81	6.35
488.013	6.36
488.216	6.33
488.419	6.23
488.622	6.18
488.825	6.19
489.028	6.22
489.231	6.25
489.433	6.18
489.636	6.22
489.839	6.24
490.042	6.19
490.245	6.19
490.447	6.25
490.65	6.32
490.853	6.33
491.056	6.34
491.258	6.36
491.461	6.41
491.664	6.36
491.866	6.35
492.069	6.41
492.272	6.34
492.474	6.37
492.677	6.41
492.879	6.42
493.082	6.44
493.285	6.52
493.487	6.54
493.69	6.56
493.892	6.55
494.095	6.56
494.297	6.59
494.5	6.57
494.702	6.63
494.905	6.67
495.107	6.67
495.309	6.71
495.512	6.71
495.714	6.66
495.917	6.74
496.119	6.75
496.321	6.76
496.524	6.74
496.726	6.78
496.928	6.75
497.13	6.73
497.333	6.69
497.535	6.84
497.737	6.81
497.939	6.84
498.142	6.91
498.344	6.99
498.546	6.93
498.748	7.03
498.95	7.08
499.152	7.1
499.355	7.13
499.557	7.21
499.759	7.27
499.961	7.26
500.163	7.29
500.365	7.35
500.567	7.31
500.769	7.3
500.971	7.34
501.173	7.3
501.375	7.37
501.577	7.35
501.779	7.34
501.981	7.36
502.183	7.45
502.385	7.39
502.587	7.47
502.788	7.54
502.99	7.51
503.192	7.57
503.394	7.57
503.596	7.59
503.798	7.52
503.999	7.55
504.201	7.51
504.403	7.58
504.605	7.59
504.806	7.71
505.008	7.79
505.21	7.86
505.411	7.85
505.613	7.85
505.815	7.84
506.016	7.89
506.218	7.91
506.42	7.89
506.621	8
506.823	8.01
507.024	7.96
507.226	7.98
507.427	8.04
507.629	8.01
507.83	8.02
508.032	8.02
508.233	8.03
508.435	8.07
508.636	8.12
508.838	8.13
509.039	8.13
509.24	8.09
509.442	8.05
509.643	7.99
509.845	8
510.046	8.08
510.247	8.14
510.448	8.18
510.65	8.23
510.851	8.23
511.052	8.19
511.254	8.18
511.455	8.2
511.656	8.17
511.857	8.2
512.058	8.19
512.26	8.15
512.461	8.17
512.662	8.19
512.863	8.15
513.064	8.19
513.265	8.22
513.466	8.2
513.667	8.21
513.868	8.2
514.069	8.19
514.27	8.29
514.471	8.32
514.672	8.4
514.873	8.46
515.074	8.49
515.275	8.41
515.476	8.4
515.677	8.39
515.878	8.39
516.079	8.38
516.28	8.41
516.481	8.38
516.682	8.35
516.882	8.37
517.083	8.37
517.284	8.39
517.485	8.44
517.686	8.48
517.886	8.48
518.087	8.49
518.288	8.54
518.488	8.53
518.689	8.51
518.89	8.5
519.091	8.55
519.291	8.47
519.492	8.54
519.692	8.59
519.893	8.64
520.094	8.59
520.294	8.66
520.495	8.56
520.695	8.6
520.896	8.59
521.096	8.63
521.297	8.66
521.497	8.71
521.698	8.68
521.898	8.66
522.099	8.69
522.299	8.68
522.499	8.71
522.7	8.8
522.9	8.82
523.101	8.82
523.301	8.87
523.501	8.89
523.702	8.89
523.902	8.91
524.102	8.98
524.302	9
524.503	9
524.703	8.95
524.903	8.95
525.103	8.86
525.304	8.87
525.504	8.92
525.704	8.95
525.904	8.99
526.104	9.06
526.304	9.04
526.504	9.03
526.705	9.06
526.905	9.09
527.105	9.05
527.305	9.06
527.505	9
527.705	8.98
527.905	9.02
528.105	9.01
528.305	9.02
528.505	9.13
528.705	9.26
528.905	9.25
529.105	9.29
529.304	9.33
529.504	9.31
529.704	9.23
529.904	9.26
530.104	9.35
530.304	9.31
530.503	9.37
530.703	9.34
530.903	9.34
531.103	9.38
531.303	9.42
531.502	9.46
531.702	9.52
531.902	9.56
532.101	9.51
532.301	9.54
532.501	9.56
532.7	9.59
532.9	9.59
533.1	9.63
533.299	9.67
533.499	9.65
533.698	9.63
533.898	9.69
534.097	9.72
534.297	9.71
534.496	9.72
534.696	9.76
534.895	9.75
535.095	9.83
535.294	9.86
535.494	9.9
535.693	9.95
535.892	10.03
536.092	9.97
536.291	10.02
536.491	10.04
536.69	10.05
536.889	9.98
537.088	10.04
537.288	10.06
537.487	10.09
537.686	10.05
537.886	10.11
538.085	10.06
538.284	10.14
538.483	10.17
538.682	10.24
538.882	10.29
539.081	10.4
539.28	10.39
539.479	10.42
539.678	10.46
539.877	10.5
540.076	10.48
540.275	10.53
540.474	10.49
540.673	10.57
540.872	10.62
541.071	10.67
541.27	10.72
541.469	10.82
541.668	10.82
541.867	10.85
542.066	10.87
542.265	10.91
542.464	10.92
542.663	10.99
542.862	11.05
543.06	11.12
543.259	11.19
543.458	11.25
543.657	11.29
543.856	11.28
544.054	11.32
544.253	11.31
544.452	11.4
544.651	11.46
544.849	11.48
545.048	11.56
545.247	11.66
545.445	11.63
545.644	11.67
545.843	11.72
546.041	11.7
546.24	11.67
546.438	11.8
546.637	11.86
546.836	11.97
547.034	12.06
547.233	12.17
547.431	12.16
547.63	12.16
547.828	12.18
548.027	12.28
548.225	12.28
548.423	12.4
548.622	12.48
548.82	12.53
549.019	12.56
549.217	12.64
549.415	12.62
549.614	12.78
549.812	12.86
550.01	12.91
550.209	13.01
550.407	13.12
550.605	13.07
550.803	13.17
551.002	13.31
551.2	13.33
551.398	13.49
551.596	13.69
551.794	13.76
551.993	13.78
552.191	13.87
552.389	13.93
552.587	13.96
552.785	13.91
552.983	14.04
553.181	14.17
553.379	14.22
553.577	14.23
553.775	14.45
553.973	14.54
554.171	14.52
554.369	14.62
554.567	14.75
554.765	14.78
554.963	14.86
555.161	14.99
555.359	15.07
555.557	15.1
555.755	15.21
555.952	15.29
556.15	15.42
556.348	15.48
556.546	15.69
556.744	15.74
556.941	15.8
557.139	15.92
557.337	16.04
557.535	16.02
557.732	16.14
557.93	16.31
558.128	16.42
558.325	16.52
558.523	16.66
558.721	16.79
558.918	16.87
559.116	17.03
559.313	17.1
559.511	17.22
559.708	17.26
559.906	17.4
560.104	17.45
560.301	17.58
560.498	17.68
560.696	17.79
560.893	17.93
561.091	18.04
561.288	18.21
561.486	18.33
561.683	18.5
561.88	18.58
562.078	18.68
562.275	18.77
562.473	18.82
562.67	18.91
562.867	18.98
563.064	19.15
563.262	19.17
563.459	19.33
563.656	19.44
563.853	19.5
564.051	19.59
564.248	19.74
564.445	19.87
564.642	19.95
564.839	20.11
565.036	20.29
565.234	20.43
565.431	20.51
565.628	20.62
565.825	20.77
566.022	20.87
566.219	20.9
566.416	21.02
566.613	21.19
566.81	21.22
567.007	21.17
567.204	21.28
567.401	21.31
567.598	21.37
567.795	21.45
567.991	21.52
568.188	21.68
568.385	21.8
568.582	21.84
568.779	22.01
568.976	22.12
569.172	22.24
569.369	22.39
569.566	22.52
569.763	22.49
569.96	22.57
570.156	22.63
570.353	22.56
570.55	22.62
570.746	22.75
570.943	22.91
571.14	22.96
571.336	23
571.533	23.04
571.729	23.02
571.926	23.02
572.123	23.05
572.319	23.22
572.516	23.35
572.712	23.47
572.909	23.44
573.105	23.47
573.302	23.47
573.498	23.44
573.695	23.45
573.891	23.52
574.087	23.52
574.284	23.6
574.48	23.63
574.677	23.66
574.873	23.76
575.069	23.87
575.266	23.93
575.462	24.03
575.658	24.08
575.854	24.03
576.051	24.06
576.247	23.98
576.443	23.98
576.639	23.97
576.835	24.01
577.032	23.99
577.228	23.98
577.424	23.98
577.62	24.02
577.816	24.06
578.012	24.2
578.208	24.28
578.404	24.31
578.6	24.39
578.796	24.5
578.993	24.45
579.189	24.5
579.384	24.54
579.58	24.45
579.776	24.4
579.972	24.48
580.168	24.44
580.364	24.48
580.56	24.46
580.756	24.44
580.952	24.31
581.148	24.39
581.343	24.34
581.539	24.44
581.735	24.53
581.931	24.48
582.127	24.38
582.322	24.32
582.518	24.26
582.714	24.13
582.909	24.22
583.105	24.29
583.301	24.37
583.496	24.3
583.692	24.26
583.888	24.26
584.083	24.21
584.279	24.04
584.474	24.04
584.67	24.06
584.866	23.97
585.061	23.94
585.257	24.05
585.452	24.06
585.648	23.98
585.843	24.04
586.039	24.1
586.234	24.14
586.429	24.11
586.625	24.24
586.82	24.27
587.015	24.22
587.211	24.16
587.406	24.2
587.601	24.19
587.797	24.17
587.992	24.13
588.187	24.16
588.383	24.23
588.578	24.26
588.773	24.27
588.968	24.33
589.163	24.32
589.359	24.24
589.554	24.2
589.749	24.19
589.944	24.31
590.139	24.29
590.334	24.38
590.529	24.5
590.724	24.69
590.919	24.57
591.114	24.65
591.309	24.65
591.504	24.65
591.699	24.6
591.894	24.62
592.089	24.64
592.284	24.73
592.479	24.74
592.674	24.77
592.869	24.88
593.064	25.01
593.259	25
593.454	25.04
593.648	25.08
593.843	25.15
594.038	25.2
594.233	25.24
594.428	25.38
594.622	25.49
594.817	25.56
595.012	25.57
595.206	25.72
595.401	25.8
595.596	25.78
595.79	25.86
595.985	25.99
596.18	26.03
596.374	26.18
596.569	26.36
596.763	26.34
596.958	26.42
597.153	26.47
597.347	26.38
597.542	26.43
597.736	26.66
597.931	26.71
598.125	26.87
598.319	26.99
598.514	27.03
598.708	27
598.903	27.08
599.097	27.14
599.291	27.19
599.486	27.39
599.68	27.54
599.874	27.59
600.069	27.78
600.263	27.93
600.457	27.88
600.651	27.95
600.846	27.99
601.04	27.92
601.234	27.89
601.428	27.93
601.622	27.97
601.817	28.1
602.011	28.09
602.205	28.12
602.399	28.14
602.593	28.1
602.787	27.99
602.981	27.98
603.175	28.05
603.369	27.97
603.563	28.09
603.757	28.13
603.951	28.2
604.145	28.18
604.339	28.34
604.533	28.18
604.727	28.18
604.921	28.13
605.115	28.06
605.309	27.87
605.502	27.9
605.696	27.83
605.89	27.89
606.084	27.98
606.278	28.05
606.471	27.93
606.665	27.9
606.859	27.76
607.053	27.58
607.246	27.51
607.44	27.42
607.634	27.46
607.827	27.4
608.021	27.28
608.214	27.18
608.408	27.25
608.602	27
608.795	27.01
608.989	27.06
609.182	26.95
609.376	26.88
609.569	26.88
609.763	26.81
609.956	26.74
610.15	26.74
610.343	26.67
610.537	26.66
610.73	26.42
610.923	26.28
611.117	26.25
611.31	26.1
611.504	25.99
611.697	25.98
611.89	25.87
612.083	25.64
612.277	25.61
612.47	25.6
612.663	25.61
612.856	25.65
613.05	25.68
613.243	25.55
613.436	25.45
613.629	25.31
613.822	25.23
614.015	25.15
614.209	25.1
614.402	24.98
614.595	25.01
614.788	24.9
614.981	24.8
615.174	24.77
615.367	24.66
615.56	24.44
615.753	24.45
615.946	24.45
616.139	24.32
616.332	24.32
616.525	24.26
616.718	24.07
616.911	24
617.103	24.02
617.296	23.94
617.489	23.85
617.682	23.82
617.875	23.72
618.067	23.65
618.26	23.65
618.453	23.66
618.646	23.68
618.838	23.65
619.031	23.59
619.224	23.55
619.417	23.64
619.609	23.6
619.802	23.56
619.994	23.56
620.187	23.44
620.38	23.27
620.572	23.15
620.765	23.17
620.957	23.08
621.15	23.04
621.342	23.04
621.535	23.05
621.727	22.96
621.92	22.93
622.112	22.93
622.305	22.89
622.497	22.79
622.69	22.85
622.882	22.84
623.074	22.82
623.267	22.82
623.459	22.76
623.651	22.68
623.844	22.77
624.036	22.78
624.228	22.79
624.42	22.81
624.613	22.69
624.805	22.58
624.997	22.51
625.189	22.5
625.381	22.44
625.574	22.43
625.766	22.38
625.958	22.38
626.15	22.27
626.342	22.31
626.534	22.34
626.726	22.22
626.918	22.17
627.11	22.03
627.302	21.93
627.494	21.88
627.686	21.86
627.878	21.87
628.07	21.96
628.262	21.99
628.454	21.96
628.646	21.98
628.838	21.97
629.029	21.87
629.221	21.81
629.413	21.76
629.605	21.67
629.797	21.54
629.989	21.55
630.18	21.51
630.372	21.48
630.564	21.47
630.755	21.49
630.947	21.47
631.139	21.4
631.33	21.35
631.522	21.29
631.714	21.3
631.905	21.32
632.097	21.32
632.289	21.23
632.48	21.26
632.672	21.15
632.863	21.06
633.055	21.11
633.246	21.09
633.438	21.03
633.629	21.06
633.821	21.05
634.012	21.01
634.203	21.01
634.395	21
634.586	20.96
634.777	20.95
634.969	20.88
635.16	20.88
635.351	20.88
635.543	20.75
635.734	20.68
635.925	20.68
636.117	20.78
636.308	20.76
636.499	20.82
636.69	20.85
636.881	20.86
637.073	20.77
637.264	20.74
637.455	20.79
637.646	20.77
637.837	20.75
638.028	20.65
638.219	20.74
638.41	20.74
638.601	20.71
638.792	20.7
638.983	20.76
639.174	20.62
639.365	20.52
639.556	20.4
639.747	20.36
639.938	20.45
640.129	20.49
640.32	20.57
640.511	20.63
640.701	20.59
640.892	20.44
641.083	20.33
641.274	20.2
641.465	20.15
641.655	20.12
641.846	20.06
642.037	20.03
642.228	19.93
642.418	19.87
642.609	19.92
642.8	19.93
642.99	19.92
643.181	19.93
643.372	20.01
643.562	19.95
643.753	19.88
643.943	19.87
644.134	19.83
644.324	19.77
644.515	19.77
644.705	19.75
644.896	19.83
645.086	19.92
645.277	19.91
645.467	19.85
645.658	19.79
645.848	19.69
646.038	19.67
646.229	19.63
646.419	19.5
646.61	19.63
646.8	19.55
646.99	19.51
647.18	19.44
647.371	19.51
647.561	19.37
647.751	19.37
647.941	19.23
648.132	19.18
648.322	19.1
648.512	19.13
648.702	19.16
648.892	19.26
649.082	19.32
649.272	19.35
649.462	19.33
649.653	19.24
649.843	19.13
650.033	19.05
650.223	18.93
650.413	18.95
650.603	18.97
650.793	19.01
650.983	18.98
651.172	18.99
651.362	18.81
651.552	18.7
651.742	18.52
651.932	18.48
652.122	18.5
652.312	18.52
652.502	18.43
652.691	18.39
652.881	18.3
653.071	18.11
653.261	17.94
653.45	17.82
653.64	17.76
653.83	17.71
654.019	17.57
654.209	17.46
654.399	17.46
654.588	17.32
654.778	17.13
654.968	17.06
655.157	16.9
655.347	16.57
655.536	16.37
655.726	16.25
655.915	16.11
656.105	16.09
656.294	16.03
656.484	15.86
656.673	15.69
656.863	15.55
657.052	15.26
657.241	15.1
657.431	15.03
657.62	14.89
657.809	14.6
657.999	14.49
658.188	14.45
658.377	14.23
658.567	14.07
658.756	14
658.945	13.84
659.134	13.47
659.324	13.26
659.513	13.12
659.702	12.92
659.891	12.75
660.08	12.62
660.269	12.47
660.458	12.26
660.648	12.1
660.837	11.89
661.026	11.7
661.215	11.6
661.404	11.39
661.593	11.29
661.782	11.15
661.971	10.96
662.16	10.82
662.349	10.65
662.538	10.41
662.726	10.31
662.915	10.34
663.104	10.14
663.293	10.2
663.482	10.08
663.671	10.01
663.86	9.87
664.048	9.83
664.237	9.55
664.426	9.52
664.615	9.33
664.803	9.16
664.992	8.99
665.181	8.94
665.369	8.74
665.558	8.64
665.747	8.68
665.935	8.64
666.124	8.58
666.312	8.64
666.501	8.64
666.69	8.54
666.878	8.55
667.067	8.41
667.255	8.31
667.444	8.27
667.632	8.23
667.82	8.15
668.009	8.26
668.197	8.22
668.386	8.15
668.574	8.24
668.762	8.21
668.951	8.19
669.139	8.24
669.327	8.31
669.516	8.2
669.704	8.26
669.892	8.23
670.08	8.17
670.269	8.12
670.457	8.06
670.645	7.94
670.833	7.87
671.021	7.97
671.21	7.85
671.398	7.97
671.586	8.01
671.774	8.18
671.962	8.17
672.15	8.39
672.338	8.42
672.526	8.57
672.714	8.62
672.902	8.7
673.09	8.75
673.278	8.75
673.466	8.73
673.654	8.72
673.842	8.78
674.03	8.75
674.218	8.82
674.405	8.88
674.593	8.94
674.781	8.91
674.969	9.03
675.157	9.09
675.344	9.15
675.532	9.23
675.72	9.31
675.908	9.36
676.095	9.4
676.283	9.58
676.471	9.6
676.658	9.77
676.846	9.83
677.033	9.91
677.221	9.97
677.409	9.97
677.596	10
677.784	10.12
677.971	10.14
678.159	10.28
678.346	10.47
678.534	10.55
678.721	10.66
678.909	10.95
679.096	11
679.283	11.15
679.471	11.22
679.658	11.2
679.846	11.13
680.033	11.35
680.22	11.46
680.408	11.57
680.595	11.77
680.782	11.99
680.969	12.05
681.157	12.18
681.344	12.31
681.531	12.54
681.718	12.69
681.905	12.86
682.093	13.01
682.28	13.33
682.467	13.54
682.654	13.64
682.841	13.82
683.028	13.97
683.215	14.2
683.402	14.28
683.589	14.58
683.776	14.72
683.963	14.98
684.15	15.13
684.337	15.5
684.524	15.73
684.711	16.13
684.898	16.4
685.085	16.61
685.271	16.94
685.458	17.25
685.645	17.45
685.832	17.71
686.019	18.2
686.205	18.46
686.392	18.84
686.579	19.2
686.766	19.62
686.952	20.11
687.139	20.63
687.326	21.06
687.512	21.51
687.699	22.15
687.886	22.39
688.072	22.8
688.259	23.31
688.445	23.91
688.632	24.25
688.818	24.83
689.005	25.31
689.191	25.95
689.378	26.41
689.564	27.2
689.751	27.82
689.937	28.59
690.124	29.19
690.31	29.73
690.496	30.2
690.683	30.91
690.869	31.47
691.055	32.18
691.242	32.91
691.428	33.63
691.614	34.43
691.8	35.2
691.987	35.87
692.173	36.8
692.359	37.64
692.545	38.37
692.731	39.19
692.918	39.78
693.104	40.48
693.29	41.02
693.476	41.62
693.662	42.15
693.848	42.92
694.034	43.78
694.22	44.61
694.406	45.4
694.592	46.33
694.778	46.99
694.964	47.74
695.15	48.53
695.336	49.08
695.522	49.68
695.708	50.48
695.894	51.04
696.08	51.88
696.265	52.95
696.451	53.53
696.637	54.38
696.823	55.05
697.009	55.56
697.194	56.18
697.38	56.93
697.566	57.56
697.751	58.17
697.937	59.13
698.123	59.55
698.308	60.04
698.494	60.91
698.68	61.64
698.865	61.84
699.051	62.29
699.236	63.25
699.422	63.56
699.607	64.27
699.793	65.44
699.978	65.98
700.164	66.04
700.349	66.79
700.535	67
700.72	67.02
700.906	67.92
701.091	68.64
701.276	68.88
701.462	69.61
701.647	70.22
701.832	70.51
702.018	71.28
702.203	71.65
702.388	71.7
702.573	72.15
702.759	72.7
702.944	72.71
703.129	73.29
703.314	73.83
703.499	73.89
703.684	74.33
703.87	74.88
704.055	75.15
704.24	75.64
704.425	76
704.61	75.83
704.795	76.16
704.98	75.96
705.165	76.08
705.35	76.69
705.535	77.18
705.72	77.4
705.905	78.04
706.09	78.42
706.275	78.28
706.459	78.46
706.644	78.63
706.829	79.2
707.014	79.51
707.199	79.92
707.384	80.1
707.568	80.19
707.753	80.3
707.938	80.65
708.123	80.82
708.307	81.2
708.492	81.72
708.677	81.87
708.861	81.59
709.046	81.4
709.231	81.31
709.415	81.27
709.6	81.24
709.784	81.57
709.969	82.34
710.153	82.33
710.338	82.96
710.522	83.46
710.707	83.65
710.891	83.51
711.076	84.08
711.26	83.76
711.445	83.44
711.629	83.51
711.813	84.02
711.998	84.49
712.182	84.51
712.366	85.02
712.551	85.24
712.735	85.01
712.919	84.95
713.103	85.61
713.288	85.77
713.472	86.33
713.656	86.9
713.84	87.03
714.024	87.05
714.208	86.97
714.393	86.73
714.577	86.61
714.761	87.07
714.945	87.04
715.129	87.44
715.313	87.51
715.497	87.41
715.681	86.5
715.865	86.22
716.049	85.73
716.233	85.44
716.417	85.33
716.601	85.78
716.785	86.54
716.968	86.73
717.152	87.23
717.336	87.51
717.52	87.81
717.704	87.91
717.888	88.44
718.071	88.16
718.255	88.68
718.439	88.46
718.622	88.51
718.806	88.48
718.99	88.43
719.174	88.73
719.357	89.33
719.541	89.14
719.724	89.22
719.908	90
720.092	89.18
720.275	88.82
720.459	88.91
720.642	88.67
720.826	88.37
721.009	88.74
721.193	88.75
721.376	88.42
721.559	88.77
721.743	88.84
721.926	88.93
722.11	89.35
722.293	89.91
722.476	89.57
722.66	90.11
722.843	90.05
723.026	90.54
723.21	90.33
723.393	91.38
723.576	90.95
723.759	91.35
723.942	90.63
724.126	90.22
724.309	89.82
724.492	89.97
724.675	89.81
724.858	89.75
725.041	90.15
725.224	89.96
725.407	90.61
725.59	90.47
725.774	90.68
725.957	91.18
726.14	91.31
726.322	91.08
726.505	91.19
726.688	91.45
726.871	91.06
727.054	91.11
727.237	90.62
727.42	90.76
727.603	90.85
727.786	90.75
727.968	90.35
728.151	90.49
728.334	90.26
728.517	90.82
728.699	91.12
728.882	91.45
729.065	91.4
729.248	91.86
729.43	91.53
729.613	91.49
729.796	92.53
729.978	92.93
730.161	92.93
730.343	92.74
730.526	92.8
730.708	91.67
730.891	91.49
731.073	91.33
731.256	91.7
731.438	92.76
731.621	93.59
731.803	93.62
731.986	93.86
732.168	93.98
732.35	93.53
732.533	93.05
732.715	93.38
732.898	93.65
733.08	93.23
733.262	93.38
733.444	94
733.627	94.19
733.809	95.39
733.991	95.58
734.173	95.15
734.355	94.53
734.538	94.47
734.72	93.23
734.902	93.46
735.084	93.52
735.266	94
735.448	94.07
735.63	94.05
735.812	93.97
735.994	94.09
736.176	94.41
736.358	94.73
736.54	95.88
736.722	95.9
736.904	95.87
737.086	94.86
737.268	95.29
737.45	94.91
737.632	95.03
737.814	95.09
737.995	95.36
738.177	94.59
738.359	94.6
738.541	94.54
738.723	94.7
738.904	95.93
739.086	96.83
739.268	95.99
739.449	95.05
739.631	94.96
739.813	93.61
739.994	92.28
740.176	92.85
740.358	93.68
740.539	93.69
740.721	94.58
740.902	95.1
741.084	95.33
741.265	95.67
741.447	95.76
741.628	95.15
741.81	95.55
741.991	94.64
742.172	94.49
742.354	94.4
742.535	94.58
742.717	93.48
742.898	93.34
743.079	93.71
743.261	93.93
743.442	92.73
743.623	93.23
743.804	93.68
743.986	93.71
744.167	93.25
744.348	93.96
744.529	94.88
744.71	94.53
744.891	94.21
745.073	94.63
745.254	95.06
745.435	94.14
745.616	94.06
745.797	93.21
745.978	93.02
746.159	92.54
746.34	93.01
746.521	93.36
746.702	95.23
746.883	96.14
747.064	96.56
747.245	97.07
747.426	96.61
747.606	95.05
747.787	94.38
747.968	94.06
748.149	93.18
748.33	93.53
748.51	93.49
748.691	93.63
748.872	94.54
749.053	93.65
749.233	93.66
749.414	93.92
749.595	93.81
749.775	92.99
749.956	93.63
750.137	94.11
750.317	93.49
750.498	93.24
750.678	93.51
750.859	95.21
751.04	94.72
751.22	94.9
751.4	94.88
751.581	94.34
751.761	93.66
751.942	93.84
752.122	93.7
752.303	94.01
752.483	94.41
752.663	93.66
752.844	94.28
753.024	96.28
753.204	96.5
753.385	96.59
753.565	96.84
753.745	95.87
753.925	93.58
754.106	93.61
754.286	92.34
754.466	91.77
754.646	92.07
754.826	93.64
755.006	92.8
755.187	93.72
755.367	94.08
755.547	92.95
755.727	91.86
755.907	91.01
756.087	89.86
756.267	88.3
756.447	90.34
756.627	91.8
756.807	93.81
756.987	95.71
757.167	96.94
757.346	95.16
757.526	94.25
757.706	93.03
757.886	91.67
758.066	90.76
758.246	90.68
758.425	88.55
758.605	87.93
758.785	87.98
758.965	88.09
759.144	87.33
759.324	90.02
759.504	92.16
759.683	92.26
759.863	93.25
760.043	93.82
760.222	91.51
760.402	89.21
760.581	90.1
760.761	89.92
760.94	90.61
761.12	91.65
761.299	93.28
761.479	92.5
761.658	91.31
761.838	91.57
762.017	91.9
762.197	89.97
762.376	90.28
762.555	90.69
762.735	90.37
762.914	89.68
763.093	89.89
763.273	89.61
763.452	89.51
763.631	88.82
763.81	89.01
763.99	88.73
764.169	88.92
764.348	88.45
764.527	88.62
764.706	89.9
764.885	92
765.064	93
765.243	93.75
765.423	94.66
765.602	94.13
765.781	90.54
765.96	90.47
766.139	90.33
766.318	91.32
766.497	90.42
766.676	91.11
766.854	90.22
767.033	91.2
767.212	90.87
767.391	91.36
767.57	94.31
767.749	94.07
767.928	94.58
768.106	92.17
768.285	89.46
768.464	88.44
768.643	87.98
768.821	86.04
769	86.73
769.179	88.26
769.357	87.75
769.536	86.65
769.715	85.59
769.893	85.15
770.072	84.18
770.25	82.76
770.429	84.22
770.607	86.04
770.786	86.53
770.964	89.33
771.143	90.89
771.321	89.06
771.5	89.52
771.678	88.34
771.857	85.67
772.035	86.52
772.213	88.47
772.392	85.92
772.57	87.19
772.748	87.09
772.927	85.77
773.105	85.97
773.283	87.62
773.461	88.78
773.64	89.39
773.818	89.46
773.996	89.8
774.174	90
774.352	89.54
774.531	88.81
774.709	87.97
774.887	85.65
775.065	85.55
775.243	84.81
775.421	84.93
775.599	85.8
775.777	85.31
775.955	84.3
776.133	84.22
776.311	83.44
776.489	84.48
776.667	85.12
776.844	83.29
777.022	83.02
777.2	83.25
777.378	80.96
777.556	82.9
777.734	85.55
777.911	84.58
778.089	89.06
778.267	90.49
778.445	90.41
778.622	90.23
778.8	89.42
778.978	88.24
779.155	88.97
779.333	87.12
779.511	87.44
779.688	89.17
779.866	88.37
780.043	89.11
780.221	90.11
780.398	88.79
780.576	89.39
780.753	88.39
780.931	87.5
781.108	88.6
781.286	91.07
781.463	91.67
781.64	91.17
781.818	91.77
781.995	89.68
782.172	88.02
782.35	86.9
782.527	85.74
782.704	82.13
782.882	81.27
783.059	80.19
783.236	81.75
783.413	83.21
783.59	87.04
783.768	88.07
783.945	88.7
784.122	86.62
784.299	84.69
784.476	80.96
784.653	81.94
784.83	81.07
785.007	79.43
785.184	81.1
785.361	82.32
785.538	79.87
785.715	81.96
785.892	83.53
786.069	83.28
786.246	82.54
786.423	84.33
786.6	82.22
786.776	80.91
786.953	79.97
787.13	77.76
787.307	76.02
787.484	76.29
787.66	77.24
787.837	75.91
788.014	79.07
788.191	78.82
788.367	76.2
788.544	75.69
788.721	78.7
788.897	80.18
789.074	84.34
789.25	87.4
789.427	86
789.603	84.29
789.78	79.41
789.956	75.15
790.133	74.84
790.309	76.13
790.486	77.02
790.662	78.25
790.839	79.32
791.015	84.01
791.192	83.3
791.368	79.08
791.544	82.19
791.721	81.67
791.897	76.43
792.073	78.28
792.249	79.24
792.426	79.2
792.602	81.99
792.778	79.74
792.954	79.56
793.13	83.31
793.307	84.15
793.483	80.04
793.659	84.46
793.835	85.35
794.011	85.08
794.187	80.6
794.363	81.04
794.539	77.18
794.715	75.19
794.891	75.85
795.067	79.07
795.243	81.55
795.419	82.57
795.595	89.65
795.771	86.35
795.947	84.15
796.122	78.41
796.298	77.39
796.474	72.14
796.65	76.5
796.826	74.73
797.001	79.86
797.177	76.94
797.353	74.65
797.529	70.49
797.704	73.85
797.88	72.47
798.056	73.61
798.231	73.58
798.407	78.37
798.582	75.75
798.758	80.4
798.934	83.12
799.109	82.75
799.285	79.47
799.46	76.95
799.636	73.51
799.811	74.46
799.986	71.49
800.162	66.47
800.337	73.48
800.513	71.42
800.688	66.1
800.863	76.02
801.039	84.31
801.214	76.99
801.389	70.37
801.565	72.95
801.74	68
801.915	64.09
802.09	63.15
802.265	70.06
802.441	71.37
802.616	70.54
802.791	71.31
802.966	77.9
803.141	79.07
803.316	75.98
803.491	77.11
803.666	75.14
803.841	70.66
804.016	63.41
804.191	66.86
804.366	66.5
804.541	69.21
804.716	72.05
804.891	71.83
805.066	71.3
805.241	69.24
805.416	76.29
805.591	76.17
805.765	89.97
805.94	86.67
806.115	85.65
806.29	80.63
806.464	78.35
806.639	71.98
806.814	75.01
806.989	78.96
807.163	83.86
807.338	82.83
807.512	86.42
807.687	85.52
807.862	79.89
808.036	74.1
808.211	76.05
808.385	73.14
808.56	70.72
808.734	70
808.909	68.47
809.083	69.8
809.258	70.36
809.432	67.67
809.606	68.35
809.781	72.66
809.955	76.61
810.13	70.51
810.304	74.49
810.478	72.53
810.652	68.21
810.827	68.61
811.001	65.78
811.175	68.79
811.349	72.77
811.524	75.76
811.698	67.7
811.872	80.09
812.046	74.25
812.22	68.23
812.394	61.59
812.568	62.54
812.742	50.12
812.916	56.58
813.09	56.51
813.264	58.65
813.438	55.85
813.612	54.36
813.786	52.35
813.96	57.13
814.134	60.53
814.308	64.71
814.482	72.58
814.656	65.33
814.83	59.99
815.003	63.83
815.177	66.84
815.351	69.84
815.525	80.44
815.698	77.72
815.872	64.48
816.046	59.94
816.219	59.25
816.393	50.41
816.567	52.16
816.74	61.81
816.914	64.48
817.088	70.53
817.261	77.42
817.435	88.04
817.608	80.91
817.782	79.67
817.955	67.69
818.129	58.51
818.302	63.78
818.475	60.35
818.649	63.38
818.822	63.02
818.996	78.33
819.169	78
819.342	80.51
819.516	83.58
819.689	83.55
819.862	71.01
820.035	64.25
820.209	70.15
820.382	59.84
820.555	47.78
820.728	54.67
820.901	50.61
821.075	48.83
821.248	64.99
821.421	74.7
821.594	75.81
821.767	80.62
821.94	73.73
822.113	68.77
822.286	68.46
822.459	72.53
822.632	78.93
822.805	71.5
822.978	79.27
823.151	83.42
823.324	63.76
823.496	50.85
823.669	58.82
823.842	48.98
824.015	51.61
824.188	50.78
824.361	49.47
824.533	50.94
824.706	52.04
824.879	53.74
825.051	60.08
825.224	70.06
825.397	67.92
825.569	67.12
825.742	67.07
825.915	71
826.087	54.72
826.26	51.16
826.432	42.71
826.605	43.75
826.777	42.04
826.95	59.21
827.122	52.91
827.295	81.41
827.467	86.53
827.64	93.83
827.812	97.05
827.984	127.87
828.157	90.61
828.329	85.5
828.501	66.52
828.674	68.01
828.846	56.16
829.018	57.47
829.19	45.24
829.363	48.19
829.535	31.29
829.707	30.87
829.879	16.79
830.051	17.26
830.223	23.67
830.395	24.49
830.568	34.93
830.74	51.39
830.912	58.46
831.084	65.12
831.256	62.01
831.428	66.07
831.6	58.29
831.772	45.07
831.943	39.29
832.115	59.82
832.287	64.41
832.459	66.24
832.631	77.29
832.803	77.65
832.975	71.42
833.146	57.81
833.318	62.39
833.49	54.91
833.662	60.21
833.833	59.95
834.005	69.27
834.177	70.89
834.348	76.52
834.52	61.78
834.692	54.69
834.863	53
835.035	52.22
835.206	42.53
835.378	49.04
835.549	51.13
835.721	51.24
835.892	43.83
836.064	48.11
836.235	55.42
836.407	65.42
836.578	61.62
836.749	55.41
836.921	70.5
837.092	45.3
837.264	24.28
837.435	24.4
837.606	46.51
837.777	31.05
837.949	44.51
838.12	47.05
838.291	55.76
838.462	48.9
838.633	50.02
838.805	40.58
838.976	51.16
839.147	43.22
839.318	47.51
839.489	49.58
839.66	57.75
839.831	49.54
840.002	48.04
840.173	39.35
840.344	46.55
840.515	44.23
840.686	54.09
840.857	53.32
841.028	62.28
841.199	58.5
841.369	60.02
841.54	57.06
841.711	82.35
841.882	82.16
842.053	73.74
842.223	64.03
842.394	57.55
842.565	46.31
842.736	50.02
842.906	49.48
843.077	46.6
843.248	63.14
843.418	52.39
843.589	32.93
843.759	42.32
843.93	43.93
844.101	10.66
844.271	23.35
844.442	32.96
844.612	43
844.783	39.01
844.953	50.02
845.123	43.19
845.294	48.55
845.464	35.24
845.635	52.26
845.805	45.62
845.975	67.75
846.146	55.92
846.316	50.04
846.486	49.9
846.656	69.45
846.827	67.11
846.997	72.75
847.167	59.95
847.337	46.52
847.507	35
847.677	23.13
847.848	21.58
848.018	33.74
848.188	38.31
848.358	24.46
848.528	38.93
848.698	31.34
848.868	25.21
849.038	26.26
849.208	51.45
849.378	62.94
849.548	67.34
849.718	79.06
849.887	80.59
850.057	47.78
850.227	23.14
850.397	36.01
850.567	3.95
850.737	29.67
850.906	20.81
851.076	10.53
851.246	18.8
851.415	70.35
851.585	72.2
851.755	70.77
851.924	75.38
852.094	76.12
852.264	49.5
852.433	31.19
852.603	41.97
852.772	79.23
852.942	94.18
853.111	92.23
853.281	88.06
853.45	61.72
853.62	45.01
853.789	4.91
853.959	23.68
854.128	29.68
854.297	48.94
854.467	46.21
854.636	52.4
854.805	51.68
854.975	43.05
855.144	33.29
855.313	43.17
855.482	37.25
855.652	46.07
855.821	40.81
855.99	27.48
856.159	28.95
856.328	44.71
856.497	35.45
856.667	53.72
856.836	82.35
857.005	75.03
857.174	57.97
857.343	53.29
857.512	38.38
857.681	5.3
857.85	11.71
858.019	12.87
858.188	35.15
858.356	41.11
858.525	45.36
858.694	52.97
858.863	44.4
859.032	35.94
859.201	31.8
859.369	8.15
859.538	12.87
859.707	10.11
859.876	41.9
860.044	58.15
860.213	71.13
860.382	83.6
860.55	75.24
860.719	55.61
860.888	28.53
861.056	26.15
861.225	12.6
861.393	27.5
861.562	50.91
861.73	44.39
861.899	39.52
862.067	31.13
862.236	24.59
862.404	22.1
862.572	25.69
862.741	18.81
862.909	25.97
863.078	54.47
863.246	26.95
863.414	24.92
863.582	32.91
863.751	33.66
863.919	13.99
864.087	-2.92
864.255	15.68
864.424	-39.77
864.592	8.05
864.76	17.35
864.928	34.21
865.096	16.76
865.264	24.17
865.432	0.4
865.6	-23.03
865.768	15.42
865.936	32.98
866.104	57.73
866.272	51.83
866.44	26.46
866.608	6.34
866.776	30.26
866.944	63.27
867.112	62.02
867.28	61.68
867.448	61.4
867.615	34.37
867.783	-7.39
867.951	3.53
868.119	0.06
868.286	19.98
868.454	30.38
868.622	49.89
868.789	38.37
868.957	27.55
869.125	23.55
869.292	-20.96
869.46	9.67
869.627	10.83
869.795	-1.51
869.963	27.79
870.13	78.03
870.298	85.22
870.465	92.51
870.632	110.07
870.8	83.37
870.967	56
871.135	47.91
871.302	13.68
871.469	27.45
871.637	-2.64
871.804	31.52
871.971	25.62
872.139	16.05
872.306	-42.21
872.473	-50.33
872.64	-193.49
872.807	-182.12
872.975	-253.17
873.142	-9.51
873.309	-20.5
873.476	35.56
873.643	75.12
873.81	47.48
873.977	22.69
874.144	52.52
874.311	18.32
874.478	-58.35
874.645	-82.62
874.812	6.03
874.979	20.57
875.146	25.24
875.313	45.1
875.48	99.3
875.647	81.19
875.813	62.82
875.98	88.84
876.147	68.92
876.314	22.61
876.481	54.98
876.647	57.01
876.814	21.78
876.981	42.64
877.147	48.64
877.314	38.2
877.481	11.78
877.647	40.79
877.814	61.42
877.98	37.87
878.147	72.25
878.314	115.29
878.48	135.31
878.647	97.68
878.813	110.5
878.979	67.31
879.146	23.34
879.312	25.38
879.479	9.95
879.645	16.19
879.811	8.33
879.978	26.33
880.144	7.22
880.31	10.77
880.477	41.46
880.643	45.72
880.809	2.31
880.975	6.93
881.142	1.8
881.308	408.34
881.474	582.87
881.64	0.13
881.806	-15.43
881.972	-2.83
882.138	19.09
882.304	23.85
882.47	-59.28
882.636	-62.14
882.802	-60.92
882.968	-44.04
883.134	-7.77
883.3	32.26
883.466	63.81
883.632	79.81
883.798	69.47
883.964	-48.2
884.129	-481.22
884.295	-25.92
884.461	-112.39
884.627	-26.7
884.793	-19.91
884.958	8.82
885.124	-26.67
885.29	-34.26
885.455	-81.65
885.621	-58.11
885.787	-62.05
885.952	-40.45
886.118	26.49
886.283	4.89
886.449	24.88
886.614	55.64
886.78	58.7
886.945	44.87
887.111	46.77
887.276	47.24
887.442	-16.34
887.607	-29.11
887.773	-40.59
887.938	-26.83
888.103	-14.12
888.269	24.43
888.434	19.48
888.599	19.31
888.764	28.77
888.93	22.46
889.095	1.72
889.26	0.29
889.425	4.96
889.59	3.93
889.756	-20.93
889.921	-10.89
890.086	72.02
890.251	166.08
890.416	89.9
890.581	170.85
890.746	148.39
890.911	69.16
891.076	52.18
891.241	39.02
891.406	3.75
891.571	26.97
891.736	-75.84
891.901	-5.04
892.065	5.92
892.23	27.26
892.395	-11.68
892.56	29.86
892.725	64.61
892.889	188.42
893.054	96.87
893.219	112.74
893.384	138.02
893.548	85.03
893.713	63.13
893.878	97.4
