Data from Ofra_1a_PS_6GT17_Reflection_1.txt Node
Date: Tue Jul 20 11:00:13 EDT 2021
User: Adam
Spectrometer: FLMT01687
Trigger mode: 0
Integration Time (sec): 1.004000E0
Scans to average: 2
Electric dark correction enabled: true
Nonlinearity correction enabled: false
Boxcar width: 2
XAxis mode: Wavelengths
Number of Pixels in Spectrum: 3648
>>>>>Begin Spectral Data<<<<<
179.494	-473.6
179.716	-684.73
179.937	1186.96
180.158	-1511.46
180.38	130.15
180.601	89.87
180.823	-27.17
181.044	-63.04
181.265	-12.17
181.486	74.31
181.708	155.68
181.929	-5045.45
182.15	32.58
182.372	-155.17
182.593	196.38
182.814	-133.96
183.035	6.28
183.257	43.31
183.478	28.51
183.699	20.07
183.92	-39.63
184.141	-27.11
184.363	-44.69
184.584	-86.82
184.805	-45.21
185.026	-1.82
185.247	-22.84
185.468	-35.33
185.689	-6.82
185.91	-34.07
186.132	-4.15
186.353	-2.96
186.574	-3.09
186.795	15.64
187.016	37.55
187.237	26.05
187.458	16.59
187.679	1.66
187.9	2.3
188.121	11.31
188.342	2.63
188.563	27.56
188.784	58.16
189.005	47.33
189.226	34.57
189.447	35.52
189.667	24.57
189.888	-6.27
190.109	-24.09
190.33	-25.11
190.551	-15.38
190.772	-10.55
190.993	4.41
191.214	-0.98
191.434	1.15
191.655	-36.13
191.876	-13.56
192.097	19.36
192.318	37.1
192.538	-8.5
192.759	-6.68
192.98	14.19
193.201	-6.17
193.421	-26.62
193.642	1.72
193.863	15.84
194.083	-17
194.304	4.66
194.525	33.73
194.745	35.55
194.966	28.72
195.187	33.43
195.407	25.57
195.628	17.93
195.848	26.65
196.069	26.46
196.29	41.19
196.51	29.91
196.731	13.45
196.951	-16.73
197.172	-12.74
197.392	-15.91
197.613	18.55
197.833	15.32
198.054	30.27
198.274	12.03
198.495	-2.34
198.715	-34.94
198.936	7.58
199.156	9.03
199.377	6.92
199.597	24.7
199.817	33.38
200.038	5.5
200.258	20.4
200.479	55.44
200.699	28.97
200.919	27.76
201.14	35.1
201.36	23.42
201.58	-4.83
201.801	6.97
202.021	-13.06
202.241	-14.93
202.461	4.98
202.682	30.37
202.902	42.81
203.122	61.37
203.342	55.29
203.563	36.68
203.783	12.16
204.003	-10.9
204.223	12.01
204.443	18
204.663	22.11
204.884	55.55
205.104	67.71
205.324	52.53
205.544	9.29
205.764	23.32
205.984	0.84
206.204	5.76
206.424	-9.73
206.644	9.34
206.864	-25.61
207.084	-7.26
207.304	-16.82
207.525	-22.86
207.745	10.05
207.964	33.11
208.184	41.92
208.404	30.62
208.624	51.68
208.844	38.43
209.064	40.13
209.284	27.88
209.504	29.63
209.724	0.9
209.944	-0.39
210.164	-24.12
210.384	-20.94
210.604	-67.07
210.823	-59.57
211.043	-56.81
211.263	-107.37
211.483	-68.71
211.703	-23.97
211.922	-11.58
212.142	27.55
212.362	50.3
212.582	54.57
212.801	46.33
213.021	10.04
213.241	-22.38
213.461	-20.73
213.68	-5.28
213.9	-2.83
214.12	17.99
214.339	17.68
214.559	15.72
214.779	9.71
214.998	25.06
215.218	16.47
215.438	31.15
215.657	42.29
215.877	29.26
216.096	27.27
216.316	23.47
216.535	15.96
216.755	21.77
216.974	25.16
217.194	3.62
217.413	-2.11
217.633	-6.68
217.852	-21.92
218.072	-13.61
218.291	-3.9
218.511	1.01
218.73	5.39
218.95	-17.92
219.169	-23.5
219.389	-28.18
219.608	-18.52
219.827	-11.87
220.047	22.87
220.266	31.71
220.485	43.01
220.705	37
220.924	11.34
221.143	25.14
221.363	8.59
221.582	9.87
221.801	27.03
222.021	46.83
222.24	41.6
222.459	61.08
222.678	55.68
222.897	52.48
223.117	41.33
223.336	37.25
223.555	44.18
223.774	62.75
223.993	58.18
224.213	81.3
224.432	57.59
224.651	42.11
224.87	30.3
225.089	16.53
225.308	18.63
225.527	11.62
225.746	-3.17
225.965	-13.03
226.184	-13.03
226.404	-33.28
226.623	-14.5
226.842	1.99
227.061	18.7
227.28	25.99
227.499	25.79
227.718	26.03
227.936	23.1
228.155	20
228.374	13.15
228.593	29.12
228.812	32
229.031	40.76
229.25	16.08
229.469	18.06
229.688	5.97
229.907	8.49
230.125	-0.13
230.344	20.85
230.563	26.76
230.782	35.82
231.001	35.51
231.22	34.47
231.438	29.94
231.657	23.5
231.876	11.08
232.095	15.49
232.313	14.04
232.532	16.28
232.751	20.62
232.969	17.78
233.188	8.77
233.407	11.77
233.625	14.93
233.844	18.02
234.063	23.74
234.281	18.84
234.5	16.34
234.719	1.74
234.937	-31.21
235.156	-29.01
235.374	-9.59
235.593	7.29
235.811	34.32
236.03	40.06
236.249	41.99
236.467	41.63
236.686	26.65
236.904	23.19
237.123	25.52
237.341	24.75
237.559	7.05
237.778	27.37
237.996	-16.54
238.215	-34.64
238.433	-55.52
238.652	28.01
238.87	15.21
239.088	33.1
239.307	23.28
239.525	13.89
239.743	-8.74
239.962	-34.45
240.18	-3.28
240.398	-11.89
240.617	-32.25
240.835	-43.02
241.053	-10.44
241.271	-15.79
241.49	5.95
241.708	20.51
241.926	4.9
242.144	7.29
242.363	-11.16
242.581	-69.02
242.799	-68.54
243.017	-22.68
243.235	-33.76
243.453	-36.5
243.672	-1.28
243.89	6.36
244.108	14.62
244.326	34.91
244.544	31.13
244.762	19.65
244.98	18.7
245.198	15.68
245.416	11.32
245.634	23.94
245.852	4.61
246.07	18.42
246.288	20.43
246.506	21.6
246.724	17.27
246.942	29.64
247.16	22.09
247.378	-5.09
247.596	21.66
247.814	-12.01
248.032	-0.93
248.25	22.31
248.468	41.59
248.685	25.7
248.903	25.37
249.121	22.6
249.339	18.95
249.557	3.37
249.775	10.88
249.992	25.93
250.21	15.97
250.428	19.08
250.646	26.56
250.863	19.18
251.081	10.73
251.299	18.69
251.517	2.72
251.734	3.18
251.952	-4.02
252.17	-4.34
252.387	-21.82
252.605	-19.22
252.823	-16.86
253.04	13.31
253.258	20.51
253.475	43.91
253.693	33.79
253.911	23.8
254.128	14.86
254.346	18.55
254.563	20.85
254.781	40.52
254.998	28.88
255.216	12.82
255.433	-29.17
255.651	-27
255.868	-47.12
256.086	-23.93
256.303	0.54
256.521	16.17
256.738	7.5
256.956	22.2
257.173	9.35
257.39	-1.71
257.608	-6.52
257.825	0.18
258.043	0.59
258.26	6.48
258.477	14.52
258.695	17.79
258.912	1.88
259.129	-6.84
259.346	-24.99
259.564	-36.39
259.781	-34.12
259.998	5.99
260.216	21.14
260.433	6.72
260.65	8.63
260.867	22.22
261.084	10.06
261.302	0.52
261.519	37.49
261.736	31.26
261.953	13.82
262.17	19.74
262.387	13.99
262.604	2.81
262.822	5.73
263.039	9.48
263.256	5.69
263.473	20.64
263.69	23.22
263.907	26.4
264.124	19.03
264.341	20.26
264.558	5
264.775	8.11
264.992	17.44
265.209	25.28
265.426	21.55
265.643	25.12
265.86	21.21
266.077	9.11
266.294	17.74
266.51	46.23
266.727	44.79
266.944	42.05
267.161	32.02
267.378	23.52
267.595	2.11
267.812	-15.04
268.028	-18.69
268.245	10.17
268.462	24.6
268.679	37.67
268.896	52.24
269.112	34
269.329	9.56
269.546	27.68
269.763	13.16
269.979	11.67
270.196	18.5
270.413	27.14
270.629	-1.26
270.846	15.04
271.063	5.27
271.279	26.35
271.496	2.3
271.712	16.22
271.929	9.81
272.146	22.11
272.362	16.48
272.579	29.32
272.795	36.99
273.012	38.51
273.228	33.51
273.445	28.56
273.661	18.45
273.878	-7.86
274.094	-21.01
274.311	-9.4
274.527	-22.63
274.744	7.66
274.96	21.8
275.177	28.66
275.393	26.12
275.609	24.52
275.826	22.56
276.042	17.31
276.259	12.27
276.475	-3.64
276.691	-1.84
276.908	-14.53
277.124	10.03
277.34	28.83
277.557	28.91
277.773	40.98
277.989	40.93
278.205	28.26
278.422	23.5
278.638	31.81
278.854	22.66
279.07	33.27
279.286	18.55
279.503	17.98
279.719	24.27
279.935	19.45
280.151	14.57
280.367	18.56
280.583	13.98
280.799	8.37
281.016	-1.56
281.232	-7.73
281.448	-8.13
281.664	-3.61
281.88	-5.99
282.096	9.31
282.312	23.35
282.528	23.31
282.744	31.44
282.96	23.02
283.176	17.54
283.392	-9.13
283.608	6.29
283.824	-8.33
284.04	-4.48
284.256	14.67
284.471	21.83
284.687	18.54
284.903	18.82
285.119	21.32
285.335	23.35
285.551	20.78
285.767	15.5
285.982	2.85
286.198	-6.41
286.414	18.44
286.63	19.55
286.846	44.82
287.061	62.3
287.277	76.18
287.493	45.24
287.709	42.52
287.924	40.5
288.14	35.73
288.356	42.28
288.571	53.72
288.787	38.22
289.003	35.1
289.218	12.22
289.434	-10.03
289.65	-11.16
289.865	3.08
290.081	8.95
290.296	27.32
290.512	28.95
290.727	19.31
290.943	28.89
291.159	23.83
291.374	5.61
291.59	14.6
291.805	11.55
292.021	-10.76
292.236	-22.73
292.451	-4.78
292.667	-7.7
292.882	12.48
293.098	11.74
293.313	17.5
293.529	17.53
293.744	0.72
293.959	-14.65
294.175	14.38
294.39	-9.02
294.605	0.81
294.821	8.38
295.036	4.64
295.251	-2.9
295.467	11.07
295.682	0.86
295.897	-7.75
296.112	2.14
296.328	-5.3
296.543	-14.55
296.758	-10.82
296.973	-6.93
297.188	-9.4
297.404	-7.05
297.619	-12.78
297.834	-22.02
298.049	10.4
298.264	1.12
298.479	-13.08
298.694	14.83
298.909	22.32
299.125	15.7
299.34	20.06
299.555	39.63
299.77	42.81
299.985	41.45
300.2	35.44
300.415	27.19
300.63	23.82
300.845	17.93
301.06	11.75
301.275	27.54
301.49	40.23
301.704	36.5
301.919	29.2
302.134	32.43
302.349	21.23
302.564	15.15
302.779	7.18
302.994	26.77
303.209	31.14
303.423	31.11
303.638	35.54
303.853	14.48
304.068	-10.62
304.283	-6.59
304.497	-22.13
304.712	4.68
304.927	19.89
305.142	19.12
305.356	20.45
305.571	33.6
305.786	16.85
306	24.91
306.215	33.05
306.43	36.83
306.644	19.01
306.859	12.94
307.074	20.77
307.288	21.33
307.503	16.01
307.717	15.89
307.932	25.33
308.147	4.6
308.361	9.57
308.576	-18.8
308.79	-6.77
309.005	-24.04
309.219	4.05
309.434	-9.08
309.648	5.23
309.863	1.96
310.077	10.63
310.292	7
310.506	-3.93
310.72	6.36
310.935	13.71
311.149	18.76
311.364	31.79
311.578	47.73
311.792	47.83
312.007	52.95
312.221	36.21
312.435	20.08
312.649	23.12
312.864	23
313.078	24.21
313.292	26.99
313.507	29.93
313.721	27.11
313.935	20.82
314.149	2.78
314.363	0.99
314.578	-10.44
314.792	-69.55
315.006	-57.14
315.22	-18.2
315.434	-10.43
315.648	-3.91
315.862	18.85
316.077	17.44
316.291	-0.31
316.505	-25.98
316.719	-18.72
316.933	-18.94
317.147	-15.18
317.361	-14.62
317.575	-7.59
317.789	-7.9
318.003	-8.7
318.217	-4.18
318.431	-4.91
318.645	8.44
318.859	19.31
319.073	32.92
319.287	26.22
319.5	30.19
319.714	23.23
319.928	19.54
320.142	4.01
320.356	13.39
320.57	-0.46
320.784	-2.62
320.997	-17.67
321.211	10.51
321.425	-22.09
321.639	8.62
321.853	38.02
322.066	24.71
322.28	10.67
322.494	16.38
322.707	16.1
322.921	-0.12
323.135	18.93
323.349	16.37
323.562	24.37
323.776	14.37
323.989	18.42
324.203	15.96
324.417	25.59
324.63	26.83
324.844	9.3
325.057	-29.08
325.271	-21.79
325.485	-20.95
325.698	-7.79
325.912	14.26
326.125	31.14
326.339	31.58
326.552	16.14
326.766	1.08
326.979	-1.06
327.193	3.14
327.406	-19.42
327.619	-1.11
327.833	5.33
328.046	12.39
328.26	3.41
328.473	14.86
328.686	11.33
328.9	19.83
329.113	7.73
329.326	9.29
329.54	12.94
329.753	14.69
329.966	20.41
330.179	21.09
330.393	24.68
330.606	14.37
330.819	2.87
331.032	-10.36
331.246	10.3
331.459	22.24
331.672	33.71
331.885	54.33
332.098	63.03
332.311	44.83
332.525	41.32
332.738	39.79
332.951	32.43
333.164	34.65
333.377	28.02
333.59	10.96
333.803	3.43
334.016	8.89
334.229	0.51
334.442	16.3
334.655	28.65
334.868	30.65
335.081	23.64
335.294	25.27
335.507	17.19
335.72	13.24
335.933	20.36
336.146	20.36
336.359	26.59
336.572	34.73
336.785	34.97
336.997	17.5
337.21	21.23
337.423	3.95
337.636	-8.83
337.849	-17.19
338.062	-9.74
338.274	10.17
338.487	-4.34
338.7	-14.54
338.913	15.47
339.125	28.72
339.338	-3.36
339.551	13.65
339.763	23.06
339.976	18.11
340.189	6.3
340.402	23.16
340.614	30.28
340.827	47.66
341.039	37.83
341.252	28.06
341.465	23.22
341.677	19.68
341.89	-6.69
342.102	6.44
342.315	21.42
342.527	22.03
342.74	7.61
342.952	0.44
343.165	-16.19
343.377	-3.01
343.59	1.97
343.802	-2.24
344.015	13.09
344.227	26.16
344.44	10.36
344.652	2.32
344.864	16.05
345.077	24.88
345.289	10.44
345.502	22.36
345.714	18.08
345.926	19.18
346.139	-2.43
346.351	10.97
346.563	8.44
346.775	18.66
346.988	10.45
347.2	15.05
347.412	15.58
347.624	6.21
347.837	7.39
348.049	18.59
348.261	9.27
348.473	-2.06
348.685	4.96
348.897	-14.26
349.11	-15.72
349.322	1.07
349.534	7.01
349.746	-3.22
349.958	-3.63
350.17	-10.54
350.382	-18.18
350.594	-19.14
350.806	15.8
351.018	30.47
351.23	29.39
351.442	39.29
351.654	40.47
351.866	36.24
352.078	34.32
352.29	40.78
352.502	32.69
352.714	28.13
352.926	5.09
353.138	8.18
353.35	9.38
353.561	13.6
353.773	13.78
353.985	26.61
354.197	22.52
354.409	18.78
354.621	-0.98
354.832	1.4
355.044	-17.28
355.256	-22.52
355.468	-35.13
355.679	5.43
355.891	8.49
356.103	11.28
356.314	17.98
356.526	9.22
356.738	2.47
356.949	8.31
357.161	17.92
357.373	14.66
357.584	19.01
357.796	25.03
358.008	28.71
358.219	16.21
358.431	15.19
358.642	21.27
358.854	19.61
359.065	-0.64
359.277	13.39
359.488	14.71
359.7	4.02
359.911	-10.83
360.123	0.29
360.334	-15.13
360.546	-16.87
360.757	-3.01
360.969	-2.82
361.18	0.04
361.391	16.58
361.603	19.4
361.814	19.61
362.025	33.97
362.237	29.45
362.448	30.67
362.659	23.08
362.871	16.08
363.082	-4.42
363.293	-2.3
363.504	-34.79
363.716	-28.81
363.927	-11.83
364.138	-16.84
364.349	-37.14
364.56	-21.65
364.772	-4.05
364.983	16.81
365.194	30.69
365.405	53.43
365.616	45.37
365.827	33.42
366.038	29.43
366.25	27.45
366.461	28.24
366.672	33.08
366.883	29.36
367.094	23.03
367.305	1.75
367.516	-9.49
367.727	-17.74
367.938	-10.88
368.149	-20.62
368.36	-16.68
368.571	-23.84
368.781	-20.94
368.992	-17.22
369.203	-14.55
369.414	-12.97
369.625	-2.06
369.836	17.14
370.047	21.3
370.258	33.27
370.468	31.52
370.679	26.35
370.89	5.66
371.101	6.19
371.312	-7.87
371.522	1.86
371.733	0.45
371.944	-7.2
372.155	-16.57
372.365	-12.5
372.576	-20.94
372.787	-7.94
372.997	-2.47
373.208	4.19
373.419	10.17
373.629	5.26
373.84	-5.77
374.05	-8.55
374.261	-16.25
374.472	-11.22
374.682	-3.6
374.893	-3.27
375.103	5.8
375.314	12.36
375.524	7.45
375.735	13.2
375.945	12.37
376.156	3.94
376.366	11.36
376.577	14.41
376.787	13.01
376.997	17.8
377.208	30.22
377.418	20.99
377.629	20.53
377.839	22.73
378.049	26.22
378.26	18.33
378.47	10.15
378.68	13.15
378.89	14.5
379.101	6.16
379.311	0.88
379.521	8.69
379.732	6.93
379.942	-4.72
380.152	-1.28
380.362	5.14
380.572	16.35
380.783	16.85
380.993	29.65
381.203	29.18
381.413	31.89
381.623	23.94
381.833	31.39
382.043	23.16
382.253	18.69
382.463	19.74
382.674	17.31
382.884	11.95
383.094	12.2
383.304	17.18
383.514	15.75
383.724	12.33
383.934	7.93
384.144	8.89
384.353	5.4
384.563	2.68
384.773	6.12
384.983	9.04
385.193	6.47
385.403	7.32
385.613	8.88
385.823	10.93
386.033	7.12
386.242	8.1
386.452	6.1
386.662	7.07
386.872	9.89
387.082	10.6
387.291	6.85
387.501	9.51
387.711	13.61
387.921	11.55
388.13	16.27
388.34	20.15
388.55	19.59
388.759	11.82
388.969	8.97
389.179	5.11
389.388	2.19
389.598	-4.37
389.807	-7.14
390.017	-4.34
390.227	-6.07
390.436	-5.8
390.646	-2.32
390.855	5.3
391.065	3.17
391.274	5.34
391.484	5.27
391.693	5.23
391.903	4.38
392.112	7.21
392.322	5.61
392.531	5.84
392.74	5.16
392.95	3.66
393.159	2.88
393.369	3.27
393.578	4.46
393.787	4.32
393.997	3.57
394.206	2.33
394.415	3.52
394.625	2.54
394.834	2.96
395.043	4.13
395.252	6.63
395.462	6.29
395.671	6.75
395.88	7.71
396.089	7.82
396.298	7.32
396.508	7.21
396.717	6.85
396.926	6.5
397.135	6.8
397.344	6.5
397.553	6.29
397.762	7.72
397.971	7.63
398.181	6.72
398.39	5.51
398.599	6.15
398.808	5.59
399.017	6.01
399.226	6.4
399.435	6.6
399.644	6.9
399.853	6.88
400.062	6.5
400.27	6.2
400.479	6.64
400.688	6.48
400.897	6.08
401.106	6.1
401.315	6.16
401.524	6.13
401.733	5.56
401.941	5.91
402.15	5.95
402.359	6.02
402.568	5.94
402.777	6.22
402.985	5.81
403.194	5.8
403.403	6.06
403.612	6.09
403.82	5.77
404.029	6.15
404.238	5.96
404.446	5.92
404.655	5.9
404.864	6
405.072	5.62
405.281	5.74
405.489	5.6
405.698	5.53
405.906	5.68
406.115	5.82
406.324	5.9
406.532	5.9
406.741	6.02
406.949	6.02
407.158	6.11
407.366	5.94
407.574	5.96
407.783	6.05
407.991	6.07
408.2	6.1
408.408	6.21
408.617	6.12
408.825	5.81
409.033	5.71
409.242	5.77
409.45	5.63
409.658	5.59
409.867	5.74
410.075	5.79
410.283	5.6
410.491	5.54
410.7	5.59
410.908	5.59
411.116	5.59
411.324	5.52
411.533	5.67
411.741	5.62
411.949	5.63
412.157	5.55
412.365	5.71
412.573	5.67
412.781	5.78
412.99	5.77
413.198	5.84
413.406	5.78
413.614	5.83
413.822	5.86
414.03	5.74
414.238	5.79
414.446	5.81
414.654	5.63
414.862	5.47
415.07	5.42
415.278	5.38
415.486	5.12
415.694	5.28
415.902	5.21
416.109	5.17
416.317	5.13
416.525	5.27
416.733	5.25
416.941	5.29
417.149	5.27
417.357	5.23
417.564	5.12
417.772	5.06
417.98	5.12
418.188	5.18
418.395	4.99
418.603	5
418.811	4.86
419.019	4.77
419.226	4.83
419.434	4.99
419.642	4.89
419.849	4.99
420.057	5.06
420.265	4.98
420.472	4.85
420.68	4.96
420.887	4.86
421.095	4.77
421.302	4.77
421.51	4.78
421.717	4.73
421.925	4.87
422.132	4.89
422.34	4.71
422.547	4.77
422.755	4.84
422.962	4.73
423.17	4.6
423.377	4.8
423.585	4.98
423.792	4.87
423.999	4.93
424.207	4.96
424.414	4.88
424.621	4.68
424.829	4.81
425.036	4.88
425.243	4.99
425.451	5.14
425.658	5.19
425.865	5.13
426.072	5.11
426.28	5.16
426.487	5.05
426.694	4.91
426.901	4.89
427.108	4.89
427.315	4.73
427.523	4.63
427.73	4.92
427.937	4.86
428.144	4.81
428.351	4.92
428.558	5.04
428.765	4.83
428.972	4.96
429.179	4.89
429.386	4.93
429.593	4.77
429.8	4.69
430.007	4.69
430.214	4.79
430.421	4.72
430.628	4.86
430.835	5.03
431.042	4.91
431.249	4.91
431.456	4.94
431.662	5.13
431.869	5.22
432.076	5.25
432.283	5.37
432.49	5.34
432.697	5.17
432.903	4.99
433.11	5.17
433.317	5.08
433.524	5.03
433.73	5
433.937	5.17
434.144	5
434.35	5.01
434.557	5.11
434.764	5.23
434.97	4.98
435.177	5.1
435.384	5.11
435.59	5.18
435.797	5.12
436.003	5.3
436.21	5.2
436.416	5.24
436.623	5.13
436.829	5.11
437.036	5.11
437.242	5.22
437.449	5.21
437.655	5.35
437.862	5.38
438.068	5.38
438.275	5.47
438.481	5.42
438.687	5.32
438.894	5.46
439.1	5.41
439.307	5.42
439.513	5.46
439.719	5.58
439.926	5.53
440.132	5.58
440.338	5.36
440.544	5.38
440.751	5.29
440.957	5.27
441.163	5.2
441.369	5.37
441.575	5.37
441.782	5.49
441.988	5.53
442.194	5.54
442.4	5.42
442.606	5.53
442.812	5.42
443.018	5.4
443.224	5.55
443.431	5.6
443.637	5.51
443.843	5.61
444.049	5.66
444.255	5.69
444.461	5.59
444.667	5.61
444.873	5.56
445.079	5.61
445.284	5.49
445.49	5.53
445.696	5.49
445.902	5.49
446.108	5.49
446.314	5.5
446.52	5.63
446.726	5.67
446.931	5.58
447.137	5.55
447.343	5.6
447.549	5.62
447.755	5.65
447.96	5.82
448.166	5.74
448.372	5.76
448.578	5.64
448.783	5.67
448.989	5.66
449.195	5.67
449.4	5.74
449.606	5.83
449.812	5.74
450.017	5.72
450.223	5.72
450.428	5.68
450.634	5.65
450.84	5.65
451.045	5.66
451.251	5.77
451.456	5.77
451.662	5.83
451.867	5.98
452.073	5.97
452.278	5.96
452.483	5.91
452.689	5.88
452.894	5.88
453.1	5.84
453.305	5.77
453.51	5.91
453.716	5.84
453.921	5.79
454.127	5.78
454.332	5.85
454.537	5.7
454.742	5.79
454.948	5.79
455.153	5.78
455.358	5.82
455.563	5.91
455.769	5.82
455.974	5.77
456.179	5.8
456.384	5.64
456.589	5.56
456.795	5.65
457	5.66
457.205	5.63
457.41	5.66
457.615	5.6
457.82	5.6
458.025	5.61
458.23	5.66
458.435	5.76
458.64	5.8
458.845	5.84
459.05	5.92
459.255	5.93
459.46	5.85
459.665	5.93
459.87	5.85
460.075	5.8
460.28	5.81
460.485	5.9
460.69	5.86
460.895	6
461.099	5.96
461.304	5.83
461.509	5.8
461.714	5.84
461.919	5.75
462.123	5.74
462.328	5.77
462.533	5.63
462.738	5.6
462.942	5.56
463.147	5.59
463.352	5.69
463.556	5.83
463.761	5.81
463.966	5.81
464.17	5.87
464.375	5.94
464.58	5.94
464.784	5.99
464.989	6.09
465.193	6.07
465.398	6.04
465.602	6.17
465.807	6.23
466.011	6.26
466.216	6.22
466.42	6.24
466.625	6.2
466.829	6.15
467.034	6.12
467.238	6.27
467.443	6.28
467.647	6.23
467.851	6.27
468.056	6.34
468.26	6.28
468.464	6.26
468.669	6.3
468.873	6.3
469.077	6.33
469.282	6.28
469.486	6.29
469.69	6.29
469.894	6.4
470.099	6.27
470.303	6.32
470.507	6.34
470.711	6.31
470.915	6.27
471.119	6.38
471.324	6.41
471.528	6.39
471.732	6.4
471.936	6.44
472.14	6.35
472.344	6.45
472.548	6.57
472.752	6.64
472.956	6.61
473.16	6.69
473.364	6.68
473.568	6.57
473.772	6.5
473.976	6.6
474.18	6.63
474.384	6.57
474.588	6.65
474.792	6.73
474.995	6.68
475.199	6.7
475.403	6.73
475.607	6.78
475.811	6.78
476.015	6.74
476.218	6.68
476.422	6.64
476.626	6.65
476.83	6.69
477.033	6.78
477.237	6.84
477.441	6.87
477.644	6.85
477.848	6.84
478.052	6.81
478.255	6.78
478.459	6.8
478.663	6.9
478.866	6.95
479.07	6.92
479.273	6.95
479.477	7.05
479.681	7
479.884	6.98
480.088	7.02
480.291	7.02
480.495	6.96
480.698	6.96
480.901	7
481.105	6.99
481.308	7.03
481.512	7.08
481.715	7.15
481.919	7.2
482.122	7.21
482.325	7.18
482.529	7.2
482.732	7.2
482.935	7.09
483.138	7.13
483.342	7.19
483.545	7.18
483.748	7.17
483.952	7.28
484.155	7.29
484.358	7.34
484.561	7.33
484.764	7.28
484.967	7.23
485.171	7.24
485.374	7.17
485.577	7.22
485.78	7.21
485.983	7.15
486.186	7.11
486.389	7.13
486.592	7.04
486.795	7.14
486.998	7.23
487.201	7.28
487.404	7.39
487.607	7.55
487.81	7.5
488.013	7.46
488.216	7.42
488.419	7.33
488.622	7.2
488.825	7.23
489.028	7.29
489.231	7.34
489.433	7.39
489.636	7.46
489.839	7.48
490.042	7.45
490.245	7.37
490.447	7.31
490.65	7.35
490.853	7.31
491.056	7.35
491.258	7.46
491.461	7.53
491.664	7.5
491.866	7.53
492.069	7.57
492.272	7.51
492.474	7.48
492.677	7.54
492.879	7.53
493.082	7.46
493.285	7.57
493.487	7.66
493.69	7.64
493.892	7.64
494.095	7.75
494.297	7.81
494.5	7.82
494.702	7.83
494.905	7.9
495.107	7.9
495.309	7.91
495.512	7.94
495.714	7.99
495.917	8.04
496.119	8.06
496.321	8.03
496.524	8.02
496.726	8.06
496.928	8.08
497.13	8.05
497.333	8.09
497.535	8.18
497.737	8.23
497.939	8.27
498.142	8.28
498.344	8.29
498.546	8.28
498.748	8.34
498.95	8.47
499.152	8.58
499.355	8.62
499.557	8.65
499.759	8.67
499.961	8.61
500.163	8.61
500.365	8.67
500.567	8.68
500.769	8.67
500.971	8.67
501.173	8.69
501.375	8.76
501.577	8.77
501.779	8.73
501.981	8.84
502.183	8.84
502.385	8.81
502.587	8.92
502.788	9.05
502.99	9.07
503.192	9.15
503.394	9.13
503.596	9.1
503.798	9.02
503.999	8.99
504.201	8.95
504.403	9.01
504.605	9.01
504.806	9.08
505.008	9.07
505.21	9.08
505.411	9.11
505.613	9.22
505.815	9.18
506.016	9.23
506.218	9.3
506.42	9.25
506.621	9.23
506.823	9.22
507.024	9.22
507.226	9.17
507.427	9.2
507.629	9.17
507.83	9.24
508.032	9.18
508.233	9.28
508.435	9.31
508.636	9.35
508.838	9.31
509.039	9.35
509.24	9.36
509.442	9.31
509.643	9.3
509.845	9.3
510.046	9.35
510.247	9.32
510.448	9.37
510.65	9.37
510.851	9.42
511.052	9.43
511.254	9.53
511.455	9.5
511.656	9.43
511.857	9.5
512.058	9.47
512.26	9.39
512.461	9.42
512.662	9.55
512.863	9.36
513.064	9.33
513.265	9.28
513.466	9.29
513.667	9.25
513.868	9.37
514.069	9.38
514.27	9.46
514.471	9.43
514.672	9.43
514.873	9.37
515.074	9.4
515.275	9.34
515.476	9.39
515.677	9.42
515.878	9.52
516.079	9.46
516.28	9.39
516.481	9.38
516.682	9.34
516.882	9.32
517.083	9.3
517.284	9.39
517.485	9.35
517.686	9.37
517.886	9.33
518.087	9.37
518.288	9.39
518.488	9.4
518.689	9.43
518.89	9.48
519.091	9.59
519.291	9.61
519.492	9.63
519.692	9.62
519.893	9.63
520.094	9.56
520.294	9.54
520.495	9.54
520.695	9.56
520.896	9.53
521.096	9.57
521.297	9.6
521.497	9.59
521.698	9.51
521.898	9.53
522.099	9.54
522.299	9.51
522.499	9.54
522.7	9.58
522.9	9.6
523.101	9.56
523.301	9.56
523.501	9.63
523.702	9.65
523.902	9.71
524.102	9.81
524.302	9.87
524.503	9.85
524.703	9.86
524.903	9.78
525.103	9.68
525.304	9.67
525.504	9.71
525.704	9.68
525.904	9.72
526.104	9.75
526.304	9.8
526.504	9.77
526.705	9.81
526.905	9.81
527.105	9.84
527.305	9.8
527.505	9.79
527.705	9.81
527.905	9.83
528.105	9.82
528.305	9.81
528.505	9.85
528.705	9.91
528.905	9.89
529.105	9.89
529.304	9.94
529.504	9.97
529.704	9.92
529.904	9.96
530.104	9.99
530.304	10.02
530.503	10.03
530.703	10.02
530.903	10.04
531.103	10.11
531.303	10.09
531.502	10.1
531.702	10.17
531.902	10.25
532.101	10.16
532.301	10.16
532.501	10.2
532.7	10.22
532.9	10.2
533.1	10.27
533.299	10.3
533.499	10.29
533.698	10.32
533.898	10.34
534.097	10.33
534.297	10.32
534.496	10.3
534.696	10.31
534.895	10.38
535.095	10.41
535.294	10.45
535.494	10.49
535.693	10.49
535.892	10.43
536.092	10.49
536.291	10.46
536.491	10.44
536.69	10.47
536.889	10.45
537.088	10.43
537.288	10.5
537.487	10.59
537.686	10.51
537.886	10.56
538.085	10.59
538.284	10.62
538.483	10.65
538.682	10.79
538.882	10.76
539.081	10.81
539.28	10.83
539.479	10.79
539.678	10.84
539.877	10.95
540.076	10.89
540.275	10.95
540.474	10.98
540.673	11
540.872	10.98
541.071	11.08
541.27	11.08
541.469	11.08
541.668	11.06
541.867	11.1
542.066	11.17
542.265	11.19
542.464	11.29
542.663	11.37
542.862	11.47
543.06	11.48
543.259	11.61
543.458	11.61
543.657	11.69
543.856	11.69
544.054	11.71
544.253	11.67
544.452	11.71
544.651	11.72
544.849	11.74
545.048	11.78
545.247	11.83
545.445	11.81
545.644	11.86
545.843	11.87
546.041	11.87
546.24	11.92
546.438	12.02
546.637	12.02
546.836	12.07
547.034	12.15
547.233	12.24
547.431	12.26
547.63	12.31
547.828	12.33
548.027	12.38
548.225	12.39
548.423	12.44
548.622	12.51
548.82	12.59
549.019	12.57
549.217	12.64
549.415	12.72
549.614	12.78
549.812	12.82
550.01	12.92
550.209	12.97
550.407	12.98
550.605	13.01
550.803	13.08
551.002	13.16
551.2	13.16
551.398	13.28
551.596	13.33
551.794	13.4
551.993	13.38
552.191	13.5
552.389	13.55
552.587	13.57
552.785	13.64
552.983	13.77
553.181	13.82
553.379	13.85
553.577	13.97
553.775	14.09
553.973	14.18
554.171	14.3
554.369	14.41
554.567	14.48
554.765	14.43
554.963	14.43
555.161	14.39
555.359	14.42
555.557	14.45
555.755	14.67
555.952	14.86
556.15	14.98
556.348	15.09
556.546	15.26
556.744	15.27
556.941	15.18
557.139	15.28
557.337	15.38
557.535	15.36
557.732	15.42
557.93	15.65
558.128	15.77
558.325	15.8
558.523	16.05
558.721	16.17
558.918	16.22
559.116	16.35
559.313	16.53
559.511	16.54
559.708	16.61
559.906	16.75
560.104	16.73
560.301	16.78
560.498	16.92
560.696	16.98
560.893	17.06
561.091	17.14
561.288	17.24
561.486	17.26
561.683	17.41
561.88	17.56
562.078	17.82
562.275	17.9
562.473	18.05
562.67	18.13
562.867	18.16
563.064	18.19
563.262	18.24
563.459	18.36
563.656	18.48
563.853	18.54
564.051	18.71
564.248	18.79
564.445	18.9
564.642	19.05
564.839	19.23
565.036	19.3
565.234	19.47
565.431	19.58
565.628	19.55
565.825	19.68
566.022	19.74
566.219	19.8
566.416	19.8
566.613	19.98
566.81	20
567.007	20.06
567.204	20.12
567.401	20.24
567.598	20.34
567.795	20.44
567.991	20.52
568.188	20.68
568.385	20.74
568.582	20.8
568.779	20.87
568.976	21.01
569.172	21.09
569.369	21.25
569.566	21.33
569.763	21.39
569.96	21.48
570.156	21.5
570.353	21.47
570.55	21.55
570.746	21.67
570.943	21.73
571.14	21.82
571.336	21.9
571.533	21.91
571.729	21.89
571.926	21.96
572.123	22.02
572.319	22.08
572.516	22.21
572.712	22.32
572.909	22.28
573.105	22.4
573.302	22.43
573.498	22.39
573.695	22.36
573.891	22.45
574.087	22.38
574.284	22.48
574.48	22.54
574.677	22.64
574.873	22.64
575.069	22.73
575.266	22.68
575.462	22.76
575.658	22.87
575.854	22.99
576.051	23.07
576.247	23.05
576.443	23.04
576.639	22.98
576.835	22.84
577.032	22.82
577.228	22.93
577.424	22.89
577.62	22.84
577.816	22.86
578.012	22.82
578.208	22.82
578.404	22.84
578.6	22.95
578.796	23.05
578.993	23.1
579.189	23.17
579.384	23.16
579.58	23.1
579.776	23.07
579.972	23.13
580.168	23.05
580.364	23.15
580.56	23.12
580.756	23.1
580.952	23.04
581.148	23.1
581.343	23.04
581.539	23.1
581.735	23.11
581.931	23.06
582.127	23.02
582.322	23.06
582.518	23.06
582.714	22.97
582.909	22.94
583.105	22.87
583.301	22.81
583.496	22.77
583.692	22.82
583.888	22.84
584.083	22.88
584.279	22.83
584.474	22.77
584.67	22.71
584.866	22.78
585.061	22.81
585.257	22.75
585.452	22.75
585.648	22.78
585.843	22.74
586.039	22.7
586.234	22.79
586.429	22.79
586.625	22.88
586.82	22.9
587.015	22.94
587.211	22.9
587.406	22.99
587.601	22.95
587.797	22.93
587.992	22.9
588.187	22.82
588.383	22.86
588.578	22.85
588.773	22.85
588.968	22.92
589.163	23.14
589.359	22.99
589.554	22.99
589.749	23.03
589.944	23.08
590.139	23.08
590.334	23.2
590.529	23.19
590.724	23.22
590.919	23.22
591.114	23.22
591.309	23.25
591.504	23.28
591.699	23.35
591.894	23.35
592.089	23.38
592.284	23.49
592.479	23.59
592.674	23.67
592.869	23.73
593.064	23.78
593.259	23.8
593.454	23.87
593.648	23.93
593.843	23.93
594.038	24.04
594.233	24.03
594.428	23.99
594.622	24.01
594.817	24.08
595.012	24.12
595.206	24.18
595.401	24.39
595.596	24.43
595.79	24.46
595.985	24.48
596.18	24.67
596.374	24.8
596.569	24.9
596.763	25.11
596.958	25.13
597.153	25.11
597.347	25.01
597.542	25.06
597.736	25.02
597.931	25.17
598.125	25.25
598.319	25.29
598.514	25.33
598.708	25.43
598.903	25.46
599.097	25.54
599.291	25.63
599.486	25.79
599.68	25.73
599.874	25.77
600.069	25.8
600.263	25.84
600.457	25.8
600.651	25.94
600.846	26.02
601.04	26
601.234	26.06
601.428	26.07
601.622	26.11
601.817	26.11
602.011	26.17
602.205	26.14
602.399	26.13
602.593	26.1
602.787	26.14
602.981	26.12
603.175	26.25
603.369	26.14
603.563	26.26
603.757	26.23
603.951	26.27
604.145	26.21
604.339	26.38
604.533	26.27
604.727	26.27
604.921	26.33
605.115	26.3
605.309	26.14
605.502	26.17
605.696	26.19
605.89	26.14
606.084	26.1
606.278	26.22
606.471	26.14
606.665	26.01
606.859	25.91
607.053	25.8
607.246	25.75
607.44	25.65
607.634	25.68
607.827	25.64
608.021	25.64
608.214	25.54
608.408	25.54
608.602	25.32
608.795	25.26
608.989	25.25
609.182	25.27
609.376	25.18
609.569	25.25
609.763	25.11
609.956	24.93
610.15	24.82
610.343	24.74
610.537	24.58
610.73	24.53
610.923	24.53
611.117	24.47
611.31	24.39
611.504	24.39
611.697	24.41
611.89	24.33
612.083	24.1
612.277	24.07
612.47	23.91
612.663	23.78
612.856	23.71
613.05	23.79
613.243	23.64
613.436	23.6
613.629	23.54
613.822	23.53
614.015	23.44
614.209	23.43
614.402	23.38
614.595	23.34
614.788	23.22
614.981	23.09
615.174	23.03
615.367	22.97
615.56	22.86
615.753	22.8
615.946	22.71
616.139	22.73
616.332	22.72
616.525	22.68
616.718	22.66
616.911	22.71
617.103	22.61
617.296	22.54
617.489	22.53
617.682	22.46
617.875	22.48
618.067	22.45
618.26	22.36
618.453	22.29
618.646	22.3
618.838	22.11
619.031	22.01
619.224	22.04
619.417	22.03
619.609	21.99
619.802	21.97
619.994	21.99
620.187	21.84
620.38	21.77
620.572	21.69
620.765	21.76
620.957	21.67
621.15	21.64
621.342	21.65
621.535	21.62
621.727	21.54
621.92	21.52
622.112	21.6
622.305	21.58
622.497	21.59
622.69	21.54
622.882	21.65
623.074	21.65
623.267	21.56
623.459	21.49
623.651	21.51
623.844	21.43
624.036	21.39
624.228	21.4
624.42	21.35
624.613	21.26
624.805	21.19
624.997	21.19
625.189	21.19
625.381	21.15
625.574	21.12
625.766	21.11
625.958	21.06
626.15	21
626.342	21.04
626.534	21.02
626.726	20.91
626.918	20.9
627.11	20.9
627.302	20.84
627.494	20.82
627.686	20.78
627.878	20.72
628.07	20.75
628.262	20.79
628.454	20.83
628.646	20.86
628.838	20.92
629.029	20.77
629.221	20.68
629.413	20.59
629.605	20.43
629.797	20.29
629.989	20.33
630.18	20.35
630.372	20.31
630.564	20.4
630.755	20.35
630.947	20.29
631.139	20.18
631.33	20.19
631.522	20.15
631.714	20.14
631.905	20.16
632.097	20.11
632.289	20.02
632.48	19.97
632.672	19.95
632.863	19.78
633.055	19.84
633.246	19.91
633.438	19.89
633.629	19.88
633.821	20.04
634.012	20.01
634.203	19.96
634.395	20
634.586	19.94
634.777	19.88
634.969	19.93
635.16	19.86
635.351	19.79
635.543	19.82
635.734	19.8
635.925	19.7
636.117	19.76
636.308	19.79
636.499	19.77
636.69	19.73
636.881	19.69
637.073	19.75
637.264	19.72
637.455	19.73
637.646	19.76
637.837	19.8
638.028	19.66
638.219	19.77
638.41	19.74
638.601	19.64
638.792	19.65
638.983	19.64
639.174	19.5
639.365	19.49
639.556	19.46
639.747	19.42
639.938	19.49
640.129	19.51
640.32	19.45
640.511	19.46
640.701	19.57
640.892	19.44
641.083	19.45
641.274	19.46
641.465	19.46
641.655	19.27
641.846	19.34
642.037	19.24
642.228	19.18
642.418	19.16
642.609	19.14
642.8	19.03
642.99	19.09
643.181	19.16
643.372	19.1
643.562	19.11
643.753	19.16
643.943	19.04
644.134	18.86
644.324	18.87
644.515	18.78
644.705	18.82
644.896	18.9
645.086	19
645.277	18.95
645.467	19.01
645.658	18.85
645.848	18.74
646.038	18.68
646.229	18.73
646.419	18.64
646.61	18.7
646.8	18.75
646.99	18.77
647.18	18.69
647.371	18.69
647.561	18.64
647.751	18.55
647.941	18.55
648.132	18.52
648.322	18.53
648.512	18.57
648.702	18.63
648.892	18.64
649.082	18.68
649.272	18.62
649.462	18.57
649.653	18.55
649.843	18.47
650.033	18.4
650.223	18.31
650.413	18.28
650.603	18.27
650.793	18.31
650.983	18.27
651.172	18.33
651.362	18.19
651.552	18.07
651.742	17.95
651.932	17.93
652.122	17.88
652.312	17.91
652.502	17.81
652.691	17.69
652.881	17.6
653.071	17.55
653.261	17.53
653.45	17.48
653.64	17.47
653.83	17.42
654.019	17.3
654.209	17.17
654.399	17.06
654.588	16.95
654.778	16.75
654.968	16.64
655.157	16.5
655.347	16.4
655.536	16.25
655.726	16.09
655.915	15.95
656.105	15.88
656.294	15.62
656.484	15.46
656.673	15.42
656.863	15.32
657.052	15.12
657.241	15.12
657.431	15.05
657.62	14.88
657.809	14.65
657.999	14.56
658.188	14.42
658.377	14.14
658.567	13.97
658.756	13.89
658.945	13.73
659.134	13.52
659.324	13.44
659.513	13.24
659.702	12.97
659.891	12.81
660.08	12.69
660.269	12.56
660.458	12.43
660.648	12.29
660.837	12.14
661.026	11.96
661.215	11.76
661.404	11.66
661.593	11.63
661.782	11.44
661.971	11.27
662.16	11.2
662.349	10.99
662.538	10.83
662.726	10.73
662.915	10.7
663.104	10.57
663.293	10.61
663.482	10.46
663.671	10.37
663.86	10.26
664.048	10.28
664.237	10.13
664.426	10.04
664.615	9.95
664.803	9.76
664.992	9.55
665.181	9.6
665.369	9.47
665.558	9.4
665.747	9.5
665.935	9.49
666.124	9.32
666.312	9.37
666.501	9.32
666.69	9.22
666.878	9.12
667.067	9.01
667.255	8.97
667.444	9
667.632	9.03
667.82	9.1
668.009	9.12
668.197	9.07
668.386	8.94
668.574	8.89
668.762	8.78
668.951	8.86
669.139	8.82
669.327	8.77
669.516	8.68
669.704	8.71
669.892	8.66
670.08	8.68
670.269	8.75
670.457	8.74
670.645	8.7
670.833	8.7
671.021	8.82
671.21	8.78
671.398	8.82
671.586	8.93
671.774	9
671.962	8.96
672.15	9.13
672.338	9.21
672.526	9.17
672.714	9.1
672.902	9.17
673.09	9.22
673.278	9.38
673.466	9.5
673.654	9.65
673.842	9.71
674.03	9.72
674.218	9.71
674.405	9.71
674.593	9.8
674.781	9.9
674.969	9.98
675.157	10.07
675.344	10.12
675.532	9.96
675.72	9.98
675.908	9.92
676.095	9.88
676.283	10.04
676.471	10.22
676.658	10.27
676.846	10.33
677.033	10.35
677.221	10.35
677.409	10.5
677.596	10.63
677.784	10.9
677.971	10.94
678.159	11.04
678.346	11.04
678.534	11.1
678.721	11.16
678.909	11.5
679.096	11.61
679.283	11.81
679.471	11.87
679.658	11.94
679.846	11.89
680.033	12.12
680.22	12.27
680.408	12.24
680.595	12.36
680.782	12.52
680.969	12.6
681.157	12.64
681.344	12.86
681.531	12.94
681.718	13.09
681.905	13.21
682.093	13.32
682.28	13.58
682.467	13.84
682.654	13.99
682.841	14.15
683.028	14.21
683.215	14.45
683.402	14.49
683.589	14.65
683.776	14.87
683.963	15.3
684.15	15.5
684.337	15.8
684.524	15.96
684.711	16.05
684.898	16.18
685.085	16.24
685.271	16.59
685.458	17.11
685.645	17.28
685.832	17.55
686.019	17.81
686.205	17.99
686.392	18.22
686.579	18.69
686.766	19.03
686.952	19.5
687.139	19.97
687.326	20.22
687.512	20.64
687.699	20.97
687.886	21.21
688.072	21.57
688.259	22.05
688.445	22.37
688.632	22.86
688.818	23.44
689.005	23.94
689.191	24.45
689.378	25.11
689.564	25.54
689.751	25.98
689.937	26.31
690.124	26.75
690.31	26.91
690.496	27.57
690.683	28.2
690.869	28.79
691.055	29.3
691.242	29.92
691.428	30.58
691.614	31.21
691.8	31.61
691.987	32.33
692.173	33.13
692.359	33.57
692.545	34.22
692.731	35.06
692.918	35.37
693.104	35.99
693.29	36.66
693.476	37.12
693.662	37.59
693.848	38.32
694.034	38.89
694.22	39.5
694.406	40.22
694.592	40.98
694.778	41.52
694.964	42.04
695.15	42.56
695.336	42.97
695.522	43.58
695.708	44.31
695.894	45.09
696.08	45.67
696.265	46.43
696.451	46.81
696.637	47.52
696.823	48
697.009	48.66
697.194	49.13
697.38	49.62
697.566	49.9
697.751	50.67
697.937	51.27
698.123	51.91
698.308	52.46
698.494	53.35
698.68	53.66
698.865	53.9
699.051	54.22
699.236	54.82
699.422	55.22
699.607	55.8
699.793	56.74
699.978	57.25
700.164	57.58
700.349	57.94
700.535	57.83
700.72	57.88
700.906	58.17
701.091	58.55
701.276	58.68
701.462	59.62
701.647	59.95
701.832	60.44
702.018	61.1
702.203	61.87
702.388	61.87
702.573	62.53
702.759	63.09
702.944	63.26
703.129	63.36
703.314	63.91
703.499	63.87
703.684	64.06
703.87	64.35
704.055	64.59
704.24	64.82
704.425	65.09
704.61	65.32
704.795	65.86
704.98	65.81
705.165	66
705.35	66.62
705.535	66.72
705.72	66.75
705.905	67.55
706.09	68.04
706.275	67.97
706.459	68.39
706.644	68.56
706.829	68.68
707.014	68.73
707.199	69.01
707.384	69.01
707.568	69.26
707.753	69.78
707.938	70.14
708.123	70.38
708.307	70.68
708.492	71.01
708.677	70.63
708.861	70.75
709.046	70.54
709.231	70.58
709.415	70.63
709.6	70.74
709.784	70.66
709.969	71.27
710.153	71.28
710.338	71.6
710.522	72.04
710.707	71.88
710.891	71.92
711.076	72.39
711.26	72.23
711.445	72.31
711.629	72.5
711.813	72.48
711.998	72.46
712.182	72.24
712.366	72.63
712.551	73.3
712.735	73.36
712.919	73.75
713.103	74.31
713.288	74.29
713.472	74.36
713.656	74.39
713.84	74.25
714.024	74.26
714.208	73.73
714.393	73.64
714.577	74.12
714.761	74.25
714.945	74.08
715.129	74.43
715.313	74.55
715.497	74.32
715.681	74.14
715.865	74.26
716.049	74.44
716.233	74.14
716.417	74.18
716.601	74.81
716.785	74.91
716.968	75.17
717.152	75.16
717.336	75.49
717.52	75.48
717.704	75.74
717.888	75.75
718.071	76.12
718.255	76
718.439	75.73
718.622	75.88
718.806	75.45
718.99	75.45
719.174	75.99
719.357	76.32
719.541	76.84
719.724	77.39
719.908	77.4
720.092	76.96
720.275	76.92
720.459	76.76
720.642	76.7
720.826	76.5
721.009	76.4
721.193	75.9
721.376	75.87
721.559	76.1
721.743	77.03
721.926	77.6
722.11	78.32
722.293	78.24
722.476	77.79
722.66	78.08
722.843	77.58
723.026	77.78
723.21	77.64
723.393	78.38
723.576	77.79
723.759	78.49
723.942	78.69
724.126	79.02
724.309	78.74
724.492	78.56
724.675	78.62
724.858	78.18
725.041	78.57
725.224	78.91
725.407	79.06
725.59	79.03
725.774	79.38
725.957	78.85
726.14	78.58
726.322	78.92
726.505	79.02
726.688	78.92
726.871	79.09
727.054	79.97
727.237	79.65
727.42	79.11
727.603	78.73
727.786	78.74
727.968	77.74
728.151	78.06
728.334	78.8
728.517	79.27
728.699	79.71
728.882	80.04
729.065	80.23
729.248	79.87
729.43	80.31
729.613	79.84
729.796	80.19
729.978	79.98
730.161	80.45
730.343	80.15
730.526	80.63
730.708	80.73
730.891	81.39
731.073	81.19
731.256	81.57
731.438	82.2
731.621	81.87
731.803	81.52
731.986	82.09
732.168	82.05
732.35	81.69
732.533	82.1
732.715	82.39
732.898	82.12
733.08	82.48
733.262	81.71
733.444	81.93
733.627	81.51
733.809	81.81
733.991	81.84
734.173	82.63
734.355	82.43
734.538	83.67
734.72	83.56
734.902	83.52
735.084	83.69
735.266	84.24
735.448	83.8
735.63	83.73
735.812	83.65
735.994	83.85
736.176	83.55
736.358	83.96
736.54	84.94
736.722	84.58
736.904	85
737.086	84.83
737.268	84.61
737.45	84.22
737.632	85
737.814	84.71
737.995	84.95
738.177	84.67
738.359	84.08
738.541	83.48
738.723	83.24
738.904	83.38
739.086	83.84
739.268	84.3
739.449	84.2
739.631	83.94
739.813	83.06
739.994	82.19
740.176	82.01
740.358	82.41
740.539	82.65
740.721	83.64
740.902	84.2
741.084	84.81
741.265	85.03
741.447	85.78
741.628	85.91
741.81	86.77
741.991	86.63
742.172	86.14
742.354	85.56
742.535	85.08
742.717	83.71
742.898	83.62
743.079	84.07
743.261	83.82
743.442	83.09
743.623	83.82
743.804	83.28
743.986	83.18
744.167	83.17
744.348	83.14
744.529	83.3
744.71	82.28
744.891	82.21
745.073	82.47
745.254	83.92
745.435	83.21
745.616	84.57
745.797	84.18
745.978	84.17
746.159	82.72
746.34	83.6
746.521	83.8
746.702	85.5
746.883	85.47
747.064	86.71
747.245	86.02
747.426	86.31
747.606	84.99
747.787	85.3
747.968	84.4
748.149	83.91
748.33	83.15
748.51	82.33
748.691	81.74
748.872	83.86
749.053	83.71
749.233	83.02
749.414	84.53
749.595	84.52
749.775	82.88
749.956	82.94
750.137	83.77
750.317	81.71
750.498	81.79
750.678	81.4
750.859	82.22
751.04	83.24
751.22	83.75
751.4	84.39
751.581	85.19
751.761	85.71
751.942	84.88
752.122	85.08
752.303	85
752.483	83.46
752.663	83.04
752.844	82.93
753.024	84.51
753.204	83.98
753.385	85.22
753.565	84.02
753.745	83.11
753.925	81.22
754.106	81.67
754.286	81.53
754.466	81.63
754.646	82.69
754.826	84.05
755.006	82.48
755.187	83.05
755.367	82.56
755.547	81.45
755.727	80.23
755.907	80.27
756.087	80
756.267	80.14
756.447	81.64
756.627	82.62
756.807	85.23
756.987	84.73
757.167	85.98
757.346	83.88
757.526	84.86
757.706	83.19
757.886	83.22
758.066	84.28
758.246	84.89
758.425	83.3
758.605	83.44
758.785	82.68
758.965	81.03
759.144	81
759.324	81.83
759.504	81.25
759.683	80.91
759.863	81.68
760.043	81.71
760.222	81.45
760.402	81.42
760.581	83.32
760.761	82.09
760.94	83.49
761.12	82.96
761.299	84.51
761.479	83.65
761.658	84.35
761.838	83.17
762.017	83.72
762.197	81.42
762.376	81.32
762.555	80.73
762.735	81.5
762.914	80.41
763.093	80.61
763.273	80.14
763.452	79.79
763.631	77.97
763.81	78.36
763.99	78.31
764.169	78.65
764.348	79.38
764.527	79.65
764.706	78.24
764.885	79.88
765.064	80.14
765.243	78.85
765.423	80.15
765.602	80.9
765.781	79.2
765.96	78.64
766.139	77.92
766.318	77.97
766.497	77.51
766.676	77.29
766.854	77.74
767.033	79.92
767.212	80.44
767.391	80.46
767.57	83.07
767.749	81.72
767.928	81.35
768.106	79.16
768.285	78.88
768.464	76.77
768.643	77.71
768.821	76.89
769	77.25
769.179	79.13
769.357	78.74
769.536	77.56
769.715	77.31
769.893	78.6
770.072	76.6
770.25	75.68
770.429	77.3
770.607	77.48
770.786	76.76
770.964	77.7
771.143	78.57
771.321	77.66
771.5	79.2
771.678	78.37
771.857	78.43
772.035	78.98
772.213	79.6
772.392	76.82
772.57	77.4
772.748	75.95
772.927	75.51
773.105	76.13
773.283	76.64
773.461	76.65
773.64	77.1
773.818	77.55
773.996	78.39
774.174	79.31
774.352	77.7
774.531	77.01
774.709	76.41
774.887	72.57
775.065	71.38
775.243	72.47
775.421	72.14
775.599	72.84
775.777	72.93
775.955	72.9
776.133	74.39
776.311	75.23
776.489	75.71
776.667	77.11
776.844	78.16
777.022	76.06
777.2	75.81
777.378	73.74
777.556	75.29
777.734	77.74
777.911	78.16
778.089	80.35
778.267	80.79
778.445	84.13
778.622	82.27
778.8	79.39
778.978	78.53
779.155	81.02
779.333	77.66
779.511	76.69
779.688	79.61
779.866	78.5
780.043	76.46
780.221	76.53
780.398	75.01
780.576	73.25
780.753	74.58
780.931	74.08
781.108	72.13
781.286	74.84
781.463	75.74
781.64	74.75
781.818	75.89
781.995	78.7
782.172	76.91
782.35	77.55
782.527	79.36
782.704	78.45
782.882	75.42
783.059	75.78
783.236	76.17
783.413	72.05
783.59	72.02
783.768	72.21
783.945	72.15
784.122	71.46
784.299	74.11
784.476	72.97
784.653	72.92
784.83	73
785.007	72.11
785.184	70.71
785.361	71.21
785.538	70.54
785.715	72.03
785.892	71.76
786.069	73.92
786.246	74.01
786.423	76.06
786.6	76.31
786.776	79.25
786.953	76.14
787.13	78.23
787.307	75.85
787.484	71.75
787.66	70.32
787.837	73.4
788.014	73.28
788.191	73.16
788.367	75.65
788.544	74.36
788.721	71.38
788.897	71.21
789.074	71.38
789.25	69.04
789.427	67.36
789.603	66.25
789.78	63.72
789.956	65.73
790.133	65.52
790.309	68.28
790.486	68.28
790.662	68.51
790.839	66.55
791.015	68.16
791.192	67.6
791.368	70.59
791.544	71.86
791.721	72.13
791.897	69.07
792.073	67.48
792.249	63.54
792.426	64.97
792.602	65.58
792.778	66.67
792.954	70.45
793.13	74.38
793.307	72.23
793.483	71.94
793.659	74.1
793.835	75.1
794.011	78.74
794.187	80.17
794.363	79.61
794.539	82.08
794.715	77.77
794.891	71.62
795.067	70.41
795.243	71.12
795.419	66.52
795.595	69.69
795.771	69.54
795.947	68.57
796.122	63.48
796.298	63.3
796.474	64.72
796.65	68.64
796.826	70.59
797.001	77.35
797.177	74.1
797.353	67.9
797.529	66.52
797.704	61.82
797.88	58.47
798.056	65.53
798.231	64.94
798.407	70.8
798.582	75.33
798.758	76.54
798.934	76.39
799.109	77.16
799.285	69.85
799.46	67.22
799.636	63.45
799.811	64.61
799.986	65.12
800.162	61.17
800.337	60.89
800.513	66.12
800.688	60.6
800.863	71.31
801.039	73.64
801.214	73.62
801.389	70.42
801.565	70.27
801.74	63.34
801.915	64.88
802.09	60.12
802.265	63.77
802.441	67.9
802.616	65.54
802.791	70.01
802.966	80.41
803.141	75.65
803.316	76.79
803.491	80.41
803.666	76.11
803.841	71.58
804.016	71.75
804.191	70.03
804.366	65.05
804.541	68.59
804.716	67.36
804.891	71.9
805.066	73.62
805.241	69.18
805.416	68.65
805.591	71.94
805.765	69.36
805.94	66.98
806.115	67.22
806.29	62.88
806.464	61.87
806.639	63.29
806.814	60.81
806.989	68.27
807.163	75.41
807.338	71.61
807.512	75.01
807.687	73.13
807.862	69.49
808.036	66.24
808.211	66.22
808.385	64.58
808.56	68.36
808.734	66.42
808.909	67.11
809.083	69.42
809.258	67.97
809.432	73.09
809.606	79.84
809.781	78.63
809.955	81.51
810.13	76.31
810.304	68.24
810.478	62.33
810.652	57.66
810.827	56.89
811.001	56.75
811.175	60.87
811.349	65.46
811.524	69.44
811.698	66.7
811.872	69.69
812.046	63.47
812.22	62.67
812.394	65.28
812.568	71.31
812.742	67.87
812.916	74.17
813.09	76.96
813.264	72.87
813.438	67.82
813.612	64.07
813.786	63.48
813.96	63.42
814.134	60.08
814.308	63.89
814.482	70.67
814.656	64.48
814.83	63.78
815.003	67.85
815.177	66.11
815.351	70.74
815.525	79.42
815.698	76.42
815.872	69.21
816.046	65.5
816.219	70.73
816.393	65.19
816.567	71.93
816.74	79.24
816.914	77.95
817.088	67.7
817.261	73.59
817.435	70.61
817.608	62.14
817.782	64.54
817.955	66.46
818.129	52.82
818.302	52.93
818.475	59.06
818.649	60.67
818.822	51.66
818.996	67.21
819.169	68.14
819.342	69.43
819.516	72.97
819.689	69.82
819.862	62.11
820.035	59.24
820.209	57.68
820.382	44
820.555	49.2
820.728	43.04
820.901	30.62
821.075	28.76
821.248	47.77
821.421	42.63
821.594	46.83
821.767	69.55
821.94	63.11
822.113	64.75
822.286	78.84
822.459	79.55
822.632	66.35
822.805	72.86
822.978	70.05
823.151	54.2
823.324	46.12
823.496	42.37
823.669	43.94
823.842	52.1
824.015	64.35
824.188	70.21
824.361	75.7
824.533	63.18
824.706	50.46
824.879	49.28
825.051	55.85
825.224	52.74
825.397	54.94
825.569	57.34
825.742	58.32
825.915	57.11
826.087	48.19
826.26	48.63
826.432	44.63
826.605	36.56
826.777	39.73
826.95	37.34
827.122	29.8
827.295	46.12
827.467	55.66
827.64	43.16
827.812	55.53
827.984	74.33
828.157	39.26
828.329	45.74
828.501	44.48
828.674	54.16
828.846	44.34
829.018	55
829.19	48.39
829.363	68.3
829.535	77.49
829.707	97.86
829.879	86.85
830.051	93.95
830.223	82.46
830.395	70.01
830.568	54.15
830.74	57.02
830.912	50.16
831.084	39.63
831.256	31.31
831.428	21.25
831.6	17.36
831.772	11.82
831.943	8.77
832.115	10.85
832.287	30.67
832.459	33.96
832.631	41.25
832.803	53.65
832.975	62.19
833.146	50.65
833.318	62.02
833.49	65.1
833.662	68.21
833.833	56.26
834.005	73.48
834.177	61.47
834.348	56.42
834.52	49.57
834.692	52.88
834.863	52.21
835.035	57.78
835.206	58.33
835.378	58.39
835.549	51.54
835.721	51.14
835.892	46.24
836.064	53.83
836.235	57.48
836.407	59.86
836.578	55.83
836.749	44.65
836.921	38.6
837.092	31.86
837.264	37.47
837.435	31.14
837.606	60.56
837.777	55.86
837.949	54.23
838.12	51.01
838.291	63.28
838.462	56.35
838.633	61.17
838.805	60.46
838.976	60.78
839.147	53.2
839.318	41.62
839.489	24.38
839.66	49.36
839.831	50.23
840.002	41.12
840.173	44.43
840.344	45.4
840.515	34.6
840.686	35.35
840.857	36.54
841.028	41.45
841.199	55.18
841.369	52.04
841.54	45.24
841.711	85.09
841.882	85.93
842.053	51.05
842.223	29.21
842.394	28.72
842.565	18.18
842.736	22.38
842.906	23.31
843.077	49.66
843.248	63.71
843.418	45.6
843.589	39.78
843.759	58.31
843.93	64.54
844.101	53.84
844.271	78.91
844.442	66.88
844.612	56.06
844.783	49.32
844.953	45.32
845.123	39.61
845.294	46.01
845.464	32.06
845.635	29.74
845.805	53.71
845.975	57.67
846.146	36.67
846.316	61.04
846.486	48.27
846.656	50.62
846.827	55.81
846.997	52.37
847.167	36.92
847.337	44.91
847.507	42.48
847.677	39.16
847.848	57.66
848.018	74.91
848.188	82.14
848.358	66.91
848.528	67.25
848.698	35.4
848.868	27.06
849.038	9.33
849.208	20.73
849.378	26.87
849.548	24.16
849.718	22.01
849.887	25.44
850.057	14.86
850.227	25.31
850.397	49.28
850.567	30.7
850.737	44.77
850.906	58.19
851.076	13.84
851.246	28.04
851.415	43.44
851.585	33.43
851.755	46.65
851.924	70.97
852.094	65.95
852.264	52.45
852.433	44.32
852.603	22.07
852.772	41.35
852.942	56.12
853.111	52.15
853.281	52.68
853.45	43.03
853.62	27.33
853.789	-5.29
853.959	31.79
854.128	44.63
854.297	52.7
854.467	47.72
854.636	54.8
854.805	33.57
854.975	27.93
855.144	32.07
855.313	50.87
855.482	44.09
855.652	48.64
855.821	26.56
855.99	40.01
856.159	44.09
856.328	20.08
856.497	23.66
856.667	46.36
856.836	43.22
857.005	41.72
857.174	75.88
857.343	72.29
857.512	47.67
857.681	40.07
857.85	8.96
858.019	-13.53
858.188	15.45
858.356	22.09
858.525	26.5
858.694	43.37
858.863	34.61
859.032	36.75
859.201	46.36
859.369	69.92
859.538	63
859.707	69.29
859.876	72.53
860.044	77.07
860.213	68.74
860.382	51.22
860.55	45.88
860.719	45.93
860.888	22.57
861.056	15
861.225	37.7
861.393	51.37
861.562	55.78
861.73	53.78
861.899	46.46
862.067	20.59
862.236	4.86
862.404	-9.04
862.572	-28.84
862.741	-38.95
862.909	8.48
863.078	37.12
863.246	29.81
863.414	38.42
863.582	39.91
863.751	42.67
863.919	9.27
864.087	16.39
864.255	27.43
864.424	28.99
864.592	19.23
864.76	27.34
864.928	22.64
865.096	8.58
865.264	-3.12
865.432	-5.47
865.6	32.76
865.768	-13.37
865.936	15.32
866.104	42.41
866.272	-1.92
866.44	-37.83
866.608	6.66
866.776	-9.63
866.944	3.86
867.112	29.65
867.28	34.91
867.448	57.55
867.615	63.09
867.783	45.61
867.951	32.45
868.119	30.54
868.286	2.11
868.454	8.43
868.622	12.39
868.789	27.44
868.957	30.03
869.125	25.54
869.292	-6.29
869.46	10.43
869.627	10.52
869.795	11.91
869.963	29.28
870.13	44.48
870.298	37.95
870.465	32.7
870.632	-0.28
870.8	11.19
870.967	12.31
871.135	24.6
871.302	18.86
871.469	36.21
871.637	29.51
871.804	34.69
871.971	9.95
872.139	-7.25
872.306	-35.86
872.473	-54.92
872.64	-152.05
872.807	-102.69
872.975	-197.89
873.142	-23.1
873.309	-3.1
873.476	47.95
873.643	62.53
873.81	61.42
873.977	45.34
874.144	97.39
874.311	84.81
874.478	74.42
874.645	39.78
874.812	88.13
874.979	74.09
875.146	11.19
875.313	7.32
875.48	26.92
875.647	0.92
875.813	-40.14
875.98	-22.3
876.147	-48.34
876.314	-8.1
876.481	32.17
876.647	30.47
876.814	41.63
876.981	41.64
877.147	47.73
877.314	46.83
877.481	46.05
877.647	68.4
877.814	65.93
877.98	61.91
878.147	60.61
878.314	87.66
878.48	83.15
878.647	80.99
878.813	86.72
878.979	80.64
879.146	82.41
879.312	87.84
879.479	77.26
879.645	67.19
879.811	51.45
879.978	35.29
880.144	16.29
880.31	20.65
880.477	31.43
880.643	46.3
880.809	58.45
880.975	88.93
881.142	51.84
881.308	195.02
881.474	222.91
881.64	-38.66
881.806	-146.45
881.972	5.41
882.138	28.04
882.304	9.01
882.47	-1.23
882.636	2.31
882.802	-36.57
882.968	-34.43
883.134	-11.65
883.3	15.07
883.466	69.7
883.632	50.13
883.798	-28.58
883.964	4.47
884.129	-292.14
884.295	44.53
884.461	6.93
884.627	55.73
884.793	45.96
884.958	60.88
885.124	63.26
885.29	40.53
885.455	70.76
885.621	111.86
885.787	48.23
885.952	-29.61
886.118	53.56
886.283	56.19
886.449	37.83
886.614	53.22
886.78	70.27
886.945	18.51
887.111	-29.24
887.276	-32.78
887.442	-135.21
887.607	-104.87
887.773	-58.86
887.938	-29.91
888.103	-21.32
888.269	9
888.434	0.29
888.599	16.38
888.764	25.39
888.93	37.57
889.095	35.63
889.26	30.86
889.425	16.42
889.59	64.46
889.756	48.31
889.921	35.62
890.086	141.34
890.251	167.07
890.416	12.55
890.581	-1.04
890.746	22.43
890.911	4.71
891.076	12.7
891.241	18.92
891.406	13.84
891.571	75.74
891.736	118.64
891.901	102.4
892.065	85.58
892.23	108.02
892.395	53.49
892.56	44.79
892.725	12.29
892.889	22.07
893.054	-34.18
893.219	-52.02
893.384	-46.29
893.548	-57.32
893.713	-91.87
893.878	-114.87
