Data from Ofra_PS_T2_1A_9GT30_Reflection_1.txt Node
Date: Wed Jul 21 18:19:23 EDT 2021
User: Adam
Spectrometer: FLMT01687
Trigger mode: 0
Integration Time (sec): 1.100000E0
Scans to average: 2
Electric dark correction enabled: true
Nonlinearity correction enabled: false
Boxcar width: 2
XAxis mode: Wavelengths
Number of Pixels in Spectrum: 3648
>>>>>Begin Spectral Data<<<<<
179.494	493.6
179.716	535.53
179.937	547.58
180.158	502
180.38	810.62
180.601	285.64
180.823	81.59
181.044	-184.36
181.265	49.26
181.486	1.88
181.708	59.82
181.929	871.43
182.15	-981.69
182.372	-12.5
182.593	-62.02
182.814	3.96
183.035	62.96
183.257	63.43
183.478	-38.51
183.699	31.49
183.92	-7.98
184.141	-16.82
184.363	-35.82
184.584	49.36
184.805	12.83
185.026	21.85
185.247	59
185.468	34.69
185.689	7.05
185.91	6.87
186.132	13.69
186.353	-12.88
186.574	27.81
186.795	27.84
187.016	-11.81
187.237	-9.63
187.458	-51.83
187.679	-51.95
187.9	-15.14
188.121	6.86
188.342	7.97
188.563	73.66
188.784	100.73
189.005	99.26
189.226	127.58
189.447	115.34
189.667	-77.67
189.888	-287.19
190.109	-1154.55
190.33	-633.55
190.551	-1073.45
190.772	-297.34
190.993	-211.46
191.214	-183.62
191.434	-165.7
191.655	-55.34
191.876	-61.99
192.097	-151.22
192.318	-225.82
192.538	-246.63
192.759	-194.22
192.98	-106.82
193.201	-10.3
193.421	14.86
193.642	24.02
193.863	25.68
194.083	9.49
194.304	-26.68
194.525	-24.47
194.745	-64.79
194.966	-84.57
195.187	-80.71
195.407	-85.73
195.628	-145.05
195.848	-101.74
196.069	-85.37
196.29	-14.21
196.51	-49.17
196.731	-42.79
196.951	-92.94
197.172	-109.05
197.392	-170.4
197.613	-162.22
197.833	-181.66
198.054	-139.11
198.274	-86.75
198.495	-86.25
198.715	-38.78
198.936	-48.07
199.156	-23.58
199.377	-81.67
199.597	-74.77
199.817	-84.35
200.038	-47.43
200.258	-114.97
200.479	-63.67
200.699	-90.28
200.919	-38.79
201.14	-52.08
201.36	-70.2
201.58	-34.75
201.801	4.23
202.021	-35
202.241	-38.17
202.461	-14.52
202.682	-64.02
202.902	-114.23
203.122	-53.77
203.342	-41.58
203.563	-12.65
203.783	10.62
204.003	-5.24
204.223	6.93
204.443	52.28
204.663	20.76
204.884	43.99
205.104	59.4
205.324	76.95
205.544	67.69
205.764	77.81
205.984	57.35
206.204	56.39
206.424	32.03
206.644	7.14
206.864	1.23
207.084	-19.73
207.304	-13.19
207.525	-116.56
207.745	-71.11
207.964	-23.11
208.184	-50.62
208.404	-95.53
208.624	-86.97
208.844	-95.43
209.064	-343.78
209.284	-326.68
209.504	-123.45
209.724	-23.84
209.944	-10.4
210.164	10.07
210.384	6.27
210.604	-6.97
210.823	-47.65
211.043	-47.97
211.263	-28.45
211.483	-21.39
211.703	-73.99
211.922	-48.49
212.142	-5.9
212.362	8.04
212.582	-14.78
212.801	6.66
213.021	-6.91
213.241	-32.38
213.461	-76.02
213.68	-96.2
213.9	-96.35
214.12	-76.5
214.339	-126.23
214.559	-92.7
214.779	-26.98
214.998	-22.74
215.218	-71.39
215.438	-48.49
215.657	-63.86
215.877	-84.53
216.096	-36
216.316	-2.02
216.535	13.28
216.755	1.52
216.974	-49.78
217.194	-91.17
217.413	-109.15
217.633	-141.38
217.852	-219.58
218.072	-96.92
218.291	-49.89
218.511	-13.95
218.73	-19.83
218.95	-10.55
219.169	-15.21
219.389	-53.46
219.608	-47.58
219.827	-42.66
220.047	-34.16
220.266	-18.72
220.485	-6.58
220.705	6.5
220.924	-19.03
221.143	16.26
221.363	-5.9
221.582	-1.08
221.801	-12.4
222.021	3.27
222.24	-75.14
222.459	-12.05
222.678	-26.74
222.897	-56.65
223.117	-58.43
223.336	-59.02
223.555	-47.49
223.774	-9.03
223.993	-26.36
224.213	22.46
224.432	7.79
224.651	23.39
224.87	-3.06
225.089	8.54
225.308	-11.27
225.527	6.19
225.746	-15.2
225.965	-15.2
226.184	-29.76
226.404	6.72
226.623	-9.25
226.842	7.55
227.061	17.99
227.28	31.52
227.499	30.12
227.718	47.76
227.936	25.65
228.155	37.79
228.374	12.82
228.593	19.75
228.812	1.24
229.031	16.43
229.25	-32.83
229.469	-42.72
229.688	-68.34
229.907	-32.06
230.125	-17.14
230.344	9.77
230.563	33.29
230.782	35.86
231.001	-35.89
231.22	-38.34
231.438	-19.2
231.657	-29.4
231.876	-45.54
232.095	9.75
232.313	4.29
232.532	-22.8
232.751	-16.53
232.969	-20.95
233.188	-52.75
233.407	2.67
233.625	-0.08
233.844	-37.06
234.063	-12.47
234.281	-3.42
234.5	-17.42
234.719	-10.84
234.937	9.27
235.156	3.53
235.374	-2.17
235.593	-12.37
235.811	-24.44
236.03	-31.19
236.249	-66.63
236.467	-43.33
236.686	-26.79
236.904	-14.34
237.123	-21.51
237.341	-6.79
237.559	-5.52
237.778	-12.05
237.996	-29.39
238.215	-9.04
238.433	-26.69
238.652	-62.12
238.87	-64.43
239.088	-49.37
239.307	-57.45
239.525	-54.39
239.743	-60.85
239.962	-48.97
240.18	-62.18
240.398	-101.64
240.617	-107.91
240.835	-82.98
241.053	-84.18
241.271	-23.62
241.49	14.94
241.708	8.6
241.926	-11.68
242.144	14.67
242.363	-57.17
242.581	-81.59
242.799	-10.91
243.017	4.34
243.235	-17.63
243.453	-0.25
243.672	-10.43
243.89	-29.03
244.108	-28.14
244.326	-17.97
244.544	-30.71
244.762	-22.8
244.98	-12.9
245.198	-15.85
245.416	-32.23
245.634	-13.2
245.852	-21.2
246.07	-41.81
246.288	-65.92
246.506	-71.43
246.724	-79.81
246.942	-59.09
247.16	-16.64
247.378	4.37
247.596	22.24
247.814	13.37
248.032	-5.22
248.25	-4.81
248.468	12.84
248.685	15.18
248.903	48.83
249.121	50.7
249.339	28.03
249.557	-6.45
249.775	-3.32
249.992	-65.78
250.21	-67.82
250.428	-56.38
250.646	-74.86
250.863	-93.37
251.081	-60.48
251.299	-62.28
251.517	-56.33
251.734	-41.53
251.952	-39.54
252.17	-32.41
252.387	-16.86
252.605	-26.6
252.823	-12.14
253.04	8.64
253.258	17.84
253.475	4.82
253.693	13.1
253.911	7.58
254.128	7.85
254.346	-7.92
254.563	-25.95
254.781	-37.6
254.998	-44.62
255.216	-60.87
255.433	-51.3
255.651	21.99
255.868	48.95
256.086	73.25
256.303	48.93
256.521	44.51
256.738	9.88
256.956	-27.63
257.173	-63.82
257.39	-71.03
257.608	-109.48
257.825	-24.41
258.043	0.88
258.26	5.09
258.477	43.76
258.695	52.41
258.912	-28.9
259.129	-1.32
259.346	-27.86
259.564	-76.48
259.781	-111.44
259.998	-48.01
260.216	-41.39
260.433	8.12
260.65	23.85
260.867	52.25
261.084	33.5
261.302	17.84
261.519	12.36
261.736	-18.54
261.953	-56.97
262.17	-22.17
262.387	-43.59
262.604	-81.03
262.822	-88.41
263.039	-57.87
263.256	-95.8
263.473	-45.67
263.69	-24.42
263.907	19.09
264.124	29.62
264.341	23.8
264.558	4.97
264.775	10.92
264.992	1.76
265.209	-6.31
265.426	20.44
265.643	35.11
265.86	50.71
266.077	41.59
266.294	32.72
266.51	-9.73
266.727	-46.25
266.944	-55.12
267.161	-39.35
267.378	-45.48
267.595	-19.92
267.812	-26.83
268.028	-50.5
268.245	-60.09
268.462	-45.27
268.679	-57.8
268.896	-12.5
269.112	-5.85
269.329	-0.52
269.546	5.21
269.763	-8
269.979	-10.24
270.196	-9.77
270.413	-38.08
270.629	-45.25
270.846	-33.49
271.063	-34.31
271.279	-39.29
271.496	-30.86
271.712	-25.8
271.929	2.62
272.146	-36.56
272.362	-30.64
272.579	-17.3
272.795	9.64
273.012	-2.45
273.228	19.62
273.445	-3.61
273.661	-25.12
273.878	-58.71
274.094	-42.03
274.311	-60.08
274.527	-0.64
274.744	6.98
274.96	-5.44
275.177	-0.06
275.393	13.43
275.609	-7.52
275.826	23.13
276.042	24.61
276.259	4.05
276.475	7.14
276.691	20.82
276.908	-10.84
277.124	0.86
277.34	6.45
277.557	-3.49
277.773	-17.28
277.989	-12.88
278.205	-11.57
278.422	-3.78
278.638	-4.27
278.854	15.02
279.07	0.72
279.286	-2.58
279.503	-33.5
279.719	-34.42
279.935	-68.64
280.151	-63.95
280.367	-51.36
280.583	-57.27
280.799	-38.3
281.016	-33.29
281.232	6.12
281.448	7.11
281.664	36.73
281.88	-2.76
282.096	12.01
282.312	17.77
282.528	14.95
282.744	-2.67
282.96	18.65
283.176	-1.4
283.392	-9.66
283.608	-1.5
283.824	1.2
284.04	15.02
284.256	17.98
284.471	-0.88
284.687	1.02
284.903	11.88
285.119	36.93
285.335	22.27
285.551	28.62
285.767	7.77
285.982	0.95
286.198	-45.62
286.414	6.2
286.63	18.92
286.846	38
287.061	18.02
287.277	34.52
287.493	3.85
287.709	20.48
287.924	5.12
288.14	28.93
288.356	47.94
288.571	64.77
288.787	36.77
289.003	39.23
289.218	21.26
289.434	-21.46
289.65	-17.61
289.865	-15.35
290.081	-2.14
290.296	11.52
290.512	17.79
290.727	-19.57
290.943	-23.21
291.159	-31.8
291.374	-30.18
291.59	-51.19
291.805	-28.73
292.021	-19.94
292.236	-24.3
292.451	-19.97
292.667	-3.59
292.882	6.32
293.098	5.76
293.313	-2.4
293.529	-13.14
293.744	-32.03
293.959	-33.1
294.175	-30.95
294.39	4.18
294.605	15.51
294.821	40.56
295.036	37.69
295.251	48.51
295.467	3.06
295.682	-24.57
295.897	-94.75
296.112	-96.84
296.328	-95.98
296.543	-95.63
296.758	-79.53
296.973	-14.14
297.188	19.99
297.404	-16.23
297.619	-10.07
297.834	-10.36
298.049	-34.54
298.264	-72.43
298.479	-12.54
298.694	-7.38
298.909	9.47
299.125	15.55
299.34	17.74
299.555	-4.96
299.77	3.03
299.985	-38.23
300.2	-92.62
300.415	-105.43
300.63	-82.16
300.845	-70.59
301.06	-64.89
301.275	-29.88
301.49	-11.83
301.704	-12.54
301.919	-50
302.134	-49.47
302.349	-44.23
302.564	-88.33
302.779	-144.62
302.994	-106.9
303.209	-78.45
303.423	-47.07
303.638	6.14
303.853	-7.39
304.068	1.24
304.283	4.74
304.497	-4.85
304.712	-21.76
304.927	0.24
305.142	-2.94
305.356	-11.51
305.571	-9.12
305.786	-15.35
306	-33.42
306.215	-34.69
306.43	-48.36
306.644	-50.74
306.859	2.35
307.074	11.29
307.288	-7.57
307.503	19.83
307.717	4.11
307.932	-14.07
308.147	-21.09
308.361	-9.81
308.576	-34.07
308.79	-72.41
309.005	-59.21
309.219	-43.61
309.434	-50.7
309.648	-37.03
309.863	-5.4
310.077	-4.99
310.292	-4.03
310.506	3.92
310.72	18.73
310.935	34.31
311.149	32.57
311.364	40.53
311.578	47.4
311.792	33.68
312.007	18.81
312.221	9.1
312.435	16.3
312.649	-8.61
312.864	-31.47
313.078	6.25
313.292	44.73
313.507	2.15
313.721	16.96
313.935	54.64
314.149	14.12
314.363	0.73
314.578	13.9
314.792	18.99
315.006	8.16
315.22	13.86
315.434	5.35
315.648	1.76
315.862	-0.48
316.077	-16.73
316.291	-27.03
316.505	-8.8
316.719	-41.06
316.933	-64.97
317.147	-50.14
317.361	-82.36
317.575	-113.26
317.789	-139.72
318.003	-188.92
318.217	-130.39
318.431	-56.55
318.645	-10.92
318.859	5.36
319.073	25.35
319.287	9.66
319.5	-13.45
319.714	-38.7
319.928	-60.26
320.142	-86.18
320.356	-40.93
320.57	-9.97
320.784	-6.63
320.997	-16.46
321.211	2.03
321.425	-49.59
321.639	-68.39
321.853	-18.87
322.066	6.59
322.28	-5.96
322.494	12.24
322.707	27.17
322.921	0.12
323.135	-10.44
323.349	8.17
323.562	-16.85
323.776	-21.48
323.989	-19.87
324.203	-30.18
324.417	-33.15
324.63	-48.12
324.844	-71.31
325.057	-66.43
325.271	-50.48
325.485	-36.45
325.698	-10.16
325.912	21.47
326.125	-0.05
326.339	6
326.552	-8.6
326.766	-1.43
326.979	-5.48
327.193	40.09
327.406	25.22
327.619	23.4
327.833	25.8
328.046	8.59
328.26	-31.13
328.473	-7.55
328.686	-24.66
328.9	-22.12
329.113	-9.27
329.326	-46.27
329.54	-53.21
329.753	-57.06
329.966	-86.56
330.179	-56.12
330.393	-15.67
330.606	14.31
330.819	23.59
331.032	38.84
331.246	27.75
331.459	42.98
331.672	15.65
331.885	5
332.098	-26.36
332.311	-52
332.525	-101.76
332.738	-82.39
332.951	-51.53
333.164	-29.02
333.377	-0.05
333.59	27.48
333.803	39.28
334.016	30.96
334.229	35.61
334.442	33.74
334.655	40.13
334.868	19.25
335.081	26.95
335.294	29.54
335.507	19.09
335.72	6.56
335.933	-5.01
336.146	-8.24
336.359	-20.28
336.572	-47.46
336.785	-71.67
336.997	-48.91
337.21	-26.24
337.423	-18.36
337.636	-8.68
337.849	15.48
338.062	-6.86
338.274	-8.64
338.487	-21.09
338.7	-32.68
338.913	-83.13
339.125	-83.11
339.338	-142.26
339.551	-121.11
339.763	-71.06
339.976	-19.49
340.189	-3.66
340.402	-0.63
340.614	-5.24
340.827	-2.77
341.039	-39.64
341.252	-44.66
341.465	-13.7
341.677	-16.27
341.89	-64.27
342.102	-29.42
342.315	-40.84
342.527	-88.83
342.74	-76.65
342.952	-33.64
343.165	-27.94
343.377	0.57
343.59	12.99
343.802	28.36
344.015	34.98
344.227	44.99
344.44	27.75
344.652	18.78
344.864	13.43
345.077	22.48
345.289	20.16
345.502	19.89
345.714	10.66
345.926	6.14
346.139	-0.04
346.351	9.92
346.563	19.31
346.775	25.35
346.988	21.82
347.2	-0.37
347.412	-51.96
347.624	-71.69
347.837	-74.23
348.049	-50.24
348.261	-3.35
348.473	18.57
348.685	23.84
348.897	20.02
349.11	-6.91
349.322	-42.28
349.534	-23.26
349.746	0.8
349.958	-6.75
350.17	-3.5
350.382	12.06
350.594	-1.62
350.806	-11.49
351.018	-9.81
351.23	-23.87
351.442	-61.3
351.654	-69.51
351.866	-62.76
352.078	-41.06
352.29	-4.49
352.502	16.1
352.714	23.65
352.926	25
353.138	11.27
353.35	-4.06
353.561	-13.66
353.773	-28.67
353.985	-28.03
354.197	-38.16
354.409	-34.47
354.621	-46.9
354.832	-25.91
355.044	-33.61
355.256	-18.12
355.468	-7.9
355.679	4.38
355.891	0.1
356.103	0.11
356.314	-5.65
356.526	-1.51
356.738	0.3
356.949	-8.44
357.161	4.03
357.373	3.97
357.584	-8.82
357.796	-2.26
358.008	5.27
358.219	5.23
358.431	0.09
358.642	14.19
358.854	11.09
359.065	-13.03
359.277	-45.06
359.488	-46.65
359.7	-64.23
359.911	-70.16
360.123	-34.91
360.334	-21.8
360.546	-38.15
360.757	-46.9
360.969	-32.24
361.18	-51.27
361.391	-32.26
361.603	-16.05
361.814	-16.77
362.025	-27.35
362.237	-27.67
362.448	-25.88
362.659	-13.13
362.871	-10.89
363.082	-14.73
363.293	-7.68
363.504	-12.52
363.716	-27.63
363.927	-39.09
364.138	-43.83
364.349	-56.71
364.56	-53.41
364.772	-42.84
364.983	-14.42
365.194	-10.4
365.405	7.04
365.616	25.86
365.827	16.88
366.038	-10.07
366.25	-20.72
366.461	-55.62
366.672	-41.38
366.883	-16.38
367.094	-5.23
367.305	-6.57
367.516	0.31
367.727	-24.68
367.938	-28.02
368.149	-21.71
368.36	-4.99
368.571	3.85
368.781	-5.67
368.992	-21.24
369.203	-48.1
369.414	-83.64
369.625	-93.84
369.836	-89.08
370.047	-115.84
370.258	-71.62
370.468	-48.44
370.679	-57.62
370.89	-50.56
371.101	-27.48
371.312	-38.25
371.522	-39.26
371.733	-29.37
371.944	-19.6
372.155	-9.12
372.365	-23.08
372.576	-26.99
372.787	-28.67
372.997	-58.81
373.208	-59.64
373.419	-26.54
373.629	-59.02
373.84	-69.32
374.05	-73.32
374.261	-75.1
374.472	-84.34
374.682	-23.71
374.893	-17.59
375.103	18.9
375.314	20.47
375.524	13.81
375.735	14.05
375.945	25.29
376.156	3.29
376.366	2.83
376.577	3.39
376.787	-8.17
376.997	-9.86
377.208	-11.94
377.418	-27.47
377.629	-24.87
377.839	-18.44
378.049	-16.28
378.26	2.34
378.47	16.08
378.68	15.29
378.89	6.21
379.101	3.08
379.311	-25.96
379.521	-43.76
379.732	-42.82
379.942	-34.1
380.152	-51.2
380.362	-15.63
380.572	-18.6
380.783	-7.91
380.993	-0.59
381.203	17.49
381.413	6.47
381.623	14.71
381.833	5.89
382.043	-0.87
382.253	-15.47
382.463	-1.42
382.674	-10.08
382.884	-26.2
383.094	-25.41
383.304	-15.72
383.514	-19.36
383.724	-7.49
383.934	-2
384.144	-13.72
384.353	-23.24
384.563	-23.98
384.773	-19.44
384.983	-25.89
385.193	-7.47
385.403	-0.72
385.613	1.19
385.823	-11.03
386.033	-3.21
386.242	-6.5
386.452	-9.69
386.662	-20.25
386.872	-7.06
387.082	-11.75
387.291	-18.6
387.501	-18.95
387.711	-8.8
387.921	-18.35
388.13	-12.16
388.34	-1.52
388.55	-1.96
388.759	0.7
388.969	6.77
389.179	3.55
389.388	1.7
389.598	4.15
389.807	-2.95
390.017	-8.96
390.227	-10.04
390.436	-13.22
390.646	-13.65
390.855	-9.96
391.065	-5.47
391.274	-6.04
391.484	-3.68
391.693	-3.3
391.903	-2.09
392.112	2.19
392.322	4.92
392.531	5.88
392.74	6.95
392.95	2.66
393.159	-0.25
393.369	0.69
393.578	0.69
393.787	-0.98
393.997	2.13
394.206	0.76
394.415	0.76
394.625	0.15
394.834	-1.02
395.043	-0.95
395.252	1.29
395.462	2.71
395.671	2.98
395.88	5.22
396.089	5.75
396.298	4.17
396.508	4.36
396.717	5.08
396.926	5.51
397.135	4.24
397.344	4.53
397.553	5.22
397.762	6.22
397.971	5.61
398.181	6.31
398.39	6.26
398.599	5.08
398.808	4.27
399.017	4.68
399.226	5.42
399.435	6.03
399.644	6.47
399.853	5.87
400.062	6.14
400.27	5.52
400.479	5.11
400.688	4.33
400.897	4.35
401.106	3.91
401.315	3.98
401.524	3.92
401.733	4.18
401.941	4.76
402.15	5.19
402.359	5.02
402.568	5.48
402.777	5.64
402.985	5.29
403.194	5.05
403.403	5.14
403.612	4.52
403.82	4.41
404.029	4.55
404.238	4.33
404.446	4.59
404.655	4.63
404.864	4.47
405.072	4.36
405.281	4.49
405.489	4.1
405.698	4.34
405.906	4.5
406.115	4.49
406.324	4.47
406.532	4.68
406.741	4.83
406.949	4.71
407.158	4.72
407.366	4.65
407.574	4.64
407.783	4.53
407.991	4.57
408.2	4.7
408.408	4.8
408.617	4.67
408.825	4.45
409.033	4.53
409.242	4.54
409.45	4.44
409.658	4.39
409.867	4.59
410.075	4.53
410.283	4.3
410.491	4.34
410.7	4.36
410.908	4.43
411.116	4.6
411.324	4.63
411.533	4.59
411.741	4.75
411.949	4.59
412.157	4.27
412.365	4.29
412.573	4.33
412.781	4.28
412.99	4.25
413.198	4.54
413.406	4.62
413.614	4.56
413.822	4.48
414.03	4.43
414.238	4.1
414.446	4
414.654	3.79
414.862	3.77
415.07	3.83
415.278	4.08
415.486	3.94
415.694	4.01
415.902	3.91
416.109	3.8
416.317	3.74
416.525	3.68
416.733	3.81
416.941	4.04
417.149	4.11
417.357	4.08
417.564	4.31
417.772	4.49
417.98	4.32
418.188	4.26
418.395	4.38
418.603	4.43
418.811	3.94
419.019	3.94
419.226	4.1
419.434	3.95
419.642	3.65
419.849	3.86
420.057	3.84
420.265	3.79
420.472	3.76
420.68	3.95
420.887	3.92
421.095	4.03
421.302	3.96
421.51	4.04
421.717	4.05
421.925	4.13
422.132	3.93
422.34	3.65
422.547	3.61
422.755	3.49
422.962	3.25
423.17	3.14
423.377	3.36
423.585	3.32
423.792	3.36
423.999	3.52
424.207	3.67
424.414	3.69
424.621	3.68
424.829	3.75
425.036	3.71
425.243	3.86
425.451	3.77
425.658	3.6
425.865	3.7
426.072	3.65
426.28	3.87
426.487	3.83
426.694	3.91
426.901	3.7
427.108	3.64
427.315	3.4
427.523	3.69
427.73	3.71
427.937	3.7
428.144	3.72
428.351	3.62
428.558	3.69
428.765	3.61
428.972	3.56
429.179	3.71
429.386	3.96
429.593	3.66
429.8	3.68
430.007	3.86
430.214	3.89
430.421	3.63
430.628	3.62
430.835	3.66
431.042	3.63
431.249	3.69
431.456	3.72
431.662	3.78
431.869	3.93
432.076	4
432.283	4.07
432.49	4.17
432.697	4.19
432.903	4.04
433.11	4
433.317	4.05
433.524	4.17
433.73	4.14
433.937	4.29
434.144	4.24
434.35	4.13
434.557	4.02
434.764	4.04
434.97	3.96
435.177	4.15
435.384	4.04
435.59	4.04
435.797	4.32
436.003	4.48
436.21	4.35
436.416	4.58
436.623	4.61
436.829	4.5
437.036	4.54
437.242	4.65
437.449	4.52
437.655	4.59
437.862	4.57
438.068	4.47
438.275	4.54
438.481	4.8
438.687	4.81
438.894	4.78
439.1	4.72
439.307	4.74
439.513	4.61
439.719	4.52
439.926	4.55
440.132	4.6
440.338	4.57
440.544	4.69
440.751	4.75
440.957	4.82
441.163	4.79
441.369	4.83
441.575	4.55
441.782	4.52
441.988	4.46
442.194	4.49
442.4	4.44
442.606	4.78
442.812	4.9
443.018	4.96
443.224	5
443.431	5.12
443.637	4.94
443.843	4.77
444.049	4.76
444.255	4.82
444.461	4.85
444.667	4.8
444.873	5
445.079	5.07
445.284	5.11
445.49	4.84
445.696	4.78
445.902	4.7
446.108	4.67
446.314	4.6
446.52	4.78
446.726	5.04
446.931	5.07
447.137	4.97
447.343	4.97
447.549	4.9
447.755	4.73
447.96	4.75
448.166	4.83
448.372	4.82
448.578	4.86
448.783	4.9
448.989	5.01
449.195	5.17
449.4	5.21
449.606	5.23
449.812	5.14
450.017	5.13
450.223	5.07
450.428	5.03
450.634	5.09
450.84	5.28
451.045	5.21
451.251	5.06
451.456	5.29
451.662	5.31
451.867	5.33
452.073	5.29
452.278	5.43
452.483	5.48
452.689	5.33
452.894	5.28
453.1	5.33
453.305	5.32
453.51	5.17
453.716	5.23
453.921	5.28
454.127	5.31
454.332	5.21
454.537	5.17
454.742	5.18
454.948	5.16
455.153	5.1
455.358	5.17
455.563	5.37
455.769	5.49
455.974	5.44
456.179	5.29
456.384	5.28
456.589	5.11
456.795	4.89
457	4.8
457.205	5.12
457.41	5.16
457.615	5.14
457.82	5.3
458.025	5.39
458.23	5.24
458.435	5.19
458.64	5.14
458.845	5.22
459.05	5.18
459.255	5.2
459.46	5.27
459.665	5.3
459.87	5.15
460.075	5.15
460.28	5.23
460.485	5.34
460.69	5.36
460.895	5.36
461.099	5.39
461.304	5.45
461.509	5.3
461.714	5.23
461.919	5.32
462.123	5.25
462.328	5.27
462.533	5.32
462.738	5.52
462.942	5.43
463.147	5.58
463.352	5.53
463.556	5.48
463.761	5.42
463.966	5.44
464.17	5.35
464.375	5.26
464.58	5.26
464.784	5.27
464.989	5.24
465.193	5.3
465.398	5.38
465.602	5.49
465.807	5.49
466.011	5.61
466.216	5.64
466.42	5.73
466.625	5.78
466.829	5.77
467.034	5.78
467.238	5.95
467.443	5.93
467.647	5.83
467.851	5.95
468.056	5.97
468.26	5.75
468.464	5.69
468.669	5.82
468.873	5.96
469.077	5.95
469.282	6.11
469.486	6.19
469.69	6.2
469.894	6.02
470.099	6.05
470.303	6.1
470.507	6
470.711	5.87
470.915	5.89
471.119	5.86
471.324	5.71
471.528	5.8
471.732	5.86
471.936	5.89
472.14	5.87
472.344	5.93
472.548	6.02
472.752	6.21
472.956	6.41
473.16	6.46
473.364	6.48
473.568	6.43
473.772	6.38
473.976	6.26
474.18	6.3
474.384	6.38
474.588	6.39
474.792	6.36
474.995	6.37
475.199	6.43
475.403	6.44
475.607	6.47
475.811	6.47
476.015	6.59
476.218	6.67
476.422	6.6
476.626	6.69
476.83	6.77
477.033	6.64
477.237	6.54
477.441	6.65
477.644	6.66
477.848	6.73
478.052	6.7
478.255	6.73
478.459	6.71
478.663	6.83
478.866	6.79
479.07	6.89
479.273	7.04
479.477	7.05
479.681	6.97
479.884	6.94
480.088	6.97
480.291	6.95
480.495	7.05
480.698	7.07
480.901	7.05
481.105	7.12
481.308	7.12
481.512	7.08
481.715	7.13
481.919	7.23
482.122	7.2
482.325	7.19
482.529	7.2
482.732	7.16
482.935	7.13
483.138	7.04
483.342	7.08
483.545	7.16
483.748	7.2
483.952	7.23
484.155	7.37
484.358	7.41
484.561	7.34
484.764	7.37
484.967	7.43
485.171	7.51
485.374	7.48
485.577	7.56
485.78	7.58
485.983	7.63
486.186	7.47
486.389	7.45
486.592	7.46
486.795	7.44
486.998	7.27
487.201	7.43
487.404	7.47
487.607	7.53
487.81	7.55
488.013	7.71
488.216	7.6
488.419	7.62
488.622	7.62
488.825	7.58
489.028	7.44
489.231	7.48
489.433	7.44
489.636	7.32
489.839	7.33
490.042	7.36
490.245	7.35
490.447	7.45
490.65	7.49
490.853	7.5
491.056	7.54
491.258	7.62
491.461	7.61
491.664	7.67
491.866	7.65
492.069	7.78
492.272	7.69
492.474	7.74
492.677	7.75
492.879	7.83
493.082	7.84
493.285	8.01
493.487	7.96
493.69	7.92
493.892	7.84
494.095	7.76
494.297	7.71
494.5	7.76
494.702	7.77
494.905	7.86
495.107	7.86
495.309	7.88
495.512	7.89
495.714	7.94
495.917	7.95
496.119	7.94
496.321	7.99
496.524	7.98
496.726	8.02
496.928	8.03
497.13	8.08
497.333	8.02
497.535	8.03
497.737	7.96
497.939	8.03
498.142	8.14
498.344	8.15
498.546	8.09
498.748	8.19
498.95	8.24
499.152	8.18
499.355	8.26
499.557	8.35
499.759	8.39
499.961	8.33
500.163	8.37
500.365	8.37
500.567	8.48
500.769	8.43
500.971	8.47
501.173	8.48
501.375	8.56
501.577	8.44
501.779	8.48
501.981	8.5
502.183	8.52
502.385	8.49
502.587	8.55
502.788	8.6
502.99	8.64
503.192	8.7
503.394	8.71
503.596	8.72
503.798	8.82
503.999	8.84
504.201	8.82
504.403	8.86
504.605	8.91
504.806	8.84
505.008	8.82
505.21	8.89
505.411	8.9
505.613	8.92
505.815	8.91
506.016	9.04
506.218	9.19
506.42	9.24
506.621	9.27
506.823	9.39
507.024	9.23
507.226	9.08
507.427	9.1
507.629	9.13
507.83	9.11
508.032	9.24
508.233	9.41
508.435	9.49
508.636	9.61
508.838	9.67
509.039	9.72
509.24	9.69
509.442	9.68
509.643	9.63
509.845	9.67
510.046	9.71
510.247	9.77
510.448	9.79
510.65	9.81
510.851	9.9
511.052	9.92
511.254	9.89
511.455	9.95
511.656	10
511.857	10.06
512.058	10.02
512.26	10.07
512.461	10.12
512.662	10.2
512.863	10.13
513.064	10.22
513.265	10.25
513.466	10.27
513.667	10.28
513.868	10.31
514.069	10.35
514.27	10.36
514.471	10.37
514.672	10.39
514.873	10.4
515.074	10.48
515.275	10.45
515.476	10.43
515.677	10.37
515.878	10.51
516.079	10.5
516.28	10.53
516.481	10.62
516.682	10.73
516.882	10.66
517.083	10.66
517.284	10.72
517.485	10.7
517.686	10.72
517.886	10.72
518.087	10.73
518.288	10.76
518.488	10.74
518.689	10.68
518.89	10.66
519.091	10.66
519.291	10.69
519.492	10.76
519.692	10.87
519.893	10.93
520.094	10.96
520.294	10.94
520.495	10.93
520.695	10.95
520.896	10.98
521.096	11.02
521.297	11.08
521.497	11.09
521.698	11.05
521.898	11.01
522.099	11.01
522.299	11.02
522.499	11.02
522.7	11.04
522.9	11.08
523.101	11.12
523.301	11.19
523.501	11.25
523.702	11.24
523.902	11.31
524.102	11.37
524.302	11.28
524.503	11.32
524.703	11.39
524.903	11.43
525.103	11.35
525.304	11.44
525.504	11.41
525.704	11.43
525.904	11.41
526.104	11.44
526.304	11.43
526.504	11.46
526.705	11.46
526.905	11.52
527.105	11.51
527.305	11.54
527.505	11.52
527.705	11.51
527.905	11.51
528.105	11.57
528.305	11.58
528.505	11.67
528.705	11.77
528.905	11.71
529.105	11.73
529.304	11.77
529.504	11.83
529.704	11.74
529.904	11.84
530.104	11.88
530.304	11.94
530.503	11.9
530.703	11.92
530.903	11.87
531.103	11.85
531.303	11.83
531.502	11.85
531.702	11.96
531.902	12.03
532.101	12.05
532.301	12.07
532.501	12.11
532.7	12.1
532.9	12.15
533.1	12.16
533.299	12.18
533.499	12.24
533.698	12.19
533.898	12.21
534.097	12.28
534.297	12.38
534.496	12.36
534.696	12.45
534.895	12.56
535.095	12.62
535.294	12.57
535.494	12.56
535.693	12.6
535.892	12.54
536.092	12.47
536.291	12.49
536.491	12.62
536.69	12.68
536.889	12.68
537.088	12.76
537.288	12.85
537.487	12.88
537.686	12.9
537.886	12.99
538.085	13.05
538.284	13.15
538.483	13.15
538.682	13.22
538.882	13.23
539.081	13.28
539.28	13.18
539.479	13.19
539.678	13.13
539.877	13.2
540.076	13.21
540.275	13.26
540.474	13.4
540.673	13.55
540.872	13.5
541.071	13.59
541.27	13.64
541.469	13.62
541.668	13.6
541.867	13.7
542.066	13.72
542.265	13.81
542.464	13.8
542.663	13.84
542.862	13.94
543.06	14.03
543.259	14.08
543.458	14.18
543.657	14.25
543.856	14.29
544.054	14.27
544.253	14.27
544.452	14.34
544.651	14.42
544.849	14.41
545.048	14.47
545.247	14.52
545.445	14.58
545.644	14.62
545.843	14.68
546.041	14.74
546.24	14.79
546.438	14.88
546.637	14.94
546.836	15.03
547.034	15.12
547.233	15.22
547.431	15.23
547.63	15.31
547.828	15.33
548.027	15.45
548.225	15.5
548.423	15.52
548.622	15.62
548.82	15.67
549.019	15.73
549.217	15.84
549.415	15.91
549.614	15.98
549.812	16.06
550.01	16.02
550.209	16.06
550.407	16.18
550.605	16.2
550.803	16.35
551.002	16.45
551.2	16.55
551.398	16.65
551.596	16.77
551.794	16.8
551.993	16.85
552.191	16.85
552.389	17
552.587	17.08
552.785	17.12
552.983	17.21
553.181	17.39
553.379	17.39
553.577	17.45
553.775	17.61
553.973	17.8
554.171	17.87
554.369	17.91
554.567	17.94
554.765	17.95
554.963	17.99
555.161	18
555.359	18.14
555.557	18.27
555.755	18.39
555.952	18.55
556.15	18.62
556.348	18.74
556.546	18.89
556.744	18.97
556.941	18.97
557.139	19.1
557.337	19.18
557.535	19.15
557.732	19.24
557.93	19.36
558.128	19.49
558.325	19.54
558.523	19.71
558.721	19.83
558.918	19.92
559.116	19.98
559.313	20.03
559.511	20.25
559.708	20.28
559.906	20.37
560.104	20.43
560.301	20.62
560.498	20.62
560.696	20.76
560.893	20.9
561.091	21.07
561.288	21.2
561.486	21.35
561.683	21.51
561.88	21.6
562.078	21.75
562.275	21.81
562.473	21.89
562.67	22.02
562.867	22.09
563.064	22.21
563.262	22.29
563.459	22.34
563.656	22.38
563.853	22.51
564.051	22.54
564.248	22.77
564.445	22.91
564.642	23.11
564.839	23.31
565.036	23.52
565.234	23.65
565.431	23.73
565.628	23.89
565.825	23.98
566.022	24.03
566.219	24.02
566.416	24.18
566.613	24.17
566.81	24.27
567.007	24.24
567.204	24.3
567.401	24.31
567.598	24.44
567.795	24.48
567.991	24.65
568.188	24.85
568.385	24.98
568.582	25.01
568.779	25.12
568.976	25.25
569.172	25.26
569.369	25.28
569.566	25.42
569.763	25.57
569.96	25.6
570.156	25.66
570.353	25.79
570.55	25.85
570.746	25.79
570.943	25.86
571.14	25.9
571.336	25.97
571.533	26.03
571.729	26.06
571.926	26.15
572.123	26.24
572.319	26.35
572.516	26.4
572.712	26.5
572.909	26.54
573.105	26.54
573.302	26.49
573.498	26.54
573.695	26.47
573.891	26.55
574.087	26.55
574.284	26.57
574.48	26.57
574.677	26.64
574.873	26.63
575.069	26.76
575.266	26.9
575.462	27
575.658	27.1
575.854	27.22
576.051	27.19
576.247	27.15
576.443	27.08
576.639	27.11
576.835	27.03
577.032	27.07
577.228	27.2
577.424	27.15
577.62	27.03
577.816	27.04
578.012	27.01
578.208	26.95
578.404	27.05
578.6	27.09
578.796	27.17
578.993	27.2
579.189	27.12
579.384	27.04
579.58	27.06
579.776	26.96
579.972	26.87
580.168	26.77
580.364	26.77
580.56	26.7
580.756	26.71
580.952	26.68
581.148	26.76
581.343	26.81
581.539	26.9
581.735	26.88
581.931	26.94
582.127	27.01
582.322	26.97
582.518	26.97
582.714	27.05
582.909	26.97
583.105	26.84
583.301	26.83
583.496	26.85
583.692	26.76
583.888	26.78
584.083	26.9
584.279	26.87
584.474	26.77
584.67	26.77
584.866	26.75
585.061	26.63
585.257	26.68
585.452	26.71
585.648	26.69
585.843	26.81
586.039	26.72
586.234	26.73
586.429	26.73
586.625	26.81
586.82	26.69
587.015	26.81
587.211	26.74
587.406	26.82
587.601	26.8
587.797	26.81
587.992	26.73
588.187	26.82
588.383	26.69
588.578	26.66
588.773	26.74
588.968	26.78
589.163	26.8
589.359	26.85
589.554	26.8
589.749	26.82
589.944	26.78
590.139	26.81
590.334	26.9
590.529	26.98
590.724	27.07
590.919	27.27
591.114	27.18
591.309	27.21
591.504	27.19
591.699	27.12
591.894	27.17
592.089	27.24
592.284	27.27
592.479	27.39
592.674	27.42
592.869	27.41
593.064	27.6
593.259	27.67
593.454	27.85
593.648	27.95
593.843	27.97
594.038	27.97
594.233	27.97
594.428	27.94
594.622	28.06
594.817	28.26
595.012	28.26
595.206	28.34
595.401	28.42
595.596	28.37
595.79	28.39
595.985	28.5
596.18	28.56
596.374	28.67
596.569	28.75
596.763	28.76
596.958	28.9
597.153	29.01
597.347	28.97
597.542	29.07
597.736	29.17
597.931	29.15
598.125	29.2
598.319	29.33
598.514	29.37
598.708	29.36
598.903	29.38
599.097	29.44
599.291	29.47
599.486	29.54
599.68	29.63
599.874	29.75
600.069	29.65
600.263	29.71
600.457	29.77
600.651	29.81
600.846	29.87
601.04	30.04
601.234	30.11
601.428	30.15
601.622	30.27
601.817	30.29
602.011	30.32
602.205	30.39
602.399	30.35
602.593	30.26
602.787	30.32
602.981	30.39
603.175	30.44
603.369	30.42
603.563	30.42
603.757	30.47
603.951	30.4
604.145	30.28
604.339	30.38
604.533	30.45
604.727	30.38
604.921	30.42
605.115	30.45
605.309	30.52
605.502	30.53
605.696	30.48
605.89	30.5
606.084	30.45
606.278	30.38
606.471	30.27
606.665	30.23
606.859	30.09
607.053	30
607.246	29.94
607.44	29.98
607.634	29.93
607.827	30.01
608.021	29.98
608.214	29.93
608.408	29.8
608.602	29.65
608.795	29.5
608.989	29.5
609.182	29.36
609.376	29.33
609.569	29.31
609.763	29.19
609.956	29.02
610.15	29.04
610.343	28.97
610.537	28.97
610.73	28.92
610.923	28.97
611.117	28.85
611.31	28.86
611.504	28.7
611.697	28.64
611.89	28.53
612.083	28.54
612.277	28.44
612.47	28.41
612.663	28.35
612.856	28.28
613.05	28.07
613.243	27.91
613.436	27.92
613.629	27.87
613.822	27.68
614.015	27.65
614.209	27.48
614.402	27.41
614.595	27.41
614.788	27.48
614.981	27.34
615.174	27.3
615.367	27.19
615.56	26.98
615.753	26.88
615.946	26.81
616.139	26.82
616.332	26.85
616.525	26.83
616.718	26.83
616.911	26.85
617.103	26.86
617.296	26.83
617.489	26.81
617.682	26.71
617.875	26.72
618.067	26.65
618.26	26.52
618.453	26.54
618.646	26.49
618.838	26.43
619.031	26.4
619.224	26.37
619.417	26.34
619.609	26.41
619.802	26.35
619.994	26.33
620.187	26.28
620.38	26.23
620.572	26.11
620.765	26.17
620.957	26.05
621.15	25.89
621.342	25.81
621.535	25.77
621.727	25.73
621.92	25.7
622.112	25.68
622.305	25.77
622.497	25.71
622.69	25.65
622.882	25.67
623.074	25.82
623.267	25.7
623.459	25.61
623.651	25.52
623.844	25.53
624.036	25.44
624.228	25.34
624.42	25.44
624.613	25.56
624.805	25.54
624.997	25.48
625.189	25.58
625.381	25.55
625.574	25.36
625.766	25.23
625.958	25.16
626.15	25.12
626.342	25.08
626.534	25.16
626.726	25.12
626.918	25.16
627.11	25.06
627.302	25.01
627.494	24.9
627.686	25.03
627.878	24.99
628.07	24.97
628.262	24.91
628.454	24.94
628.646	24.86
628.838	24.83
629.029	24.8
629.221	24.91
629.413	24.86
629.605	24.75
629.797	24.71
629.989	24.68
630.18	24.53
630.372	24.44
630.564	24.4
630.755	24.39
630.947	24.39
631.139	24.3
631.33	24.13
631.522	24.24
631.714	24.24
631.905	24.22
632.097	24.24
632.289	24.35
632.48	24.24
632.672	24.09
632.863	23.91
633.055	23.88
633.246	23.89
633.438	23.85
633.629	23.89
633.821	24.04
634.012	24.04
634.203	23.95
634.395	23.99
634.586	24.06
634.777	23.93
634.969	23.91
635.16	23.96
635.351	23.84
635.543	23.83
635.734	23.86
635.925	23.83
636.117	23.82
636.308	23.9
636.499	23.76
636.69	23.65
636.881	23.72
637.073	23.77
637.264	23.71
637.455	23.77
637.646	23.83
637.837	23.84
638.028	23.68
638.219	23.72
638.41	23.73
638.601	23.63
638.792	23.65
638.983	23.67
639.174	23.62
639.365	23.64
639.556	23.67
639.747	23.55
639.938	23.6
640.129	23.58
640.32	23.4
640.511	23.39
640.701	23.4
640.892	23.31
641.083	23.21
641.274	23.32
641.465	23.37
641.655	23.29
641.846	23.27
642.037	23.35
642.228	23.22
642.418	23.16
642.609	23.18
642.8	23.18
642.99	23.04
643.181	23.11
643.372	23.05
643.562	23.02
643.753	22.88
643.943	22.83
644.134	22.69
644.324	22.6
644.515	22.53
644.705	22.62
644.896	22.68
645.086	22.72
645.277	22.73
645.467	22.8
645.658	22.72
645.848	22.72
646.038	22.72
646.229	22.69
646.419	22.51
646.61	22.51
646.8	22.4
646.99	22.31
647.18	22.37
647.371	22.35
647.561	22.31
647.751	22.4
647.941	22.38
648.132	22.29
648.322	22.33
648.512	22.31
648.702	22.28
648.892	22.18
649.082	22.16
649.272	22.02
649.462	21.94
649.653	21.81
649.843	21.83
650.033	21.86
650.223	21.9
650.413	21.87
650.603	21.93
650.793	21.89
650.983	21.79
651.172	21.67
651.362	21.61
651.552	21.45
651.742	21.42
651.932	21.39
652.122	21.42
652.312	21.45
652.502	21.44
652.691	21.28
652.881	21.18
653.071	21.12
653.261	20.94
653.45	20.82
653.64	20.91
653.83	20.73
654.019	20.56
654.209	20.51
654.399	20.44
654.588	20.25
654.778	20.27
654.968	20.17
655.157	20.07
655.347	19.93
655.536	19.75
655.726	19.52
655.915	19.3
656.105	19.14
656.294	18.97
656.484	18.82
656.673	18.74
656.863	18.74
657.052	18.49
657.241	18.35
657.431	18.12
657.62	17.89
657.809	17.56
657.999	17.38
658.188	17.16
658.377	16.95
658.567	16.79
658.756	16.66
658.945	16.47
659.134	16.22
659.324	16.12
659.513	15.9
659.702	15.71
659.891	15.63
660.08	15.47
660.269	15.26
660.458	15.12
660.648	14.93
660.837	14.71
661.026	14.55
661.215	14.37
661.404	14.13
661.593	14.11
661.782	13.85
661.971	13.79
662.16	13.63
662.349	13.51
662.538	13.15
662.726	13.07
662.915	12.78
663.104	12.65
663.293	12.5
663.482	12.47
663.671	12.41
663.86	12.25
664.048	12.17
664.237	12.05
664.426	11.89
664.615	11.77
664.803	11.68
664.992	11.52
665.181	11.36
665.369	11.26
665.558	11.01
665.747	10.9
665.935	10.87
666.124	10.86
666.312	10.74
666.501	10.73
666.69	10.62
666.878	10.46
667.067	10.35
667.255	10.39
667.444	10.54
667.632	10.63
667.82	10.68
668.009	10.56
668.197	10.38
668.386	10.19
668.574	10.18
668.762	10.09
668.951	10.06
669.139	10.02
669.327	9.87
669.516	9.87
669.704	9.78
669.892	9.93
670.08	9.97
670.269	10
670.457	9.79
670.645	9.67
670.833	9.67
671.021	9.66
671.21	9.64
671.398	9.88
671.586	9.93
671.774	9.8
671.962	9.76
672.15	9.77
672.338	9.6
672.526	9.7
672.714	9.64
672.902	9.7
673.09	9.88
673.278	10.01
673.466	10.05
673.654	10.2
673.842	10.18
674.03	10.09
674.218	10.1
674.405	10.15
674.593	10.05
674.781	10.18
674.969	10.3
675.157	10.4
675.344	10.47
675.532	10.67
675.72	10.72
675.908	10.74
676.095	10.68
676.283	10.75
676.471	10.94
676.658	10.99
676.846	11.08
677.033	11.21
677.221	11.3
677.409	11.22
677.596	11.22
677.784	11.25
677.971	11.29
678.159	11.39
678.346	11.48
678.534	11.68
678.721	11.89
678.909	12
679.096	12
679.283	12.18
679.471	12.3
679.658	12.45
679.846	12.71
680.033	13.1
680.22	13.19
680.408	13.21
680.595	13.24
680.782	13.25
680.969	13.32
681.157	13.51
681.344	13.73
681.531	13.91
681.718	14.07
681.905	14.17
682.093	14.39
682.28	14.7
682.467	15.02
682.654	15.26
682.841	15.42
683.028	15.8
683.215	16.01
683.402	15.94
683.589	16.17
683.776	16.41
683.963	16.37
684.15	16.51
684.337	16.88
684.524	17.12
684.711	17.43
684.898	17.66
685.085	18.1
685.271	18.51
685.458	18.91
685.645	19.06
685.832	19.58
686.019	19.89
686.205	20.15
686.392	20.44
686.579	20.89
686.766	21.36
686.952	21.73
687.139	22.45
687.326	22.67
687.512	23.14
687.699	23.47
687.886	23.9
688.072	24.16
688.259	24.93
688.445	25.36
688.632	25.69
688.818	26.33
689.005	26.78
689.191	27.12
689.378	27.87
689.564	28.51
689.751	29.01
689.937	29.57
690.124	30.16
690.31	30.46
690.496	30.97
690.683	31.54
690.869	32.13
691.055	32.64
691.242	33.48
691.428	34.2
691.614	34.84
691.8	35.53
691.987	36.24
692.173	36.7
692.359	37.45
692.545	37.92
692.731	38.4
692.918	39.24
693.104	39.79
693.29	40.21
693.476	40.96
693.662	41.52
693.848	42.01
694.034	42.68
694.22	43.3
694.406	43.89
694.592	44.59
694.778	45.14
694.964	45.7
695.15	46.35
695.336	46.85
695.522	47.6
695.708	48.08
695.894	48.76
696.08	49.3
696.265	49.88
696.451	50.3
696.637	50.91
696.823	51.36
697.009	51.69
697.194	51.99
697.38	52.45
697.566	53.06
697.751	53.62
697.937	54.51
698.123	55.24
698.308	55.76
698.494	56.2
698.68	56.61
698.865	56.87
699.051	57.28
699.236	57.59
699.422	57.93
699.607	58.23
699.793	58.77
699.978	59.34
700.164	59.82
700.349	60.41
700.535	61.12
700.72	61.35
700.906	61.74
701.091	62.2
701.276	62.42
701.462	63.01
701.647	63.68
701.832	63.95
702.018	64.49
702.203	64.82
702.388	64.95
702.573	65.1
702.759	65.61
702.944	65.71
703.129	65.93
703.314	66.11
703.499	66.32
703.684	66.39
703.87	67.24
704.055	68.18
704.24	68.79
704.425	69.33
704.61	69.9
704.795	69.74
704.98	69.44
705.165	69.3
705.35	69.74
705.535	69.96
705.72	70.26
705.905	71.03
706.09	71.54
706.275	71.17
706.459	70.97
706.644	71.13
706.829	70.95
707.014	71.17
707.199	71.8
707.384	72.43
707.568	72.7
707.753	73.33
707.938	73.75
708.123	73.77
708.307	73.84
708.492	74.22
708.677	74.27
708.861	74.04
709.046	74.04
709.231	74.61
709.415	74.82
709.6	74.6
709.784	74.72
709.969	75.02
710.153	74.83
710.338	74.93
710.522	75.49
710.707	76.27
710.891	76.39
711.076	76.54
711.26	76.41
711.445	76.5
711.629	76.2
711.813	76.38
711.998	76.69
712.182	76.91
712.366	77.42
712.551	77.64
712.735	78
712.919	78.04
713.103	78.28
713.288	77.95
713.472	78.08
713.656	78.5
713.84	78.54
714.024	78.46
714.208	78.39
714.393	78.63
714.577	78.62
714.761	78.66
714.945	79.28
715.129	79.69
715.313	79.97
715.497	80.16
715.681	80.75
715.865	80.48
716.049	80.4
716.233	80.12
716.417	79.92
716.601	79.76
716.785	79.73
716.968	79.96
717.152	80.04
717.336	80.31
717.52	80.42
717.704	80.49
717.888	80.68
718.071	80.65
718.255	80.5
718.439	80.2
718.622	80.69
718.806	80.9
718.99	80.77
719.174	80.76
719.357	81.22
719.541	81.17
719.724	81
719.908	81.86
720.092	82.3
720.275	82.52
720.459	82.33
720.642	82.08
720.826	82.06
721.009	81.79
721.193	81.55
721.376	81.83
721.559	82.42
721.743	82.23
721.926	82.42
722.11	82.47
722.293	82.19
722.476	81.97
722.66	81.69
722.843	81.47
723.026	81.49
723.21	81.98
723.393	82.29
723.576	82.77
723.759	82.9
723.942	83.27
724.126	83.44
724.309	83.38
724.492	83.41
724.675	83.81
724.858	84.22
725.041	84.67
725.224	85.23
725.407	85.12
725.59	85.31
725.774	84.45
725.957	83.53
726.14	83
726.322	82.99
726.505	82.97
726.688	83.81
726.871	83.87
727.054	84.09
727.237	84.43
727.42	84.77
727.603	84.25
727.786	84.51
727.968	84.35
728.151	84.37
728.334	83.97
728.517	84.35
728.699	84.52
728.882	84.71
729.065	85.19
729.248	85.36
729.43	85.61
729.613	86.41
729.796	86.89
729.978	86.31
730.161	86.58
730.343	86.35
730.526	86.39
730.708	86.03
730.891	86.68
731.073	86.62
731.256	86.53
731.438	86.17
731.621	87.2
731.803	86.99
731.986	86.69
732.168	86.72
732.35	86.76
732.533	86.1
732.715	86.02
732.898	87.07
733.08	86.86
733.262	87.64
733.444	87.54
733.627	88.4
733.809	87.78
733.991	88.99
734.173	87.37
734.355	87.47
734.538	87.7
734.72	87.35
734.902	87.2
735.084	88.37
735.266	87.93
735.448	87.38
735.63	88.1
735.812	87.89
735.994	88.87
736.176	89.98
736.358	89.27
736.54	89.63
736.722	88.94
736.904	87.96
737.086	87.59
737.268	89.04
737.45	88.74
737.632	89.69
737.814	89.63
737.995	89.96
738.177	89.17
738.359	87.92
738.541	87.91
738.723	88.24
738.904	87.82
739.086	88.22
739.268	88.77
739.449	89.28
739.631	89
739.813	89.89
739.994	89.5
740.176	90.5
740.358	89.69
740.539	90.64
740.721	90.79
740.902	91.71
741.084	90.92
741.265	90.87
741.447	90.09
741.628	88.78
741.81	88.32
741.991	88.89
742.172	89.48
742.354	89.65
742.535	90.8
742.717	90.99
742.898	91.1
743.079	91.79
743.261	91.28
743.442	90.83
743.623	91.14
743.804	91.72
743.986	91.83
744.167	91.6
744.348	90.66
744.529	90.8
744.71	89.34
744.891	88.1
745.073	88.54
745.254	88.9
745.435	87.41
745.616	86.76
745.797	87.02
745.978	86.57
746.159	87.67
746.34	87.27
746.521	90.21
746.702	89.03
746.883	88.82
747.064	87.67
747.245	88.76
747.426	87.9
747.606	88.93
747.787	89.58
747.968	88.76
748.149	88.41
748.33	88.02
748.51	87.77
748.691	86.95
748.872	88.89
749.053	89.33
749.233	88.84
749.414	89.07
749.595	89.46
749.775	87.71
749.956	87.2
750.137	87.77
750.317	88.28
750.498	89.24
750.678	89.98
750.859	89.53
751.04	89.38
751.22	87.15
751.4	85.73
751.581	84.91
751.761	84.82
751.942	84.65
752.122	85.17
752.303	84.69
752.483	84
752.663	84
752.844	83.72
753.024	86.19
753.204	87.93
753.385	88.91
753.565	90.11
753.745	90.2
753.925	88.09
754.106	86.86
754.286	86.96
754.466	87.25
754.646	87.62
754.826	87.33
755.006	86.94
755.187	87.84
755.367	87.24
755.547	85.93
755.727	88.14
755.907	88.16
756.087	87.38
756.267	87.2
756.447	87.63
756.627	84.35
756.807	84.77
756.987	84.19
757.167	84.33
757.346	84.38
757.526	83.65
757.706	84.42
757.886	85.58
758.066	85.5
758.246	87.9
758.425	89.62
758.605	88.41
758.785	88.45
758.965	87.5
759.144	83.48
759.324	83.86
759.504	84.49
759.683	84.19
759.863	83.27
760.043	84.34
760.222	83.78
760.402	83.78
760.581	82.57
760.761	85.41
760.94	84.88
761.12	86.82
761.299	87.12
761.479	87.66
761.658	84.98
761.838	85.1
762.017	83.07
762.197	83.67
762.376	83.93
762.555	86.29
762.735	86.92
762.914	85.66
763.093	84.6
763.273	83.74
763.452	83.32
763.631	84.08
763.81	85.74
763.99	85.76
764.169	87.46
764.348	85.21
764.527	83.54
764.706	85.48
764.885	86.25
765.064	84.03
765.243	84.99
765.423	85.29
765.602	82.91
765.781	80.43
765.96	80.74
766.139	80.96
766.318	81.37
766.497	80.63
766.676	81.85
766.854	84.03
767.033	84.88
767.212	85.13
767.391	86.05
767.57	86.61
767.749	84.83
767.928	85.16
768.106	85.52
768.285	83.73
768.464	84.15
768.643	84.03
768.821	83.61
769	84.4
769.179	84.49
769.357	82.82
769.536	83.19
769.715	81.93
769.893	81.12
770.072	81.42
770.25	82.78
770.429	83.92
770.607	84.12
770.786	84.02
770.964	85.01
771.143	83.1
771.321	82.52
771.5	83.07
771.678	81.72
771.857	80.34
772.035	80.1
772.213	78.65
772.392	77.08
772.57	78.19
772.748	79.47
772.927	79.31
773.105	79.25
773.283	79.42
773.461	79.86
773.64	78.99
773.818	80.99
773.996	81.52
774.174	80.76
774.352	78.76
774.531	77.83
774.709	79.4
774.887	77.96
775.065	79.49
775.243	80.54
775.421	82.03
775.599	80.73
775.777	78.6
775.955	76.34
776.133	73.97
776.311	73.28
776.489	69.54
776.667	72.95
776.844	73.68
777.022	73.67
777.2	74.46
777.378	77.74
777.556	77.86
777.734	81.8
777.911	84.85
778.089	84.05
778.267	82.39
778.445	79.09
778.622	73.67
778.8	73.31
778.978	73.35
779.155	72.41
779.333	74.91
779.511	77.76
779.688	77.84
779.866	75.96
780.043	74.92
780.221	74.69
780.398	73.12
780.576	73.94
780.753	77.24
780.931	77.63
781.108	75.28
781.286	76.97
781.463	73.03
781.64	67.98
781.818	69.24
781.995	71.84
782.172	71.32
782.35	71.48
782.527	74.91
782.704	72.88
782.882	73.36
783.059	69.76
783.236	69.55
783.413	69.93
783.59	73.06
783.768	70.23
783.945	75.46
784.122	77.06
784.299	78.77
784.476	76.87
784.653	77.67
784.83	70.25
785.007	68.39
785.184	65.76
785.361	63.93
785.538	67.74
785.715	75.13
785.892	77.89
786.069	80.8
786.246	83.58
786.423	81.35
786.6	79.13
786.776	79.29
786.953	77.01
787.13	76.98
787.307	73.55
787.484	73.4
787.66	71.54
787.837	71.45
788.014	67.58
788.191	65.86
788.367	62.9
788.544	67.66
788.721	66.71
788.897	71.98
789.074	78.3
789.25	78.04
789.427	77.61
789.603	76.92
789.78	75.8
789.956	69.7
790.133	71.18
790.309	69.29
790.486	72.59
790.662	72.39
790.839	74.68
791.015	76.86
791.192	74.3
791.368	73.05
791.544	70.36
791.721	73.35
791.897	71.12
792.073	68.62
792.249	63.02
792.426	63.95
792.602	61.98
792.778	62.5
792.954	63.36
793.13	68.18
793.307	60.87
793.483	54.85
793.659	52.57
793.835	56.13
794.011	54.15
794.187	58.09
794.363	59.58
794.539	62.63
794.715	58.58
794.891	60.08
795.067	61.33
795.243	67.83
795.419	65.71
795.595	63.72
795.771	61.27
795.947	61
796.122	57.31
796.298	64.64
796.474	68.88
796.65	71.22
796.826	72.16
797.001	74.29
797.177	67.42
797.353	71.91
797.529	72.38
797.704	72.94
797.88	70.49
798.056	68.74
798.231	60.07
798.407	59.35
798.582	62.3
798.758	67.48
798.934	72.04
799.109	72.45
799.285	73.31
799.46	74.56
799.636	72.17
799.811	71.32
799.986	73.17
800.162	74.8
800.337	70.3
800.513	64.37
800.688	62.51
800.863	69.68
801.039	62.36
801.214	63.94
801.389	69.3
801.565	69.7
801.74	55.81
801.915	66.53
802.09	64.1
802.265	68.01
802.441	62.65
802.616	66.62
802.791	59.8
802.966	60.61
803.141	55.54
803.316	56.42
803.491	62.8
803.666	64.06
803.841	63.98
804.016	64.25
804.191	65.16
804.366	59.52
804.541	60.89
804.716	54.73
804.891	50.28
805.066	52.57
805.241	51.75
805.416	49.87
805.591	50.21
805.765	58.01
805.94	62.23
806.115	62.82
806.29	60.64
806.464	67.95
806.639	62.5
806.814	51.24
806.989	47.78
807.163	59.23
807.338	53.06
807.512	51.3
807.687	46.16
807.862	53.67
808.036	46.08
808.211	54.64
808.385	61.14
808.56	61.87
808.734	61.41
808.909	58.74
809.083	43.4
809.258	46.51
809.432	55.6
809.606	47.16
809.781	49.75
809.955	58.11
810.13	56.66
810.304	54.98
810.478	45.34
810.652	53.23
810.827	50.76
811.001	48.7
811.175	48.87
811.349	59.68
811.524	48.04
811.698	37.07
811.872	39.41
812.046	47.38
812.22	42.96
812.394	47.01
812.568	63.99
812.742	68.37
812.916	63.27
813.09	67.51
813.264	69.52
813.438	66.1
813.612	58.64
813.786	56.72
813.96	65.79
814.134	63.33
814.308	69.97
814.482	71.54
814.656	66.51
814.83	67.11
815.003	68.04
815.177	55.85
815.351	48.54
815.525	48.65
815.698	34.82
815.872	33.54
816.046	24.04
816.219	27.5
816.393	42.39
816.567	51.79
816.74	48.17
816.914	62.83
817.088	65.83
817.261	59.23
817.435	52.62
817.608	63.62
817.782	51.08
817.955	55.84
818.129	42.63
818.302	47.53
818.475	44.99
818.649	55.06
818.822	49.55
818.996	74.41
819.169	75.25
819.342	70.82
819.516	78.58
819.689	77.61
819.862	59.99
820.035	58.07
820.209	58.64
820.382	49.01
820.555	54.8
820.728	43.43
820.901	38.53
821.075	30.72
821.248	41.74
821.421	32.42
821.594	38.7
821.767	49.13
821.94	69.76
822.113	42.16
822.286	35.93
822.459	39.7
822.632	35.44
822.805	22.85
822.978	22.83
823.151	31.54
823.324	40.56
823.496	20.31
823.669	25.11
823.842	37.14
824.015	18.97
824.188	-5.89
824.361	2.02
824.533	-1.42
824.706	-1.18
824.879	11.48
825.051	25.7
825.224	24.64
825.397	7.89
825.569	2.01
825.742	22.99
825.915	35.75
826.087	47.16
826.26	46.62
826.432	51.68
826.605	38.65
826.777	23.91
826.95	27.47
827.122	26.91
827.295	24.93
827.467	33.07
827.64	8.16
827.812	4.03
827.984	-4.21
828.157	-2.08
828.329	-38.56
828.501	0.14
828.674	18.8
828.846	22.98
829.018	44.93
829.19	37.83
829.363	52.84
829.535	59.67
829.707	66.82
829.879	24.4
830.051	27.01
830.223	9.83
830.395	-36.6
830.568	-42.25
830.74	-15.42
830.912	19.73
831.084	11.92
831.256	29.99
831.428	34.68
831.6	15.11
831.772	-18.42
831.943	-35.86
832.115	-29.77
832.287	-10.7
832.459	14.21
832.631	21.27
832.803	44.43
832.975	72.17
833.146	60.59
833.318	52.74
833.49	68.27
833.662	62.13
833.833	28.5
834.005	18.98
834.177	9.33
834.348	-6.85
834.52	-39.52
834.692	-46.55
834.863	-78.77
835.035	-47.67
835.206	-100.88
835.378	-40.41
835.549	-37.39
835.721	-11.8
835.892	-20.36
836.064	-1.06
836.235	-22.78
836.407	-16.45
836.578	-47.95
836.749	-56.86
836.921	-78.64
837.092	-77.97
837.264	-82.87
837.435	-85.85
837.606	-35.85
837.777	-12.5
837.949	3.98
838.12	15.48
838.291	32.02
838.462	26.28
838.633	-2.49
838.805	-8.75
838.976	2.11
839.147	-78
839.318	-74.74
839.489	-85.49
839.66	-78.88
839.831	-45.08
840.002	-11.53
840.173	-46.44
840.344	3.78
840.515	19.76
840.686	-84.67
840.857	-80.69
841.028	-43.55
841.199	-61.97
841.369	-70.47
841.54	-54.74
841.711	-14.21
841.882	0.18
842.053	11.76
842.223	7.95
842.394	7.28
842.565	-7.04
842.736	1.47
842.906	-6.56
843.077	8.42
843.248	24.48
843.418	27.43
843.589	-2.04
843.759	55.11
843.93	38.64
844.101	17.31
844.271	13.93
844.442	21.21
844.612	22.91
844.783	-12.43
844.953	-51.69
845.123	-76.77
845.294	-101.71
845.464	-339.7
845.635	-164.3
845.805	-45.33
845.975	4.13
846.146	-29.17
846.316	-20.49
846.486	-2.89
846.656	2.53
846.827	-7.39
846.997	2.07
847.167	27.87
847.337	11.98
847.507	-14.1
847.677	-24.35
847.848	37.67
848.018	26.44
848.188	28.32
848.358	13.8
848.528	2.81
848.698	-57.76
848.868	-173.52
849.038	-273.11
849.208	-75.03
849.378	-13.22
849.548	-6.67
849.718	21.72
849.887	24.73
850.057	-9.86
850.227	-34.43
850.397	-72.52
850.567	-158.74
850.737	-386.52
850.906	-1085
851.076	-910.16
851.246	-371.2
851.415	-50
851.585	-6.89
851.755	-43.08
851.924	-0.67
852.094	-42.88
852.264	-144.91
852.433	-1359.62
852.603	-246.78
852.772	-245.05
852.942	-75.04
853.111	-49.44
853.281	23.77
853.45	37.38
853.62	-37.58
853.789	-82.1
853.959	-127.29
854.128	-132.59
854.297	-156.48
854.467	-164.16
854.636	-178.53
854.805	-92.49
854.975	-114.85
855.144	-181.92
855.313	-90.91
855.482	-375.18
855.652	-146.13
855.821	-148.55
855.99	21.09
856.159	-7.14
856.328	12.13
856.497	-1.39
856.667	6.17
856.836	-1.51
857.005	-3.87
857.174	-29.36
857.343	-78.77
857.512	-61.82
857.681	-121.9
857.85	-175.62
858.019	-83.2
858.188	-45.88
858.356	-60.64
858.525	-102.36
858.694	-75.03
858.863	-183.72
859.032	-129.93
859.201	-210.55
859.369	-117.35
859.538	-96.6
859.707	-69.38
859.876	-98.72
860.044	-96.47
860.213	-25.35
860.382	-33.45
860.55	-25.39
860.719	17.37
860.888	32.14
861.056	-9.31
861.225	-23.46
861.393	-7.28
861.562	-26.62
861.73	-123.24
861.899	-371.2
862.067	-2382.76
862.236	-113.27
862.404	-366.86
862.572	-217.4
862.741	-68.91
862.909	-50
863.078	-139.9
863.246	-62.02
863.414	-84.51
863.582	-75.33
863.751	-114.85
863.919	-89.66
864.087	-87.25
864.255	-73.2
864.424	-390.04
864.592	-82.41
864.76	-177.07
864.928	-478.4
865.096	-172.29
865.264	-97.3
865.432	-1222.73
865.6	-3.5
865.768	-79.24
865.936	-134.85
866.104	-179.29
866.272	-236.56
866.44	-496.46
866.608	613.59
866.776	248.77
866.944	2123.26
867.112	-500
867.28	-218.26
867.448	-96.55
867.615	-58.75
867.783	-51.71
867.951	-37.59
868.119	4.22
868.286	-9.89
868.454	-23.27
868.622	-13.84
868.789	-11.65
868.957	-2278.57
869.125	-2686.84
869.292	-225.8
869.46	-319.06
869.627	-72.98
869.795	-71.47
869.963	-13.36
870.13	3.23
870.298	11.72
870.465	-49.17
870.632	-27.39
870.8	-26.47
870.967	-102.16
871.135	-138.11
871.302	-81.76
871.469	-112.39
871.637	-175.44
871.804	-46.9
871.971	-90.32
872.139	-477.67
872.306	-81.58
872.473	-95.55
872.64	-385.41
872.807	-164.94
872.975	-23.93
873.142	-264.36
873.309	2337.84
873.476	-32.65
873.643	28.26
873.81	4.77
873.977	42.9
874.144	54.8
874.311	-88.47
874.478	-183.73
874.645	-215.05
874.812	-172.17
874.979	-95.54
875.146	-92.35
875.313	-90.46
875.48	-12.06
875.647	-23.58
875.813	-74.63
875.98	-42.93
876.147	-50.4
876.314	-103.43
876.481	923.14
876.647	-1029.21
876.814	493.26
876.981	-130.77
877.147	-64.2
877.314	-24.59
877.481	-9.92
877.647	10
877.814	-53.92
877.98	-126.77
878.147	-76.82
878.314	-54.66
878.48	-118
878.647	-55.72
878.813	3.36
878.979	-21.8
879.146	-36.66
879.312	-46.07
879.479	-142.19
879.645	-266.38
879.811	-363.72
879.978	-731.3
880.144	-157.02
880.31	-61
880.477	-257.45
880.643	-267.61
880.809	-161.95
880.975	-173.36
881.142	-1070
881.308	-145.51
881.474	-95.97
881.64	-82.33
881.806	-127.61
881.972	-53.05
882.138	-68.57
882.304	-92.8
882.47	-209.55
882.636	-1013.93
882.802	-264.01
882.968	-79.81
883.134	-64.11
883.3	-71.91
883.466	9.37
883.632	27.81
883.798	7.9
883.964	4.39
884.129	19.82
884.295	26.23
884.461	-47.93
884.627	-48.66
884.793	-58.2
884.958	-36.85
885.124	-110.98
885.29	-164.34
885.455	-377.67
885.621	-120.79
885.787	-170.69
885.952	-99.42
886.118	-99.14
886.283	-99.23
886.449	-218.31
886.614	-233.75
886.78	-456.15
886.945	1600
887.111	-581.5
887.276	-425
887.442	-797.27
887.607	-300.47
887.773	-217.2
887.938	-211.75
888.103	-242.72
888.269	-92.47
888.434	-260
888.599	-71.33
888.764	-9.57
888.93	-24.68
889.095	-61.77
889.26	-83.6
889.425	-96.7
889.59	-135.4
889.756	-129.29
889.921	-63.56
890.086	-52.91
890.251	-67.51
890.416	-202.75
890.581	-1598.39
890.746	303.57
890.911	558.6
891.076	199.25
891.241	-446.27
891.406	-20.22
891.571	-104.03
891.736	-197.25
891.901	-492.04
892.065	732.97
892.23	179.26
892.395	235.03
892.56	400.87
892.725	-427.34
892.889	-1385.37
893.054	-172.56
893.219	-49.47
893.384	3.53
893.548	-53.84
893.713	-48.85
893.878	-34.58
