Data from Ofra_PS_T2_1A_6CX18_Reflection_1.txt Node
Date: Wed Jul 21 18:08:56 EDT 2021
User: Adam
Spectrometer: FLMT01687
Trigger mode: 0
Integration Time (sec): 1.100000E0
Scans to average: 2
Electric dark correction enabled: true
Nonlinearity correction enabled: false
Boxcar width: 2
XAxis mode: Wavelengths
Number of Pixels in Spectrum: 3648
>>>>>Begin Spectral Data<<<<<
179.494	534.4
179.716	631.53
179.937	602.62
180.158	610.75
180.38	951.25
180.601	224.31
180.823	38.62
181.044	-145.97
181.265	-91.91
181.486	-27.08
181.708	107.62
181.929	651.02
182.15	-609.86
182.372	37.16
182.593	-80.84
182.814	-23.41
183.035	46.78
183.257	59.94
183.478	-30.21
183.699	-4.33
183.92	-16.69
184.141	-68.05
184.363	-86.13
184.584	-31.59
184.805	-4.11
185.026	42.96
185.247	67.68
185.468	29.42
185.689	46.01
185.91	45.12
186.132	31.07
186.353	9.36
186.574	63.9
186.795	41.29
187.016	-12.46
187.237	-27.01
187.458	-61.6
187.679	-85.68
187.9	-70.15
188.121	-54.87
188.342	-85.27
188.563	-6.75
188.784	37.88
189.005	26.67
189.226	72.84
189.447	77.48
189.667	-6.31
189.888	-359.61
190.109	-948.05
190.33	-598.71
190.551	-1009.73
190.772	-207.26
190.993	-161.34
191.214	-154.15
191.434	-122.71
191.655	-44.66
191.876	-104.62
192.097	-135.49
192.318	-203.69
192.538	-270.38
192.759	-190.37
192.98	-76.13
193.201	-22.5
193.421	5.85
193.642	25.04
193.863	30.25
194.083	7.74
194.304	10.82
194.525	14.98
194.745	29.47
194.966	9.82
195.187	4.57
195.407	-11.37
195.628	-59.53
195.848	-83.81
196.069	-88.35
196.29	-47.18
196.51	-58.84
196.731	-55.11
196.951	-66.63
197.172	-78.61
197.392	-118.15
197.613	-122.92
197.833	-170.66
198.054	-145.64
198.274	-85.32
198.495	-94.55
198.715	-56.18
198.936	-61.03
199.156	-74.56
199.377	-174.59
199.597	-167.42
199.817	-195.86
200.038	-102.47
200.258	-126.49
200.479	-43.16
200.699	-38.87
200.919	23.84
201.14	-26.79
201.36	-43.61
201.58	0.33
201.801	26.74
202.021	-8.42
202.241	-4.48
202.461	7.07
202.682	-75.03
202.902	-129.79
203.122	-46.23
203.342	-47.6
203.563	-36.36
203.783	-10.14
204.003	-52.12
204.223	-81.02
204.443	-9.34
204.663	-13.15
204.884	-12.57
205.104	32.89
205.324	56.11
205.544	47.41
205.764	57.17
205.984	66.64
206.204	49
206.424	37.98
206.644	7.4
206.864	-24.38
207.084	-88.28
207.304	-61.27
207.525	-269.38
207.745	-106.57
207.964	-2.35
208.184	-60.29
208.404	-109.24
208.624	-89.5
208.844	-107.86
209.064	-428.8
209.284	-406.74
209.504	-146.53
209.724	-2.06
209.944	-1.28
210.164	22.85
210.384	27.02
210.604	9.63
210.823	-35.63
211.043	-36.82
211.263	-27.36
211.483	-18.03
211.703	-59.88
211.922	-49.04
212.142	-2.4
212.362	0.2
212.582	-10.98
212.801	-0.08
213.021	-24.88
213.241	-25.44
213.461	-57.34
213.68	-64.26
213.9	-38.38
214.12	-11.15
214.339	-88.04
214.559	-46.67
214.779	4.37
214.998	-7.26
215.218	-33.07
215.438	4.93
215.657	3.79
215.877	-31.41
216.096	-6.02
216.316	-4.39
216.535	-11.8
216.755	-11.9
216.974	-71.55
217.194	-147.51
217.413	-134.28
217.633	-129.58
217.852	-227.64
218.072	-88.28
218.291	-29.64
218.511	12.15
218.73	-21.53
218.95	-26.62
219.169	-47.13
219.389	-93.82
219.608	-72.31
219.827	-55.89
220.047	-45.3
220.266	-12.89
220.485	-3.22
220.705	-8.61
220.924	-21.94
221.143	17.79
221.363	4.29
221.582	18.49
221.801	19.57
222.021	35.45
222.24	-0.56
222.459	48.36
222.678	0.3
222.897	-65.19
223.117	-96.25
223.336	-108.39
223.555	-71.53
223.774	-9.74
223.993	13.38
224.213	51.91
224.432	46.01
224.651	48.93
224.87	13.37
225.089	38.97
225.308	32.18
225.527	32.06
225.746	18.58
225.965	12.04
226.184	-15.54
226.404	10.78
226.623	4.91
226.842	11.77
227.061	34.24
227.28	31.28
227.499	5.32
227.718	25.04
227.936	3.39
228.155	0.13
228.374	-4.88
228.593	8.24
228.812	2.98
229.031	2.44
229.25	-46.84
229.469	-51.08
229.688	-46.99
229.907	-28.64
230.125	-10.91
230.344	9.16
230.563	9.63
230.782	20.83
231.001	-34.84
231.22	-30.64
231.438	-1.85
231.657	8.4
231.876	-10.13
232.095	21.92
232.313	35.69
232.532	0.47
232.751	-40.39
232.969	-28.1
233.188	-93.32
233.407	-54.88
233.625	-30.64
233.844	-48.15
234.063	-45.83
234.281	-24.14
234.5	-40.42
234.719	-26.54
234.937	-0.4
235.156	0.46
235.374	3.99
235.593	-8.89
235.811	-0.56
236.03	-11.87
236.249	-45.96
236.467	-36.65
236.686	2.13
236.904	-1.45
237.123	-23.96
237.341	-25.54
237.559	-20.35
237.778	-51.43
237.996	-98.43
238.215	-36.92
238.433	-7.36
238.652	-28.9
238.87	-22.89
239.088	-1.87
239.307	-17.95
239.525	-41.22
239.743	-54.12
239.962	-65
240.18	-76.3
240.398	-128.63
240.617	-117.97
240.835	-74.22
241.053	-36.42
241.271	-3.72
241.49	30.82
241.708	39.69
241.926	6.03
242.144	2.61
242.363	-25.33
242.581	-52.24
242.799	-14.16
243.017	0.13
243.235	-27.3
243.453	-26.32
243.672	-18
243.89	-29.18
244.108	-43.27
244.326	-24.42
244.544	-21.87
244.762	-20.62
244.98	-30.65
245.198	-13.36
245.416	-32.46
245.634	-26.55
245.852	-26
246.07	-22.44
246.288	-27.65
246.506	-49.84
246.724	-41.55
246.942	-42.7
247.16	2.58
247.378	6.38
247.596	38.08
247.814	35.86
248.032	4.18
248.25	-9.99
248.468	3.9
248.685	1.81
248.903	24.06
249.121	29.53
249.339	-3.87
249.557	-19.8
249.775	-23.78
249.992	-90.2
250.21	-73.89
250.428	-50.77
250.646	-81.03
250.863	-81.52
251.081	-43.84
251.299	-39.55
251.517	-16.12
251.734	1.53
251.952	2.7
252.17	-0.22
252.387	-0.33
252.605	-21.53
252.823	-9.66
253.04	-4.99
253.258	12.87
253.475	6.15
253.693	27.48
253.911	17
254.128	11.89
254.346	1.08
254.563	-8.69
254.781	-22.79
254.998	-42.66
255.216	-59.83
255.433	-61.03
255.651	-4.01
255.868	25.43
256.086	50.88
256.303	35.35
256.521	29.05
256.738	-13.19
256.956	-42.73
257.173	-80.09
257.39	-78.58
257.608	-113.1
257.825	-61.71
258.043	-46.88
258.26	-29.78
258.477	23.45
258.695	22.17
258.912	-14.6
259.129	0.12
259.346	-39.58
259.564	-85.03
259.781	-104.81
259.998	-41.83
260.216	-30.37
260.433	31.89
260.65	13.9
260.867	31.54
261.084	1.2
261.302	-9.7
261.519	-46.95
261.736	-57.07
261.953	-63.93
262.17	-23.9
262.387	-71.89
262.604	-103.02
262.822	-108.6
263.039	-107.14
263.256	-161.28
263.473	-90.4
263.69	-51.03
263.907	1.8
264.124	10.07
264.341	14.36
264.558	6.65
264.775	28.44
264.992	10.92
265.209	15.32
265.426	44.48
265.643	49.49
265.86	58.71
266.077	67.31
266.294	67.68
266.51	3.04
266.727	-18.94
266.944	-23.67
267.161	-25.09
267.378	-37.37
267.595	6.95
267.812	-11.45
268.028	-34.35
268.245	-26.47
268.462	-31.3
268.679	-40.27
268.896	10.31
269.112	16.7
269.329	12.32
269.546	20.86
269.763	9.77
269.979	-5.53
270.196	-10.28
270.413	-37.89
270.629	-70.8
270.846	-87.01
271.063	-86.4
271.279	-98.35
271.496	-80.9
271.712	-36.01
271.929	-13.08
272.146	-31.77
272.362	-24.64
272.579	-1.33
272.795	13.25
273.012	17.91
273.228	38.42
273.445	9.34
273.661	-9.41
273.878	-59.26
274.094	-61.02
274.311	-90.59
274.527	-13.37
274.744	-15.47
274.96	-11.01
275.177	-1.87
275.393	26
275.609	13.35
275.826	33.77
276.042	28.21
276.259	18.38
276.475	11.29
276.691	5.84
276.908	-13.34
277.124	-0.05
277.34	-1.36
277.557	-23.7
277.773	-21.39
277.989	-18.11
278.205	-15.36
278.422	2.19
278.638	19.73
278.854	43.8
279.07	46.16
279.286	33.42
279.503	-0.29
279.719	-10.08
279.935	-42.23
280.151	-66.88
280.367	-37.12
280.583	-55.36
280.799	-55.57
281.016	-78.5
281.232	-25.7
281.448	-36.48
281.664	-10.89
281.88	-40.75
282.096	-6.82
282.312	-7.98
282.528	2.14
282.744	11.52
282.96	13.87
283.176	-1.73
283.392	-2.73
283.608	-3.97
283.824	-1.71
284.04	12.51
284.256	10.87
284.471	4.76
284.687	-5.62
284.903	16.23
285.119	33.24
285.335	21.4
285.551	20.58
285.767	-0.69
285.982	-18.7
286.198	-68.02
286.414	-16.04
286.63	-2.55
286.846	28.27
287.061	-2.69
287.277	30.05
287.493	3.13
287.709	14.77
287.924	-9.24
288.14	38.92
288.356	29.94
288.571	54.18
288.787	22.25
289.003	30.98
289.218	1.28
289.434	-29.83
289.65	-24.85
289.865	-13.93
290.081	-0.76
290.296	14.96
290.512	15.36
290.727	-28.93
290.943	-31.68
291.159	-32.53
291.374	-30.49
291.59	-31.22
291.805	-26.94
292.021	-5.58
292.236	-18.45
292.451	-5.96
292.667	-7.56
292.882	13.01
293.098	-6.07
293.313	-16.56
293.529	-53.73
293.744	-52.23
293.959	-44.05
294.175	-42
294.39	1.62
294.605	16.46
294.821	38.23
295.036	37.15
295.251	39.27
295.467	7.5
295.682	17.2
295.897	-27.06
296.112	-35.12
296.328	-19.83
296.543	-22.24
296.758	-27.27
296.973	18.89
297.188	41
297.404	2.28
297.619	-14.39
297.834	-32.21
298.049	-62.33
298.264	-98.24
298.479	-23.82
298.694	-14.71
298.909	3.86
299.125	3.33
299.34	11.5
299.555	-7.59
299.77	-3.55
299.985	-39.12
300.2	-74.82
300.415	-86.79
300.63	-70.05
300.845	-64.02
301.06	-63.92
301.275	-31.5
301.49	-11.66
301.704	-28.27
301.919	-45.02
302.134	-55.12
302.349	-58.96
302.564	-105.84
302.779	-86.67
302.994	-41.07
303.209	-22.29
303.423	10.24
303.638	18.36
303.853	-17.99
304.068	-30.08
304.283	-18.08
304.497	-20.29
304.712	-32.45
304.927	-15.92
305.142	-21.24
305.356	-21.58
305.571	-33.08
305.786	-45.93
306	-82.09
306.215	-72.19
306.43	-63.36
306.644	-51.92
306.859	13.72
307.074	36.49
307.288	8.08
307.503	-28.68
307.717	-43.92
307.932	-50.27
308.147	-51.58
308.361	-31.31
308.576	-27.63
308.79	-60.95
309.005	-66.46
309.219	-54.91
309.434	-69.11
309.648	-56.35
309.863	-13.42
310.077	-4.64
310.292	8.41
310.506	13.77
310.72	19.9
310.935	18.09
311.149	6.36
311.364	18.85
311.578	31.35
311.792	20.36
312.007	29.92
312.221	27.25
312.435	18.66
312.649	-3.31
312.864	15.19
313.078	19.8
313.292	74.15
313.507	57.83
313.721	77.2
313.935	29.99
314.149	17.38
314.363	6.38
314.578	19.86
314.792	25.38
315.006	5.57
315.22	13.36
315.434	16.15
315.648	9.24
315.862	6.91
316.077	20.38
316.291	9.94
316.505	8.16
316.719	-10.51
316.933	-25.32
317.147	-11.79
317.361	-54.59
317.575	-69.03
317.789	-86.73
318.003	-140.76
318.217	-104.2
318.431	-18.74
318.645	10.6
318.859	14.02
319.073	38.28
319.287	18.2
319.5	-12.32
319.714	-63.49
319.928	-99.01
320.142	-136.71
320.356	-87.37
320.57	-49.74
320.784	-47.98
320.997	-53.58
321.211	-37.83
321.425	-94.23
321.639	-137.74
321.853	-67.55
322.066	-40.99
322.28	-31.88
322.494	-22.14
322.707	10.19
322.921	-9.31
323.135	-13.42
323.349	-18.65
323.562	-35.34
323.776	-51.77
323.989	-52.39
324.203	-63.28
324.417	-63.19
324.63	-64.83
324.844	-71.11
325.057	-63.92
325.271	-39.43
325.485	-3.92
325.698	16.25
325.912	32.3
326.125	9.19
326.339	-2.93
326.552	-32.83
326.766	-31.34
326.979	-30.65
327.193	10.44
327.406	5.48
327.619	-6.02
327.833	1.84
328.046	-16.26
328.26	-54.13
328.473	-25.9
328.686	-48.81
328.9	-49.49
329.113	-24.48
329.326	-28.64
329.54	-33.97
329.753	-16.64
329.966	-34.62
330.179	-38.17
330.393	-25.23
330.606	-5.25
330.819	12.49
331.032	25.76
331.246	30.53
331.459	61.91
331.672	43.29
331.885	27.49
332.098	16.07
332.311	11.92
332.525	-54.12
332.738	-31.18
332.951	0.15
333.164	6.09
333.377	5.51
333.59	24.55
333.803	17.3
334.016	13.22
334.229	1.44
334.442	13.54
334.655	43.98
334.868	50.89
335.081	44.26
335.294	53.15
335.507	42.74
335.72	7.82
335.933	4.72
336.146	-12.05
336.359	-16.48
336.572	-46.44
336.785	-68.74
336.997	-69.28
337.21	-32.74
337.423	-33.7
337.636	-29.6
337.849	-3.23
338.062	-16.68
338.274	-18.11
338.487	-41.55
338.7	-24.23
338.913	-56.04
339.125	-67.79
339.338	-138.49
339.551	-93.97
339.763	-72.24
339.976	-33.57
340.189	-12.65
340.402	10
340.614	-4.38
340.827	-15.72
341.039	-31.72
341.252	-33.79
341.465	-18.71
341.677	-16.62
341.89	-43.29
342.102	-22.47
342.315	-28.49
342.527	-68.76
342.74	-65.21
342.952	-21.92
343.165	-34.87
343.377	-6.26
343.59	5.76
343.802	24.25
344.015	21.47
344.227	39.76
344.44	25.24
344.652	9.29
344.864	-14.3
345.077	12.18
345.289	5.85
345.502	7.45
345.714	8.86
345.926	18.16
346.139	2.71
346.351	14.35
346.563	12.77
346.775	27.4
346.988	26.8
347.2	9.27
347.412	-22.46
347.624	-19.1
347.837	-51.24
348.049	-25.99
348.261	-7.86
348.473	-5.47
348.685	-21.47
348.897	-22.93
349.11	-48.72
349.322	-57.49
349.534	-47.13
349.746	-26.57
349.958	-16.53
350.17	-15.61
350.382	-0.92
350.594	11.21
350.806	12.6
351.018	24.4
351.23	17.48
351.442	-21.21
351.654	-25.38
351.866	-15
352.078	-11.04
352.29	8.25
352.502	22.86
352.714	29.55
352.926	7.44
353.138	1.7
353.35	-3.69
353.561	-1.5
353.773	-27.47
353.985	-10.43
354.197	-23.19
354.409	-31.53
354.621	-36.23
354.832	-21.11
355.044	-39.43
355.256	-34.13
355.468	-19.68
355.679	-26.1
355.891	-29.87
356.103	-32.35
356.314	-13.52
356.526	-18.19
356.738	-16.5
356.949	-26.66
357.161	-0.24
357.373	-18.58
357.584	-25.42
357.796	-3.64
358.008	-7.09
358.219	0.23
358.431	2.52
358.642	5.43
358.854	-3.29
359.065	-11.13
359.277	-44.89
359.488	-51.17
359.7	-68.62
359.911	-86.37
360.123	-53.73
360.334	-64.47
360.546	-85.35
360.757	-75.49
360.969	-65.4
361.18	-59.99
361.391	-37.85
361.603	-49.64
361.814	-38.07
362.025	-37.81
362.237	-38.41
362.448	-24.17
362.659	12.6
362.871	-0.87
363.082	-6.18
363.293	-3.01
363.504	-11.79
363.716	-42.82
363.927	-40.69
364.138	-57.45
364.349	-97.73
364.56	-81.21
364.772	-65.35
364.983	-32.48
365.194	-20.15
365.405	5.8
365.616	22.31
365.827	19.63
366.038	-11.8
366.25	-17.79
366.461	-61.54
366.672	-46.84
366.883	-20.27
367.094	2.29
367.305	-8.27
367.516	11.42
367.727	-17.29
367.938	-35.42
368.149	-45.58
368.36	-34.68
368.571	-35.12
368.781	-41.24
368.992	-47.7
369.203	-63
369.414	-76.11
369.625	-76.81
369.836	-61.39
370.047	-87.22
370.258	-60.68
370.468	-41.14
370.679	-46.97
370.89	-44.42
371.101	-27.07
371.312	-39.53
371.522	-50.16
371.733	-42.94
371.944	-28.17
372.155	-8.05
372.365	-18.42
372.576	-17
372.787	-31.64
372.997	-60.67
373.208	-61.67
373.419	-42.6
373.629	-68.57
373.84	-56.81
374.05	-59.92
374.261	-38.25
374.472	-44.8
374.682	1.03
374.893	-10.2
375.103	32.25
375.314	17.49
375.524	17.77
375.735	14.3
375.945	27.53
376.156	-10.04
376.366	-11.38
376.577	-6.78
376.787	-17.23
376.997	-13
377.208	-2.23
377.418	-3.31
377.629	4.69
377.839	7.18
378.049	4.08
378.26	9.64
378.47	11.33
378.68	1.47
378.89	-2.72
379.101	-8
379.311	-38.43
379.521	-60.54
379.732	-60.34
379.942	-57.6
380.152	-71.45
380.362	-31.23
380.572	-21.71
380.783	-7.47
380.993	-1.7
381.203	9.47
381.413	18.99
381.623	25.1
381.833	20.97
382.043	13.12
382.253	4.87
382.463	-5.67
382.674	-21.53
382.884	-38.37
383.094	-28.37
383.304	-16.86
383.514	-11.25
383.724	2.97
383.934	-1.34
384.144	-16.88
384.353	-33.89
384.563	-35.86
384.773	-30.58
384.983	-36.13
385.193	-11.8
385.403	-0.18
385.613	-1.16
385.823	-18.1
386.033	-4.08
386.242	-10.1
386.452	-14.88
386.662	-23.16
386.872	-5.42
387.082	-13.11
387.291	-18.9
387.501	-19.76
387.711	-8.07
387.921	-15.6
388.13	-15.87
388.34	-3.72
388.55	-5.79
388.759	-7.4
388.969	0.64
389.179	2.46
389.388	-5.28
389.598	0.85
389.807	-4.06
390.017	-10.09
390.227	-8.3
390.436	-8.09
390.646	-7.05
390.855	-3.65
391.065	-2.67
391.274	-3.65
391.484	-4.6
391.693	-4.35
391.903	-2.47
392.112	1.84
392.322	4.83
392.531	8.42
392.74	11.06
392.95	6.14
393.159	3.97
393.369	2.43
393.578	0.89
393.787	-2.62
393.997	1.9
394.206	1.65
394.415	1.35
394.625	1.27
394.834	1.59
395.043	1.22
395.252	3.51
395.462	6.31
395.671	8.83
395.88	10
396.089	10.39
396.298	8.6
396.508	7.39
396.717	5.9
396.926	5.66
397.135	5.64
397.344	5.02
397.553	5.8
397.762	8.11
397.971	7.88
398.181	7.65
398.39	7.32
398.599	6.69
398.808	5.69
399.017	6.72
399.226	8.14
399.435	9.65
399.644	9.48
399.853	8.77
400.062	8.03
400.27	7.29
400.479	6.67
400.688	6.3
400.897	6.39
401.106	6.57
401.315	6.27
401.524	6.39
401.733	7
401.941	7.39
402.15	7.37
402.359	7.49
402.568	7.72
402.777	7.78
402.985	7.71
403.194	7.71
403.403	7.33
403.612	6.81
403.82	6.58
404.029	6.66
404.238	6.64
404.446	7.12
404.655	7.16
404.864	7.02
405.072	6.77
405.281	6.89
405.489	6.43
405.698	6.57
405.906	6.57
406.115	6.56
406.324	6.47
406.532	6.8
406.741	6.91
406.949	7.1
407.158	7.12
407.366	7.1
407.574	7.05
407.783	7.01
407.991	6.75
408.2	6.91
408.408	6.8
408.617	6.61
408.825	6.39
409.033	6.53
409.242	6.45
409.45	6.58
409.658	6.68
409.867	6.82
410.075	6.74
410.283	6.64
410.491	6.52
410.7	6.45
410.908	6.44
411.116	6.64
411.324	6.69
411.533	6.68
411.741	6.79
411.949	6.87
412.157	6.65
412.365	6.63
412.573	6.68
412.781	6.69
412.99	6.5
413.198	6.6
413.406	6.56
413.614	6.49
413.822	6.33
414.03	6.34
414.238	6.07
414.446	6.09
414.654	5.96
414.862	6.11
415.07	6.07
415.278	6.38
415.486	6.2
415.694	6.33
415.902	5.98
416.109	5.98
416.317	5.88
416.525	5.83
416.733	5.75
416.941	6.02
417.149	5.91
417.357	5.95
417.564	6.05
417.772	6.18
417.98	6.07
418.188	6.14
418.395	6.05
418.603	6.18
418.811	5.9
419.019	5.84
419.226	6.06
419.434	6.14
419.642	5.92
419.849	6.08
420.057	6.15
420.265	5.94
420.472	5.68
420.68	5.75
420.887	5.67
421.095	5.69
421.302	5.69
421.51	6.06
421.717	6.12
421.925	6.29
422.132	6.07
422.34	5.85
422.547	5.72
422.755	5.6
422.962	5.3
423.17	5.37
423.377	5.44
423.585	5.35
423.792	5.28
423.999	5.51
424.207	5.52
424.414	5.82
424.621	5.88
424.829	5.83
425.036	5.72
425.243	5.82
425.451	5.49
425.658	5.31
425.865	5.54
426.072	5.6
426.28	5.77
426.487	5.86
426.694	5.94
426.901	5.74
427.108	5.62
427.315	5.43
427.523	5.59
427.73	5.51
427.937	5.56
428.144	5.55
428.351	5.56
428.558	5.69
428.765	5.64
428.972	5.59
429.179	5.74
429.386	5.98
429.593	5.62
429.8	5.62
430.007	5.7
430.214	5.81
430.421	5.58
430.628	5.63
430.835	5.62
431.042	5.82
431.249	5.78
431.456	5.82
431.662	5.94
431.869	6.24
432.076	6.09
432.283	6.23
432.49	6.18
432.697	6.17
432.903	5.88
433.11	5.91
433.317	5.97
433.524	6.25
433.73	6.29
433.937	6.61
434.144	6.57
434.35	6.37
434.557	6.08
434.764	6.05
434.97	5.88
435.177	6.13
435.384	6.13
435.59	6.27
435.797	6.52
436.003	6.62
436.21	6.49
436.416	6.64
436.623	6.63
436.829	6.57
437.036	6.6
437.242	6.66
437.449	6.48
437.655	6.52
437.862	6.46
438.068	6.33
438.275	6.34
438.481	6.56
438.687	6.48
438.894	6.4
439.1	6.47
439.307	6.64
439.513	6.48
439.719	6.48
439.926	6.69
440.132	6.66
440.338	6.48
440.544	6.61
440.751	6.54
440.957	6.53
441.163	6.46
441.369	6.5
441.575	6.23
441.782	6.32
441.988	6.24
442.194	6.3
442.4	6.33
442.606	6.76
442.812	6.84
443.018	6.94
443.224	7.01
443.431	7.09
443.637	6.8
443.843	6.66
444.049	6.65
444.255	6.53
444.461	6.46
444.667	6.49
444.873	6.71
445.079	6.62
445.284	6.78
445.49	6.65
445.696	6.52
445.902	6.41
446.108	6.41
446.314	6.35
446.52	6.44
446.726	6.79
446.931	6.82
447.137	6.95
447.343	7.05
447.549	6.94
447.755	6.71
447.96	6.66
448.166	6.55
448.372	6.45
448.578	6.64
448.783	6.69
448.989	6.82
449.195	7.01
449.4	6.99
449.606	6.89
449.812	6.87
450.017	6.9
450.223	6.73
450.428	6.7
450.634	6.92
450.84	7
451.045	6.94
451.251	6.97
451.456	7.31
451.662	7.21
451.867	7.27
452.073	7.29
452.278	7.45
452.483	7.45
452.689	7.37
452.894	7.47
453.1	7.47
453.305	7.36
453.51	7.28
453.716	7.27
453.921	7.23
454.127	7.28
454.332	7.23
454.537	7.13
454.742	7.24
454.948	7.32
455.153	7.26
455.358	7.44
455.563	7.66
455.769	7.75
455.974	7.68
456.179	7.64
456.384	7.54
456.589	7.39
456.795	7.2
457	7.21
457.205	7.49
457.41	7.48
457.615	7.53
457.82	7.7
458.025	7.71
458.23	7.58
458.435	7.73
458.64	7.71
458.845	7.81
459.05	7.88
459.255	7.97
459.46	7.94
459.665	7.9
459.87	7.91
460.075	7.88
460.28	7.89
460.485	8.03
460.69	8.18
460.895	8.04
461.099	7.98
461.304	8.04
461.509	7.99
461.714	7.91
461.919	8.11
462.123	8.15
462.328	8.26
462.533	8.27
462.738	8.43
462.942	8.37
463.147	8.42
463.352	8.47
463.556	8.58
463.761	8.59
463.966	8.66
464.17	8.73
464.375	8.62
464.58	8.53
464.784	8.48
464.989	8.43
465.193	8.55
465.398	8.61
465.602	8.82
465.807	8.86
466.011	8.99
466.216	9.01
466.42	9.08
466.625	9.13
466.829	9.25
467.034	9.33
467.238	9.43
467.443	9.42
467.647	9.3
467.851	9.38
468.056	9.38
468.26	9.43
468.464	9.43
468.669	9.62
468.873	9.73
469.077	9.72
469.282	9.68
469.486	9.78
469.69	9.83
469.894	9.72
470.099	9.82
470.303	9.9
470.507	9.85
470.711	9.75
470.915	9.75
471.119	9.75
471.324	9.72
471.528	9.82
471.732	9.93
471.936	10
472.14	10.07
472.344	10.16
472.548	10.19
472.752	10.37
472.956	10.62
473.16	10.6
473.364	10.54
473.568	10.6
473.772	10.56
473.976	10.35
474.18	10.35
474.384	10.4
474.588	10.33
474.792	10.28
474.995	10.5
475.199	10.59
475.403	10.75
475.607	10.83
475.811	10.74
476.015	10.65
476.218	10.73
476.422	10.58
476.626	10.64
476.83	10.84
477.033	10.77
477.237	10.58
477.441	10.62
477.644	10.59
477.848	10.5
478.052	10.5
478.255	10.63
478.459	10.73
478.663	10.77
478.866	10.79
479.07	10.85
479.273	10.89
479.477	10.86
479.681	10.89
479.884	10.89
480.088	10.8
480.291	10.79
480.495	10.81
480.698	10.73
480.901	10.73
481.105	10.91
481.308	10.9
481.512	10.87
481.715	10.97
481.919	11.03
482.122	11.02
482.325	11.03
482.529	11.08
482.732	11.02
482.935	10.9
483.138	10.77
483.342	10.81
483.545	10.88
483.748	10.91
483.952	10.96
484.155	11.15
484.358	11.11
484.561	11.03
484.764	11.01
484.967	11.05
485.171	11.04
485.374	11.06
485.577	11.12
485.78	11.16
485.983	11.14
486.186	11.04
486.389	11.01
486.592	10.99
486.795	11.08
486.998	11.05
487.201	11.11
487.404	11.15
487.607	11.15
487.81	11.02
488.013	11.04
488.216	11
488.419	10.96
488.622	10.88
488.825	10.81
489.028	10.79
489.231	10.74
489.433	10.62
489.636	10.54
489.839	10.55
490.042	10.5
490.245	10.49
490.447	10.55
490.65	10.59
490.853	10.56
491.056	10.63
491.258	10.66
491.461	10.69
491.664	10.72
491.866	10.69
492.069	10.73
492.272	10.7
492.474	10.66
492.677	10.73
492.879	10.83
493.082	10.81
493.285	10.88
493.487	10.85
493.69	10.72
493.892	10.6
494.095	10.53
494.297	10.5
494.5	10.49
494.702	10.5
494.905	10.55
495.107	10.53
495.309	10.49
495.512	10.53
495.714	10.56
495.917	10.63
496.119	10.63
496.321	10.67
496.524	10.72
496.726	10.71
496.928	10.7
497.13	10.7
497.333	10.67
497.535	10.61
497.737	10.6
497.939	10.52
498.142	10.54
498.344	10.46
498.546	10.38
498.748	10.39
498.95	10.47
499.152	10.39
499.355	10.47
499.557	10.54
499.759	10.58
499.961	10.49
500.163	10.53
500.365	10.51
500.567	10.59
500.769	10.53
500.971	10.57
501.173	10.54
501.375	10.58
501.577	10.47
501.779	10.44
501.981	10.39
502.183	10.37
502.385	10.28
502.587	10.24
502.788	10.32
502.99	10.41
503.192	10.42
503.394	10.39
503.596	10.4
503.798	10.35
503.999	10.29
504.201	10.24
504.403	10.31
504.605	10.38
504.806	10.31
505.008	10.22
505.21	10.3
505.411	10.27
505.613	10.2
505.815	10.23
506.016	10.34
506.218	10.43
506.42	10.37
506.621	10.33
506.823	10.36
507.024	10.25
507.226	10.13
507.427	10.19
507.629	10.18
507.83	10.19
508.032	10.18
508.233	10.23
508.435	10.21
508.636	10.29
508.838	10.16
509.039	10.23
509.24	10.28
509.442	10.27
509.643	10.18
509.845	10.28
510.046	10.28
510.247	10.2
510.448	10.12
510.65	10.17
510.851	10.22
511.052	10.16
511.254	10.13
511.455	10.26
511.656	10.31
511.857	10.23
512.058	10.26
512.26	10.24
512.461	10.18
512.662	10.18
512.863	10.13
513.064	10.08
513.265	10.01
513.466	10.07
513.667	9.99
513.868	9.98
514.069	10.03
514.27	10.18
514.471	10.1
514.672	10.15
514.873	10.11
515.074	10.15
515.275	10
515.476	10
515.677	9.97
515.878	10.18
516.079	10.09
516.28	10.16
516.481	10.26
516.682	10.28
516.882	10.11
517.083	10.17
517.284	10.11
517.485	9.99
517.686	9.9
517.886	9.92
518.087	9.92
518.288	9.97
518.488	9.93
518.689	9.95
518.89	9.9
519.091	9.91
519.291	9.87
519.492	9.97
519.692	10.02
519.893	10.1
520.094	10.04
520.294	10
520.495	9.92
520.695	9.91
520.896	9.87
521.096	9.92
521.297	9.94
521.497	9.98
521.698	9.97
521.898	9.96
522.099	9.95
522.299	10.04
522.499	10.06
522.7	10.08
522.9	10.04
523.101	10.07
523.301	10
523.501	9.94
523.702	9.85
523.902	9.96
524.102	9.96
524.302	9.93
524.503	9.95
524.703	10.01
524.903	9.94
525.103	9.91
525.304	9.98
525.504	10
525.704	10.04
525.904	10.06
526.104	10.05
526.304	10
526.504	10.03
526.705	9.98
526.905	10
527.105	10.03
527.305	9.99
527.505	9.86
527.705	9.9
527.905	9.87
528.105	9.83
528.305	9.79
528.505	9.87
528.705	9.92
528.905	9.89
529.105	9.9
529.304	10.01
529.504	10.08
529.704	9.98
529.904	10.01
530.104	10.04
530.304	10.01
530.503	9.92
530.703	9.93
530.903	9.87
531.103	9.85
531.303	9.84
531.502	9.85
531.702	9.87
531.902	9.96
532.101	9.89
532.301	9.87
532.501	9.84
532.7	9.81
532.9	9.78
533.1	9.82
533.299	9.86
533.499	9.9
533.698	9.87
533.898	9.86
534.097	9.89
534.297	9.94
534.496	9.91
534.696	9.96
534.895	10.05
535.095	10.09
535.294	10.04
535.494	9.99
535.693	10.01
535.892	9.96
536.092	9.86
536.291	9.87
536.491	9.95
536.69	9.95
536.889	9.89
537.088	9.91
537.288	9.93
537.487	9.91
537.686	9.92
537.886	9.96
538.085	10.02
538.284	10.07
538.483	10.07
538.682	10.06
538.882	10.02
539.081	10.04
539.28	9.95
539.479	9.97
539.678	9.99
539.877	10.12
540.076	10.07
540.275	10.17
540.474	10.18
540.673	10.2
540.872	10.13
541.071	10.18
541.27	10.19
541.469	10.25
541.668	10.24
541.867	10.25
542.066	10.3
542.265	10.33
542.464	10.26
542.663	10.23
542.862	10.37
543.06	10.37
543.259	10.34
543.458	10.4
543.657	10.49
543.856	10.46
544.054	10.41
544.253	10.34
544.452	10.3
544.651	10.33
544.849	10.24
545.048	10.33
545.247	10.42
545.445	10.47
545.644	10.46
545.843	10.54
546.041	10.5
546.24	10.61
546.438	10.72
546.637	10.74
546.836	10.79
547.034	10.85
547.233	10.82
547.431	10.75
547.63	10.77
547.828	10.73
548.027	10.8
548.225	10.83
548.423	10.86
548.622	10.93
548.82	10.97
549.019	10.99
549.217	11.02
549.415	11.04
549.614	11.08
549.812	11.05
550.01	10.99
550.209	11.02
550.407	11.09
550.605	11.01
550.803	11.14
551.002	11.22
551.2	11.22
551.398	11.28
551.596	11.46
551.794	11.46
551.993	11.51
552.191	11.62
552.389	11.66
552.587	11.69
552.785	11.71
552.983	11.75
553.181	11.77
553.379	11.84
553.577	11.86
553.775	12
553.973	12.05
554.171	12.15
554.369	12.09
554.567	12.07
554.765	12.07
554.963	12.13
555.161	12.06
555.359	12.1
555.557	12.26
555.755	12.37
555.952	12.49
556.15	12.58
556.348	12.72
556.546	12.78
556.744	12.73
556.941	12.7
557.139	12.79
557.337	12.8
557.535	12.78
557.732	12.91
557.93	13.01
558.128	13.05
558.325	13.15
558.523	13.15
558.721	13.2
558.918	13.27
559.116	13.32
559.313	13.33
559.511	13.53
559.708	13.46
559.906	13.46
560.104	13.51
560.301	13.56
560.498	13.55
560.696	13.7
560.893	13.83
561.091	13.94
561.288	14.09
561.486	14.17
561.683	14.27
561.88	14.33
562.078	14.37
562.275	14.3
562.473	14.41
562.67	14.51
562.867	14.56
563.064	14.69
563.262	14.8
563.459	14.87
563.656	14.98
563.853	14.99
564.051	14.97
564.248	15.07
564.445	15.09
564.642	15.08
564.839	15.27
565.036	15.41
565.234	15.6
565.431	15.66
565.628	15.75
565.825	15.8
566.022	15.89
566.219	15.87
566.416	16
566.613	16.02
566.81	16.13
567.007	16.13
567.204	16.11
567.401	16.14
567.598	16.24
567.795	16.23
567.991	16.35
568.188	16.49
568.385	16.62
568.582	16.67
568.779	16.75
568.976	16.78
569.172	16.87
569.369	16.83
569.566	16.93
569.763	17.04
569.96	17.06
570.156	17.05
570.353	17.11
570.55	17.14
570.746	17.13
570.943	17.15
571.14	17.16
571.336	17.24
571.533	17.36
571.729	17.38
571.926	17.52
572.123	17.61
572.319	17.62
572.516	17.58
572.712	17.68
572.909	17.58
573.105	17.65
573.302	17.69
573.498	17.79
573.695	17.72
573.891	17.82
574.087	17.81
574.284	17.82
574.48	17.76
574.677	17.86
574.873	17.84
575.069	17.96
575.266	18
575.462	17.98
575.658	18
575.854	18.15
576.051	18.14
576.247	18.19
576.443	18.28
576.639	18.29
576.835	18.24
577.032	18.14
577.228	18.22
577.424	18.18
577.62	18.09
577.816	18.09
578.012	18.18
578.208	18.03
578.404	18.11
578.6	18.15
578.796	18.09
578.993	18.11
579.189	18.2
579.384	18.07
579.58	18.01
579.776	18.02
579.972	17.97
580.168	17.86
580.364	17.94
580.56	17.95
580.756	17.95
580.952	17.93
581.148	18
581.343	18.01
581.539	18.07
581.735	18.08
581.931	18.16
582.127	18.15
582.322	18.12
582.518	18.14
582.714	18.16
582.909	18.14
583.105	18.12
583.301	18.11
583.496	18.07
583.692	18.02
583.888	17.95
584.083	18.06
584.279	17.99
584.474	17.98
584.67	18.02
584.866	18.04
585.061	17.88
585.257	18.01
585.452	18
585.648	17.97
585.843	17.94
586.039	17.99
586.234	17.98
586.429	17.98
586.625	18.05
586.82	18.07
587.015	18.06
587.211	17.94
587.406	17.94
587.601	17.89
587.797	17.9
587.992	17.91
588.187	18.01
588.383	17.97
588.578	18.03
588.773	18.02
588.968	18.07
589.163	18.11
589.359	18.17
589.554	18.17
589.749	18.22
589.944	18.26
590.139	18.24
590.334	18.25
590.529	18.17
590.724	18.22
590.919	18.23
591.114	18.24
591.309	18.28
591.504	18.42
591.699	18.39
591.894	18.41
592.089	18.4
592.284	18.42
592.479	18.44
592.674	18.39
592.869	18.4
593.064	18.5
593.259	18.68
593.454	18.76
593.648	18.86
593.843	18.89
594.038	18.9
594.233	18.75
594.428	18.65
594.622	18.73
594.817	18.84
595.012	18.86
595.206	18.98
595.401	19.13
595.596	19.18
595.79	19.27
595.985	19.43
596.18	19.5
596.374	19.58
596.569	19.62
596.763	19.6
596.958	19.64
597.153	19.62
597.347	19.62
597.542	19.74
597.736	19.8
597.931	19.87
598.125	19.9
598.319	20.07
598.514	20.02
598.708	20.04
598.903	20.02
599.097	20.16
599.291	20.12
599.486	20.25
599.68	20.31
599.874	20.41
600.069	20.4
600.263	20.41
600.457	20.41
600.651	20.48
600.846	20.47
601.04	20.52
601.234	20.54
601.428	20.64
601.622	20.7
601.817	20.69
602.011	20.75
602.205	20.85
602.399	20.84
602.593	20.86
602.787	20.96
602.981	20.92
603.175	20.92
603.369	20.82
603.563	20.84
603.757	20.88
603.951	20.87
604.145	20.83
604.339	20.95
604.533	20.81
604.727	20.75
604.921	20.76
605.115	20.76
605.309	20.83
605.502	20.93
605.696	20.95
605.89	20.88
606.084	20.83
606.278	20.66
606.471	20.64
606.665	20.52
606.859	20.45
607.053	20.44
607.246	20.4
607.44	20.21
607.634	20.15
607.827	20.15
608.021	20.05
608.214	20
608.408	19.98
608.602	19.93
608.795	19.85
608.989	19.82
609.182	19.83
609.376	19.79
609.569	19.77
609.763	19.81
609.956	19.76
610.15	19.62
610.343	19.57
610.537	19.56
610.73	19.5
610.923	19.5
611.117	19.51
611.31	19.44
611.504	19.4
611.697	19.25
611.89	19.17
612.083	19.11
612.277	19.16
612.47	19.07
612.663	19.01
612.856	18.93
613.05	18.83
613.243	18.71
613.436	18.55
613.629	18.6
613.822	18.48
614.015	18.43
614.209	18.36
614.402	18.45
614.595	18.36
614.788	18.31
614.981	18.25
615.174	18.13
615.367	17.98
615.56	17.89
615.753	17.87
615.946	17.83
616.139	17.86
616.332	18.02
616.525	18.01
616.718	18.03
616.911	18
617.103	17.98
617.296	17.78
617.489	17.73
617.682	17.69
617.875	17.74
618.067	17.69
618.26	17.57
618.453	17.59
618.646	17.5
618.838	17.47
619.031	17.55
619.224	17.64
619.417	17.59
619.609	17.65
619.802	17.62
619.994	17.52
620.187	17.49
620.38	17.46
620.572	17.34
620.765	17.31
620.957	17.24
621.15	17.13
621.342	17.08
621.535	17.15
621.727	17.08
621.92	17.09
622.112	17.09
622.305	17.17
622.497	17.1
622.69	17.15
622.882	17.09
623.074	17.13
623.267	17.02
623.459	16.92
623.651	16.79
623.844	16.83
624.036	16.85
624.228	16.8
624.42	16.83
624.613	16.99
624.805	16.92
624.997	16.81
625.189	16.76
625.381	16.77
625.574	16.63
625.766	16.59
625.958	16.56
626.15	16.6
626.342	16.59
626.534	16.6
626.726	16.63
626.918	16.67
627.11	16.67
627.302	16.61
627.494	16.62
627.686	16.63
627.878	16.61
628.07	16.54
628.262	16.54
628.454	16.49
628.646	16.44
628.838	16.38
629.029	16.31
629.221	16.33
629.413	16.21
629.605	16.14
629.797	16.12
629.989	16.18
630.18	16.1
630.372	16.06
630.564	16.03
630.755	16.07
630.947	16.06
631.139	15.99
631.33	15.97
631.522	16.12
631.714	16.05
631.905	15.96
632.097	15.94
632.289	16.07
632.48	15.87
632.672	15.75
632.863	15.71
633.055	15.81
633.246	15.68
633.438	15.63
633.629	15.68
633.821	15.7
634.012	15.6
634.203	15.59
634.395	15.66
634.586	15.67
634.777	15.66
634.969	15.65
635.16	15.69
635.351	15.63
635.543	15.57
635.734	15.52
635.925	15.5
636.117	15.53
636.308	15.57
636.499	15.58
636.69	15.56
636.881	15.52
637.073	15.54
637.264	15.48
637.455	15.49
637.646	15.7
637.837	15.79
638.028	15.7
638.219	15.72
638.41	15.66
638.601	15.46
638.792	15.44
638.983	15.33
639.174	15.26
639.365	15.32
639.556	15.3
639.747	15.25
639.938	15.37
640.129	15.4
640.32	15.32
640.511	15.36
640.701	15.44
640.892	15.37
641.083	15.42
641.274	15.46
641.465	15.46
641.655	15.31
641.846	15.36
642.037	15.3
642.228	15.32
642.418	15.36
642.609	15.41
642.8	15.39
642.99	15.26
643.181	15.25
643.372	15.26
643.562	15.24
643.753	15.21
643.943	15.18
644.134	15.07
644.324	14.96
644.515	14.96
644.705	14.99
644.896	15.07
645.086	15.21
645.277	15.17
645.467	15.19
645.658	15.18
645.848	15.13
646.038	15.05
646.229	15.09
646.419	15
646.61	14.93
646.8	14.93
646.99	14.85
647.18	14.77
647.371	14.67
647.561	14.61
647.751	14.64
647.941	14.64
648.132	14.64
648.322	14.75
648.512	14.83
648.702	14.83
648.892	14.77
649.082	14.76
649.272	14.65
649.462	14.54
649.653	14.43
649.843	14.36
650.033	14.41
650.223	14.43
650.413	14.36
650.603	14.4
650.793	14.48
650.983	14.33
651.172	14.22
651.362	14.17
651.552	14.04
651.742	14
651.932	14.03
652.122	14.11
652.312	14.19
652.502	14.2
652.691	14.17
652.881	14.14
653.071	14.14
653.261	13.98
653.45	13.82
653.64	13.79
653.83	13.62
654.019	13.5
654.209	13.45
654.399	13.49
654.588	13.28
654.778	13.17
654.968	13.1
655.157	13.03
655.347	12.97
655.536	12.94
655.726	12.83
655.915	12.69
656.105	12.61
656.294	12.57
656.484	12.44
656.673	12.47
656.863	12.42
657.052	12.3
657.241	12.03
657.431	11.84
657.62	11.79
657.809	11.53
657.999	11.41
658.188	11.35
658.377	11.34
658.567	11.18
658.756	11.15
658.945	11
659.134	10.88
659.324	10.75
659.513	10.61
659.702	10.47
659.891	10.43
660.08	10.34
660.269	10.32
660.458	10.18
660.648	10.1
660.837	10.01
661.026	9.98
661.215	9.83
661.404	9.83
661.593	9.82
661.782	9.67
661.971	9.58
662.16	9.55
662.349	9.5
662.538	9.35
662.726	9.38
662.915	9.28
663.104	9.18
663.293	9.07
663.482	9.18
663.671	9.12
663.86	9.03
664.048	8.95
664.237	8.96
664.426	8.77
664.615	8.69
664.803	8.7
664.992	8.65
665.181	8.51
665.369	8.39
665.558	8.38
665.747	8.37
665.935	8.42
666.124	8.54
666.312	8.63
666.501	8.59
666.69	8.49
666.878	8.55
667.067	8.44
667.255	8.44
667.444	8.65
667.632	8.69
667.82	8.75
668.009	8.75
668.197	8.78
668.386	8.6
668.574	8.7
668.762	8.55
668.951	8.46
669.139	8.49
669.327	8.46
669.516	8.51
669.704	8.53
669.892	8.72
670.08	8.66
670.269	8.73
670.457	8.66
670.645	8.57
670.833	8.7
671.021	8.74
671.21	8.74
671.398	8.94
671.586	9
671.774	8.77
671.962	8.76
672.15	8.76
672.338	8.6
672.526	8.77
672.714	8.74
672.902	8.89
673.09	9.06
673.278	9.3
673.466	9.32
673.654	9.66
673.842	9.6
674.03	9.65
674.218	9.44
674.405	9.51
674.593	9.31
674.781	9.49
674.969	9.52
675.157	9.79
675.344	9.79
675.532	10.01
675.72	10
675.908	10
676.095	9.91
676.283	9.92
676.471	9.99
676.658	9.99
676.846	10.13
677.033	10.24
677.221	10.39
677.409	10.3
677.596	10.47
677.784	10.46
677.971	10.5
678.159	10.45
678.346	10.63
678.534	10.62
678.721	10.71
678.909	10.76
679.096	10.87
679.283	11.04
679.471	11.17
679.658	11.28
679.846	11.42
680.033	11.58
680.22	11.57
680.408	11.45
680.595	11.42
680.782	11.25
680.969	11.21
681.157	11.26
681.344	11.43
681.531	11.51
681.718	11.63
681.905	11.75
682.093	11.87
682.28	12.02
682.467	12.18
682.654	12.4
682.841	12.49
683.028	12.63
683.215	12.81
683.402	12.79
683.589	13
683.776	13.07
683.963	13.11
684.15	13.25
684.337	13.51
684.524	13.54
684.711	13.84
684.898	13.85
685.085	14
685.271	14.36
685.458	14.41
685.645	14.56
685.832	14.9
686.019	15.02
686.205	15.07
686.392	15.35
686.579	15.46
686.766	15.72
686.952	15.93
687.139	16.31
687.326	16.52
687.512	16.81
687.699	16.96
687.886	17.14
688.072	17.12
688.259	17.52
688.445	17.89
688.632	18.03
688.818	18.64
689.005	18.99
689.191	19.35
689.378	19.96
689.564	20.57
689.751	20.82
689.937	21.22
690.124	21.7
690.31	21.74
690.496	22.28
690.683	22.78
690.869	23.29
691.055	23.66
691.242	24.36
691.428	24.97
691.614	25.44
691.8	26.15
691.987	26.78
692.173	27.33
692.359	27.78
692.545	28.34
692.731	28.63
692.918	29.15
693.104	29.48
693.29	29.91
693.476	30.61
693.662	31.28
693.848	31.7
694.034	32.29
694.22	32.64
694.406	33.36
694.592	34.01
694.778	34.52
694.964	35.15
695.15	35.9
695.336	36.05
695.522	36.78
695.708	37.5
695.894	38.25
696.08	38.98
696.265	39.65
696.451	40.04
696.637	40.7
696.823	41.17
697.009	41.69
697.194	42.29
697.38	42.65
697.566	43.04
697.751	43.69
697.937	44.41
698.123	44.93
698.308	45.82
698.494	46.78
698.68	47.21
698.865	47.7
699.051	48.49
699.236	48.9
699.422	49.25
699.607	49.81
699.793	50.13
699.978	50.43
700.164	50.8
700.349	51.4
700.535	51.8
700.72	52.28
700.906	52.75
701.091	53.17
701.276	53.68
701.462	54.43
701.647	55.33
701.832	56
702.018	56.78
702.203	56.79
702.388	56.94
702.573	57.29
702.759	57.88
702.944	57.98
703.129	58.4
703.314	59.09
703.499	59.32
703.684	59.55
703.87	60.65
704.055	61.77
704.24	62.16
704.425	62.56
704.61	62.65
704.795	62.37
704.98	62.18
705.165	62.19
705.35	62.3
705.535	63.05
705.72	63.74
705.905	64.09
706.09	64.85
706.275	65.19
706.459	64.95
706.644	64.83
706.829	64.98
707.014	64.81
707.199	65.19
707.384	65.8
707.568	66.07
707.753	66.68
707.938	67.23
708.123	67.23
708.307	67.42
708.492	67.76
708.677	67.7
708.861	67.55
709.046	67.96
709.231	68.29
709.415	68.85
709.6	68.99
709.784	69.08
709.969	69.08
710.153	69.14
710.338	69
710.522	69.59
710.707	70.59
710.891	71.14
711.076	71.32
711.26	71.33
711.445	71.3
711.629	71.16
711.813	71.24
711.998	71.46
712.182	71.55
712.366	72.08
712.551	72.8
712.735	72.8
712.919	72.85
713.103	73.4
713.288	72.85
713.472	72.3
713.656	73.12
713.84	73.62
714.024	73.75
714.208	74.13
714.393	74.52
714.577	74.11
714.761	73.98
714.945	74.16
715.129	74.31
715.313	74.43
715.497	74.73
715.681	75.28
715.865	75.19
716.049	75.4
716.233	75.23
716.417	75.58
716.601	75.5
716.785	75.56
716.968	75.95
717.152	76.33
717.336	76.01
717.52	75.52
717.704	75.53
717.888	76.03
718.071	76.22
718.255	76.46
718.439	76.75
718.622	76.98
718.806	76.9
718.99	76.53
719.174	76.75
719.357	77.16
719.541	77.72
719.724	77.53
719.908	78.37
720.092	78.67
720.275	78.98
720.459	78.52
720.642	78.55
720.826	77.95
721.009	77.81
721.193	77.31
721.376	78
721.559	78.35
721.743	78.87
721.926	79.11
722.11	79.6
722.293	79.09
722.476	78.5
722.66	78.39
722.843	78.14
723.026	77.92
723.21	78.29
723.393	79.23
723.576	79.36
723.759	79.27
723.942	79.58
724.126	79.27
724.309	79.15
724.492	79.66
724.675	79.88
724.858	80.35
725.041	81.53
725.224	81.56
725.407	81.42
725.59	81.7
725.774	81.07
725.957	79.97
726.14	79.97
726.322	79.79
726.505	79.5
726.688	80.64
726.871	81.1
727.054	81.46
727.237	81.43
727.42	82.22
727.603	81.67
727.786	82.23
727.968	82.12
728.151	82.05
728.334	81.84
728.517	82.27
728.699	82.13
728.882	82.24
729.065	82.96
729.248	83.75
729.43	83.6
729.613	84.49
729.796	84.92
729.978	84.37
730.161	84.6
730.343	84.84
730.526	84.54
730.708	83.97
730.891	84.8
731.073	83.77
731.256	83.52
731.438	84.12
731.621	85.31
731.803	85.62
731.986	86.04
732.168	85.68
732.35	85.39
732.533	84.84
732.715	84.66
732.898	85.38
733.08	86.26
733.262	86.69
733.444	86.16
733.627	86.31
733.809	86.75
733.991	87.51
734.173	87
734.355	87.26
734.538	87.45
734.72	86.03
734.902	85.77
735.084	85.43
735.266	86.13
735.448	86.58
735.63	87.05
735.812	86.4
735.994	88.19
736.176	88.06
736.358	87.63
736.54	88.73
736.722	88.72
736.904	87.53
737.086	87.68
737.268	88.72
737.45	88.23
737.632	88.81
737.814	88.52
737.995	88.61
738.177	88.22
738.359	87.96
738.541	88.33
738.723	88.34
738.904	88.89
739.086	88.61
739.268	89.28
739.449	89.29
739.631	89.36
739.813	89.2
739.994	89.65
740.176	89.4
740.358	89.34
740.539	90.82
740.721	91.67
740.902	92.42
741.084	92.15
741.265	91.61
741.447	91.08
741.628	89.94
741.81	87.92
741.991	88.81
742.172	89.89
742.354	89.88
742.535	90.51
742.717	92.49
742.898	92.75
743.079	92.63
743.261	92.7
743.442	92.59
743.623	92.2
743.804	92.33
743.986	93.51
744.167	92.65
744.348	91.88
744.529	91.95
744.71	90.43
744.891	88.76
745.073	88.56
745.254	89
745.435	88.06
745.616	88.63
745.797	88.59
745.978	88.6
746.159	89.21
746.34	88.37
746.521	90.22
746.702	88.87
746.883	89.27
747.064	88.45
747.245	89.43
747.426	88.16
747.606	89.81
747.787	89.71
747.968	90.1
748.149	91.01
748.33	90.92
748.51	90.11
748.691	90.58
748.872	91.34
749.053	90.6
749.233	90.22
749.414	90.67
749.595	89.47
749.775	87.19
749.956	86.93
750.137	85.87
750.317	86.98
750.498	89.02
750.678	90.11
750.859	90.9
751.04	92.77
751.22	90.98
751.4	90.5
751.581	89.56
751.761	88.87
751.942	88.49
752.122	88.45
752.303	87.93
752.483	88.25
752.663	88.23
752.844	88.17
753.024	89.63
753.204	90.15
753.385	90.13
753.565	90.03
753.745	90.5
753.925	89.61
754.106	88.84
754.286	89.57
754.466	89.48
754.646	89.58
754.826	88.95
755.006	88.52
755.187	88.13
755.367	89.26
755.547	89.09
755.727	90.62
755.907	90.94
756.087	92.48
756.267	90.66
756.447	89.79
756.627	88.31
756.807	88.7
756.987	87.03
757.167	87.2
757.346	87.54
757.526	87.05
757.706	88.08
757.886	89.46
758.066	90.82
758.246	92.04
758.425	91.93
758.605	91.45
758.785	89.88
758.965	89.91
759.144	87.14
759.324	89.41
759.504	88.8
759.683	89.65
759.863	87.69
760.043	87.8
760.222	86.01
760.402	84.8
760.581	84.74
760.761	85.72
760.94	84.17
761.12	87.19
761.299	88.76
761.479	88.96
761.658	87.54
761.838	89.41
762.017	87.01
762.197	86.54
762.376	86.89
762.555	89.63
762.735	91.7
762.914	90.52
763.093	90.24
763.273	88.39
763.452	87.24
763.631	85.54
763.81	86.1
763.99	85.18
764.169	86.46
764.348	85.01
764.527	84.24
764.706	85.78
764.885	87.97
765.064	86.43
765.243	86.84
765.423	87.53
765.602	86.38
765.781	84.76
765.96	83.37
766.139	83.25
766.318	85.01
766.497	84.7
766.676	85.24
766.854	88.09
767.033	88.89
767.212	86.71
767.391	86.23
767.57	86.24
767.749	85.63
767.928	86.03
768.106	85.08
768.285	83.96
768.464	83.71
768.643	84.58
768.821	84.36
769	87.5
769.179	88.68
769.357	87.47
769.536	85.85
769.715	87.33
769.893	86.24
770.072	85
770.25	86.58
770.429	87.33
770.607	85.63
770.786	84.05
770.964	87.02
771.143	85.25
771.321	85.9
771.5	85.72
771.678	84.41
771.857	82.38
772.035	81.66
772.213	80.07
772.392	78.71
772.57	81.4
772.748	82.4
772.927	84.35
773.105	83.49
773.283	83.75
773.461	83.31
773.64	82.74
773.818	82.4
773.996	84.03
774.174	84.97
774.352	82.01
774.531	79.66
774.709	81.82
774.887	81.11
775.065	80.24
775.243	83.05
775.421	84.79
775.599	83.98
775.777	83.17
775.955	80.77
776.133	78.23
776.311	77.41
776.489	72.97
776.667	74.3
776.844	75.59
777.022	73.9
777.2	74.6
777.378	76.14
777.556	76.19
777.734	79.74
777.911	86.27
778.089	84.78
778.267	87.54
778.445	87.21
778.622	83.79
778.8	80.42
778.978	82.4
779.155	80.08
779.333	78.89
779.511	79.89
779.688	80.17
779.866	76.56
780.043	71.93
780.221	73.26
780.398	70.91
780.576	73.05
780.753	75.79
780.931	77.67
781.108	76.26
781.286	79.45
781.463	75.6
781.64	73.68
781.818	76.05
781.995	77.42
782.172	76.54
782.35	80.24
782.527	83.21
782.704	82.27
782.882	80.36
783.059	79.26
783.236	75.52
783.413	77.2
783.59	78.87
783.768	76.98
783.945	80.4
784.122	83.3
784.299	80.78
784.476	76.93
784.653	78.01
784.83	71.61
785.007	68.16
785.184	65.73
785.361	67.49
785.538	71.71
785.715	80.16
785.892	83.28
786.069	87.12
786.246	87.34
786.423	84.38
786.6	77.21
786.776	81.01
786.953	78.45
787.13	82.58
787.307	81.21
787.484	84.36
787.66	77.98
787.837	76.79
788.014	71.04
788.191	71.19
788.367	65.64
788.544	71.26
788.721	72.48
788.897	76.01
789.074	78.4
789.25	79.83
789.427	77.13
789.603	78.55
789.78	78.34
789.956	76.41
790.133	77.42
790.309	76.01
790.486	76.41
790.662	74.09
790.839	73.65
791.015	77.55
791.192	77.71
791.368	80.41
791.544	78.33
791.721	77.73
791.897	73.71
792.073	71.14
792.249	61.31
792.426	64.4
792.602	67.14
792.778	71.03
792.954	71.86
793.13	75.48
793.307	70.14
793.483	63.12
793.659	58.32
793.835	59.65
794.011	61.09
794.187	63.44
794.363	62.19
794.539	64.41
794.715	62.41
794.891	60.3
795.067	63.34
795.243	72.6
795.419	73.56
795.595	73.46
795.771	75.82
795.947	76.62
796.122	74.13
796.298	72.71
796.474	71.87
796.65	69.19
796.826	68.45
797.001	65.7
797.177	59.97
797.353	65.09
797.529	70.24
797.704	66.02
797.88	62.56
798.056	64.03
798.231	61.68
798.407	62.69
798.582	63.93
798.758	78.02
798.934	87.21
799.109	83.77
799.285	79.51
799.46	84.11
799.636	78.13
799.811	74.51
799.986	78.26
800.162	80.72
800.337	82.38
800.513	78.75
800.688	72.48
800.863	77.58
801.039	70.02
801.214	62.19
801.389	65.78
801.565	68.92
801.74	56
801.915	65.15
802.09	64.23
802.265	68.66
802.441	67.27
802.616	73.26
802.791	73.05
802.966	74.6
803.141	71.76
803.316	69.51
803.491	72.41
803.666	71.58
803.841	69.19
804.016	62.39
804.191	68.64
804.366	64.01
804.541	63.85
804.716	62.99
804.891	60.4
805.066	63.46
805.241	64.27
805.416	60.83
805.591	63.09
805.765	73.41
805.94	68.63
806.115	68.64
806.29	67.88
806.464	67.28
806.639	58.93
806.814	55.67
806.989	49.91
807.163	58.65
807.338	50.46
807.512	52.45
807.687	49.01
807.862	61.4
808.036	59.37
808.211	71.25
808.385	76.5
808.56	91.95
808.734	102.37
808.909	96.83
809.083	87.3
809.258	90.13
809.432	86.18
809.606	61.09
809.781	56.89
809.955	62.62
810.13	57.5
810.304	52.13
810.478	59.28
810.652	71.34
810.827	79.58
811.001	71.01
811.175	67.37
811.349	58.66
811.524	46.93
811.698	29.51
811.872	38.26
812.046	47.3
812.22	54.68
812.394	57.39
812.568	61.21
812.742	59.85
812.916	50.2
813.09	45.5
813.264	45.84
813.438	51.93
813.612	50.71
813.786	49.76
813.96	63.81
814.134	64.6
814.308	69.45
814.482	78.99
814.656	81.31
814.83	77.51
815.003	77.85
815.177	69.33
815.351	52.34
815.525	47.28
815.698	41.04
815.872	36.64
816.046	25.29
816.219	36.4
816.393	52.74
816.567	60.28
816.74	64.56
816.914	73.14
817.088	82.97
817.261	64.19
817.435	44.83
817.608	55.45
817.782	49.39
817.955	39.36
818.129	39.42
818.302	45.12
818.475	42.6
818.649	40.35
818.822	31.37
818.996	49.98
819.169	53.54
819.342	41.17
819.516	53.45
819.689	64.38
819.862	50.8
820.035	38.74
820.209	38.38
820.382	41.71
820.555	40.11
820.728	30.64
820.901	33.44
821.075	36.77
821.248	35.03
821.421	27.54
821.594	37.37
821.767	58.65
821.94	75.56
822.113	57.09
822.286	53.53
822.459	52.75
822.632	44.25
822.805	21.86
822.978	21.14
823.151	24.72
823.324	23.18
823.496	6.91
823.669	2.33
823.842	8.66
824.015	3.66
824.188	-17.21
824.361	-9.77
824.533	4.97
824.706	20.5
824.879	20.54
825.051	39.65
825.224	38.82
825.397	32.9
825.569	23.87
825.742	37.49
825.915	48.74
826.087	68.14
826.26	48.19
826.432	40.17
826.605	31.89
826.777	16.61
826.95	20.56
827.122	16.63
827.295	35.71
827.467	41.49
827.64	32.82
827.812	17.16
827.984	33.01
828.157	18.66
828.329	-12.5
828.501	-5.23
828.674	29.46
828.846	2.63
829.018	26.03
829.19	21.77
829.363	60.29
829.535	48.37
829.707	65.43
829.879	40.48
830.051	44.93
830.223	21.81
830.395	3.17
830.568	-5.86
830.74	-12.76
830.912	19.73
831.084	8.69
831.256	10.52
831.428	12.02
831.6	0.96
831.772	-20.34
831.943	-36.52
832.115	-8.66
832.287	7.22
832.459	17.04
832.631	17.69
832.803	31.77
832.975	27.15
833.146	16.02
833.318	11.02
833.49	14.57
833.662	8.94
833.833	-15.17
834.005	-6.03
834.177	10.05
834.348	21.46
834.52	23.33
834.692	39.74
834.863	33.26
835.035	7.41
835.206	-65.2
835.378	-59.31
835.549	-65.44
835.721	-32.66
835.892	-16.98
836.064	-2.05
836.235	-12.59
836.407	11.55
836.578	-46.69
836.749	-72.81
836.921	-67.19
837.092	-51.27
837.264	-45.62
837.435	-40.1
837.606	9.91
837.777	30.33
837.949	44.55
838.12	40.23
838.291	45.14
838.462	27.26
838.633	-7.87
838.805	-6.45
838.976	12.82
839.147	-18.29
839.318	-56.43
839.489	-70.06
839.66	-70.13
839.831	-55.2
840.002	-32.58
840.173	-20.52
840.344	9.46
840.515	-19.59
840.686	-173.62
840.857	-150.19
841.028	-117.38
841.199	-71.94
841.369	-73.99
841.54	-39.96
841.711	-15.12
841.882	-14
842.053	-24.5
842.223	-8.58
842.394	4.68
842.565	17.92
842.736	24.92
842.906	27.03
843.077	26.57
843.248	39.9
843.418	11.86
843.589	-12.74
843.759	55.11
843.93	30.77
844.101	-4.62
844.271	26.88
844.442	27.73
844.612	24.71
844.783	-3.79
844.953	-23.42
845.123	-37.1
845.294	-41.15
845.464	-179.4
845.635	-22.2
845.805	36.16
845.975	-3.73
846.146	-44.16
846.316	-40.46
846.486	-5.15
846.656	24.52
846.827	37.1
846.997	45.7
847.167	93.82
847.337	32.22
847.507	-9.04
847.677	-17.38
847.848	45.87
848.018	37.72
848.188	50.47
848.358	35.27
848.528	30.84
848.698	-23.01
848.868	-91.59
849.038	-221.43
849.208	-80.07
849.378	-34.02
849.548	-15.89
849.718	-9.8
849.887	27.99
850.057	11.3
850.227	-22.72
850.397	-55.2
850.567	-178.19
850.737	-500
850.906	-1572.5
851.076	-1144.53
851.246	-474.87
851.415	-50.47
851.585	-19.88
851.755	-43.43
851.924	9.63
852.094	-39.86
852.264	-123.67
852.433	-1088.46
852.603	-212.62
852.772	-210.24
852.942	-65.56
853.111	-73.53
853.281	-7.49
853.45	11.53
853.62	-50.19
853.789	-98.07
853.959	-94.66
854.128	-141.61
854.297	-131.84
854.467	-147.4
854.636	-136.7
854.805	-46.46
854.975	-51.76
855.144	-72.6
855.313	114.69
855.482	-189.05
855.652	-115.49
855.821	-97.09
855.99	2.85
856.159	14.29
856.328	21.23
856.497	1.73
856.667	4.66
856.836	13.23
857.005	-45.36
857.174	-55.5
857.343	-95.9
857.512	-65.41
857.681	-122.82
857.85	-130.04
858.019	-55.96
858.188	-33.36
858.356	-58.87
858.525	-108.37
858.694	-72.11
858.863	-154.28
859.032	-153.29
859.201	-192.46
859.369	-79.08
859.538	-56.38
859.707	-70.31
859.876	-8.99
860.044	8.16
860.213	24.94
860.382	-3.53
860.55	-0.37
860.719	-4.44
860.888	-8.45
861.056	-50.81
861.225	-63.61
861.393	-43.8
861.562	-58.82
861.73	-108.59
861.899	-289.53
862.067	-2413.79
862.236	-138.15
862.404	-256.2
862.572	-182.6
862.741	-60.26
862.909	-50.64
863.078	-183.56
863.246	-112.48
863.414	-80.9
863.582	-75.73
863.751	-70.29
863.919	-60.21
864.087	-4.47
864.255	-27.72
864.424	-363.75
864.592	-52.01
864.76	-105.02
864.928	-524
865.096	-318.47
865.264	-220.22
865.432	-2688.64
865.6	-279.5
865.768	-179.96
865.936	-142.63
866.104	-105.79
866.272	-162.5
866.44	-334.65
866.608	662.5
866.776	305.18
866.944	3490.7
867.112	-578.81
867.28	-239.13
867.448	-80.67
867.615	-18.77
867.783	-17.21
867.951	-38.67
868.119	-24.34
868.286	-46.06
868.454	-205.2
868.622	-184.96
868.789	-175.19
868.957	-4035.71
869.125	-2939.47
869.292	-198.53
869.46	-202.81
869.627	-24.86
869.795	-32.32
869.963	5.71
870.13	25.38
870.298	19.77
870.465	-84.07
870.632	-89.47
870.8	-76.53
870.967	-146.21
871.135	-187.94
871.302	-192.77
871.469	-259.07
871.637	-285.41
871.804	-161.73
871.971	-209.49
872.139	-520.93
872.306	-48.03
872.473	-97.51
872.64	-376.39
872.807	-163.96
872.975	-8.38
873.142	-242.55
873.309	2135.14
873.476	-15.3
873.643	50.2
873.81	-7.34
873.977	9.52
874.144	-0.45
874.311	-129.41
874.478	-184.75
874.645	-188.58
874.812	-148.79
874.979	-67.48
875.146	-124.01
875.313	-120.71
875.48	-33.69
875.647	-25.74
875.813	-69.94
875.98	-36.3
876.147	-71.93
876.314	-163.34
876.481	1347.11
876.647	-1612.36
876.814	519.69
876.981	-86.92
877.147	-30.64
877.314	11.84
877.481	35.06
877.647	21.95
877.814	-46.42
877.98	-107.87
878.147	-70.95
878.314	-12.54
878.48	-118
878.647	-52.86
878.813	15.01
878.979	27.17
879.146	-27.07
879.312	-11.59
879.479	-61.46
879.645	-201.91
879.811	-488.64
879.978	-1065.65
880.144	-252.25
880.31	-95.16
880.477	-274.77
880.643	-270.77
880.809	-75.69
880.975	-78.38
881.142	-909.09
881.308	-144.34
881.474	-55.81
881.64	-72.43
881.806	-129.7
881.972	-27
882.138	-27.31
882.304	-83.29
882.47	-258.09
882.636	-994.26
882.802	-339.49
882.968	-97.98
883.134	-50.76
883.3	-29.1
883.466	21.96
883.632	57.95
883.798	25.79
883.964	27.17
884.129	33.75
884.295	36.07
884.461	-26.47
884.627	-32.2
884.793	-92.76
884.958	-56.4
885.124	-157.63
885.29	-298.36
885.455	-571.36
885.621	-166.36
885.787	-237.79
885.952	-107.19
886.118	-107.61
886.283	-79.41
886.449	-165.42
886.614	-193.04
886.78	-384.62
886.945	1531.15
887.111	-812.14
887.276	-854.55
887.442	-1476.36
887.607	-692.45
887.773	-384.39
887.938	-357.44
888.103	-344.89
888.269	-226.2
888.434	-470.81
888.599	-190.05
888.764	-56.45
888.93	-10.1
889.095	-15.03
889.26	-51.73
889.425	-23.48
889.59	-13.32
889.756	-66.07
889.921	-46.41
890.086	10.25
890.251	-19.92
890.416	-238.44
890.581	-1946.77
890.746	353.93
890.911	669.43
891.076	214.47
891.241	-405.97
891.406	17.07
891.571	16.11
891.736	-22.48
891.901	-234.51
892.065	238.46
892.23	114.55
892.395	254.99
892.56	442.49
892.725	-769.53
892.889	-1956.1
893.054	-309.78
893.219	-96.11
893.384	-29.04
893.548	-56.66
893.713	-83.66
893.878	-33.18
