Data from Ofra_PS_T2_1A_0GT14_Reflection_1.txt Node
Date: Wed Jul 21 17:44:37 EDT 2021
User: Adam
Spectrometer: FLMT01687
Trigger mode: 0
Integration Time (sec): 1.100000E0
Scans to average: 2
Electric dark correction enabled: true
Nonlinearity correction enabled: false
Boxcar width: 2
XAxis mode: Wavelengths
Number of Pixels in Spectrum: 3648
>>>>>Begin Spectral Data<<<<<
179.494	504.6
179.716	605.65
179.937	574.14
180.158	595.69
180.38	921.09
180.601	351.8
180.823	112.21
181.044	-28.08
181.265	53.49
181.486	56.5
181.708	109.64
181.929	442.35
182.15	-220.77
182.372	163.94
182.593	34.23
182.814	37.05
183.035	90.65
183.257	78.7
183.478	-0.16
183.699	105.23
183.92	52.14
184.141	39.88
184.363	-11.09
184.584	47.47
184.805	13.48
185.026	68.21
185.247	79.04
185.468	53.04
185.689	50.62
185.91	71.71
186.132	44.05
186.353	33.85
186.574	93.22
186.795	65.63
187.016	-9.83
187.237	-16.33
187.458	-53.43
187.679	-54.76
187.9	-26.31
188.121	8.27
188.342	56.66
188.563	63.42
188.784	113.55
189.005	97.05
189.226	128.47
189.447	80.39
189.667	-10.56
189.888	-285.59
190.109	-1286.69
190.33	-724.35
190.551	-1259.07
190.772	-288.56
190.993	-246.48
191.214	-146.23
191.434	-109.41
191.655	-33.96
191.876	-97.11
192.097	-128.1
192.318	-212.24
192.538	-269.43
192.759	-165.77
192.98	-26.04
193.201	27.72
193.421	25.32
193.642	38.38
193.863	52.36
194.083	25.31
194.304	2.09
194.525	3.2
194.745	-57.94
194.966	-107.69
195.187	-104
195.407	-162.24
195.628	-201.74
195.848	-139.82
196.069	-128.37
196.29	-51.58
196.51	-29.45
196.731	-16.61
196.951	-33.34
197.172	-33.47
197.392	-110.44
197.613	-122.51
197.833	-145.32
198.054	-126.61
198.274	-76.44
198.495	-70.36
198.715	-39.68
198.936	-54.39
199.156	-36.9
199.377	-92.26
199.597	-111.4
199.817	-155.78
200.038	-86.48
200.258	-151.49
200.479	-97.02
200.699	-69.57
200.919	22.33
201.14	-24.68
201.36	-20.11
201.58	34.63
201.801	53.4
202.021	33.56
202.241	44.27
202.461	39.09
202.682	-46.6
202.902	-124.57
203.122	-83.87
203.342	-69.21
203.563	-24.01
203.783	0.36
204.003	-30.32
204.223	-21.19
204.443	49.29
204.663	45.24
204.884	38.75
205.104	68.44
205.324	94.03
205.544	68.35
205.764	55.2
205.984	52.3
206.204	52.54
206.424	36.67
206.644	-7.02
206.864	6.54
207.084	-5.9
207.304	34.93
207.525	-39.61
207.745	-10.83
207.964	34.02
208.184	-20.97
208.404	-74.49
208.624	-71.2
208.844	-68.3
209.064	-358.93
209.284	-375.58
209.504	-145.92
209.724	-25.43
209.944	-1.98
210.164	23.09
210.384	35.68
210.604	6.42
210.823	-32.99
211.043	-54.03
211.263	-30.16
211.483	-30.12
211.703	-73.46
211.922	-43.24
212.142	23.68
212.362	50.88
212.582	33.89
212.801	54.79
213.021	18.98
213.241	-10.74
213.461	-50.1
213.68	-74.5
213.9	-59.69
214.12	-35.06
214.339	-95.25
214.559	-79.64
214.779	-15.85
214.998	-6.79
215.218	-61.86
215.438	-20.13
215.657	-16.98
215.877	-35.02
216.096	-7.33
216.316	14.64
216.535	11.43
216.755	-10.52
216.974	-93.29
217.194	-178.77
217.413	-161.31
217.633	-183.28
217.852	-270.78
218.072	-99.58
218.291	-32.58
218.511	10.72
218.73	14.82
218.95	7.44
219.169	-4.19
219.389	-50.8
219.608	-40.93
219.827	-29.59
220.047	-0.27
220.266	12.97
220.485	1.33
220.705	-7.28
220.924	-43.6
221.143	-12.16
221.363	-41.47
221.582	4.55
221.801	34.21
222.021	54.27
222.24	22.94
222.459	100.04
222.678	26.92
222.897	-75.59
223.117	-100.81
223.336	-69.42
223.555	-33.82
223.774	8.46
223.993	34.07
224.213	90.54
224.432	81.22
224.651	78.85
224.87	42.19
225.089	59.44
225.308	44.82
225.527	51.4
225.746	41.31
225.965	33.24
226.184	12.45
226.404	18.24
226.623	-4.45
226.842	6.38
227.061	26.21
227.28	28.55
227.499	24.75
227.718	43.35
227.936	36.7
228.155	48.47
228.374	25.07
228.593	20.44
228.812	10.85
229.031	-3.6
229.25	-57.89
229.469	-56.45
229.688	-30.44
229.907	-10.11
230.125	12.62
230.344	18.4
230.563	41.45
230.782	35.51
231.001	-39.53
231.22	-29.45
231.438	10.84
231.657	1.65
231.876	-28.39
232.095	33.93
232.313	19.06
232.532	8.9
232.751	-18.98
232.969	-4.25
233.188	-89.77
233.407	-0.09
233.625	-5.72
233.844	-20.14
234.063	2.08
234.281	23.29
234.5	-0.05
234.719	7.9
234.937	36.25
235.156	31.26
235.374	34.84
235.593	27.22
235.811	18.99
236.03	7.96
236.249	-48.2
236.467	-58.68
236.686	-3.74
236.904	7.25
237.123	-22.64
237.341	-1.5
237.559	3.44
237.778	-13.11
237.996	-30.11
238.215	11.98
238.433	12.47
238.652	22.72
238.87	-13.12
239.088	-10.92
239.307	5.54
239.525	12.19
239.743	-25.02
239.962	23.47
240.18	7.73
240.398	-64.77
240.617	-97.06
240.835	-75.36
241.053	-80.15
241.271	-18.47
241.49	28.23
241.708	36.92
241.926	21.47
242.144	23.44
242.363	-46.53
242.581	-74.31
242.799	-26.85
243.017	21.01
243.235	-0.84
243.453	4.9
243.672	-6.02
243.89	-17.88
244.108	-35.78
244.326	-16.18
244.544	-8.16
244.762	-18.78
244.98	-0.27
245.198	-3.37
245.416	-24.12
245.634	-36.33
245.852	-23.34
246.07	-41.48
246.288	-48.44
246.506	-95.49
246.724	-41.21
246.942	-51.32
247.16	-4.25
247.378	1.95
247.596	35.6
247.814	10.3
248.032	0.17
248.25	-23.27
248.468	-4.68
248.685	-1.93
248.903	25.54
249.121	19.68
249.339	-12.18
249.557	-35.53
249.775	-13.28
249.992	-73.76
250.21	-51.75
250.428	-24.72
250.646	-47.93
250.863	-66.91
251.081	-46.9
251.299	-36.13
251.517	-20.88
251.734	-10.59
251.952	-23.1
252.17	-16.05
252.387	-9.5
252.605	-28.23
252.823	-15.18
253.04	6.25
253.258	24.81
253.475	15.96
253.693	52.62
253.911	47.76
254.128	40.97
254.346	34.76
254.563	13.36
254.781	-30.28
254.998	-50.47
255.216	-39.37
255.433	-19.98
255.651	35.16
255.868	75.93
256.086	98.41
256.303	79.54
256.521	59.63
256.738	30.28
256.956	-5.33
257.173	-34.16
257.39	-49.23
257.608	-77.13
257.825	-19.84
258.043	32.58
258.26	37.5
258.477	69.92
258.695	73.88
258.912	13.55
259.129	10.53
259.346	-29.43
259.564	-77.69
259.781	-109.4
259.998	-20.6
260.216	-7.17
260.433	39.9
260.65	45.68
260.867	70.35
261.084	16.09
261.302	17.18
261.519	8.67
261.736	-20.12
261.953	-37.44
262.17	21.61
262.387	-21.42
262.604	-67.31
262.822	-73.53
263.039	-76.42
263.256	-155.9
263.473	-107.71
263.69	-61.74
263.907	-8.84
264.124	12.22
264.341	33.96
264.558	27.37
264.775	49.25
264.992	37.98
265.209	28.52
265.426	41.53
265.643	41.2
265.86	23.76
266.077	34.24
266.294	6.17
266.51	-35.51
266.727	-48.41
266.944	-18.88
267.161	-42.23
267.378	-23.92
267.595	14.39
267.812	7.53
268.028	-6.77
268.245	23.99
268.462	4.26
268.679	-18.01
268.896	32.79
269.112	28.64
269.329	20.84
269.546	22.57
269.763	18.97
269.979	-20.96
270.196	-21.01
270.413	-54.22
270.629	-93.16
270.846	-102.17
271.063	-75.92
271.279	-100.13
271.496	-87.3
271.712	-41.51
271.929	-16.74
272.146	-32.28
272.362	-6.89
272.579	28.39
272.795	32.93
273.012	33.52
273.228	30.06
273.445	0.65
273.661	-43.43
273.878	-72.79
274.094	-64.04
274.311	-71.16
274.527	1.11
274.744	9.46
274.96	18.05
275.177	5.41
275.393	15.59
275.609	4.98
275.826	32.2
276.042	26.51
276.259	25.46
276.475	38.8
276.691	31.82
276.908	8.25
277.124	31.03
277.34	31.85
277.557	10.44
277.773	1.86
277.989	-5.27
278.205	-25.55
278.422	-6.91
278.638	5.2
278.854	24.63
279.07	37.21
279.286	19.89
279.503	-10.69
279.719	-27.12
279.935	-43.77
280.151	-61.24
280.367	-25.17
280.583	-36.76
280.799	-16.57
281.016	-44.84
281.232	-7.96
281.448	-6.12
281.664	16.98
281.88	-26.12
282.096	10.59
282.312	35.64
282.528	39.87
282.744	38.37
282.96	52.38
283.176	24.09
283.392	17.77
283.608	10.58
283.824	5.36
284.04	7.8
284.256	17.47
284.471	3.28
284.687	10
284.903	42.97
285.119	69.19
285.335	39.87
285.551	37.36
285.767	21.61
285.982	3.6
286.198	-33.66
286.414	24.21
286.63	39.41
286.846	58.19
287.061	26.85
287.277	45.46
287.493	19.45
287.709	16.02
287.924	-10.4
288.14	35.99
288.356	28.01
288.571	46.51
288.787	29.6
289.003	27.86
289.218	-6.99
289.434	-45.8
289.65	-54.33
289.865	-51.21
290.081	-25.02
290.296	20.13
290.512	26.34
290.727	-1.41
290.943	-18.19
291.159	-33.82
291.374	-43.9
291.59	-59.24
291.805	-33.77
292.021	-20.87
292.236	-21.7
292.451	-4.55
292.667	11.73
292.882	17.64
293.098	9.15
293.313	4.82
293.529	-30.38
293.744	-68.42
293.959	-71.04
294.175	-57.51
294.39	-17.17
294.605	1.16
294.821	42.55
295.036	46.7
295.251	53.51
295.467	15.06
295.682	-2.09
295.897	-78.99
296.112	-86.9
296.328	-65.79
296.543	-80.12
296.758	-61.23
296.973	-5.72
297.188	31.97
297.404	-5.88
297.619	-0.64
297.834	-15.22
298.049	-24.29
298.264	-70.08
298.479	1.47
298.694	2.59
298.909	21.72
299.125	18.56
299.34	39.92
299.555	-0.92
299.77	32.47
299.985	-15.92
300.2	-58.59
300.415	-85.01
300.63	-30.69
300.845	-49.25
301.06	-41.13
301.275	2.29
301.49	25.01
301.704	3.69
301.919	-9.31
302.134	-8.16
302.349	-14.24
302.564	-62.99
302.779	-59.14
302.994	-17.99
303.209	-8.96
303.423	9.93
303.638	56.09
303.853	20.2
304.068	14.22
304.283	12.86
304.497	3.02
304.712	-12.08
304.927	4.19
305.142	-10.91
305.356	-4.84
305.571	-10.73
305.786	-19.99
306	-49.11
306.215	-37.11
306.43	-62.87
306.644	-44.79
306.859	-5.91
307.074	29.35
307.288	3.03
307.503	20.62
307.717	-0.05
307.932	-9.62
308.147	-18.97
308.361	9.35
308.576	-5.16
308.79	-25.9
309.005	-11.58
309.219	5.88
309.434	5.55
309.648	3.45
309.863	14.43
310.077	8.06
310.292	1.94
310.506	-8.51
310.72	7.3
310.935	26.14
311.149	14.24
311.364	20.45
311.578	40.94
311.792	31
312.007	34.34
312.221	22.17
312.435	24.21
312.649	0.24
312.864	-8.12
313.078	-5.48
313.292	73.35
313.507	50.78
313.721	99.22
313.935	68.84
314.149	40.59
314.363	16.74
314.578	22.54
314.792	18.31
315.006	6.01
315.22	28.89
315.434	31.51
315.648	34
315.862	28.53
316.077	36.92
316.291	16.9
316.505	33.62
316.719	43.15
316.933	6.59
317.147	2.65
317.361	-32.29
317.575	-72.96
317.789	-118.11
318.003	-158.69
318.217	-103.18
318.431	-29.81
318.645	12.75
318.859	17.59
319.073	32.13
319.287	7.17
319.5	-26.83
319.714	-76.78
319.928	-101.96
320.142	-113.39
320.356	-43.31
320.57	3.57
320.784	10.49
320.997	0.26
321.211	-1.29
321.425	-72.84
321.639	-110.14
321.853	-38.7
322.066	-11.24
322.28	-8.41
322.494	10.27
322.707	33.54
322.921	12.88
323.135	1.06
323.349	11.64
323.562	-20.96
323.776	-30.49
323.989	-20.02
324.203	-39.28
324.417	-47.14
324.63	-30.55
324.844	-46.88
325.057	-67.25
325.271	-44.07
325.485	-12.94
325.698	6.45
325.912	24.76
326.125	21.15
326.339	31.75
326.552	13.65
326.766	7.57
326.979	21.63
327.193	51.96
327.406	32.5
327.619	27.2
327.833	33.65
328.046	-2.97
328.26	-63.06
328.473	-29.72
328.686	-74.25
328.9	-63.56
329.113	-25.07
329.326	-19.18
329.54	-16.09
329.753	10.41
329.966	-16.03
330.179	-20.74
330.393	-1.22
330.606	6.71
330.819	5.01
331.032	20.2
331.246	18.61
331.459	33.24
331.672	5.88
331.885	11.01
332.098	-16
332.311	-15.84
332.525	-60.52
332.738	-10.58
332.951	4.74
333.164	41.38
333.377	37.6
333.59	56.14
333.803	44.38
334.016	32.62
334.229	23.04
334.442	37.65
334.655	60.25
334.868	62.83
335.081	38.95
335.294	24.29
335.507	13.05
335.72	-14.19
335.933	-25.31
336.146	-8.23
336.359	-1.05
336.572	-30.15
336.785	-60.55
336.997	-46.92
337.21	-24.74
337.423	-43.27
337.636	-34.33
337.849	5.64
338.062	-8.73
338.274	-11.61
338.487	-6.62
338.7	-2.47
338.913	-61.62
339.125	-83.95
339.338	-134.99
339.551	-103.84
339.763	-60.86
339.976	-32.06
340.189	-3.45
340.402	18.94
340.614	0.99
340.827	-19.22
341.039	-28.31
341.252	-33.4
341.465	-31.4
341.677	-25.58
341.89	-57.33
342.102	-15.5
342.315	-31.47
342.527	-69.22
342.74	-56.82
342.952	-34.5
343.165	-52.61
343.377	-11.83
343.59	-7.55
343.802	8.2
344.015	31.28
344.227	58
344.44	45.82
344.652	58.27
344.864	39.19
345.077	43.54
345.289	37.51
345.502	39.92
345.714	36.92
345.926	45.63
346.139	33.05
346.351	32.9
346.563	41.42
346.775	37.04
346.988	15.19
347.2	11.02
347.412	-20.77
347.624	-49.37
347.837	-55.5
348.049	-10.04
348.261	13.89
348.473	7.97
348.685	0.92
348.897	-3.36
349.11	-32.94
349.322	-58.17
349.534	-13.37
349.746	8.92
349.958	16.62
350.17	12.97
350.382	22.63
350.594	9.32
350.806	-3.74
351.018	-3.81
351.23	-1.87
351.442	-51.32
351.654	-63.03
351.866	-50.86
352.078	-27.22
352.29	-11.31
352.502	19.28
352.714	28.28
352.926	21.34
353.138	17.24
353.35	9.58
353.561	-3.6
353.773	-19.25
353.985	2.45
354.197	-10.51
354.409	-5.49
354.621	-1.05
354.832	7.48
355.044	-13.25
355.256	-9.83
355.468	-0.03
355.679	-4.96
355.891	7.35
356.103	9.73
356.314	15.4
356.526	16.99
356.738	37.7
356.949	10.62
357.161	23.59
357.373	11.08
357.584	-5.36
357.796	-3.77
358.008	-0.03
358.219	16.73
358.431	21
358.642	22.41
358.854	12.36
359.065	3.44
359.277	-35.5
359.488	-49.99
359.7	-64.4
359.911	-68.64
360.123	-36.92
360.334	-53.17
360.546	-64.06
360.757	-64.37
360.969	-56.36
361.18	-65.28
361.391	-25.69
361.603	-19.27
361.814	-7.57
362.025	-14.46
362.237	-14.19
362.448	-6.88
362.659	10.75
362.871	7.65
363.082	2.96
363.293	0.25
363.504	-35.71
363.716	-70.71
363.927	-68.17
364.138	-73.05
364.349	-82.63
364.56	-62.93
364.772	-45.75
364.983	-25.22
365.194	-23.96
365.405	-9.12
365.616	23.86
365.827	22.67
366.038	-5.21
366.25	-9.15
366.461	-44.16
366.672	-33.68
366.883	-12.32
367.094	0.1
367.305	-7.41
367.516	3.1
367.727	-29.19
367.938	-49.62
368.149	-49.84
368.36	-25.73
368.571	-18.74
368.781	-34.3
368.992	-43.08
369.203	-56.6
369.414	-79.07
369.625	-75.54
369.836	-47.36
370.047	-61.77
370.258	-43.44
370.468	-44.26
370.679	-60.72
370.89	-67.85
371.101	-40.84
371.312	-35.98
371.522	-28.36
371.733	-28.13
371.944	-6.46
372.155	3.57
372.365	-11.42
372.576	-13.18
372.787	-21.23
372.997	-51.07
373.208	-53.83
373.419	-22.58
373.629	-53.7
373.84	-34.67
374.05	-34.81
374.261	-25.06
374.472	-47.56
374.682	19.2
374.893	16.64
375.103	52.21
375.314	42.9
375.524	44.73
375.735	23.88
375.945	32.02
376.156	-5.51
376.366	-3.24
376.577	-2.08
376.787	-13.39
376.997	-9.97
377.208	-1.88
377.418	-22.43
377.629	-9.49
377.839	-7.37
378.049	-15.76
378.26	1.3
378.47	15.21
378.68	0.95
378.89	-4.63
379.101	-9.55
379.311	-46.3
379.521	-76.72
379.732	-67.74
379.942	-55.05
380.152	-65.29
380.362	-34.09
380.572	-23.81
380.783	-18.18
380.993	-8
381.203	6.16
381.413	23.88
381.623	31.65
381.833	28.26
382.043	8.64
382.253	5.09
382.463	-4.36
382.674	-17.6
382.884	-36.64
383.094	-26.29
383.304	-28.4
383.514	-21.6
383.724	-4.74
383.934	-9.61
384.144	-22.05
384.353	-16.86
384.563	-20.64
384.773	-22.62
384.983	-24.81
385.193	-5.34
385.403	-2.86
385.613	-3.28
385.823	-14.32
386.033	-6.61
386.242	-15.87
386.452	-20.92
386.662	-34.06
386.872	-13.67
387.082	-15.82
387.291	-19.19
387.501	-20.88
387.711	-3.6
387.921	-22.5
388.13	-21.4
388.34	-8.5
388.55	-12.73
388.759	-16.88
388.969	-3.56
389.179	-4.47
389.388	-6.24
389.598	1.76
389.807	-6.18
390.017	-12.77
390.227	-9.49
390.436	-12.12
390.646	-11.55
390.855	-7.36
391.065	-6.05
391.274	-10.06
391.484	-10.32
391.693	-8.2
391.903	-4.86
392.112	-0.38
392.322	3.14
392.531	5.58
392.74	6.15
392.95	1.4
393.159	-1.22
393.369	-0.52
393.578	-1.82
393.787	-4.68
393.997	-2.47
394.206	-4.23
394.415	-3.44
394.625	-4.5
394.834	-4.97
395.043	-3.17
395.252	0.15
395.462	3.46
395.671	6.12
395.88	6.5
396.089	7.56
396.298	4.71
396.508	2.35
396.717	1.18
396.926	1.5
397.135	-0.03
397.344	0.5
397.553	0.91
397.762	3.01
397.971	2.53
398.181	2.69
398.39	2.43
398.599	1.6
398.808	0.67
399.017	1.89
399.226	3.29
399.435	4.5
399.644	4.5
399.853	2.91
400.062	1.73
400.27	0.81
400.479	-0.11
400.688	-0.7
400.897	0.25
401.106	0.61
401.315	0.3
401.524	0.4
401.733	1.4
401.941	2.11
402.15	2.27
402.359	2.32
402.568	2.9
402.777	2.88
402.985	2.41
403.194	2.44
403.403	2.45
403.612	1.85
403.82	1.73
404.029	1.81
404.238	1.52
404.446	1.9
404.655	1.8
404.864	1.62
405.072	1.44
405.281	1.83
405.489	1.38
405.698	1.39
405.906	1.36
406.115	1.44
406.324	1.26
406.532	1.52
406.741	1.9
406.949	1.97
407.158	1.86
407.366	1.95
407.574	1.76
407.783	1.68
407.991	1.51
408.2	1.73
408.408	1.53
408.617	1.57
408.825	1.37
409.033	1.5
409.242	1.55
409.45	1.71
409.658	1.69
409.867	1.9
410.075	1.69
410.283	1.46
410.491	1.42
410.7	1.33
410.908	1.26
411.116	1.71
411.324	1.71
411.533	1.67
411.741	1.91
411.949	1.86
412.157	1.47
412.365	1.53
412.573	1.61
412.781	1.63
412.99	1.57
413.198	1.75
413.406	1.67
413.614	1.58
413.822	1.38
414.03	1.35
414.238	1.21
414.446	1.37
414.654	1.18
414.862	1.4
415.07	1.48
415.278	1.72
415.486	1.44
415.694	1.63
415.902	1.37
416.109	1.26
416.317	1.14
416.525	1.03
416.733	1.05
416.941	1.18
417.149	1.03
417.357	1.11
417.564	1.42
417.772	1.56
417.98	1.51
418.188	1.63
418.395	1.55
418.603	1.68
418.811	1.3
419.019	1.3
419.226	1.62
419.434	1.76
419.642	1.41
419.849	1.64
420.057	1.67
420.265	1.54
420.472	1.26
420.68	1.33
420.887	1.31
421.095	1.28
421.302	1.15
421.51	1.45
421.717	1.53
421.925	1.43
422.132	1.35
422.34	1.17
422.547	1.08
422.755	0.99
422.962	0.96
423.17	0.89
423.377	1.16
423.585	1.15
423.792	1.01
423.999	1.19
424.207	1.34
424.414	1.37
424.621	1.31
424.829	1.4
425.036	1.33
425.243	1.31
425.451	1.12
425.658	0.96
425.865	1.11
426.072	1.14
426.28	1.43
426.487	1.37
426.694	1.58
426.901	1.34
427.108	1.32
427.315	1.07
427.523	1.5
427.73	1.52
427.937	1.64
428.144	1.43
428.351	1.41
428.558	1.44
428.765	1.33
428.972	1.29
429.179	1.52
429.386	1.86
429.593	1.55
429.8	1.46
430.007	1.54
430.214	1.61
430.421	1.22
430.628	1.03
430.835	0.93
431.042	1.05
431.249	1.01
431.456	1.04
431.662	1.24
431.869	1.42
432.076	1.36
432.283	1.5
432.49	1.53
432.697	1.48
432.903	1.3
433.11	1.28
433.317	1.22
433.524	1.4
433.73	1.44
433.937	1.7
434.144	1.66
434.35	1.57
434.557	1.41
434.764	1.45
434.97	1.35
435.177	1.49
435.384	1.39
435.59	1.44
435.797	1.64
436.003	1.73
436.21	1.71
436.416	1.87
436.623	1.88
436.829	1.94
437.036	1.97
437.242	1.94
437.449	1.86
437.655	1.88
437.862	1.76
438.068	1.6
438.275	1.66
438.481	1.88
438.687	1.83
438.894	1.73
439.1	1.83
439.307	2.04
439.513	1.91
439.719	1.93
439.926	2.06
440.132	2.01
440.338	1.78
440.544	1.89
440.751	1.89
440.957	1.9
441.163	1.84
441.369	1.92
441.575	1.69
441.782	1.66
441.988	1.5
442.194	1.56
442.4	1.56
442.606	1.84
442.812	1.9
443.018	2.08
443.224	2.11
443.431	2.23
443.637	1.98
443.843	1.84
444.049	1.77
444.255	1.76
444.461	1.72
444.667	1.75
444.873	2.02
445.079	2.07
445.284	2.1
445.49	1.87
445.696	1.76
445.902	1.61
446.108	1.54
446.314	1.52
446.52	1.59
446.726	1.86
446.931	1.84
447.137	1.85
447.343	1.91
447.549	1.85
447.755	1.71
447.96	1.79
448.166	1.79
448.372	1.69
448.578	1.78
448.783	1.81
448.989	1.88
449.195	2.02
449.4	1.99
449.606	1.97
449.812	1.88
450.017	1.83
450.223	1.75
450.428	1.73
450.634	1.91
450.84	2.14
451.045	2.06
451.251	1.98
451.456	2.29
451.662	2.24
451.867	2.19
452.073	2.19
452.278	2.29
452.483	2.28
452.689	2.2
452.894	2.21
453.1	2.2
453.305	2.19
453.51	2.03
453.716	1.99
453.921	1.95
454.127	1.94
454.332	1.81
454.537	1.76
454.742	1.73
454.948	1.74
455.153	1.77
455.358	1.96
455.563	2.23
455.769	2.39
455.974	2.31
456.179	2.25
456.384	2.2
456.589	2.08
456.795	1.85
457	1.87
457.205	2.11
457.41	2.07
457.615	2
457.82	2.15
458.025	2.22
458.23	2.01
458.435	2.1
458.64	2.04
458.845	2.15
459.05	2.08
459.255	2.13
459.46	2.11
459.665	2.09
459.87	2.03
460.075	2.11
460.28	2.13
460.485	2.14
460.69	2.19
460.895	2.05
461.099	1.96
461.304	2.18
461.509	2.23
461.714	2.2
461.919	2.42
462.123	2.37
462.328	2.32
462.533	2.21
462.738	2.46
462.942	2.31
463.147	2.48
463.352	2.44
463.556	2.45
463.761	2.33
463.966	2.35
464.17	2.26
464.375	2.13
464.58	2.16
464.784	2.08
464.989	1.98
465.193	1.98
465.398	2.02
465.602	2.1
465.807	2.15
466.011	2.34
466.216	2.46
466.42	2.51
466.625	2.51
466.829	2.6
467.034	2.55
467.238	2.69
467.443	2.69
467.647	2.62
467.851	2.65
468.056	2.81
468.26	2.66
468.464	2.7
468.669	2.79
468.873	2.9
469.077	2.8
469.282	2.87
469.486	2.95
469.69	2.99
469.894	2.85
470.099	2.96
470.303	3.07
470.507	2.93
470.711	2.79
470.915	2.77
471.119	2.69
471.324	2.56
471.528	2.63
471.732	2.74
471.936	2.76
472.14	2.83
472.344	2.82
472.548	2.87
472.752	3.03
472.956	3.25
473.16	3.15
473.364	3.08
473.568	3.08
473.772	3.02
473.976	2.84
474.18	2.85
474.384	3.01
474.588	2.9
474.792	2.78
474.995	2.87
475.199	2.94
475.403	2.98
475.607	3.1
475.811	3.13
476.015	3.18
476.218	3.24
476.422	3.11
476.626	3.18
476.83	3.25
477.033	3.23
477.237	3.15
477.441	3.17
477.644	3.11
477.848	3.08
478.052	2.99
478.255	3.01
478.459	3.05
478.663	3.18
478.866	3.27
479.07	3.34
479.273	3.45
479.477	3.52
479.681	3.46
479.884	3.39
480.088	3.36
480.291	3.3
480.495	3.31
480.698	3.28
480.901	3.34
481.105	3.48
481.308	3.5
481.512	3.45
481.715	3.53
481.919	3.62
482.122	3.57
482.325	3.59
482.529	3.67
482.732	3.66
482.935	3.55
483.138	3.46
483.342	3.55
483.545	3.6
483.748	3.58
483.952	3.61
484.155	3.74
484.358	3.7
484.561	3.64
484.764	3.57
484.967	3.72
485.171	3.77
485.374	3.72
485.577	3.84
485.78	3.95
485.983	3.87
486.186	3.82
486.389	3.83
486.592	3.81
486.795	3.8
486.998	3.74
487.201	3.73
487.404	3.82
487.607	3.85
487.81	3.86
488.013	3.92
488.216	3.89
488.419	3.85
488.622	3.8
488.825	3.75
489.028	3.69
489.231	3.65
489.433	3.56
489.636	3.44
489.839	3.43
490.042	3.39
490.245	3.43
490.447	3.53
490.65	3.57
490.853	3.58
491.056	3.66
491.258	3.69
491.461	3.68
491.664	3.78
491.866	3.74
492.069	3.82
492.272	3.81
492.474	3.85
492.677	3.87
492.879	3.93
493.082	3.9
493.285	4.04
493.487	4.03
493.69	3.93
493.892	3.91
494.095	3.91
494.297	3.84
494.5	3.85
494.702	3.92
494.905	4
495.107	3.98
495.309	3.96
495.512	3.99
495.714	4.01
495.917	3.96
496.119	3.95
496.321	4.03
496.524	4.12
496.726	4.12
496.928	4.16
497.13	4.19
497.333	4.16
497.535	4.11
497.737	4.11
497.939	4.07
498.142	4.11
498.344	4.08
498.546	3.97
498.748	3.97
498.95	4.11
499.152	4.02
499.355	4.1
499.557	4.29
499.759	4.38
499.961	4.34
500.163	4.47
500.365	4.42
500.567	4.45
500.769	4.36
500.971	4.36
501.173	4.26
501.375	4.29
501.577	4.16
501.779	4.15
501.981	4.18
502.183	4.23
502.385	4.25
502.587	4.19
502.788	4.27
502.99	4.33
503.192	4.4
503.394	4.41
503.596	4.5
503.798	4.53
503.999	4.52
504.201	4.5
504.403	4.56
504.605	4.6
504.806	4.57
505.008	4.6
505.21	4.73
505.411	4.72
505.613	4.71
505.815	4.81
506.016	4.86
506.218	4.85
506.42	4.8
506.621	4.84
506.823	4.8
507.024	4.76
507.226	4.71
507.427	4.8
507.629	4.85
507.83	4.86
508.032	4.82
508.233	4.9
508.435	4.9
508.636	4.96
508.838	5
509.039	5.08
509.24	5.04
509.442	5.04
509.643	4.96
509.845	4.96
510.046	5.01
510.247	5.07
510.448	5.1
510.65	5.12
510.851	5.24
511.052	5.25
511.254	5.21
511.455	5.31
511.656	5.47
511.857	5.51
512.058	5.51
512.26	5.54
512.461	5.47
512.662	5.43
512.863	5.27
513.064	5.3
513.265	5.4
513.466	5.47
513.667	5.43
513.868	5.51
514.069	5.61
514.27	5.64
514.471	5.57
514.672	5.64
514.873	5.67
515.074	5.66
515.275	5.51
515.476	5.56
515.677	5.55
515.878	5.64
516.079	5.55
516.28	5.67
516.481	5.82
516.682	5.84
516.882	5.74
517.083	5.79
517.284	5.79
517.485	5.68
517.686	5.65
517.886	5.65
518.087	5.77
518.288	5.8
518.488	5.75
518.689	5.77
518.89	5.78
519.091	5.72
519.291	5.67
519.492	5.78
519.692	5.86
519.893	5.99
520.094	5.99
520.294	6.03
520.495	5.98
520.695	5.99
520.896	5.89
521.096	5.89
521.297	5.97
521.497	6
521.698	5.96
521.898	5.96
522.099	6.01
522.299	6.03
522.499	6.04
522.7	6.13
522.9	6.15
523.101	6.21
523.301	6.18
523.501	6.13
523.702	6.12
523.902	6.19
524.102	6.21
524.302	6.21
524.503	6.36
524.703	6.37
524.903	6.37
525.103	6.34
525.304	6.45
525.504	6.49
525.704	6.56
525.904	6.6
526.104	6.58
526.304	6.55
526.504	6.5
526.705	6.46
526.905	6.52
527.105	6.57
527.305	6.54
527.505	6.53
527.705	6.52
527.905	6.48
528.105	6.48
528.305	6.49
528.505	6.52
528.705	6.63
528.905	6.58
529.105	6.64
529.304	6.67
529.504	6.78
529.704	6.68
529.904	6.76
530.104	6.75
530.304	6.83
530.503	6.78
530.703	6.8
530.903	6.77
531.103	6.85
531.303	6.77
531.502	6.79
531.702	6.89
531.902	6.93
532.101	6.82
532.301	6.88
532.501	6.88
532.7	6.86
532.9	6.88
533.1	6.93
533.299	6.96
533.499	6.99
533.698	6.95
533.898	6.98
534.097	7.03
534.297	7.09
534.496	7.09
534.696	7.16
534.895	7.26
535.095	7.35
535.294	7.31
535.494	7.3
535.693	7.33
535.892	7.33
536.092	7.21
536.291	7.2
536.491	7.27
536.69	7.29
536.889	7.17
537.088	7.22
537.288	7.31
537.487	7.39
537.686	7.38
537.886	7.52
538.085	7.57
538.284	7.7
538.483	7.62
538.682	7.72
538.882	7.71
539.081	7.84
539.28	7.69
539.479	7.73
539.678	7.71
539.877	7.85
540.076	7.82
540.275	7.9
540.474	7.97
540.673	8.03
540.872	7.96
541.071	7.99
541.27	8.04
541.469	8.13
541.668	8.17
541.867	8.23
542.066	8.31
542.265	8.39
542.464	8.34
542.663	8.38
542.862	8.52
543.06	8.57
543.259	8.62
543.458	8.77
543.657	8.83
543.856	8.87
544.054	8.83
544.253	8.82
544.452	8.76
544.651	8.84
544.849	8.79
545.048	8.89
545.247	8.93
545.445	8.99
545.644	8.99
545.843	9
546.041	9.03
546.24	9.16
546.438	9.25
546.637	9.3
546.836	9.47
547.034	9.52
547.233	9.48
547.431	9.47
547.63	9.51
547.828	9.49
548.027	9.56
548.225	9.6
548.423	9.69
548.622	9.79
548.82	9.83
549.019	9.87
549.217	10.02
549.415	10.03
549.614	10.07
549.812	10.13
550.01	10.2
550.209	10.25
550.407	10.4
550.605	10.47
550.803	10.59
551.002	10.7
551.2	10.8
551.398	10.85
551.596	10.97
551.794	11.04
551.993	11.14
552.191	11.19
552.389	11.29
552.587	11.37
552.785	11.45
552.983	11.55
553.181	11.66
553.379	11.77
553.577	11.81
553.775	11.87
553.973	11.88
554.171	11.99
554.369	11.98
554.567	12.06
554.765	12.14
554.963	12.27
555.161	12.3
555.359	12.41
555.557	12.59
555.755	12.65
555.952	12.78
556.15	12.82
556.348	12.96
556.546	12.97
556.744	13.07
556.941	13.06
557.139	13.18
557.337	13.17
557.535	13.18
557.732	13.34
557.93	13.49
558.128	13.56
558.325	13.77
558.523	13.9
558.721	13.99
558.918	13.97
559.116	14.07
559.313	14.08
559.511	14.23
559.708	14.25
559.906	14.34
560.104	14.45
560.301	14.64
560.498	14.75
560.696	14.86
560.893	15.02
561.091	15.17
561.288	15.2
561.486	15.3
561.683	15.44
561.88	15.59
562.078	15.66
562.275	15.63
562.473	15.71
562.67	15.88
562.867	16.04
563.064	16.18
563.262	16.34
563.459	16.41
563.656	16.54
563.853	16.51
564.051	16.51
564.248	16.65
564.445	16.76
564.642	16.79
564.839	17.01
565.036	17.2
565.234	17.45
565.431	17.52
565.628	17.58
565.825	17.68
566.022	17.8
566.219	17.75
566.416	17.88
566.613	17.98
566.81	18.03
567.007	17.99
567.204	18.04
567.401	18.08
567.598	18.13
567.795	18.14
567.991	18.21
568.188	18.31
568.385	18.43
568.582	18.51
568.779	18.66
568.976	18.8
569.172	18.95
569.369	18.93
569.566	19.05
569.763	19.11
569.96	19.15
570.156	19.07
570.353	19.15
570.55	19.16
570.746	19.17
570.943	19.19
571.14	19.28
571.336	19.36
571.533	19.4
571.729	19.38
571.926	19.48
572.123	19.61
572.319	19.61
572.516	19.65
572.712	19.78
572.909	19.8
573.105	19.83
573.302	19.93
573.498	20.01
573.695	20.01
573.891	20
574.087	19.98
574.284	19.91
574.48	19.82
574.677	19.79
574.873	19.83
575.069	19.97
575.266	20.11
575.462	20.14
575.658	20.27
575.854	20.35
576.051	20.23
576.247	20.11
576.443	20.13
576.639	20.09
576.835	20.03
577.032	20.06
577.228	20.2
577.424	20.29
577.62	20.16
577.816	20.13
578.012	20.14
578.208	20.01
578.404	20.05
578.6	20.23
578.796	20.31
578.993	20.35
579.189	20.45
579.384	20.25
579.58	20.14
579.776	20.1
579.972	20.03
580.168	19.96
580.364	20.03
580.56	20.09
580.756	20.08
580.952	20
581.148	19.99
581.343	19.98
581.539	20.01
581.735	20.04
581.931	20.19
582.127	20.18
582.322	20.17
582.518	20.18
582.714	20.15
582.909	20.07
583.105	20.06
583.301	19.99
583.496	19.95
583.692	19.89
583.888	19.83
584.083	19.95
584.279	20.06
584.474	19.98
584.67	20.02
584.866	20.06
585.061	19.79
585.257	19.86
585.452	19.89
585.648	19.79
585.843	19.77
586.039	19.93
586.234	19.84
586.429	19.76
586.625	19.92
586.82	19.91
587.015	19.97
587.211	19.91
587.406	19.99
587.601	19.9
587.797	19.91
587.992	19.79
588.187	19.89
588.383	19.87
588.578	19.9
588.773	19.92
588.968	19.97
589.163	20.02
589.359	19.98
589.554	19.99
589.749	20.05
589.944	20.06
590.139	20.08
590.334	20.25
590.529	20.16
590.724	20.19
590.919	20.43
591.114	20.32
591.309	20.42
591.504	20.56
591.699	20.59
591.894	20.54
592.089	20.58
592.284	20.49
592.479	20.58
592.674	20.58
592.869	20.61
593.064	20.73
593.259	20.84
593.454	20.92
593.648	20.98
593.843	21.01
594.038	21.07
594.233	21.04
594.428	21.04
594.622	21.1
594.817	21.29
595.012	21.3
595.206	21.36
595.401	21.41
595.596	21.49
595.79	21.49
595.985	21.67
596.18	21.88
596.374	21.96
596.569	22.05
596.763	22.1
596.958	22.09
597.153	22.12
597.347	22.24
597.542	22.4
597.736	22.39
597.931	22.45
598.125	22.52
598.319	22.63
598.514	22.56
598.708	22.7
598.903	22.78
599.097	22.82
599.291	22.79
599.486	22.89
599.68	22.98
599.874	23.11
600.069	23.12
600.263	23.15
600.457	23.19
600.651	23.19
600.846	23.24
601.04	23.34
601.234	23.41
601.428	23.43
601.622	23.55
601.817	23.53
602.011	23.53
602.205	23.58
602.399	23.6
602.593	23.48
602.787	23.52
602.981	23.57
603.175	23.62
603.369	23.53
603.563	23.6
603.757	23.63
603.951	23.62
604.145	23.56
604.339	23.7
604.533	23.67
604.727	23.55
604.921	23.54
605.115	23.6
605.309	23.69
605.502	23.75
605.696	23.84
605.89	23.82
606.084	23.77
606.278	23.65
606.471	23.48
606.665	23.37
606.859	23.29
607.053	23.3
607.246	23.28
607.44	23.4
607.634	23.34
607.827	23.37
608.021	23.18
608.214	23.09
608.408	22.89
608.602	22.81
608.795	22.64
608.989	22.6
609.182	22.55
609.376	22.53
609.569	22.47
609.763	22.4
609.956	22.3
610.15	22.1
610.343	22.05
610.537	21.95
610.73	21.88
610.923	21.85
611.117	21.85
611.31	21.74
611.504	21.7
611.697	21.53
611.89	21.49
612.083	21.41
612.277	21.37
612.47	21.38
612.663	21.4
612.856	21.24
613.05	21.2
613.243	21.14
613.436	20.97
613.629	20.92
613.822	20.88
614.015	20.82
614.209	20.68
614.402	20.68
614.595	20.66
614.788	20.62
614.981	20.49
615.174	20.4
615.367	20.32
615.56	20.18
615.753	20.12
615.946	20.03
616.139	20.02
616.332	20.03
616.525	19.99
616.718	20.02
616.911	20.05
617.103	19.99
617.296	19.89
617.489	19.84
617.682	19.79
617.875	19.75
618.067	19.68
618.26	19.54
618.453	19.62
618.646	19.54
618.838	19.47
619.031	19.65
619.224	19.72
619.417	19.61
619.609	19.62
619.802	19.55
619.994	19.41
620.187	19.38
620.38	19.35
620.572	19.18
620.765	19.2
620.957	19.08
621.15	18.98
621.342	18.93
621.535	19.03
621.727	19.02
621.92	19
622.112	18.97
622.305	19.02
622.497	18.88
622.69	18.86
622.882	18.87
623.074	18.87
623.267	18.82
623.459	18.8
623.651	18.71
623.844	18.69
624.036	18.69
624.228	18.64
624.42	18.64
624.613	18.81
624.805	18.76
624.997	18.75
625.189	18.65
625.381	18.7
625.574	18.54
625.766	18.47
625.958	18.43
626.15	18.52
626.342	18.46
626.534	18.47
626.726	18.49
626.918	18.52
627.11	18.35
627.302	18.31
627.494	18.24
627.686	18.3
627.878	18.17
628.07	18.25
628.262	18.13
628.454	18.13
628.646	18.06
628.838	18.15
629.029	18.05
629.221	18.27
629.413	18.13
629.605	18.01
629.797	17.88
629.989	17.94
630.18	17.69
630.372	17.69
630.564	17.67
630.755	17.71
630.947	17.76
631.139	17.69
631.33	17.65
631.522	17.74
631.714	17.7
631.905	17.62
632.097	17.56
632.289	17.55
632.48	17.4
632.672	17.34
632.863	17.16
633.055	17.23
633.246	17.19
633.438	17.15
633.629	17.02
633.821	17.14
634.012	17.16
634.203	17.12
634.395	17.12
634.586	17.18
634.777	17.03
634.969	16.99
635.16	17.04
635.351	17.04
635.543	17.05
635.734	17.18
635.925	17.22
636.117	17.25
636.308	17.31
636.499	17.23
636.69	17.13
636.881	17.1
637.073	17.1
637.264	17.07
637.455	17.17
637.646	17.28
637.837	17.27
638.028	17.12
638.219	17.08
638.41	16.95
638.601	16.82
638.792	16.77
638.983	16.77
639.174	16.77
639.365	16.88
639.556	16.81
639.747	16.75
639.938	16.85
640.129	16.81
640.32	16.71
640.511	16.78
640.701	16.97
640.892	16.8
641.083	16.84
641.274	16.81
641.465	16.76
641.655	16.53
641.846	16.51
642.037	16.42
642.228	16.38
642.418	16.39
642.609	16.43
642.8	16.53
642.99	16.45
643.181	16.54
643.372	16.51
643.562	16.46
643.753	16.35
643.943	16.36
644.134	16.19
644.324	16.18
644.515	16.13
644.705	16.2
644.896	16.23
645.086	16.36
645.277	16.32
645.467	16.39
645.658	16.29
645.848	16.26
646.038	16.18
646.229	16.09
646.419	15.95
646.61	15.93
646.8	15.86
646.99	15.84
647.18	15.91
647.371	15.96
647.561	15.88
647.751	15.91
647.941	15.77
648.132	15.69
648.322	15.65
648.512	15.75
648.702	15.71
648.892	15.73
649.082	15.71
649.272	15.58
649.462	15.38
649.653	15.26
649.843	15.17
650.033	15.13
650.223	15.08
650.413	15.17
650.603	15.2
650.793	15.29
650.983	15.2
651.172	15.18
651.362	15.02
651.552	14.95
651.742	14.81
651.932	14.85
652.122	14.88
652.312	14.95
652.502	14.85
652.691	14.77
652.881	14.67
653.071	14.6
653.261	14.47
653.45	14.36
653.64	14.34
653.83	14.11
654.019	13.94
654.209	13.9
654.399	13.86
654.588	13.77
654.778	13.76
654.968	13.58
655.157	13.5
655.347	13.43
655.536	13.26
655.726	13.14
655.915	13.11
656.105	12.91
656.294	12.8
656.484	12.65
656.673	12.52
656.863	12.41
657.052	12.22
657.241	11.99
657.431	11.75
657.62	11.58
657.809	11.29
657.999	11.15
658.188	10.95
658.377	10.84
658.567	10.76
658.756	10.66
658.945	10.43
659.134	10.32
659.324	10.17
659.513	9.95
659.702	9.73
659.891	9.66
660.08	9.52
660.269	9.45
660.458	9.35
660.648	9.25
660.837	9.03
661.026	8.99
661.215	8.81
661.404	8.59
661.593	8.53
661.782	8.4
661.971	8.23
662.16	8.09
662.349	8.11
662.538	7.93
662.726	7.94
662.915	7.76
663.104	7.56
663.293	7.41
663.482	7.43
663.671	7.24
663.86	7.08
664.048	7.08
664.237	7.01
664.426	6.77
664.615	6.73
664.803	6.72
664.992	6.63
665.181	6.5
665.369	6.39
665.558	6.27
665.747	6.19
665.935	6.25
666.124	6.25
666.312	6.26
666.501	6.17
666.69	6.05
666.878	5.86
667.067	5.74
667.255	5.83
667.444	6.09
667.632	6.19
667.82	6.38
668.009	6.38
668.197	6.22
668.386	6.04
668.574	6.1
668.762	5.88
668.951	5.79
669.139	5.84
669.327	5.7
669.516	5.67
669.704	5.61
669.892	5.71
670.08	5.64
670.269	5.66
670.457	5.48
670.645	5.35
670.833	5.45
671.021	5.41
671.21	5.38
671.398	5.71
671.586	5.8
671.774	5.65
671.962	5.76
672.15	5.84
672.338	5.57
672.526	5.74
672.714	5.66
672.902	5.73
673.09	5.88
673.278	6.17
673.466	6.15
673.654	6.39
673.842	6.31
674.03	6.25
674.218	6.03
674.405	6.06
674.593	5.92
674.781	6.07
674.969	6.11
675.157	6.32
675.344	6.34
675.532	6.53
675.72	6.64
675.908	6.77
676.095	6.68
676.283	6.79
676.471	7.05
676.658	7.03
676.846	7.06
677.033	7.14
677.221	7.18
677.409	6.94
677.596	7.07
677.784	7.16
677.971	7.32
678.159	7.42
678.346	7.52
678.534	7.57
678.721	7.66
678.909	7.61
679.096	7.63
679.283	7.87
679.471	8.04
679.658	8.12
679.846	8.28
680.033	8.6
680.22	8.67
680.408	8.62
680.595	8.73
680.782	8.71
680.969	8.69
681.157	8.66
681.344	8.81
681.531	8.83
681.718	8.97
681.905	9.12
682.093	9.32
682.28	9.54
682.467	9.86
682.654	9.97
682.841	10.03
683.028	10.28
683.215	10.38
683.402	10.34
683.589	10.73
683.776	11
683.963	10.96
684.15	11.28
684.337	11.53
684.524	11.53
684.711	11.85
684.898	12.01
685.085	12.1
685.271	12.48
685.458	12.79
685.645	12.86
685.832	13.4
686.019	13.83
686.205	14.09
686.392	14.51
686.579	14.93
686.766	15.26
686.952	15.56
687.139	15.96
687.326	16.16
687.512	16.59
687.699	16.88
687.886	17.16
688.072	17.42
688.259	17.98
688.445	18.43
688.632	18.7
688.818	19.46
689.005	19.89
689.191	20.26
689.378	20.8
689.564	21.68
689.751	21.98
689.937	22.55
690.124	23.03
690.31	23.35
690.496	23.83
690.683	24.3
690.869	24.92
691.055	25.71
691.242	26.6
691.428	27.09
691.614	27.84
691.8	28.48
691.987	29.11
692.173	29.66
692.359	30.48
692.545	31.19
692.731	31.72
692.918	32.36
693.104	33.03
693.29	33.55
693.476	34.32
693.662	35.11
693.848	35.65
694.034	36.11
694.22	36.61
694.406	37.15
694.592	37.75
694.778	38.51
694.964	39.09
695.15	39.78
695.336	40.31
695.522	41.2
695.708	41.89
695.894	42.73
696.08	43.53
696.265	44.25
696.451	44.84
696.637	45.74
696.823	46.37
697.009	47.08
697.194	47.69
697.38	48.12
697.566	48.26
697.751	48.72
697.937	49.31
698.123	49.96
698.308	50.81
698.494	51.68
698.68	52.12
698.865	52.5
699.051	53.07
699.236	53.26
699.422	53.69
699.607	54.34
699.793	54.93
699.978	55.47
700.164	55.94
700.349	56.56
700.535	57.01
700.72	57.3
700.906	57.72
701.091	58.13
701.276	58.27
701.462	59.17
701.647	60.01
701.832	60.38
702.018	60.93
702.203	61.44
702.388	61.38
702.573	61.66
702.759	62.46
702.944	62.63
703.129	62.72
703.314	63.22
703.499	63.41
703.684	63.42
703.87	64.54
704.055	65.49
704.24	66.1
704.425	66.64
704.61	66.99
704.795	66.61
704.98	66.64
705.165	66.7
705.35	67.05
705.535	67.49
705.72	68
705.905	68.52
706.09	68.9
706.275	69.18
706.459	69.06
706.644	69.41
706.829	69.49
707.014	69.49
707.199	69.78
707.384	70.39
707.568	70.7
707.753	71.08
707.938	71.38
708.123	71.45
708.307	71.61
708.492	71.6
708.677	71.64
708.861	71.56
709.046	71.41
709.231	71.74
709.415	72.32
709.6	72.45
709.784	72.5
709.969	72.9
710.153	72.45
710.338	72.32
710.522	72.92
710.707	73.65
710.891	73.73
711.076	74.33
711.26	73.97
711.445	73.71
711.629	73.77
711.813	74.14
711.998	74.39
712.182	75.02
712.366	75.66
712.551	76.28
712.735	76.37
712.919	76.11
713.103	76.42
713.288	75.94
713.472	75.42
713.656	76.04
713.84	76.12
714.024	76.43
714.208	76.59
714.393	77.22
714.577	76.97
714.761	77.56
714.945	77.23
715.129	77.36
715.313	77.36
715.497	77.19
715.681	77.62
715.865	77.65
716.049	77.64
716.233	77.63
716.417	77.92
716.601	77.18
716.785	77.26
716.968	77.55
717.152	77.23
717.336	77.25
717.52	77.63
717.704	77.68
717.888	78.13
718.071	78.71
718.255	78.85
718.439	78.93
718.622	79.11
718.806	79.19
718.99	78.96
719.174	79.05
719.357	79.48
719.541	79.76
719.724	79.41
719.908	80.24
720.092	80.32
720.275	79.84
720.459	80.01
720.642	79.81
720.826	78.9
721.009	78.45
721.193	78.07
721.376	78.26
721.559	78.74
721.743	79.13
721.926	79.6
722.11	80.37
722.293	79.74
722.476	79.54
722.66	79.71
722.843	79.42
723.026	79
723.21	79.36
723.393	80.12
723.576	80.39
723.759	80.54
723.942	81.06
724.126	80.66
724.309	80.31
724.492	80.07
724.675	80.23
724.858	80.33
725.041	81.24
725.224	81.41
725.407	81.63
725.59	81.99
725.774	81.79
725.957	80.97
726.14	80.65
726.322	80.65
726.505	80.39
726.688	81.15
726.871	81.56
727.054	81.82
727.237	81.84
727.42	82.52
727.603	81.93
727.786	81.98
727.968	82.09
728.151	82.04
728.334	81.91
728.517	82.21
728.699	82.76
728.882	82.49
729.065	83.04
729.248	83.61
729.43	84.03
729.613	84.24
729.796	84.7
729.978	83.87
730.161	83.27
730.343	82.25
730.526	82.44
730.708	82.04
730.891	82.96
731.073	82.55
731.256	82.82
731.438	82.85
731.621	83.76
731.803	83.6
731.986	83.6
732.168	83.29
732.35	83.13
732.533	82.66
732.715	82.39
732.898	83.51
733.08	84.47
733.262	84.99
733.444	84.52
733.627	84.43
733.809	84.55
733.991	85.67
734.173	85.12
734.355	85.88
734.538	87.25
734.72	86.59
734.902	86.11
735.084	86.36
735.266	86.15
735.448	85.93
735.63	86.29
735.812	85.87
735.994	86.84
736.176	87.1
736.358	87.04
736.54	87.91
736.722	87.21
736.904	86.26
737.086	86.34
737.268	86.66
737.45	86.33
737.632	86.49
737.814	85.79
737.995	86.34
738.177	86.09
738.359	84.91
738.541	85.5
738.723	86.24
738.904	86.36
739.086	86.21
739.268	86.8
739.449	87.63
739.631	87.7
739.813	87.26
739.994	87.39
740.176	88.35
740.358	87.21
740.539	87.94
740.721	88.53
740.902	89.77
741.084	88.8
741.265	88.92
741.447	89.05
741.628	88.82
741.81	87.04
741.991	87.82
742.172	89.37
742.354	88.95
742.535	88.84
742.717	89.48
742.898	89.65
743.079	89.48
743.261	88.94
743.442	88.14
743.623	88.32
743.804	88.14
743.986	87.83
744.167	87.54
744.348	88.18
744.529	88.42
744.71	86.81
744.891	86.77
745.073	86.78
745.254	86.41
745.435	85.85
745.616	86.1
745.797	85.13
745.978	84.52
746.159	85.02
746.34	84.4
746.521	86.94
746.702	86.44
746.883	86.97
747.064	86.4
747.245	87.31
747.426	85.85
747.606	86.56
747.787	87.68
747.968	88.16
748.149	88.56
748.33	89.06
748.51	89.04
748.691	87.92
748.872	88.52
749.053	88.14
749.233	86.86
749.414	86.42
749.595	85.98
749.775	83.71
749.956	83.45
750.137	84.16
750.317	85.27
750.498	86.75
750.678	88.13
750.859	89.03
751.04	89.35
751.22	88.24
751.4	87.25
751.581	86.43
751.761	85.69
751.942	85.46
752.122	85.75
752.303	85.66
752.483	87.03
752.663	85.94
752.844	84.66
753.024	86.64
753.204	87.49
753.385	85.5
753.565	85.53
753.745	86.41
753.925	83.81
754.106	82.27
754.286	83.45
754.466	83.36
754.646	84.49
754.826	85.11
755.006	84.27
755.187	85.17
755.367	86.04
755.547	85.58
755.727	86.8
755.907	88.18
756.087	88.09
756.267	87.47
756.447	86.72
756.627	83.6
756.807	85.33
756.987	83.19
757.167	84
757.346	84.05
757.526	83.9
757.706	82.41
757.886	84.51
758.066	85.06
758.246	87.29
758.425	88.51
758.605	89.03
758.785	88.93
758.965	87.22
759.144	83.36
759.324	84.26
759.504	83.1
759.683	82.89
759.863	82.48
760.043	81.98
760.222	81.05
760.402	80.92
760.581	79.42
760.761	81.88
760.94	83.18
761.12	85.4
761.299	85.76
761.479	86.63
761.658	83.71
761.838	83.15
762.017	82.15
762.197	84.08
762.376	83.49
762.555	86.18
762.735	87.52
762.914	85.94
763.093	85.09
763.273	84.14
763.452	82.48
763.631	81.96
763.81	81.92
763.99	80.6
764.169	83.37
764.348	81.39
764.527	80.55
764.706	82.14
764.885	85.4
765.064	82.2
765.243	84.86
765.423	85.95
765.602	85.46
765.781	80.83
765.96	80.5
766.139	79.39
766.318	79.96
766.497	79.03
766.676	80.53
766.854	82.65
767.033	84.33
767.212	81.99
767.391	81.96
767.57	82.77
767.749	83.6
767.928	82.79
768.106	82.27
768.285	80.9
768.464	79.78
768.643	78.1
768.821	77.46
769	80.26
769.179	82.1
769.357	81.21
769.536	81.57
769.715	81.22
769.893	81.34
770.072	80.81
770.25	82.27
770.429	82.27
770.607	81.53
770.786	80
770.964	80.96
771.143	80.11
771.321	81.7
771.5	84.91
771.678	83.36
771.857	81.16
772.035	82.61
772.213	80.56
772.392	76.92
772.57	79.82
772.748	80.86
772.927	78.92
773.105	79.2
773.283	80.55
773.461	80.61
773.64	80.94
773.818	81.53
773.996	81.27
774.174	80.02
774.352	77.55
774.531	75.92
774.709	77.45
774.887	78.34
775.065	78.14
775.243	79.43
775.421	80.87
775.599	80.95
775.777	77.84
775.955	75.6
776.133	74.61
776.311	72.77
776.489	69.54
776.667	71.49
776.844	76.13
777.022	75
777.2	75.4
777.378	76.08
777.556	76.58
777.734	77.7
777.911	80.96
778.089	80.82
778.267	82.37
778.445	80.09
778.622	76.28
778.8	73.39
778.978	77.12
779.155	76.12
779.333	78.52
779.511	77.95
779.688	80.94
779.866	74.54
780.043	70.48
780.221	70
780.398	69.84
780.576	69.66
780.753	74.15
780.931	75.52
781.108	73.85
781.286	76.69
781.463	72.69
781.64	66.75
781.818	70.97
781.995	72.09
782.172	69.79
782.35	71.63
782.527	76.92
782.704	73.55
782.882	75.23
783.059	75.86
783.236	79.33
783.413	79.73
783.59	80.54
783.768	76.06
783.945	76.85
784.122	75.02
784.299	74.86
784.476	75.65
784.653	76.13
784.83	72.28
785.007	67.03
785.184	65.65
785.361	63.65
785.538	70.3
785.715	78.87
785.892	82.58
786.069	84.97
786.246	87.02
786.423	85.35
786.6	79.77
786.776	80.42
786.953	79.98
787.13	81.13
787.307	77.86
787.484	78.23
787.66	75.5
787.837	72.74
788.014	69.61
788.191	66.12
788.367	66.22
788.544	71.48
788.721	70.71
788.897	74.03
789.074	77.87
789.25	75.36
789.427	74.89
789.603	77.03
789.78	76.62
789.956	75.9
790.133	71.69
790.309	69.43
790.486	72.91
790.662	72.14
790.839	72.44
791.015	76.52
791.192	73
791.368	73.37
791.544	68.17
791.721	67.88
791.897	68.06
792.073	67.68
792.249	60.79
792.426	67.39
792.602	71.51
792.778	72.54
792.954	71.25
793.13	72.91
793.307	65.76
793.483	53.63
793.659	53.75
793.835	60.36
794.011	61.83
794.187	62.7
794.363	69.48
794.539	70.68
794.715	59.55
794.891	58.86
795.067	61.56
795.243	62.8
795.419	62.05
795.595	64.47
795.771	64.2
795.947	64.68
796.122	62.41
796.298	66.04
796.474	68.63
796.65	67.39
796.826	63.31
797.001	65.7
797.177	59.55
797.353	66.2
797.529	65
797.704	67.01
797.88	63.74
798.056	62.25
798.231	60.49
798.407	64.89
798.582	67.35
798.758	74.97
798.934	82.16
799.109	75.95
799.285	71.22
799.46	72.4
799.636	72.12
799.811	70.4
799.986	76.06
800.162	83.2
800.337	86.26
800.513	78.54
800.688	78.41
800.863	87.63
801.039	77.64
801.214	71.53
801.389	77.99
801.565	69.12
801.74	50.28
801.915	62.9
802.09	66.06
802.265	67.13
802.441	73.26
802.616	80.6
802.791	74.58
802.966	69.58
803.141	70.58
803.316	66.35
803.491	66.3
803.666	65.34
803.841	60.98
804.016	53.49
804.191	54.59
804.366	47.49
804.541	49.3
804.716	54.33
804.891	49.2
805.066	53.39
805.241	55.34
805.416	52.84
805.591	44.24
805.765	50.56
805.94	45.79
806.115	48.32
806.29	44.69
806.464	56.58
806.639	54.87
806.814	57.97
806.989	49.46
807.163	61.79
807.338	58.11
807.512	56.8
807.687	38.45
807.862	57.65
808.036	62.01
808.211	66.87
808.385	70.99
808.56	91.88
808.734	90.6
808.909	77.34
809.083	69.56
809.258	77.85
809.432	67.72
809.606	50.69
809.781	50.39
809.955	56.42
810.13	52.68
810.304	52.53
810.478	58.42
810.652	63.96
810.827	62.09
811.001	53.86
811.175	54.56
811.349	57.87
811.524	53.49
811.698	44.48
811.872	50.6
812.046	57.81
812.22	59.26
812.394	54.65
812.568	65.06
812.742	67.4
812.916	63.79
813.09	55.36
813.264	56.1
813.438	60.17
813.612	55.55
813.786	49.99
813.96	63.18
814.134	62.75
814.308	69.89
814.482	76.45
814.656	73.56
814.83	72.08
815.003	77.68
815.177	67.41
815.351	50.03
815.525	52.38
815.698	41.98
815.872	32.35
816.046	16.15
816.219	25.79
816.393	43.25
816.567	46.82
816.74	56.42
816.914	63.38
817.088	77.3
817.261	62.99
817.435	60.81
817.608	64.78
817.782	56.54
817.955	42.46
818.129	39.01
818.302	46.29
818.475	53.63
818.649	69.05
818.822	58.94
818.996	89.07
819.169	90.2
819.342	68.45
819.516	69.43
819.689	83.13
819.862	56.52
820.035	47.33
820.209	53.23
820.382	49.46
820.555	54.33
820.728	47.29
820.901	51.69
821.075	46.16
821.248	58.68
821.421	42.32
821.594	48.93
821.767	81.23
821.94	99.89
822.113	73.34
822.286	67.54
822.459	69.51
822.632	38.95
822.805	12.82
822.978	7.82
823.151	13.74
823.324	11.11
823.496	-3.58
823.669	-3.16
823.842	1
824.015	-1.28
824.188	-10.3
824.361	10.71
824.533	5.89
824.706	25.33
824.879	27.14
825.051	47.04
825.224	34.23
825.397	38.66
825.569	22.38
825.742	37.33
825.915	32.96
826.087	51.86
826.26	40.21
826.432	40.32
826.605	39.22
826.777	30.2
826.95	18.47
827.122	15.11
827.295	24.23
827.467	22.7
827.64	-14.52
827.812	-11.46
827.984	-9.56
828.157	-25.22
828.329	-56.31
828.501	-15.73
828.674	15.12
828.846	8.67
829.018	41.35
829.19	18.29
829.363	50.53
829.535	50.75
829.707	71.7
829.879	31.43
830.051	49.24
830.223	20.88
830.395	-19.94
830.568	-41.4
830.74	-48.35
830.912	-12.99
831.084	-42.85
831.256	-20.52
831.428	-20.06
831.6	-15.64
831.772	-51.05
831.943	-45.12
832.115	-12.17
832.287	15.63
832.459	37.62
832.631	44.31
832.803	87.51
832.975	113.52
833.146	91.56
833.318	75.61
833.49	99.8
833.662	62.15
833.833	19.67
834.005	24.03
834.177	41.86
834.348	19.73
834.52	5.74
834.692	-0.57
834.863	-9.28
835.035	-33.17
835.206	-80.04
835.378	-50.39
835.549	-30.68
835.721	-31.46
835.892	-26.2
836.064	-16.1
836.235	-22.99
836.407	-16.43
836.578	-24.32
836.749	5.1
836.921	-23.44
837.092	-39.49
837.264	-42.46
837.435	-53.72
837.606	-32.09
837.777	14.02
837.949	33.11
838.12	33.22
838.291	51.78
838.462	50.32
838.633	25.84
838.805	29.05
838.976	37.93
839.147	-34.21
839.318	-40.4
839.489	-80.31
839.66	-85.15
839.831	-33.25
840.002	9.03
840.173	-6.24
840.344	61.48
840.515	64.78
840.686	-78.58
840.857	-111.92
841.028	-105.98
841.199	-102.63
841.369	-98.59
841.54	-68.1
841.711	-24.22
841.882	-3.61
842.053	-17.95
842.223	-19.41
842.394	5.57
842.565	19.38
842.736	25.1
842.906	27.95
843.077	31.33
843.248	52.72
843.418	38.02
843.589	-17.29
843.759	74.86
843.93	93.23
844.101	14.56
844.271	7.47
844.442	49.98
844.612	42.77
844.783	23.1
844.953	17.83
845.123	53.43
845.294	31.09
845.464	-103.21
845.635	0.51
845.805	29.97
845.975	10.81
846.146	-35.74
846.316	-24.69
846.486	-3.82
846.656	37.3
846.827	24.84
846.997	32.53
847.167	54.1
847.337	23.6
847.507	-36.12
847.677	-5.37
847.848	49.7
848.018	42.94
848.188	47.8
848.358	38.39
848.528	14.69
848.698	-36.05
848.868	-113.48
849.038	-196.17
849.208	-38.99
849.378	49.2
849.548	42.34
849.718	44.59
849.887	71.74
850.057	34.74
850.227	-16.57
850.397	-29.19
850.567	-109.18
850.737	-321.2
850.906	-1069.69
851.076	-849.02
851.246	-438.61
851.415	-91.81
851.585	-57.06
851.755	-81.04
851.924	-16.66
852.094	-49.32
852.264	-93.75
852.433	-1042.07
852.603	-207.36
852.772	-275.68
852.942	-130.94
853.111	-97.21
853.281	-23.98
853.45	14.11
853.62	-15.38
853.789	-22.58
853.959	2.72
854.128	-46.64
854.297	-85.59
854.467	-116.98
854.636	-127.29
854.805	-71.86
854.975	-81.73
855.144	-121.85
855.313	85.49
855.482	-160.4
855.652	-96.39
855.821	-100.51
855.99	18.15
856.159	25.02
856.328	28.57
856.497	12.93
856.667	12.21
856.836	0.78
857.005	-29.38
857.174	-54.1
857.343	-58.09
857.512	9.12
857.681	-32.27
857.85	-92.36
858.019	-49.12
858.188	-54.38
858.356	-80.89
858.525	-162.47
858.694	-108.62
858.863	-163.62
859.032	-88.37
859.201	-98.18
859.369	41.9
859.538	10.05
859.707	-45.35
859.876	-63.99
860.044	-51.35
860.213	11.09
860.382	22.71
860.55	51.08
860.719	77.3
860.888	78.11
861.056	53.91
861.225	15.05
861.393	34.81
861.562	39.6
861.73	-82.18
861.899	-319.24
862.067	-2557.76
862.236	-110.37
862.404	-373.7
862.572	-198.15
862.741	-66
862.909	-43.9
863.078	-154.24
863.246	-90.77
863.414	-41.62
863.582	-5.24
863.751	-21.29
863.919	-26.41
864.087	31.44
864.255	2.64
864.424	-318.23
864.592	-30.51
864.76	-49.29
864.928	-130.2
865.096	-148.33
865.264	-88.34
865.432	-1603.98
865.6	-105.37
865.768	-126.31
865.936	-114.38
866.104	-125.11
866.272	-147.42
866.44	-406.59
866.608	660.73
866.776	315.74
866.944	2478.49
867.112	-454.13
867.28	-172.83
867.448	-25.22
867.615	38.16
867.783	38.43
867.951	8.57
868.119	45.09
868.286	2.67
868.454	-112.31
868.622	-76.07
868.789	-30.73
868.957	-1376.79
869.125	-1873.03
869.292	-108.54
869.46	-255.23
869.627	-46.93
869.795	-25.03
869.963	14.31
870.13	19.55
870.298	43.4
870.465	-24.62
870.632	-64.32
870.8	-28.11
870.967	-99.81
871.135	-168.49
871.302	-132.31
871.469	-158.13
871.637	-265.04
871.804	-103.71
871.971	-132.36
872.139	-478.95
872.306	-47.99
872.473	-68.82
872.64	-346.67
872.807	-69.4
872.975	47.45
873.142	-205.36
873.309	2004.73
873.476	74.86
873.643	76.93
873.81	18.03
873.977	82.03
874.144	86.64
874.311	-66.53
874.478	-113.01
874.645	-112.24
874.812	-44.67
874.979	-3.56
875.146	-19.49
875.313	-55.28
875.48	18
875.647	-17.95
875.813	-67.57
875.98	-32.53
876.147	-42.58
876.314	-87.74
876.481	784.09
876.647	-873.88
876.814	362.56
876.981	71.25
877.147	-28.01
877.314	15.84
877.481	18.18
877.647	29.93
877.814	-6.56
877.98	-21.38
878.147	24.62
878.314	88.64
878.48	45.05
878.647	42.4
878.813	56.9
878.979	43.62
879.146	-4.87
879.312	-3.7
879.479	-52.95
879.645	-123.35
879.811	-311.59
879.978	-758.59
880.144	-242.06
880.31	-132.57
880.477	-406
880.643	-465.05
880.809	-220.24
880.975	-91.07
881.142	-698.86
881.308	-67.53
881.474	-17.06
881.64	-29.85
881.806	-122.68
881.972	-26.97
882.138	-13.7
882.304	21.4
882.47	-125.93
882.636	-573.57
882.802	-212.34
882.968	-41.58
883.134	-41.63
883.3	-35.48
883.466	-1.18
883.632	54.14
883.798	15.89
883.964	1.84
884.129	10.45
884.295	55.77
884.461	-51.29
884.627	-42.84
884.793	-75.44
884.958	-29.07
885.124	-170.44
885.29	-240.52
885.455	-397.94
885.621	-27.51
885.787	-128.21
885.952	-27.3
886.118	-37.64
886.283	-60.21
886.449	-184.7
886.614	-148.53
886.78	-318.75
886.945	940.57
887.111	-572.69
887.276	-494.74
887.442	-925.23
887.607	-381.01
887.773	-362.34
887.938	-289.23
888.103	-332.74
888.269	-274.92
888.434	-572.84
888.599	-189.28
888.764	-69.29
888.93	-18.89
889.095	-52.13
889.26	-72.49
889.425	-47.2
889.59	-71.3
889.756	-126.03
889.921	-47.17
890.086	14.85
890.251	-14.18
890.416	-145.71
890.581	-1162.5
890.746	164.2
890.911	256.53
891.076	117.43
891.241	6.16
891.406	115.07
891.571	126.36
891.736	-1.72
891.901	-221.02
892.065	422.8
892.23	144.61
892.395	258.46
892.56	378.25
892.725	-382.62
892.889	-945.73
893.054	-144.09
893.219	-39.89
893.384	-4.58
893.548	-56.22
893.713	-81.98
893.878	-52.22
