Data from Ofra_PS_T2_1A_8CX24_Reflection_3.txt Node
Date: Wed Jul 21 18:14:26 EDT 2021
User: Adam
Spectrometer: FLMT01687
Trigger mode: 0
Integration Time (sec): 1.100000E0
Scans to average: 2
Electric dark correction enabled: true
Nonlinearity correction enabled: false
Boxcar width: 2
XAxis mode: Wavelengths
Number of Pixels in Spectrum: 3648
>>>>>Begin Spectral Data<<<<<
179.494	452.2
179.716	526.35
179.937	499.65
180.158	477.81
180.38	735.16
180.601	250.41
180.823	54.54
181.044	-38.27
181.265	214.15
181.486	85.32
181.708	117.84
181.929	729.08
182.15	-338.38
182.372	123.56
182.593	51.13
182.814	40.75
183.035	69.87
183.257	43.51
183.478	-28.78
183.699	-0.04
183.92	9.98
184.141	-0.03
184.363	-36.17
184.584	10.33
184.805	26.16
185.026	23.29
185.247	32.3
185.468	46.75
185.689	37.16
185.91	15.87
186.132	23.97
186.353	20
186.574	44.92
186.795	51.44
187.016	38.65
187.237	17.08
187.458	4.44
187.679	-23.46
187.9	-15.7
188.121	-15.59
188.342	-16.66
188.563	15.23
188.784	24.82
189.005	48.36
189.226	75.5
189.447	41.65
189.667	-116.63
189.888	-223.28
190.109	-1145.78
190.33	-538.23
190.551	-924.12
190.772	-143.16
190.993	-153.28
191.214	-130.4
191.434	-92.87
191.655	12.85
191.876	-54.4
192.097	-93.4
192.318	-162.96
192.538	-227.05
192.759	-214.33
192.98	-133.04
193.201	-56.17
193.421	-8.32
193.642	4.6
193.863	16.78
194.083	5.45
194.304	-13.62
194.525	-31.54
194.745	-60.48
194.966	-87.8
195.187	-77.08
195.407	-93.62
195.628	-150.7
195.848	-141.63
196.069	-101.46
196.29	-33.41
196.51	-60.09
196.731	-35.5
196.951	-39.49
197.172	-51.01
197.392	-67.63
197.613	-46.88
197.833	-91.72
198.054	-67.45
198.274	-51.5
198.495	-89.36
198.715	-31.85
198.936	-6.09
199.156	3.18
199.377	-42.51
199.597	-46.52
199.817	-75.63
200.038	-39.09
200.258	-106.13
200.479	-64.78
200.699	-42.98
200.919	-6.6
201.14	-50.61
201.36	-64.93
201.58	15.33
201.801	41.53
202.021	-0.4
202.241	1.59
202.461	2.88
202.682	-93.76
202.902	-165.59
203.122	-81.62
203.342	-67.66
203.563	-8.32
203.783	20.94
204.003	-10.01
204.223	-19.22
204.443	38.9
204.663	-7.85
204.884	8.85
205.104	67.93
205.324	94.39
205.544	85.19
205.764	76.53
205.984	68.38
206.204	59.07
206.424	35.54
206.644	15.77
206.864	27.71
207.084	-20.51
207.304	-47.12
207.525	-124.77
207.745	-100.23
207.964	-60.11
208.184	-98.57
208.404	-117.05
208.624	-113.33
208.844	-106.83
209.064	-349.83
209.284	-324.16
209.504	-198.17
209.724	-77.06
209.944	-93.14
210.164	-49.39
210.384	-28.06
210.604	-40.78
210.823	-66.4
211.043	-37.01
211.263	-33.16
211.483	-27.84
211.703	-68.28
211.922	-46.77
212.142	8.82
212.362	28.62
212.582	18.48
212.801	34.38
213.021	5.11
213.241	-2.69
213.461	-33.38
213.68	-53.07
213.9	-24.09
214.12	-23.95
214.339	-105.91
214.559	-82.09
214.779	-16.92
214.998	-30.76
215.218	-41.01
215.438	15.53
215.657	5.8
215.877	-28.82
216.096	5.93
216.316	1.49
216.535	-17.6
216.755	-25.04
216.974	-100.62
217.194	-166.65
217.413	-139.21
217.633	-157.16
217.852	-236.13
218.072	-99.53
218.291	-36.87
218.511	-15.14
218.73	-29.98
218.95	-27.37
219.169	-33.36
219.389	-80.11
219.608	-55.29
219.827	-40.98
220.047	-19.46
220.266	-6.04
220.485	-2.58
220.705	10.49
220.924	-13.56
221.143	15.73
221.363	-4.19
221.582	9.17
221.801	8.13
222.021	23.38
222.24	-61.63
222.459	-36.19
222.678	-40.36
222.897	-123.93
223.117	-139.57
223.336	-101.62
223.555	-69.65
223.774	-56.68
223.993	5.13
224.213	43.48
224.432	31.83
224.651	57.5
224.87	39.03
225.089	33.34
225.308	18.56
225.527	31.5
225.746	15.49
225.965	6.23
226.184	-2.96
226.404	12.34
226.623	-12.07
226.842	-11.85
227.061	12.21
227.28	11.67
227.499	4.84
227.718	22.57
227.936	23.79
228.155	33
228.374	19.65
228.593	15.05
228.812	-9.18
229.031	-24.25
229.25	-82.02
229.469	-100.38
229.688	-92.91
229.907	-38.86
230.125	-17.77
230.344	0.39
230.563	31.98
230.782	49.47
231.001	0.76
231.22	-21.95
231.438	8.65
231.657	-4.72
231.876	-34.29
232.095	10.46
232.313	20.6
232.532	-0.02
232.751	-23.27
232.969	-38.46
233.188	-98.21
233.407	-31.42
233.625	-11.11
233.844	-8.74
234.063	0.69
234.281	16.97
234.5	4.42
234.719	-0.77
234.937	12.77
235.156	13.67
235.374	17.25
235.593	14.75
235.811	9.63
236.03	-13.06
236.249	-52.99
236.467	-50.22
236.686	-16.66
236.904	-0.57
237.123	-26.71
237.341	-13.64
237.559	-6.42
237.778	-21.32
237.996	-39.01
238.215	7.62
238.433	3.07
238.652	-8.37
238.87	-34.35
239.088	-20.5
239.307	-27.59
239.525	-24.52
239.743	-56.89
239.962	-50.97
240.18	-84.03
240.398	-128.55
240.617	-127.71
240.835	-109.46
241.053	-62.08
241.271	-22.34
241.49	13.91
241.708	5.26
241.926	8.06
242.144	-1.53
242.363	-38.74
242.581	-64.59
242.799	-30.05
243.017	-5.43
243.235	-25.87
243.453	-11.81
243.672	-12.85
243.89	-15.42
244.108	-26.11
244.326	-12.12
244.544	-10.47
244.762	-10.2
244.98	-11.56
245.198	-3.34
245.416	-18.68
245.634	-36.08
245.852	-46.34
246.07	-52.46
246.288	-76.56
246.506	-85.43
246.724	-38.92
246.942	-13.13
247.16	9.48
247.378	14.88
247.596	22.71
247.814	11.22
248.032	-23.53
248.25	-36.98
248.468	-23.91
248.685	-23.21
248.903	4.22
249.121	7.26
249.339	-16.32
249.557	-9.19
249.775	3.08
249.992	-77.61
250.21	-72.47
250.428	-43.24
250.646	-78.51
250.863	-103.26
251.081	-48.1
251.299	-41.05
251.517	-43.04
251.734	-21.32
251.952	-15.59
252.17	-18.02
252.387	-6.23
252.605	-17.39
252.823	-21.13
253.04	-9
253.258	-1.17
253.475	-8.25
253.693	27.33
253.911	26.82
254.128	10.65
254.346	19.58
254.563	2.92
254.781	-30.87
254.998	-34.03
255.216	-28.06
255.433	-35.12
255.651	-2.54
255.868	30.09
256.086	51.63
256.303	43.23
256.521	34.92
256.738	2.18
256.956	-20.03
257.173	-61.53
257.39	-65.37
257.608	-85.37
257.825	4.3
258.043	33.82
258.26	46.82
258.477	63.56
258.695	64.94
258.912	-16.62
259.129	-16.33
259.346	-66.33
259.564	-91.07
259.781	-119.74
259.998	-45.08
260.216	-29.17
260.433	41.33
260.65	30.02
260.867	37.38
261.084	16.98
261.302	-0.02
261.519	-35.5
261.736	-36.72
261.953	-47.62
262.17	-11.06
262.387	-31.25
262.604	-54.85
262.822	-78.81
263.039	-52.64
263.256	-96.35
263.473	-50.63
263.69	-33.03
263.907	12.03
264.124	-0.01
264.341	-13.9
264.558	-25.14
264.775	-8.69
264.992	-19.75
265.209	-5.93
265.426	25.52
265.643	31.47
265.86	24.54
266.077	4.37
266.294	-7.68
266.51	-49.54
266.727	-68.67
266.944	-52.92
267.161	-42.4
267.378	-34.77
267.595	-8.24
267.812	-18.98
268.028	-45.96
268.245	-22
268.462	-41.73
268.679	-47.7
268.896	19.34
269.112	16.58
269.329	4.01
269.546	18.88
269.763	7.78
269.979	-27.34
270.196	-16.04
270.413	-27.79
270.629	-50.69
270.846	-42.87
271.063	-30.78
271.279	-52.99
271.496	-48.98
271.712	-23.09
271.929	-16.7
272.146	-33.83
272.362	-10.39
272.579	4.47
272.795	9.92
273.012	17.96
273.228	23.98
273.445	9.16
273.661	-4.1
273.878	-48.96
274.094	-47.83
274.311	-85.99
274.527	-7.73
274.744	-9.91
274.96	-1.41
275.177	7.25
275.393	21.74
275.609	-0.39
275.826	22.22
276.042	18.49
276.259	-1.78
276.475	10.86
276.691	7.63
276.908	-3.61
277.124	17.04
277.34	12.19
277.557	-0.78
277.773	-14.24
277.989	-26.84
278.205	-27.33
278.422	-7.78
278.638	6.39
278.854	34.59
279.07	46.8
279.286	25.15
279.503	8.45
279.719	6.12
279.935	-15.33
280.151	-27.18
280.367	3.75
280.583	-17.41
280.799	-29.16
281.016	-70.73
281.232	-28.35
281.448	-37.35
281.664	-8.78
281.88	-31.92
282.096	-3.7
282.312	4.5
282.528	17.48
282.744	25.52
282.96	14.75
283.176	9.2
283.392	-3.48
283.608	-5.1
283.824	-11.22
284.04	3.68
284.256	13.86
284.471	5.63
284.687	-1.45
284.903	14.58
285.119	43.67
285.335	34.28
285.551	53
285.767	29.9
285.982	16.39
286.198	-12.44
286.414	19.79
286.63	21.13
286.846	27.87
287.061	5.57
287.277	32.79
287.493	10.09
287.709	21.29
287.924	16.86
288.14	60.25
288.356	32.63
288.571	43.05
288.787	25.81
289.003	32.44
289.218	10.05
289.434	-12.11
289.65	-4.36
289.865	-14.08
290.081	-1.85
290.296	8.79
290.512	11.76
290.727	-21.67
290.943	-22.65
291.159	-24.95
291.374	-25.46
291.59	-39.6
291.805	-24.95
292.021	-14.69
292.236	-24.94
292.451	-11.68
292.667	2.68
292.882	6.2
293.098	-1.14
293.313	-20.22
293.529	-52.51
293.744	-63.45
293.959	-62.32
294.175	-46.28
294.39	-1.16
294.605	17.79
294.821	42.22
295.036	46.45
295.251	51.92
295.467	16.86
295.682	0.91
295.897	-40.72
296.112	-39.03
296.328	-52.44
296.543	-60.07
296.758	-47.6
296.973	-17.61
297.188	23.78
297.404	13.83
297.619	10.78
297.834	0.71
298.049	-11.51
298.264	-58.62
298.479	-8.59
298.694	10.51
298.909	23.83
299.125	35.17
299.34	47.28
299.555	13.83
299.77	11.98
299.985	-30.87
300.2	-92.57
300.415	-111.07
300.63	-77.57
300.845	-75.46
301.06	-80.22
301.275	-48.52
301.49	-23.39
301.704	-35.53
301.919	-49.44
302.134	-38.66
302.349	-31.95
302.564	-92.29
302.779	-103.82
302.994	-127.47
303.209	-103.48
303.423	-80.81
303.638	-4.52
303.853	-29.71
304.068	-16.69
304.283	-21.35
304.497	-26.08
304.712	-33.76
304.927	-7
305.142	-26.02
305.356	-18.91
305.571	-14.75
305.786	-24.11
306	-51.79
306.215	-24.43
306.43	-29.08
306.644	-21.64
306.859	-8.93
307.074	9.37
307.288	-3.77
307.503	-14.57
307.717	-26.98
307.932	-22.9
308.147	-32.96
308.361	-28.37
308.576	-36.5
308.79	-80.28
309.005	-82.04
309.219	-68.58
309.434	-74.07
309.648	-55.2
309.863	-21.57
310.077	-4.24
310.292	3.59
310.506	5
310.72	18.18
310.935	21.83
311.149	16.3
311.364	24.07
311.578	32.58
311.792	21.39
312.007	15.37
312.221	-0.4
312.435	-5.14
312.649	-19.45
312.864	-14.41
313.078	7.21
313.292	67.35
313.507	45.68
313.721	57.36
313.935	24.63
314.149	19.54
314.363	-3.46
314.578	-1.58
314.792	7.91
315.006	-0.44
315.22	10.38
315.434	14.34
315.648	22.29
315.862	12.46
316.077	12.01
316.291	-22.28
316.505	-15.53
316.719	-39.36
316.933	-52.15
317.147	-46.53
317.361	-61.59
317.575	-89.48
317.789	-114.42
318.003	-137.23
318.217	-90.52
318.431	-33.8
318.645	5.03
318.859	9.73
319.073	38.78
319.287	16.32
319.5	-1.3
319.714	-39.75
319.928	-62.48
320.142	-119.48
320.356	-57.94
320.57	-16.14
320.784	-18.68
320.997	2.36
321.211	7.58
321.425	-64.4
321.639	-92.49
321.853	-28.85
322.066	-24.33
322.28	-24.78
322.494	-16.66
322.707	-3.02
322.921	-32.49
323.135	-32.89
323.349	-16.8
323.562	-18.19
323.776	-25.63
323.989	-30.72
324.203	-55.89
324.417	-69.23
324.63	-94.45
324.844	-96.88
325.057	-84.6
325.271	-49.08
325.485	-28.68
325.698	-7.11
325.912	7.97
326.125	-16.42
326.339	-9.09
326.552	-10.74
326.766	-30.9
326.979	-16.27
327.193	37.54
327.406	16.78
327.619	1.74
327.833	23.22
328.046	-8.66
328.26	-54.78
328.473	-26.34
328.686	-34.31
328.9	-30.24
329.113	11.39
329.326	3.7
329.54	14.87
329.753	0.95
329.966	-24.4
330.179	-39.46
330.393	-13.67
330.606	-15.94
330.819	-2.61
331.032	20.82
331.246	26.27
331.459	56.43
331.672	49.5
331.885	58.6
332.098	34.35
332.311	24.52
332.525	-48.57
332.738	-33.69
332.951	-13.32
333.164	0.69
333.377	4.75
333.59	37.86
333.803	32.14
334.016	7
334.229	9.37
334.442	8.92
334.655	19.23
334.868	20.74
335.081	22.24
335.294	10.34
335.507	5.46
335.72	-18.81
335.933	-23.58
336.146	-26.84
336.359	-8.42
336.572	-39.07
336.785	-58.43
336.997	-57.96
337.21	-27.68
337.423	-44.47
337.636	-36.06
337.849	-6.53
338.062	-15.69
338.274	-8.95
338.487	-11.28
338.7	4.41
338.913	-53.75
339.125	-64.72
339.338	-120.14
339.551	-78.63
339.763	-65.32
339.976	-8.55
340.189	25.95
340.402	35.49
340.614	18.99
340.827	30.99
341.039	0.74
341.252	6.92
341.465	8.61
341.677	-0.36
341.89	-57.92
342.102	-20.69
342.315	-48.46
342.527	-72.95
342.74	-53.32
342.952	5.06
343.165	0.32
343.377	9.6
343.59	3.39
343.802	5.34
344.015	-10.85
344.227	-11.99
344.44	-5.2
344.652	4.66
344.864	-10.58
345.077	11.31
345.289	20.38
345.502	26.66
345.714	27.7
345.926	43.45
346.139	39.38
346.351	41.09
346.563	36.61
346.775	31.67
346.988	13
347.2	-7.92
347.412	-59.19
347.624	-81.67
347.837	-85.22
348.049	-62.3
348.261	-33.24
348.473	-1.13
348.685	13.09
348.897	-7
349.11	-12.18
349.322	-28.38
349.534	-19.53
349.746	-21.92
349.958	-8.69
350.17	-16.24
350.382	8.12
350.594	-11.11
350.806	-13.73
351.018	-19.51
351.23	-33.31
351.442	-74.35
351.654	-71.05
351.866	-67
352.078	-43.15
352.29	-17
352.502	3.16
352.714	24.58
352.926	12.78
353.138	8.32
353.35	-4.03
353.561	-8.34
353.773	-30.22
353.985	-13.95
354.197	-16.35
354.409	-16.24
354.621	-12.84
354.832	-3.83
355.044	-8.47
355.256	-9.67
355.468	5.39
355.679	-12.41
355.891	-8.41
356.103	-31.68
356.314	-15
356.526	-23.76
356.738	-0.38
356.949	-24.51
357.161	-7.3
357.373	-26.11
357.584	-32.42
357.796	-26.4
358.008	-17.28
358.219	3.77
358.431	6.46
358.642	10.12
358.854	9.29
359.065	-5.55
359.277	-36.83
359.488	-46.27
359.7	-70.1
359.911	-85.57
360.123	-60.39
360.334	-64.26
360.546	-71.93
360.757	-68.86
360.969	-40.04
361.18	-33.59
361.391	-20.84
361.603	-30.01
361.814	-14.15
362.025	-18.03
362.237	-30.53
362.448	-4.97
362.659	14.51
362.871	9.05
363.082	-0.58
363.293	-1.28
363.504	-27.71
363.716	-55.82
363.927	-56.25
364.138	-76.1
364.349	-87.39
364.56	-66.87
364.772	-59.07
364.983	-38.39
365.194	-33.56
365.405	-21.68
365.616	-16.33
365.827	-8.27
366.038	-34.93
366.25	-36.46
366.461	-60.06
366.672	-33.82
366.883	-23.83
367.094	-2.21
367.305	-11.99
367.516	-8.11
367.727	-36.96
367.938	-50.19
368.149	-62.19
368.36	-36.98
368.571	-21.71
368.781	-32.05
368.992	-36.61
369.203	-48.21
369.414	-83.95
369.625	-103.48
369.836	-95.34
370.047	-125.14
370.258	-100.4
370.468	-84.13
370.679	-87.19
370.89	-77.17
371.101	-58.29
371.312	-62.56
371.522	-54.47
371.733	-43.04
371.944	-23.31
372.155	-1.35
372.365	-6.74
372.576	-12.76
372.787	-8.79
372.997	-35.27
373.208	-52.65
373.419	-28.19
373.629	-55.19
373.84	-70.08
374.05	-81.59
374.261	-70.66
374.472	-78.4
374.682	-17.9
374.893	-14.51
375.103	11.68
375.314	13.7
375.524	2.46
375.735	7.92
375.945	17.43
376.156	-2.63
376.366	-4.13
376.577	-0.12
376.787	-18.25
376.997	-20.52
377.208	-13.18
377.418	-23.42
377.629	-17.16
377.839	-16.66
378.049	-10.08
378.26	5.21
378.47	14.35
378.68	7.74
378.89	6.42
379.101	-1.37
379.311	-25.32
379.521	-51.18
379.732	-40.57
379.942	-46.59
380.152	-76.96
380.362	-47.66
380.572	-35.36
380.783	-34.01
380.993	-16.17
381.203	7.32
381.413	17.52
381.623	8.97
381.833	16.84
382.043	-3.14
382.253	-12.84
382.463	-20.14
382.674	-24.21
382.884	-49
383.094	-36.05
383.304	-27.42
383.514	-16.49
383.724	-7.04
383.934	-2.79
384.144	-14.31
384.353	-17.85
384.563	-31.79
384.773	-22.21
384.983	-28.02
385.193	-7.37
385.403	-0.54
385.613	7.66
385.823	-7
386.033	1.44
386.242	-9.37
386.452	-13.16
386.662	-21.61
386.872	-2.33
387.082	-7.94
387.291	-8.78
387.501	-8.14
387.711	-1.61
387.921	-15.44
388.13	-15.92
388.34	-5.09
388.55	-12.77
388.759	-12.46
388.969	-4.41
389.179	-6.14
389.388	-11.89
389.598	-3.3
389.807	-8.77
390.017	-15.94
390.227	-9.27
390.436	-7.37
390.646	-5.06
390.855	-1.9
391.065	2
391.274	-0.84
391.484	-3.5
391.693	-2.93
391.903	-0.76
392.112	3.35
392.322	6.12
392.531	8.88
392.74	6.62
392.95	-0.18
393.159	-4.36
393.369	-5.39
393.578	-5.98
393.787	-6.66
393.997	-3.87
394.206	-4.82
394.415	-5.1
394.625	-4.98
394.834	-5.78
395.043	-5.55
395.252	-3.01
395.462	-0.67
395.671	-0.08
395.88	1.32
396.089	2.44
396.298	0.03
396.508	-1.65
396.717	-2.28
396.926	-1.97
397.135	-2.42
397.344	-1.58
397.553	-0.58
397.762	0.61
397.971	0.7
398.181	0.82
398.39	0.51
398.599	-0.01
398.808	-0.13
399.017	0.23
399.226	1.46
399.435	2.66
399.644	2.95
399.853	2.01
400.062	1.59
400.27	0.74
400.479	0.21
400.688	-0.53
400.897	-0.28
401.106	-0.01
401.315	-0
401.524	0.34
401.733	1.17
401.941	1.71
402.15	1.78
402.359	1.69
402.568	1.85
402.777	1.89
402.985	1.55
403.194	1.3
403.403	1.36
403.612	0.9
403.82	0.67
404.029	0.99
404.238	1
404.446	1.33
404.655	1.19
404.864	1.05
405.072	0.7
405.281	0.86
405.489	0.56
405.698	0.74
405.906	0.86
406.115	0.87
406.324	0.85
406.532	0.98
406.741	1.19
406.949	1.32
407.158	1.23
407.366	1.31
407.574	1.23
407.783	1.12
407.991	0.85
408.2	1.03
408.408	0.94
408.617	0.93
408.825	0.83
409.033	1.04
409.242	1.17
409.45	1.22
409.658	1.15
409.867	1.22
410.075	0.97
410.283	0.78
410.491	0.73
410.7	0.63
410.908	0.67
411.116	1.07
411.324	1.12
411.533	1.16
411.741	1.49
411.949	1.4
412.157	1.08
412.365	1.17
412.573	1.15
412.781	1.09
412.99	1.03
413.198	1.31
413.406	1.18
413.614	1.08
413.822	0.9
414.03	0.96
414.238	0.68
414.446	0.83
414.654	0.79
414.862	0.92
415.07	1.02
415.278	1.17
415.486	0.89
415.694	0.99
415.902	0.85
416.109	0.68
416.317	0.65
416.525	0.63
416.733	0.66
416.941	0.9
417.149	0.91
417.357	0.97
417.564	1.18
417.772	1.4
417.98	1.25
418.188	1.32
418.395	1.49
418.603	1.63
418.811	1.16
419.019	1.18
419.226	1.27
419.434	1.17
419.642	0.95
419.849	1.1
420.057	1.12
420.265	0.99
420.472	0.81
420.68	0.78
420.887	0.7
421.095	0.76
421.302	0.83
421.51	1.03
421.717	1.15
421.925	1.36
422.132	1.18
422.34	0.96
422.547	0.9
422.755	0.72
422.962	0.66
423.17	0.63
423.377	0.86
423.585	0.74
423.792	0.67
423.999	0.71
424.207	0.74
424.414	0.76
424.621	0.87
424.829	1.02
425.036	0.91
425.243	1.04
425.451	0.85
425.658	0.54
425.865	0.67
426.072	0.72
426.28	0.8
426.487	0.72
426.694	0.9
426.901	0.7
427.108	0.71
427.315	0.63
427.523	1.03
427.73	1.11
427.937	1.06
428.144	0.9
428.351	0.86
428.558	0.77
428.765	0.58
428.972	0.59
429.179	0.83
429.386	1.01
429.593	0.9
429.8	0.85
430.007	1.02
430.214	1.03
430.421	0.76
430.628	0.56
430.835	0.42
431.042	0.66
431.249	0.76
431.456	0.8
431.662	0.96
431.869	1.24
432.076	0.99
432.283	1.09
432.49	1.14
432.697	1.16
432.903	0.94
433.11	0.92
433.317	0.85
433.524	1.01
433.73	0.9
433.937	1.18
434.144	1.17
434.35	1.08
434.557	0.85
434.764	0.91
434.97	0.72
435.177	0.95
435.384	0.82
435.59	0.89
435.797	1.06
436.003	1.2
436.21	1.06
436.416	1.19
436.623	1.17
436.829	1.26
437.036	1.4
437.242	1.39
437.449	1.27
437.655	1.31
437.862	1.15
438.068	1.07
438.275	1.16
438.481	1.33
438.687	1.31
438.894	1.3
439.1	1.17
439.307	1.25
439.513	1.17
439.719	1.19
439.926	1.29
440.132	1.26
440.338	1.03
440.544	1.16
440.751	1.05
440.957	1.09
441.163	1.03
441.369	1.19
441.575	0.95
441.782	0.98
441.988	0.82
442.194	0.9
442.4	0.83
442.606	1.15
442.812	1.21
443.018	1.36
443.224	1.4
443.431	1.51
443.637	1.19
443.843	1.15
444.049	1.08
444.255	1.02
444.461	0.96
444.667	1.04
444.873	1.09
445.079	1.13
445.284	1.25
445.49	1.09
445.696	0.98
445.902	0.94
446.108	0.83
446.314	0.74
446.52	0.83
446.726	1.08
446.931	1.1
447.137	1.2
447.343	1.2
447.549	1.15
447.755	1.01
447.96	1.02
448.166	0.94
448.372	0.89
448.578	0.88
448.783	0.82
448.989	0.82
449.195	1.04
449.4	1.05
449.606	1.1
449.812	1.05
450.017	1.09
450.223	0.94
450.428	0.94
450.634	1.04
450.84	1.23
451.045	1.11
451.251	0.98
451.456	1.23
451.662	1.24
451.867	1.25
452.073	1.29
452.278	1.5
452.483	1.52
452.689	1.4
452.894	1.36
453.1	1.33
453.305	1.19
453.51	1.06
453.716	1.03
453.921	1.04
454.127	0.99
454.332	0.97
454.537	0.89
454.742	0.9
454.948	0.89
455.153	1
455.358	1.08
455.563	1.27
455.769	1.41
455.974	1.34
456.179	1.21
456.384	1.18
456.589	1.05
456.795	0.8
457	0.84
457.205	1.12
457.41	1.14
457.615	1.15
457.82	1.27
458.025	1.34
458.23	1.18
458.435	1.19
458.64	1.13
458.845	1.25
459.05	1.13
459.255	1.17
459.46	1.11
459.665	1.13
459.87	1.1
460.075	1.13
460.28	1.09
460.485	1.18
460.69	1.19
460.895	1.03
461.099	0.99
461.304	1.09
461.509	1.08
461.714	0.99
461.919	1.13
462.123	1.08
462.328	1.11
462.533	1
462.738	1.13
462.942	1.04
463.147	1.15
463.352	1.15
463.556	1.17
463.761	1.16
463.966	1.23
464.17	1.19
464.375	1.08
464.58	1.08
464.784	0.98
464.989	0.88
465.193	0.89
465.398	0.9
465.602	1.04
465.807	1.04
466.011	1.14
466.216	1.17
466.42	1.22
466.625	1.22
466.829	1.34
467.034	1.35
467.238	1.5
467.443	1.41
467.647	1.26
467.851	1.28
468.056	1.28
468.26	1.19
468.464	1.25
468.669	1.46
468.873	1.55
469.077	1.52
469.282	1.53
469.486	1.65
469.69	1.57
469.894	1.39
470.099	1.45
470.303	1.56
470.507	1.42
470.711	1.37
470.915	1.41
471.119	1.35
471.324	1.21
471.528	1.19
471.732	1.27
471.936	1.22
472.14	1.29
472.344	1.33
472.548	1.38
472.752	1.52
472.956	1.75
473.16	1.71
473.364	1.63
473.568	1.56
473.772	1.53
473.976	1.37
474.18	1.3
474.384	1.36
474.588	1.36
474.792	1.18
474.995	1.2
475.199	1.3
475.403	1.37
475.607	1.43
475.811	1.47
476.015	1.45
476.218	1.53
476.422	1.42
476.626	1.48
476.83	1.53
477.033	1.54
477.237	1.36
477.441	1.39
477.644	1.34
477.848	1.29
478.052	1.23
478.255	1.32
478.459	1.31
478.663	1.38
478.866	1.41
479.07	1.51
479.273	1.68
479.477	1.73
479.681	1.69
479.884	1.65
480.088	1.58
480.291	1.49
480.495	1.45
480.698	1.45
480.901	1.51
481.105	1.62
481.308	1.56
481.512	1.55
481.715	1.6
481.919	1.64
482.122	1.63
482.325	1.62
482.529	1.67
482.732	1.62
482.935	1.51
483.138	1.41
483.342	1.51
483.545	1.53
483.748	1.62
483.952	1.66
484.155	1.82
484.358	1.8
484.561	1.76
484.764	1.71
484.967	1.73
485.171	1.77
485.374	1.73
485.577	1.84
485.78	1.87
485.983	1.92
486.186	1.79
486.389	1.75
486.592	1.69
486.795	1.67
486.998	1.6
487.201	1.64
487.404	1.73
487.607	1.78
487.81	1.82
488.013	1.84
488.216	1.84
488.419	1.82
488.622	1.79
488.825	1.73
489.028	1.71
489.231	1.64
489.433	1.56
489.636	1.47
489.839	1.51
490.042	1.41
490.245	1.49
490.447	1.57
490.65	1.61
490.853	1.57
491.056	1.71
491.258	1.7
491.461	1.69
491.664	1.77
491.866	1.74
492.069	1.8
492.272	1.73
492.474	1.77
492.677	1.74
492.879	1.85
493.082	1.84
493.285	2.02
493.487	1.94
493.69	1.89
493.892	1.79
494.095	1.74
494.297	1.61
494.5	1.68
494.702	1.69
494.905	1.73
495.107	1.69
495.309	1.73
495.512	1.74
495.714	1.8
495.917	1.84
496.119	1.86
496.321	1.94
496.524	1.93
496.726	1.91
496.928	1.92
497.13	1.96
497.333	1.9
497.535	1.91
497.737	1.94
497.939	1.88
498.142	1.84
498.344	1.84
498.546	1.78
498.748	1.78
498.95	1.87
499.152	1.85
499.355	1.88
499.557	1.97
499.759	2.04
499.961	2.03
500.163	2.08
500.365	2.06
500.567	2.13
500.769	2.02
500.971	2.02
501.173	1.96
501.375	1.98
501.577	1.86
501.779	1.89
501.981	1.94
502.183	1.98
502.385	1.98
502.587	1.92
502.788	1.93
502.99	1.91
503.192	1.96
503.394	1.94
503.596	2.02
503.798	2.07
503.999	2.1
504.201	2.07
504.403	2.16
504.605	2.14
504.806	2.08
505.008	2.03
505.21	2.14
505.411	2.05
505.613	2.09
505.815	2.1
506.016	2.17
506.218	2.13
506.42	2.15
506.621	2.17
506.823	2.2
507.024	2.08
507.226	2.05
507.427	2.02
507.629	2.02
507.83	2.08
508.032	2.1
508.233	2.17
508.435	2.21
508.636	2.23
508.838	2.16
509.039	2.21
509.24	2.21
509.442	2.21
509.643	2.18
509.845	2.22
510.046	2.28
510.247	2.31
510.448	2.35
510.65	2.38
510.851	2.46
511.052	2.39
511.254	2.34
511.455	2.43
511.656	2.47
511.857	2.52
512.058	2.58
512.26	2.55
512.461	2.44
512.662	2.48
512.863	2.34
513.064	2.32
513.265	2.35
513.466	2.45
513.667	2.38
513.868	2.44
514.069	2.53
514.27	2.61
514.471	2.56
514.672	2.59
514.873	2.62
515.074	2.58
515.275	2.46
515.476	2.4
515.677	2.38
515.878	2.4
516.079	2.35
516.28	2.41
516.481	2.54
516.682	2.6
516.882	2.59
517.083	2.64
517.284	2.59
517.485	2.56
517.686	2.54
517.886	2.49
518.087	2.53
518.288	2.58
518.488	2.54
518.689	2.53
518.89	2.54
519.091	2.48
519.291	2.49
519.492	2.55
519.692	2.59
519.893	2.69
520.094	2.75
520.294	2.73
520.495	2.71
520.695	2.72
520.896	2.66
521.096	2.69
521.297	2.73
521.497	2.73
521.698	2.67
521.898	2.67
522.099	2.66
522.299	2.71
522.499	2.7
522.7	2.79
522.9	2.77
523.101	2.8
523.301	2.77
523.501	2.76
523.702	2.72
523.902	2.8
524.102	2.82
524.302	2.82
524.503	2.87
524.703	2.91
524.903	2.89
525.103	2.82
525.304	2.89
525.504	2.95
525.704	2.99
525.904	2.98
526.104	2.98
526.304	2.94
526.504	2.91
526.705	2.87
526.905	2.93
527.105	3.01
527.305	3.01
527.505	2.93
527.705	2.96
527.905	2.94
528.105	2.91
528.305	2.9
528.505	2.96
528.705	2.99
528.905	2.95
529.105	2.96
529.304	3.01
529.504	3.08
529.704	3.02
529.904	3.06
530.104	3.07
530.304	3.08
530.503	3.02
530.703	3
530.903	3.03
531.103	3.06
531.303	3.03
531.502	3.06
531.702	3.18
531.902	3.17
532.101	3.16
532.301	3.17
532.501	3.15
532.7	3.11
532.9	3.15
533.1	3.17
533.299	3.21
533.499	3.26
533.698	3.24
533.898	3.22
534.097	3.2
534.297	3.28
534.496	3.27
534.696	3.32
534.895	3.41
535.095	3.49
535.294	3.42
535.494	3.39
535.693	3.41
535.892	3.38
536.092	3.29
536.291	3.26
536.491	3.36
536.69	3.37
536.889	3.33
537.088	3.35
537.288	3.43
537.487	3.46
537.686	3.47
537.886	3.56
538.085	3.65
538.284	3.76
538.483	3.7
538.682	3.74
538.882	3.7
539.081	3.74
539.28	3.6
539.479	3.66
539.678	3.62
539.877	3.75
540.076	3.73
540.275	3.77
540.474	3.82
540.673	3.86
540.872	3.79
541.071	3.81
541.27	3.89
541.469	3.91
541.668	3.93
541.867	3.93
542.066	4.01
542.265	4.02
542.464	3.98
542.663	4.03
542.862	4.13
543.06	4.07
543.259	4.08
543.458	4.14
543.657	4.19
543.856	4.25
544.054	4.31
544.253	4.3
544.452	4.3
544.651	4.34
544.849	4.26
545.048	4.27
545.247	4.3
545.445	4.34
545.644	4.35
545.843	4.34
546.041	4.38
546.24	4.44
546.438	4.57
546.637	4.61
546.836	4.71
547.034	4.74
547.233	4.76
547.431	4.73
547.63	4.77
547.828	4.8
548.027	4.83
548.225	4.91
548.423	4.9
548.622	4.96
548.82	4.94
549.019	5
549.217	5.09
549.415	5.13
549.614	5.16
549.812	5.21
550.01	5.18
550.209	5.13
550.407	5.23
550.605	5.24
550.803	5.34
551.002	5.45
551.2	5.53
551.398	5.59
551.596	5.74
551.794	5.76
551.993	5.79
552.191	5.82
552.389	5.85
552.587	5.89
552.785	5.97
552.983	6.03
553.181	6.12
553.379	6.19
553.577	6.17
553.775	6.23
553.973	6.29
554.171	6.33
554.369	6.33
554.567	6.35
554.765	6.39
554.963	6.54
555.161	6.48
555.359	6.57
555.557	6.72
555.755	6.76
555.952	6.8
556.15	6.93
556.348	6.99
556.546	7.03
556.744	7.1
556.941	7.16
557.139	7.24
557.337	7.34
557.535	7.34
557.732	7.4
557.93	7.46
558.128	7.49
558.325	7.54
558.523	7.56
558.721	7.7
558.918	7.68
559.116	7.82
559.313	7.86
559.511	8.06
559.708	8.02
559.906	8.14
560.104	8.17
560.301	8.26
560.498	8.27
560.696	8.36
560.893	8.39
561.091	8.49
561.288	8.57
561.486	8.71
561.683	8.81
561.88	8.88
562.078	8.95
562.275	8.92
562.473	8.97
562.67	9.13
562.867	9.28
563.064	9.43
563.262	9.5
563.459	9.49
563.656	9.51
563.853	9.56
564.051	9.52
564.248	9.7
564.445	9.88
564.642	9.84
564.839	9.95
565.036	10.11
565.234	10.22
565.431	10.3
565.628	10.43
565.825	10.53
566.022	10.59
566.219	10.6
566.416	10.64
566.613	10.71
566.81	10.73
567.007	10.75
567.204	10.79
567.401	10.82
567.598	10.9
567.795	10.95
567.991	11.04
568.188	11.15
568.385	11.2
568.582	11.26
568.779	11.29
568.976	11.36
569.172	11.47
569.369	11.52
569.566	11.59
569.763	11.71
569.96	11.74
570.156	11.69
570.353	11.73
570.55	11.74
570.746	11.85
570.943	11.91
571.14	11.95
571.336	12
571.533	12.14
571.729	12.08
571.926	12.19
572.123	12.29
572.319	12.35
572.516	12.29
572.712	12.36
572.909	12.34
573.105	12.4
573.302	12.51
573.498	12.64
573.695	12.64
573.891	12.72
574.087	12.77
574.284	12.79
574.48	12.71
574.677	12.74
574.873	12.71
575.069	12.77
575.266	12.76
575.462	12.81
575.658	12.97
575.854	13.09
576.051	13.1
576.247	13.11
576.443	13.1
576.639	12.97
576.835	12.88
577.032	12.8
577.228	12.96
577.424	13.1
577.62	13.17
577.816	13.24
578.012	13.31
578.208	13.23
578.404	13.22
578.6	13.21
578.796	13.14
578.993	13.21
579.189	13.26
579.384	13.19
579.58	13.16
579.776	13.26
579.972	13.22
580.168	13.14
580.364	13.18
580.56	13.22
580.756	13.19
580.952	13.15
581.148	13.18
581.343	13.23
581.539	13.28
581.735	13.3
581.931	13.3
582.127	13.41
582.322	13.39
582.518	13.45
582.714	13.45
582.909	13.5
583.105	13.39
583.301	13.35
583.496	13.3
583.692	13.28
583.888	13.27
584.083	13.35
584.279	13.38
584.474	13.36
584.67	13.36
584.866	13.37
585.061	13.25
585.257	13.32
585.452	13.33
585.648	13.43
585.843	13.48
586.039	13.61
586.234	13.53
586.429	13.44
586.625	13.47
586.82	13.44
587.015	13.46
587.211	13.4
587.406	13.46
587.601	13.41
587.797	13.39
587.992	13.29
588.187	13.4
588.383	13.42
588.578	13.38
588.773	13.4
588.968	13.5
589.163	13.62
589.359	13.64
589.554	13.69
589.749	13.72
589.944	13.77
590.139	13.73
590.334	13.83
590.529	13.87
590.724	13.9
590.919	13.94
591.114	13.97
591.309	14.01
591.504	14.02
591.699	13.97
591.894	14.04
592.089	14.04
592.284	14
592.479	14.09
592.674	14.19
592.869	14.12
593.064	14.26
593.259	14.37
593.454	14.47
593.648	14.49
593.843	14.55
594.038	14.55
594.233	14.56
594.428	14.47
594.622	14.52
594.817	14.73
595.012	14.71
595.206	14.66
595.401	14.76
595.596	14.81
595.79	14.8
595.985	14.97
596.18	15.14
596.374	15.28
596.569	15.35
596.763	15.32
596.958	15.32
597.153	15.39
597.347	15.37
597.542	15.51
597.736	15.57
597.931	15.63
598.125	15.7
598.319	15.92
598.514	15.93
598.708	16.04
598.903	16.08
599.097	16.11
599.291	16.02
599.486	15.95
599.68	15.95
599.874	16.09
600.069	16.18
600.263	16.25
600.457	16.38
600.651	16.48
600.846	16.5
601.04	16.52
601.234	16.56
601.428	16.7
601.622	16.73
601.817	16.76
602.011	16.71
602.205	16.8
602.399	16.74
602.593	16.76
602.787	16.81
602.981	16.86
603.175	16.83
603.369	16.8
603.563	16.88
603.757	16.88
603.951	16.94
604.145	16.95
604.339	17.01
604.533	16.84
604.727	16.82
604.921	16.75
605.115	16.72
605.309	16.74
605.502	16.79
605.696	16.68
605.89	16.6
606.084	16.49
606.278	16.36
606.471	16.28
606.665	16.23
606.859	16.21
607.053	16.32
607.246	16.39
607.44	16.41
607.634	16.4
607.827	16.43
608.021	16.27
608.214	16.13
608.408	16.02
608.602	15.96
608.795	15.87
608.989	15.83
609.182	15.77
609.376	15.75
609.569	15.72
609.763	15.57
609.956	15.5
610.15	15.46
610.343	15.38
610.537	15.3
610.73	15.28
610.923	15.33
611.117	15.25
611.31	15.15
611.504	15.05
611.697	15.01
611.89	14.83
612.083	14.71
612.277	14.81
612.47	14.76
612.663	14.71
612.856	14.7
613.05	14.64
613.243	14.51
613.436	14.43
613.629	14.29
613.822	14.14
614.015	14.08
614.209	13.87
614.402	13.93
614.595	13.86
614.788	13.83
614.981	13.74
615.174	13.73
615.367	13.56
615.56	13.54
615.753	13.45
615.946	13.42
616.139	13.48
616.332	13.58
616.525	13.53
616.718	13.61
616.911	13.57
617.103	13.46
617.296	13.34
617.489	13.26
617.682	13.14
617.875	13.2
618.067	13.13
618.26	12.99
618.453	13.01
618.646	12.93
618.838	12.92
619.031	13.03
619.224	13.08
619.417	13.09
619.609	13.13
619.802	13.02
619.994	12.91
620.187	12.92
620.38	12.86
620.572	12.76
620.765	12.74
620.957	12.6
621.15	12.52
621.342	12.5
621.535	12.56
621.727	12.58
621.92	12.57
622.112	12.55
622.305	12.53
622.497	12.41
622.69	12.38
622.882	12.42
623.074	12.47
623.267	12.38
623.459	12.28
623.651	12.2
623.844	12.13
624.036	12.14
624.228	12.12
624.42	12.15
624.613	12.28
624.805	12.24
624.997	12.17
625.189	12.18
625.381	12.29
625.574	12.12
625.766	12.12
625.958	12.1
626.15	12.16
626.342	12.13
626.534	12.18
626.726	12.16
626.918	12.1
627.11	12
627.302	11.98
627.494	11.95
627.686	12
627.878	11.95
628.07	11.91
628.262	11.8
628.454	11.79
628.646	11.72
628.838	11.79
629.029	11.77
629.221	11.78
629.413	11.7
629.605	11.61
629.797	11.49
629.989	11.5
630.18	11.46
630.372	11.45
630.564	11.5
630.755	11.53
630.947	11.61
631.139	11.47
631.33	11.45
631.522	11.56
631.714	11.57
631.905	11.46
632.097	11.52
632.289	11.49
632.48	11.33
632.672	11.26
632.863	11.21
633.055	11.23
633.246	11.23
633.438	11.14
633.629	11.11
633.821	11.1
634.012	11.08
634.203	11.04
634.395	11.13
634.586	11.18
634.777	11.13
634.969	11.13
635.16	11.12
635.351	11.01
635.543	11.01
635.734	11.1
635.925	11.08
636.117	11.14
636.308	11.18
636.499	11.12
636.69	11
636.881	10.92
637.073	10.92
637.264	10.93
637.455	10.97
637.646	11.08
637.837	11.13
638.028	11.05
638.219	11.1
638.41	11.05
638.601	10.94
638.792	11.03
638.983	10.97
639.174	10.94
639.365	10.99
639.556	10.92
639.747	10.84
639.938	10.95
640.129	10.91
640.32	10.91
640.511	11.06
640.701	11.11
640.892	11.07
641.083	11.15
641.274	11.14
641.465	11.11
641.655	11.05
641.846	11.04
642.037	10.93
642.228	10.85
642.418	10.86
642.609	10.85
642.8	10.83
642.99	10.73
643.181	10.74
643.372	10.82
643.562	10.81
643.753	10.7
643.943	10.79
644.134	10.69
644.324	10.53
644.515	10.49
644.705	10.61
644.896	10.59
645.086	10.68
645.277	10.67
645.467	10.68
645.658	10.6
645.848	10.6
646.038	10.57
646.229	10.55
646.419	10.47
646.61	10.43
646.8	10.36
646.99	10.33
647.18	10.3
647.371	10.32
647.561	10.31
647.751	10.36
647.941	10.31
648.132	10.36
648.322	10.42
648.512	10.46
648.702	10.44
648.892	10.44
649.082	10.35
649.272	10.18
649.462	10.03
649.653	9.95
649.843	9.83
650.033	9.88
650.223	9.9
650.413	9.86
650.603	9.85
650.793	9.92
650.983	9.79
651.172	9.72
651.362	9.82
651.552	9.8
651.742	9.7
651.932	9.71
652.122	9.76
652.312	9.75
652.502	9.74
652.691	9.76
652.881	9.66
653.071	9.58
653.261	9.41
653.45	9.26
653.64	9.19
653.83	9.08
654.019	8.94
654.209	8.87
654.399	8.83
654.588	8.69
654.778	8.64
654.968	8.56
655.157	8.47
655.347	8.44
655.536	8.33
655.726	8.27
655.915	8.13
656.105	7.98
656.294	7.77
656.484	7.63
656.673	7.49
656.863	7.48
657.052	7.44
657.241	7.34
657.431	7.19
657.62	7.12
657.809	6.8
657.999	6.61
658.188	6.47
658.377	6.36
658.567	6.25
658.756	6.24
658.945	6.16
659.134	6.01
659.324	5.97
659.513	5.79
659.702	5.62
659.891	5.54
660.08	5.46
660.269	5.4
660.458	5.25
660.648	5.18
660.837	5.07
661.026	4.98
661.215	4.78
661.404	4.72
661.593	4.67
661.782	4.49
661.971	4.49
662.16	4.44
662.349	4.43
662.538	4.31
662.726	4.32
662.915	4.19
663.104	4.11
663.293	4.07
663.482	4.09
663.671	4.02
663.86	3.91
664.048	3.8
664.237	3.76
664.426	3.51
664.615	3.46
664.803	3.48
664.992	3.44
665.181	3.32
665.369	3.32
665.558	3.26
665.747	3.15
665.935	3.22
666.124	3.26
666.312	3.35
666.501	3.31
666.69	3.33
666.878	3.24
667.067	3.15
667.255	3.2
667.444	3.48
667.632	3.44
667.82	3.47
668.009	3.47
668.197	3.43
668.386	3.23
668.574	3.36
668.762	3.34
668.951	3.31
669.139	3.24
669.327	3.13
669.516	3.21
669.704	3.21
669.892	3.4
670.08	3.47
670.269	3.47
670.457	3.24
670.645	3.08
670.833	3.18
671.021	3.12
671.21	3.23
671.398	3.53
671.586	3.66
671.774	3.39
671.962	3.48
672.15	3.53
672.338	3.32
672.526	3.43
672.714	3.39
672.902	3.42
673.09	3.52
673.278	3.79
673.466	3.84
673.654	4.07
673.842	4.02
674.03	4.01
674.218	3.82
674.405	3.79
674.593	3.76
674.781	3.9
674.969	3.92
675.157	4.16
675.344	4.25
675.532	4.3
675.72	4.45
675.908	4.49
676.095	4.41
676.283	4.41
676.471	4.58
676.658	4.52
676.846	4.59
677.033	4.71
677.221	4.8
677.409	4.6
677.596	4.66
677.784	4.66
677.971	4.71
678.159	4.73
678.346	4.93
678.534	4.98
678.721	5.13
678.909	5.08
679.096	5.14
679.283	5.32
679.471	5.42
679.658	5.42
679.846	5.59
680.033	5.88
680.22	5.84
680.408	5.9
680.595	6.03
680.782	6
680.969	6.01
681.157	6.15
681.344	6.28
681.531	6.24
681.718	6.32
681.905	6.35
682.093	6.37
682.28	6.44
682.467	6.72
682.654	6.82
682.841	6.9
683.028	7.05
683.215	7.12
683.402	7.04
683.589	7.16
683.776	7.24
683.963	7.2
684.15	7.34
684.337	7.5
684.524	7.77
684.711	8.09
684.898	8.27
685.085	8.36
685.271	8.67
685.458	8.7
685.645	8.74
685.832	9.04
686.019	9.28
686.205	9.45
686.392	9.7
686.579	10
686.766	10.3
686.952	10.58
687.139	10.99
687.326	11.17
687.512	11.44
687.699	11.86
687.886	12.12
688.072	12.15
688.259	12.6
688.445	13.07
688.632	13.23
688.818	13.83
689.005	14.33
689.191	14.69
689.378	15.25
689.564	15.85
689.751	16.25
689.937	16.68
690.124	17.26
690.31	17.49
690.496	18.03
690.683	18.5
690.869	18.99
691.055	19.42
691.242	20.19
691.428	20.73
691.614	21.36
691.8	22.16
691.987	22.94
692.173	23.36
692.359	24.01
692.545	24.68
692.731	25.19
692.918	25.72
693.104	26.36
693.29	26.85
693.476	27.44
693.662	28.29
693.848	29.04
694.034	29.81
694.22	30.63
694.406	31.65
694.592	32.44
694.778	33.19
694.964	33.83
695.15	34.41
695.336	34.81
695.522	35.49
695.708	36.15
695.894	36.81
696.08	37.73
696.265	38.58
696.451	39.32
696.637	40.1
696.823	40.93
697.009	41.43
697.194	42.16
697.38	42.66
697.566	43.42
697.751	44.2
697.937	45.27
698.123	45.8
698.308	46.62
698.494	47.36
698.68	48.09
698.865	48.47
699.051	49.21
699.236	49.57
699.422	50.01
699.607	50.37
699.793	50.91
699.978	51.42
700.164	52.31
700.349	53.22
700.535	53.94
700.72	54.56
700.906	55.2
701.091	55.5
701.276	55.7
701.462	56.4
701.647	57.24
701.832	57.81
702.018	58.6
702.203	59.07
702.388	59.16
702.573	59.36
702.759	60.09
702.944	60.45
703.129	60.95
703.314	61.55
703.499	61.95
703.684	62.08
703.87	63
704.055	63.88
704.24	64.48
704.425	65.36
704.61	65.88
704.795	65.85
704.98	65.96
705.165	65.87
705.35	66.2
705.535	66.84
705.72	67.07
705.905	67.56
706.09	68.41
706.275	68.51
706.459	68.31
706.644	68.67
706.829	68.72
707.014	68.67
707.199	68.89
707.384	69.53
707.568	70
707.753	70.8
707.938	71.47
708.123	71.65
708.307	71.67
708.492	71.64
708.677	71.38
708.861	71.3
709.046	71.29
709.231	71.73
709.415	72.32
709.6	72.67
709.784	72.83
709.969	73.56
710.153	73.66
710.338	73.5
710.522	73.65
710.707	74.19
710.891	74.26
711.076	74.66
711.26	74.9
711.445	75.27
711.629	75.58
711.813	76.17
711.998	76.28
712.182	76.42
712.366	76.97
712.551	77.28
712.735	77.01
712.919	76.94
713.103	77.33
713.288	76.94
713.472	76.79
713.656	77.5
713.84	77.83
714.024	78.48
714.208	78.6
714.393	79.34
714.577	79.3
714.761	79.66
714.945	79.35
715.129	79.52
715.313	79.06
715.497	79.18
715.681	79.69
715.865	79.81
716.049	80.17
716.233	80.57
716.417	80.81
716.601	80.45
716.785	80.57
716.968	80.76
717.152	80.68
717.336	80.72
717.52	81.14
717.704	81.13
717.888	81.29
718.071	81.67
718.255	82.04
718.439	81.91
718.622	82.25
718.806	82.57
718.99	82.32
719.174	82.03
719.357	82.04
719.541	82.09
719.724	82.15
719.908	83.01
720.092	83.86
720.275	84.21
720.459	84.29
720.642	84.36
720.826	84.59
721.009	83.9
721.193	83.51
721.376	84.02
721.559	84.12
721.743	83.84
721.926	84.28
722.11	84.73
722.293	84.16
722.476	83.99
722.66	84.14
722.843	84.14
723.026	83.52
723.21	84
723.393	84.56
723.576	84.36
723.759	84.34
723.942	85.1
724.126	84.92
724.309	84.59
724.492	84.5
724.675	84.22
724.858	84.68
725.041	85.28
725.224	85.51
725.407	85.74
725.59	86.74
725.774	86.14
725.957	85.57
726.14	85.49
726.322	85.7
726.505	85.08
726.688	86.14
726.871	86.32
727.054	86.88
727.237	86.44
727.42	87.45
727.603	87.51
727.786	88.12
727.968	88.24
728.151	88.63
728.334	87.88
728.517	87.68
728.699	87.59
728.882	86.98
729.065	88.09
729.248	88.43
729.43	89.03
729.613	89.84
729.796	91.5
729.978	90.56
730.161	90.01
730.343	89.25
730.526	89.58
730.708	88.43
730.891	88.72
731.073	89.11
731.256	89.02
731.438	88.48
731.621	89.32
731.803	89.3
731.986	89.49
732.168	89.1
732.35	89.33
732.533	88.92
732.715	89.59
732.898	90.07
733.08	90.82
733.262	91.01
733.444	90.66
733.627	90.4
733.809	90.44
733.991	91.18
734.173	90.44
734.355	90.68
734.538	90.88
734.72	90.64
734.902	90.06
735.084	90.02
735.266	90.51
735.448	91.33
735.63	91.19
735.812	91.22
735.994	93.18
736.176	92.82
736.358	92.16
736.54	93.08
736.722	92.69
736.904	91.75
737.086	92.15
737.268	92.24
737.45	92.27
737.632	92.76
737.814	92.09
737.995	92.34
738.177	92.16
738.359	91.08
738.541	91.74
738.723	91.98
738.904	92.42
739.086	92.63
739.268	93.25
739.449	93.47
739.631	93.01
739.813	93.12
739.994	93.47
740.176	94.4
740.358	93.97
740.539	95.97
740.721	95.65
740.902	95.84
741.084	94.94
741.265	94.88
741.447	93.68
741.628	93.41
741.81	92.24
741.991	92.81
742.172	93.37
742.354	94.08
742.535	94.63
742.717	95.75
742.898	97.01
743.079	98.01
743.261	97.44
743.442	95.81
743.623	96.18
743.804	94.86
743.986	94.61
744.167	93.4
744.348	93.74
744.529	93.19
744.71	92.16
744.891	90.53
745.073	90.59
745.254	91.19
745.435	91.15
745.616	91.93
745.797	92.1
745.978	92.9
746.159	93.22
746.34	92.77
746.521	94.81
746.702	93.66
746.883	93.08
747.064	92.9
747.245	93.13
747.426	91.98
747.606	93.39
747.787	94.44
747.968	94.72
748.149	95.92
748.33	95.28
748.51	94.23
748.691	94.14
748.872	94.85
749.053	92.8
749.233	92.36
749.414	92.87
749.595	91.42
749.775	88.79
749.956	89.17
750.137	89.03
750.317	89.49
750.498	91.84
750.678	93.78
750.859	94.52
751.04	94.95
751.22	95.18
751.4	93.81
751.581	92.3
751.761	93
751.942	93.36
752.122	92.76
752.303	91.86
752.483	90.87
752.663	88.94
752.844	87.13
753.024	88.25
753.204	89.78
753.385	91.75
753.565	91.73
753.745	93.04
753.925	91.89
754.106	91.29
754.286	90.12
754.466	90.14
754.646	90.13
754.826	89.28
755.006	88.88
755.187	89.61
755.367	90.72
755.547	91.43
755.727	94.24
755.907	93.38
756.087	94.91
756.267	93.64
756.447	91.78
756.627	88.36
756.807	89.98
756.987	88.95
757.167	89.05
757.346	91.07
757.526	90.78
757.706	90.84
757.886	91.81
758.066	93.21
758.246	93.24
758.425	94.6
758.605	93.89
758.785	92.78
758.965	92.71
759.144	90.77
759.324	90.99
759.504	90.36
759.683	90.89
759.863	88.99
760.043	88.07
760.222	88.03
760.402	88.15
760.581	87.25
760.761	89.94
760.94	89.69
761.12	91.23
761.299	92.01
761.479	92.44
761.658	90.86
761.838	92.29
762.017	91.09
762.197	91.27
762.376	90.86
762.555	91.01
762.735	91.25
762.914	90.63
763.093	88.75
763.273	88.67
763.452	87.85
763.631	87.38
763.81	87.6
763.99	88.64
764.169	88.24
764.348	87.45
764.527	87.24
764.706	88.2
764.885	88.73
765.064	87.43
765.243	88.88
765.423	89.67
765.602	89.68
765.781	88.68
765.96	87.91
766.139	87.05
766.318	86.77
766.497	84.74
766.676	84.21
766.854	86.22
767.033	86.54
767.212	85.49
767.391	87.48
767.57	90.12
767.749	89.88
767.928	89.78
768.106	89.78
768.285	87.34
768.464	85.64
768.643	85.5
768.821	85.42
769	87.01
769.179	86.53
769.357	86.2
769.536	86.4
769.715	86.84
769.893	87.63
770.072	87.9
770.25	88.73
770.429	89.5
770.607	89.44
770.786	88.22
770.964	90.43
771.143	88.52
771.321	88.6
771.5	89.51
771.678	87.69
771.857	87.49
772.035	87.76
772.213	86.31
772.392	83.99
772.57	85.5
772.748	85.9
772.927	84.82
773.105	84.26
773.283	85.4
773.461	86.29
773.64	84.64
773.818	85.75
773.996	87.39
774.174	86.66
774.352	85.16
774.531	84.15
774.709	85.62
774.887	83.63
775.065	84.13
775.243	83.7
775.421	85.41
775.599	84.31
775.777	83.83
775.955	81.45
776.133	80.3
776.311	79.62
776.489	77.08
776.667	78.81
776.844	81.56
777.022	82.31
777.2	82.16
777.378	85.05
777.556	83.84
777.734	83.43
777.911	83.98
778.089	82.7
778.267	82.35
778.445	80.24
778.622	80.13
778.8	80.28
778.978	81.71
779.155	81.73
779.333	86.7
779.511	85.01
779.688	86.18
779.866	80.16
780.043	76.9
780.221	74.1
780.398	73.38
780.576	72.91
780.753	79.62
780.931	80.84
781.108	81.49
781.286	84.84
781.463	81.96
781.64	81.17
781.818	84.3
781.995	84.66
782.172	83.11
782.35	84.87
782.527	86.52
782.704	81.26
782.882	82.16
783.059	80.4
783.236	81.44
783.413	80.38
783.59	84.41
783.768	82.09
783.945	84.21
784.122	84.14
784.299	83.4
784.476	80.87
784.653	79.1
784.83	76.54
785.007	71.8
785.184	71.33
785.361	71.16
785.538	75.24
785.715	83.13
785.892	85.68
786.069	88.76
786.246	91.39
786.423	93.35
786.6	88.79
786.776	92.02
786.953	87.31
787.13	88.56
787.307	85.37
787.484	83.66
787.66	78.97
787.837	81.11
788.014	77.45
788.191	73.2
788.367	70.23
788.544	73.3
788.721	74.11
788.897	77.35
789.074	84.29
789.25	84.72
789.427	84.35
789.603	82.87
789.78	81.34
789.956	78.27
790.133	78.3
790.309	80.12
790.486	81.95
790.662	78.44
790.839	77.47
791.015	81.37
791.192	79.8
791.368	76.74
791.544	77.29
791.721	74.61
791.897	72.23
792.073	68.85
792.249	66.22
792.426	70.23
792.602	74.69
792.778	75.73
792.954	78.14
793.13	77.97
793.307	67.75
793.483	61.35
793.659	62.47
793.835	66.11
794.011	70.33
794.187	78.56
794.363	77.6
794.539	83.06
794.715	75.4
794.891	70.78
795.067	70.05
795.243	76.53
795.419	66.73
795.595	66.64
795.771	68.08
795.947	67.34
796.122	62.9
796.298	67.66
796.474	71.04
796.65	72.16
796.826	73.14
797.001	74.63
797.177	70.89
797.353	73.75
797.529	76.4
797.704	77.8
797.88	78.19
798.056	79.23
798.231	74.87
798.407	76.45
798.582	75.99
798.758	80.76
798.934	84.13
799.109	83.94
799.285	77.6
799.46	81.76
799.636	80.22
799.811	79.01
799.986	77.38
800.162	81.31
800.337	77.74
800.513	68.09
800.688	65.49
800.863	78.23
801.039	76.26
801.214	72.7
801.389	79.01
801.565	81.77
801.74	63.7
801.915	65.42
802.09	70.15
802.265	76.59
802.441	74.52
802.616	81.81
802.791	81.5
802.966	79.48
803.141	79.95
803.316	80.05
803.491	83.46
803.666	84.26
803.841	79.43
804.016	75.99
804.191	73.47
804.366	63.38
804.541	62.48
804.716	65.83
804.891	57.42
805.066	66.53
805.241	66.47
805.416	62.98
805.591	59.43
805.765	67.92
805.94	64.5
806.115	63.97
806.29	61.27
806.464	62.64
806.639	53.62
806.814	48.4
806.989	43.32
807.163	54.5
807.338	60.17
807.512	61.08
807.687	52.28
807.862	70.48
808.036	66.6
808.211	71.73
808.385	71.53
808.56	84.7
808.734	81.12
808.909	77.8
809.083	67.05
809.258	83.97
809.432	81.89
809.606	70.94
809.781	77.38
809.955	77.56
810.13	70.41
810.304	66.18
810.478	62.69
810.652	64.62
810.827	68.35
811.001	69.26
811.175	62.63
811.349	62.4
811.524	55.49
811.698	44.42
811.872	46.66
812.046	60.8
812.22	70.75
812.394	70.39
812.568	79.12
812.742	76.21
812.916	64.14
813.09	55.2
813.264	53.69
813.438	51.42
813.612	48.46
813.786	48.74
813.96	58.36
814.134	60.65
814.308	78.99
814.482	89.2
814.656	84.04
814.83	86.98
815.003	84.63
815.177	64.86
815.351	60.04
815.525	64.44
815.698	60.32
815.872	52.5
816.046	49.48
816.219	44.07
816.393	50.39
816.567	41.76
816.74	48.88
816.914	54.8
817.088	58.32
817.261	52.37
817.435	43.81
817.608	44.31
817.782	38.79
817.955	42.99
818.129	46.38
818.302	54.58
818.475	58.02
818.649	62.64
818.822	49.67
818.996	55.42
819.169	55.2
819.342	50.13
819.516	68.95
819.689	78.3
819.862	67.57
820.035	63.23
820.209	61.99
820.382	48.49
820.555	52.92
820.728	49.49
820.901	48.21
821.075	49
821.248	62.1
821.421	48.62
821.594	46.83
821.767	64.03
821.94	75.23
822.113	39.22
822.286	40.33
822.459	53.82
822.632	40.37
822.805	25
822.978	33.24
823.151	35.75
823.324	18.56
823.496	1.83
823.669	3.86
823.842	17.55
824.015	8.18
824.188	9.89
824.361	25.82
824.533	17.78
824.706	20.39
824.879	28.53
825.051	43.71
825.224	43.32
825.397	55.42
825.569	52.94
825.742	59.71
825.915	62.3
826.087	74.38
826.26	52.37
826.432	50.72
826.605	49.94
826.777	30.22
826.95	27.99
827.122	19.44
827.295	21.84
827.467	26.65
827.64	12.49
827.812	-1.72
827.984	21.28
828.157	5.42
828.329	-23.15
828.501	1.49
828.674	25.41
828.846	0.81
829.018	34.36
829.19	19.37
829.363	46.21
829.535	42
829.707	55.57
829.879	26.5
830.051	37.32
830.223	10.07
830.395	11.01
830.568	9.49
830.74	23.93
830.912	44.74
831.084	19.58
831.256	21.47
831.428	20.19
831.6	-11.3
831.772	-37.57
831.943	-18.58
832.115	-10.96
832.287	5.02
832.459	30.52
832.631	45.11
832.803	53.02
832.975	56.87
833.146	40.22
833.318	41.92
833.49	35.93
833.662	20.72
833.833	16.57
834.005	33.02
834.177	23.28
834.348	26.94
834.52	26.5
834.692	30.62
834.863	-3.43
835.035	16.01
835.206	-31.08
835.378	-1.41
835.549	-15.2
835.721	-6.58
835.892	-25.26
836.064	-23
836.235	-30.83
836.407	-9.17
836.578	-46.3
836.749	3.31
836.921	-6.82
837.092	-57.55
837.264	-68.46
837.435	-63.36
837.606	-44.17
837.777	-3.73
837.949	23.22
838.12	28.7
838.291	39.48
838.462	28.29
838.633	7.28
838.805	4.6
838.976	13.37
839.147	-36.37
839.318	-28.62
839.489	-90.2
839.66	-79.84
839.831	-31.51
840.002	3.62
840.173	-7.15
840.344	69.9
840.515	107.79
840.686	-31.72
840.857	-44.64
841.028	-60.46
841.199	-74.63
841.369	-83.18
841.54	-39.34
841.711	-25.78
841.882	5.7
842.053	6.75
842.223	1.63
842.394	17.49
842.565	20.38
842.736	10.52
842.906	10.64
843.077	23.9
843.248	15.4
843.418	21.39
843.589	-30.22
843.759	-6.61
843.93	-6.86
844.101	6.79
844.271	10.43
844.442	32.38
844.612	41.32
844.783	16.27
844.953	-0.02
845.123	-0.8
845.294	2.29
845.464	-226.64
845.635	-74.2
845.805	-16.65
845.975	-6.98
846.146	-33.89
846.316	-4.46
846.486	10.54
846.656	31.51
846.827	36.97
846.997	38.38
847.167	59.74
847.337	16.58
847.507	-32.8
847.677	-49.93
847.848	10.09
848.018	24.93
848.188	38.51
848.358	37.33
848.528	30.88
848.698	1.46
848.868	-85.69
849.038	-202.36
849.208	-78.54
849.378	-45.09
849.548	-36.37
849.718	-15.89
849.887	12.6
850.057	-12.53
850.227	-34.09
850.397	-19.77
850.567	-135.61
850.737	-387.5
850.906	-1234.06
851.076	-841.6
851.246	-510.6
851.415	-74.8
851.585	-28.67
851.755	-56.12
851.924	-16.9
852.094	-44.06
852.264	-66.43
852.433	-738.7
852.603	-108.48
852.772	-61.52
852.942	-46.5
853.111	-64.4
853.281	-30.94
853.45	5.79
853.62	-61.18
853.789	-90.72
853.959	-138.6
854.128	-96.88
854.297	-120.19
854.467	-119.25
854.636	-100.78
854.805	14.14
854.975	-46.36
855.144	-71.58
855.313	-123.95
855.482	-363.69
855.652	-275.79
855.821	-153.56
855.99	5.55
856.159	40.4
856.328	59.67
856.497	47.03
856.667	36.14
856.836	43.64
857.005	1.43
857.174	-33.06
857.343	-68.56
857.512	-27.27
857.681	-118.11
857.85	-154.28
858.019	-84.82
858.188	-53.77
858.356	-76.03
858.525	-112.88
858.694	-97.96
858.863	-196.09
859.032	-149.52
859.201	-185.49
859.369	-101.85
859.538	-44.73
859.707	-19.42
859.876	3.26
860.044	7.75
860.213	45.31
860.382	38.9
860.55	41.77
860.719	58.97
860.888	51.74
861.056	6.22
861.225	0.25
861.393	33.89
861.562	22.02
861.73	-10.01
861.899	-89.66
862.067	-766.38
862.236	-67.59
862.404	-186.82
862.572	-127.25
862.741	-31
862.909	-64.31
863.078	-162.89
863.246	-117.12
863.414	-118.68
863.582	-98.19
863.751	-93.12
863.919	-70.71
864.087	-18.96
864.255	-6.01
864.424	-292.93
864.592	-13
864.76	-72.11
864.928	-285.8
865.096	-168.23
865.264	-101.95
865.432	-1643.75
865.6	-108.13
865.768	-146.8
865.936	-164.87
866.104	-161.75
866.272	-222.27
866.44	-446.56
866.608	711.01
866.776	278
866.944	2833.14
867.112	-563.24
867.28	-222.3
867.448	-79.46
867.615	-33.88
867.783	-12.29
867.951	-10
868.119	19.49
868.286	4.6
868.454	-86.2
868.622	-78.1
868.789	-88.06
868.957	-2680.36
869.125	-2234.87
869.292	-126.11
869.46	-279.45
869.627	-67.23
869.795	-48.34
869.963	-18.55
870.13	1.51
870.298	20.1
870.465	-27.46
870.632	-59.96
870.8	-27.39
870.967	-90.46
871.135	-104.94
871.302	-97.12
871.469	-116.87
871.637	-212.54
871.804	-112.05
871.971	-154.2
872.139	-535.93
872.306	-43.46
872.473	-54.61
872.64	-288.52
872.807	-131.57
872.975	-30.22
873.142	-314.27
873.309	1841.22
873.476	27.38
873.643	96
873.81	91.33
873.977	65.41
874.144	42.16
874.311	-107.35
874.478	-181.06
874.645	-183.78
874.812	-112.48
874.979	-88.53
875.146	-84.73
875.313	-74.42
875.48	-7.13
875.647	-16.62
875.813	-42.25
875.98	-15.48
876.147	-21.55
876.314	-80.96
876.481	719.21
876.647	-890.17
876.814	352.98
876.981	-61.25
877.147	-13.47
877.314	-0.33
877.481	29.06
877.647	20.95
877.814	-31.7
877.98	-91.22
878.147	-66.24
878.314	-20.4
878.48	-92.84
878.647	-28.64
878.813	35.55
878.979	39.95
879.146	-2.42
879.312	-0.63
879.479	-46.39
879.645	-238.14
879.811	-437.3
879.978	-948.28
880.144	-267.21
880.31	-149.34
880.477	-283.66
880.643	-302.2
880.809	-163.05
880.975	-132.67
881.142	-780.23
881.308	-79.74
881.474	-35.36
881.64	-38.5
881.806	-98.9
881.972	-40.33
882.138	-24.21
882.304	-13.04
882.47	-123.41
882.636	-533.81
882.802	-155.81
882.968	-86.68
883.134	-59.78
883.3	-58.68
883.466	-11.94
883.632	9.88
883.798	-12.83
883.964	-39.17
884.129	-50.47
884.295	-19.71
884.461	-43.32
884.627	-33.42
884.793	-32.39
884.958	-8.79
885.124	-96.33
885.29	-193.7
885.455	-400.61
885.621	-133.94
885.787	-162.02
885.952	-45.79
886.118	-53.4
886.283	-40.01
886.449	-120.55
886.614	-138.26
886.78	-338.17
886.945	1347.95
887.111	-745.81
887.276	-603.55
887.442	-1200.23
887.607	-495.4
887.773	-344.98
887.938	-246.02
888.103	-302.86
888.269	-166.34
888.434	-321.22
888.599	-78.26
888.764	-17.04
888.93	6.49
889.095	-30.52
889.26	-76.59
889.425	-60.19
889.59	-94.21
889.756	-137.72
889.921	-79.02
890.086	-34.11
890.251	-39.63
890.416	-158.64
890.581	-1384.27
890.746	219.73
890.911	382.32
891.076	169.78
891.241	-320.34
891.406	36.69
891.571	30.51
891.736	-169.38
891.901	-446.24
892.065	596.98
892.23	135.99
892.395	197.31
892.56	234.18
892.725	-157.23
892.889	-607.93
893.054	-157.18
893.219	-58.88
893.384	-19.98
893.548	-54.54
893.713	-58.93
893.878	-14.6
