Data from Ofra_1a_PS_8HS21_Reflection_3.txt Node
Date: Tue Jul 20 11:02:07 EDT 2021
User: Adam
Spectrometer: FLMT01687
Trigger mode: 0
Integration Time (sec): 1.004000E0
Scans to average: 2
Electric dark correction enabled: true
Nonlinearity correction enabled: false
Boxcar width: 2
XAxis mode: Wavelengths
Number of Pixels in Spectrum: 3648
>>>>>Begin Spectral Data<<<<<
179.494	-476.65
179.716	-549.62
179.937	1116.72
180.158	-1331.85
180.38	245.37
180.601	175.69
180.823	114.35
181.044	97.02
181.265	12.17
181.486	236.49
181.708	214.72
181.929	-5427.27
182.15	30.04
182.372	119.7
182.593	154.6
182.814	-14.77
183.035	38.39
183.257	78.68
183.478	31.65
183.699	18.16
183.92	-38.77
184.141	-66.15
184.363	-61.25
184.584	-51.94
184.805	-24.59
185.026	4.94
185.247	9.23
185.468	-31.41
185.689	-32.49
185.91	-63.14
186.132	-16.97
186.353	-8.89
186.574	1.63
186.795	3.45
187.016	20.56
187.237	4.73
187.458	-13.51
187.679	-30.77
187.9	10.63
188.121	-6.21
188.342	16.73
188.563	53.39
188.784	71.52
189.005	29.66
189.226	23.37
189.447	12.82
189.667	0.33
189.888	-17.8
190.109	-30.71
190.33	2.06
190.551	-8.81
190.772	2.53
190.993	-1.32
191.214	5.6
191.434	-9.31
191.655	-26.9
191.876	1.6
192.097	41.35
192.318	52.23
192.538	3.07
192.759	9.24
192.98	25.8
193.201	17.57
193.421	5
193.642	38.64
193.863	60.91
194.083	20.61
194.304	-0.88
194.525	10.31
194.745	-15.83
194.966	-28.72
195.187	-15.74
195.407	-24.94
195.628	-7.2
195.848	-0.25
196.069	7.76
196.29	19.64
196.51	7.22
196.731	-3.21
196.951	-17.14
197.172	-23.7
197.392	-36.4
197.613	15.2
197.833	-5.07
198.054	2.58
198.274	-2.67
198.495	-0.71
198.715	-36.83
198.936	-6.07
199.156	5.66
199.377	13.9
199.597	29.77
199.817	42.79
200.038	32.49
200.258	25.54
200.479	46.01
200.699	26.45
200.919	1.7
201.14	3.82
201.36	-27.39
201.58	-68.09
201.801	-67.77
202.021	-53.27
202.241	-52.78
202.461	-14.52
202.682	-1.1
202.902	-7.18
203.122	0.8
203.342	2.3
203.563	-1.06
203.783	-14.4
204.003	-20.8
204.223	7.2
204.443	19.55
204.663	10.42
204.884	34.79
205.104	37.49
205.324	1.04
205.544	-57.55
205.764	-14.5
205.984	-22.68
206.204	-21.47
206.424	-30.6
206.644	-12.43
206.864	-39.87
207.084	-0.27
207.304	10.65
207.525	3.35
207.745	25.05
207.964	35.45
208.184	32.73
208.404	21.15
208.624	25.13
208.844	12.39
209.064	7.12
209.284	-1.56
209.504	-2.41
209.724	10.09
209.944	8.57
210.164	-2.92
210.384	-18.41
210.604	-76.24
210.823	-126.8
211.043	-89.2
211.263	-150.31
211.483	-74.62
211.703	-38.42
211.922	-38.74
212.142	-35.85
212.362	-20.89
212.582	-18.15
212.801	-6.64
213.021	19.07
213.241	4.63
213.461	32.18
213.68	15.76
213.9	0.47
214.12	-12.86
214.339	-16.71
214.559	-44.58
214.779	-40.4
214.998	-14.06
215.218	13.8
215.438	18.47
215.657	23
215.877	22.58
216.096	3.65
216.316	-5.64
216.535	-3.39
216.755	1.21
216.974	-10.01
217.194	-11.7
217.413	-12.63
217.633	-33.09
217.852	-26.49
218.072	-2.19
218.291	4.62
218.511	-10.05
218.73	-5.82
218.95	-17.21
219.169	-46.93
219.389	-22.31
219.608	-22.31
219.827	-10.09
220.047	6.18
220.266	-15.22
220.485	-47.61
220.705	-5.78
220.924	-0.1
221.143	22.15
221.363	29.04
221.582	40.35
221.801	31.42
222.021	36.17
222.24	35.27
222.459	46.61
222.678	47.63
222.897	49.46
223.117	38.3
223.336	38.65
223.555	51.34
223.774	65.96
223.993	46.36
224.213	43.67
224.432	22.34
224.651	10.46
224.87	2.54
225.089	19.37
225.308	35.87
225.527	29.25
225.746	40.58
225.965	38.18
226.184	25.26
226.404	20.19
226.623	26.68
226.842	10.91
227.061	15.45
227.28	31.02
227.499	20.49
227.718	25.27
227.936	34.84
228.155	34.62
228.374	15.91
228.593	26.75
228.812	12.63
229.031	21.98
229.25	12.76
229.469	24.22
229.688	13.54
229.907	26.93
230.125	7.97
230.344	18.25
230.563	16.65
230.782	23.23
231.001	19.7
231.22	25.59
231.438	1.16
231.657	-0.21
231.876	4.16
232.095	8.74
232.313	0.69
232.532	23.14
232.751	25.14
232.969	23.73
233.188	12.35
233.407	27.42
233.625	21.67
233.844	34.57
234.063	18.27
234.281	20.6
234.5	5.65
234.719	2.44
234.937	-35.66
235.156	-15.24
235.374	-19.35
235.593	4.63
235.811	20.51
236.03	29.81
236.249	23.02
236.467	20.55
236.686	16.65
236.904	7.04
237.123	3.97
237.341	-4.79
237.559	11.83
237.778	11.28
237.996	-7.94
238.215	-29.71
238.433	-86.88
238.652	-13.22
238.87	-12.35
239.088	-7.58
239.307	2.58
239.525	27.83
239.743	-1.63
239.962	-26.45
240.18	5.61
240.398	8.56
240.617	6.97
240.835	-7.83
241.053	19.7
241.271	-3.55
241.49	11.07
241.708	1.97
241.926	22.34
242.144	32.46
242.363	46.77
242.581	48
242.799	26.92
243.017	-10.18
243.235	-16.23
243.453	-42.59
243.672	-32.57
243.89	-16.81
244.108	1.98
244.326	22.57
244.544	40.44
244.762	30.85
244.98	36.36
245.198	36.11
245.416	23.94
245.634	14.27
245.852	8.74
246.07	18
246.288	2.43
246.506	-0.77
246.724	2.36
246.942	18.03
247.16	7.65
247.378	27.51
247.596	16.97
247.814	-23.93
248.032	-28.79
248.25	3
248.468	7.27
248.685	20.86
248.903	24.76
249.121	21.4
249.339	14.29
249.557	20.46
249.775	18.89
249.992	30.95
250.21	28.82
250.428	31.51
250.646	17.98
250.863	-1.57
251.081	-9.79
251.299	-8.92
251.517	-8.46
251.734	7.29
251.952	15.72
252.17	15.74
252.387	7.7
252.605	-1.19
252.823	-35.47
253.04	-7.39
253.258	-0.82
253.475	-3.27
253.693	6.49
253.911	22.29
254.128	6.03
254.346	8.67
254.563	31.66
254.781	22.5
254.998	20.11
255.216	17.38
255.433	-2.68
255.651	-21.86
255.868	-15.2
256.086	-17.32
256.303	-22.3
256.521	-8.11
256.738	-25.31
256.956	-18.06
257.173	-22.97
257.39	-7.85
257.608	-8.79
257.825	10.63
258.043	10.91
258.26	16.42
258.477	27.54
258.695	23.4
258.912	13.02
259.129	-9.86
259.346	-21.8
259.564	-69.57
259.781	-79.65
259.998	-40.05
260.216	-9.62
260.433	-14.75
260.65	-1.13
260.867	-0.22
261.084	-12.98
261.302	-18.62
261.519	7.12
261.736	4.88
261.953	19.5
262.17	38.68
262.387	23.16
262.604	21.01
262.822	27.34
263.039	19.33
263.256	6.11
263.473	12.9
263.69	15.19
263.907	22.49
264.124	33.22
264.341	45.26
264.558	46.89
264.775	45.65
264.992	30.53
265.209	10.66
265.426	-29.54
265.643	-38.02
265.86	-73.31
266.077	-75.98
266.294	-25.13
266.51	16.08
266.727	20.38
266.944	31.88
267.161	27.43
267.378	22.38
267.595	-1.95
267.812	-24.25
268.028	-53.58
268.245	-37.29
268.462	-33.44
268.679	-5.99
268.896	29.58
269.112	24.09
269.329	-0.25
269.546	17.06
269.763	9.06
269.979	-1.37
270.196	20.82
270.413	37.81
270.629	22.47
270.846	19.95
271.063	9.28
271.279	-0.61
271.496	-18.45
271.712	-18.61
271.929	-21.37
272.146	-21.52
272.362	-41.11
272.579	-22.04
272.795	-18.23
273.012	-7.97
273.228	12.12
273.445	31.86
273.661	12.35
273.878	-9.28
274.094	1.79
274.311	-14.02
274.527	-28.49
274.744	14.46
274.96	21.05
275.177	13.77
275.393	30.26
275.609	42.46
275.826	23.89
276.042	24.2
276.259	23.29
276.475	1.13
276.691	-22.98
276.908	-5.47
277.124	0.14
277.34	-6.14
277.557	-2.49
277.773	5.82
277.989	-7.97
278.205	-2.89
278.422	2.62
278.638	1.69
278.854	-7.95
279.07	10.78
279.286	-4.47
279.503	-4.09
279.719	-1.14
279.935	2.9
280.151	-10.75
280.367	4.07
280.583	1.86
280.799	0.11
281.016	-13.7
281.232	-15.21
281.448	-17.43
281.664	-5.02
281.88	-5.4
282.096	10.15
282.312	20.31
282.528	23.24
282.744	12.04
282.96	0.14
283.176	-38.1
283.392	-75.83
283.608	-68.69
283.824	-67.74
284.04	-89.38
284.256	-12.58
284.471	-8.99
284.687	-16.43
284.903	-16.56
285.119	15.56
285.335	14.06
285.551	18.03
285.767	12.43
285.982	14.86
286.198	-10.77
286.414	-22.37
286.63	-8.65
286.846	-17.71
287.061	4.54
287.277	1.7
287.493	-6.97
287.709	-22.42
287.924	17.17
288.14	30.52
288.356	36.98
288.571	46.59
288.787	31.36
289.003	31.9
289.218	12.12
289.434	0.92
289.65	6.52
289.865	28.7
290.081	19.99
290.296	28
290.512	21.56
290.727	2.49
290.943	-3.35
291.159	-17.03
291.374	-48.64
291.59	-31.57
291.805	-32.27
292.021	-36.23
292.236	-25.97
292.451	-7.86
292.667	-14.13
292.882	-3.35
293.098	6.56
293.313	-0.67
293.529	-2.59
293.744	-21.94
293.959	-10.03
294.175	-14.38
294.39	-13.56
294.605	5.82
294.821	26.75
295.036	16.16
295.251	12.52
295.467	12.21
295.682	3.69
295.897	-16.43
296.112	-26.41
296.328	-12.67
296.543	-17.91
296.758	-30.8
296.973	-16.65
297.188	3.77
297.404	-23.14
297.619	-33.19
297.834	-47.59
298.049	-31.04
298.264	-40.27
298.479	-31.2
298.694	5.49
298.909	16.83
299.125	10.06
299.34	18.35
299.555	16.06
299.77	27.13
299.985	29.5
300.2	23.03
300.415	25.42
300.63	32.12
300.845	18.01
301.06	17.68
301.275	27.62
301.49	27.39
301.704	19.37
301.919	5.66
302.134	5.94
302.349	8.41
302.564	-14.35
302.779	-32.99
302.994	7.85
303.209	7.17
303.423	-1.57
303.638	27.81
303.853	45.67
304.068	15.85
304.283	19.45
304.497	25.12
304.712	10.51
304.927	1.08
305.142	3.84
305.356	2.6
305.571	13.16
305.786	14.2
306	26.63
306.215	31.2
306.43	9.61
306.644	-2.26
306.859	-20.1
307.074	-2.38
307.288	-11.97
307.503	14.07
307.717	4.23
307.932	9.29
308.147	-8.9
308.361	-0.46
308.576	-23.7
308.79	-14.46
309.005	-33.78
309.219	-15.34
309.434	-17.73
309.648	-6.73
309.863	3.02
310.077	4.7
310.292	17.27
310.506	10.09
310.72	-7.94
310.935	-5.97
311.149	-3.72
311.364	-16.65
311.578	-9.61
311.792	-13.28
312.007	-29.28
312.221	-40.82
312.435	-34.15
312.649	-27.39
312.864	-8.74
313.078	2.41
313.292	16.16
313.507	28.16
313.721	30.09
313.935	37.61
314.149	37.56
314.363	40.92
314.578	37.56
314.792	32.65
315.006	15.07
315.22	12.96
315.434	2.05
315.648	-1.48
315.862	2.33
316.077	8
316.291	-4.97
316.505	-19.53
316.719	-6.8
316.933	-6.19
317.147	-7.32
317.361	-3.44
317.575	13.95
317.789	6.94
318.003	-6.28
318.217	-2.07
318.431	-4.25
318.645	-12.72
318.859	-9.52
319.073	0.91
319.287	2.47
319.5	2.7
319.714	1.85
319.928	-13.08
320.142	-4.93
320.356	-6.13
320.57	-24.74
320.784	-26.54
320.997	-40.13
321.211	-28.14
321.425	-39.2
321.639	-20.11
321.853	6.57
322.066	15.8
322.28	17.73
322.494	11.08
322.707	18.11
322.921	7.05
323.135	12.99
323.349	4.37
323.562	13.38
323.776	12.09
323.989	19.29
324.203	10.59
324.417	18.16
324.63	-5.92
324.844	-16.65
325.057	-49.63
325.271	-40.52
325.485	-64.38
325.698	-19.12
325.912	-2.85
326.125	-9.75
326.339	11.68
326.552	5.04
326.766	-3.15
326.979	-2.99
327.193	20.17
327.406	1.84
327.619	17.91
327.833	15
328.046	14.21
328.26	-4.11
328.473	-0.44
328.686	-10.29
328.9	-1.44
329.113	-9.69
329.326	2.69
329.54	5.57
329.753	22.58
329.966	15.65
330.179	15.58
330.393	23.48
330.606	17.44
330.819	4.74
331.032	7.15
331.246	17.04
331.459	20.57
331.672	22.68
331.885	17.48
332.098	20.51
332.311	-0.55
332.525	5.24
332.738	6.29
332.951	3.17
333.164	12.22
333.377	10.61
333.59	1.19
333.803	2.84
334.016	12.23
334.229	10.71
334.442	6.63
334.655	9.3
334.868	5.93
335.081	-0.68
335.294	-11.32
335.507	19.99
335.72	21.05
335.933	14.31
336.146	15.64
336.359	20.02
336.572	7.44
336.785	-5.56
336.997	-17.26
337.21	3.44
337.423	-6.8
337.636	-4.72
337.849	-7.33
338.062	4.07
338.274	-5.27
338.487	-18.92
338.7	-43.47
338.913	-29.86
339.125	-40.19
339.338	-33.21
339.551	-28.73
339.763	0.91
339.976	-2.74
340.189	7.06
340.402	20.38
340.614	32.64
340.827	26.73
341.039	33.77
341.252	20.57
341.465	7.07
341.677	-1.69
341.89	-12.35
342.102	-15.97
342.315	-14.99
342.527	0.28
342.74	-2.84
342.952	2.08
343.165	-2.05
343.377	9.75
343.59	15.23
343.802	19.59
344.015	29.15
344.227	41.34
344.44	21.81
344.652	5.25
344.864	14.25
345.077	11.55
345.289	5.02
345.502	22.58
345.714	20.56
345.926	10.15
346.139	10.24
346.351	1.27
346.563	-3.59
346.775	13.85
346.988	16.49
347.2	-0.61
347.412	8.13
347.624	14.25
347.837	8.28
348.049	5.31
348.261	-1.12
348.473	-3.34
348.685	-10.2
348.897	-30.29
349.11	-14.85
349.322	-7.11
349.534	-8.63
349.746	-1.9
349.958	12.19
350.17	0.54
350.382	22.59
350.594	17.95
350.806	24.28
351.018	17.08
351.23	23.55
351.442	21.88
351.654	26.33
351.866	17.25
352.078	24.12
352.29	15.3
352.502	14.27
352.714	19.87
352.926	0.94
353.138	1.32
353.35	-2.55
353.561	-6.36
353.773	-24.82
353.985	-9.33
354.197	-4.98
354.409	0.74
354.621	-14.51
354.832	-5.2
355.044	-21.77
355.256	-36
355.468	-49.63
355.679	-9.65
355.891	1.23
356.103	3.76
356.314	-0.81
356.526	-9.66
356.738	-29.93
356.949	-29.83
357.161	-10.48
357.373	3.96
357.584	18.6
357.796	30.04
358.008	22.31
358.219	19.41
358.431	12.92
358.642	18.78
358.854	22.96
359.065	18.39
359.277	15.12
359.488	12.1
359.7	2.21
359.911	-4.49
360.123	10.85
360.334	4.68
360.546	5.25
360.757	15.79
360.969	11.79
361.18	2.58
361.391	19.43
361.603	27.55
361.814	21.04
362.025	26.03
362.237	31.54
362.448	22.23
362.659	9.26
362.871	-1.75
363.082	-4.81
363.293	-31.63
363.504	-44.17
363.716	-36.03
363.927	-12.2
364.138	-39.63
364.349	-29.46
364.56	-41.13
364.772	-32.66
364.983	-30.66
365.194	-5
365.405	14.49
365.616	29.66
365.827	26.06
366.038	29.51
366.25	18.78
366.461	3.24
366.672	4.06
366.883	7.43
367.094	-6.71
367.305	-19.94
367.516	5.41
367.727	-10.2
367.938	-15.08
368.149	-7.58
368.36	2.72
368.571	-33.93
368.781	-30.52
368.992	-26.71
369.203	-18.88
369.414	-19.16
369.625	-14.13
369.836	12.74
370.047	19.26
370.258	21.38
370.468	24.27
370.679	26.7
370.89	-1.2
371.101	8.08
371.312	-5.01
371.522	-3.83
371.733	-6.3
371.944	-7.85
372.155	-9.06
372.365	-6.86
372.576	-11.37
372.787	8.23
372.997	17.22
373.208	11.28
373.419	14
373.629	7.81
373.84	-14.77
374.05	-10.98
374.261	-26.49
374.472	-7.04
374.682	6.48
374.893	16.84
375.103	22.11
375.314	33.88
375.524	20.8
375.735	11.64
375.945	19.45
376.156	14.91
376.366	11.05
376.577	14.13
376.787	21.28
376.997	23.74
377.208	19.2
377.418	16.84
377.629	21.52
377.839	16.96
378.049	7.42
378.26	-2.09
378.47	-1.76
378.68	-6.26
378.89	-1.68
379.101	-1
379.311	6.58
379.521	2.9
379.732	9.33
379.942	4.92
380.152	-0.14
380.362	-0.67
380.572	15.72
380.783	18.26
380.993	24.84
381.203	25.35
381.413	32.49
381.623	20.01
381.833	14.08
382.043	9.49
382.253	16
382.463	19.35
382.674	27.12
382.884	27.14
383.094	22.64
383.304	21.74
383.514	18.28
383.724	12.61
383.934	-1.67
384.144	7.14
384.353	5.82
384.563	4.21
384.773	6.23
384.983	11.52
385.193	3.41
385.403	3
385.613	1.61
385.823	0.35
386.033	0.27
386.242	-2.25
386.452	-7.4
386.662	-6.5
386.872	-8.23
387.082	-8.55
387.291	-3.84
387.501	2.37
387.711	6.81
387.921	7.25
388.13	13.11
388.34	11.11
388.55	3.51
388.759	-7.73
388.969	-8.13
389.179	-8.47
389.388	-9.73
389.598	-6.47
389.807	-5.76
390.017	-3.31
390.227	-7.2
390.436	-3.96
390.646	-1.5
390.855	3.77
391.065	3.05
391.274	2.84
391.484	1.04
391.693	-0.28
391.903	-1.41
392.112	-0.87
392.322	-0.2
392.531	0.78
392.74	1.29
392.95	1.06
393.159	1.34
393.369	2.77
393.578	2.5
393.787	1.77
393.997	2.79
394.206	1.1
394.415	0.67
394.625	-0.4
394.834	-1.04
395.043	-1.57
395.252	1.5
395.462	2.51
395.671	3.66
395.88	4.94
396.089	4.29
396.298	3.56
396.508	3.08
396.717	3.1
396.926	2.89
397.135	3.71
397.344	2.09
397.553	2.07
397.762	3.02
397.971	2.77
398.181	2.52
398.39	3.04
398.599	3.27
398.808	2.83
399.017	3.52
399.226	3.42
399.435	3.82
399.644	4.09
399.853	3.95
400.062	3.7
400.27	3.57
400.479	3.57
400.688	3.25
400.897	3.05
401.106	3.01
401.315	3.09
401.524	3.19
401.733	2.93
401.941	3.34
402.15	3.44
402.359	3.48
402.568	3.59
402.777	3.94
402.985	3.6
403.194	3.26
403.403	3.54
403.612	3.12
403.82	2.84
404.029	3.15
404.238	3.28
404.446	3.29
404.655	3.45
404.864	3.59
405.072	3.43
405.281	3.5
405.489	3.32
405.698	3.35
405.906	3.4
406.115	3.37
406.324	3.33
406.532	3.29
406.741	3.19
406.949	3.21
407.158	3.17
407.366	3.07
407.574	3.26
407.783	3.33
407.991	3.26
408.2	3.45
408.408	3.57
408.617	3.44
408.825	3.37
409.033	3.34
409.242	3.33
409.45	3.32
409.658	3.32
409.867	3.47
410.075	3.47
410.283	3.3
410.491	3.16
410.7	2.92
410.908	2.83
411.116	2.94
411.324	2.99
411.533	3
411.741	3.13
411.949	3.14
412.157	3.01
412.365	2.98
412.573	3.02
412.781	3.18
412.99	3.11
413.198	3.24
413.406	3.37
413.614	3.51
413.822	3.46
414.03	3.6
414.238	3.57
414.446	3.56
414.654	3.43
414.862	3.31
415.07	3.06
415.278	3.24
415.486	3.04
415.694	3.05
415.902	3.05
416.109	3.12
416.317	2.87
416.525	2.92
416.733	2.89
416.941	2.97
417.149	2.93
417.357	2.99
417.564	3
417.772	3.21
417.98	3.22
418.188	3.24
418.395	3.09
418.603	3.02
418.811	2.77
419.019	2.72
419.226	2.87
419.434	2.94
419.642	2.77
419.849	2.77
420.057	2.83
420.265	2.7
420.472	2.57
420.68	2.66
420.887	2.67
421.095	2.74
421.302	2.83
421.51	2.86
421.717	2.92
421.925	2.96
422.132	2.87
422.34	2.62
422.547	2.54
422.755	2.66
422.962	2.84
423.17	2.67
423.377	2.78
423.585	3.05
423.792	2.97
423.999	2.76
424.207	2.66
424.414	2.72
424.621	2.75
424.829	2.77
425.036	2.84
425.243	3.04
425.451	2.99
425.658	2.84
425.865	2.82
426.072	2.85
426.28	2.93
426.487	2.94
426.694	2.96
426.901	2.88
427.108	2.67
427.315	2.61
427.523	2.51
427.73	2.5
427.937	2.42
428.144	2.56
428.351	2.54
428.558	2.72
428.765	2.7
428.972	2.85
429.179	2.71
429.386	2.81
429.593	2.63
429.8	2.63
430.007	2.6
430.214	2.76
430.421	2.77
430.628	2.84
430.835	2.79
431.042	2.72
431.249	2.74
431.456	2.58
431.662	2.7
431.869	2.84
432.076	2.84
432.283	2.95
432.49	2.95
432.697	2.84
432.903	2.83
433.11	3.06
433.317	3.04
433.524	3.16
433.73	3.12
433.937	3.25
434.144	2.96
434.35	2.82
434.557	2.85
434.764	2.93
434.97	2.77
435.177	3.01
435.384	3.04
435.59	2.99
435.797	3.1
436.003	3.17
436.21	3.1
436.416	3.11
436.623	3.11
436.829	2.92
437.036	2.81
437.242	2.84
437.449	2.85
437.655	2.88
437.862	3.05
438.068	3.07
438.275	3.19
438.481	3.23
438.687	3.21
438.894	3.36
439.1	3.3
439.307	3.28
439.513	3.29
439.719	3.33
439.926	3.17
440.132	3.24
440.338	3.23
440.544	3.24
440.751	3.17
440.957	3.22
441.163	3.19
441.369	3.17
441.575	3.15
441.782	3.23
441.988	3.11
442.194	3.12
442.4	3.09
442.606	3.22
442.812	3.16
443.018	3.31
443.224	3.38
443.431	3.39
443.637	3.25
443.843	3.28
444.049	3.38
444.255	3.45
444.461	3.48
444.667	3.51
444.873	3.55
445.079	3.43
445.284	3.34
445.49	3.36
445.696	3.39
445.902	3.34
446.108	3.32
446.314	3.38
446.52	3.48
446.726	3.49
446.931	3.44
447.137	3.54
447.343	3.54
447.549	3.42
447.755	3.4
447.96	3.51
448.166	3.47
448.372	3.45
448.578	3.37
448.783	3.37
448.989	3.42
449.195	3.45
449.4	3.49
449.606	3.55
449.812	3.49
450.017	3.48
450.223	3.48
450.428	3.48
450.634	3.48
450.84	3.58
451.045	3.59
451.251	3.57
451.456	3.67
451.662	3.72
451.867	3.67
452.073	3.77
452.278	3.81
452.483	3.74
452.689	3.71
452.894	3.89
453.1	3.77
453.305	3.77
453.51	3.81
453.716	3.81
453.921	3.68
454.127	3.68
454.332	3.66
454.537	3.55
454.742	3.58
454.948	3.56
455.153	3.62
455.358	3.59
455.563	3.79
455.769	3.81
455.974	3.86
456.179	3.8
456.384	3.75
456.589	3.55
456.795	3.54
457	3.45
457.205	3.38
457.41	3.41
457.615	3.45
457.82	3.53
458.025	3.58
458.23	3.62
458.435	3.66
458.64	3.66
458.845	3.62
459.05	3.63
459.255	3.69
459.46	3.74
459.665	3.75
459.87	3.71
460.075	3.76
460.28	3.8
460.485	3.83
460.69	3.83
460.895	3.9
461.099	3.82
461.304	3.75
461.509	3.74
461.714	3.82
461.919	3.86
462.123	3.86
462.328	3.79
462.533	3.72
462.738	3.68
462.942	3.59
463.147	3.66
463.352	3.8
463.556	3.9
463.761	3.9
463.966	3.89
464.17	3.98
464.375	3.97
464.58	3.85
464.784	3.9
464.989	3.93
465.193	3.8
465.398	3.83
465.602	3.95
465.807	3.88
466.011	3.88
466.216	3.92
466.42	3.95
466.625	3.96
466.829	3.92
467.034	4.01
467.238	4.1
467.443	4.1
467.647	4.05
467.851	4.19
468.056	4.22
468.26	4.17
468.464	4.22
468.669	4.3
468.873	4.28
469.077	4.22
469.282	4.24
469.486	4.17
469.69	4.18
469.894	4.12
470.099	4.19
470.303	4.17
470.507	4.24
470.711	4.24
470.915	4.28
471.119	4.25
471.324	4.34
471.528	4.35
471.732	4.36
471.936	4.45
472.14	4.51
472.344	4.55
472.548	4.61
472.752	4.61
472.956	4.59
473.16	4.52
473.364	4.52
473.568	4.41
473.772	4.38
473.976	4.48
474.18	4.51
474.384	4.48
474.588	4.57
474.792	4.6
474.995	4.57
475.199	4.53
475.403	4.58
475.607	4.56
475.811	4.59
476.015	4.54
476.218	4.62
476.422	4.61
476.626	4.6
476.83	4.6
477.033	4.63
477.237	4.63
477.441	4.62
477.644	4.67
477.848	4.73
478.052	4.78
478.255	4.82
478.459	4.81
478.663	4.92
478.866	4.84
479.07	4.81
479.273	4.9
479.477	4.91
479.681	4.88
479.884	4.91
480.088	4.93
480.291	4.8
480.495	4.82
480.698	4.78
480.901	4.8
481.105	4.85
481.308	4.88
481.512	4.96
481.715	5.01
481.919	5.12
482.122	5.1
482.325	5.13
482.529	5.07
482.732	5.01
482.935	4.95
483.138	4.87
483.342	4.97
483.545	5.09
483.748	5.16
483.952	5.23
484.155	5.36
484.358	5.27
484.561	5.18
484.764	5.11
484.967	5.01
485.171	5.02
485.374	5
485.577	5.03
485.78	5.09
485.983	5.15
486.186	5.06
486.389	5.08
486.592	5.03
486.795	5.06
486.998	5
487.201	5.08
487.404	5.18
487.607	5.3
487.81	5.29
488.013	5.3
488.216	5.31
488.419	5.19
488.622	5.03
488.825	5.04
489.028	5.07
489.231	5.03
489.433	5.15
489.636	5.16
489.839	5.19
490.042	5.2
490.245	5.19
490.447	5.17
490.65	5.26
490.853	5.21
491.056	5.22
491.258	5.24
491.461	5.19
491.664	5.17
491.866	5.13
492.069	5.16
492.272	5.13
492.474	5.19
492.677	5.21
492.879	5.28
493.082	5.27
493.285	5.4
493.487	5.38
493.69	5.33
493.892	5.28
494.095	5.29
494.297	5.24
494.5	5.26
494.702	5.31
494.905	5.34
495.107	5.32
495.309	5.35
495.512	5.34
495.714	5.37
495.917	5.4
496.119	5.4
496.321	5.37
496.524	5.32
496.726	5.25
496.928	5.21
497.13	5.18
497.333	5.13
497.535	5.18
497.737	5.17
497.939	5.18
498.142	5.18
498.344	5.21
498.546	5.17
498.748	5.29
498.95	5.34
499.152	5.43
499.355	5.41
499.557	5.42
499.759	5.41
499.961	5.39
500.163	5.39
500.365	5.52
500.567	5.57
500.769	5.54
500.971	5.54
501.173	5.47
501.375	5.47
501.577	5.49
501.779	5.48
501.981	5.53
502.183	5.58
502.385	5.52
502.587	5.5
502.788	5.53
502.99	5.52
503.192	5.57
503.394	5.58
503.596	5.57
503.798	5.52
503.999	5.56
504.201	5.53
504.403	5.62
504.605	5.7
504.806	5.83
505.008	5.84
505.21	5.88
505.411	5.81
505.613	5.8
505.815	5.78
506.016	5.81
506.218	5.85
506.42	5.85
506.621	5.89
506.823	5.85
507.024	5.83
507.226	5.8
507.427	5.82
507.629	5.82
507.83	5.84
508.032	5.82
508.233	5.81
508.435	5.86
508.636	5.86
508.838	5.85
509.039	5.86
509.24	5.86
509.442	5.86
509.643	5.88
509.845	5.89
510.046	5.97
510.247	6.03
510.448	6.08
510.65	6.14
510.851	6.21
511.052	6.16
511.254	6.16
511.455	6.12
511.656	6.09
511.857	6.08
512.058	6.13
512.26	6.15
512.461	6.15
512.662	6.14
512.863	6.06
513.064	6.07
513.265	6.03
513.466	6.11
513.667	6.18
513.868	6.24
514.069	6.24
514.27	6.24
514.471	6.13
514.672	6.14
514.873	6.17
515.074	6.26
515.275	6.28
515.476	6.35
515.677	6.38
515.878	6.45
516.079	6.41
516.28	6.46
516.481	6.49
516.682	6.45
516.882	6.36
517.083	6.36
517.284	6.38
517.485	6.34
517.686	6.35
517.886	6.38
518.087	6.37
518.288	6.33
518.488	6.32
518.689	6.29
518.89	6.29
519.091	6.36
519.291	6.35
519.492	6.41
519.692	6.46
519.893	6.55
520.094	6.51
520.294	6.51
520.495	6.51
520.695	6.49
520.896	6.41
521.096	6.44
521.297	6.46
521.497	6.47
521.698	6.54
521.898	6.57
522.099	6.54
522.299	6.57
522.499	6.6
522.7	6.57
522.9	6.58
523.101	6.58
523.301	6.57
523.501	6.58
523.702	6.55
523.902	6.59
524.102	6.67
524.302	6.74
524.503	6.75
524.703	6.75
524.903	6.71
525.103	6.67
525.304	6.65
525.504	6.69
525.704	6.74
525.904	6.75
526.104	6.75
526.304	6.79
526.504	6.78
526.705	6.79
526.905	6.78
527.105	6.83
527.305	6.78
527.505	6.7
527.705	6.68
527.905	6.74
528.105	6.72
528.305	6.7
528.505	6.78
528.705	6.82
528.905	6.84
529.105	6.86
529.304	6.94
529.504	6.95
529.704	6.92
529.904	6.87
530.104	6.87
530.304	6.83
530.503	6.84
530.703	6.88
530.903	6.91
531.103	7.01
531.303	7.04
531.502	7.09
531.702	7.12
531.902	7.21
532.101	7.15
532.301	7.19
532.501	7.23
532.7	7.25
532.9	7.2
533.1	7.24
533.299	7.23
533.499	7.21
533.698	7.2
533.898	7.27
534.097	7.28
534.297	7.3
534.496	7.25
534.696	7.28
534.895	7.3
535.095	7.29
535.294	7.35
535.494	7.41
535.693	7.39
535.892	7.34
536.092	7.32
536.291	7.31
536.491	7.3
536.69	7.32
536.889	7.27
537.088	7.34
537.288	7.3
537.487	7.33
537.686	7.32
537.886	7.42
538.085	7.4
538.284	7.47
538.483	7.49
538.682	7.57
538.882	7.54
539.081	7.58
539.28	7.58
539.479	7.59
539.678	7.59
539.877	7.68
540.076	7.7
540.275	7.69
540.474	7.71
540.673	7.75
540.872	7.72
541.071	7.76
541.27	7.82
541.469	7.81
541.668	7.84
541.867	7.9
542.066	7.9
542.265	7.96
542.464	8.02
542.663	8.01
542.862	8.08
543.06	8.16
543.259	8.22
543.458	8.27
543.657	8.32
543.856	8.33
544.054	8.32
544.253	8.31
544.452	8.36
544.651	8.38
544.849	8.39
545.048	8.42
545.247	8.46
545.445	8.49
545.644	8.52
545.843	8.57
546.041	8.6
546.24	8.55
546.438	8.59
546.637	8.64
546.836	8.64
547.034	8.69
547.233	8.8
547.431	8.78
547.63	8.8
547.828	8.83
548.027	8.87
548.225	8.88
548.423	8.95
548.622	9.01
548.82	9.03
549.019	9.08
549.217	9.16
549.415	9.2
549.614	9.31
549.812	9.39
550.01	9.39
550.209	9.44
550.407	9.51
550.605	9.42
550.803	9.46
551.002	9.54
551.2	9.59
551.398	9.69
551.596	9.81
551.794	9.9
551.993	9.96
552.191	10
552.389	9.96
552.587	10.05
552.785	10
552.983	10.09
553.181	10.22
553.379	10.3
553.577	10.32
553.775	10.49
553.973	10.57
554.171	10.57
554.369	10.59
554.567	10.69
554.765	10.77
554.963	10.85
555.161	10.9
555.359	11.02
555.557	11.08
555.755	11.16
555.952	11.19
556.15	11.26
556.348	11.29
556.546	11.42
556.744	11.41
556.941	11.4
557.139	11.52
557.337	11.64
557.535	11.59
557.732	11.68
557.93	11.86
558.128	11.93
558.325	12.07
558.523	12.28
558.721	12.41
558.918	12.51
559.116	12.61
559.313	12.64
559.511	12.68
559.708	12.72
559.906	12.81
560.104	12.9
560.301	12.99
560.498	13.12
560.696	13.28
560.893	13.37
561.091	13.5
561.288	13.59
561.486	13.57
561.683	13.57
561.88	13.67
562.078	13.68
562.275	13.81
562.473	13.99
562.67	14.08
562.867	14.2
563.064	14.3
563.262	14.27
563.459	14.36
563.656	14.49
563.853	14.47
564.051	14.58
564.248	14.79
564.445	14.82
564.642	14.96
564.839	15.12
565.036	15.3
565.234	15.39
565.431	15.54
565.628	15.59
565.825	15.67
566.022	15.7
566.219	15.75
566.416	15.82
566.613	15.9
566.81	15.99
567.007	16.03
567.204	16.04
567.401	16.15
567.598	16.26
567.795	16.37
567.991	16.41
568.188	16.58
568.385	16.62
568.582	16.7
568.779	16.76
568.976	16.92
569.172	17.02
569.369	17.07
569.566	17.1
569.763	17.04
569.96	17.07
570.156	17.08
570.353	17.16
570.55	17.24
570.746	17.41
570.943	17.52
571.14	17.57
571.336	17.61
571.533	17.7
571.729	17.72
571.926	17.82
572.123	17.88
572.319	17.98
572.516	18.06
572.712	18.15
572.909	18.13
573.105	18.22
573.302	18.28
573.498	18.3
573.695	18.33
573.891	18.37
574.087	18.34
574.284	18.34
574.48	18.32
574.677	18.35
574.873	18.39
575.069	18.43
575.266	18.49
575.462	18.51
575.658	18.57
575.854	18.62
576.051	18.73
576.247	18.69
576.443	18.73
576.639	18.73
576.835	18.69
577.032	18.59
577.228	18.64
577.424	18.62
577.62	18.62
577.816	18.61
578.012	18.74
578.208	18.71
578.404	18.83
578.6	18.87
578.796	18.99
578.993	18.96
579.189	19.07
579.384	19.08
579.58	19.09
579.776	19.05
579.972	19.04
580.168	18.95
580.364	18.92
580.56	18.81
580.756	18.78
580.952	18.71
581.148	18.79
581.343	18.79
581.539	18.89
581.735	18.91
581.931	18.89
582.127	18.85
582.322	18.85
582.518	18.84
582.714	18.8
582.909	18.84
583.105	18.78
583.301	18.82
583.496	18.82
583.692	18.78
583.888	18.8
584.083	18.86
584.279	18.76
584.474	18.69
584.67	18.72
584.866	18.76
585.061	18.77
585.257	18.8
585.452	18.9
585.648	18.93
585.843	18.92
586.039	18.91
586.234	18.92
586.429	18.86
586.625	18.86
586.82	18.89
587.015	18.89
587.211	18.86
587.406	18.89
587.601	18.88
587.797	18.78
587.992	18.78
588.187	18.79
588.383	18.81
588.578	18.83
588.773	18.91
588.968	18.98
589.163	19
589.359	18.92
589.554	18.85
589.749	18.83
589.944	18.88
590.139	18.97
590.334	19.11
590.529	19.25
590.724	19.35
590.919	19.33
591.114	19.36
591.309	19.41
591.504	19.47
591.699	19.51
591.894	19.53
592.089	19.5
592.284	19.48
592.479	19.57
592.674	19.6
592.869	19.66
593.064	19.78
593.259	19.86
593.454	19.78
593.648	19.82
593.843	19.84
594.038	19.88
594.233	19.99
594.428	20.12
594.622	20.18
594.817	20.41
595.012	20.42
595.206	20.41
595.401	20.48
595.596	20.6
595.79	20.53
595.985	20.57
596.18	20.7
596.374	20.83
596.569	20.81
596.763	20.89
596.958	20.97
597.153	21.03
597.347	20.95
597.542	21.14
597.736	21.18
597.931	21.26
598.125	21.28
598.319	21.43
598.514	21.43
598.708	21.56
598.903	21.7
599.097	21.74
599.291	21.7
599.486	21.74
599.68	21.74
599.874	21.75
600.069	21.84
600.263	22.01
600.457	22.07
600.651	22.06
600.846	22.11
601.04	22.06
601.234	22.06
601.428	22.08
601.622	22.2
601.817	22.27
602.011	22.37
602.205	22.38
602.399	22.43
602.593	22.45
602.787	22.33
602.981	22.38
603.175	22.42
603.369	22.32
603.563	22.31
603.757	22.34
603.951	22.31
604.145	22.26
604.339	22.47
604.533	22.44
604.727	22.47
604.921	22.41
605.115	22.38
605.309	22.22
605.502	22.22
605.696	22.15
605.89	22.19
606.084	22.21
606.278	22.16
606.471	22.03
606.665	22.01
606.859	21.93
607.053	21.79
607.246	21.72
607.44	21.69
607.634	21.69
607.827	21.61
608.021	21.66
608.214	21.61
608.408	21.59
608.602	21.51
608.795	21.48
608.989	21.38
609.182	21.34
609.376	21.27
609.569	21.24
609.763	21.2
609.956	21.26
610.15	21.19
610.343	21.2
610.537	21.12
610.73	20.99
610.923	20.84
611.117	20.82
611.31	20.69
611.504	20.69
611.697	20.7
611.89	20.64
612.083	20.46
612.277	20.5
612.47	20.33
612.663	20.22
612.856	20.14
613.05	20.12
613.243	19.97
613.436	19.92
613.629	19.8
613.822	19.79
614.015	19.76
614.209	19.67
614.402	19.71
614.595	19.72
614.788	19.56
614.981	19.43
615.174	19.31
615.367	19.11
615.56	19.02
615.753	19.07
615.946	19.1
616.139	19.18
616.332	19.18
616.525	19.09
616.718	18.96
616.911	18.84
617.103	18.8
617.296	18.73
617.489	18.68
617.682	18.69
617.875	18.73
618.067	18.56
618.26	18.48
618.453	18.46
618.646	18.37
618.838	18.31
619.031	18.42
619.224	18.43
619.417	18.42
619.609	18.44
619.802	18.38
619.994	18.21
620.187	18.12
620.38	18.2
620.572	18.16
620.765	18.12
620.957	18.14
621.15	18.14
621.342	18.06
621.535	18.04
621.727	17.97
621.92	17.94
622.112	17.88
622.305	17.79
622.497	17.66
622.69	17.72
622.882	17.8
623.074	17.83
623.267	17.79
623.459	17.8
623.651	17.71
623.844	17.64
624.036	17.61
624.228	17.64
624.42	17.63
624.613	17.65
624.805	17.59
624.997	17.58
625.189	17.49
625.381	17.51
625.574	17.48
625.766	17.43
625.958	17.44
626.15	17.49
626.342	17.43
626.534	17.37
626.726	17.4
626.918	17.36
627.11	17.27
627.302	17.23
627.494	17.3
627.686	17.18
627.878	17.13
628.07	17.19
628.262	17.3
628.454	17.15
628.646	17.19
628.838	17.23
629.029	17.15
629.221	17
629.413	17.06
629.605	16.96
629.797	16.91
629.989	16.92
630.18	16.93
630.372	16.88
630.564	16.96
630.755	16.87
630.947	16.82
631.139	16.66
631.33	16.6
631.522	16.48
631.714	16.46
631.905	16.45
632.097	16.54
632.289	16.54
632.48	16.57
632.672	16.54
632.863	16.42
633.055	16.42
633.246	16.37
633.438	16.39
633.629	16.43
633.821	16.46
634.012	16.41
634.203	16.41
634.395	16.36
634.586	16.38
634.777	16.36
634.969	16.36
635.16	16.3
635.351	16.24
635.543	16.05
635.734	16.06
635.925	16.03
636.117	16.04
636.308	16.17
636.499	16.25
636.69	16.24
636.881	16.23
637.073	16.25
637.264	16.11
637.455	16.09
637.646	16.1
637.837	16.13
638.028	16.05
638.219	16.14
638.41	16.16
638.601	16.14
638.792	16.12
638.983	16.16
639.174	16.04
639.365	16
639.556	15.9
639.747	15.83
639.938	15.92
640.129	15.98
640.32	15.97
640.511	16.02
640.701	16.09
640.892	15.98
641.083	15.91
641.274	15.86
641.465	15.9
641.655	15.85
641.846	15.92
642.037	15.88
642.228	15.87
642.418	15.77
642.609	15.74
642.8	15.65
642.99	15.67
643.181	15.73
643.372	15.8
643.562	15.76
643.753	15.7
643.943	15.61
644.134	15.43
644.324	15.42
644.515	15.42
644.705	15.45
644.896	15.55
645.086	15.63
645.277	15.45
645.467	15.49
645.658	15.48
645.848	15.45
646.038	15.39
646.229	15.47
646.419	15.32
646.61	15.28
646.8	15.22
646.99	15.23
647.18	15.17
647.371	15.13
647.561	15.08
647.751	15.02
647.941	15.02
648.132	15.02
648.322	15.01
648.512	15.03
648.702	15.06
648.892	15.05
649.082	15.02
649.272	14.92
649.462	14.88
649.653	14.78
649.843	14.64
650.033	14.63
650.223	14.77
650.413	14.73
650.603	14.8
650.793	14.83
650.983	14.76
651.172	14.68
651.362	14.68
651.552	14.61
651.742	14.52
651.932	14.6
652.122	14.55
652.312	14.49
652.502	14.32
652.691	14.31
652.881	14.16
653.071	14.07
653.261	13.96
653.45	13.96
653.64	13.88
653.83	13.87
654.019	13.78
654.209	13.73
654.399	13.66
654.588	13.51
654.778	13.34
654.968	13.2
655.157	13.1
655.347	12.97
655.536	12.88
655.726	12.73
655.915	12.68
656.105	12.58
656.294	12.5
656.484	12.42
656.673	12.41
656.863	12.36
657.052	12.26
657.241	12.13
657.431	12.16
657.62	11.91
657.809	11.66
657.999	11.51
658.188	11.41
658.377	11.16
658.567	11.2
658.756	11.16
658.945	11.06
659.134	10.88
659.324	10.69
659.513	10.45
659.702	10.21
659.891	10.11
660.08	9.99
660.269	9.9
660.458	9.78
660.648	9.74
660.837	9.56
661.026	9.37
661.215	9.27
661.404	9.21
661.593	9.08
661.782	8.95
661.971	8.81
662.16	8.67
662.349	8.43
662.538	8.32
662.726	8.26
662.915	8.31
663.104	8.22
663.293	8.2
663.482	8.1
663.671	7.99
663.86	7.88
664.048	7.89
664.237	7.84
664.426	7.82
664.615	7.75
664.803	7.67
664.992	7.54
665.181	7.51
665.369	7.4
665.558	7.42
665.747	7.39
665.935	7.34
666.124	7.3
666.312	7.27
666.501	7.15
666.69	7.11
666.878	7.09
667.067	6.99
667.255	7.01
667.444	7.12
667.632	7.14
667.82	7.18
668.009	7.16
668.197	7.13
668.386	7.03
668.574	7
668.762	6.89
668.951	6.91
669.139	6.83
669.327	6.81
669.516	6.78
669.704	6.79
669.892	6.82
670.08	6.89
670.269	6.84
670.457	6.91
670.645	6.94
670.833	6.97
671.021	7.09
671.21	7.22
671.398	7.24
671.586	7.3
671.774	7.42
671.962	7.41
672.15	7.44
672.338	7.47
672.526	7.56
672.714	7.53
672.902	7.59
673.09	7.76
673.278	7.85
673.466	7.94
673.654	7.95
673.842	8.04
674.03	7.96
674.218	7.96
674.405	7.9
674.593	7.99
674.781	7.93
674.969	8.09
675.157	8.19
675.344	8.36
675.532	8.43
675.72	8.51
675.908	8.36
676.095	8.32
676.283	8.34
676.471	8.39
676.658	8.54
676.846	8.76
677.033	8.9
677.221	8.99
677.409	9.08
677.596	9.12
677.784	9.22
677.971	9.25
678.159	9.39
678.346	9.39
678.534	9.4
678.721	9.41
678.909	9.65
679.096	9.7
679.283	9.79
679.471	10
679.658	10.08
679.846	10.02
680.033	10.2
680.22	10.47
680.408	10.43
680.595	10.56
680.782	10.74
680.969	10.85
681.157	10.8
681.344	10.91
681.531	11
681.718	11.05
681.905	11.22
682.093	11.45
682.28	11.71
682.467	11.83
682.654	12.02
682.841	12.11
683.028	12.18
683.215	12.42
683.402	12.51
683.589	12.73
683.776	12.76
683.963	13.1
684.15	13.2
684.337	13.5
684.524	13.6
684.711	13.89
684.898	13.92
685.085	14.09
685.271	14.37
685.458	14.61
685.645	14.78
685.832	15.07
686.019	15.31
686.205	15.44
686.392	15.79
686.579	16.01
686.766	16.35
686.952	16.64
687.139	17.18
687.326	17.49
687.512	17.83
687.699	18.25
687.886	18.72
688.072	18.9
688.259	19.29
688.445	19.88
688.632	20.15
688.818	20.56
689.005	20.97
689.191	21.44
689.378	22.02
689.564	22.57
689.751	22.94
689.937	23.52
690.124	23.96
690.31	24.28
690.496	24.73
690.683	25.56
690.869	26.07
691.055	26.66
691.242	27.17
691.428	27.79
691.614	28.31
691.8	29.09
691.987	29.72
692.173	30.57
692.359	31.13
692.545	31.88
692.731	32.5
692.918	33.1
693.104	33.61
693.29	34.4
693.476	35.11
693.662	35.75
693.848	36.42
694.034	37.11
694.22	37.79
694.406	38.25
694.592	38.93
694.778	39.67
694.964	40.31
695.15	40.84
695.336	41.39
695.522	42.01
695.708	42.75
695.894	43.39
696.08	44.07
696.265	44.77
696.451	45.24
696.637	45.89
696.823	46.7
697.009	47.44
697.194	48.28
697.38	49.12
697.566	49.69
697.751	50.22
697.937	50.99
698.123	51.28
698.308	51.74
698.494	52.5
698.68	53.04
698.865	53.35
699.051	54.14
699.236	54.95
699.422	55.46
699.607	56.13
699.793	57.04
699.978	57.45
700.164	57.9
700.349	58.34
700.535	58.61
700.72	58.93
700.906	59.52
701.091	59.87
701.276	60.18
701.462	61.12
701.647	61.22
701.832	61.84
702.018	62.36
702.203	63
702.388	62.91
702.573	63.59
702.759	64.07
702.944	64.33
703.129	64.52
703.314	65.09
703.499	65.57
703.684	66
703.87	66.62
704.055	67.16
704.24	67.62
704.425	67.82
704.61	68
704.795	68.54
704.98	68.59
705.165	68.91
705.35	69.28
705.535	69.46
705.72	69.52
705.905	70.29
706.09	70.7
706.275	71.17
706.459	71.44
706.644	71.52
706.829	71.77
707.014	72.19
707.199	72.47
707.384	72.82
707.568	73.31
707.753	73.57
707.938	73.58
708.123	73.61
708.307	74.03
708.492	74.65
708.677	74.84
708.861	74.91
709.046	75.01
709.231	75.18
709.415	74.95
709.6	74.98
709.784	75.36
709.969	75.45
710.153	75.37
710.338	76.02
710.522	76.55
710.707	76.32
710.891	76.91
711.076	76.93
711.26	77.04
711.445	76.72
711.629	77.29
711.813	77.74
711.998	78.48
712.182	78.04
712.366	78.8
712.551	79.05
712.735	79.07
712.919	78.69
713.103	79.22
713.288	79.03
713.472	79.06
713.656	78.67
713.84	78.75
714.024	78.89
714.208	78.78
714.393	78.87
714.577	79.26
714.761	79.36
714.945	79.24
715.129	79.33
715.313	79.6
715.497	79.56
715.681	79.73
715.865	79.82
716.049	80.22
716.233	79.82
716.417	79.91
716.601	80.22
716.785	80.32
716.968	80.18
717.152	80.65
717.336	80.9
717.52	80.82
717.704	81.43
717.888	82.07
718.071	81.82
718.255	82.16
718.439	82.29
718.622	81.67
718.806	81.44
718.99	81.69
719.174	81.54
719.357	81.7
719.541	82.08
719.724	81.69
719.908	81.92
720.092	81.81
720.275	81.82
720.459	81.79
720.642	82.22
720.826	82.11
721.009	82.71
721.193	82.45
721.376	82.87
721.559	83.01
721.743	83.75
721.926	83.69
722.11	84.49
722.293	84.92
722.476	84.8
722.66	84.58
722.843	84.79
723.026	84.98
723.21	84.55
723.393	85.09
723.576	85.06
723.759	85
723.942	84.85
724.126	85.25
724.309	84.61
724.492	84.53
724.675	84.46
724.858	84.74
725.041	84.64
725.224	85.32
725.407	85.58
725.59	85.72
725.774	85.55
725.957	85.58
726.14	85.6
726.322	85.79
726.505	85.78
726.688	85.98
726.871	85.52
727.054	85.48
727.237	85.29
727.42	85.44
727.603	85.51
727.786	86.07
727.968	86.24
728.151	86.08
728.334	86.09
728.517	86.18
728.699	86.27
728.882	86.24
729.065	86.42
729.248	86.21
729.43	85.97
729.613	85.68
729.796	86.32
729.978	86.19
730.161	86.68
730.343	87.19
730.526	87.19
730.708	86.5
730.891	87.51
731.073	87.78
731.256	87.97
731.438	88.9
731.621	88.89
731.803	88.37
731.986	88.25
732.168	88.26
732.35	87.8
732.533	87.96
732.715	88.03
732.898	87.46
733.08	87.25
733.262	86.88
733.444	87.72
733.627	87.64
733.809	88.64
733.991	89.03
734.173	89.98
734.355	89.2
734.538	89.53
734.72	89.56
734.902	89.32
735.084	88.64
735.266	89.6
735.448	90.13
735.63	89.58
735.812	89.76
735.994	89.79
736.176	89.55
736.358	89.29
736.54	89.73
736.722	89.6
736.904	90.26
737.086	89.35
737.268	90.05
737.45	90.45
737.632	90.76
737.814	91.01
737.995	91.8
738.177	91.4
738.359	91
738.541	90.44
738.723	89.89
738.904	89.39
739.086	90.01
739.268	89.87
739.449	89.45
739.631	89.78
739.813	89.28
739.994	87.85
740.176	88.01
740.358	89.29
740.539	89.34
740.721	91.1
740.902	91.18
741.084	91.63
741.265	92.18
741.447	91.91
741.628	91.02
741.81	91.79
741.991	91.8
742.172	90.06
742.354	90.18
742.535	89.92
742.717	89.23
742.898	88.26
743.079	89.81
743.261	90.28
743.442	89.43
743.623	89.62
743.804	90.18
743.986	89.88
744.167	89.72
744.348	90.14
744.529	90.57
744.71	90.4
744.891	88.98
745.073	89.03
745.254	89.89
745.435	90.31
745.616	90.17
745.797	90.49
745.978	90.14
746.159	89.93
746.34	89.95
746.521	90.24
746.702	91.23
746.883	91.12
747.064	91.28
747.245	90.29
747.426	89.59
747.606	89.61
747.787	90.36
747.968	90.51
748.149	90.72
748.33	91.08
748.51	89.99
748.691	89.35
748.872	90.22
749.053	89.99
749.233	89.8
749.414	90.6
749.595	91.35
749.775	89.41
749.956	88.78
750.137	88.94
750.317	87.37
750.498	86.44
750.678	86.93
750.859	88.19
751.04	87.65
751.22	88.29
751.4	88.57
751.581	88.98
751.761	88.25
751.942	89.79
752.122	90.13
752.303	89.56
752.483	89.61
752.663	89.86
752.844	89.11
753.024	90.07
753.204	91.12
753.385	90.05
753.565	89.92
753.745	89.77
753.925	88.95
754.106	89.3
754.286	89.58
754.466	90.42
754.646	90.28
754.826	90.67
755.006	88.37
755.187	90.34
755.367	89.18
755.547	89.82
755.727	89.32
755.907	90.09
756.087	88.29
756.267	87.39
756.447	87.87
756.627	87.39
756.807	88.67
756.987	89.29
757.167	90.92
757.346	89.57
757.526	90.77
757.706	89.92
757.886	89.24
758.066	89.08
758.246	88.26
758.425	86.72
758.605	85.6
758.785	86.39
758.965	86.05
759.144	86.61
759.324	87.92
759.504	88.87
759.683	87.66
759.863	87.79
760.043	88.21
760.222	88.82
760.402	87.64
760.581	90
760.761	89.82
760.94	88.87
761.12	88.03
761.299	89.91
761.479	88.47
761.658	88.48
761.838	89.54
762.017	89.18
762.197	87.12
762.376	86.6
762.555	86.31
762.735	87.18
762.914	86.57
763.093	88.03
763.273	87.84
763.452	87.52
763.631	85.14
763.81	86.57
763.99	85.79
764.169	86.21
764.348	86.8
764.527	88.16
764.706	86.98
764.885	87.3
765.064	87.38
765.243	86.24
765.423	86.58
765.602	87.79
765.781	85.66
765.96	85.15
766.139	85.56
766.318	85.27
766.497	82.85
766.676	83.99
766.854	85.21
767.033	85.25
767.212	87.08
767.391	89.15
767.57	91.15
767.749	89.69
767.928	90.38
768.106	87.69
768.285	85.6
768.464	84.23
768.643	83.87
768.821	83.13
769	82.7
769.179	83.64
769.357	83.76
769.536	83.84
769.715	81.63
769.893	82.42
770.072	81.77
770.25	80.46
770.429	80.43
770.607	82.11
770.786	82.1
770.964	84.04
771.143	85.73
771.321	83.62
771.5	85.08
771.678	83.63
771.857	81.57
772.035	82.55
772.213	83.78
772.392	81.39
772.57	83.36
772.748	82.6
772.927	81.25
773.105	81.85
773.283	81.93
773.461	83.62
773.64	83.65
773.818	84.19
773.996	85.46
774.174	85.97
774.352	82.28
774.531	82.26
774.709	81.29
774.887	79.31
775.065	79.41
775.243	80.52
775.421	82.02
775.599	83.13
775.777	82.26
775.955	80.89
776.133	80.73
776.311	80.21
776.489	78.38
776.667	79.05
776.844	80.81
777.022	79.53
777.2	80.12
777.378	79.04
777.556	80.51
777.734	81.17
777.911	81.61
778.089	81.25
778.267	83.98
778.445	84.86
778.622	85.31
778.8	83.66
778.978	83.62
779.155	83.59
779.333	83
779.511	80.19
779.688	84.57
779.866	83.63
780.043	84.3
780.221	83.96
780.398	84.33
780.576	81.62
780.753	81.76
780.931	80.91
781.108	83
781.286	84.37
781.463	82.35
781.64	83.5
781.818	84.19
781.995	80.83
782.172	78.86
782.35	79.82
782.527	78.81
782.704	75.5
782.882	73.6
783.059	73.93
783.236	77.48
783.413	76.5
783.59	77.39
783.768	77.65
783.945	78.96
784.122	75.94
784.299	77.12
784.476	74.64
784.653	75.28
784.83	75.14
785.007	72.72
785.184	72.65
785.361	76.56
785.538	76.92
785.715	80.2
785.892	82.13
786.069	86.1
786.246	85.3
786.423	84.86
786.6	81.3
786.776	83.17
786.953	77.37
787.13	79.32
787.307	80.56
787.484	77.44
787.66	75.44
787.837	75.67
788.014	74.94
788.191	73.9
788.367	76.53
788.544	77.87
788.721	77.29
788.897	76.67
789.074	78.47
789.25	77.81
789.427	77.24
789.603	77.81
789.78	78.03
789.956	75.72
790.133	75.42
790.309	77.23
790.486	77.41
790.662	75.03
790.839	74.4
791.015	76.36
791.192	74.56
791.368	75.23
791.544	74.97
791.721	73.96
791.897	74.73
792.073	70.99
792.249	67.38
792.426	69.74
792.602	70.09
792.778	69.99
792.954	73.23
793.13	75.26
793.307	75.12
793.483	76.33
793.659	75.68
793.835	77.04
794.011	80.64
794.187	78.3
794.363	77.88
794.539	74.33
794.715	70.47
794.891	69.46
795.067	69.49
795.243	73.43
795.419	76.33
795.595	82
795.771	76.38
795.947	77.96
796.122	68.59
796.298	63.85
796.474	65.51
796.65	71.39
796.826	68.26
797.001	72.87
797.177	68.92
797.353	65.76
797.529	67.19
797.704	69.77
797.88	68.57
798.056	73.87
798.231	66.47
798.407	64.84
798.582	64.02
798.758	64.01
798.934	67.31
799.109	71.49
799.285	70.59
799.46	65.55
799.636	68.19
799.811	67.57
799.986	71.89
800.162	68.39
800.337	77.19
800.513	74.71
800.688	68.88
800.863	71.98
801.039	70.61
801.214	63.42
801.389	64.91
801.565	67.84
801.74	61.25
801.915	65.78
802.09	69.09
802.265	70.51
802.441	72.21
802.616	73.45
802.791	75.85
802.966	75.92
803.141	76.64
803.316	75.48
803.491	74.4
803.666	75.39
803.841	76.79
804.016	73.29
804.191	73.66
804.366	70.85
804.541	71.4
804.716	68.75
804.891	69.43
805.066	74.4
805.241	72.89
805.416	71.81
805.591	74.21
805.765	78.98
805.94	72.86
806.115	77.38
806.29	67.56
806.464	65.43
806.639	59.85
806.814	59.01
806.989	62.05
807.163	75.38
807.338	75.34
807.512	79.82
807.687	80.79
807.862	80.08
808.036	74.07
808.211	74.24
808.385	65.97
808.56	69.24
808.734	66.25
808.909	71.39
809.083	75.03
809.258	81.91
809.432	78.31
809.606	76.71
809.781	68.42
809.955	64.04
810.13	56.38
810.304	58.57
810.478	60.29
810.652	60.03
810.827	64.26
811.001	68.44
811.175	72.52
811.349	73.89
811.524	76.43
811.698	71.08
811.872	73.03
812.046	64.02
812.22	62.7
812.394	62.94
812.568	68.48
812.742	67.03
812.916	73.78
813.09	72.11
813.264	67.6
813.438	63.71
813.612	56.9
813.786	49.66
813.96	54.38
814.134	53.64
814.308	56.22
814.482	58.25
814.656	65.3
814.83	61.28
815.003	63.36
815.177	57.59
815.351	64.75
815.525	69.11
815.698	64.39
815.872	54.38
816.046	51.49
816.219	54.07
816.393	41.51
816.567	51.53
816.74	57.69
816.914	62.02
817.088	59.88
817.261	57.8
817.435	50.39
817.608	47.61
817.782	41.66
817.955	45.01
818.129	55.21
818.302	59.99
818.475	67.6
818.649	68.15
818.822	59.51
818.996	78.97
819.169	78.24
819.342	81.19
819.516	82.87
819.689	82.52
819.862	66.24
820.035	65.34
820.209	54.1
820.382	53.77
820.555	48.5
820.728	47.64
820.901	43.42
821.075	55.05
821.248	69.31
821.421	67.13
821.594	63.89
821.767	64.95
821.94	46.88
822.113	44.86
822.286	57.62
822.459	57.4
822.632	59.95
822.805	73.81
822.978	70
823.151	58.44
823.324	50.98
823.496	57.38
823.669	60.19
823.842	55.68
824.015	49.56
824.188	57.75
824.361	51.05
824.533	45.23
824.706	61.81
824.879	78.12
825.051	82.18
825.224	85.69
825.397	78.27
825.569	71.14
825.742	71.34
825.915	74.69
826.087	54.94
826.26	54.02
826.432	49.65
826.605	36.1
826.777	38.71
826.95	44.53
827.122	33.63
827.295	52.64
827.467	57.81
827.64	30.68
827.812	27.79
827.984	58.74
828.157	36.61
828.329	54.07
828.501	69.98
828.674	70.63
828.846	73.09
829.018	61.8
829.19	42.04
829.363	40.82
829.535	46.94
829.707	52.98
829.879	58.34
830.051	65.32
830.223	67.93
830.395	60.31
830.568	49.22
830.74	45.4
830.912	44.82
831.084	35.15
831.256	42.46
831.428	46.21
831.6	33.18
831.772	29.3
831.943	24.56
832.115	34.34
832.287	29.65
832.459	48.92
832.631	63.9
832.803	69.64
832.975	60.22
833.146	55.6
833.318	61.59
833.49	58.13
833.662	65
833.833	60.39
834.005	69.21
834.177	60.71
834.348	52.09
834.52	42.23
834.692	32.77
834.863	27.38
835.035	39.22
835.206	41.66
835.378	44.84
835.549	56.86
835.721	51.08
835.892	49.58
836.064	50.19
836.235	64.25
836.407	62.1
836.578	68.6
836.749	45.76
836.921	46.33
837.092	18.83
837.264	23.5
837.435	11.47
837.606	35.92
837.777	31.66
837.949	50.73
838.12	50.49
838.291	59.01
838.462	61
838.633	70.43
838.805	49.46
838.976	51.91
839.147	61.82
839.318	52.81
839.489	45.98
839.66	68.36
839.831	59.01
840.002	40.78
840.173	47.29
840.344	53.82
840.515	43.92
840.686	46.15
840.857	44.67
841.028	36.47
841.199	29.28
841.369	14.86
841.54	-14.67
841.711	43.78
841.882	78.3
842.053	72.98
842.223	71.23
842.394	70
842.565	42.09
842.736	31.95
842.906	22.31
843.077	33.41
843.248	47.29
843.418	40.15
843.589	28.23
843.759	58.03
843.93	70.52
844.101	76.5
844.271	108.85
844.442	94.27
844.612	68.81
844.783	63.12
844.953	53.1
845.123	40.24
845.294	55.54
845.464	36.73
845.635	31.97
845.805	30.94
845.975	66.81
846.146	28.02
846.316	45.03
846.486	49.51
846.656	47.06
846.827	33.9
846.997	43.17
847.167	39.13
847.337	41.09
847.507	44.11
847.677	41.95
847.848	52.65
848.018	69.54
848.188	61.84
848.358	52.94
848.528	60.63
848.698	55.7
848.868	35.43
849.038	24.91
849.208	33.34
849.378	26.38
849.548	3.25
849.718	1.85
849.887	-16.4
850.057	-25.47
850.227	11.85
850.397	33.67
850.567	13.13
850.737	44.1
850.906	33.86
851.076	4.42
851.246	15.05
851.415	41.69
851.585	36.59
851.755	55.6
851.924	61.97
852.094	41.9
852.264	18.28
852.433	-16.46
852.603	-57.46
852.772	-44.7
852.942	17.23
853.111	8.56
853.281	27.93
853.45	42.25
853.62	37.73
853.789	-15.87
853.959	28.57
854.128	35.65
854.297	30.91
854.467	33.89
854.636	56.24
854.805	26.65
854.975	28.83
855.144	24.99
855.313	29.94
855.482	17.54
855.652	9.76
855.821	-21.2
855.99	1.45
856.159	1.52
856.328	7.58
856.497	25.4
856.667	31.95
856.836	32.88
857.005	1.45
857.174	-8.11
857.343	-25.84
857.512	-6.08
857.681	-21.72
857.85	-1.46
858.019	7.33
858.188	37.16
858.356	21.35
858.525	18.16
858.694	32.01
858.863	22.85
859.032	15.62
859.201	-34.87
859.369	-38.32
859.538	-11.44
859.707	-19.3
859.876	-3.65
860.044	44.25
860.213	48.65
860.382	40.02
860.55	35.68
860.719	40.71
860.888	18.73
861.056	7.03
861.225	-2.12
861.393	-0.08
861.562	-4.93
861.73	-2.82
861.899	-8.43
862.067	-9.37
862.236	3.52
862.404	6.69
862.572	6.5
862.741	10.45
862.909	-1.92
863.078	-30.24
863.246	-36.89
863.414	-3.31
863.582	2.87
863.751	7.75
863.919	30.98
864.087	41.16
864.255	40.9
864.424	20.6
864.592	54.78
864.76	62.67
864.928	75.76
865.096	60.7
865.264	81.01
865.432	58.23
865.6	54.46
865.768	12.44
865.936	17.18
866.104	-8.4
866.272	-40.01
866.44	-25.57
866.608	-5.46
866.776	1.3
866.944	27.05
867.112	27.23
867.28	34.14
867.448	49.08
867.615	35.69
867.783	21.04
867.951	26.04
868.119	16.82
868.286	-8.58
868.454	17.57
868.622	-3.71
868.789	-9.29
868.957	17.61
869.125	25.87
869.292	1.51
869.46	24.13
869.627	-2.78
869.795	-65.82
869.963	-30.01
870.13	-7.43
870.298	-9.98
870.465	17.47
870.632	31.87
870.8	1.55
870.967	-10.17
871.135	12.35
871.302	24.46
871.469	35.16
871.637	50.09
871.804	48.5
871.971	5.45
872.139	-7.75
872.306	-59.37
872.473	-100.49
872.64	-246.91
872.807	-244.89
872.975	-443.11
873.142	-62.22
873.309	-21.36
873.476	56.76
873.643	112.86
873.81	81.44
873.977	58.24
874.144	43.37
874.311	-51.3
874.478	-151.43
874.645	-193.15
874.812	-61.27
874.979	-72.09
875.146	-82.32
875.313	-1.46
875.48	16.81
875.647	-0.92
875.813	-10.49
875.98	-19.6
876.147	-118.95
876.314	-46.82
876.481	-85.74
876.647	-13.6
876.814	-0.88
876.981	32.84
877.147	15.81
877.314	33.45
877.481	16.28
877.647	15.28
877.814	14.05
877.98	26.88
878.147	55.47
878.314	58.42
878.48	75.99
878.647	55.34
878.813	61.49
878.979	18.97
879.146	31.78
879.312	13.39
879.479	29.17
879.645	38.73
879.811	23.36
879.978	31.09
880.144	38.22
880.31	49.77
880.477	30.69
880.643	36.69
880.809	34.84
880.975	19.71
881.142	-70.16
881.308	229.74
881.474	165.1
881.64	-32.72
881.806	-30.48
881.972	-10.67
882.138	10.34
882.304	-24.99
882.47	-37.15
882.636	-45.26
882.802	-12.06
882.968	16.88
883.134	41.89
883.3	20.5
883.466	107.4
883.632	139.01
883.798	101.5
883.964	178.53
884.129	999.56
884.295	166.62
884.461	94.68
884.627	84.38
884.793	36.94
884.958	55.18
885.124	42.96
885.29	-32.71
885.455	-88.93
885.621	-20.14
885.787	-41.22
885.952	-54.15
886.118	10.56
886.283	9.92
886.449	5.36
886.614	-7.43
886.78	-6.76
886.945	31
887.111	-0.1
887.276	-39.06
887.442	-59.62
887.607	-23.72
887.773	-45.13
887.938	-28.01
888.103	4.48
888.269	22.88
888.434	27.25
888.599	14.91
888.764	23.1
888.93	27.83
889.095	24.79
889.26	-14.2
889.425	-2.37
889.59	-31.35
889.756	-40.62
889.921	-17.21
890.086	97.95
890.251	184.95
890.416	92.48
890.581	121.22
890.746	114.72
890.911	46.37
891.076	18.21
891.241	35.05
891.406	27.09
891.571	39.2
891.736	76.83
891.901	77.99
892.065	39.56
892.23	53.85
892.395	0.34
892.56	-15.39
892.725	-45.33
892.889	-61.16
893.054	-6.6
893.219	-27.78
893.384	-12.59
893.548	-76.59
893.713	-103.12
893.878	-233.09
