Data from Ofra_PS_T2_1A_2GT41_Reflection_3.txt Node
Date: Wed Jul 21 17:57:12 EDT 2021
User: Adam
Spectrometer: FLMT01687
Trigger mode: 0
Integration Time (sec): 1.100000E0
Scans to average: 2
Electric dark correction enabled: true
Nonlinearity correction enabled: false
Boxcar width: 2
XAxis mode: Wavelengths
Number of Pixels in Spectrum: 3648
>>>>>Begin Spectral Data<<<<<
179.494	651.4
179.716	681.65
179.937	607.31
180.158	572.31
180.38	885.16
180.601	275.28
180.823	85.23
181.044	-103.67
181.265	-50.55
181.486	-39.34
181.708	-8.26
181.929	-183.16
182.15	-275
182.372	54.65
182.593	-39.81
182.814	-22.25
183.035	9.87
183.257	37.84
183.478	-14.73
183.699	78.33
183.92	78.77
184.141	89.23
184.363	42.04
184.584	57.13
184.805	33.86
185.026	41.66
185.247	40.01
185.468	19.36
185.689	30.54
185.91	31.52
186.132	44.92
186.353	25
186.574	114.73
186.795	88.69
187.016	53.93
187.237	15.12
187.458	17.88
187.679	-8.55
187.9	18.84
188.121	21.39
188.342	63.21
188.563	90.37
188.784	116.17
189.005	112.75
189.226	176.06
189.447	185.9
189.667	139.68
189.888	-50.37
190.109	-689.94
190.33	-464.68
190.551	-982.52
190.772	-117.01
190.993	-92.42
191.214	-51.15
191.434	-18.33
191.655	27.21
191.876	-4.31
192.097	-45.67
192.318	-75.67
192.538	-146.11
192.759	-144.98
192.98	-80.05
193.201	-46.53
193.421	-27.77
193.642	-7.7
193.863	22.44
194.083	9.54
194.304	12.81
194.525	20.53
194.745	34.75
194.966	-26.18
195.187	-32.93
195.407	-60.97
195.628	-126.77
195.848	-142.37
196.069	-103.16
196.29	-35.02
196.51	-25.72
196.731	-21.67
196.951	-12.82
197.172	-73.75
197.392	-107.46
197.613	-127.74
197.833	-143.06
198.054	-118.84
198.274	-27.79
198.495	-41.03
198.715	2.96
198.936	-4.99
199.156	2.38
199.377	-105.47
199.597	-103.2
199.817	-112.23
200.038	-40.23
200.258	-101.36
200.479	-35.02
200.699	-17.54
200.919	8.47
201.14	-20.47
201.36	-34.55
201.58	13.94
201.801	33.6
202.021	7.96
202.241	8
202.461	20.23
202.682	-18.85
202.902	-68.65
203.122	-27.01
203.342	-7.24
203.563	42.91
203.783	64.09
204.003	52.29
204.223	71.93
204.443	108.86
204.663	76.93
204.884	51.83
205.104	80.9
205.324	88.39
205.544	34.82
205.764	48.58
205.984	51.92
206.204	60.3
206.424	48.28
206.644	46.81
206.864	64.41
207.084	69.4
207.304	115.65
207.525	107.73
207.745	49.48
207.964	30.75
208.184	-37.76
208.404	-105.37
208.624	-105.74
208.844	-115.75
209.064	-410.66
209.284	-384
209.504	-184.1
209.724	-24.08
209.944	-0.74
210.164	35.69
210.384	48.19
210.604	52.17
210.823	-2.11
211.043	-12.94
211.263	0.2
211.483	-2.49
211.703	-55.71
211.922	-17.62
212.142	25.58
212.362	29.82
212.582	-0.02
212.801	9.12
213.021	-9
213.241	-23.78
213.461	-54.54
213.68	-67.32
213.9	-38.04
214.12	-22.15
214.339	-82.76
214.559	-62.13
214.779	7.77
214.998	11.42
215.218	-27.65
215.438	-3.28
215.657	-8.34
215.877	-44.2
216.096	-23.6
216.316	3.22
216.535	-1.43
216.755	-17.53
216.974	-77.98
217.194	-131.98
217.413	-162.4
217.633	-157.97
217.852	-202.16
218.072	-82.55
218.291	-24.36
218.511	30.23
218.73	14.85
218.95	0.15
219.169	-2.89
219.389	-41.8
219.608	-44.46
219.827	-41.89
220.047	-39.57
220.266	-29.16
220.485	-31.79
220.705	-27.83
220.924	-39.5
221.143	13.23
221.363	-7.03
221.582	12.92
221.801	25.47
222.021	37.17
222.24	-29.78
222.459	38.68
222.678	10.16
222.897	-107.79
223.117	-164.1
223.336	-103.05
223.555	-73.59
223.774	-35.66
223.993	42.88
224.213	139.67
224.432	104.93
224.651	105.12
224.87	73.38
225.089	78.55
225.308	69.03
225.527	77.59
225.746	67.55
225.965	48.79
226.184	8.07
226.404	5.74
226.623	-36.94
226.842	-22.66
227.061	9.38
227.28	16.77
227.499	6.75
227.718	32.45
227.936	24.48
228.155	37.84
228.374	18.34
228.593	22.84
228.812	26.36
229.031	18.37
229.25	-26.22
229.469	-17.02
229.688	-19.56
229.907	-19.44
230.125	9.44
230.344	6.95
230.563	40.13
230.782	48.73
231.001	8.08
231.22	2.31
231.438	29.56
231.657	18.23
231.876	10.72
232.095	57.79
232.313	57.3
232.532	68.11
232.751	43.05
232.969	18.15
233.188	-15.07
233.407	47.76
233.625	22.85
233.844	16.88
234.063	34.05
234.281	39.56
234.5	15.92
234.719	17.2
234.937	25.56
235.156	22.39
235.374	-0.01
235.593	-12.12
235.811	-6.05
236.03	7.76
236.249	-37.16
236.467	-3.51
236.686	22.69
236.904	23.39
237.123	-14.42
237.341	-3.23
237.559	-12.17
237.778	-40.83
237.996	-72.79
238.215	-10.71
238.433	11.36
238.652	34.24
238.87	11.69
239.088	28.81
239.307	17.31
239.525	0.91
239.743	-44.3
239.962	-39.85
240.18	-68.93
240.398	-94.9
240.617	-91.85
240.835	-60.43
241.053	-21.19
241.271	29.22
241.49	36.97
241.708	32.93
241.926	37.71
242.144	13.54
242.363	-35.01
242.581	-46.29
242.799	-15.44
243.017	-1.02
243.235	-24.49
243.453	-15.42
243.672	-20.76
243.89	-22.74
244.108	-30.1
244.326	2.25
244.544	1.97
244.762	12.9
244.98	36.55
245.198	43.79
245.416	7.63
245.634	21.25
245.852	11.26
246.07	-28.92
246.288	-43.19
246.506	-43.82
246.724	-42.43
246.942	-45.01
247.16	-0.46
247.378	7.1
247.596	29.17
247.814	32.83
248.032	10.73
248.25	12.15
248.468	5.66
248.685	14.82
248.903	30.3
249.121	39.1
249.339	10.74
249.557	17.52
249.775	14.94
249.992	-40.65
250.21	-42.51
250.428	-31.49
250.646	-60.02
250.863	-81.89
251.081	-30.63
251.299	-15.96
251.517	21.91
251.734	35.25
251.952	25.16
252.17	4.16
252.387	19.07
252.605	-0.15
252.823	1.74
253.04	30.54
253.258	52.66
253.475	50.91
253.693	73.72
253.911	65.92
254.128	64.18
254.346	65.47
254.563	35.79
254.781	18.75
254.998	-3.69
255.216	-27.27
255.433	-19.94
255.651	14.52
255.868	56.76
256.086	97.06
256.303	93.62
256.521	70.39
256.738	45.3
256.956	-3.6
257.173	-29.66
257.39	-36.9
257.608	-67.52
257.825	-8.43
258.043	49.66
258.26	64.98
258.477	97.41
258.695	100.44
258.912	55.78
259.129	34.06
259.346	-15.9
259.564	-64.71
259.781	-85.12
259.998	-4.66
260.216	9.62
260.433	40.53
260.65	48.2
260.867	59.14
261.084	23.99
261.302	19.91
261.519	13.22
261.736	-27.37
261.953	-44.14
262.17	-24.71
262.387	-65.68
262.604	-54.33
262.822	-53.29
263.039	-39.75
263.256	-53.23
263.473	-5.62
263.69	-11.37
263.907	27.78
264.124	52.41
264.341	45.39
264.558	32.12
264.775	41.09
264.992	33.14
265.209	16.89
265.426	27.45
265.643	25.4
265.86	44.62
266.077	54.8
266.294	41.4
266.51	20.05
266.727	9.41
266.944	-15.27
267.161	-21.11
267.378	-6.04
267.595	12.82
267.812	-16.87
268.028	-24.11
268.245	-16.06
268.462	-30.63
268.679	-25.89
268.896	46.82
269.112	51.87
269.329	44.06
269.546	56.67
269.763	47.36
269.979	16.38
270.196	4.08
270.413	-22.47
270.629	-56.6
270.846	-54.15
271.063	-48.41
271.279	-66.51
271.496	-55.61
271.712	-17.78
271.929	-18.42
272.146	-7.74
272.362	0.52
272.579	34.42
272.795	53.07
273.012	65.83
273.228	46.85
273.445	32.48
273.661	-6.13
273.878	-52.28
274.094	-67.52
274.311	-74.39
274.527	8.47
274.744	20.91
274.96	8.34
275.177	12.53
275.393	27.72
275.609	19.74
275.826	35.24
276.042	43.33
276.259	41.97
276.475	37.87
276.691	31.21
276.908	0.46
277.124	17.8
277.34	20
277.557	12.18
277.773	-5.7
277.989	8.59
278.205	4.43
278.422	18.65
278.638	25.87
278.854	50.36
279.07	52.26
279.286	29.21
279.503	-1.75
279.719	-12.53
279.935	-39.96
280.151	-55.08
280.367	-25.98
280.583	-30.04
280.799	-24.52
281.016	-45.88
281.232	-7.14
281.448	-6.45
281.664	17.35
281.88	-11.71
282.096	10.83
282.312	29.12
282.528	53.47
282.744	64.98
282.96	68.43
283.176	41.38
283.392	24.09
283.608	9.73
283.824	-2.36
284.04	-1.05
284.256	15.59
284.471	12.1
284.687	8.77
284.903	32.39
285.119	61.11
285.335	29.88
285.551	40.61
285.767	24.74
285.982	5.86
286.198	-54.32
286.414	12.31
286.63	21.8
286.846	34.55
287.061	19.97
287.277	58.41
287.493	35.94
287.709	34.88
287.924	21.37
288.14	40.76
288.356	39.16
288.571	46.39
288.787	27.27
289.003	26.6
289.218	13.01
289.434	-27.62
289.65	-25.89
289.865	-16.73
290.081	21.28
290.296	30.05
290.512	37.53
290.727	1.74
290.943	-11.07
291.159	-24.81
291.374	-38.72
291.59	-57.01
291.805	-38.96
292.021	-15.79
292.236	-14.97
292.451	4.97
292.667	14.3
292.882	33.13
293.098	20.64
293.313	1.84
293.529	-18.92
293.744	-21.4
293.959	-26.83
294.175	-24.99
294.39	12.01
294.605	32.03
294.821	50.59
295.036	58.4
295.251	61.45
295.467	21
295.682	5.18
295.897	-36
296.112	-50.06
296.328	-35.59
296.543	-26.23
296.758	-12.68
296.973	6.24
297.188	26.01
297.404	2.49
297.619	-15.12
297.834	-21.69
298.049	-21.95
298.264	-42.12
298.479	7.06
298.694	28.49
298.909	37.9
299.125	36.29
299.34	47.44
299.555	25.39
299.77	31.15
299.985	-9.11
300.2	-53.21
300.415	-80.66
300.63	-49.76
300.845	-60.21
301.06	-52
301.275	-19.42
301.49	15.96
301.704	1.12
301.919	-7.39
302.134	-14.31
302.349	-14.74
302.564	-67.45
302.779	-78.51
302.994	-21.67
303.209	-7.05
303.423	6.53
303.638	38.98
303.853	5.77
304.068	-16.32
304.283	-7.95
304.497	-6.13
304.712	-16.12
304.927	3.19
305.142	12.1
305.356	14.86
305.571	1.93
305.786	-22.95
306	-40.55
306.215	-56.38
306.43	-70.33
306.644	-44.74
306.859	29.45
307.074	34.08
307.288	2.63
307.503	-11
307.717	-40.46
307.932	-45.79
308.147	-46.8
308.361	-18.44
308.576	-28.91
308.79	-47.76
309.005	-46.51
309.219	-35.59
309.434	-42.24
309.648	-23.93
309.863	0.93
310.077	13.9
310.292	10.08
310.506	20.38
310.72	27.42
310.935	37.89
311.149	23
311.364	35.11
311.578	46.95
311.792	41.08
312.007	37.57
312.221	21.8
312.435	15.37
312.649	-16.59
312.864	-21.38
313.078	-0.7
313.292	60.2
313.507	38.6
313.721	79.75
313.935	58.04
314.149	28.35
314.363	18.81
314.578	29.16
314.792	21.67
315.006	11.22
315.22	35.05
315.434	34.66
315.648	40.21
315.862	49.29
316.077	45.21
316.291	15.91
316.505	35.36
316.719	24.35
316.933	0.81
317.147	22.01
317.361	-21.77
317.575	-43.27
317.789	-86.94
318.003	-132.64
318.217	-137.93
318.431	-48.68
318.645	-7
318.859	15.14
319.073	35.08
319.287	29.86
319.5	7.73
319.714	-35.74
319.928	-62.03
320.142	-86.86
320.356	-16.57
320.57	25.45
320.784	29.51
320.997	49.01
321.211	62.65
321.425	-28.16
321.639	-51.77
321.853	8.13
322.066	24.83
322.28	13.44
322.494	34.18
322.707	43.12
322.921	13.78
323.135	-10.24
323.349	21.87
323.562	5.79
323.776	1.76
323.989	7.75
324.203	-0.81
324.417	-40.61
324.63	-46.19
324.844	-42.04
325.057	-37.28
325.271	-6.22
325.485	22.49
325.698	41.94
325.912	42.74
326.125	20.54
326.339	20.72
326.552	1.37
326.766	-11.35
326.979	10.63
327.193	45.91
327.406	29.41
327.619	19.36
327.833	42.39
328.046	6.32
328.26	-28.28
328.473	0.62
328.686	-12.96
328.9	-7.37
329.113	20.2
329.326	10.41
329.54	6.39
329.753	6.8
329.966	-24.69
330.179	-14.44
330.393	17.54
330.606	31.84
330.819	56.21
331.032	58.25
331.246	54.06
331.459	69.86
331.672	45.51
331.885	29.57
332.098	3.33
332.311	-22.84
332.525	-107.19
332.738	-47.02
332.951	-21.82
333.164	11.92
333.377	41.75
333.59	71.11
333.803	59.96
334.016	47.7
334.229	54.43
334.442	47.59
334.655	62.21
334.868	43.34
335.081	33.08
335.294	13.24
335.507	-5.68
335.72	-18.45
335.933	-21.02
336.146	-23.03
336.359	-11.02
336.572	-11.81
336.785	-44.61
336.997	-41.94
337.21	-26.93
337.423	-30.52
337.636	-35.89
337.849	-7.03
338.062	-8.7
338.274	-2.29
338.487	-10.72
338.7	-7.06
338.913	-49.05
339.125	-74.21
339.338	-134.94
339.551	-113.97
339.763	-57.51
339.976	-22.21
340.189	18.36
340.402	41.19
340.614	24.52
340.827	-13.44
341.039	-20.74
341.252	-30.18
341.465	-19.46
341.677	-8.12
341.89	-28.76
342.102	-11.48
342.315	-20.22
342.527	-50.3
342.74	-50.05
342.952	-14.53
343.165	-12.01
343.377	2.93
343.59	1.97
343.802	17.42
344.015	28.79
344.227	36.09
344.44	25.27
344.652	28.77
344.864	5.96
345.077	28.06
345.289	24.75
345.502	32.88
345.714	23.08
345.926	22.6
346.139	2.61
346.351	5.11
346.563	7.57
346.775	24.36
346.988	22.27
347.2	4.1
347.412	-45.38
347.624	-66.93
347.837	-93.33
348.049	-57.07
348.261	-11.3
348.473	6.69
348.685	6.73
348.897	-6.65
349.11	-33.6
349.322	-53.29
349.534	-34.68
349.746	-27.83
349.958	-14.92
350.17	-6.19
350.382	0.5
350.594	0.85
350.806	3.5
351.018	14.01
351.23	5.43
351.442	-28.2
351.654	-38.77
351.866	-27.82
352.078	-25.04
352.29	-4.45
352.502	12.68
352.714	31.63
352.926	23.95
353.138	15.65
353.35	9.6
353.561	6.99
353.773	-27.57
353.985	-15.6
354.197	-21.38
354.409	-26.74
354.621	-24.23
354.832	0.24
355.044	-7.15
355.256	6.06
355.468	18.77
355.679	12.76
355.891	13.31
356.103	-0.96
356.314	10.89
356.526	21.19
356.738	37.37
356.949	33.48
357.161	39.44
357.373	18.68
357.584	-4.71
357.796	-1.39
358.008	-6.12
358.219	18.24
358.431	14.82
358.642	28.59
358.854	24.79
359.065	18.83
359.277	-20.81
359.488	-24.99
359.7	-38.02
359.911	-63.33
360.123	-31.6
360.334	-33.53
360.546	-51.06
360.757	-55.13
360.969	-24.54
361.18	-24.88
361.391	-7.54
361.603	-14.03
361.814	-11.58
362.025	-24.56
362.237	-38.2
362.448	-20.88
362.659	8.9
362.871	10.83
363.082	20.8
363.293	19.63
363.504	-2.19
363.716	-24.94
363.927	-21.84
364.138	-66.3
364.349	-67.7
364.56	-43.53
364.772	-37.25
364.983	-22.11
365.194	-7.91
365.405	3.13
365.616	17.25
365.827	22.42
366.038	2.18
366.25	6.33
366.461	-17.99
366.672	-19.82
366.883	-6.3
367.094	-0.92
367.305	-7.39
367.516	3.35
367.727	-26.02
367.938	-36.86
368.149	-29.19
368.36	-14.99
368.571	-8.33
368.781	-13.09
368.992	-17.78
369.203	-42.44
369.414	-66.78
369.625	-73.54
369.836	-51.88
370.047	-84.18
370.258	-55.67
370.468	-49.59
370.679	-67.5
370.89	-65.73
371.101	-43.01
371.312	-44.45
371.522	-34.09
371.733	-14.95
371.944	-7.65
372.155	8.93
372.365	-0.92
372.576	-1.59
372.787	-6.9
372.997	-31.4
373.208	-34.38
373.419	-14.38
373.629	-42.46
373.84	-50.52
374.05	-54.79
374.261	-53.25
374.472	-65.39
374.682	-8.75
374.893	6.37
375.103	42.83
375.314	39.1
375.524	36.22
375.735	29.18
375.945	35.81
376.156	6.42
376.366	4.12
376.577	8.56
376.787	-10.93
376.997	-18.89
377.208	-14.45
377.418	-16.62
377.629	-1.9
377.839	6.4
378.049	9.14
378.26	22.27
378.47	32.75
378.68	17.69
378.89	13.34
379.101	4.07
379.311	-27.38
379.521	-68.96
379.732	-63.77
379.942	-49.68
380.152	-66.16
380.362	-19.35
380.572	-8.68
380.783	1.41
380.993	10.84
381.203	34.02
381.413	34.05
381.623	45.14
381.833	45.75
382.043	26.93
382.253	12.51
382.463	6.46
382.674	-9.35
382.884	-28.98
383.094	-19.66
383.304	-11.99
383.514	-13.99
383.724	-5.84
383.934	-11.73
384.144	-29.67
384.353	-39.15
384.563	-32.87
384.773	-21.17
384.983	-20.75
385.193	6.13
385.403	9.83
385.613	11.15
385.823	-9.99
386.033	-3.99
386.242	-13.95
386.452	-10.88
386.662	-22.12
386.872	-2.6
387.082	-9.87
387.291	-15.98
387.501	-16.52
387.711	-5.34
387.921	-13.61
388.13	-10.76
388.34	5.94
388.55	-0.26
388.759	-2.57
388.969	6.88
389.179	7.12
389.388	0.3
389.598	5.5
389.807	1.15
390.017	-8.54
390.227	-8.33
390.436	-10.51
390.646	-10.8
390.855	-4.87
391.065	-1.6
391.274	-3.96
391.484	-5.83
391.693	-4.05
391.903	-6.84
392.112	-2.63
392.322	1.92
392.531	6.68
392.74	8.03
392.95	3.88
393.159	1.21
393.369	-0.02
393.578	-0.81
393.787	-2.98
393.997	-0.15
394.206	-1.55
394.415	-0.18
394.625	-0.54
394.834	-0.95
395.043	0.58
395.252	3.1
395.462	4.56
395.671	5.66
395.88	4.96
396.089	5.15
396.298	3.64
396.508	2.26
396.717	1.67
396.926	2.11
397.135	2.25
397.344	2.29
397.553	3.27
397.762	4.51
397.971	4.7
398.181	4.39
398.39	3.88
398.599	3.18
398.808	2.62
399.017	3.29
399.226	4.39
399.435	5.37
399.644	5.52
399.853	4.81
400.062	3.94
400.27	3.12
400.479	2.56
400.688	1.66
400.897	1.82
401.106	2.42
401.315	2.23
401.524	2.2
401.733	3.14
401.941	3.48
402.15	3.42
402.359	3.33
402.568	3.77
402.777	3.68
402.985	3.53
403.194	3.48
403.403	3.66
403.612	3.3
403.82	3.07
404.029	3.34
404.238	3.2
404.446	3.47
404.655	3.2
404.864	3.23
405.072	2.89
405.281	2.96
405.489	2.62
405.698	2.77
405.906	2.75
406.115	2.8
406.324	2.86
406.532	2.97
406.741	3.26
406.949	3.29
407.158	3.22
407.366	3.27
407.574	3.15
407.783	3.08
407.991	2.89
408.2	3.13
408.408	2.96
408.617	2.99
408.825	2.87
409.033	2.97
409.242	2.91
409.45	3.03
409.658	2.91
409.867	3.06
410.075	2.93
410.283	2.84
410.491	2.78
410.7	2.74
410.908	2.64
411.116	3.06
411.324	3.13
411.533	3.08
411.741	3.46
411.949	3.48
412.157	3.12
412.365	3.04
412.573	2.92
412.781	2.79
412.99	2.74
413.198	2.93
413.406	2.92
413.614	3.17
413.822	3.03
414.03	2.94
414.238	2.72
414.446	2.83
414.654	2.54
414.862	2.67
415.07	2.75
415.278	2.94
415.486	2.7
415.694	2.87
415.902	2.71
416.109	2.62
416.317	2.57
416.525	2.5
416.733	2.4
416.941	2.49
417.149	2.58
417.357	2.59
417.564	2.81
417.772	3.12
417.98	3.14
418.188	3.08
418.395	3.13
418.603	3.15
418.811	2.65
419.019	2.44
419.226	2.61
419.434	2.66
419.642	2.38
419.849	2.66
420.057	2.96
420.265	2.8
420.472	2.51
420.68	2.7
420.887	2.52
421.095	2.38
421.302	2.35
421.51	2.63
421.717	2.69
421.925	2.79
422.132	2.68
422.34	2.58
422.547	2.5
422.755	2.32
422.962	2.34
423.17	2.33
423.377	2.41
423.585	2.38
423.792	2.47
423.999	2.51
424.207	2.43
424.414	2.51
424.621	2.54
424.829	2.44
425.036	2.51
425.243	2.77
425.451	2.64
425.658	2.41
425.865	2.72
426.072	2.69
426.28	2.83
426.487	2.82
426.694	3.07
426.901	2.73
427.108	2.61
427.315	2.45
427.523	2.74
427.73	2.63
427.937	2.67
428.144	2.62
428.351	2.55
428.558	2.54
428.765	2.57
428.972	2.47
429.179	2.56
429.386	2.84
429.593	2.54
429.8	2.35
430.007	2.52
430.214	2.48
430.421	2.13
430.628	2.14
430.835	2.03
431.042	2.25
431.249	2.41
431.456	2.51
431.662	2.66
431.869	2.95
432.076	2.87
432.283	2.87
432.49	2.85
432.697	2.76
432.903	2.62
433.11	2.55
433.317	2.6
433.524	2.8
433.73	2.85
433.937	2.98
434.144	2.99
434.35	2.86
434.557	2.69
434.764	2.69
434.97	2.6
435.177	2.71
435.384	2.72
435.59	2.8
435.797	2.96
436.003	3.02
436.21	2.97
436.416	3.04
436.623	2.96
436.829	3.01
437.036	3.17
437.242	3.18
437.449	3.08
437.655	3.13
437.862	3.09
438.068	2.98
438.275	3.08
438.481	3.33
438.687	3.26
438.894	3.23
439.1	3.22
439.307	3.32
439.513	3.19
439.719	3.24
439.926	3.32
440.132	3.32
440.338	3.11
440.544	3.22
440.751	3.14
440.957	3.11
441.163	3.02
441.369	3.09
441.575	2.84
441.782	2.88
441.988	2.81
442.194	2.86
442.4	2.86
442.606	3.2
442.812	3.29
443.018	3.34
443.224	3.38
443.431	3.53
443.637	3.22
443.843	3.12
444.049	3.17
444.255	3.13
444.461	3.09
444.667	3.13
444.873	3.28
445.079	3.21
445.284	3.28
445.49	3.01
445.696	2.84
445.902	2.69
446.108	2.71
446.314	2.66
446.52	2.78
446.726	3.08
446.931	3.15
447.137	3.11
447.343	3.17
447.549	3.13
447.755	3.02
447.96	3.03
448.166	3.03
448.372	2.95
448.578	3.02
448.783	3
448.989	3.11
449.195	3.25
449.4	3.29
449.606	3.21
449.812	3.11
450.017	3.12
450.223	2.98
450.428	2.91
450.634	3.08
450.84	3.3
451.045	3.19
451.251	3.15
451.456	3.42
451.662	3.38
451.867	3.39
452.073	3.32
452.278	3.43
452.483	3.46
452.689	3.37
452.894	3.41
453.1	3.46
453.305	3.41
453.51	3.3
453.716	3.26
453.921	3.26
454.127	3.26
454.332	3.23
454.537	3.12
454.742	3.19
454.948	3.08
455.153	3.12
455.358	3.22
455.563	3.37
455.769	3.49
455.974	3.51
456.179	3.38
456.384	3.33
456.589	3.24
456.795	3
457	3.01
457.205	3.36
457.41	3.39
457.615	3.41
457.82	3.52
458.025	3.51
458.23	3.23
458.435	3.24
458.64	3.09
458.845	3.28
459.05	3.26
459.255	3.29
459.46	3.32
459.665	3.4
459.87	3.32
460.075	3.32
460.28	3.38
460.485	3.42
460.69	3.44
460.895	3.23
461.099	3.21
461.304	3.3
461.509	3.32
461.714	3.25
461.919	3.51
462.123	3.38
462.328	3.41
462.533	3.26
462.738	3.4
462.942	3.23
463.147	3.38
463.352	3.32
463.556	3.35
463.761	3.33
463.966	3.39
464.17	3.35
464.375	3.24
464.58	3.23
464.784	3.11
464.989	3.08
465.193	3.11
465.398	3.19
465.602	3.32
465.807	3.38
466.011	3.49
466.216	3.54
466.42	3.6
466.625	3.63
466.829	3.75
467.034	3.71
467.238	3.76
467.443	3.64
467.647	3.52
467.851	3.52
468.056	3.57
468.26	3.52
468.464	3.65
468.669	3.78
468.873	3.83
469.077	3.81
469.282	3.88
469.486	3.84
469.69	3.87
469.894	3.71
470.099	3.75
470.303	3.87
470.507	3.83
470.711	3.63
470.915	3.66
471.119	3.62
471.324	3.48
471.528	3.55
471.732	3.7
471.936	3.67
472.14	3.62
472.344	3.66
472.548	3.65
472.752	3.84
472.956	4.11
473.16	4.17
473.364	4.09
473.568	4.06
473.772	4.04
473.976	3.89
474.18	3.86
474.384	3.9
474.588	3.86
474.792	3.64
474.995	3.64
475.199	3.76
475.403	3.83
475.607	3.9
475.811	3.91
476.015	3.95
476.218	3.96
476.422	3.81
476.626	3.86
476.83	3.97
477.033	3.86
477.237	3.73
477.441	3.84
477.644	3.76
477.848	3.73
478.052	3.73
478.255	3.78
478.459	3.73
478.663	3.87
478.866	3.92
479.07	3.91
479.273	4.05
479.477	4.18
479.681	4.09
479.884	4.01
480.088	4.06
480.291	3.97
480.495	3.89
480.698	3.87
480.901	3.96
481.105	4.1
481.308	4.05
481.512	4.03
481.715	4.09
481.919	4.08
482.122	4
482.325	4.06
482.529	4.07
482.732	4.04
482.935	3.97
483.138	3.9
483.342	3.96
483.545	4.04
483.748	4.11
483.952	4.16
484.155	4.3
484.358	4.33
484.561	4.29
484.764	4.18
484.967	4.27
485.171	4.33
485.374	4.28
485.577	4.36
485.78	4.46
485.983	4.45
486.186	4.33
486.389	4.29
486.592	4.24
486.795	4.23
486.998	4.17
487.201	4.22
487.404	4.3
487.607	4.34
487.81	4.35
488.013	4.45
488.216	4.44
488.419	4.42
488.622	4.42
488.825	4.37
489.028	4.27
489.231	4.21
489.433	4.13
489.636	4.03
489.839	4.03
490.042	3.99
490.245	3.94
490.447	4.02
490.65	4.04
490.853	4.01
491.056	4.1
491.258	4.17
491.461	4.17
491.664	4.24
491.866	4.21
492.069	4.29
492.272	4.22
492.474	4.24
492.677	4.25
492.879	4.32
493.082	4.31
493.285	4.47
493.487	4.41
493.69	4.32
493.892	4.26
494.095	4.2
494.297	4.14
494.5	4.22
494.702	4.27
494.905	4.34
495.107	4.33
495.309	4.34
495.512	4.34
495.714	4.37
495.917	4.42
496.119	4.39
496.321	4.47
496.524	4.46
496.726	4.48
496.928	4.46
497.13	4.46
497.333	4.34
497.535	4.34
497.737	4.32
497.939	4.32
498.142	4.39
498.344	4.38
498.546	4.31
498.748	4.34
498.95	4.43
499.152	4.41
499.355	4.49
499.557	4.61
499.759	4.7
499.961	4.62
500.163	4.59
500.365	4.58
500.567	4.63
500.769	4.5
500.971	4.5
501.173	4.46
501.375	4.48
501.577	4.42
501.779	4.38
501.981	4.44
502.183	4.5
502.385	4.44
502.587	4.35
502.788	4.45
502.99	4.48
503.192	4.53
503.394	4.56
503.596	4.61
503.798	4.69
503.999	4.65
504.201	4.64
504.403	4.69
504.605	4.75
504.806	4.67
505.008	4.65
505.21	4.73
505.411	4.73
505.613	4.7
505.815	4.7
506.016	4.81
506.218	4.84
506.42	4.87
506.621	4.93
506.823	4.95
507.024	4.84
507.226	4.75
507.427	4.73
507.629	4.73
507.83	4.81
508.032	4.85
508.233	4.95
508.435	5
508.636	5.03
508.838	5
509.039	5
509.24	4.98
509.442	4.98
509.643	4.88
509.845	4.93
510.046	5.03
510.247	5.06
510.448	5.07
510.65	5.2
510.851	5.29
511.052	5.19
511.254	5.16
511.455	5.24
511.656	5.28
511.857	5.25
512.058	5.36
512.26	5.35
512.461	5.29
512.662	5.28
512.863	5.17
513.064	5.1
513.265	5.11
513.466	5.16
513.667	5.14
513.868	5.24
514.069	5.3
514.27	5.36
514.471	5.26
514.672	5.31
514.873	5.29
515.074	5.36
515.275	5.28
515.476	5.32
515.677	5.28
515.878	5.37
516.079	5.31
516.28	5.37
516.481	5.5
516.682	5.56
516.882	5.47
517.083	5.46
517.284	5.41
517.485	5.33
517.686	5.31
517.886	5.32
518.087	5.37
518.288	5.44
518.488	5.46
518.689	5.44
518.89	5.43
519.091	5.46
519.291	5.44
519.492	5.43
519.692	5.48
519.893	5.58
520.094	5.52
520.294	5.51
520.495	5.51
520.695	5.54
520.896	5.47
521.096	5.55
521.297	5.59
521.497	5.63
521.698	5.56
521.898	5.55
522.099	5.52
522.299	5.57
522.499	5.54
522.7	5.62
522.9	5.62
523.101	5.62
523.301	5.64
523.501	5.63
523.702	5.62
523.902	5.74
524.102	5.81
524.302	5.78
524.503	5.87
524.703	5.88
524.903	5.83
525.103	5.8
525.304	5.87
525.504	5.9
525.704	5.94
525.904	5.89
526.104	5.91
526.304	5.9
526.504	5.89
526.705	5.92
526.905	6.03
527.105	6.02
527.305	6.03
527.505	5.98
527.705	5.95
527.905	5.91
528.105	5.94
528.305	5.89
528.505	5.94
528.705	6.01
528.905	5.98
529.105	5.99
529.304	6.04
529.504	6.1
529.704	6.02
529.904	6.06
530.104	6.06
530.304	6.13
530.503	6.05
530.703	6.03
530.903	6.04
531.103	6.18
531.303	6.12
531.502	6.19
531.702	6.27
531.902	6.28
532.101	6.17
532.301	6.14
532.501	6.13
532.7	6.13
532.9	6.17
533.1	6.22
533.299	6.28
533.499	6.33
533.698	6.3
533.898	6.27
534.097	6.26
534.297	6.33
534.496	6.29
534.696	6.34
534.895	6.43
535.095	6.51
535.294	6.47
535.494	6.45
535.693	6.47
535.892	6.45
536.092	6.33
536.291	6.34
536.491	6.47
536.69	6.54
536.889	6.52
537.088	6.56
537.288	6.61
537.487	6.64
537.686	6.6
537.886	6.66
538.085	6.7
538.284	6.82
538.483	6.74
538.682	6.83
538.882	6.87
539.081	6.99
539.28	6.83
539.479	6.84
539.678	6.77
539.877	6.87
540.076	6.78
540.275	6.87
540.474	6.97
540.673	7.02
540.872	6.92
541.071	6.98
541.27	7.01
541.469	7.04
541.668	7.09
541.867	7.11
542.066	7.19
542.265	7.28
542.464	7.26
542.663	7.27
542.862	7.47
543.06	7.49
543.259	7.49
543.458	7.57
543.657	7.63
543.856	7.63
544.054	7.61
544.253	7.61
544.452	7.61
544.651	7.68
544.849	7.62
545.048	7.69
545.247	7.75
545.445	7.82
545.644	7.83
545.843	7.85
546.041	7.85
546.24	7.95
546.438	8.02
546.637	8.09
546.836	8.25
547.034	8.39
547.233	8.4
547.431	8.37
547.63	8.36
547.828	8.33
548.027	8.3
548.225	8.31
548.423	8.37
548.622	8.46
548.82	8.47
549.019	8.53
549.217	8.64
549.415	8.67
549.614	8.7
549.812	8.77
550.01	8.74
550.209	8.73
550.407	8.8
550.605	8.83
550.803	8.9
551.002	9.03
551.2	9.11
551.398	9.22
551.596	9.36
551.794	9.44
551.993	9.51
552.191	9.55
552.389	9.66
552.587	9.71
552.785	9.8
552.983	9.88
553.181	9.98
553.379	10.02
553.577	10
553.775	10.13
553.973	10.2
554.171	10.27
554.369	10.27
554.567	10.37
554.765	10.31
554.963	10.43
555.161	10.4
555.359	10.54
555.557	10.71
555.755	10.86
555.952	10.92
556.15	11.03
556.348	11.14
556.546	11.22
556.744	11.2
556.941	11.29
557.139	11.42
557.337	11.45
557.535	11.42
557.732	11.6
557.93	11.67
558.128	11.74
558.325	11.85
558.523	11.89
558.721	11.97
558.918	11.95
559.116	12.05
559.313	12.03
559.511	12.26
559.708	12.3
559.906	12.41
560.104	12.47
560.301	12.69
560.498	12.66
560.696	12.72
560.893	12.89
561.091	13.01
561.288	13.06
561.486	13.18
561.683	13.24
561.88	13.34
562.078	13.37
562.275	13.4
562.473	13.48
562.67	13.61
562.867	13.72
563.064	13.8
563.262	13.83
563.459	13.83
563.656	14.01
563.853	14.02
564.051	14.2
564.248	14.36
564.445	14.49
564.642	14.47
564.839	14.57
565.036	14.71
565.234	14.94
565.431	15
565.628	15.11
565.825	15.22
566.022	15.19
566.219	15.1
566.416	15.21
566.613	15.28
566.81	15.3
567.007	15.31
567.204	15.29
567.401	15.38
567.598	15.44
567.795	15.52
567.991	15.56
568.188	15.71
568.385	15.77
568.582	15.82
568.779	15.84
568.976	15.98
569.172	16.09
569.369	16.05
569.566	16.07
569.763	16.06
569.96	16.04
570.156	16.04
570.353	16.07
570.55	16.16
570.746	16.31
570.943	16.32
571.14	16.38
571.336	16.47
571.533	16.49
571.729	16.41
571.926	16.48
572.123	16.47
572.319	16.49
572.516	16.5
572.712	16.66
572.909	16.65
573.105	16.77
573.302	16.85
573.498	16.91
573.695	16.85
573.891	16.91
574.087	16.84
574.284	16.78
574.48	16.71
574.677	16.66
574.873	16.69
575.069	16.7
575.266	16.78
575.462	16.81
575.658	16.93
575.854	16.99
576.051	17.06
576.247	16.95
576.443	16.92
576.639	16.85
576.835	16.79
577.032	16.77
577.228	16.94
577.424	17.04
577.62	16.97
577.816	17.02
578.012	17
578.208	16.91
578.404	16.91
578.6	16.99
578.796	16.91
578.993	16.89
579.189	16.85
579.384	16.81
579.58	16.72
579.776	16.78
579.972	16.81
580.168	16.79
580.364	16.72
580.56	16.76
580.756	16.67
580.952	16.52
581.148	16.54
581.343	16.6
581.539	16.58
581.735	16.55
581.931	16.69
582.127	16.64
582.322	16.55
582.518	16.57
582.714	16.61
582.909	16.49
583.105	16.45
583.301	16.4
583.496	16.4
583.692	16.28
583.888	16.23
584.083	16.29
584.279	16.32
584.474	16.24
584.67	16.31
584.866	16.33
585.061	16.17
585.257	16.3
585.452	16.28
585.648	16.17
585.843	16.19
586.039	16.3
586.234	16.16
586.429	16.12
586.625	16.25
586.82	16.2
587.015	16.15
587.211	16.07
587.406	16.07
587.601	16.03
587.797	16.01
587.992	16.01
588.187	16.1
588.383	16.05
588.578	15.97
588.773	16
588.968	15.93
589.163	15.89
589.359	15.93
589.554	15.92
589.749	15.92
589.944	16.03
590.139	16.09
590.334	16.14
590.529	16.27
590.724	16.35
590.919	16.36
591.114	16.36
591.309	16.43
591.504	16.4
591.699	16.35
591.894	16.41
592.089	16.37
592.284	16.26
592.479	16.4
592.674	16.41
592.869	16.34
593.064	16.5
593.259	16.66
593.454	16.66
593.648	16.67
593.843	16.74
594.038	16.74
594.233	16.71
594.428	16.67
594.622	16.78
594.817	16.9
595.012	16.88
595.206	16.89
595.401	16.92
595.596	16.88
595.79	16.92
595.985	17.06
596.18	17.18
596.374	17.36
596.569	17.44
596.763	17.46
596.958	17.53
597.153	17.56
597.347	17.49
597.542	17.63
597.736	17.69
597.931	17.73
598.125	17.77
598.319	17.88
598.514	17.78
598.708	17.86
598.903	17.83
599.097	17.88
599.291	17.97
599.486	17.98
599.68	17.98
599.874	18.06
600.069	18.11
600.263	18
600.457	18.18
600.651	18.24
600.846	18.22
601.04	18.29
601.234	18.34
601.428	18.37
601.622	18.36
601.817	18.46
602.011	18.45
602.205	18.55
602.399	18.47
602.593	18.49
602.787	18.53
602.981	18.49
603.175	18.51
603.369	18.5
603.563	18.47
603.757	18.48
603.951	18.45
604.145	18.37
604.339	18.47
604.533	18.36
604.727	18.26
604.921	18.29
605.115	18.29
605.309	18.34
605.502	18.41
605.696	18.38
605.89	18.32
606.084	18.28
606.278	18.14
606.471	18.08
606.665	18.03
606.859	17.95
607.053	17.89
607.246	17.93
607.44	17.94
607.634	17.88
607.827	17.92
608.021	17.87
608.214	17.79
608.408	17.72
608.602	17.73
608.795	17.65
608.989	17.62
609.182	17.48
609.376	17.39
609.569	17.27
609.763	17.16
609.956	17.11
610.15	17.07
610.343	17.01
610.537	16.98
610.73	17
610.923	16.94
611.117	16.89
611.31	16.76
611.504	16.75
611.697	16.6
611.89	16.5
612.083	16.47
612.277	16.53
612.47	16.45
612.663	16.4
612.856	16.32
613.05	16.13
613.243	16.01
613.436	15.88
613.629	15.78
613.822	15.71
614.015	15.69
614.209	15.56
614.402	15.54
614.595	15.55
614.788	15.51
614.981	15.47
615.174	15.41
615.367	15.28
615.56	15.11
615.753	15.13
615.946	15.05
616.139	15.07
616.332	15.08
616.525	15.12
616.718	15.02
616.911	15.03
617.103	15.01
617.296	15
617.489	14.94
617.682	14.87
617.875	14.85
618.067	14.75
618.26	14.62
618.453	14.63
618.646	14.64
618.838	14.62
619.031	14.74
619.224	14.81
619.417	14.81
619.609	14.78
619.802	14.65
619.994	14.51
620.187	14.41
620.38	14.32
620.572	14.29
620.765	14.37
620.957	14.28
621.15	14.27
621.342	14.22
621.535	14.19
621.727	14.13
621.92	14.06
622.112	14.03
622.305	14.1
622.497	14.02
622.69	13.96
622.882	14
623.074	13.98
623.267	13.84
623.459	13.81
623.651	13.77
623.844	13.79
624.036	13.81
624.228	13.76
624.42	13.75
624.613	13.85
624.805	13.76
624.997	13.7
625.189	13.76
625.381	13.79
625.574	13.67
625.766	13.59
625.958	13.56
626.15	13.53
626.342	13.48
626.534	13.44
626.726	13.49
626.918	13.46
627.11	13.43
627.302	13.4
627.494	13.38
627.686	13.38
627.878	13.34
628.07	13.28
628.262	13.22
628.454	13.3
628.646	13.31
628.838	13.35
629.029	13.23
629.221	13.27
629.413	13.1
629.605	12.94
629.797	12.78
629.989	12.93
630.18	12.86
630.372	12.85
630.564	12.84
630.755	12.93
630.947	12.92
631.139	12.77
631.33	12.65
631.522	12.76
631.714	12.79
631.905	12.7
632.097	12.74
632.289	12.81
632.48	12.72
632.672	12.55
632.863	12.41
633.055	12.46
633.246	12.43
633.438	12.28
633.629	12.29
633.821	12.34
634.012	12.34
634.203	12.26
634.395	12.32
634.586	12.33
634.777	12.26
634.969	12.15
635.16	12.19
635.351	12.17
635.543	12.14
635.734	12.1
635.925	12.14
636.117	12.13
636.308	12.12
636.499	12.03
636.69	11.97
636.881	11.86
637.073	11.96
637.264	11.83
637.455	11.89
637.646	12.06
637.837	12.07
638.028	11.88
638.219	11.97
638.41	11.86
638.601	11.6
638.792	11.54
638.983	11.55
639.174	11.46
639.365	11.55
639.556	11.59
639.747	11.6
639.938	11.59
640.129	11.52
640.32	11.37
640.511	11.36
640.701	11.37
640.892	11.33
641.083	11.42
641.274	11.51
641.465	11.48
641.655	11.39
641.846	11.34
642.037	11.29
642.228	11.12
642.418	11.17
642.609	11.14
642.8	11.13
642.99	11.01
643.181	11.12
643.372	11.05
643.562	11.07
643.753	11
643.943	10.94
644.134	10.77
644.324	10.69
644.515	10.64
644.705	10.69
644.896	10.74
645.086	10.84
645.277	10.83
645.467	10.8
645.658	10.75
645.848	10.73
646.038	10.68
646.229	10.71
646.419	10.6
646.61	10.58
646.8	10.63
646.99	10.58
647.18	10.5
647.371	10.54
647.561	10.44
647.751	10.44
647.941	10.38
648.132	10.37
648.322	10.32
648.512	10.43
648.702	10.37
648.892	10.37
649.082	10.38
649.272	10.39
649.462	10.23
649.653	10.16
649.843	10.13
650.033	10.09
650.223	10.1
650.413	10.08
650.603	10.18
650.793	10.13
650.983	10.12
651.172	10.04
651.362	10.04
651.552	9.9
651.742	9.91
651.932	9.89
652.122	9.98
652.312	10.04
652.502	10.07
652.691	10.09
652.881	9.99
653.071	9.88
653.261	9.78
653.45	9.62
653.64	9.59
653.83	9.52
654.019	9.47
654.209	9.44
654.399	9.52
654.588	9.45
654.778	9.44
654.968	9.39
655.157	9.39
655.347	9.23
655.536	9.1
655.726	9.02
655.915	8.85
656.105	8.69
656.294	8.69
656.484	8.58
656.673	8.48
656.863	8.5
657.052	8.4
657.241	8.18
657.431	8.09
657.62	8.01
657.809	7.74
657.999	7.63
658.188	7.56
658.377	7.45
658.567	7.38
658.756	7.34
658.945	7.29
659.134	7.16
659.324	7.09
659.513	6.98
659.702	6.88
659.891	6.74
660.08	6.74
660.269	6.72
660.458	6.59
660.648	6.53
660.837	6.45
661.026	6.37
661.215	6.24
661.404	6.11
661.593	6.17
661.782	5.99
661.971	5.89
662.16	5.79
662.349	5.78
662.538	5.54
662.726	5.61
662.915	5.45
663.104	5.43
663.293	5.39
663.482	5.43
663.671	5.3
663.86	5.24
664.048	5.18
664.237	5.22
664.426	5.04
664.615	5.12
664.803	5.15
664.992	5.13
665.181	4.97
665.369	4.98
665.558	4.87
665.747	4.85
665.935	4.84
666.124	4.96
666.312	5.03
666.501	5.03
666.69	4.89
666.878	4.86
667.067	4.67
667.255	4.75
667.444	4.92
667.632	5.07
667.82	5.17
668.009	5.26
668.197	5.17
668.386	5.09
668.574	5.14
668.762	5.08
668.951	5.04
669.139	5.03
669.327	4.85
669.516	4.9
669.704	4.78
669.892	4.92
670.08	4.89
670.269	4.88
670.457	4.69
670.645	4.66
670.833	4.74
671.021	4.78
671.21	4.89
671.398	5.22
671.586	5.33
671.774	5.21
671.962	5.22
672.15	5.31
672.338	5.09
672.526	5.16
672.714	5.11
672.902	5.23
673.09	5.35
673.278	5.63
673.466	5.62
673.654	5.87
673.842	5.84
674.03	5.82
674.218	5.63
674.405	5.66
674.593	5.52
674.781	5.64
674.969	5.67
675.157	5.88
675.344	6.07
675.532	6.16
675.72	6.26
675.908	6.36
676.095	6.23
676.283	6.17
676.471	6.39
676.658	6.35
676.846	6.27
677.033	6.44
677.221	6.56
677.409	6.43
677.596	6.42
677.784	6.55
677.971	6.6
678.159	6.63
678.346	6.77
678.534	6.84
678.721	7.06
678.909	7.06
679.096	7.12
679.283	7.33
679.471	7.45
679.658	7.42
679.846	7.6
680.033	7.77
680.22	7.72
680.408	7.81
680.595	7.88
680.782	7.76
680.969	7.81
681.157	7.77
681.344	7.82
681.531	7.83
681.718	7.97
681.905	8.09
682.093	8.3
682.28	8.53
682.467	8.75
682.654	8.85
682.841	8.87
683.028	8.94
683.215	8.96
683.402	8.84
683.589	9.06
683.776	9.15
683.963	9.23
684.15	9.29
684.337	9.44
684.524	9.43
684.711	9.66
684.898	9.64
685.085	9.77
685.271	10.12
685.458	10.32
685.645	10.4
685.832	10.76
686.019	11.03
686.205	11.13
686.392	11.45
686.579	11.7
686.766	11.95
686.952	12.13
687.139	12.49
687.326	12.51
687.512	12.79
687.699	13.11
687.886	13.3
688.072	13.4
688.259	13.88
688.445	14.17
688.632	14.27
688.818	14.93
689.005	15.38
689.191	15.74
689.378	16.22
689.564	16.68
689.751	16.93
689.937	17.4
690.124	17.81
690.31	18
690.496	18.54
690.683	18.95
690.869	19.35
691.055	19.78
691.242	20.5
691.428	21.21
691.614	21.89
691.8	22.61
691.987	23.24
692.173	23.84
692.359	24.44
692.545	25.04
692.731	25.53
692.918	26.3
693.104	26.75
693.29	27.14
693.476	27.82
693.662	28.48
693.848	28.96
694.034	29.86
694.22	30.68
694.406	31.44
694.592	32.05
694.778	32.84
694.964	33.39
695.15	33.99
695.336	34.55
695.522	35.36
695.708	35.91
695.894	36.62
696.08	37.31
696.265	37.98
696.451	38.81
696.637	39.84
696.823	40.39
697.009	41.1
697.194	41.72
697.38	42.06
697.566	42.32
697.751	43.25
697.937	44.1
698.123	44.9
698.308	45.9
698.494	46.67
698.68	47.31
698.865	47.87
699.051	48.52
699.236	49.01
699.422	49.7
699.607	50.24
699.793	50.87
699.978	51.66
700.164	52.3
700.349	53.3
700.535	53.99
700.72	54.52
700.906	55
701.091	55.74
701.276	56.1
701.462	57.1
701.647	57.95
701.832	58.46
702.018	58.96
702.203	59.39
702.388	59.43
702.573	59.85
702.759	60.68
702.944	60.85
703.129	61.55
703.314	62.23
703.499	62.59
703.684	62.76
703.87	63.85
704.055	64.61
704.24	64.93
704.425	65.73
704.61	66.43
704.795	66.69
704.98	66.74
705.165	67.17
705.35	67.49
705.535	68.11
705.72	68.59
705.905	69.54
706.09	70.12
706.275	70.44
706.459	70.38
706.644	70.68
706.829	70.93
707.014	71.04
707.199	71.46
707.384	72.2
707.568	72.34
707.753	72.78
707.938	73.57
708.123	73.96
708.307	74.12
708.492	74.54
708.677	74.5
708.861	74.36
709.046	74.46
709.231	75.17
709.415	75.79
709.6	76.01
709.784	76.35
709.969	76.64
710.153	76.36
710.338	76.84
710.522	77.19
710.707	77.92
710.891	78.44
711.076	78.57
711.26	78.43
711.445	78.93
711.629	79.2
711.813	79.39
711.998	80.08
712.182	80.17
712.366	80.47
712.551	81.11
712.735	81.53
712.919	81.44
713.103	82.12
713.288	82.1
713.472	81.45
713.656	81.88
713.84	82
714.024	82.05
714.208	82.16
714.393	83.05
714.577	83.39
714.761	83.9
714.945	83.89
715.129	84.18
715.313	84.33
715.497	84.1
715.681	84.84
715.865	84.93
716.049	85.42
716.233	85.05
716.417	85.39
716.601	84.86
716.785	85.05
716.968	84.92
717.152	85.21
717.336	85.34
717.52	85.44
717.704	85.84
717.888	86.43
718.071	86.59
718.255	87.01
718.439	87.08
718.622	87.04
718.806	87.16
718.99	87.11
719.174	86.71
719.357	87.05
719.541	87.42
719.724	87.11
719.908	88.11
720.092	88.28
720.275	88.83
720.459	89.23
720.642	89.02
720.826	88.47
721.009	88.15
721.193	87.56
721.376	87.65
721.559	88.34
721.743	88.7
721.926	89.72
722.11	90.3
722.293	89.8
722.476	89.3
722.66	89.47
722.843	88.99
723.026	88.66
723.21	88.56
723.393	89.18
723.576	89.32
723.759	89.45
723.942	89.78
724.126	90.19
724.309	90.68
724.492	90.43
724.675	90.61
724.858	90.99
725.041	91.54
725.224	91.15
725.407	91.62
725.59	92.04
725.774	91.42
725.957	90.89
726.14	91.06
726.322	91.33
726.505	90.95
726.688	91.89
726.871	91.84
727.054	91.99
727.237	91.77
727.42	92.18
727.603	91.78
727.786	92.5
727.968	92.78
728.151	92.94
728.334	92.64
728.517	92.61
728.699	93.26
728.882	92.56
729.065	92.83
729.248	93.36
729.43	94.25
729.613	94.39
729.796	95.57
729.978	94.96
730.161	94.68
730.343	93.91
730.526	93.72
730.708	92.79
730.891	92.77
731.073	92.77
731.256	92.78
731.438	92.97
731.621	94.02
731.803	94.33
731.986	94.64
732.168	94.54
732.35	94.31
732.533	94.29
732.715	94.33
732.898	94.66
733.08	94.97
733.262	95.19
733.444	95.16
733.627	95.51
733.809	95.7
733.991	96.52
734.173	95.69
734.355	95.34
734.538	95.43
734.72	94.6
734.902	94.38
735.084	94.57
735.266	94.42
735.448	95.04
735.63	95.49
735.812	95.74
735.994	97.42
736.176	97.75
736.358	97.12
736.54	97.9
736.722	96.75
736.904	95.55
737.086	95.45
737.268	96.34
737.45	96.66
737.632	97.65
737.814	96.98
737.995	97.15
738.177	96.42
738.359	95.52
738.541	95.95
738.723	97.52
738.904	97.9
739.086	98.53
739.268	98.07
739.449	97.81
739.631	97.15
739.813	96.75
739.994	96.53
740.176	97.25
740.358	96.9
740.539	97.84
740.721	98.42
740.902	99.19
741.084	99
741.265	99.2
741.447	98.5
741.628	98.75
741.81	97.7
741.991	97.93
742.172	97.96
742.354	98.57
742.535	98.41
742.717	98.68
742.898	99.44
743.079	99.84
743.261	99.56
743.442	98.56
743.623	99.88
743.804	99.22
743.986	100.69
744.167	98.47
744.348	98.95
744.529	97.83
744.71	97.01
744.891	95.61
745.073	96.36
745.254	95.68
745.435	95.3
745.616	94.95
745.797	95.03
745.978	95.18
746.159	95.59
746.34	95.28
746.521	97.31
746.702	96.93
746.883	98.58
747.064	98.87
747.245	99.52
747.426	98.34
747.606	98.65
747.787	98.41
747.968	98.07
748.149	98.39
748.33	98.99
748.51	98.77
748.691	97.94
748.872	98.51
749.053	98.72
749.233	98.45
749.414	97.37
749.595	97.01
749.775	96.06
749.956	95.12
750.137	94.87
750.317	96.83
750.498	98.36
750.678	98.81
750.859	99.27
751.04	98.68
751.22	97.42
751.4	94.87
751.581	94.54
751.761	95.02
751.942	96.13
752.122	95.91
752.303	96.59
752.483	96.91
752.663	95.55
752.844	94.33
753.024	95.78
753.204	96.16
753.385	95.43
753.565	96.35
753.745	96.33
753.925	95.61
754.106	95.54
754.286	96.43
754.466	95.67
754.646	97.03
754.826	96.04
755.006	94.09
755.187	95.75
755.367	95.17
755.547	95.33
755.727	96.04
755.907	98.03
756.087	96.97
756.267	97.49
756.447	96.84
756.627	95.62
756.807	96.32
756.987	95.65
757.167	96.33
757.346	96.68
757.526	96.29
757.706	96.63
757.886	97.32
758.066	98.26
758.246	99.9
758.425	101.2
758.605	99.91
758.785	99.58
758.965	98.27
759.144	94.89
759.324	94.57
759.504	94.63
759.683	94.4
759.863	92.56
760.043	92.23
760.222	91.81
760.402	90.79
760.581	91.08
760.761	93.26
760.94	93.14
761.12	94.6
761.299	95.01
761.479	94.2
761.658	92.09
761.838	92.84
762.017	92.26
762.197	92.96
762.376	93.56
762.555	95.62
762.735	96.72
762.914	95.67
763.093	96.05
763.273	94.64
763.452	93.81
763.631	92.77
763.81	93.25
763.99	93.33
764.169	93.33
764.348	91.41
764.527	89.57
764.706	91.23
764.885	91.64
765.064	91
765.243	92.98
765.423	96.74
765.602	94.87
765.781	92.54
765.96	92.44
766.139	92.23
766.318	91.64
766.497	91.76
766.676	92.4
766.854	94.41
767.033	93.87
767.212	92.25
767.391	92.23
767.57	93.02
767.749	93.21
767.928	94.83
768.106	94.57
768.285	92.58
768.464	92.1
768.643	91.41
768.821	89.13
769	90.17
769.179	90.04
769.357	87.66
769.536	86.58
769.715	87.22
769.893	88.74
770.072	88.18
770.25	90.44
770.429	90.35
770.607	90.56
770.786	88.66
770.964	92.37
771.143	91.53
771.321	94.11
771.5	94.52
771.678	92.05
771.857	89.45
772.035	89.25
772.213	86.95
772.392	84.95
772.57	89.91
772.748	89.76
772.927	89.1
773.105	88.3
773.283	89.78
773.461	88.68
773.64	89.5
773.818	91.04
773.996	92.57
774.174	92.88
774.352	89.15
774.531	86.09
774.709	86.61
774.887	85.12
775.065	84.09
775.243	83.85
775.421	86.42
775.599	87.68
775.777	86.91
775.955	85.2
776.133	84.47
776.311	85.54
776.489	82.85
776.667	84.21
776.844	86.23
777.022	86.61
777.2	85.01
777.378	85.13
777.556	87.68
777.734	90.39
777.911	93.34
778.089	94.54
778.267	95.14
778.445	90.3
778.622	86.58
778.8	84.52
778.978	84.44
779.155	82.58
779.333	84.89
779.511	85.92
779.688	89.35
779.866	85.87
780.043	84.24
780.221	82.36
780.398	80.15
780.576	81.06
780.753	83.79
780.931	82.89
781.108	83.1
781.286	85.86
781.463	81.28
781.64	78.09
781.818	82.31
781.995	84.86
782.172	84.43
782.35	86.24
782.527	91.97
782.704	90.94
782.882	88.73
783.059	86.47
783.236	87.54
783.413	85.28
783.59	85.26
783.768	81.48
783.945	85.86
784.122	85.06
784.299	84.9
784.476	84.36
784.653	87.25
784.83	83.63
785.007	79.47
785.184	78.83
785.361	78.79
785.538	84.54
785.715	85.43
785.892	91.29
786.069	92.52
786.246	93.91
786.423	90.96
786.6	90.58
786.776	89.95
786.953	89.72
787.13	93.06
787.307	91.06
787.484	91.32
787.66	87.16
787.837	88.9
788.014	83.66
788.191	80.77
788.367	76.72
788.544	80.83
788.721	75.81
788.897	76.72
789.074	78.21
789.25	78.88
789.427	77.17
789.603	79.33
789.78	81.89
789.956	82.82
790.133	84.86
790.309	85.26
790.486	88.94
790.662	84.16
790.839	82.56
791.015	83.02
791.192	80.01
791.368	81.41
791.544	81.06
791.721	83.5
791.897	81.38
792.073	80.01
792.249	68.95
792.426	72.72
792.602	69.91
792.778	70.51
792.954	69.85
793.13	74.43
793.307	67.46
793.483	63.13
793.659	64.43
793.835	71.36
794.011	71.07
794.187	75.36
794.363	78.09
794.539	82.58
794.715	74.06
794.891	77.53
795.067	76.61
795.243	80.67
795.419	75.38
795.595	74.72
795.771	72.14
795.947	69.1
796.122	64.16
796.298	68.58
796.474	73.99
796.65	74.5
796.826	76.52
797.001	76.47
797.177	71.08
797.353	77.54
797.529	77.88
797.704	78.78
797.88	81.93
798.056	79.82
798.231	73.15
798.407	75.14
798.582	73.49
798.758	80.12
798.934	87.43
799.109	84.15
799.285	79.69
799.46	87.64
799.636	83.27
799.811	78.91
799.986	80.37
800.162	84.48
800.337	81.73
800.513	75.44
800.688	75.45
800.863	85.38
801.039	78.22
801.214	73.35
801.389	82.53
801.565	82.36
801.74	68.61
801.915	79.23
802.09	81.09
802.265	80.23
802.441	77.09
802.616	81.81
802.791	80.8
802.966	85.59
803.141	82.27
803.316	81.05
803.491	83.9
803.666	86.63
803.841	77.11
804.016	76.88
804.191	81.52
804.366	77.5
804.541	73.06
804.716	77.85
804.891	74.23
805.066	81.78
805.241	75.1
805.416	71.99
805.591	69.52
805.765	75.2
805.94	70.52
806.115	70.5
806.29	66.68
806.464	63.77
806.639	58.87
806.814	49.33
806.989	53.81
807.163	64.66
807.338	70.25
807.512	72.14
807.687	69.2
807.862	75.42
808.036	74.64
808.211	79.18
808.385	84.58
808.56	100.18
808.734	114.35
808.909	113.72
809.083	110.67
809.258	109.29
809.432	104.49
809.606	79.29
809.781	75.05
809.955	83.91
810.13	81.76
810.304	74.74
810.478	73
810.652	82.97
810.827	78.37
811.001	74.81
811.175	69.24
811.349	73.77
811.524	62.7
811.698	47.59
811.872	46.12
812.046	56.34
812.22	61.19
812.394	59.4
812.568	71.44
812.742	80.12
812.916	75.93
813.09	66.21
813.264	71.12
813.438	74.44
813.612	69.7
813.786	70.94
813.96	81.57
814.134	80.93
814.308	80.9
814.482	84.38
814.656	78.72
814.83	75.69
815.003	83.19
815.177	72.48
815.351	68.96
815.525	69.05
815.698	61.51
815.872	45.19
816.046	41.2
816.219	39.93
816.393	54.28
816.567	62.65
816.74	66.84
816.914	73.7
817.088	82.27
817.261	79.83
817.435	77.07
817.608	80.11
817.782	66.3
817.955	61.28
818.129	47.83
818.302	54.1
818.475	63.63
818.649	70.51
818.822	57.43
818.996	74.22
819.169	71.55
819.342	53.34
819.516	54.1
819.689	71.68
819.862	60.42
820.035	60.56
820.209	62.46
820.382	70.65
820.555	70.08
820.728	62.9
820.901	53.69
821.075	56.36
821.248	65.62
821.421	60.32
821.594	58.77
821.767	80.08
821.94	95.31
822.113	67.43
822.286	62.31
822.459	72.42
822.632	76.28
822.805	54.11
822.978	50.22
823.151	51.19
823.324	40.59
823.496	12.72
823.669	8.33
823.842	9.58
824.015	0.76
824.188	-4.26
824.361	-1.92
824.533	2.42
824.706	15.43
824.879	29.91
825.051	34.86
825.224	41.48
825.397	41.23
825.569	28.44
825.742	40.67
825.915	60.02
826.087	74.94
826.26	62.93
826.432	77.16
826.605	68.23
826.777	53.15
826.95	50.81
827.122	53.76
827.295	56.33
827.467	57.52
827.64	41.97
827.812	22.49
827.984	24.57
828.157	11.66
828.329	-28.51
828.501	-0.66
828.674	34.23
828.846	23.65
829.018	49.84
829.19	44.34
829.363	65.6
829.535	67.65
829.707	69.47
829.879	30.94
830.051	35.45
830.223	-5.53
830.395	-53.84
830.568	-54.19
830.74	-57.93
830.912	-24.06
831.084	-9.91
831.256	15.1
831.428	20.37
831.6	22.74
831.772	-14.95
831.943	-33.38
832.115	-8.03
832.287	11
832.459	23.38
832.631	46.82
832.803	76.93
832.975	97.6
833.146	74.88
833.318	66.99
833.49	74.09
833.662	29.73
833.833	4.22
834.005	21.85
834.177	27.8
834.348	9.29
834.52	7.11
834.692	-2.83
834.863	-49.06
835.035	-30.8
835.206	-82.63
835.378	-32.55
835.549	-31.41
835.721	5.84
835.892	10.35
836.064	25.54
836.235	3.69
836.407	21.05
836.578	-21.75
836.749	-16.35
836.921	-28.04
837.092	-30.53
837.264	-30.76
837.435	-42.47
837.606	-5.18
837.777	30.21
837.949	55.43
838.12	57.56
838.291	72.47
838.462	54.46
838.633	26.39
838.805	20.03
838.976	33.34
839.147	-13.75
839.318	-44.35
839.489	-87.46
839.66	-84.39
839.831	-53.16
840.002	-26.28
840.173	-7.15
840.344	43
840.515	44.93
840.686	-55.84
840.857	-57.38
841.028	-38.77
841.199	-44.32
841.369	-63.03
841.54	-51.88
841.711	-2.98
841.882	17.98
842.053	10.62
842.223	28.07
842.394	46.02
842.565	21.1
842.736	20.37
842.906	24.37
843.077	38.65
843.248	37.09
843.418	56.14
843.589	61.11
843.759	130.25
843.93	84.4
844.101	62.25
844.271	56.18
844.442	52.89
844.612	66.42
844.783	40.99
844.953	13.2
845.123	35.4
845.294	53.53
845.464	-89.63
845.635	32.21
845.805	78.85
845.975	48.36
846.146	-2.12
846.316	-10.23
846.486	7.71
846.656	50.09
846.827	36.46
846.997	39.54
847.167	91.54
847.337	65.03
847.507	14.28
847.677	1.37
847.848	60.02
848.018	52.27
848.188	55.16
848.358	46.36
848.528	39.51
848.698	-9.14
848.868	-65.83
849.038	-143.75
849.208	-51.53
849.378	29.62
849.548	44.49
849.718	42.3
849.887	60.46
850.057	42.74
850.227	8.76
850.397	-26.7
850.567	-120.28
850.737	-267.5
850.906	-791.56
851.076	-506.45
851.246	-44.11
851.415	62.97
851.585	30.98
851.755	12.4
851.924	25.71
852.094	-38.45
852.264	-134.79
852.433	-1102.16
852.603	-181.99
852.772	-65.61
852.942	21.62
853.111	1.47
853.281	38.96
853.45	45.48
853.62	-41.69
853.789	-85.28
853.959	-64.74
854.128	-34.69
854.297	-27.76
854.467	-27.31
854.636	37.39
854.805	48.9
854.975	35.7
855.144	30.34
855.313	404.72
855.482	-54.93
855.652	-27.55
855.821	38.3
855.99	63.99
856.159	38.45
856.328	52.35
856.497	30.39
856.667	15.91
856.836	32.59
857.005	-9.6
857.174	-36.84
857.343	-36.49
857.512	-9.29
857.681	-72.63
857.85	-89.09
858.019	-30.33
858.188	-36.71
858.356	-43.35
858.525	-81.4
858.694	-27.44
858.863	-70.82
859.032	-14.06
859.201	-48.3
859.369	48.15
859.538	58.03
859.707	40.12
859.876	26.38
860.044	26.67
860.213	46.3
860.382	-1.08
860.55	-11.3
860.719	24.77
860.888	38.42
861.056	-0.02
861.225	1.35
861.393	62.26
861.562	65.7
861.73	33.35
861.899	-20.55
862.067	-73.28
862.236	13.45
862.404	-188.54
862.572	-98.45
862.741	1.77
862.909	1.57
863.078	-103.81
863.246	-52.07
863.414	-54.62
863.582	-50.3
863.751	-86.95
863.919	-76.21
864.087	-16.59
864.255	-6.93
864.424	-290.54
864.592	-38.04
864.76	-78
864.928	-261.8
865.096	-158.68
865.264	-65.57
865.432	-941.48
865.6	164.88
865.768	-22.79
865.936	-50.61
866.104	-91.59
866.272	-40.39
866.44	-189.07
866.608	406.11
866.776	170.1
866.944	1542.44
867.112	-345.87
867.28	-219.7
867.448	-60.99
867.615	-21.91
867.783	4.82
867.951	-12.43
868.119	49.49
868.286	-6.07
868.454	-74.32
868.622	-67.36
868.789	50.66
868.957	898.21
869.125	-229.61
869.292	7.31
869.46	-27.27
869.627	18.17
869.795	-3.5
869.963	12.42
870.13	33.6
870.298	54.18
870.465	-12.92
870.632	-42.73
870.8	-23.72
870.967	-69.13
871.135	-154.24
871.302	-122.42
871.469	-78.37
871.637	-63.08
871.804	-48.45
871.971	-67.64
872.139	-212.21
872.306	10.32
872.473	-31.45
872.64	-252.47
872.807	-114.04
872.975	4.08
873.142	-252.09
873.309	1776.35
873.476	83.35
873.643	188.49
873.81	144.17
873.977	158.53
874.144	121.18
874.311	71.24
874.478	-30.04
874.645	-87.24
874.812	-21.75
874.979	25
875.146	-11.51
875.313	-17.61
875.48	72.63
875.647	20.26
875.813	-36.25
875.98	-10.4
876.147	-29.62
876.314	-108.23
876.481	967.15
876.647	-1021.63
876.814	408.94
876.981	-7.02
877.147	-42.38
877.314	5.79
877.481	36.16
877.647	35.02
877.814	-22.5
877.98	-38.31
878.147	9.18
878.314	39.33
878.48	-6.91
878.647	51.87
878.813	84.65
878.979	78.07
879.146	27.85
879.312	48.66
879.479	22.88
879.645	-88.14
879.811	-249.92
879.978	-616.22
880.144	-174.51
880.31	-122.19
880.477	-331.08
880.643	-405.72
880.809	-144.03
880.975	-126.3
881.142	-777.5
881.308	-44.58
881.474	-4.4
881.64	29.08
881.806	-11.19
881.972	35.79
882.138	45.33
882.304	128.75
882.47	-120.23
882.636	-487.09
882.802	-87.98
882.968	-30.78
883.134	-44.92
883.3	-37.44
883.466	23.59
883.632	56.43
883.798	25.85
883.964	34.95
884.129	71.49
884.295	60.32
884.461	-33.16
884.627	4.86
884.793	-33.27
884.958	-22.61
885.124	-132.28
885.29	-241.65
885.455	-454.49
885.621	-94.68
885.787	-202.89
885.952	-65.22
886.118	-62.24
886.283	-68.42
886.449	-177.5
886.614	-128.08
886.78	-217.02
886.945	634.84
887.111	-449.28
887.276	-445.03
887.442	-867.5
887.607	-475.59
887.773	-371.74
887.938	-300.85
888.103	-262.93
888.269	-185.32
888.434	-324.46
888.599	-127.31
888.764	-7.08
888.93	8.41
889.095	-13.62
889.26	-71.39
889.425	-30.9
889.59	-43.29
889.756	-113.62
889.921	-63.07
890.086	42.35
890.251	37.28
890.416	-40.56
890.581	-532.66
890.746	-44.91
890.911	-55.25
891.076	67.15
891.241	-83.02
891.406	104.59
891.571	29.8
891.736	-150.11
891.901	-223.23
892.065	336.54
892.23	109.41
892.395	174.41
892.56	284.47
892.725	-286.13
892.889	-395.73
893.054	-68.22
893.219	-51.99
893.384	-43.59
893.548	-139.33
893.713	-177.1
893.878	-163.2
