Data from Ofra_PS_T2_1A_2GT07_Reflection_2.txt Node
Date: Wed Jul 21 18:00:36 EDT 2021
User: Adam
Spectrometer: FLMT01687
Trigger mode: 0
Integration Time (sec): 1.100000E0
Scans to average: 2
Electric dark correction enabled: true
Nonlinearity correction enabled: false
Boxcar width: 2
XAxis mode: Wavelengths
Number of Pixels in Spectrum: 3648
>>>>>Begin Spectral Data<<<<<
179.494	591.6
179.716	662.82
179.937	587
180.158	540.37
180.38	704.06
180.601	307.46
180.823	48.72
181.044	-60.43
181.265	188.6
181.486	145.98
181.708	127.83
181.929	1337.76
182.15	-433.1
182.372	116.05
182.593	83.1
182.814	80.81
183.035	110.87
183.257	61.61
183.478	-1.6
183.699	14.27
183.92	-23.29
184.141	8.73
184.363	-37.27
184.584	14.39
184.805	48.51
185.026	83.78
185.247	61.13
185.468	37.82
185.689	35.02
185.91	27.94
186.132	5.65
186.353	19.6
186.574	77.47
186.795	54.18
187.016	3.09
187.237	4.35
187.458	-35.62
187.679	-61.95
187.9	-25.43
188.121	-23.77
188.342	2.23
188.563	46.44
188.784	75.82
189.005	63.83
189.226	129.63
189.447	97.52
189.667	-9.47
189.888	-183.99
190.109	-917.53
190.33	-432.58
190.551	-933.19
190.772	-199.39
190.993	-165.04
191.214	-149.67
191.434	-142
191.655	-48.04
191.876	-96.18
192.097	-168.62
192.318	-231.45
192.538	-323.31
192.759	-214.04
192.98	-102.86
193.201	-34.45
193.421	-17.19
193.642	8.79
193.863	1.55
194.083	-20.19
194.304	-36.43
194.525	-23.9
194.745	-69.39
194.966	-61.47
195.187	-53.88
195.407	-43.71
195.628	-110.12
195.848	-114.51
196.069	-133.17
196.29	-64.14
196.51	-106.62
196.731	-102.05
196.951	-132.46
197.172	-122.31
197.392	-185.81
197.613	-166.44
197.833	-156.42
198.054	-112.72
198.274	-65
198.495	-77.75
198.715	-39.27
198.936	-58.04
199.156	-49.78
199.377	-139.38
199.597	-119.97
199.817	-116.86
200.038	-58.32
200.258	-113.05
200.479	-56.9
200.699	-59.1
200.919	-9.09
201.14	-18.88
201.36	-8.46
201.58	17.04
201.801	44.64
202.021	-3.7
202.241	-0.9
202.461	3.95
202.682	-46.33
202.902	-110.31
203.122	-1.41
203.342	-7.06
203.563	23.83
203.783	42.64
204.003	25.55
204.223	-9.43
204.443	24.9
204.663	-22.66
204.884	-4.57
205.104	33.13
205.324	51.63
205.544	84.11
205.764	93.08
205.984	72.1
206.204	57.24
206.424	47.55
206.644	-19.13
206.864	-23.9
207.084	-62.09
207.304	-30.3
207.525	-154.22
207.745	-51.5
207.964	-39.49
208.184	-76.87
208.404	-118.04
208.624	-116.26
208.844	-92.93
209.064	-361.87
209.284	-400.65
209.504	-160.69
209.724	-49.57
209.944	-45
210.164	-4.08
210.384	17
210.604	-15.42
210.823	-49
211.043	-59.67
211.263	-52.31
211.483	-66.53
211.703	-98.42
211.922	-72.18
212.142	-1.98
212.362	25.48
212.582	32.56
212.801	29.95
213.021	-6.31
213.241	-46.04
213.461	-78.3
213.68	-107.37
213.9	-66.86
214.12	-37.95
214.339	-97.06
214.559	-78.33
214.779	-26.58
214.998	-30.18
215.218	-79.16
215.438	-38
215.657	-43.39
215.877	-46.83
216.096	-22.81
216.316	-16.97
216.535	-20.98
216.755	-27.41
216.974	-133.02
217.194	-200.08
217.413	-162.56
217.633	-179.31
217.852	-321.02
218.072	-122.89
218.291	-70.62
218.511	-36.57
218.73	-43.24
218.95	-18.21
219.169	-23.38
219.389	-50.85
219.608	-35.8
219.827	-21.84
220.047	-4.7
220.266	-4.95
220.485	-4.64
220.705	-9.74
220.924	-31.65
221.143	0.07
221.363	-22.97
221.582	-10.64
221.801	-1.36
222.021	13.06
222.24	-71.86
222.459	-64.29
222.678	-89.29
222.897	-142.17
223.117	-150
223.336	-94.22
223.555	-41.81
223.774	-1.25
223.993	21.66
224.213	48.58
224.432	13.8
224.651	35.08
224.87	16.32
225.089	31.38
225.308	15.68
225.527	35.6
225.746	31.48
225.965	25.82
226.184	8.71
226.404	28.36
226.623	-2.01
226.842	3.8
227.061	27.06
227.28	11.5
227.499	-10.66
227.718	10.99
227.936	-6.64
228.155	0.7
228.374	10.38
228.593	17.01
228.812	4.25
229.031	7.42
229.25	-53.88
229.469	-74.33
229.688	-85.22
229.907	-31.65
230.125	-11.18
230.344	8.51
230.563	22.2
230.782	38.76
231.001	-17.12
231.22	-23.44
231.438	-19.68
231.657	-7.24
231.876	-21.82
232.095	35.75
232.313	35.28
232.532	37.43
232.751	21.54
232.969	6.41
233.188	-74.37
233.407	-3.66
233.625	1.02
233.844	-3.04
234.063	18.94
234.281	27.91
234.5	12.81
234.719	13.34
234.937	24.8
235.156	21.81
235.374	21.76
235.593	5.43
235.811	-9.77
236.03	-38.25
236.249	-88.97
236.467	-88.93
236.686	-34.73
236.904	-7.5
237.123	-17.11
237.341	-13.26
237.559	-9.02
237.778	-28.37
237.996	-49.54
238.215	-12.89
238.433	12.91
238.652	29.56
238.87	9.46
239.088	4.26
239.307	3.63
239.525	-22.3
239.743	-51.99
239.962	-36.59
240.18	-58.56
240.398	-119.68
240.617	-125.24
240.835	-118.34
241.053	-82.22
241.271	-37.84
241.49	3.59
241.708	1.4
241.926	-34.47
242.144	-54.72
242.363	-96.22
242.581	-124.11
242.799	-83.99
243.017	-30.78
243.235	-45.69
243.453	-11.51
243.672	-17.5
243.89	-10.9
244.108	-22.19
244.326	9.28
244.544	-5.14
244.762	-0.45
244.98	-1.18
245.198	10.28
245.416	-15.18
245.634	-11.78
245.852	-16.44
246.07	-2.83
246.288	-22.5
246.506	-66.79
246.724	-41.92
246.942	-27.26
247.16	-14.47
247.378	-8.34
247.596	23.66
247.814	18.63
248.032	-15.56
248.25	-15.21
248.468	-1.98
248.685	2.19
248.903	24.04
249.121	45.18
249.339	15.52
249.557	8.67
249.775	8.51
249.992	-50.9
250.21	-60.02
250.428	-25.95
250.646	-43.05
250.863	-71.4
251.081	-41.61
251.299	-17.9
251.517	-14.48
251.734	0.11
251.952	21.87
252.17	25.43
252.387	22.54
252.605	4.17
252.823	6.48
253.04	13.7
253.258	16.98
253.475	6.78
253.693	29.47
253.911	23.02
254.128	29.34
254.346	26.4
254.563	5.97
254.781	-25.54
254.998	-45.39
255.216	-60.66
255.433	-42.09
255.651	8.81
255.868	37.43
256.086	71.83
256.303	53.49
256.521	31.56
256.738	-5.14
256.956	-33.51
257.173	-60.29
257.39	-76.24
257.608	-107.46
257.825	-29.91
258.043	3
258.26	19.91
258.477	59.53
258.695	53.74
258.912	-3.8
259.129	0.63
259.346	-47.75
259.564	-88.24
259.781	-92.74
259.998	-25.07
260.216	-6.08
260.433	41.84
260.65	33
260.867	59.6
261.084	24.11
261.302	-0.11
261.519	-27.93
261.736	-40.01
261.953	-68.61
262.17	-37.36
262.387	-48.44
262.604	-100.99
262.822	-95.19
263.039	-82.42
263.256	-127.02
263.473	-101.91
263.69	-40.96
263.907	-1.93
264.124	-2.75
264.341	-1.16
264.558	0.84
264.775	14
264.992	3.56
265.209	16.48
265.426	33.62
265.643	33.64
265.86	28.74
266.077	27.41
266.294	4.19
266.51	-28.28
266.727	-41.22
266.944	-31.57
267.161	-27.19
267.378	-29.31
267.595	-8.92
267.812	-19.7
268.028	-45.82
268.245	-34.27
268.462	-33.39
268.679	-34.32
268.896	25.84
269.112	34.24
269.329	23.58
269.546	30.28
269.763	28.75
269.979	-7.82
270.196	-17.81
270.413	-36.74
270.629	-59.22
270.846	-69
271.063	-64.9
271.279	-65.48
271.496	-67.46
271.712	-26.45
271.929	-11.9
272.146	-32.87
272.362	-9.68
272.579	9.61
272.795	22.7
273.012	29.57
273.228	45.17
273.445	-3.18
273.661	-35.35
273.878	-91.94
274.094	-79.34
274.311	-123.4
274.527	-39.62
274.744	-34.15
274.96	-47.25
275.177	-40.37
275.393	-12.64
275.609	-28.98
275.826	7.7
276.042	15.16
276.259	8.53
276.475	20.7
276.691	31.63
276.908	6.96
277.124	19.57
277.34	14.89
277.557	-1.81
277.773	-11.3
277.989	-11.9
278.205	-11.44
278.422	11.72
278.638	18.4
278.854	19.45
279.07	17.65
279.286	-5.52
279.503	-50.04
279.719	-62.66
279.935	-72.89
280.151	-84.79
280.367	-49.3
280.583	-52.07
280.799	-32.39
281.016	-42.54
281.232	-13.38
281.448	-20.14
281.664	3.7
281.88	-20.09
282.096	-15.25
282.312	-3.5
282.528	9
282.744	2.19
282.96	5.1
283.176	3.77
283.392	-6.7
283.608	-14.32
283.824	-19.03
284.04	-27.27
284.256	-31.82
284.471	-29.78
284.687	-23.94
284.903	6.92
285.119	44.83
285.335	24.71
285.551	16.18
285.767	-2.17
285.982	-30.69
286.198	-76.58
286.414	-7.99
286.63	7.74
286.846	35.65
287.061	21.08
287.277	51.9
287.493	17.83
287.709	34.66
287.924	6.43
288.14	38.24
288.356	23.21
288.571	46.18
288.787	27.07
289.003	28.68
289.218	7.77
289.434	-21.79
289.65	-9.32
289.865	-22.72
290.081	30.34
290.296	38.76
290.512	42.52
290.727	-3.41
290.943	4.75
291.159	-26.75
291.374	-24.9
291.59	-36.56
291.805	-27.46
292.021	-30.38
292.236	-32.92
292.451	-18.44
292.667	-14.81
292.882	-1.51
293.098	7.42
293.313	-12.89
293.529	-44.91
293.744	-50.16
293.959	-63.72
294.175	-55.47
294.39	-15.67
294.605	2.67
294.821	33.44
295.036	44.92
295.251	44.82
295.467	14.58
295.682	-4.55
295.897	-87.59
296.112	-99.96
296.328	-97.47
296.543	-120.45
296.758	-97.15
296.973	-23.75
297.188	19.27
297.404	-5.25
297.619	-0.69
297.834	-21.58
298.049	-52.33
298.264	-88.12
298.479	-25.35
298.694	-22.07
298.909	2.41
299.125	19.4
299.34	28.49
299.555	10.6
299.77	32.42
299.985	-10.08
300.2	-74.46
300.415	-82.9
300.63	-61.76
300.845	-63.23
301.06	-66.09
301.275	-16.8
301.49	4.29
301.704	-1.7
301.919	-25.31
302.134	-30.44
302.349	-49.23
302.564	-125.75
302.779	-160.09
302.994	-121.55
303.209	-68.17
303.423	-29.17
303.638	26.04
303.853	-8
304.068	-15.47
304.283	-14.14
304.497	-6.04
304.712	-19.08
304.927	-3.86
305.142	-8.74
305.356	1.94
305.571	-3.64
305.786	-13.38
306	-16
306.215	2.55
306.43	-12.77
306.644	-4.59
306.859	49.9
307.074	33.98
307.288	-9.15
307.503	-28.98
307.717	-30.47
307.932	-25.64
308.147	-25.15
308.361	8.04
308.576	-3.05
308.79	-48.47
309.005	-54.4
309.219	-27.33
309.434	-37.73
309.648	-25.84
309.863	12.35
310.077	16.82
310.292	-10.37
310.506	-14.6
310.72	-2.13
310.935	2.33
311.149	-6.63
311.364	8.98
311.578	23.9
311.792	13.96
312.007	9.43
312.221	-9.6
312.435	3.39
312.649	-8.5
312.864	36.74
313.078	43.26
313.292	120.03
313.507	103.49
313.721	125.17
313.935	30.15
314.149	21.18
314.363	9.49
314.578	4.16
314.792	7.57
315.006	-4.68
315.22	3.44
315.434	2.06
315.648	6.77
315.862	0.51
316.077	3.38
316.291	-6.64
316.505	7.39
316.719	7.64
316.933	-12.34
317.147	-12.38
317.361	-44.15
317.575	-76.98
317.789	-110.61
318.003	-149.24
318.217	-100.28
318.431	-28.61
318.645	20.46
318.859	14.77
319.073	36.87
319.287	26.41
319.5	-6.7
319.714	-66.07
319.928	-78.53
320.142	-106.34
320.356	-62.06
320.57	-4.03
320.784	23.78
320.997	3.23
321.211	-5.63
321.425	-72.63
321.639	-98.12
321.853	-50.87
322.066	-22.65
322.28	-26.65
322.494	-8.05
322.707	-3.45
322.921	-13.36
323.135	-9.2
323.349	8.97
323.562	-12.14
323.776	-24.89
323.989	-27
324.203	-48.05
324.417	-62.82
324.63	-66.33
324.844	-69.55
325.057	-62.28
325.271	-31.12
325.485	-2.51
325.698	16.07
325.912	34.7
326.125	0.56
326.339	-11.88
326.552	-54.9
326.766	-71.63
326.979	-73.65
327.193	-4.64
327.406	-16.19
327.619	-3.42
327.833	20.98
328.046	-1.16
328.26	-42.92
328.473	-28.64
328.686	-65.03
328.9	-69.95
329.113	-48.13
329.326	-80.84
329.54	-53.7
329.753	-61.24
329.966	-87.77
330.179	-63.51
330.393	-29.16
330.606	-27.26
330.819	3.68
331.032	19.08
331.246	15.8
331.459	42.96
331.672	30.41
331.885	25.42
332.098	13
332.311	-1.24
332.525	-63.78
332.738	-48.05
332.951	-16.24
333.164	4.3
333.377	16.91
333.59	47.02
333.803	38.21
334.016	22.14
334.229	13.24
334.442	23.61
334.655	39.24
334.868	51.27
335.081	29.39
335.294	18.07
335.507	1.07
335.72	-15.84
335.933	-24.5
336.146	-12.65
336.359	-20.51
336.572	-50.75
336.785	-87.61
336.997	-73.27
337.21	-54.3
337.423	-47.85
337.636	-22.42
337.849	-5.43
338.062	-14.25
338.274	-13.41
338.487	-22.62
338.7	-29.7
338.913	-54.07
339.125	-66.75
339.338	-135.93
339.551	-91.19
339.763	-49.8
339.976	-29.34
340.189	-3.89
340.402	28.39
340.614	12.36
340.827	-6.31
341.039	-18
341.252	-23.14
341.465	-14.98
341.677	-24.41
341.89	-51.71
342.102	-20.06
342.315	-36
342.527	-69.28
342.74	-61.37
342.952	-23.88
343.165	-23.92
343.377	5.66
343.59	12.4
343.802	32.87
344.015	38.22
344.227	53.91
344.44	45.47
344.652	29.76
344.864	6.05
345.077	17.94
345.289	6.85
345.502	3.64
345.714	4.9
345.926	10.97
346.139	-5.97
346.351	-2.42
346.563	4.64
346.775	8.27
346.988	-5.6
347.2	-12.09
347.412	-56.47
347.624	-81.34
347.837	-105.37
348.049	-70.48
348.261	-30.25
348.473	-8.29
348.685	-15.52
348.897	-15.28
349.11	-27.67
349.322	-50.15
349.534	-30.64
349.746	-18.5
349.958	-4.78
350.17	-16.11
350.382	7.18
350.594	-4.08
350.806	1.14
351.018	4.36
351.23	-0.71
351.442	-62.06
351.654	-72.24
351.866	-51.43
352.078	-37.29
352.29	-15.23
352.502	10.69
352.714	31.32
352.926	10.41
353.138	0.93
353.35	-5.54
353.561	-12.62
353.773	-41.14
353.985	-16.83
354.197	-23.34
354.409	-19.66
354.621	-28.76
354.832	-17.06
355.044	-38.52
355.256	-36.36
355.468	-21.91
355.679	-26.24
355.891	-12.38
356.103	-18.51
356.314	-10.52
356.526	-24.56
356.738	-10.2
356.949	-28.37
357.161	-12.17
357.373	-15.55
357.584	-16.99
357.796	-4.35
358.008	-13.75
358.219	4.66
358.431	16.25
358.642	13.89
358.854	11.34
359.065	7.04
359.277	-25.99
359.488	-46.68
359.7	-59.68
359.911	-75.28
360.123	-45.05
360.334	-58.45
360.546	-71.2
360.757	-50.88
360.969	-41.5
361.18	-40.69
361.391	-2.02
361.603	5.48
361.814	10.56
362.025	10.38
362.237	10.48
362.448	27.62
362.659	25.52
362.871	17.5
363.082	13.75
363.293	9.54
363.504	-16.17
363.716	-36.9
363.927	-52.42
364.138	-60.74
364.349	-68.88
364.56	-61.7
364.772	-44.53
364.983	-9.56
365.194	-5.12
365.405	-0.95
365.616	23
365.827	28.42
366.038	-4.31
366.25	-11.63
366.461	-39.31
366.672	-27.75
366.883	-9.96
367.094	-5.64
367.305	-19.17
367.516	-7.58
367.727	-41.67
367.938	-60.01
368.149	-64.02
368.36	-31.81
368.571	-21.11
368.781	-25.7
368.992	-35.61
369.203	-42.35
369.414	-65.45
369.625	-67.69
369.836	-56.16
370.047	-65.74
370.258	-58.39
370.468	-64.24
370.679	-70.82
370.89	-63.56
371.101	-43.47
371.312	-36.3
371.522	-21.86
371.733	-19.8
371.944	-8.5
372.155	3.67
372.365	-1.62
372.576	2.83
372.787	4.79
372.997	-25.13
373.208	-34
373.419	-6.69
373.629	-32.21
373.84	-28.78
374.05	-25.18
374.261	-19.69
374.472	-39.1
374.682	3.56
374.893	-2.68
375.103	25.36
375.314	11.39
375.524	7.85
375.735	-2.33
375.945	10.66
376.156	-16.26
376.366	-11.86
376.577	-2.11
376.787	-10.17
376.997	-17.05
377.208	-0.52
377.418	-5.22
377.629	-6.8
377.839	-1.34
378.049	3.03
378.26	14.65
378.47	22.85
378.68	18.8
378.89	12.53
379.101	0.24
379.311	-41.72
379.521	-78.76
379.732	-84.35
379.942	-69.3
380.152	-80.03
380.362	-35.11
380.572	-20.06
380.783	0.27
380.993	6.58
381.203	18.51
381.413	21.22
381.623	30.33
381.833	17.73
382.043	9.45
382.253	2.97
382.463	-1.52
382.674	-18.93
382.884	-36.99
383.094	-42.12
383.304	-29.39
383.514	-17.39
383.724	0.64
383.934	-3.89
384.144	-10.49
384.353	-26.26
384.563	-34.35
384.773	-32.27
384.983	-28.78
385.193	-8.14
385.403	1.42
385.613	1.78
385.823	-11.75
386.033	-9.02
386.242	-20.32
386.452	-25.34
386.662	-34.95
386.872	-22.36
387.082	-24.92
387.291	-28.57
387.501	-29.44
387.711	-21.61
387.921	-27.1
388.13	-24.25
388.34	-10.25
388.55	-10.7
388.759	-12.48
388.969	-2.91
389.179	-7.4
389.388	-12.42
389.598	-7.34
389.807	-9.42
390.017	-15.69
390.227	-11.2
390.436	-8.99
390.646	-6.98
390.855	-4.73
391.065	-6.21
391.274	-5.8
391.484	-8.99
391.693	-7.02
391.903	-3.07
392.112	2.85
392.322	5.37
392.531	8.95
392.74	6.56
392.95	0.47
393.159	-3.06
393.369	-4.73
393.578	-5.84
393.787	-5.58
393.997	-3.06
394.206	-3.94
394.415	-3.32
394.625	-4.05
394.834	-4.73
395.043	-4.43
395.252	-1.24
395.462	-0.34
395.671	0.81
395.88	2.23
396.089	3.32
396.298	1.76
396.508	1.95
396.717	1.12
396.926	0.53
397.135	-0.43
397.344	-0.18
397.553	0.12
397.762	1.5
397.971	1.89
398.181	2.19
398.39	0.99
398.599	0.46
398.808	0.23
399.017	0.9
399.226	2.24
399.435	3.83
399.644	4.3
399.853	3.58
400.062	3.15
400.27	2.22
400.479	1.82
400.688	1
400.897	1.46
401.106	1.26
401.315	1.52
401.524	1.75
401.733	2.53
401.941	2.86
402.15	3.01
402.359	2.71
402.568	2.84
402.777	2.6
402.985	2.42
403.194	2.16
403.403	2.13
403.612	1.45
403.82	1.39
404.029	1.44
404.238	1.59
404.446	2.03
404.655	2.11
404.864	1.96
405.072	1.71
405.281	1.79
405.489	1.33
405.698	1.46
405.906	1.53
406.115	1.59
406.324	1.55
406.532	1.83
406.741	2.09
406.949	2.16
407.158	2.15
407.366	2.17
407.574	2.07
407.783	1.92
407.991	1.75
408.2	1.88
408.408	1.9
408.617	1.84
408.825	1.67
409.033	1.82
409.242	1.86
409.45	1.87
409.658	1.77
409.867	2.08
410.075	2
410.283	1.74
410.491	1.56
410.7	1.64
410.908	1.53
411.116	1.89
411.324	2.01
411.533	2.05
411.741	2.29
411.949	2.14
412.157	1.82
412.365	1.92
412.573	1.99
412.781	1.92
412.99	1.85
413.198	1.96
413.406	1.93
413.614	1.98
413.822	1.76
414.03	1.8
414.238	1.66
414.446	1.64
414.654	1.42
414.862	1.55
415.07	1.62
415.278	1.81
415.486	1.62
415.694	1.84
415.902	1.66
416.109	1.56
416.317	1.37
416.525	1.42
416.733	1.27
416.941	1.45
417.149	1.44
417.357	1.47
417.564	1.65
417.772	1.87
417.98	1.82
418.188	1.85
418.395	2.02
418.603	2.05
418.811	1.73
419.019	1.65
419.226	1.91
419.434	1.9
419.642	1.65
419.849	1.82
420.057	1.83
420.265	1.69
420.472	1.47
420.68	1.63
420.887	1.49
421.095	1.63
421.302	1.52
421.51	1.72
421.717	1.69
421.925	1.84
422.132	1.64
422.34	1.43
422.547	1.42
422.755	1.28
422.962	1.09
423.17	1.04
423.377	1.31
423.585	1.27
423.792	1.2
423.999	1.21
424.207	1.28
424.414	1.39
424.621	1.31
424.829	1.34
425.036	1.45
425.243	1.55
425.451	1.38
425.658	1.29
425.865	1.49
426.072	1.54
426.28	1.72
426.487	1.72
426.694	1.79
426.901	1.64
427.108	1.68
427.315	1.41
427.523	1.61
427.73	1.75
427.937	1.75
428.144	1.42
428.351	1.35
428.558	1.41
428.765	1.2
428.972	1.13
429.179	1.38
429.386	1.7
429.593	1.42
429.8	1.5
430.007	1.59
430.214	1.75
430.421	1.68
430.628	1.63
430.835	1.45
431.042	1.64
431.249	1.62
431.456	1.6
431.662	1.75
431.869	2
432.076	1.94
432.283	1.97
432.49	1.86
432.697	1.81
432.903	1.63
433.11	1.55
433.317	1.56
433.524	1.78
433.73	1.81
433.937	2.08
434.144	2
434.35	1.88
434.557	1.68
434.764	1.68
434.97	1.54
435.177	1.76
435.384	1.74
435.59	1.86
435.797	2.06
436.003	2.09
436.21	2.07
436.416	2.21
436.623	2.13
436.829	2.15
437.036	2.18
437.242	2.18
437.449	2.14
437.655	2.13
437.862	2.12
438.068	2.09
438.275	2.26
438.481	2.41
438.687	2.54
438.894	2.44
439.1	2.55
439.307	2.62
439.513	2.52
439.719	2.47
439.926	2.59
440.132	2.5
440.338	2.29
440.544	2.41
440.751	2.35
440.957	2.33
441.163	2.26
441.369	2.32
441.575	2.04
441.782	2.08
441.988	1.93
442.194	1.96
442.4	1.98
442.606	2.33
442.812	2.39
443.018	2.56
443.224	2.61
443.431	2.7
443.637	2.49
443.843	2.41
444.049	2.42
444.255	2.5
444.461	2.5
444.667	2.42
444.873	2.59
445.079	2.62
445.284	2.63
445.49	2.4
445.696	2.29
445.902	2.18
446.108	2.11
446.314	2.02
446.52	2.17
446.726	2.43
446.931	2.43
447.137	2.43
447.343	2.49
447.549	2.39
447.755	2.29
447.96	2.38
448.166	2.28
448.372	2.19
448.578	2.31
448.783	2.3
448.989	2.33
449.195	2.56
449.4	2.63
449.606	2.55
449.812	2.56
450.017	2.54
450.223	2.4
450.428	2.34
450.634	2.46
450.84	2.59
451.045	2.52
451.251	2.49
451.456	2.73
451.662	2.78
451.867	2.83
452.073	2.85
452.278	3.03
452.483	3.08
452.689	2.96
452.894	2.88
453.1	2.92
453.305	2.82
453.51	2.74
453.716	2.67
453.921	2.79
454.127	2.72
454.332	2.63
454.537	2.56
454.742	2.66
454.948	2.58
455.153	2.69
455.358	2.78
455.563	3.02
455.769	3.07
455.974	3.13
456.179	2.97
456.384	2.99
456.589	2.9
456.795	2.68
457	2.62
457.205	2.9
457.41	2.93
457.615	2.82
457.82	3.02
458.025	2.98
458.23	2.83
458.435	2.94
458.64	2.87
458.845	2.98
459.05	3
459.255	3.02
459.46	2.94
459.665	3.03
459.87	3.07
460.075	3.12
460.28	3.18
460.485	3.26
460.69	3.26
460.895	3.02
461.099	2.97
461.304	3.06
461.509	3.06
461.714	3.05
461.919	3.25
462.123	3.2
462.328	3.2
462.533	3.07
462.738	3.11
462.942	3.06
463.147	3.09
463.352	3.02
463.556	3.08
463.761	3.16
463.966	3.1
464.17	3.13
464.375	3.06
464.58	3
464.784	2.92
464.989	3
465.193	3
465.398	3.03
465.602	3.16
465.807	3.16
466.011	3.25
466.216	3.33
466.42	3.46
466.625	3.58
466.829	3.69
467.034	3.72
467.238	3.88
467.443	3.83
467.647	3.58
467.851	3.64
468.056	3.6
468.26	3.45
468.464	3.45
468.669	3.66
468.873	3.8
469.077	3.8
469.282	3.9
469.486	3.98
469.69	4
469.894	3.76
470.099	3.86
470.303	3.97
470.507	3.86
470.711	3.72
470.915	3.75
471.119	3.67
471.324	3.47
471.528	3.51
471.732	3.65
471.936	3.67
472.14	3.72
472.344	3.76
472.548	3.87
472.752	3.97
472.956	4.09
473.16	4.01
473.364	3.99
473.568	3.98
473.772	4.02
473.976	3.94
474.18	3.95
474.384	4.05
474.588	4
474.792	3.85
474.995	3.94
475.199	4.05
475.403	4.14
475.607	4.22
475.811	4.16
476.015	4.19
476.218	4.25
476.422	4.13
476.626	4.18
476.83	4.31
477.033	4.24
477.237	4.13
477.441	4.2
477.644	4.13
477.848	4.14
478.052	4.06
478.255	4.12
478.459	4.17
478.663	4.25
478.866	4.25
479.07	4.36
479.273	4.48
479.477	4.48
479.681	4.48
479.884	4.43
480.088	4.38
480.291	4.3
480.495	4.27
480.698	4.25
480.901	4.3
481.105	4.46
481.308	4.45
481.512	4.46
481.715	4.48
481.919	4.5
482.122	4.49
482.325	4.45
482.529	4.5
482.732	4.52
482.935	4.47
483.138	4.29
483.342	4.48
483.545	4.55
483.748	4.56
483.952	4.65
484.155	4.82
484.358	4.76
484.561	4.69
484.764	4.63
484.967	4.73
485.171	4.79
485.374	4.74
485.577	4.86
485.78	4.91
485.983	4.87
486.186	4.73
486.389	4.7
486.592	4.62
486.795	4.66
486.998	4.62
487.201	4.65
487.404	4.78
487.607	4.83
487.81	4.82
488.013	4.84
488.216	4.85
488.419	4.76
488.622	4.71
488.825	4.63
489.028	4.61
489.231	4.56
489.433	4.53
489.636	4.48
489.839	4.49
490.042	4.37
490.245	4.34
490.447	4.45
490.65	4.42
490.853	4.44
491.056	4.58
491.258	4.67
491.461	4.63
491.664	4.75
491.866	4.69
492.069	4.75
492.272	4.66
492.474	4.65
492.677	4.7
492.879	4.82
493.082	4.8
493.285	5.01
493.487	5.02
493.69	4.91
493.892	4.81
494.095	4.78
494.297	4.69
494.5	4.68
494.702	4.73
494.905	4.78
495.107	4.76
495.309	4.69
495.512	4.73
495.714	4.79
495.917	4.83
496.119	4.86
496.321	4.89
496.524	4.89
496.726	4.86
496.928	4.89
497.13	4.86
497.333	4.88
497.535	4.9
497.737	4.89
497.939	4.88
498.142	4.9
498.344	4.87
498.546	4.79
498.748	4.8
498.95	4.87
499.152	4.85
499.355	4.92
499.557	5
499.759	5.1
499.961	5.03
500.163	5.08
500.365	5.06
500.567	5.11
500.769	4.96
500.971	4.95
501.173	4.92
501.375	4.99
501.577	4.9
501.779	4.97
501.981	5.01
502.183	5.04
502.385	4.97
502.587	4.98
502.788	5.03
502.99	5.09
503.192	5.11
503.394	5.11
503.596	5.09
503.798	5.1
503.999	5.08
504.201	5.05
504.403	5.1
504.605	5.16
504.806	5.08
505.008	5.1
505.21	5.17
505.411	5.12
505.613	5.13
505.815	5.18
506.016	5.23
506.218	5.26
506.42	5.28
506.621	5.27
506.823	5.25
507.024	5.14
507.226	5.1
507.427	5.12
507.629	5.17
507.83	5.27
508.032	5.31
508.233	5.42
508.435	5.49
508.636	5.52
508.838	5.37
509.039	5.35
509.24	5.28
509.442	5.26
509.643	5.18
509.845	5.25
510.046	5.33
510.247	5.32
510.448	5.32
510.65	5.43
510.851	5.49
511.052	5.44
511.254	5.43
511.455	5.48
511.656	5.49
511.857	5.59
512.058	5.59
512.26	5.62
512.461	5.59
512.662	5.58
512.863	5.42
513.064	5.41
513.265	5.39
513.466	5.45
513.667	5.42
513.868	5.5
514.069	5.62
514.27	5.7
514.471	5.64
514.672	5.64
514.873	5.59
515.074	5.54
515.275	5.45
515.476	5.41
515.677	5.42
515.878	5.56
516.079	5.57
516.28	5.62
516.481	5.75
516.682	5.81
516.882	5.72
517.083	5.68
517.284	5.62
517.485	5.58
517.686	5.52
517.886	5.5
518.087	5.54
518.288	5.62
518.488	5.56
518.689	5.52
518.89	5.55
519.091	5.58
519.291	5.56
519.492	5.65
519.692	5.76
519.893	5.81
520.094	5.76
520.294	5.78
520.495	5.71
520.695	5.7
520.896	5.74
521.096	5.8
521.297	5.81
521.497	5.88
521.698	5.83
521.898	5.79
522.099	5.83
522.299	5.94
522.499	5.93
522.7	5.97
522.9	5.96
523.101	5.94
523.301	5.91
523.501	5.89
523.702	5.91
523.902	5.98
524.102	6.05
524.302	6.02
524.503	6.05
524.703	6.06
524.903	6.07
525.103	5.97
525.304	6.06
525.504	6.14
525.704	6.18
525.904	6.12
526.104	6.11
526.304	6.08
526.504	6
526.705	5.99
526.905	6.1
527.105	6.14
527.305	6.08
527.505	6.06
527.705	6
527.905	5.97
528.105	6.01
528.305	5.99
528.505	6.09
528.705	6.17
528.905	6.13
529.105	6.08
529.304	6.19
529.504	6.19
529.704	6.13
529.904	6.16
530.104	6.16
530.304	6.21
530.503	6.21
530.703	6.19
530.903	6.17
531.103	6.24
531.303	6.16
531.502	6.19
531.702	6.31
531.902	6.33
532.101	6.3
532.301	6.29
532.501	6.24
532.7	6.17
532.9	6.19
533.1	6.21
533.299	6.29
533.499	6.34
533.698	6.33
533.898	6.33
534.097	6.36
534.297	6.36
534.496	6.32
534.696	6.37
534.895	6.48
535.095	6.56
535.294	6.54
535.494	6.55
535.693	6.58
535.892	6.57
536.092	6.46
536.291	6.48
536.491	6.55
536.69	6.6
536.889	6.53
537.088	6.59
537.288	6.62
537.487	6.69
537.686	6.65
537.886	6.74
538.085	6.8
538.284	6.9
538.483	6.84
538.682	6.89
538.882	6.91
539.081	6.89
539.28	6.78
539.479	6.77
539.678	6.73
539.877	6.75
540.076	6.75
540.275	6.8
540.474	6.88
540.673	6.91
540.872	6.85
541.071	6.91
541.27	6.96
541.469	7
541.668	7.04
541.867	7.09
542.066	7.13
542.265	7.21
542.464	7.16
542.663	7.19
542.862	7.3
543.06	7.29
543.259	7.27
543.458	7.33
543.657	7.37
543.856	7.42
544.054	7.44
544.253	7.41
544.452	7.42
544.651	7.49
544.849	7.45
545.048	7.49
545.247	7.49
545.445	7.55
545.644	7.55
545.843	7.52
546.041	7.51
546.24	7.67
546.438	7.76
546.637	7.8
546.836	7.94
547.034	8.04
547.233	8.07
547.431	8.05
547.63	8.1
547.828	8.13
548.027	8.15
548.225	8.12
548.423	8.13
548.622	8.17
548.82	8.14
549.019	8.18
549.217	8.25
549.415	8.31
549.614	8.35
549.812	8.39
550.01	8.36
550.209	8.42
550.407	8.51
550.605	8.5
550.803	8.65
551.002	8.8
551.2	8.81
551.398	8.85
551.596	9.01
551.794	9.06
551.993	9.1
552.191	9.23
552.389	9.32
552.587	9.35
552.785	9.39
552.983	9.43
553.181	9.5
553.379	9.55
553.577	9.64
553.775	9.76
553.973	9.86
554.171	9.96
554.369	10.01
554.567	10.02
554.765	10.04
554.963	10.12
555.161	10.06
555.359	10.09
555.557	10.19
555.755	10.31
555.952	10.45
556.15	10.56
556.348	10.71
556.546	10.85
556.744	10.87
556.941	10.86
557.139	10.99
557.337	11.06
557.535	11.03
557.732	11.13
557.93	11.33
558.128	11.34
558.325	11.43
558.523	11.53
558.721	11.67
558.918	11.67
559.116	11.79
559.313	11.77
559.511	11.9
559.708	11.95
559.906	12
560.104	12.06
560.301	12.22
560.498	12.28
560.696	12.31
560.893	12.43
561.091	12.57
561.288	12.72
561.486	12.82
561.683	12.97
561.88	13.05
562.078	13.08
562.275	13.08
562.473	13.22
562.67	13.36
562.867	13.46
563.064	13.62
563.262	13.74
563.459	13.77
563.656	13.82
563.853	13.88
564.051	13.97
564.248	14.11
564.445	14.28
564.642	14.35
564.839	14.54
565.036	14.67
565.234	14.79
565.431	14.89
565.628	14.97
565.825	15.01
566.022	15.15
566.219	15.23
566.416	15.24
566.613	15.36
566.81	15.43
567.007	15.37
567.204	15.4
567.401	15.48
567.598	15.54
567.795	15.57
567.991	15.67
568.188	15.8
568.385	15.97
568.582	16.05
568.779	16.2
568.976	16.29
569.172	16.42
569.369	16.35
569.566	16.44
569.763	16.47
569.96	16.57
570.156	16.5
570.353	16.59
570.55	16.65
570.746	16.68
570.943	16.65
571.14	16.73
571.336	16.77
571.533	16.9
571.729	16.95
571.926	17.05
572.123	17.19
572.319	17.26
572.516	17.28
572.712	17.36
572.909	17.46
573.105	17.5
573.302	17.57
573.498	17.64
573.695	17.68
573.891	17.69
574.087	17.66
574.284	17.64
574.48	17.55
574.677	17.58
574.873	17.58
575.069	17.67
575.266	17.75
575.462	17.77
575.658	17.9
575.854	17.95
576.051	17.94
576.247	17.89
576.443	17.94
576.639	17.85
576.835	17.8
577.032	17.74
577.228	17.84
577.424	17.87
577.62	17.79
577.816	17.83
578.012	17.92
578.208	17.9
578.404	17.91
578.6	18.04
578.796	18.03
578.993	17.98
579.189	18.01
579.384	17.93
579.58	17.84
579.776	17.86
579.972	17.81
580.168	17.73
580.364	17.8
580.56	17.84
580.756	17.84
580.952	17.82
581.148	17.86
581.343	17.87
581.539	17.88
581.735	17.92
581.931	18.05
582.127	18.05
582.322	17.99
582.518	18.03
582.714	18.02
582.909	17.98
583.105	17.99
583.301	18.02
583.496	18.02
583.692	17.91
583.888	17.85
584.083	17.93
584.279	17.92
584.474	17.87
584.67	17.96
584.866	17.98
585.061	17.8
585.257	17.94
585.452	17.94
585.648	17.86
585.843	17.91
586.039	18.07
586.234	17.96
586.429	17.91
586.625	17.97
586.82	17.87
587.015	17.77
587.211	17.75
587.406	17.85
587.601	17.9
587.797	17.93
587.992	17.89
588.187	17.98
588.383	17.9
588.578	17.8
588.773	17.9
588.968	18.07
589.163	18.1
589.359	18.17
589.554	18.23
589.749	18.22
589.944	18.25
590.139	18.19
590.334	18.23
590.529	18.25
590.724	18.33
590.919	18.35
591.114	18.43
591.309	18.51
591.504	18.64
591.699	18.56
591.894	18.66
592.089	18.63
592.284	18.62
592.479	18.68
592.674	18.74
592.869	18.7
593.064	18.9
593.259	19.11
593.454	19.15
593.648	19.19
593.843	19.18
594.038	19.13
594.233	19.03
594.428	18.99
594.622	19.04
594.817	19.26
595.012	19.3
595.206	19.36
595.401	19.44
595.596	19.59
595.79	19.67
595.985	19.84
596.18	20.01
596.374	20.19
596.569	20.24
596.763	20.2
596.958	20.19
597.153	20.17
597.347	20.09
597.542	20.15
597.736	20.2
597.931	20.4
598.125	20.48
598.319	20.74
598.514	20.82
598.708	20.96
598.903	20.92
599.097	21.05
599.291	21.05
599.486	21.03
599.68	21.05
599.874	21.21
600.069	21.17
600.263	21.13
600.457	21.27
600.651	21.37
600.846	21.29
601.04	21.41
601.234	21.44
601.428	21.5
601.622	21.54
601.817	21.64
602.011	21.65
602.205	21.8
602.399	21.76
602.593	21.77
602.787	21.76
602.981	21.72
603.175	21.79
603.369	21.77
603.563	21.8
603.757	21.86
603.951	21.92
604.145	21.76
604.339	21.85
604.533	21.76
604.727	21.71
604.921	21.64
605.115	21.7
605.309	21.73
605.502	21.77
605.696	21.67
605.89	21.68
606.084	21.62
606.278	21.53
606.471	21.35
606.665	21.34
606.859	21.29
607.053	21.24
607.246	21.2
607.44	21.24
607.634	21.15
607.827	21.17
608.021	21.05
608.214	21.02
608.408	21.02
608.602	20.97
608.795	20.83
608.989	20.75
609.182	20.58
609.376	20.48
609.569	20.49
609.763	20.38
609.956	20.34
610.15	20.37
610.343	20.38
610.537	20.27
610.73	20.26
610.923	20.3
611.117	20.21
611.31	20.08
611.504	20.06
611.697	19.99
611.89	19.89
612.083	19.83
612.277	19.81
612.47	19.72
612.663	19.65
612.856	19.51
613.05	19.39
613.243	19.21
613.436	19.13
613.629	19.06
613.822	19.02
614.015	18.94
614.209	18.88
614.402	18.81
614.595	18.79
614.788	18.74
614.981	18.7
615.174	18.64
615.367	18.58
615.56	18.43
615.753	18.45
615.946	18.39
616.139	18.45
616.332	18.5
616.525	18.45
616.718	18.45
616.911	18.45
617.103	18.36
617.296	18.27
617.489	18.27
617.682	18.09
617.875	18.07
618.067	17.99
618.26	17.83
618.453	17.86
618.646	17.93
618.838	17.9
619.031	17.97
619.224	18.03
619.417	18.01
619.609	18.01
619.802	17.89
619.994	17.78
620.187	17.72
620.38	17.6
620.572	17.42
620.765	17.49
620.957	17.38
621.15	17.35
621.342	17.32
621.535	17.38
621.727	17.26
621.92	17.27
622.112	17.23
622.305	17.23
622.497	17.12
622.69	17.14
622.882	17.09
623.074	17.2
623.267	17.2
623.459	17.15
623.651	17.16
623.844	17.21
624.036	17.15
624.228	17.1
624.42	17.15
624.613	17.26
624.805	17.21
624.997	17.12
625.189	17.08
625.381	17.09
625.574	16.89
625.766	16.82
625.958	16.78
626.15	16.82
626.342	16.77
626.534	16.83
626.726	16.83
626.918	16.78
627.11	16.71
627.302	16.68
627.494	16.55
627.686	16.58
627.878	16.59
628.07	16.63
628.262	16.51
628.454	16.6
628.646	16.54
628.838	16.6
629.029	16.47
629.221	16.52
629.413	16.33
629.605	16.29
629.797	16.21
629.989	16.24
630.18	16.22
630.372	16.26
630.564	16.28
630.755	16.28
630.947	16.33
631.139	16.23
631.33	16.18
631.522	16.15
631.714	16.13
631.905	16.11
632.097	16.09
632.289	16.14
632.48	16.11
632.672	15.99
632.863	15.81
633.055	15.81
633.246	15.77
633.438	15.68
633.629	15.63
633.821	15.63
634.012	15.54
634.203	15.42
634.395	15.47
634.586	15.53
634.777	15.57
634.969	15.67
635.16	15.78
635.351	15.68
635.543	15.67
635.734	15.63
635.925	15.63
636.117	15.62
636.308	15.69
636.499	15.71
636.69	15.62
636.881	15.57
637.073	15.66
637.264	15.61
637.455	15.66
637.646	15.85
637.837	15.91
638.028	15.76
638.219	15.89
638.41	15.77
638.601	15.58
638.792	15.55
638.983	15.56
639.174	15.53
639.365	15.61
639.556	15.69
639.747	15.59
639.938	15.56
640.129	15.44
640.32	15.32
640.511	15.35
640.701	15.54
640.892	15.57
641.083	15.65
641.274	15.69
641.465	15.6
641.655	15.4
641.846	15.35
642.037	15.23
642.228	15.13
642.418	15.21
642.609	15.27
642.8	15.29
642.99	15.31
643.181	15.46
643.372	15.42
643.562	15.37
643.753	15.23
643.943	15.22
644.134	15.03
644.324	14.91
644.515	14.9
644.705	15.03
644.896	14.98
645.086	15.06
645.277	15.09
645.467	15.12
645.658	15.02
645.848	15.05
646.038	15.09
646.229	15.05
646.419	14.98
646.61	15.01
646.8	14.94
646.99	14.88
647.18	14.85
647.371	14.86
647.561	14.89
647.751	14.87
647.941	14.77
648.132	14.8
648.322	14.79
648.512	14.83
648.702	14.87
648.892	14.91
649.082	14.82
649.272	14.63
649.462	14.43
649.653	14.31
649.843	14.24
650.033	14.36
650.223	14.43
650.413	14.42
650.603	14.47
650.793	14.46
650.983	14.33
651.172	14.26
651.362	14.21
651.552	14.11
651.742	14
651.932	13.96
652.122	13.95
652.312	14
652.502	13.94
652.691	13.89
652.881	13.79
653.071	13.68
653.261	13.49
653.45	13.38
653.64	13.45
653.83	13.34
654.019	13.25
654.209	13.24
654.399	13.23
654.588	13.01
654.778	12.97
654.968	12.9
655.157	12.8
655.347	12.7
655.536	12.58
655.726	12.46
655.915	12.3
656.105	12.23
656.294	12.06
656.484	11.85
656.673	11.71
656.863	11.7
657.052	11.44
657.241	11.24
657.431	11.09
657.62	10.87
657.809	10.53
657.999	10.44
658.188	10.27
658.377	10.14
658.567	10.1
658.756	10.04
658.945	9.85
659.134	9.71
659.324	9.66
659.513	9.56
659.702	9.43
659.891	9.29
660.08	9.23
660.269	9.16
660.458	8.96
660.648	8.87
660.837	8.7
661.026	8.63
661.215	8.37
661.404	8.22
661.593	8.12
661.782	7.98
661.971	7.9
662.16	7.8
662.349	7.75
662.538	7.53
662.726	7.44
662.915	7.25
663.104	7.19
663.293	7.17
663.482	7.29
663.671	7.23
663.86	7.09
664.048	7.05
664.237	6.92
664.426	6.6
664.615	6.59
664.803	6.52
664.992	6.33
665.181	6.25
665.369	6.2
665.558	6.14
665.747	6.15
665.935	6.24
666.124	6.21
666.312	6.33
666.501	6.28
666.69	6.13
666.878	6.07
667.067	5.88
667.255	5.82
667.444	6.07
667.632	6.15
667.82	6.23
668.009	6.28
668.197	6.24
668.386	5.99
668.574	6.08
668.762	5.96
668.951	6
669.139	5.96
669.327	5.82
669.516	5.83
669.704	5.79
669.892	5.86
670.08	5.98
670.269	6.01
670.457	5.87
670.645	5.76
670.833	5.74
671.021	5.65
671.21	5.76
671.398	5.87
671.586	5.89
671.774	5.76
671.962	5.77
672.15	5.74
672.338	5.74
672.526	5.84
672.714	5.82
672.902	5.79
673.09	5.95
673.278	6.06
673.466	6.19
673.654	6.42
673.842	6.46
674.03	6.44
674.218	6.33
674.405	6.27
674.593	6.22
674.781	6.36
674.969	6.34
675.157	6.41
675.344	6.53
675.532	6.57
675.72	6.66
675.908	6.71
676.095	6.76
676.283	6.8
676.471	6.96
676.658	6.91
676.846	6.98
677.033	7.15
677.221	7.25
677.409	7.14
677.596	7.11
677.784	7.13
677.971	7.12
678.159	7.11
678.346	7.27
678.534	7.33
678.721	7.48
678.909	7.49
679.096	7.54
679.283	7.72
679.471	7.99
679.658	8.09
679.846	8.28
680.033	8.55
680.22	8.54
680.408	8.5
680.595	8.56
680.782	8.52
680.969	8.49
681.157	8.49
681.344	8.66
681.531	8.64
681.718	8.74
681.905	8.81
682.093	9.01
682.28	9.17
682.467	9.44
682.654	9.53
682.841	9.63
683.028	9.78
683.215	9.89
683.402	9.9
683.589	10.12
683.776	10.3
683.963	10.29
684.15	10.45
684.337	10.69
684.524	10.96
684.711	11.29
684.898	11.4
685.085	11.55
685.271	11.85
685.458	12.05
685.645	12.09
685.832	12.54
686.019	12.92
686.205	13.05
686.392	13.27
686.579	13.47
686.766	13.83
686.952	14
687.139	14.47
687.326	14.66
687.512	15.1
687.699	15.31
687.886	15.64
688.072	15.88
688.259	16.37
688.445	17
688.632	17.3
688.818	17.98
689.005	18.36
689.191	18.93
689.378	19.33
689.564	19.93
689.751	20.19
689.937	20.69
690.124	21.09
690.31	21.39
690.496	21.86
690.683	22.44
690.869	22.9
691.055	23.35
691.242	24.03
691.428	24.5
691.614	25.02
691.8	25.8
691.987	26.43
692.173	27
692.359	27.92
692.545	28.53
692.731	29.12
692.918	29.82
693.104	30.44
693.29	30.9
693.476	31.54
693.662	32.32
693.848	32.57
694.034	33.13
694.22	33.6
694.406	34.42
694.592	34.83
694.778	35.73
694.964	36.46
695.15	37.3
695.336	37.52
695.522	38.39
695.708	39.02
695.894	39.75
696.08	40.29
696.265	41.18
696.451	41.6
696.637	42.43
696.823	42.85
697.009	43.52
697.194	43.94
697.38	44.3
697.566	44.7
697.751	45.12
697.937	45.9
698.123	46.7
698.308	47.51
698.494	48.06
698.68	48.93
698.865	49.29
699.051	49.89
699.236	50.35
699.422	50.64
699.607	50.84
699.793	51.15
699.978	51.32
700.164	51.67
700.349	52.62
700.535	53.19
700.72	53.6
700.906	54.29
701.091	54.68
701.276	54.79
701.462	55.46
701.647	56.35
701.832	56.58
702.018	57.29
702.203	57.74
702.388	57.88
702.573	57.84
702.759	58.6
702.944	58.71
703.129	59.07
703.314	59.48
703.499	59.54
703.684	59.66
703.87	60.59
704.055	61.31
704.24	61.49
704.425	62.34
704.61	62.75
704.795	62.51
704.98	62.29
705.165	62.71
705.35	63.15
705.535	63.27
705.72	63.54
705.905	64
706.09	64.69
706.275	64.58
706.459	64.78
706.644	65.15
706.829	65.4
707.014	64.93
707.199	65.6
707.384	65.79
707.568	65.87
707.753	66.22
707.938	66.69
708.123	66.59
708.307	66.39
708.492	66.53
708.677	66.51
708.861	66.42
709.046	66.32
709.231	67.5
709.415	67.89
709.6	67.92
709.784	68.23
709.969	68.3
710.153	67.69
710.338	67.9
710.522	68.2
710.707	68.75
710.891	69.1
711.076	69.43
711.26	68.96
711.445	69.16
711.629	69.27
711.813	69.35
711.998	69.4
712.182	69.91
712.366	70.35
712.551	70.7
712.735	70.94
712.919	70.85
713.103	71.1
713.288	70.84
713.472	70.52
713.656	71.18
713.84	71.56
714.024	71.79
714.208	71.77
714.393	71.65
714.577	71.6
714.761	71.75
714.945	71.47
715.129	71.56
715.313	71.71
715.497	71.35
715.681	71.95
715.865	72.14
716.049	72.19
716.233	72.29
716.417	72.33
716.601	71.8
716.785	71.98
716.968	72.29
717.152	72.41
717.336	72.81
717.52	72.79
717.704	72.72
717.888	72.81
718.071	73.07
718.255	73.03
718.439	73.2
718.622	73.39
718.806	73.71
718.99	73.43
719.174	73.39
719.357	73.75
719.541	73.94
719.724	73.8
719.908	74.72
720.092	74.91
720.275	75.03
720.459	74.99
720.642	74.62
720.826	74
721.009	73.86
721.193	73.22
721.376	73.58
721.559	73.85
721.743	74.35
721.926	75.16
722.11	75.82
722.293	75.42
722.476	75.38
722.66	74.8
722.843	74.21
723.026	73.69
723.21	73.89
723.393	74.55
723.576	75.17
723.759	74.97
723.942	75.41
724.126	75.56
724.309	75.05
724.492	74.84
724.675	74.93
724.858	75.39
725.041	75.47
725.224	75.76
725.407	75.73
725.59	76.38
725.774	75.64
725.957	75.22
726.14	74.93
726.322	75.44
726.505	75.14
726.688	76
726.871	76.33
727.054	76.49
727.237	75.98
727.42	75.99
727.603	75.23
727.786	75.18
727.968	75.35
728.151	75.64
728.334	75.45
728.517	75.67
728.699	76.06
728.882	75.75
729.065	76.03
729.248	76.81
729.43	77.02
729.613	77.84
729.796	78.7
729.978	78.33
730.161	77.89
730.343	78.34
730.526	78.2
730.708	77.24
730.891	77.34
731.073	77.07
731.256	76.67
731.438	76.38
731.621	77.42
731.803	77.37
731.986	78.07
732.168	77.93
732.35	77.81
732.533	77.12
732.715	77.29
732.898	77.59
733.08	78.1
733.262	78.72
733.444	78.51
733.627	78.77
733.809	79.11
733.991	79.74
734.173	78.91
734.355	79.28
734.538	79.38
734.72	78.4
734.902	78.18
735.084	78.83
735.266	79.64
735.448	80.72
735.63	81.05
735.812	80.16
735.994	80.69
736.176	80.66
736.358	79.85
736.54	80.17
736.722	80.01
736.904	79.43
737.086	79.08
737.268	79.21
737.45	79.5
737.632	80.15
737.814	79.34
737.995	79.65
738.177	79.96
738.359	78.94
738.541	80.01
738.723	80.83
738.904	81.34
739.086	81.22
739.268	82.14
739.449	81.86
739.631	81.45
739.813	81.54
739.994	81.08
740.176	81.05
740.358	80.21
740.539	80.62
740.721	80.18
740.902	81.18
741.084	80.45
741.265	80.32
741.447	81.2
741.628	81.68
741.81	80.67
741.991	81.65
742.172	82.35
742.354	81.87
742.535	81.7
742.717	82.15
742.898	82.31
743.079	83.05
743.261	82.69
743.442	81.97
743.623	82.33
743.804	82.38
743.986	82.76
744.167	82.06
744.348	82.35
744.529	82.19
744.71	81.91
744.891	79.95
745.073	80.3
745.254	80.16
745.435	80.36
745.616	78.87
745.797	79.23
745.978	78.93
746.159	79.07
746.34	77.99
746.521	79.74
746.702	79.9
746.883	80.54
747.064	80.53
747.245	81.37
747.426	80.36
747.606	80.97
747.787	80.89
747.968	80.85
748.149	81.09
748.33	81.37
748.51	80.62
748.691	80.46
748.872	80.8
749.053	80.04
749.233	80.42
749.414	79.48
749.595	79.32
749.775	77.96
749.956	77.3
750.137	76.14
750.317	78.12
750.498	80.4
750.678	81.36
750.859	82.73
751.04	83.45
751.22	82.04
751.4	79.17
751.581	78.23
751.761	78.65
751.942	79.55
752.122	79.3
752.303	78.88
752.483	79.35
752.663	78.42
752.844	77.09
753.024	78.87
753.204	79.78
753.385	79.62
753.565	79.58
753.745	79.7
753.925	77.98
754.106	78.12
754.286	77.81
754.466	76.88
754.646	77.8
754.826	77.85
755.006	76.22
755.187	76.87
755.367	78.09
755.547	76.87
755.727	77.63
755.907	78.97
756.087	80.32
756.267	78.74
756.447	78.98
756.627	77
756.807	77.13
756.987	76.05
757.167	77.14
757.346	77.36
757.526	77.47
757.706	77.86
757.886	78.45
758.066	78.73
758.246	80.19
758.425	80.52
758.605	80.28
758.785	79.75
758.965	79.5
759.144	77.65
759.324	79.01
759.504	78.37
759.683	78.44
759.863	76.93
760.043	76.48
760.222	76.15
760.402	75.53
760.581	75.06
760.761	77.38
760.94	76.64
761.12	78.49
761.299	80.03
761.479	79.73
761.658	78.12
761.838	79.57
762.017	78.4
762.197	77.94
762.376	78.55
762.555	80.01
762.735	80.84
762.914	79.21
763.093	78.45
763.273	76.85
763.452	75.02
763.631	73.97
763.81	74.95
763.99	74.89
764.169	76.35
764.348	74.8
764.527	73.61
764.706	75.01
764.885	76.08
765.064	75.14
765.243	77.03
765.423	78.5
765.602	76.66
765.781	75.48
765.96	73.66
766.139	73.03
766.318	72.73
766.497	72.3
766.676	72.06
766.854	74.78
767.033	74.29
767.212	72.58
767.391	72.63
767.57	74.26
767.749	75.31
767.928	77.7
768.106	78.21
768.285	76.64
768.464	75.26
768.643	72.49
768.821	71.54
769	73.89
769.179	74.04
769.357	72.94
769.536	72.82
769.715	73.25
769.893	73.67
770.072	73.39
770.25	74.19
770.429	75.55
770.607	74.36
770.786	73.01
770.964	75.88
771.143	75.67
771.321	77.45
771.5	79.57
771.678	78.14
771.857	75.48
772.035	76.6
772.213	75.31
772.392	72.12
772.57	74.53
772.748	75.29
772.927	73.34
773.105	72.01
773.283	74.05
773.461	73.78
773.64	73.73
773.818	74.52
773.996	75.38
774.174	74.77
774.352	71.23
774.531	68.84
774.709	69.21
774.887	67.99
775.065	66.69
775.243	68.91
775.421	70.62
775.599	72.36
775.777	72.05
775.955	70.07
776.133	68.88
776.311	71
776.489	67.86
776.667	69.5
776.844	71.44
777.022	69.19
777.2	66.74
777.378	68.93
777.556	67.4
777.734	70.76
777.911	76.25
778.089	76.28
778.267	74.61
778.445	75.05
778.622	72.55
778.8	70.23
778.978	73.13
779.155	72.66
779.333	72.27
779.511	71.65
779.688	74.45
779.866	67.99
780.043	64.42
780.221	65.15
780.398	63.25
780.576	62.77
780.753	66.04
780.931	71.56
781.108	70.62
781.286	71.01
781.463	66.33
781.64	64.04
781.818	62.62
781.995	63.57
782.172	65.71
782.35	67.42
782.527	71.76
782.704	70.54
782.882	71.49
783.059	69.07
783.236	72.13
783.413	70.89
783.59	71.49
783.768	66.25
783.945	69.48
784.122	65.76
784.299	65.63
784.476	63.51
784.653	64.43
784.83	61.65
785.007	59.09
785.184	60.74
785.361	62.82
785.538	69.12
785.715	71.53
785.892	73.27
786.069	75.12
786.246	76.84
786.423	73.02
786.6	69.69
786.776	73.14
786.953	66.8
787.13	65.21
787.307	67.61
787.484	67.56
787.66	65.12
787.837	68.8
788.014	68.88
788.191	63.39
788.367	62.15
788.544	64.99
788.721	64.79
788.897	66.33
789.074	69.33
789.25	70.24
789.427	67.88
789.603	66.37
789.78	64.93
789.956	62.88
790.133	63.13
790.309	64.61
790.486	65.12
790.662	60.95
790.839	61.48
791.015	61.73
791.192	57.63
791.368	57.24
791.544	58.94
791.721	59.75
791.897	60.32
792.073	59.48
792.249	56.04
792.426	57.13
792.602	59.47
792.778	60.82
792.954	63.31
793.13	64.47
793.307	57.64
793.483	48.66
793.659	49.68
793.835	51.19
794.011	53.73
794.187	56.93
794.363	59.96
794.539	58.72
794.715	52.99
794.891	50.1
795.067	51.64
795.243	56.76
795.419	51.18
795.595	50.84
795.771	55.95
795.947	58.85
796.122	55.95
796.298	62.02
796.474	64.03
796.65	59.65
796.826	55.34
797.001	55.94
797.177	54.61
797.353	61.34
797.529	61.6
797.704	59.99
797.88	58.26
798.056	55.14
798.231	47.35
798.407	50.82
798.582	55.62
798.758	62.18
798.934	67.65
799.109	70.46
799.285	67.59
799.46	71.28
799.636	67.97
799.811	65.68
799.986	71.02
800.162	71.25
800.337	68.85
800.513	60.66
800.688	60.67
800.863	63.46
801.039	63.44
801.214	57.04
801.389	64.01
801.565	60.89
801.74	48.44
801.915	50.14
802.09	58.5
802.265	63.07
802.441	61.27
802.616	62.95
802.791	61.49
802.966	59.52
803.141	58.45
803.316	57.24
803.491	64.76
803.666	66.76
803.841	58.26
804.016	50.97
804.191	55.08
804.366	43.63
804.541	51.05
804.716	57.91
804.891	57.27
805.066	59.72
805.241	61.71
805.416	51.22
805.591	46.21
805.765	53.74
805.94	52.74
806.115	53.56
806.29	50.89
806.464	56.36
806.639	48.89
806.814	45.44
806.989	36.9
807.163	49.5
807.338	53.12
807.512	54.73
807.687	46.39
807.862	61.17
808.036	60.86
808.211	55.86
808.385	62.32
808.56	75.45
808.734	85.92
808.909	71.6
809.083	66.45
809.258	64.35
809.432	62.25
809.606	43.46
809.781	48.53
809.955	54.48
810.13	49.97
810.304	49.1
810.478	45.88
810.652	55.98
810.827	51.98
811.001	55.13
811.175	44.18
811.349	46.11
811.524	34.41
811.698	24.06
811.872	24.32
812.046	34.79
812.22	41.03
812.394	39.82
812.568	58.26
812.742	61.87
812.916	60.18
813.09	56.32
813.264	59.52
813.438	59.27
813.612	54.55
813.786	49.68
813.96	54.13
814.134	58.08
814.308	55.34
814.482	57.34
814.656	56.83
814.83	58.62
815.003	63.97
815.177	55.59
815.351	48.03
815.525	43.63
815.698	36.77
815.872	24.4
816.046	16.51
816.219	25.59
816.393	40.95
816.567	49.53
816.74	55.12
816.914	66.34
817.088	68.39
817.261	58.49
817.435	42.43
817.608	42.19
817.782	34.84
817.955	41.78
818.129	47.17
818.302	59.07
818.475	68.47
818.649	62.91
818.822	48.1
818.996	61.96
819.169	54.11
819.342	35.43
819.516	46
819.689	52.78
819.862	29.86
820.035	25.8
820.209	28.19
820.382	31.55
820.555	27.99
820.728	29.17
820.901	25.66
821.075	19.82
821.248	27.98
821.421	14.84
821.594	12.14
821.767	36.98
821.94	55.83
822.113	20.8
822.286	36.57
822.459	54.35
822.632	41.57
822.805	25.08
822.978	30.94
823.151	21.64
823.324	4.58
823.496	-7.68
823.669	4.99
823.842	13.94
824.015	0.08
824.188	-6.63
824.361	-0.26
824.533	-9.66
824.706	2.48
824.879	8.17
825.051	25.28
825.224	21.2
825.397	16.14
825.569	-7.63
825.742	33.09
825.915	30.28
826.087	52
826.26	52.16
826.432	58.34
826.605	41.02
826.777	27.48
826.95	18.32
827.122	13.27
827.295	14.69
827.467	22.24
827.64	7.95
827.812	1.96
827.984	-1.82
828.157	-6.34
828.329	-44.2
828.501	-33.18
828.674	3.59
828.846	2.18
829.018	31.76
829.19	25.93
829.363	53.9
829.535	37.88
829.707	41.26
829.879	4.87
830.051	-4.01
830.223	-31.86
830.395	-49.17
830.568	-53.45
830.74	-28.96
830.912	15.63
831.084	15.5
831.256	18.89
831.428	23.69
831.6	16.92
831.772	-34.25
831.943	-45.4
832.115	-22.38
832.287	-5.13
832.459	-2.07
832.631	16.57
832.803	49
832.975	68.66
833.146	53.54
833.318	51.15
833.49	78
833.662	45.87
833.833	2.67
834.005	0.55
834.177	3.7
834.348	-21.04
834.52	-34.21
834.692	-24.38
834.863	-45.46
835.035	-37.11
835.206	-97.3
835.378	-79.66
835.549	-64.97
835.721	-47.93
835.892	-48.35
836.064	-21.5
836.235	-24.21
836.407	-9.57
836.578	-12.12
836.749	-2.78
836.921	-46.89
837.092	-64.99
837.264	-77.97
837.435	-94.02
837.606	-29.11
837.777	20.12
837.949	43.6
838.12	44.46
838.291	51.08
838.462	19.83
838.633	-23.02
838.805	-23.33
838.976	-32.26
839.147	-82.51
839.318	-54.48
839.489	-79.37
839.66	-73.34
839.831	-3.23
840.002	1.17
840.173	-41.31
840.344	13.3
840.515	2.81
840.686	-151.88
840.857	-158.4
841.028	-126.76
841.199	-106.32
841.369	-112.74
841.54	-89.64
841.711	-34.76
841.882	-4.5
842.053	-6.89
842.223	-6.73
842.394	1.4
842.565	7.08
842.736	14.52
842.906	21.04
843.077	31.8
843.248	52.13
843.418	51.58
843.589	22.74
843.759	93.34
843.93	65.3
844.101	32.9
844.271	28.73
844.442	34.22
844.612	21.08
844.783	1.86
844.953	-55.1
845.123	-98.78
845.294	-119.02
845.464	-347.01
845.635	-215.22
845.805	-88.49
845.975	-37.95
846.146	-92.46
846.316	-69.56
846.486	-25.16
846.656	10.1
846.827	10.65
846.997	28.02
847.167	42.25
847.337	20.13
847.507	-41.86
847.677	-38.62
847.848	18.96
848.018	25.58
848.188	22.37
848.358	19.68
848.528	5.12
848.698	-61.26
848.868	-171.52
849.038	-272.58
849.208	-100.3
849.378	-71.05
849.548	-32.27
849.718	-12.59
849.887	-6.2
850.057	-31.05
850.227	-58.43
850.397	-95.79
850.567	-236.64
850.737	-528.91
850.906	-1711.88
851.076	-1123.83
851.246	-629.06
851.415	-81.58
851.585	-79.28
851.755	-92.84
851.924	-60.2
852.094	-96.91
852.264	-240.6
852.433	-1207.21
852.603	-294.43
852.772	-238.05
852.942	-99.92
853.111	-57.78
853.281	-27.22
853.45	18.02
853.62	-76.24
853.789	-105.02
853.959	-125.67
854.128	-92.8
854.297	-124.2
854.467	-111.23
854.636	-95.5
854.805	-47.48
854.975	-73.46
855.144	-122.05
855.313	-43.01
855.482	-268.25
855.652	-171.65
855.821	-165.26
855.99	-9.12
856.159	17.17
856.328	15.2
856.497	-13.91
856.667	4.63
856.836	-6.38
857.005	-60.49
857.174	-64.16
857.343	-96.41
857.512	-94.26
857.681	-124.27
857.85	-168.29
858.019	-88.02
858.188	-47.06
858.356	-85.52
858.525	-142.39
858.694	-111.27
858.863	-240.81
859.032	-195.42
859.201	-209.17
859.369	-183.29
859.538	-161.17
859.707	-139.15
859.876	-167.61
860.044	-195.64
860.213	-33.82
860.382	-26.61
860.55	-8.94
860.719	14.58
860.888	26.74
861.056	-26.72
861.225	-41.38
861.393	-35.71
861.562	-41.25
861.73	-143.26
861.899	-318.06
862.067	-2870.69
862.236	-151.78
862.404	-334.15
862.572	-182.7
862.741	-61.04
862.909	-59.65
863.078	-153.34
863.246	-92.84
863.414	-52.11
863.582	-42.15
863.751	-55.81
863.919	-72.45
864.087	-34.49
864.255	-56.28
864.424	-496.61
864.592	-112
864.76	-183.08
864.928	-738
865.096	-387.42
865.264	-254.31
865.432	-2751.14
865.6	-183.75
865.768	-115.61
865.936	-108.18
866.104	-123.94
866.272	-124.22
866.44	-398.62
866.608	736.14
866.776	367.44
866.944	3275.58
867.112	-661.65
867.28	-277.3
867.448	-117.67
867.615	-39.25
867.783	-18.39
867.951	-30.62
868.119	-18.25
868.286	-46.6
868.454	-252.85
868.622	-251.67
868.789	-264.47
868.957	-6310.71
869.125	-3627.63
869.292	-215.6
869.46	-354.84
869.627	-115.53
869.795	-95.53
869.963	-53.23
870.13	-43.42
870.298	-18.11
870.465	-143.14
870.632	-103.17
870.8	-61.57
870.967	-100.85
871.135	-157.6
871.302	-83.39
871.469	-105.2
871.637	-216.19
871.804	-160.69
871.971	-211.96
872.139	-617.44
872.306	-114.72
872.473	-105.04
872.64	-316.09
872.807	-81.33
872.975	52.36
873.142	-195.82
873.309	1171.62
873.476	92.07
873.643	149.7
873.81	32.2
873.977	101.68
874.144	86.55
874.311	-48.35
874.478	-131.44
874.645	-152.85
874.812	-82.65
874.979	-83.96
875.146	-67.48
875.313	-51.29
875.48	26.64
875.647	-15.64
875.813	-45.22
875.98	-34.57
876.147	-83.81
876.314	-121.83
876.481	759.92
876.647	-955.62
876.814	394.04
876.981	77.88
877.147	-46.21
877.314	-16.99
877.481	19.45
877.647	36.5
877.814	-13.45
877.98	-25.75
878.147	-10.68
878.314	18.47
878.48	-58.67
878.647	-34.13
878.813	16.53
878.979	-0.15
879.146	-24.13
879.312	-15.57
879.479	-61.54
879.645	-130.53
879.811	-290.06
879.978	-848.47
880.144	-198.46
880.31	-98.99
880.477	-401.67
880.643	-462.15
880.809	-155.71
880.975	-138.71
881.142	-1018.64
881.308	-113.96
881.474	-55.89
881.64	-112.72
881.806	-250.93
881.972	-74.29
882.138	-94.6
882.304	-99.86
882.47	-264.59
882.636	-743.85
882.802	-262.26
882.968	-46.35
883.134	-54.75
883.3	-27.47
883.466	9.78
883.632	30.47
883.798	-12.69
883.964	-11.07
884.129	12.99
884.295	25.26
884.461	-23.9
884.627	-53.64
884.793	-62.7
884.958	-64.21
885.124	-159.84
885.29	-260.35
885.455	-395.39
885.621	-76.05
885.787	-122.24
885.952	-54.6
886.118	-47.67
886.283	-62.61
886.449	-209.75
886.614	-207.05
886.78	-387.12
886.945	1950
887.111	-909.54
887.276	-732.1
887.442	-1179.55
887.607	-548.35
887.773	-310.03
887.938	-251.04
888.103	-223.37
888.269	-132.38
888.434	-265.14
888.599	-108.41
888.764	14.94
888.93	-25.13
889.095	-41.27
889.26	-72.23
889.425	-29.49
889.59	-23.27
889.756	8.3
889.921	6.18
890.086	72.51
890.251	49.3
890.416	-68.31
890.581	-887.9
890.746	53.04
890.911	228.34
891.076	140.7
891.241	-175.75
891.406	66.51
891.571	-23.82
891.736	-179.59
891.901	-396.9
892.065	476.37
892.23	177.34
892.395	223.97
892.56	372.4
892.725	-509.77
892.889	-1576.83
893.054	-229.5
893.219	-101.5
893.384	-29.51
893.548	-79.34
893.713	-98.93
893.878	-49.77
