Data from Ofra_2a_PS_2GT41_Reflection_2.txt Node
Date: Tue Jul 20 09:43:48 EDT 2021
User: Adam
Spectrometer: FLMT01687
Trigger mode: 0
Integration Time (sec): 9.450000E-1
Scans to average: 3
Electric dark correction enabled: true
Nonlinearity correction enabled: false
Boxcar width: 3
XAxis mode: Wavelengths
Number of Pixels in Spectrum: 3648
>>>>>Begin Spectral Data<<<<<
179.494	694.08
179.716	441.02
179.937	497.8
180.158	1722.66
180.38	-898.26
180.601	-145.54
180.823	-54.66
181.044	-0.6
181.265	-30.86
181.486	89.37
181.708	-450
181.929	32.79
182.15	180.68
182.372	34.12
182.593	39.55
182.814	234.43
183.035	97.31
183.257	82.05
183.478	63.79
183.699	57.8
183.92	49.09
184.141	51.82
184.363	34.27
184.584	30.36
184.805	42.58
185.026	41.75
185.247	24.33
185.468	41.54
185.689	33.08
185.91	38.82
186.132	44.59
186.353	20.22
186.574	16.41
186.795	8.52
187.016	4.87
187.237	3.1
187.458	-4.15
187.679	-23.49
187.9	-9.93
188.121	17.61
188.342	42.56
188.563	54.16
188.784	51.75
189.005	55.44
189.226	61.19
189.447	63.38
189.667	42.83
189.888	43.24
190.109	41.77
190.33	45.29
190.551	40.45
190.772	30.54
190.993	31.32
191.214	33.61
191.434	29.28
191.655	29.4
191.876	29.73
192.097	16.74
192.318	21.89
192.538	21.41
192.759	30.47
192.98	32.74
193.201	43.79
193.421	49.72
193.642	58.36
193.863	69.47
194.083	67.25
194.304	38.23
194.525	41.41
194.745	10.31
194.966	9.84
195.187	29.5
195.407	22.04
195.628	22.04
195.848	31.47
196.069	24.09
196.29	26.78
196.51	16.75
196.731	13.62
196.951	15.43
197.172	12.74
197.392	19.24
197.613	19.87
197.833	22.29
198.054	21.99
198.274	-1.31
198.495	9.38
198.715	-6.42
198.936	-3.82
199.156	-10.02
199.377	2.77
199.597	11.41
199.817	43.33
200.038	32.63
200.258	53.02
200.479	48.08
200.699	44.52
200.919	25.66
201.14	32.55
201.36	24.37
201.58	26.15
201.801	27.48
202.021	25.75
202.241	41.59
202.461	48.66
202.682	52.5
202.902	54.48
203.122	48.76
203.342	52.95
203.563	54.32
203.783	46.64
204.003	51.48
204.223	49.29
204.443	44.64
204.663	48.13
204.884	45.19
205.104	50.54
205.324	65.02
205.544	62.72
205.764	55.41
205.984	59.81
206.204	52.61
206.424	39.98
206.644	45.8
206.864	34.03
207.084	49.25
207.304	51.12
207.525	41.61
207.745	54.16
207.964	72.7
208.184	49.19
208.404	51.66
208.624	40.4
208.844	19.19
209.064	20.79
209.284	26.31
209.504	26.85
209.724	3.67
209.944	3.43
210.164	10.14
210.384	37.57
210.604	28.25
210.823	4.27
211.043	2.13
211.263	21.56
211.483	15.14
211.703	12.36
211.922	11.42
212.142	21.78
212.362	31.16
212.582	28.61
212.801	21.06
213.021	27.7
213.241	16.04
213.461	1.65
213.68	0.99
213.9	5.27
214.12	0.81
214.339	17.19
214.559	17.49
214.779	20.31
214.998	30.72
215.218	38.36
215.438	42.21
215.657	37.51
215.877	29.5
216.096	36.64
216.316	36.36
216.535	34.07
216.755	16.29
216.974	7.63
217.194	23.14
217.413	31.67
217.633	12.26
217.852	13.15
218.072	-2.23
218.291	30.06
218.511	26.47
218.73	14.21
218.95	8.35
219.169	14.84
219.389	15.34
219.608	33.93
219.827	21.57
220.047	49.87
220.266	57.24
220.485	57.61
220.705	48.59
220.924	59.83
221.143	49.59
221.363	58.49
221.582	51.67
221.801	48.64
222.021	39.49
222.24	44.01
222.459	21.45
222.678	27.69
222.897	19.37
223.117	13.49
223.336	27.24
223.555	25.29
223.774	36.83
223.993	49.07
224.213	36.46
224.432	38.81
224.651	27.8
224.87	21.75
225.089	29.48
225.308	25.65
225.527	35.04
225.746	43.89
225.965	29.67
226.184	33.25
226.404	21.9
226.623	33.2
226.842	25.26
227.061	8.67
227.28	12.05
227.499	41.24
227.718	30.84
227.936	25.94
228.155	18.56
228.374	28.15
228.593	32.87
228.812	24.33
229.031	12.7
229.25	25.01
229.469	37.6
229.688	55.1
229.907	39.3
230.125	35.55
230.344	35.22
230.563	37.35
230.782	31.43
231.001	36.31
231.22	17.21
231.438	27.76
231.657	32.98
231.876	40.9
232.095	33.92
232.313	52.56
232.532	41.13
232.751	50.09
232.969	61.08
233.188	59.4
233.407	62.9
233.625	61.07
233.844	49.63
234.063	54.47
234.281	43.39
234.5	35.16
234.719	41.05
234.937	39.83
235.156	40.94
235.374	35.19
235.593	24.83
235.811	21.51
236.03	15.36
236.249	1.17
236.467	-6.54
236.686	-9.45
236.904	-13.63
237.123	10.9
237.341	21.3
237.559	21.59
237.778	29.08
237.996	30.04
238.215	21.58
238.433	28.23
238.652	22.37
238.87	22.56
239.088	22.04
239.307	19.61
239.525	14.88
239.743	13.84
239.962	17.33
240.18	28.26
240.398	32.31
240.617	39.74
240.835	51.4
241.053	64.39
241.271	69.42
241.49	61.78
241.708	55.59
241.926	37.75
242.144	27.46
242.363	16.81
242.581	12.93
242.799	8.25
243.017	19.84
243.235	6.9
243.453	21.52
243.672	24.78
243.89	27.41
244.108	36.81
244.326	36.02
244.544	41.12
244.762	41.4
244.98	38.6
245.198	23.17
245.416	20.38
245.634	13.9
245.852	29.36
246.07	20.58
246.288	20.67
246.506	25.35
246.724	56.52
246.942	62.65
247.16	41.75
247.378	18
247.596	18.73
247.814	11.97
248.032	12.39
248.25	0.98
248.468	8.72
248.685	24.53
248.903	37.41
249.121	39.34
249.339	51.18
249.557	51
249.775	28.99
249.992	26.1
250.21	21.53
250.428	15.16
250.646	15.04
250.863	15.87
251.081	9.37
251.299	33.74
251.517	38.26
251.734	33.57
251.952	54.11
252.17	53.14
252.387	47.6
252.605	43.77
252.823	33.99
253.04	25.81
253.258	46.56
253.475	29.2
253.693	40.69
253.911	39.89
254.128	37
254.346	33.61
254.563	30.46
254.781	23.14
254.998	28.35
255.216	22.58
255.433	18.8
255.651	22.86
255.868	27.95
256.086	36.6
256.303	38.06
256.521	24.29
256.738	21.49
256.956	17.25
257.173	21
257.39	26.37
257.608	23.45
257.825	22.9
258.043	36.17
258.26	37.78
258.477	43.69
258.695	51.63
258.912	64.62
259.129	55.61
259.346	62.61
259.564	65.18
259.781	65.13
259.998	64.14
260.216	56.57
260.433	38.91
260.65	44.24
260.867	25.14
261.084	33.92
261.302	31.82
261.519	26.7
261.736	21.03
261.953	21.91
262.17	21.41
262.387	26.01
262.604	10.07
262.822	2.44
263.039	9.89
263.256	13.57
263.473	10.51
263.69	14.41
263.907	13.58
264.124	17.28
264.341	23.1
264.558	23.65
264.775	29.17
264.992	41.53
265.209	43.21
265.426	45.66
265.643	45.13
265.86	41.76
266.077	38.58
266.294	38.33
266.51	31.27
266.727	16.94
266.944	9.19
267.161	-3.85
267.378	-0.66
267.595	-6.33
267.812	-23.94
268.028	-12.02
268.245	-0.14
268.462	4.14
268.679	0.47
268.896	-6.62
269.112	7.13
269.329	17.07
269.546	9.57
269.763	9.08
269.979	6.17
270.196	17.18
270.413	22.22
270.629	18.16
270.846	22.55
271.063	23.2
271.279	28.15
271.496	24.07
271.712	30.05
271.929	35.68
272.146	39.77
272.362	27.21
272.579	32.77
272.795	28.07
273.012	38.44
273.228	36.3
273.445	30.22
273.661	30.06
273.878	33.3
274.094	32.32
274.311	22.95
274.527	16.91
274.744	15.39
274.96	13.14
275.177	11.46
275.393	11.79
275.609	10.59
275.826	21
276.042	34.06
276.259	33.5
276.475	36.74
276.691	34.69
276.908	34.79
277.124	38.33
277.34	39.51
277.557	30.68
277.773	27.68
277.989	25.98
278.205	21.2
278.422	31.48
278.638	31.97
278.854	26.81
279.07	25.46
279.286	19.22
279.503	18.04
279.719	28.64
279.935	12.77
280.151	18.54
280.367	24.09
280.583	26.11
280.799	36.41
281.016	39.49
281.232	33.73
281.448	33.72
281.664	26.78
281.88	22.94
282.096	30.24
282.312	19.41
282.528	12.79
282.744	12.44
282.96	14.97
283.176	16.44
283.392	18.09
283.608	17.67
283.824	17.77
284.04	31.24
284.256	37.05
284.471	44.48
284.687	34.13
284.903	39.4
285.119	26.71
285.335	25.42
285.551	28.22
285.767	31.26
285.982	23.98
286.198	34.97
286.414	40.02
286.63	48.73
286.846	45
287.061	47.82
287.277	44.64
287.493	52.15
287.709	53.65
287.924	57.47
288.14	56.84
288.356	74.78
288.571	57.91
288.787	53.89
289.003	52.41
289.218	43.09
289.434	30.62
289.65	27.76
289.865	25.36
290.081	27.33
290.296	28.37
290.512	30.11
290.727	35.9
290.943	38.02
291.159	34.9
291.374	43.86
291.59	41.64
291.805	51.54
292.021	42.7
292.236	42.88
292.451	35.39
292.667	42.3
292.882	31.59
293.098	33.45
293.313	16.57
293.529	22.69
293.744	20.76
293.959	28.83
294.175	17.21
294.39	24.85
294.605	33.7
294.821	37.38
295.036	37.27
295.251	37.41
295.467	33.2
295.682	40.25
295.897	28.46
296.112	28.68
296.328	37.66
296.543	39.01
296.758	39.29
296.973	40.38
297.188	35.36
297.404	46.48
297.619	43.22
297.834	40.57
298.049	38.18
298.264	31.92
298.479	24.81
298.694	29.96
298.909	17.7
299.125	22.65
299.34	19.5
299.555	25.2
299.77	22.45
299.985	24.42
300.2	23.88
300.415	27.7
300.63	23.03
300.845	23.06
301.06	10.04
301.275	21.37
301.49	23.97
301.704	22.22
301.919	21.13
302.134	13.32
302.349	6.98
302.564	10.18
302.779	-1.77
302.994	-1.28
303.209	-3.56
303.423	11.61
303.638	26.35
303.853	37.12
304.068	41.6
304.283	43.92
304.497	38.88
304.712	41.65
304.927	30.22
305.142	21.07
305.356	18.28
305.571	20.51
305.786	16.93
306	20.23
306.215	9.55
306.43	24.33
306.644	28.59
306.859	28.78
307.074	28.06
307.288	30.65
307.503	29.4
307.717	35.29
307.932	27.21
308.147	30.36
308.361	35.6
308.576	33.85
308.79	28.52
309.005	26.42
309.219	30.05
309.434	30.82
309.648	22.93
309.863	21.42
310.077	17.05
310.292	21.4
310.506	36.24
310.72	18.11
310.935	17.78
311.149	27.58
311.364	24.87
311.578	18.86
311.792	15.54
312.007	4.63
312.221	19.58
312.435	16.66
312.649	-13.52
312.864	-24.61
313.078	-0.58
313.292	5.91
313.507	9.21
313.721	1.42
313.935	22.19
314.149	38.4
314.363	43.62
314.578	62.17
314.792	58.26
315.006	53.92
315.22	53.17
315.434	38.98
315.648	43.99
315.862	43.49
316.077	25.01
316.291	28.07
316.505	34.69
316.719	29.08
316.933	33.42
317.147	29.62
317.361	28.61
317.575	21.71
317.789	25.63
318.003	28
318.217	36.11
318.431	39.52
318.645	42.82
318.859	43.22
319.073	43.56
319.287	42.39
319.5	37.03
319.714	30.61
319.928	30.35
320.142	23.12
320.356	29.18
320.57	21.03
320.784	17.34
320.997	26.78
321.211	30.96
321.425	27.4
321.639	36.63
321.853	26.63
322.066	33.53
322.28	38.91
322.494	24.68
322.707	19.7
322.921	22.01
323.135	21.05
323.349	25.61
323.562	27.95
323.776	25.45
323.989	36.72
324.203	45.6
324.417	38.98
324.63	28.15
324.844	25.24
325.057	23.52
325.271	13.73
325.485	12.08
325.698	13.03
325.912	25.95
326.125	35.52
326.339	37.99
326.552	35.69
326.766	46.94
326.979	43.43
327.193	35.39
327.406	30.04
327.619	13.54
327.833	4.72
328.046	13.35
328.26	2.32
328.473	-4.52
328.686	-2.27
328.9	-2.06
329.113	11.61
329.326	19.26
329.54	13.88
329.753	14.21
329.966	18.2
330.179	26.04
330.393	29.4
330.606	24.08
330.819	29.05
331.032	39.9
331.246	52.28
331.459	50.83
331.672	46.21
331.885	41.78
332.098	49.66
332.311	32.59
332.525	17.53
332.738	9.27
332.951	11.13
333.164	2.97
333.377	-6.76
333.59	-3.93
333.803	9.34
334.016	1
334.229	4.89
334.442	15.5
334.655	20.97
334.868	31.9
335.081	32.48
335.294	29.75
335.507	43.21
335.72	32.22
335.933	31.61
336.146	34.63
336.359	31.27
336.572	28.94
336.785	41.51
336.997	36.75
337.21	42.69
337.423	40.82
337.636	40.41
337.849	36.99
338.062	37.64
338.274	29.53
338.487	20.8
338.7	24.25
338.913	23.84
339.125	13.45
339.338	20.89
339.551	25.83
339.763	18.08
339.976	21.17
340.189	20.1
340.402	17.98
340.614	31.38
340.827	16.36
341.039	8.02
341.252	14.97
341.465	6.38
341.677	-4.12
341.89	0.18
342.102	-8.77
342.315	11.02
342.527	14.75
342.74	17.98
342.952	31.15
343.165	50.09
343.377	51.67
343.59	52.98
343.802	55.32
344.015	52.69
344.227	43.81
344.44	36.29
344.652	36.68
344.864	32.94
345.077	40.56
345.289	27.78
345.502	25.65
345.714	28.15
345.926	33.59
346.139	27.32
346.351	16.89
346.563	18.66
346.775	19.12
346.988	25.67
347.2	22.64
347.412	20.2
347.624	20.45
347.837	25.78
348.049	22.34
348.261	18.16
348.473	13.1
348.685	16.67
348.897	21.95
349.11	20.79
349.322	11.96
349.534	8.14
349.746	17.09
349.958	11.53
350.17	7.16
350.382	3.22
350.594	3.48
350.806	14.53
351.018	22.4
351.23	28.14
351.442	33.56
351.654	42.46
351.866	50.22
352.078	50.34
352.29	61.78
352.502	63.1
352.714	60.44
352.926	65.29
353.138	53.99
353.35	44.67
353.561	38.3
353.773	29.91
353.985	33.41
354.197	30.98
354.409	24.84
354.621	28.42
354.832	24.32
355.044	26.7
355.256	21.14
355.468	8.47
355.679	10.76
355.891	17.29
356.103	18.39
356.314	27.54
356.526	26.47
356.738	20.85
356.949	22.77
357.161	21.49
357.373	19.45
357.584	16.66
357.796	10.82
358.008	8.01
358.219	26.55
358.431	19.76
358.642	19.18
358.854	20.24
359.065	20.88
359.277	15.79
359.488	19.95
359.7	16.96
359.911	25.06
360.123	28.5
360.334	23.72
360.546	15.59
360.757	20.15
360.969	31.64
361.18	17.04
361.391	12.67
361.603	14.71
361.814	17.25
362.025	24.17
362.237	28.63
362.448	25.31
362.659	27.85
362.871	36.62
363.082	34.62
363.293	37.37
363.504	40.01
363.716	36.67
363.927	36.12
364.138	38.38
364.349	37.07
364.56	34.83
364.772	31.65
364.983	19.74
365.194	21.09
365.405	10.92
365.616	-1.13
365.827	-7.25
366.038	6.66
366.25	10.39
366.461	23.62
366.672	19.89
366.883	28.22
367.094	32.37
367.305	35.72
367.516	25.89
367.727	19.48
367.938	18.99
368.149	23.61
368.36	23.35
368.571	25.09
368.781	18.2
368.992	19.73
369.203	26.67
369.414	18.48
369.625	12.01
369.836	10.84
370.047	13.78
370.258	19.93
370.468	9.91
370.679	2.14
370.89	20.67
371.101	23.06
371.312	21.26
371.522	23.16
371.733	17.04
371.944	25.94
372.155	24.97
372.365	21.04
372.576	20.91
372.787	22.67
372.997	15.19
373.208	26.89
373.419	23.67
373.629	25.6
373.84	14.69
374.05	11.77
374.261	8.16
374.472	14.03
374.682	2.35
374.893	1.56
375.103	5.22
375.314	10.38
375.524	15.52
375.735	18.11
375.945	17.91
376.156	20.09
376.366	23.88
376.577	25.05
376.787	25.2
376.997	21.93
377.208	20.28
377.418	16.39
377.629	18.63
377.839	17.17
378.049	23.09
378.26	19.12
378.47	16.34
378.68	18.24
378.89	19.41
379.101	10.6
379.311	6.82
379.521	5.86
379.732	3.72
379.942	10.61
380.152	19.32
380.362	21.02
380.572	28.42
380.783	28.1
380.993	28.51
381.203	25.48
381.413	27.4
381.623	22.05
381.833	20.69
382.043	15.13
382.253	20.69
382.463	16.75
382.674	20.02
382.884	15.18
383.094	8.67
383.304	8.03
383.514	16.79
383.724	15.03
383.934	13.38
384.144	15.97
384.353	15.83
384.563	14.81
384.773	17.22
384.983	14.17
385.193	15.15
385.403	15.99
385.613	14.91
385.823	15.6
386.033	19.55
386.242	16.04
386.452	13.52
386.662	15.84
386.872	14.22
387.082	11.37
387.291	9.28
387.501	8.2
387.711	8.28
387.921	8.76
388.13	5.79
388.34	5.86
388.55	8.99
388.759	7.98
388.969	5.04
389.179	8.53
389.388	8.36
389.598	7.11
389.807	7.42
390.017	6.38
390.227	6.91
390.436	8.48
390.646	8.62
390.855	8.91
391.065	8.22
391.274	7.47
391.484	8.04
391.693	8.3
391.903	8.32
392.112	5.65
392.322	7.99
392.531	9.26
392.74	8.59
392.95	9.23
393.159	9.48
393.369	8.58
393.578	9.26
393.787	8.18
393.997	8.47
394.206	8.79
394.415	8.05
394.625	7.43
394.834	7.63
395.043	8.02
395.252	7.76
395.462	6.36
395.671	6.47
395.88	6.53
396.089	6.15
396.298	5.92
396.508	5.43
396.717	5.39
396.926	5.57
397.135	5.22
397.344	5.16
397.553	5.84
397.762	6.03
397.971	5.96
398.181	5.43
398.39	5.77
398.599	6.36
398.808	6.36
399.017	6.22
399.226	6.22
399.435	6.42
399.644	6.35
399.853	6.55
400.062	6.17
400.27	6.18
400.479	6.03
400.688	6.11
400.897	6.19
401.106	6.39
401.315	5.99
401.524	6.08
401.733	6.09
401.941	6.01
402.15	5.89
402.359	5.75
402.568	5.83
402.777	6.01
402.985	5.93
403.194	5.73
403.403	5.53
403.612	5.58
403.82	5.58
404.029	5.47
404.238	5.39
404.446	5.32
404.655	5.26
404.864	5.3
405.072	5.25
405.281	5.17
405.489	5.13
405.698	5.05
405.906	5.03
406.115	5.08
406.324	5.04
406.532	4.99
406.741	4.99
406.949	4.97
407.158	4.97
407.366	5.07
407.574	5.06
407.783	5.09
407.991	5.03
408.2	4.99
408.408	4.99
408.617	4.96
408.825	4.79
409.033	4.78
409.242	4.78
409.45	4.84
409.658	4.77
409.867	4.82
410.075	4.82
410.283	4.87
410.491	4.83
410.7	4.88
410.908	4.81
411.116	4.84
411.324	4.85
411.533	4.79
411.741	4.74
411.949	4.8
412.157	4.78
412.365	4.81
412.573	4.76
412.781	4.68
412.99	4.78
413.198	4.92
413.406	4.85
413.614	4.8
413.822	4.79
414.03	4.79
414.238	4.81
414.446	4.7
414.654	4.63
414.862	4.57
415.07	4.59
415.278	4.52
415.486	4.61
415.694	4.52
415.902	4.54
416.109	4.53
416.317	4.53
416.525	4.58
416.733	4.67
416.941	4.57
417.149	4.71
417.357	4.77
417.564	4.73
417.772	4.75
417.98	4.64
418.188	4.51
418.395	4.5
418.603	4.31
418.811	4.12
419.019	4.14
419.226	4.25
419.434	4.21
419.642	4.3
419.849	4.31
420.057	4.44
420.265	4.53
420.472	4.45
420.68	4.34
420.887	4.35
421.095	4.39
421.302	4.46
421.51	4.43
421.717	4.46
421.925	4.47
422.132	4.42
422.34	4.51
422.547	4.42
422.755	4.35
422.962	4.31
423.17	4.25
423.377	4.34
423.585	4.38
423.792	4.37
423.999	4.44
424.207	4.41
424.414	4.43
424.621	4.48
424.829	4.37
425.036	4.36
425.243	4.3
425.451	4.22
425.658	4.27
425.865	4.25
426.072	4.27
426.28	4.35
426.487	4.32
426.694	4.3
426.901	4.26
427.108	4.25
427.315	4.22
427.523	4.18
427.73	4.17
427.937	4.21
428.144	4.26
428.351	4.36
428.558	4.26
428.765	4.32
428.972	4.33
429.179	4.23
429.386	4.27
429.593	4.26
429.8	4.22
430.007	4.34
430.214	4.34
430.421	4.38
430.628	4.34
430.835	4.3
431.042	4.3
431.249	4.35
431.456	4.4
431.662	4.36
431.869	4.39
432.076	4.49
432.283	4.45
432.49	4.41
432.697	4.45
432.903	4.47
433.11	4.53
433.317	4.54
433.524	4.47
433.73	4.54
433.937	4.62
434.144	4.68
434.35	4.59
434.557	4.54
434.764	4.47
434.97	4.57
435.177	4.56
435.384	4.62
435.59	4.5
435.797	4.53
436.003	4.56
436.21	4.56
436.416	4.53
436.623	4.54
436.829	4.49
437.036	4.49
437.242	4.51
437.449	4.54
437.655	4.57
437.862	4.67
438.068	4.7
438.275	4.65
438.481	4.78
438.687	4.79
438.894	4.78
439.1	4.82
439.307	4.74
439.513	4.71
439.719	4.85
439.926	4.81
440.132	4.84
440.338	4.92
440.544	4.89
440.751	4.93
440.957	4.94
441.163	4.92
441.369	4.9
441.575	4.87
441.782	4.79
441.988	4.79
442.194	4.78
442.4	4.84
442.606	4.86
442.812	4.88
443.018	4.89
443.224	4.9
443.431	4.91
443.637	4.9
443.843	4.91
444.049	4.81
444.255	4.82
444.461	4.81
444.667	4.81
444.873	4.77
445.079	4.78
445.284	4.74
445.49	4.76
445.696	4.76
445.902	4.84
446.108	4.83
446.314	4.93
446.52	5.01
446.726	5.04
446.931	5.07
447.137	5.11
447.343	5.07
447.549	5.07
447.755	5.04
447.96	4.94
448.166	4.97
448.372	4.95
448.578	4.94
448.783	4.91
448.989	4.93
449.195	4.91
449.4	4.92
449.606	4.9
449.812	4.93
450.017	4.91
450.223	4.97
450.428	4.99
450.634	5.06
450.84	5.09
451.045	5.11
451.251	5.12
451.456	5.15
451.662	5.11
451.867	5.13
452.073	5.07
452.278	5.02
452.483	5.06
452.689	5.06
452.894	5.03
453.1	4.97
453.305	4.94
453.51	4.97
453.716	5
453.921	4.95
454.127	4.95
454.332	5.01
454.537	5.1
454.742	5.07
454.948	5.06
455.153	5.12
455.358	5.17
455.563	5.18
455.769	5.12
455.974	5.08
456.179	5.1
456.384	5.12
456.589	5.11
456.795	5.04
457	5.02
457.205	4.99
457.41	5.05
457.615	5.1
457.82	5.14
458.025	5.14
458.23	5.15
458.435	5.17
458.64	5.26
458.845	5.28
459.05	5.27
459.255	5.23
459.46	5.23
459.665	5.28
459.87	5.28
460.075	5.27
460.28	5.22
460.485	5.26
460.69	5.25
460.895	5.26
461.099	5.3
461.304	5.3
461.509	5.23
461.714	5.27
461.919	5.21
462.123	5.25
462.328	5.31
462.533	5.31
462.738	5.32
462.942	5.44
463.147	5.45
463.352	5.52
463.556	5.52
463.761	5.5
463.966	5.52
464.17	5.55
464.375	5.49
464.58	5.46
464.784	5.44
464.989	5.45
465.193	5.5
465.398	5.51
465.602	5.5
465.807	5.53
466.011	5.59
466.216	5.59
466.42	5.59
466.625	5.55
466.829	5.55
467.034	5.58
467.238	5.6
467.443	5.6
467.647	5.63
467.851	5.64
468.056	5.66
468.26	5.67
468.464	5.68
468.669	5.68
468.873	5.68
469.077	5.72
469.282	5.77
469.486	5.83
469.69	5.83
469.894	5.89
470.099	5.91
470.303	5.91
470.507	5.88
470.711	5.86
470.915	5.88
471.119	5.88
471.324	5.83
471.528	5.85
471.732	5.86
471.936	5.93
472.14	5.9
472.344	5.89
472.548	5.94
472.752	6.02
472.956	6.03
473.16	6.05
473.364	5.99
473.568	5.98
473.772	6
473.976	5.96
474.18	5.92
474.384	5.89
474.588	5.88
474.792	5.9
474.995	5.96
475.199	5.94
475.403	5.98
475.607	6
475.811	6.02
476.015	6.04
476.218	6.04
476.422	6.04
476.626	6
476.83	5.97
477.033	5.99
477.237	6.01
477.441	6.07
477.644	6.06
477.848	6.05
478.052	6.07
478.255	6.11
478.459	6.12
478.663	6.13
478.866	6.11
479.07	6.12
479.273	6.13
479.477	6.16
479.681	6.19
479.884	6.13
480.088	6.12
480.291	6.1
480.495	6.15
480.698	6.15
480.901	6.15
481.105	6.14
481.308	6.16
481.512	6.21
481.715	6.22
481.919	6.18
482.122	6.18
482.325	6.21
482.529	6.22
482.732	6.25
482.935	6.24
483.138	6.24
483.342	6.29
483.545	6.31
483.748	6.34
483.952	6.35
484.155	6.38
484.358	6.35
484.561	6.38
484.764	6.37
484.967	6.41
485.171	6.39
485.374	6.4
485.577	6.42
485.78	6.45
485.983	6.42
486.186	6.42
486.389	6.39
486.592	6.39
486.795	6.42
486.998	6.39
487.201	6.41
487.404	6.46
487.607	6.44
487.81	6.47
488.013	6.48
488.216	6.48
488.419	6.46
488.622	6.39
488.825	6.33
489.028	6.37
489.231	6.36
489.433	6.34
489.636	6.28
489.839	6.31
490.042	6.32
490.245	6.36
490.447	6.38
490.65	6.37
490.853	6.39
491.056	6.46
491.258	6.5
491.461	6.55
491.664	6.54
491.866	6.56
492.069	6.6
492.272	6.6
492.474	6.59
492.677	6.57
492.879	6.56
493.082	6.64
493.285	6.63
493.487	6.63
493.69	6.65
493.892	6.7
494.095	6.69
494.297	6.72
494.5	6.72
494.702	6.74
494.905	6.8
495.107	6.81
495.309	6.82
495.512	6.9
495.714	6.94
495.917	6.96
496.119	7
496.321	7.03
496.524	7.07
496.726	7.09
496.928	7.09
497.13	7.14
497.333	7.17
497.535	7.18
497.737	7.19
497.939	7.23
498.142	7.24
498.344	7.29
498.546	7.34
498.748	7.35
498.95	7.35
499.152	7.37
499.355	7.37
499.557	7.44
499.759	7.48
499.961	7.47
500.163	7.51
500.365	7.54
500.567	7.58
500.769	7.64
500.971	7.64
501.173	7.62
501.375	7.63
501.577	7.67
501.779	7.72
501.981	7.72
502.183	7.68
502.385	7.67
502.587	7.68
502.788	7.66
502.99	7.67
503.192	7.67
503.394	7.7
503.596	7.74
503.798	7.81
503.999	7.84
504.201	7.89
504.403	7.86
504.605	7.88
504.806	7.88
505.008	7.88
505.21	7.85
505.411	7.83
505.613	7.85
505.815	7.87
506.016	7.9
506.218	7.89
506.42	7.89
506.621	7.91
506.823	7.89
507.024	7.87
507.226	7.88
507.427	7.81
507.629	7.84
507.83	7.81
508.032	7.83
508.233	7.86
508.435	7.87
508.636	7.87
508.838	7.94
509.039	7.89
509.24	7.91
509.442	7.84
509.643	7.79
509.845	7.76
510.046	7.76
510.247	7.75
510.448	7.79
510.65	7.8
510.851	7.82
511.052	7.83
511.254	7.85
511.455	7.81
511.656	7.76
511.857	7.76
512.058	7.73
512.26	7.76
512.461	7.76
512.662	7.71
512.863	7.73
513.064	7.72
513.265	7.72
513.466	7.76
513.667	7.75
513.868	7.75
514.069	7.78
514.27	7.8
514.471	7.84
514.672	7.84
514.873	7.83
515.074	7.86
515.275	7.87
515.476	7.88
515.677	7.88
515.878	7.93
516.079	7.95
516.28	7.94
516.481	7.87
516.682	7.89
516.882	7.88
517.083	7.85
517.284	7.8
517.485	7.79
517.686	7.77
517.886	7.82
518.087	7.85
518.288	7.85
518.488	7.88
518.689	7.88
518.89	7.89
519.091	7.94
519.291	7.93
519.492	7.9
519.692	7.93
519.893	7.93
520.094	7.93
520.294	7.95
520.495	7.95
520.695	7.95
520.896	7.93
521.096	7.94
521.297	7.92
521.497	7.93
521.698	7.92
521.898	7.91
522.099	7.93
522.299	7.94
522.499	7.91
522.7	7.92
522.9	7.93
523.101	7.94
523.301	7.92
523.501	7.93
523.702	7.93
523.902	7.96
524.102	7.99
524.302	7.99
524.503	7.98
524.703	8
524.903	8.02
525.103	8.01
525.304	8
525.504	7.99
525.704	7.98
525.904	8.01
526.104	8.04
526.304	8.06
526.504	8.07
526.705	8.11
526.905	8.11
527.105	8.17
527.305	8.16
527.505	8.15
527.705	8.11
527.905	8.13
528.105	8.11
528.305	8.15
528.505	8.14
528.705	8.15
528.905	8.15
529.105	8.19
529.304	8.19
529.504	8.21
529.704	8.22
529.904	8.22
530.104	8.2
530.304	8.22
530.503	8.21
530.703	8.27
530.903	8.27
531.103	8.26
531.303	8.3
531.502	8.34
531.702	8.33
531.902	8.38
532.101	8.36
532.301	8.36
532.501	8.37
532.7	8.33
532.9	8.36
533.1	8.38
533.299	8.38
533.499	8.37
533.698	8.38
533.898	8.41
534.097	8.44
534.297	8.42
534.496	8.44
534.696	8.42
534.895	8.45
535.095	8.48
535.294	8.45
535.494	8.45
535.693	8.48
535.892	8.51
536.092	8.52
536.291	8.55
536.491	8.54
536.69	8.59
536.889	8.57
537.088	8.59
537.288	8.64
537.487	8.69
537.686	8.69
537.886	8.72
538.085	8.75
538.284	8.8
538.483	8.84
538.682	8.79
538.882	8.79
539.081	8.81
539.28	8.82
539.479	8.8
539.678	8.85
539.877	8.85
540.076	8.87
540.275	8.9
540.474	8.9
540.673	8.94
540.872	8.99
541.071	9.01
541.27	9.04
541.469	9.09
541.668	9.17
541.867	9.22
542.066	9.25
542.265	9.28
542.464	9.31
542.663	9.37
542.862	9.41
543.06	9.43
543.259	9.42
543.458	9.44
543.657	9.5
543.856	9.5
544.054	9.52
544.253	9.52
544.452	9.45
544.651	9.5
544.849	9.53
545.048	9.49
545.247	9.53
545.445	9.5
545.644	9.56
545.843	9.62
546.041	9.66
546.24	9.71
546.438	9.77
546.637	9.82
546.836	9.86
547.034	9.89
547.233	9.97
547.431	9.99
547.63	10.04
547.828	10.08
548.027	10.1
548.225	10.19
548.423	10.2
548.622	10.23
548.82	10.3
549.019	10.31
549.217	10.37
549.415	10.44
549.614	10.42
549.812	10.48
550.01	10.49
550.209	10.53
550.407	10.61
550.605	10.67
550.803	10.65
551.002	10.72
551.2	10.78
551.398	10.85
551.596	10.89
551.794	10.96
551.993	10.94
552.191	11.06
552.389	11.12
552.587	11.15
552.785	11.22
552.983	11.29
553.181	11.28
553.379	11.35
553.577	11.41
553.775	11.47
553.973	11.55
554.171	11.56
554.369	11.59
554.567	11.68
554.765	11.74
554.963	11.75
555.161	11.83
555.359	11.85
555.557	11.94
555.755	12.02
555.952	12.09
556.15	12.19
556.348	12.31
556.546	12.35
556.744	12.44
556.941	12.54
557.139	12.6
557.337	12.64
557.535	12.72
557.732	12.78
557.93	12.86
558.128	12.94
558.325	12.99
558.523	13.04
558.721	13.12
558.918	13.17
559.116	13.21
559.313	13.28
559.511	13.3
559.708	13.37
559.906	13.46
560.104	13.56
560.301	13.62
560.498	13.69
560.696	13.76
560.893	13.85
561.091	13.9
561.288	13.99
561.486	14.07
561.683	14.14
561.88	14.21
562.078	14.23
562.275	14.32
562.473	14.39
562.67	14.42
562.867	14.47
563.064	14.57
563.262	14.7
563.459	14.81
563.656	14.88
563.853	14.94
564.051	15.03
564.248	15.11
564.445	15.18
564.642	15.2
564.839	15.27
565.036	15.37
565.234	15.46
565.431	15.51
565.628	15.56
565.825	15.61
566.022	15.67
566.219	15.71
566.416	15.76
566.613	15.86
566.81	15.92
567.007	15.97
567.204	16.03
567.401	16.13
567.598	16.16
567.795	16.19
567.991	16.25
568.188	16.32
568.385	16.42
568.582	16.46
568.779	16.48
568.976	16.55
569.172	16.64
569.369	16.65
569.566	16.65
569.763	16.7
569.96	16.74
570.156	16.78
570.353	16.82
570.55	16.85
570.746	16.88
570.943	16.97
571.14	16.98
571.336	17.02
571.533	17.06
571.729	17.11
571.926	17.11
572.123	17.15
572.319	17.15
572.516	17.19
572.712	17.17
572.909	17.22
573.105	17.23
573.302	17.23
573.498	17.29
573.695	17.3
573.891	17.31
574.087	17.34
574.284	17.35
574.48	17.32
574.677	17.36
574.873	17.34
575.069	17.32
575.266	17.29
575.462	17.35
575.658	17.4
575.854	17.45
576.051	17.43
576.247	17.41
576.443	17.48
576.639	17.54
576.835	17.51
577.032	17.47
577.228	17.46
577.424	17.49
577.62	17.5
577.816	17.45
578.012	17.46
578.208	17.44
578.404	17.42
578.6	17.42
578.796	17.41
578.993	17.4
579.189	17.4
579.384	17.31
579.58	17.33
579.776	17.3
579.972	17.28
580.168	17.26
580.364	17.24
580.56	17.2
580.756	17.24
580.952	17.24
581.148	17.23
581.343	17.22
581.539	17.2
581.735	17.19
581.931	17.2
582.127	17.18
582.322	17.19
582.518	17.17
582.714	17.12
582.909	17.06
583.105	17.03
583.301	17
583.496	16.97
583.692	16.94
583.888	16.93
584.083	16.96
584.279	17.02
584.474	17
584.67	17.03
584.866	17.05
585.061	17.03
585.257	17.07
585.452	17
585.648	16.97
585.843	17
586.039	16.99
586.234	16.94
586.429	16.94
586.625	16.89
586.82	16.9
587.015	16.88
587.211	16.85
587.406	16.87
587.601	16.84
587.797	16.8
587.992	16.8
588.187	16.85
588.383	16.9
588.578	16.92
588.773	16.84
588.968	16.92
589.163	16.97
589.359	16.93
589.554	16.9
589.749	16.88
589.944	16.87
590.139	16.9
590.334	16.86
590.529	16.89
590.724	16.93
590.919	16.98
591.114	17
591.309	17.02
591.504	17.07
591.699	17.1
591.894	17.09
592.089	17.14
592.284	17.1
592.479	17.13
592.674	17.18
592.869	17.19
593.064	17.23
593.259	17.21
593.454	17.21
593.648	17.28
593.843	17.3
594.038	17.32
594.233	17.34
594.428	17.42
594.622	17.46
594.817	17.53
595.012	17.56
595.206	17.55
595.401	17.59
595.596	17.66
595.79	17.68
595.985	17.76
596.18	17.84
596.374	17.91
596.569	18
596.763	18.12
596.958	18.12
597.153	18.15
597.347	18.21
597.542	18.23
597.736	18.23
597.931	18.32
598.125	18.31
598.319	18.36
598.514	18.38
598.708	18.4
598.903	18.46
599.097	18.57
599.291	18.57
599.486	18.62
599.68	18.68
599.874	18.74
600.069	18.79
600.263	18.78
600.457	18.78
600.651	18.79
600.846	18.82
601.04	18.84
601.234	18.9
601.428	18.94
601.622	18.97
601.817	19.02
602.011	19.07
602.205	19.08
602.399	19.11
602.593	19.1
602.787	19.13
602.981	19.16
603.175	19.13
603.369	19.12
603.563	19.1
603.757	19.08
603.951	19.08
604.145	19.03
604.339	18.99
604.533	19.01
604.727	18.99
604.921	18.94
605.115	18.9
605.309	18.86
605.502	18.89
605.696	18.88
605.89	18.88
606.084	18.84
606.278	18.84
606.471	18.84
606.665	18.78
606.859	18.7
607.053	18.66
607.246	18.59
607.44	18.52
607.634	18.48
607.827	18.38
608.021	18.35
608.214	18.32
608.408	18.26
608.602	18.2
608.795	18.16
608.989	18.1
609.182	18.13
609.376	18.07
609.569	17.98
609.763	18
609.956	17.92
610.15	17.9
610.343	17.8
610.537	17.74
610.73	17.72
610.923	17.7
611.117	17.55
611.31	17.58
611.504	17.48
611.697	17.47
611.89	17.37
612.083	17.31
612.277	17.21
612.47	17.19
612.663	17.11
612.856	17.05
613.05	16.95
613.243	16.92
613.436	16.78
613.629	16.74
613.822	16.7
614.015	16.62
614.209	16.65
614.402	16.64
614.595	16.53
614.788	16.54
614.981	16.5
615.174	16.43
615.367	16.38
615.56	16.18
615.753	16.12
615.946	16.12
616.139	16.11
616.332	16.04
616.525	16.01
616.718	15.9
616.911	15.96
617.103	15.86
617.296	15.79
617.489	15.75
617.682	15.74
617.875	15.65
618.067	15.65
618.26	15.61
618.453	15.59
618.646	15.58
618.838	15.47
619.031	15.45
619.224	15.49
619.417	15.5
619.609	15.47
619.802	15.48
619.994	15.44
620.187	15.47
620.38	15.43
620.572	15.36
620.765	15.26
620.957	15.19
621.15	15.17
621.342	15.17
621.535	15.12
621.727	15.1
621.92	15.1
622.112	15.12
622.305	15.11
622.497	15.04
622.69	15.01
622.882	15.01
623.074	14.97
623.267	14.94
623.459	14.92
623.651	14.92
623.844	14.92
624.036	14.89
624.228	14.85
624.42	14.85
624.613	14.8
624.805	14.82
624.997	14.8
625.189	14.82
625.381	14.74
625.574	14.71
625.766	14.7
625.958	14.72
626.15	14.67
626.342	14.69
626.534	14.64
626.726	14.69
626.918	14.61
627.11	14.57
627.302	14.54
627.494	14.48
627.686	14.44
627.878	14.41
628.07	14.35
628.262	14.35
628.454	14.32
628.646	14.28
628.838	14.27
629.029	14.18
629.221	14.15
629.413	14.15
629.605	14.11
629.797	14.12
629.989	14.06
630.18	14.03
630.372	14.03
630.564	14.02
630.755	13.99
630.947	14.01
631.139	13.93
631.33	13.96
631.522	13.94
631.714	13.89
631.905	13.85
632.097	13.81
632.289	13.75
632.48	13.72
632.672	13.64
632.863	13.63
633.055	13.6
633.246	13.6
633.438	13.62
633.629	13.67
633.821	13.73
634.012	13.73
634.203	13.77
634.395	13.81
634.586	13.8
634.777	13.74
634.969	13.69
635.16	13.59
635.351	13.56
635.543	13.48
635.734	13.42
635.925	13.38
636.117	13.42
636.308	13.39
636.499	13.38
636.69	13.44
636.881	13.48
637.073	13.5
637.264	13.47
637.455	13.46
637.646	13.43
637.837	13.43
638.028	13.37
638.219	13.3
638.41	13.27
638.601	13.2
638.792	13.13
638.983	13.09
639.174	13.07
639.365	12.99
639.556	12.96
639.747	12.94
639.938	12.99
640.129	12.99
640.32	12.98
640.511	12.98
640.701	13.02
640.892	13.01
641.083	12.98
641.274	12.94
641.465	12.93
641.655	12.96
641.846	12.88
642.037	12.84
642.228	12.82
642.418	12.78
642.609	12.76
642.8	12.7
642.99	12.67
643.181	12.67
643.372	12.66
643.562	12.64
643.753	12.63
643.943	12.59
644.134	12.6
644.324	12.6
644.515	12.61
644.705	12.59
644.896	12.55
645.086	12.52
645.277	12.53
645.467	12.48
645.658	12.42
645.848	12.42
646.038	12.42
646.229	12.42
646.419	12.44
646.61	12.41
646.8	12.41
646.99	12.36
647.18	12.29
647.371	12.21
647.561	12.2
647.751	12.14
647.941	12.1
648.132	12.12
648.322	12.16
648.512	12.18
648.702	12.17
648.892	12.17
649.082	12.15
649.272	12.11
649.462	12.09
649.653	12.12
649.843	12.08
650.033	12.1
650.223	12.06
650.413	12.12
650.603	12.12
650.793	12.06
650.983	11.99
651.172	11.99
651.362	11.97
651.552	11.91
651.742	11.87
651.932	11.9
652.122	11.88
652.312	11.77
652.502	11.7
652.691	11.71
652.881	11.68
653.071	11.61
653.261	11.5
653.45	11.45
653.64	11.5
653.83	11.47
654.019	11.28
654.209	11.24
654.399	11.19
654.588	11.14
654.778	11.08
654.968	10.97
655.157	10.88
655.347	10.83
655.536	10.71
655.726	10.63
655.915	10.55
656.105	10.49
656.294	10.36
656.484	10.3
656.673	10.27
656.863	10.23
657.052	10.1
657.241	9.99
657.431	9.82
657.62	9.74
657.809	9.61
657.999	9.54
658.188	9.44
658.377	9.39
658.567	9.27
658.756	9.19
658.945	9.08
659.134	8.95
659.324	8.82
659.513	8.69
659.702	8.57
659.891	8.47
660.08	8.41
660.269	8.38
660.458	8.33
660.648	8.27
660.837	8.22
661.026	8.17
661.215	8.15
661.404	8.07
661.593	7.96
661.782	7.87
661.971	7.74
662.16	7.65
662.349	7.54
662.538	7.5
662.726	7.39
662.915	7.35
663.104	7.24
663.293	7.21
663.482	7.16
663.671	7.12
663.86	7
664.048	6.98
664.237	6.9
664.426	6.93
664.615	6.86
664.803	6.82
664.992	6.84
665.181	6.81
665.369	6.76
665.558	6.74
665.747	6.76
665.935	6.78
666.124	6.8
666.312	6.71
666.501	6.71
666.69	6.75
666.878	6.71
667.067	6.68
667.255	6.71
667.444	6.72
667.632	6.68
667.82	6.68
668.009	6.65
668.197	6.71
668.386	6.65
668.574	6.65
668.762	6.6
668.951	6.66
669.139	6.67
669.327	6.68
669.516	6.68
669.704	6.76
669.892	6.69
670.08	6.71
670.269	6.74
670.457	6.73
670.645	6.74
670.833	6.73
671.021	6.7
671.21	6.82
671.398	6.83
671.586	6.86
671.774	6.9
671.962	6.94
672.15	6.95
672.338	7.07
672.526	7.01
672.714	7.05
672.902	7.06
673.09	7.16
673.278	7.17
673.466	7.33
673.654	7.26
673.842	7.36
674.03	7.45
674.218	7.53
674.405	7.6
674.593	7.69
674.781	7.61
674.969	7.72
675.157	7.8
675.344	7.81
675.532	7.91
675.72	7.91
675.908	7.93
676.095	8.06
676.283	8.05
676.471	8.09
676.658	8.23
676.846	8.23
677.033	8.3
677.221	8.34
677.409	8.41
677.596	8.56
677.784	8.54
677.971	8.57
678.159	8.67
678.346	8.7
678.534	8.79
678.721	8.85
678.909	8.82
679.096	8.89
679.283	8.95
679.471	9
679.658	9.11
679.846	9.21
680.033	9.32
680.22	9.39
680.408	9.49
680.595	9.54
680.782	9.59
680.969	9.65
681.157	9.63
681.344	9.67
681.531	9.76
681.718	9.87
681.905	9.96
682.093	10.07
682.28	10.16
682.467	10.29
682.654	10.34
682.841	10.48
683.028	10.58
683.215	10.65
683.402	10.69
683.589	10.77
683.776	10.9
683.963	11.02
684.15	11.14
684.337	11.26
684.524	11.36
684.711	11.54
684.898	11.71
685.085	11.91
685.271	12.03
685.458	12.2
685.645	12.34
685.832	12.63
686.019	12.83
686.205	13.02
686.392	13.17
686.579	13.41
686.766	13.6
686.952	13.91
687.139	14.06
687.326	14.35
687.512	14.67
687.699	14.94
687.886	15.16
688.072	15.52
688.259	15.76
688.445	16.02
688.632	16.31
688.818	16.55
689.005	16.86
689.191	17.27
689.378	17.43
689.564	17.79
689.751	18.23
689.937	18.47
690.124	18.82
690.31	19.16
690.496	19.65
690.683	20.15
690.869	20.58
691.055	21.08
691.242	21.54
691.428	21.98
691.614	22.54
691.8	22.95
691.987	23.52
692.173	24.13
692.359	24.68
692.545	25.27
692.731	25.93
692.918	26.41
693.104	26.83
693.29	27.39
693.476	27.75
693.662	28.13
693.848	28.64
694.034	29.06
694.22	29.77
694.406	30.35
694.592	30.8
694.778	31.39
694.964	32.01
695.15	32.61
695.336	33.34
695.522	33.8
695.708	34.37
695.894	35.02
696.08	35.61
696.265	36.2
696.451	36.92
696.637	37.39
696.823	37.94
697.009	38.72
697.194	39.37
697.38	39.85
697.566	40.41
697.751	40.92
697.937	41.53
698.123	42.08
698.308	42.51
698.494	43
698.68	43.67
698.865	44.23
699.051	44.67
699.236	45.31
699.422	45.92
699.607	46.48
699.793	46.95
699.978	47.41
700.164	47.99
700.349	48.54
700.535	49.08
700.72	49.57
700.906	50.19
701.091	50.73
701.276	51.29
701.462	51.83
701.647	52.3
701.832	52.85
702.018	53.29
702.203	53.49
702.388	53.99
702.573	54.59
702.759	54.96
702.944	55.48
703.129	55.84
703.314	56.4
703.499	57.13
703.684	57.72
703.87	58.11
704.055	58.64
704.24	59.11
704.425	59.62
704.61	59.97
704.795	60.41
704.98	60.69
705.165	61.1
705.35	61.59
705.535	62.21
705.72	62.35
705.905	62.84
706.09	63.22
706.275	63.55
706.459	64.13
706.644	64.47
706.829	64.81
707.014	65.41
707.199	65.7
707.384	66.12
707.568	66.59
707.753	66.98
707.938	67.38
708.123	67.56
708.307	68.03
708.492	68.4
708.677	68.78
708.861	69.19
709.046	69.26
709.231	69.54
709.415	69.79
709.6	69.85
709.784	70.26
709.969	70.52
710.153	71.08
710.338	71.51
710.522	71.8
710.707	72
710.891	72.59
711.076	72.83
711.26	73.01
711.445	73.02
711.629	73.32
711.813	73.5
711.998	73.81
712.182	74.03
712.366	74.66
712.551	74.97
712.735	75.2
712.919	75.41
713.103	75.76
713.288	76.23
713.472	76.18
713.656	75.75
713.84	76.08
714.024	76.45
714.208	76.57
714.393	77
714.577	77.25
714.761	77.79
714.945	78.26
715.129	78.57
715.313	78.72
715.497	79.03
715.681	79.18
715.865	79.29
716.049	79.6
716.233	79.92
716.417	80.13
716.601	80.43
716.785	80.47
716.968	80.7
717.152	80.81
717.336	80.61
717.52	80.94
717.704	80.95
717.888	80.92
718.071	81.45
718.255	81.45
718.439	81.78
718.622	82.25
718.806	82.25
718.99	82.6
719.174	82.81
719.357	82.81
719.541	83.17
719.724	83.43
719.908	83.45
720.092	83.66
720.275	83.7
720.459	84.03
720.642	84.23
720.826	84.27
721.009	84.26
721.193	84.49
721.376	84.56
721.559	84.54
721.743	84.91
721.926	84.96
722.11	85.44
722.293	85.27
722.476	85.2
722.66	85.37
722.843	85.67
723.026	85.84
723.21	85.84
723.393	85.58
723.576	85.83
723.759	86.17
723.942	86.51
724.126	86.7
724.309	86.62
724.492	86.93
724.675	87.49
724.858	88.29
725.041	88.38
725.224	88.47
725.407	88.31
725.59	88.28
725.774	88.31
725.957	88.26
726.14	87.62
726.322	87.57
726.505	88.05
726.688	88.38
726.871	88.59
727.054	88.83
727.237	88.57
727.42	89.12
727.603	89.53
727.786	89.66
727.968	90.08
728.151	90.28
728.334	90.56
728.517	91.15
728.699	91.34
728.882	91.65
729.065	91.36
729.248	91.31
729.43	91.28
729.613	91.5
729.796	91.2
729.978	91.45
730.161	91.6
730.343	91.98
730.526	92.18
730.708	92.48
730.891	92.29
731.073	92.72
731.256	92.93
731.438	92.94
731.621	93.17
731.803	93.18
731.986	93.41
732.168	93.71
732.35	93.5
732.533	93.6
732.715	93.69
732.898	93.75
733.08	94.21
733.262	94.21
733.444	94.15
733.627	94.61
733.809	94.35
733.991	94.32
734.173	93.92
734.355	94.05
734.538	94
734.72	94.66
734.902	94.2
735.084	94.65
735.266	94.82
735.448	94.99
735.63	94.52
735.812	94.69
735.994	94.24
736.176	95.14
736.358	95.02
736.54	95.01
736.722	95.15
736.904	95.55
737.086	95.59
737.268	95.62
737.45	95.55
737.632	95.49
737.814	95.41
737.995	95.76
738.177	95.65
738.359	95.95
738.541	96.09
738.723	96.15
738.904	96.24
739.086	96.64
739.268	96.85
739.449	97.29
739.631	97.53
739.813	97.31
739.994	97.89
740.176	98.03
740.358	98
740.539	97.73
740.721	97.38
740.902	96.91
741.084	97.36
741.265	96.52
741.447	96.53
741.628	96.2
741.81	96.59
741.991	97.04
742.172	97.07
742.354	97.47
742.535	97.83
742.717	97.36
742.898	97.86
743.079	97.52
743.261	97.48
743.442	97.66
743.623	97.23
743.804	97.15
743.986	97.74
744.167	97.73
744.348	98.2
744.529	97.54
744.71	96.98
744.891	96.65
745.073	96.89
745.254	96.83
745.435	96.19
745.616	95.86
745.797	95.89
745.978	97.42
746.159	98
746.34	98.26
746.521	98.35
746.702	98.46
746.883	98.56
747.064	99.04
747.245	98.94
747.426	98.7
747.606	97.87
747.787	98.26
747.968	99.48
748.149	99.27
748.33	99.9
748.51	99.3
748.691	99.38
748.872	99.83
749.053	99.11
749.233	98.38
749.414	98.52
749.595	97.3
749.775	97.19
749.956	97
750.137	96.26
750.317	97.25
750.498	97.54
750.678	97.03
750.859	97.48
751.04	97.24
751.22	96.38
751.4	97.02
751.581	96.04
751.761	95.58
751.942	95.93
752.122	96.07
752.303	95.94
752.483	97.64
752.663	98.18
752.844	97.85
753.024	98.72
753.204	98.56
753.385	98.44
753.565	98.03
753.745	96.82
753.925	95.88
754.106	96.33
754.286	95.34
754.466	95.38
754.646	95.18
754.826	95.43
755.006	95.2
755.187	95.57
755.367	95.3
755.547	95.85
755.727	95.56
755.907	96.06
756.087	96.59
756.267	96.76
756.447	96.82
756.627	96.86
756.807	97.33
756.987	98.56
757.167	98.13
757.346	97.21
757.526	97.59
757.706	97.3
757.886	97.49
758.066	96.12
758.246	95.46
758.425	96.95
758.605	97.77
758.785	97.83
758.965	97.1
759.144	98.03
759.324	98.65
759.504	98.62
759.683	96.7
759.863	96.27
760.043	96.75
760.222	96.95
760.402	96.43
760.581	96.15
760.761	95.26
760.94	95.01
761.12	94.4
761.299	92.61
761.479	93.06
761.658	92.23
761.838	92.19
762.017	92.32
762.197	92.94
762.376	93.03
762.555	94.42
762.735	93.62
762.914	93.58
763.093	93.11
763.273	92.66
763.452	92.72
763.631	92.6
763.81	92.6
763.99	93.42
764.169	93.32
764.348	93.79
764.527	94.78
764.706	94.9
764.885	96.04
765.064	95.95
765.243	95.63
765.423	97.21
765.602	96.72
765.781	95.87
765.96	95.35
766.139	94.58
766.318	94.89
766.497	95.38
766.676	94.76
766.854	94.93
767.033	94.64
767.212	94.12
767.391	93.14
767.57	92.47
767.749	92.23
767.928	90.8
768.106	90.89
768.285	92.58
768.464	93.08
768.643	94.83
768.821	95.38
769	95.64
769.179	95.77
769.357	95.4
769.536	93.89
769.715	93.32
769.893	92.42
770.072	91.32
770.25	90.29
770.429	90.7
770.607	91.34
770.786	92.34
770.964	92.91
771.143	92.88
771.321	91.75
771.5	92
771.678	92.24
771.857	91.02
772.035	90.52
772.213	89.86
772.392	90.02
772.57	91.15
772.748	90.97
772.927	90.55
773.105	91.99
773.283	92.07
773.461	92.46
773.64	91.16
773.818	90.61
773.996	91.05
774.174	92.18
774.352	92.28
774.531	90.97
774.709	91.39
774.887	91.26
775.065	91.93
775.243	92.63
775.421	91.89
775.599	89.7
775.777	90.55
775.955	89.99
776.133	90.44
776.311	90.08
776.489	88.95
776.667	88
776.844	88.6
777.022	88.13
777.2	87.73
777.378	88.88
777.556	89.57
777.734	89.88
777.911	91.9
778.089	91.19
778.267	91.12
778.445	91.35
778.622	90.43
778.8	90.21
778.978	89.71
779.155	87.47
779.333	87.76
779.511	88.04
779.688	87.3
779.866	86.71
780.043	87.91
780.221	87.91
780.398	89.01
780.576	88.1
780.753	87.69
780.931	89.23
781.108	90.93
781.286	89.09
781.463	89.93
781.64	89.8
781.818	90.75
781.995	91.11
782.172	90.78
782.35	89.58
782.527	90.88
782.704	89.02
782.882	89.85
783.059	91.05
783.236	89.74
783.413	88.51
783.59	88.41
783.768	87.75
783.945	88.75
784.122	87.76
784.299	87.76
784.476	88.66
784.653	88.4
784.83	88.24
785.007	88.12
785.184	87.08
785.361	85.73
785.538	84.38
785.715	85.38
785.892	85.81
786.069	86.22
786.246	85.19
786.423	86.91
786.6	87.29
786.776	87.5
786.953	85.2
787.13	86.86
787.307	86.27
787.484	86.01
787.66	83.7
787.837	85.08
788.014	84.07
788.191	86.52
788.367	84.41
788.544	85.75
788.721	87.13
788.897	89.27
789.074	88.37
789.25	89.78
789.427	88.34
789.603	91.39
789.78	91.97
789.956	90.68
790.133	90.35
790.309	89.97
790.486	92.59
790.662	94.64
790.839	94.1
791.015	92.96
791.192	92.33
791.368	93.11
791.544	93.09
791.721	89.5
791.897	88.46
792.073	85.13
792.249	86.04
792.426	87.65
792.602	84.92
792.778	82.95
792.954	85.02
793.13	84.27
793.307	83.7
793.483	81.27
793.659	81.86
793.835	83.18
794.011	84.81
794.187	80.89
794.363	81.27
794.539	82.92
794.715	81.65
794.891	78.41
795.067	77.31
795.243	77.18
795.419	80.38
795.595	79.26
795.771	80.65
795.947	82.6
796.122	83.78
796.298	85.52
796.474	85.78
796.65	84.83
796.826	88.22
797.001	85.77
797.177	85.8
797.353	87.98
797.529	88.35
797.704	88.11
797.88	86.09
798.056	85.99
798.231	85.44
798.407	87.34
798.582	87.48
798.758	86.22
798.934	85.83
799.109	85.29
799.285	86.96
799.46	90.26
799.636	89.99
799.811	90.22
799.986	90.92
800.162	91.09
800.337	92.73
800.513	90.66
800.688	90.44
800.863	88.39
801.039	85.86
801.214	85.43
801.389	85.87
801.565	89
801.74	86.48
801.915	85.74
802.09	83.27
802.265	83.74
802.441	84.52
802.616	84.82
802.791	81.78
802.966	80.7
803.141	74.7
803.316	79.81
803.491	79.6
803.666	80.83
803.841	82.97
804.016	83.95
804.191	86.71
804.366	92.52
804.541	90.89
804.716	85.24
804.891	86.78
805.066	83.96
805.241	81.05
805.416	80.54
805.591	82.88
805.765	83.77
805.94	87.39
806.115	82.06
806.29	81.86
806.464	83.7
806.639	80.77
806.814	76.87
806.989	73.97
807.163	74.24
807.338	75.96
807.512	73.42
807.687	73.5
807.862	74.33
808.036	73.36
808.211	75.66
808.385	75.26
808.56	76.53
808.734	76.7
808.909	78.31
809.083	81.81
809.258	88.71
809.432	86.43
809.606	86.45
809.781	83.69
809.955	89.02
810.13	88.95
810.304	85.46
810.478	81.91
810.652	83.5
810.827	84.56
811.001	86.84
811.175	77.56
811.349	76.41
811.524	74.13
811.698	74.02
811.872	74.45
812.046	72.55
812.22	67.27
812.394	71.15
812.568	74.33
812.742	78.54
812.916	78.31
813.09	76.41
813.264	77.11
813.438	88.39
813.612	94.42
813.786	94.64
813.96	91.25
814.134	90.56
814.308	87.84
814.482	89.21
814.656	87.45
814.83	86.06
815.003	83.66
815.177	86.67
815.351	89.16
815.525	87.83
815.698	87.33
815.872	83
816.046	77.55
816.219	82.36
816.393	75.28
816.567	72.12
816.74	76.64
816.914	78.29
817.088	78.74
817.261	86.22
817.435	74.62
817.608	82.93
817.782	84.48
817.955	83.78
818.129	86.36
818.302	85.8
818.475	88.78
818.649	88.67
818.822	87.3
818.996	85.32
819.169	85.77
819.342	81.74
819.516	83.03
819.689	81.61
819.862	82.73
820.035	77.79
820.209	76.81
820.382	72.82
820.555	74.62
820.728	65.62
820.901	60.06
821.075	67.59
821.248	71.12
821.421	67.2
821.594	72.71
821.767	70.44
821.94	72.13
822.113	76.69
822.286	75.29
822.459	82.69
822.632	90.18
822.805	84
822.978	84.63
823.151	84.53
823.324	74.87
823.496	63.17
823.669	59.86
823.842	54.98
824.015	50.91
824.188	49.61
824.361	54.34
824.533	63.72
824.706	85.29
824.879	83.63
825.051	91.2
825.224	98.6
825.397	84.01
825.569	82.81
825.742	79.99
825.915	75.93
826.087	66.01
826.26	61.14
826.432	62.63
826.605	66.43
826.777	68.36
826.95	63.03
827.122	62.05
827.295	72.25
827.467	68.61
827.64	67.68
827.812	72.22
827.984	77.47
828.157	79.44
828.329	76.86
828.501	73.31
828.674	80.07
828.846	75.69
829.018	71.02
829.19	61.83
829.363	65.15
829.535	64.56
829.707	66.27
829.879	57.78
830.051	55.52
830.223	62.39
830.395	65.94
830.568	71.98
830.74	78.29
830.912	76.36
831.084	71.64
831.256	71.03
831.428	71.41
831.6	69.65
831.772	65.5
831.943	59.59
832.115	56.68
832.287	66.03
832.459	72.25
832.631	76.42
832.803	80.2
832.975	78.26
833.146	86.48
833.318	93.27
833.49	91.42
833.662	82.58
833.833	81.5
834.005	78.27
834.177	79.07
834.348	73.09
834.52	79.78
834.692	85.47
834.863	87.27
835.035	75.89
835.206	79.29
835.378	82.87
835.549	78.2
835.721	62.5
835.892	55.94
836.064	69.44
836.235	81.25
836.407	75.02
836.578	75.02
836.749	83.73
836.921	93.9
837.092	109.68
837.264	94.23
837.435	73.65
837.606	72.59
837.777	67.4
837.949	54.41
838.12	54.14
838.291	48.21
838.462	50.8
838.633	61.05
838.805	68.37
838.976	67.28
839.147	68.45
839.318	70.57
839.489	63.28
839.66	62.09
839.831	55.28
840.002	55.85
840.173	64.47
840.344	71.61
840.515	74.39
840.686	86.82
840.857	82.26
841.028	88
841.199	80.69
841.369	77.44
841.54	82.47
841.711	86.49
841.882	75.48
842.053	83.5
842.223	80.52
842.394	93.07
842.565	95.1
842.736	91.7
842.906	93.44
843.077	91.34
843.248	86.21
843.418	98.14
843.589	89.35
843.759	91.79
843.93	97.66
844.101	87.54
844.271	86.41
844.442	95.8
844.612	80.39
844.783	61.19
844.953	45.47
845.123	35.69
845.294	37.4
845.464	53.31
845.635	60.95
845.805	72.78
845.975	86.91
846.146	94
846.316	118.55
846.486	108.28
846.656	115.91
846.827	101.53
846.997	106.6
847.167	102.96
847.337	104.52
847.507	98.77
847.677	100.07
847.848	84.37
848.018	82.03
848.188	65.57
848.358	68.08
848.528	74.47
848.698	50.02
848.868	38.57
849.038	36.84
849.208	41.94
849.378	48.09
849.548	50.22
849.718	35.7
849.887	39.56
850.057	53.55
850.227	62.87
850.397	50.44
850.567	58.42
850.737	52.87
850.906	61.54
851.076	56.8
851.246	55.21
851.415	57.39
851.585	69.77
851.755	65.96
851.924	72.31
852.094	63.76
852.264	76.02
852.433	76.94
852.603	78.53
852.772	71.62
852.942	64.46
853.111	68.98
853.281	55.28
853.45	53.5
853.62	45.25
853.789	45.06
853.959	46.3
854.128	29.53
854.297	21.38
854.467	47.96
854.636	43.84
854.805	55.78
854.975	60.46
855.144	63.76
855.313	84.65
855.482	74.1
855.652	77.74
855.821	83.05
855.99	105.83
856.159	93.09
856.328	78.85
856.497	74.05
856.667	83.8
856.836	78.14
857.005	68.79
857.174	55.54
857.343	54.19
857.512	48.85
857.681	43.11
857.85	43.79
858.019	32.82
858.188	40.71
858.356	16.27
858.525	18.09
858.694	38.76
858.863	42.85
859.032	28.52
859.201	22.95
859.369	34.65
859.538	27.6
859.707	36.42
859.876	33.86
860.044	31.16
860.213	33.86
860.382	35.08
860.55	30.26
860.719	53.47
860.888	46.44
861.056	55.7
861.225	51.49
861.393	76.15
861.562	72.93
861.73	65.52
861.899	48.28
862.067	54.81
862.236	50.13
862.404	55.29
862.572	45.8
862.741	59.06
862.909	61.15
863.078	69.4
863.246	83.89
863.414	83.3
863.582	72.13
863.751	70
863.919	65.18
864.087	61.87
864.255	56.57
864.424	42.55
864.592	43.64
864.76	54.25
864.928	56.6
865.096	47.11
865.264	52.9
865.432	61.69
865.6	52.54
865.768	35.96
865.936	44.87
866.104	52.49
866.272	76.96
866.44	38.6
866.608	37.53
866.776	85
866.944	75.92
867.112	25.02
867.28	17.23
867.448	28.86
867.615	62.42
867.783	36.96
867.951	42.04
868.119	77.17
868.286	101.88
868.454	95.11
868.622	80.48
868.789	100.89
868.957	114.93
869.125	90.89
869.292	92.36
869.46	96.71
869.627	74.67
869.795	69.41
869.963	36.72
870.13	40.75
870.298	51.73
870.465	11.56
870.632	12.2
870.8	28.63
870.967	44.88
871.135	52.62
871.302	47.36
871.469	42.65
871.637	55.54
871.804	43.48
871.971	45.55
872.139	49.79
872.306	33.98
872.473	28.62
872.64	43.44
872.807	57.08
872.975	101.84
873.142	79.99
873.309	101.41
873.476	235.29
873.643	235.68
873.81	168.45
873.977	77.15
874.144	68.74
874.311	52.87
874.478	-3.05
874.645	-30.45
874.812	6.51
874.979	20.25
875.146	54.27
875.313	26.18
875.48	141.48
875.647	175.42
875.813	166.39
875.98	122.89
876.147	78
876.314	73.71
876.481	65.95
876.647	37.59
876.814	44.13
876.981	40.2
877.147	27.6
877.314	36.23
877.481	37.48
877.647	45.65
877.814	52.05
877.98	73.91
878.147	75.14
878.314	77.19
878.48	63
878.647	69.25
878.813	74.17
878.979	81.34
879.146	48.09
879.312	84.06
879.479	78.39
879.645	60.75
879.811	56.68
879.978	61.48
880.144	87.6
880.31	92.76
880.477	47.41
880.643	-2.64
880.809	78.49
880.975	29.88
881.142	2.42
881.308	-44.55
881.474	6.04
881.64	-27.89
881.806	27.32
881.972	50.05
882.138	61.56
882.304	33.59
882.47	18.51
882.636	-17.31
882.802	32.11
882.968	32.27
883.134	-163.34
883.3	-114.02
883.466	12.55
883.632	10.8
883.798	9.56
883.964	-8.04
884.129	24.24
884.295	35.74
884.461	65.21
884.627	58.52
884.793	87.71
884.958	87.81
885.124	73.01
885.29	34.84
885.455	39.14
885.621	35.58
885.787	30.3
885.952	15.81
886.118	45.63
886.283	49.07
886.449	49.93
886.614	62.08
886.78	53.83
886.945	38.83
887.111	48.57
887.276	27.49
887.442	50.82
887.607	51.74
887.773	33.68
887.938	50.76
888.103	72.57
888.269	75.53
888.434	76.92
888.599	71.83
888.764	69.94
888.93	93.66
889.095	88.55
889.26	89.67
889.425	103.5
889.59	79.66
889.756	51.11
889.921	37.15
890.086	18.84
890.251	12.79
890.416	-44.21
890.581	-35.29
890.746	-33.85
890.911	-45.97
891.076	-55.9
891.241	-64.06
891.406	2.44
891.571	34.75
891.736	14.74
891.901	46
892.065	62.3
892.23	46.97
892.395	34.99
892.56	18.61
892.725	13.45
892.889	-1.21
893.054	-48.83
893.219	-74.55
893.384	-60.9
893.548	-171.67
893.713	144.06
893.878	52.17
