Data from Ofra_1a_PS_2HS17_Reflection_1.txt Node
Date: Tue Jul 20 10:52:45 EDT 2021
User: Adam
Spectrometer: FLMT01687
Trigger mode: 0
Integration Time (sec): 1.004000E0
Scans to average: 2
Electric dark correction enabled: true
Nonlinearity correction enabled: false
Boxcar width: 2
XAxis mode: Wavelengths
Number of Pixels in Spectrum: 3648
>>>>>Begin Spectral Data<<<<<
179.494	-156.35
179.716	-246.56
179.937	438.8
180.158	-591.08
180.38	55.39
180.601	14.88
180.823	-31.93
181.044	-103.13
181.265	-125.06
181.486	200.62
181.708	123.8
181.929	-6618.18
182.15	-64.88
182.372	-51.23
182.593	535.93
182.814	-294.06
183.035	-5.21
183.257	43.49
183.478	10.08
183.699	-3.92
183.92	-33.32
184.141	-32.62
184.363	-22.18
184.584	-37.8
184.805	14.46
185.026	37.35
185.247	9.21
185.468	-12.52
185.689	-13.35
185.91	-62.55
186.132	-13.05
186.353	-3.8
186.574	-3.47
186.795	20.51
187.016	39.39
187.237	6.4
187.458	17.27
187.679	21.09
187.9	44.44
188.121	51.57
188.342	74.25
188.563	85.38
188.784	89.44
189.005	44.82
189.226	50.19
189.447	35.78
189.667	15.71
189.888	-6.8
190.109	-13.85
190.33	-19.13
190.551	-19.2
190.772	-12.26
190.993	-12.79
191.214	15.89
191.434	20.23
191.655	2.97
191.876	39.59
192.097	27.51
192.318	31.63
192.538	-3.52
192.759	4.34
192.98	9.43
193.201	9.79
193.421	12.01
193.642	25.63
193.863	31.72
194.083	10.01
194.304	41.79
194.525	12.32
194.745	10.13
194.966	7.02
195.187	15.31
195.407	0.56
195.628	14.79
195.848	17.73
196.069	-5.7
196.29	-19.78
196.51	-43.03
196.731	-39.71
196.951	-48.84
197.172	-19.54
197.392	-25.85
197.613	7.56
197.833	-4.88
198.054	-3.44
198.274	4.07
198.495	18.22
198.715	10.24
198.936	20.14
199.156	22.38
199.377	2.9
199.597	16.03
199.817	-2.57
200.038	-31.8
200.258	-1.39
200.479	14.87
200.699	-3.54
200.919	19.31
201.14	17.99
201.36	-4.05
201.58	-19.41
201.801	-32.7
202.021	-54.9
202.241	-23.74
202.461	-18.01
202.682	14.68
202.902	41.64
203.122	62.31
203.342	57.31
203.563	48.51
203.783	22.34
204.003	5.75
204.223	5.23
204.443	2.31
204.663	7.34
204.884	30.11
205.104	43.67
205.324	37.98
205.544	8.68
205.764	37.34
205.984	36.92
206.204	15.35
206.424	6.35
206.644	9.74
206.864	-39.19
207.084	-17.27
207.304	-38.42
207.525	-41.29
207.745	-4.56
207.964	12.79
208.184	20.71
208.404	37.46
208.624	52.67
208.844	39.34
209.064	36.21
209.284	8.46
209.504	14.47
209.724	3.52
209.944	-6.49
210.164	-5.81
210.384	2.84
210.604	-42.69
210.823	-38.88
211.043	-16.88
211.263	-51.4
211.483	-14.45
211.703	-7.5
211.922	-18.77
212.142	-1.7
212.362	-6.21
212.582	-18.95
212.801	-24.87
213.021	-23.8
213.241	-54.64
213.461	-44.7
213.68	-18.92
213.9	-7.33
214.12	-0.98
214.339	15.24
214.559	30.85
214.779	21.45
214.998	32.16
215.218	42.35
215.438	39.38
215.657	43.67
215.877	40.87
216.096	47.33
216.316	35.08
216.535	30.77
216.755	27.4
216.974	39.75
217.194	20.58
217.413	35.06
217.633	24.05
217.852	10.36
218.072	11.14
218.291	11.25
218.511	4.94
218.73	9.97
218.95	-12.95
219.169	-38
219.389	-29.58
219.608	-54.26
219.827	-27.89
220.047	0.69
220.266	3.37
220.485	-19.42
220.705	0.2
220.924	3.08
221.143	12.72
221.363	12.4
221.582	29.6
221.801	39.75
222.021	31.82
222.24	23.92
222.459	25.76
222.678	28.51
222.897	24.49
223.117	25.18
223.336	33.69
223.555	56.01
223.774	54.62
223.993	48.33
224.213	43.64
224.432	42.13
224.651	38.07
224.87	36.65
225.089	42.61
225.308	53.18
225.527	27.06
225.746	-3.51
225.965	0.95
226.184	-20.53
226.404	-30.94
226.623	12.66
226.842	23.19
227.061	8.21
227.28	23.35
227.499	24.19
227.718	17.24
227.936	14.86
228.155	31.62
228.374	37.54
228.593	39.97
228.812	32.79
229.031	37.69
229.25	21.5
229.469	9.5
229.688	12.83
229.907	29.83
230.125	31.16
230.344	31.45
230.563	35.77
230.782	46.34
231.001	22.97
231.22	21.91
231.438	39.12
231.657	23.07
231.876	20.63
232.095	37.01
232.313	31.24
232.532	24.47
232.751	28.39
232.969	12.6
233.188	-2.78
233.407	5.64
233.625	-1.63
233.844	-3.25
234.063	-0.22
234.281	8.97
234.5	4.41
234.719	15.61
234.937	2.83
235.156	7.95
235.374	8.39
235.593	17.16
235.811	11.42
236.03	32.34
236.249	18.99
236.467	25.16
236.686	10.85
236.904	15.14
237.123	11.8
237.341	34.12
237.559	4.82
237.778	40.41
237.996	11.56
238.215	6.29
238.433	-40.24
238.652	36.06
238.87	-12.66
239.088	7.41
239.307	2.96
239.525	5.86
239.743	-10.95
239.962	-10.67
240.18	3.27
240.398	15.98
240.617	2.03
240.835	1.63
241.053	18.86
241.271	27.91
241.49	15.22
241.708	27.12
241.926	16.17
242.144	15.82
242.363	-17.9
242.581	-52
242.799	-58.49
243.017	-12.73
243.235	-10.86
243.453	-8.29
243.672	15.96
243.89	33.26
244.108	14.33
244.326	27.97
244.544	38.02
244.762	35.02
244.98	30.35
245.198	44.13
245.416	41.16
245.634	28.72
245.852	10.31
246.07	27.6
246.288	24.45
246.506	16.06
246.724	13.64
246.942	32.47
247.16	22.85
247.378	4.81
247.596	18.93
247.814	-6.88
248.032	-31.18
248.25	-15.43
248.468	12.73
248.685	4.72
248.903	27.18
249.121	33.62
249.339	29.99
249.557	37.61
249.775	43.14
249.992	28.09
250.21	13.67
250.428	27.63
250.646	24.77
250.863	14.04
251.081	21.49
251.299	38.48
251.517	24.98
251.734	30.83
251.952	42.06
252.17	45.2
252.387	32.33
252.605	32.37
252.823	9.81
253.04	13.42
253.258	5.47
253.475	14.62
253.693	11.18
253.911	7.74
254.128	3.69
254.346	3.32
254.563	17.99
254.781	14.17
254.998	25.33
255.216	14.49
255.433	-11.57
255.651	-23.14
255.868	-26.91
256.086	-24.25
256.303	-18.99
256.521	5.49
256.738	6.85
256.956	20.12
257.173	8.73
257.39	12.23
257.608	17.29
257.825	18.37
258.043	31.94
258.26	38.63
258.477	45.91
258.695	31.34
258.912	33.61
259.129	9.32
259.346	13.21
259.564	13.29
259.781	24.04
259.998	25.42
260.216	40.01
260.433	33.38
260.65	36.66
260.867	29.75
261.084	15.42
261.302	-20.49
261.519	-18.91
261.736	-7.25
261.953	-2.85
262.17	17.97
262.387	38.71
262.604	33.57
262.822	24.92
263.039	21.99
263.256	15.02
263.473	4.23
263.69	6.96
263.907	4.96
264.124	27.78
264.341	21.79
264.558	31.02
264.775	38.82
264.992	47.39
265.209	17.91
265.426	25.25
265.643	7.11
265.86	-34.26
266.077	-46.25
266.294	-20.4
266.51	12.44
266.727	17.44
266.944	37.87
267.161	28.71
267.378	39.41
267.595	19.37
267.812	9.24
268.028	-1.32
268.245	10.73
268.462	8.77
268.679	13
268.896	27.1
269.112	23.04
269.329	14.71
269.546	17.66
269.763	17.79
269.979	5.09
270.196	19.53
270.413	20.51
270.629	-2.01
270.846	5.31
271.063	6.09
271.279	-2.49
271.496	5.86
271.712	11.89
271.929	11.67
272.146	26.37
272.362	20.87
272.579	13.86
272.795	18.31
273.012	21.02
273.228	6.62
273.445	6.53
273.661	-0.87
273.878	-0.07
274.094	-7.84
274.311	-4.59
274.527	-14.29
274.744	15.82
274.96	12.73
275.177	13.75
275.393	35.85
275.609	44.85
275.826	32.36
276.042	24.91
276.259	30.53
276.475	24.19
276.691	3.37
276.908	0.79
277.124	18.79
277.34	11.06
277.557	-1.9
277.773	10.46
277.989	5.64
278.205	10.73
278.422	4.1
278.638	6.19
278.854	0.9
279.07	18.54
279.286	15.77
279.503	28.31
279.719	26.96
279.935	26.91
280.151	13.46
280.367	16.08
280.583	-0.69
280.799	-7.17
281.016	-23.36
281.232	-11.54
281.448	-30.94
281.664	-0.55
281.88	11.33
282.096	17.48
282.312	11.5
282.528	18.42
282.744	-8.1
282.96	-21.1
283.176	-25.02
283.392	-35.26
283.608	-58.47
283.824	-58.01
284.04	-89.79
284.256	-53.66
284.471	-24.04
284.687	-6.87
284.903	-1.88
285.119	13.14
285.335	19.45
285.551	12.99
285.767	12.79
285.982	14.6
286.198	1.88
286.414	4.48
286.63	38.38
286.846	32.42
287.061	48.02
287.277	47.9
287.493	42.13
287.709	26.8
287.924	28.56
288.14	35.98
288.356	42.03
288.571	45.77
288.787	28.21
289.003	30.34
289.218	9.87
289.434	1.87
289.65	4.91
289.865	15.48
290.081	31.64
290.296	32.76
290.512	35.69
290.727	34.53
290.943	32.26
291.159	19.6
291.374	8.15
291.59	3.85
291.805	-20.12
292.021	-19.44
292.236	-28.21
292.451	-5.88
292.667	0.29
292.882	23.88
293.098	26.73
293.313	26.13
293.529	22.69
293.744	13.01
293.959	10.1
294.175	19.28
294.39	13.45
294.605	9.36
294.821	3.17
295.036	10.29
295.251	0.49
295.467	-0.58
295.682	12.78
295.897	11.47
296.112	-1.35
296.328	21.44
296.543	11.26
296.758	11.17
296.973	18.05
297.188	20.05
297.404	-26.87
297.619	-20.36
297.834	-64.78
298.049	-31.07
298.264	-21.51
298.479	-23.92
298.694	11.61
298.909	31.72
299.125	9.91
299.34	12.8
299.555	32.66
299.77	31.6
299.985	21.98
300.2	30.9
300.415	29.68
300.63	33.64
300.845	30.47
301.06	33.77
301.275	25.77
301.49	25.46
301.704	9.51
301.919	4.07
302.134	-16.61
302.349	-4.51
302.564	-20.79
302.779	-21.06
302.994	-1.18
303.209	22.45
303.423	24.56
303.638	47.07
303.853	27.37
304.068	2.88
304.283	-3.18
304.497	-18.53
304.712	9.38
304.927	23.42
305.142	23.72
305.356	37.31
305.571	47.15
305.786	29.04
306	43.13
306.215	48.36
306.43	11.78
306.644	6.2
306.859	-6.04
307.074	0.56
307.288	13.51
307.503	39.32
307.717	31.5
307.932	40.75
308.147	31.54
308.361	32.35
308.576	-1.41
308.79	5.62
309.005	-17.13
309.219	-1.52
309.434	4.31
309.648	28.87
309.863	27.71
310.077	27.85
310.292	32.71
310.506	15.64
310.72	-1.25
310.935	9.83
311.149	6.99
311.364	-4.62
311.578	13.96
311.792	28.79
312.007	38.8
312.221	28.11
312.435	19.01
312.649	9.86
312.864	-14.88
313.078	-20.33
313.292	-13.31
313.507	-12.84
313.721	-9.22
313.935	13.67
314.149	14.13
314.363	39.22
314.578	28.51
314.792	21.64
315.006	18.59
315.22	25.37
315.434	26.12
315.648	34.11
315.862	39.94
316.077	23.26
316.291	16.31
316.505	-24.14
316.719	-13.36
316.933	-15.89
317.147	1.8
317.361	-5.78
317.575	12.5
317.789	8.99
318.003	13.36
318.217	18.18
318.431	23.79
318.645	22.35
318.859	26
319.073	37.4
319.287	35.08
319.5	34.61
319.714	23.87
319.928	14.84
320.142	-5.34
320.356	-9.63
320.57	-16.52
320.784	3.78
320.997	7.52
321.211	18.26
321.425	11.11
321.639	16.92
321.853	17.06
322.066	15.07
322.28	7.09
322.494	17.45
322.707	18.37
322.921	5.8
323.135	14.76
323.349	15.15
323.562	9.98
323.776	0.73
323.989	23.85
324.203	7.42
324.417	5.09
324.63	7.79
324.844	-0.69
325.057	-31.47
325.271	-16.7
325.485	2.11
325.698	10.67
325.912	33.38
326.125	36.97
326.339	42.2
326.552	33.91
326.766	21.84
326.979	23.32
327.193	21.79
327.406	-5.73
327.619	1.92
327.833	-3.86
328.046	-18.51
328.26	-20.44
328.473	1.72
328.686	-0.64
328.9	12.73
329.113	15.48
329.326	20.74
329.54	19.03
329.753	28.14
329.966	28.67
330.179	29.82
330.393	35.1
330.606	23.16
330.819	-0.2
331.032	4.54
331.246	24.73
331.459	28.4
331.672	45.73
331.885	50.97
332.098	44.42
332.311	14.71
332.525	12.62
332.738	26.86
332.951	22.35
333.164	26.58
333.377	26.76
333.59	25.48
333.803	2.15
334.016	16.41
334.229	14.74
334.442	18.48
334.655	10.79
334.868	12.42
335.081	4.5
335.294	-6.79
335.507	-2.6
335.72	-2.33
335.933	-9.41
336.146	-7.54
336.359	14.99
336.572	25.2
336.785	34.31
336.997	43.4
337.21	40.53
337.423	24.52
337.636	5.92
337.849	-8.49
338.062	-4.44
338.274	8.93
338.487	-4.43
338.7	-13.83
338.913	5.29
339.125	6.05
339.338	-7.01
339.551	-3.33
339.763	4.36
339.976	1.29
340.189	3.33
340.402	11.95
340.614	21.97
340.827	28.75
341.039	27.24
341.252	29.57
341.465	20.35
341.677	33.44
341.89	21.29
342.102	27.91
342.315	25.83
342.527	38.39
342.74	11.62
342.952	22.61
343.165	10.52
343.377	16.16
343.59	12.48
343.802	27.34
344.015	30.36
344.227	38.28
344.44	26.8
344.652	17.95
344.864	23.32
345.077	31.04
345.289	24.37
345.502	43.23
345.714	50.02
345.926	34.46
346.139	11.55
346.351	20.08
346.563	4.23
346.775	-12.34
346.988	7.56
347.2	6.69
347.412	9.4
347.624	16.02
347.837	29.11
348.049	30.53
348.261	18.7
348.473	2.5
348.685	1.09
348.897	-7.31
349.11	-2.92
349.322	22.63
349.534	20.2
349.746	7.08
349.958	0.25
350.17	-23
350.382	-26.52
350.594	-1.92
350.806	12.41
351.018	21.01
351.23	34.01
351.442	41.39
351.654	41.13
351.866	41.38
352.078	44.26
352.29	34.89
352.502	17.83
352.714	0.51
352.926	2.88
353.138	10.51
353.35	8.74
353.561	10.68
353.773	14.06
353.985	21.17
354.197	17.06
354.409	25.15
354.621	19.49
354.832	24.38
355.044	7.3
355.256	-1.53
355.468	-22.08
355.679	-1.1
355.891	4.12
356.103	3.51
356.314	2.43
356.526	-4.71
356.738	-5.66
356.949	-5.2
357.161	31.27
357.373	28.41
357.584	31.44
357.796	32.74
358.008	32.73
358.219	13.73
358.431	18.74
358.642	37.85
358.854	43.84
359.065	37.35
359.277	31.14
359.488	27.63
359.7	14.53
359.911	-1.44
360.123	12.38
360.334	8.49
360.546	0.22
360.757	6.29
360.969	11.64
361.18	-1.37
361.391	13.71
361.603	24.79
361.814	21.78
362.025	20.08
362.237	23.86
362.448	31.25
362.659	22.21
362.871	15.85
363.082	3.03
363.293	-2.23
363.504	-41.92
363.716	-38.98
363.927	-7.32
364.138	-20.13
364.349	-27.49
364.56	-44.44
364.772	-26.79
364.983	-18.94
365.194	5.64
365.405	14.16
365.616	43.71
365.827	26.5
366.038	18.45
366.25	14.74
366.461	13.56
366.672	-1.36
366.883	5.52
367.094	-14.14
367.305	-26.95
367.516	-12.15
367.727	-9.89
367.938	-4.33
368.149	2.51
368.36	21.86
368.571	-14.13
368.781	-12.65
368.992	-19.37
369.203	-22.08
369.414	-34.22
369.625	-3.8
369.836	17.45
370.047	27.41
370.258	39.53
370.468	48.15
370.679	33.93
370.89	11.51
371.101	23.73
371.312	13.86
371.522	-0.81
371.733	8.31
371.944	6.75
372.155	7.7
372.365	13.6
372.576	11.74
372.787	9.64
372.997	19.12
373.208	3.39
373.419	2.7
373.629	8.34
373.84	5.01
374.05	-0.88
374.261	-5.38
374.472	9.23
374.682	25.1
374.893	23.92
375.103	27.11
375.314	20.6
375.524	14.67
375.735	4.93
375.945	13.1
376.156	17.43
376.366	29.31
376.577	28.61
376.787	37.81
376.997	39.47
377.208	35.4
377.418	26.78
377.629	28.94
377.839	27.22
378.049	24.28
378.26	9.48
378.47	9.96
378.68	5.3
378.89	-8.99
379.101	-14.24
379.311	1.78
379.521	-5.07
379.732	1.86
379.942	9.55
380.152	5.64
380.362	-4.51
380.572	19.77
380.783	17.86
380.993	19.78
381.203	27.63
381.413	39.05
381.623	30.77
381.833	32.07
382.043	28.62
382.253	22.18
382.463	23.81
382.674	16.17
382.884	17.26
383.094	22.88
383.304	28.29
383.514	24.12
383.724	24.28
383.934	16.29
384.144	14.14
384.353	12.86
384.563	7.41
384.773	14.19
384.983	12.1
385.193	9.61
385.403	4.77
385.613	14.51
385.823	11.77
386.033	17.39
386.242	12.1
386.452	12.57
386.662	8.02
386.872	9.02
387.082	6.33
387.291	8.39
387.501	8.93
387.711	9.5
387.921	8.03
388.13	9.44
388.34	13.73
388.55	9.77
388.759	2.45
388.969	1.19
389.179	3.45
389.388	1.4
389.598	3.78
389.807	7.04
390.017	5.21
390.227	1.43
390.436	2.12
390.646	5.45
390.855	8.05
391.065	10.36
391.274	9.32
391.484	6.62
391.693	3.22
391.903	-0.42
392.112	-0.68
392.322	-1.1
392.531	-0.43
392.74	0.53
392.95	2.2
393.159	1.21
393.369	3.48
393.578	4
393.787	5.21
393.997	6.4
394.206	6.74
394.415	7.46
394.625	8.18
394.834	5.78
395.043	4.62
395.252	7.32
395.462	6.37
395.671	6.61
395.88	8.55
396.089	8.99
396.298	7.17
396.508	7.95
396.717	7.41
396.926	7.01
397.135	7.54
397.344	7.19
397.553	5.97
397.762	7.14
397.971	6.9
398.181	6.37
398.39	6.34
398.599	6.72
398.808	6.17
399.017	6.95
399.226	7.11
399.435	7.42
399.644	7.99
399.853	7.97
400.062	7.52
400.27	6.96
400.479	7.16
400.688	6.8
400.897	6.33
401.106	6.41
401.315	6.63
401.524	6.46
401.733	6.29
401.941	6.72
402.15	6.89
402.359	6.95
402.568	6.98
402.777	7.13
402.985	6.72
403.194	6.49
403.403	6.61
403.612	6.39
403.82	6.1
404.029	6.28
404.238	6.14
404.446	6.18
404.655	6.3
404.864	6.53
405.072	6.5
405.281	6.61
405.489	6.56
405.698	6.57
405.906	6.46
406.115	6.53
406.324	6.47
406.532	6.45
406.741	6.29
406.949	6.43
407.158	6.35
407.366	6.26
407.574	6.19
407.783	6.21
407.991	6.12
408.2	6.18
408.408	6.24
408.617	6.18
408.825	6.04
409.033	5.99
409.242	5.98
409.45	5.87
409.658	5.77
409.867	5.95
410.075	5.99
410.283	5.87
410.491	5.82
410.7	5.89
410.908	5.82
411.116	5.79
411.324	5.82
411.533	5.83
411.741	5.81
411.949	5.8
412.157	5.69
412.365	5.68
412.573	5.74
412.781	5.75
412.99	5.8
413.198	5.87
413.406	6.01
413.614	6.09
413.822	6.25
414.03	6.33
414.238	6.37
414.446	6.39
414.654	6.16
414.862	5.99
415.07	5.72
415.278	5.83
415.486	5.54
415.694	5.78
415.902	5.69
416.109	5.87
416.317	5.66
416.525	5.64
416.733	5.46
416.941	5.58
417.149	5.36
417.357	5.33
417.564	5.35
417.772	5.4
417.98	5.29
418.188	5.33
418.395	5.2
418.603	5.22
418.811	5.14
419.019	5.14
419.226	5.36
419.434	5.47
419.642	5.34
419.849	5.37
420.057	5.36
420.265	5.27
420.472	5.31
420.68	5.42
420.887	5.4
421.095	5.47
421.302	5.38
421.51	5.26
421.717	5.33
421.925	5.46
422.132	5.43
422.34	5.23
422.547	5.22
422.755	5.14
422.962	4.99
423.17	4.8
423.377	5.09
423.585	5.29
423.792	5.22
423.999	5.42
424.207	5.33
424.414	5.35
424.621	5.3
424.829	5.5
425.036	5.52
425.243	5.81
425.451	5.55
425.658	5.33
425.865	5.34
426.072	5.17
426.28	5.16
426.487	5.33
426.694	5.38
426.901	5.3
427.108	5.3
427.315	5.26
427.523	5.06
427.73	5.1
427.937	4.97
428.144	4.93
428.351	4.83
428.558	5.05
428.765	5
428.972	5.12
429.179	5.06
429.386	5.05
429.593	4.78
429.8	4.78
430.007	4.9
430.214	5
430.421	5.19
430.628	5.32
430.835	5.31
431.042	5.07
431.249	5.01
431.456	4.81
431.662	4.85
431.869	5.11
432.076	5.12
432.283	5.19
432.49	5.25
432.697	5.25
432.903	4.99
433.11	5.17
433.317	5.16
433.524	5.21
433.73	5.1
433.937	5.22
434.144	5.02
434.35	4.94
434.557	4.91
434.764	5
434.97	4.9
435.177	5.1
435.384	5.18
435.59	5.12
435.797	5.15
436.003	5.21
436.21	5.04
436.416	5.08
436.623	5.16
436.829	5.22
437.036	5.24
437.242	5.35
437.449	5.32
437.655	5.4
437.862	5.37
438.068	5.31
438.275	5.32
438.481	5.34
438.687	5.26
438.894	5.37
439.1	5.38
439.307	5.51
439.513	5.45
439.719	5.46
439.926	5.4
440.132	5.55
440.338	5.43
440.544	5.42
440.751	5.41
440.957	5.39
441.163	5.28
441.369	5.31
441.575	5.31
441.782	5.37
441.988	5.33
442.194	5.23
442.4	5.21
442.606	5.41
442.812	5.47
443.018	5.47
443.224	5.68
443.431	5.66
443.637	5.52
443.843	5.48
444.049	5.61
444.255	5.63
444.461	5.56
444.667	5.55
444.873	5.46
445.079	5.45
445.284	5.37
445.49	5.45
445.696	5.39
445.902	5.43
446.108	5.42
446.314	5.49
446.52	5.54
446.726	5.69
446.931	5.7
447.137	5.64
447.343	5.72
447.549	5.68
447.755	5.63
447.96	5.73
448.166	5.78
448.372	5.64
448.578	5.57
448.783	5.54
448.989	5.49
449.195	5.41
449.4	5.48
449.606	5.56
449.812	5.52
450.017	5.62
450.223	5.65
450.428	5.59
450.634	5.55
450.84	5.49
451.045	5.36
451.251	5.46
451.456	5.58
451.662	5.59
451.867	5.78
452.073	5.89
452.278	5.81
452.483	5.75
452.689	5.63
452.894	5.66
453.1	5.6
453.305	5.64
453.51	5.7
453.716	5.74
453.921	5.67
454.127	5.66
454.332	5.6
454.537	5.48
454.742	5.55
454.948	5.51
455.153	5.49
455.358	5.46
455.563	5.52
455.769	5.57
455.974	5.58
456.179	5.51
456.384	5.49
456.589	5.47
456.795	5.39
457	5.34
457.205	5.27
457.41	5.25
457.615	5.21
457.82	5.34
458.025	5.43
458.23	5.54
458.435	5.64
458.64	5.67
458.845	5.57
459.05	5.55
459.255	5.54
459.46	5.49
459.665	5.54
459.87	5.53
460.075	5.58
460.28	5.67
460.485	5.81
460.69	5.8
460.895	5.87
461.099	5.77
461.304	5.68
461.509	5.64
461.714	5.66
461.919	5.62
462.123	5.7
462.328	5.65
462.533	5.55
462.738	5.54
462.942	5.45
463.147	5.36
463.352	5.49
463.556	5.55
463.761	5.52
463.966	5.57
464.17	5.75
464.375	5.71
464.58	5.66
464.784	5.71
464.989	5.8
465.193	5.71
465.398	5.67
465.602	5.82
465.807	5.82
466.011	5.78
466.216	5.71
466.42	5.79
466.625	5.83
466.829	5.84
467.034	5.88
467.238	6.05
467.443	6.13
467.647	6
467.851	6.07
468.056	6.11
468.26	6.03
468.464	5.98
468.669	6.17
468.873	6.09
469.077	6.12
469.282	6.11
469.486	6.07
469.69	6.04
469.894	6.13
470.099	6.11
470.303	6.13
470.507	6.2
470.711	6.11
470.915	6.1
471.119	6.14
471.324	6.26
471.528	6.28
471.732	6.42
471.936	6.49
472.14	6.5
472.344	6.54
472.548	6.58
472.752	6.45
472.956	6.47
473.16	6.46
473.364	6.42
473.568	6.33
473.772	6.37
473.976	6.39
474.18	6.45
474.384	6.44
474.588	6.57
474.792	6.6
474.995	6.58
475.199	6.6
475.403	6.69
475.607	6.59
475.811	6.66
476.015	6.62
476.218	6.51
476.422	6.44
476.626	6.48
476.83	6.55
477.033	6.65
477.237	6.73
477.441	6.78
477.644	6.81
477.848	6.79
478.052	6.75
478.255	6.77
478.459	6.76
478.663	6.86
478.866	6.88
479.07	6.86
479.273	6.92
479.477	6.93
479.681	6.9
479.884	6.93
480.088	6.97
480.291	6.88
480.495	6.91
480.698	6.84
480.901	6.8
481.105	6.74
481.308	6.75
481.512	6.83
481.715	6.95
481.919	6.96
482.122	7.05
482.325	7.13
482.529	7.08
482.732	6.98
482.935	6.98
483.138	6.97
483.342	6.97
483.545	7.08
483.748	7.17
483.952	7.21
484.155	7.29
484.358	7.29
484.561	7.16
484.764	7.08
484.967	7.06
485.171	7.08
485.374	7.04
485.577	7.12
485.78	7.17
485.983	7.15
486.186	7.07
486.389	7.18
486.592	7.13
486.795	7.23
486.998	7.25
487.201	7.29
487.404	7.4
487.607	7.45
487.81	7.35
488.013	7.34
488.216	7.34
488.419	7.2
488.622	7.17
488.825	7.2
489.028	7.21
489.231	7.19
489.433	7.23
489.636	7.25
489.839	7.26
490.042	7.22
490.245	7.21
490.447	7.17
490.65	7.21
490.853	7.22
491.056	7.31
491.258	7.36
491.461	7.38
491.664	7.36
491.866	7.31
492.069	7.32
492.272	7.26
492.474	7.29
492.677	7.34
492.879	7.35
493.082	7.35
493.285	7.41
493.487	7.45
493.69	7.45
493.892	7.5
494.095	7.52
494.297	7.55
494.5	7.51
494.702	7.45
494.905	7.45
495.107	7.41
495.309	7.42
495.512	7.44
495.714	7.52
495.917	7.5
496.119	7.58
496.321	7.58
496.524	7.51
496.726	7.46
496.928	7.52
497.13	7.48
497.333	7.46
497.535	7.58
497.737	7.62
497.939	7.67
498.142	7.73
498.344	7.76
498.546	7.74
498.748	7.85
498.95	7.86
499.152	7.86
499.355	7.88
499.557	7.87
499.759	7.86
499.961	7.84
500.163	7.9
500.365	7.92
500.567	7.95
500.769	7.95
500.971	8.02
501.173	7.89
501.375	7.97
501.577	7.98
501.779	8
501.981	8
502.183	8.1
502.385	8.11
502.587	8.17
502.788	8.27
502.99	8.35
503.192	8.42
503.394	8.42
503.596	8.39
503.798	8.3
503.999	8.29
504.201	8.26
504.403	8.28
504.605	8.31
504.806	8.4
505.008	8.47
505.21	8.57
505.411	8.65
505.613	8.68
505.815	8.77
506.016	8.77
506.218	8.78
506.42	8.74
506.621	8.88
506.823	8.86
507.024	8.87
507.226	8.88
507.427	8.97
507.629	8.97
507.83	8.99
508.032	8.97
508.233	9.02
508.435	8.99
508.636	8.96
508.838	8.99
509.039	9.02
509.24	9.06
509.442	9.09
509.643	9.12
509.845	9.12
510.046	9.17
510.247	9.17
510.448	9.22
510.65	9.28
510.851	9.28
511.052	9.27
511.254	9.35
511.455	9.38
511.656	9.39
511.857	9.43
512.058	9.47
512.26	9.42
512.461	9.43
512.662	9.42
512.863	9.43
513.064	9.5
513.265	9.51
513.466	9.6
513.667	9.66
513.868	9.65
514.069	9.61
514.27	9.71
514.471	9.67
514.672	9.7
514.873	9.84
515.074	9.95
515.275	9.96
515.476	10.01
515.677	10.02
515.878	10
516.079	9.96
516.28	9.98
516.481	9.96
516.682	10
516.882	10.01
517.083	9.98
517.284	9.99
517.485	10
517.686	10.02
517.886	10.04
518.087	10.07
518.288	10.11
518.488	10.17
518.689	10.13
518.89	10.14
519.091	10.26
519.291	10.24
519.492	10.32
519.692	10.36
519.893	10.4
520.094	10.35
520.294	10.39
520.495	10.36
520.695	10.37
520.896	10.34
521.096	10.38
521.297	10.39
521.497	10.38
521.698	10.36
521.898	10.48
522.099	10.52
522.299	10.54
522.499	10.52
522.7	10.6
522.9	10.54
523.101	10.5
523.301	10.49
523.501	10.54
523.702	10.55
523.902	10.62
524.102	10.71
524.302	10.79
524.503	10.85
524.703	10.86
524.903	10.85
525.103	10.84
525.304	10.85
525.504	10.89
525.704	10.92
525.904	10.93
526.104	10.91
526.304	10.91
526.504	10.87
526.705	10.89
526.905	10.91
527.105	10.91
527.305	10.94
527.505	10.94
527.705	10.94
527.905	11.02
528.105	11.06
528.305	11.09
528.505	11.2
528.705	11.25
528.905	11.21
529.105	11.19
529.304	11.21
529.504	11.2
529.704	11.21
529.904	11.28
530.104	11.36
530.304	11.37
530.503	11.4
530.703	11.43
530.903	11.39
531.103	11.46
531.303	11.47
531.502	11.52
531.702	11.57
531.902	11.65
532.101	11.6
532.301	11.63
532.501	11.69
532.7	11.73
532.9	11.79
533.1	11.85
533.299	11.85
533.499	11.76
533.698	11.75
533.898	11.72
534.097	11.73
534.297	11.77
534.496	11.85
534.696	11.93
534.895	11.98
535.095	11.99
535.294	12.07
535.494	12.05
535.693	12.08
535.892	12.07
536.092	12.15
536.291	12.15
536.491	12.19
536.69	12.17
536.889	12.19
537.088	12.22
537.288	12.17
537.487	12.25
537.686	12.28
537.886	12.39
538.085	12.35
538.284	12.48
538.483	12.45
538.682	12.51
538.882	12.44
539.081	12.53
539.28	12.47
539.479	12.52
539.678	12.5
539.877	12.59
540.076	12.6
540.275	12.73
540.474	12.68
540.673	12.78
540.872	12.84
541.071	12.85
541.27	12.87
541.469	12.99
541.668	13.05
541.867	13.12
542.066	13.23
542.265	13.3
542.464	13.37
542.663	13.4
542.862	13.44
543.06	13.51
543.259	13.59
543.458	13.6
543.657	13.65
543.856	13.66
544.054	13.66
544.253	13.66
544.452	13.76
544.651	13.76
544.849	13.8
545.048	13.9
545.247	13.98
545.445	14.01
545.644	14.08
545.843	14.13
546.041	14.12
546.24	14.1
546.438	14.09
546.637	14.19
546.836	14.26
547.034	14.36
547.233	14.48
547.431	14.55
547.63	14.56
547.828	14.61
548.027	14.66
548.225	14.67
548.423	14.71
548.622	14.71
548.82	14.81
549.019	14.86
549.217	14.95
549.415	15.09
549.614	15.26
549.812	15.25
550.01	15.31
550.209	15.45
550.407	15.54
550.605	15.49
550.803	15.59
551.002	15.7
551.2	15.65
551.398	15.78
551.596	15.97
551.794	16.06
551.993	16.09
552.191	16.21
552.389	16.21
552.587	16.22
552.785	16.31
552.983	16.44
553.181	16.49
553.379	16.58
553.577	16.66
553.775	16.74
553.973	16.81
554.171	16.91
554.369	16.98
554.567	17.09
554.765	17.12
554.963	17.14
555.161	17.23
555.359	17.32
555.557	17.36
555.755	17.52
555.952	17.71
556.15	17.78
556.348	17.86
556.546	18.02
556.744	18.06
556.941	18.07
557.139	18.15
557.337	18.24
557.535	18.25
557.732	18.26
557.93	18.38
558.128	18.54
558.325	18.62
558.523	18.8
558.721	18.99
558.918	19.12
559.116	19.24
559.313	19.38
559.511	19.39
559.708	19.49
559.906	19.6
560.104	19.61
560.301	19.65
560.498	19.83
560.696	19.88
560.893	19.97
561.091	20.12
561.288	20.27
561.486	20.27
561.683	20.35
561.88	20.44
562.078	20.5
562.275	20.55
562.473	20.72
562.67	20.89
562.867	20.97
563.064	21.04
563.262	21.09
563.459	21.22
563.656	21.35
563.853	21.41
564.051	21.58
564.248	21.69
564.445	21.75
564.642	21.81
564.839	21.95
565.036	22.09
565.234	22.18
565.431	22.3
565.628	22.37
565.825	22.45
566.022	22.54
566.219	22.63
566.416	22.72
566.613	22.77
566.81	22.89
567.007	22.85
567.204	22.95
567.401	23.03
567.598	23.14
567.795	23.23
567.991	23.29
568.188	23.35
568.385	23.34
568.582	23.47
568.779	23.5
568.976	23.61
569.172	23.77
569.369	23.9
569.566	23.9
569.763	23.88
569.96	23.96
570.156	23.97
570.353	23.94
570.55	23.98
570.746	24.13
570.943	24.27
571.14	24.29
571.336	24.36
571.533	24.42
571.729	24.4
571.926	24.34
572.123	24.39
572.319	24.49
572.516	24.53
572.712	24.6
572.909	24.6
573.105	24.66
573.302	24.63
573.498	24.6
573.695	24.63
573.891	24.65
574.087	24.53
574.284	24.66
574.48	24.67
574.677	24.65
574.873	24.76
575.069	24.97
575.266	24.93
575.462	24.93
575.658	25.1
575.854	25.07
576.051	25
576.247	24.87
576.443	24.88
576.639	24.71
576.835	24.7
577.032	24.68
577.228	24.76
577.424	24.79
577.62	24.77
577.816	24.67
578.012	24.74
578.208	24.77
578.404	24.77
578.6	24.85
578.796	24.92
578.993	24.8
579.189	24.8
579.384	24.82
579.58	24.77
579.776	24.72
579.972	24.78
580.168	24.71
580.364	24.73
580.56	24.71
580.756	24.76
580.952	24.67
581.148	24.59
581.343	24.45
581.539	24.53
581.735	24.42
581.931	24.5
582.127	24.61
582.322	24.58
582.518	24.42
582.714	24.35
582.909	24.31
583.105	24.28
583.301	24.37
583.496	24.37
583.692	24.35
583.888	24.36
584.083	24.28
584.279	24.18
584.474	24.11
584.67	24.11
584.866	24.04
585.061	24.06
585.257	24.04
585.452	24.13
585.648	24.11
585.843	24.07
586.039	24.01
586.234	24.06
586.429	23.95
586.625	24.06
586.82	24.08
587.015	24.11
587.211	24.07
587.406	24.14
587.601	24.12
587.797	24.09
587.992	24.04
588.187	23.95
588.383	23.95
588.578	23.95
588.773	23.98
588.968	24.01
589.163	24.1
589.359	24.09
589.554	23.96
589.749	23.97
589.944	24.02
590.139	23.97
590.334	24.02
590.529	24.14
590.724	24.18
590.919	24.13
591.114	24.1
591.309	24.03
591.504	24
591.699	23.96
591.894	23.95
592.089	24.01
592.284	24.06
592.479	24.05
592.674	24.19
592.869	24.21
593.064	24.27
593.259	24.36
593.454	24.48
593.648	24.47
593.843	24.53
594.038	24.57
594.233	24.51
594.428	24.59
594.622	24.58
594.817	24.74
595.012	24.77
595.206	24.93
595.401	24.99
595.596	25.08
595.79	25.07
595.985	25.16
596.18	25.06
596.374	25.13
596.569	25.14
596.763	25.17
596.958	25.2
597.153	25.32
597.347	25.27
597.542	25.32
597.736	25.45
597.931	25.45
598.125	25.62
598.319	25.73
598.514	25.75
598.708	25.73
598.903	25.93
599.097	25.92
599.291	25.95
599.486	26.11
599.68	26.12
599.874	26.11
600.069	26.14
600.263	26.22
600.457	26.18
600.651	26.23
600.846	26.32
601.04	26.44
601.234	26.38
601.428	26.46
601.622	26.52
601.817	26.47
602.011	26.42
602.205	26.48
602.399	26.4
602.593	26.51
602.787	26.5
602.981	26.53
603.175	26.58
603.369	26.62
603.563	26.58
603.757	26.61
603.951	26.58
604.145	26.57
604.339	26.66
604.533	26.68
604.727	26.58
604.921	26.61
605.115	26.47
605.309	26.38
605.502	26.26
605.696	26.29
605.89	26.25
606.084	26.3
606.278	26.31
606.471	26.25
606.665	26.2
606.859	26.12
607.053	26
607.246	25.92
607.44	25.88
607.634	25.82
607.827	25.67
608.021	25.64
608.214	25.52
608.408	25.41
608.602	25.25
608.795	25.29
608.989	25.33
609.182	25.34
609.376	25.35
609.569	25.35
609.763	25.26
609.956	25.15
610.15	25.07
610.343	24.98
610.537	24.93
610.73	24.73
610.923	24.63
611.117	24.52
611.31	24.37
611.504	24.33
611.697	24.32
611.89	24.23
612.083	24.09
612.277	24.12
612.47	24.02
612.663	23.95
612.856	23.86
613.05	23.84
613.243	23.68
613.436	23.59
613.629	23.58
613.822	23.55
614.015	23.46
614.209	23.42
614.402	23.35
614.595	23.27
614.788	23.22
614.981	23.15
615.174	23.01
615.367	22.91
615.56	22.77
615.753	22.67
615.946	22.61
616.139	22.61
616.332	22.61
616.525	22.66
616.718	22.58
616.911	22.56
617.103	22.56
617.296	22.45
617.489	22.29
617.682	22.29
617.875	22.26
618.067	22.13
618.26	22.01
618.453	22.01
618.646	21.94
618.838	21.81
619.031	21.79
619.224	21.83
619.417	21.83
619.609	21.75
619.802	21.72
619.994	21.66
620.187	21.6
620.38	21.56
620.572	21.59
620.765	21.55
620.957	21.55
621.15	21.55
621.342	21.51
621.535	21.43
621.727	21.4
621.92	21.37
622.112	21.33
622.305	21.27
622.497	21.24
622.69	21.29
622.882	21.3
623.074	21.33
623.267	21.35
623.459	21.27
623.651	21.2
623.844	21.13
624.036	21.06
624.228	21.08
624.42	21.09
624.613	21.04
624.805	21.08
624.997	21.02
625.189	20.92
625.381	20.89
625.574	20.88
625.766	20.73
625.958	20.75
626.15	20.72
626.342	20.7
626.534	20.75
626.726	20.74
626.918	20.67
627.11	20.6
627.302	20.57
627.494	20.45
627.686	20.44
627.878	20.42
628.07	20.46
628.262	20.5
628.454	20.47
628.646	20.43
628.838	20.43
629.029	20.31
629.221	20.23
629.413	20.19
629.605	20.15
629.797	20.15
629.989	20.15
630.18	20.16
630.372	20.09
630.564	20.1
630.755	20
630.947	19.92
631.139	19.83
631.33	19.87
631.522	19.79
631.714	19.75
631.905	19.81
632.097	19.75
632.289	19.73
632.48	19.75
632.672	19.74
632.863	19.59
633.055	19.64
633.246	19.56
633.438	19.54
633.629	19.53
633.821	19.63
634.012	19.55
634.203	19.6
634.395	19.48
634.586	19.45
634.777	19.39
634.969	19.35
635.16	19.29
635.351	19.33
635.543	19.29
635.734	19.21
635.925	19.25
636.117	19.26
636.308	19.31
636.499	19.29
636.69	19.3
636.881	19.21
637.073	19.17
637.264	19.09
637.455	19.06
637.646	19.11
637.837	19.11
638.028	18.97
638.219	19
638.41	19.1
638.601	19.04
638.792	19.04
638.983	19.14
639.174	19.06
639.365	18.94
639.556	18.8
639.747	18.79
639.938	18.8
640.129	18.8
640.32	18.78
640.511	18.9
640.701	18.84
640.892	18.73
641.083	18.68
641.274	18.57
641.465	18.47
641.655	18.4
641.846	18.35
642.037	18.3
642.228	18.27
642.418	18.31
642.609	18.32
642.8	18.28
642.99	18.23
643.181	18.31
643.372	18.25
643.562	18.15
643.753	18.12
643.943	18.04
644.134	17.9
644.324	17.9
644.515	17.93
644.705	17.89
644.896	18
645.086	18.08
645.277	17.99
645.467	17.97
645.658	17.95
645.848	17.88
646.038	17.76
646.229	17.77
646.419	17.66
646.61	17.62
646.8	17.57
646.99	17.59
647.18	17.45
647.371	17.49
647.561	17.48
647.751	17.43
647.941	17.33
648.132	17.27
648.322	17.23
648.512	17.27
648.702	17.28
648.892	17.36
649.082	17.44
649.272	17.35
649.462	17.3
649.653	17.2
649.843	17.1
650.033	17.1
650.223	17.13
650.413	17.01
650.603	17.07
650.793	17.03
650.983	17.01
651.172	17
651.362	17
651.552	16.93
651.742	16.84
651.932	16.79
652.122	16.77
652.312	16.62
652.502	16.43
652.691	16.44
652.881	16.33
653.071	16.22
653.261	16.31
653.45	16.34
653.64	16.28
653.83	16.21
654.019	16.07
654.209	15.94
654.399	15.91
654.588	15.8
654.778	15.64
654.968	15.56
655.157	15.4
655.347	15.18
655.536	15.05
655.726	14.93
655.915	14.84
656.105	14.72
656.294	14.58
656.484	14.46
656.673	14.39
656.863	14.26
657.052	14.18
657.241	14.13
657.431	14.03
657.62	13.89
657.809	13.75
657.999	13.61
658.188	13.45
658.377	13.31
658.567	13.22
658.756	13.1
658.945	13.04
659.134	12.91
659.324	12.75
659.513	12.6
659.702	12.43
659.891	12.32
660.08	12.22
660.269	12.06
660.458	11.89
660.648	11.76
660.837	11.53
661.026	11.3
661.215	11.16
661.404	10.99
661.593	10.85
661.782	10.69
661.971	10.53
662.16	10.49
662.349	10.33
662.538	10.21
662.726	10.15
662.915	10.14
663.104	9.95
663.293	9.94
663.482	9.78
663.671	9.61
663.86	9.56
664.048	9.58
664.237	9.5
664.426	9.52
664.615	9.53
664.803	9.38
664.992	9.21
665.181	9.18
665.369	9.04
665.558	8.99
665.747	8.98
665.935	8.94
666.124	8.76
666.312	8.74
666.501	8.62
666.69	8.53
666.878	8.54
667.067	8.59
667.255	8.52
667.444	8.52
667.632	8.49
667.82	8.39
668.009	8.3
668.197	8.27
668.386	8.14
668.574	8.07
668.762	7.94
668.951	7.99
669.139	7.93
669.327	8.04
669.516	8.11
669.704	8.18
669.892	8.1
670.08	8.1
670.269	8.03
670.457	7.96
670.645	7.89
670.833	7.95
671.021	7.99
671.21	7.92
671.398	7.92
671.586	7.9
671.774	7.94
671.962	7.97
672.15	8.15
672.338	8.22
672.526	8.39
672.714	8.3
672.902	8.28
673.09	8.25
673.278	8.33
673.466	8.39
673.654	8.53
673.842	8.61
674.03	8.67
674.218	8.55
674.405	8.49
674.593	8.53
674.781	8.58
674.969	8.64
675.157	8.81
675.344	8.92
675.532	8.9
675.72	8.93
675.908	8.91
676.095	8.89
676.283	9.11
676.471	9.22
676.658	9.26
676.846	9.38
677.033	9.46
677.221	9.36
677.409	9.41
677.596	9.61
677.784	9.8
677.971	9.76
678.159	9.84
678.346	9.9
678.534	9.9
678.721	9.96
678.909	10.22
679.096	10.28
679.283	10.29
679.471	10.36
679.658	10.38
679.846	10.29
680.033	10.59
680.22	10.82
680.408	10.78
680.595	10.91
680.782	11.12
680.969	11.18
681.157	11.24
681.344	11.47
681.531	11.63
681.718	11.79
681.905	11.87
682.093	12
682.28	12.14
682.467	12.21
682.654	12.33
682.841	12.59
683.028	12.6
683.215	12.83
683.402	12.83
683.589	12.97
683.776	12.92
683.963	13.34
684.15	13.59
684.337	14.07
684.524	14.45
684.711	14.71
684.898	14.77
685.085	14.81
685.271	15.09
685.458	15.2
685.645	15.4
685.832	15.78
686.019	16.08
686.205	16.24
686.392	16.5
686.579	16.9
686.766	17.29
686.952	17.69
687.139	18.03
687.326	18.56
687.512	18.9
687.699	19.18
687.886	19.51
688.072	19.75
688.259	19.99
688.445	20.54
688.632	20.83
688.818	21.28
689.005	21.83
689.191	22.35
689.378	22.56
689.564	23.31
689.751	23.77
689.937	24.34
690.124	24.8
690.31	25.31
690.496	25.69
690.683	26.18
690.869	26.62
691.055	27.22
691.242	27.8
691.428	28.45
691.614	29.26
691.8	29.83
691.987	30.68
692.173	31.45
692.359	32.06
692.545	32.65
692.731	33.52
692.918	33.93
693.104	34.49
693.29	35.12
693.476	35.69
693.662	36.21
693.848	36.84
694.034	37.67
694.22	38.27
694.406	38.82
694.592	39.6
694.778	40.1
694.964	40.67
695.15	41.43
695.336	41.95
695.522	42.57
695.708	43.39
695.894	44.02
696.08	44.8
696.265	45.78
696.451	46.27
696.637	47.16
696.823	47.92
697.009	48.5
697.194	48.95
697.38	49.82
697.566	50.34
697.751	50.95
697.937	51.78
698.123	52.72
698.308	53.1
698.494	53.79
698.68	54.5
698.865	54.84
699.051	55.34
699.236	56.03
699.422	56.45
699.607	56.89
699.793	57.82
699.978	58.29
700.164	58.55
700.349	59.1
700.535	59.44
700.72	59.61
700.906	60.17
701.091	61.21
701.276	61.72
701.462	62.36
701.647	62.9
701.832	63.2
702.018	63.68
702.203	64.32
702.388	64.76
702.573	65.2
702.759	65.91
702.944	65.84
703.129	66.31
703.314	66.81
703.499	66.94
703.684	67.29
703.87	68.06
704.055	68.28
704.24	68.36
704.425	68.89
704.61	69.18
704.795	69.58
704.98	69.72
705.165	70.34
705.35	70.78
705.535	71.22
705.72	71.14
705.905	71.72
706.09	71.93
706.275	72.27
706.459	72.79
706.644	73.42
706.829	73.84
707.014	74.08
707.199	74.34
707.384	74.59
707.568	74.78
707.753	75.14
707.938	75.59
708.123	75.88
708.307	76.05
708.492	76.45
708.677	76.37
708.861	76.51
709.046	76.66
709.231	76.53
709.415	76.6
709.6	76.81
709.784	77.32
709.969	77.48
710.153	77.93
710.338	78.71
710.522	79.13
710.707	79.19
710.891	79.67
711.076	79.85
711.26	79.91
711.445	80.06
711.629	80.12
711.813	80.37
711.998	80.81
712.182	80.21
712.366	80.82
712.551	81.13
712.735	81.17
712.919	81.26
713.103	82.19
713.288	81.82
713.472	82.21
713.656	82.18
713.84	82.1
714.024	82.06
714.208	82.03
714.393	82.15
714.577	82.55
714.761	83.16
714.945	83.23
715.129	83.75
715.313	83.83
715.497	83.79
715.681	83.44
715.865	83.37
716.049	83.56
716.233	83.31
716.417	83.16
716.601	83.15
716.785	83.49
716.968	83.32
717.152	83.75
717.336	84.14
717.52	84.54
717.704	84.62
717.888	84.93
718.071	85.05
718.255	85.02
718.439	84.85
718.622	84.89
718.806	84.45
718.99	84.01
719.174	84.11
719.357	84.59
719.541	84.58
719.724	85.43
719.908	85.76
720.092	85.57
720.275	85.46
720.459	85.88
720.642	85.95
720.826	85.61
721.009	86.09
721.193	85.99
721.376	86.02
721.559	85.95
721.743	86.87
721.926	87.05
722.11	87.67
722.293	87.99
722.476	87.41
722.66	87.81
722.843	88
723.026	88.14
723.21	87.88
723.393	88.85
723.576	88.48
723.759	88.54
723.942	88.1
724.126	88.29
724.309	87.84
724.492	87.78
724.675	87.56
724.858	88.12
725.041	88.27
725.224	88.8
725.407	89.07
725.59	88.76
725.774	88.28
725.957	88.02
726.14	87.61
726.322	87.8
726.505	88.13
726.688	88.47
726.871	88.49
727.054	89.05
727.237	88.64
727.42	88.37
727.603	88.31
727.786	88.4
727.968	87.77
728.151	87.98
728.334	89.05
728.517	89.1
728.699	89.12
728.882	89.43
729.065	89.4
729.248	89.33
729.43	89.83
729.613	90.5
729.796	91.27
729.978	91.24
730.161	91.22
730.343	90.89
730.526	90.53
730.708	90.18
730.891	90.65
731.073	90.09
731.256	90.56
731.438	91.57
731.621	91.95
731.803	91.92
731.986	92.55
732.168	92.88
732.35	92.19
732.533	91.91
732.715	92.2
732.898	91.82
733.08	91.59
733.262	91.91
733.444	92.43
733.627	93.06
733.809	94.11
733.991	94.08
734.173	94.26
734.355	93.68
734.538	93.5
734.72	93.17
734.902	93.45
735.084	93.12
735.266	93.02
735.448	93.13
735.63	93
735.812	93.02
735.994	93.43
736.176	94.01
736.358	94.09
736.54	94.24
736.722	93.98
736.904	93.2
737.086	92.57
737.268	93.31
737.45	93.66
737.632	94.36
737.814	95.49
737.995	96.42
738.177	95.13
738.359	95.01
738.541	94.59
738.723	94.04
738.904	94.44
739.086	94.56
739.268	94.28
739.449	94.34
739.631	94.72
739.813	93.97
739.994	94.03
740.176	94.36
740.358	94.77
740.539	94.24
740.721	95.24
740.902	94.68
741.084	95.31
741.265	95.76
741.447	97.02
741.628	96.45
741.81	98.04
741.991	97.98
742.172	96.92
742.354	96.37
742.535	96.6
742.717	95.15
742.898	94.94
743.079	96.24
743.261	95.92
743.442	94.52
743.623	94.83
743.804	94.22
743.986	93.46
744.167	93.45
744.348	94.16
744.529	94.55
744.71	95.01
744.891	94.4
745.073	94.46
745.254	94.55
745.435	93.73
745.616	93.96
745.797	93.72
745.978	94.95
746.159	94.82
746.34	96.39
746.521	96.73
746.702	98.02
746.883	96.66
747.064	97.16
747.245	96.37
747.426	95.09
747.606	94.59
747.787	95.01
747.968	94.14
748.149	94.15
748.33	94.7
748.51	94.47
748.691	94.62
748.872	96.75
749.053	96.11
749.233	95.85
749.414	96.83
749.595	96.96
749.775	96.13
749.956	96.83
750.137	96.91
750.317	94.59
750.498	93.63
750.678	92.84
750.859	93.41
751.04	93.61
751.22	93.99
751.4	94.12
751.581	93.87
751.761	93.13
751.942	93.24
752.122	93.78
752.303	93.64
752.483	93.73
752.663	93.28
752.844	92.9
753.024	93.78
753.204	94.59
753.385	94.18
753.565	94.61
753.745	93.78
753.925	91.52
754.106	90.83
754.286	91.4
754.466	91.24
754.646	91.59
754.826	93.66
755.006	92.3
755.187	92.7
755.367	91.26
755.547	91.68
755.727	92.15
755.907	92.53
756.087	92.29
756.267	92.59
756.447	92.84
756.627	91.65
756.807	93.66
756.987	93.05
757.167	94.06
757.346	94.09
757.526	95.21
757.706	94.72
757.886	93.82
758.066	93.11
758.246	92.38
758.425	90.15
758.605	90.01
758.785	90.83
758.965	92.26
759.144	90.87
759.324	93.02
759.504	92.12
759.683	91.06
759.863	90.26
760.043	91.96
760.222	91.49
760.402	89.93
760.581	90.73
760.761	90.5
760.94	90.43
761.12	89.27
761.299	91.32
761.479	92.21
761.658	92.57
761.838	92.47
762.017	93.41
762.197	92.05
762.376	91.41
762.555	91.69
762.735	91.67
762.914	91.88
763.093	92.74
763.273	92.08
763.452	91.43
763.631	90.75
763.81	90.89
763.99	90.34
764.169	90.51
764.348	90.1
764.527	89.94
764.706	88.84
764.885	91.32
765.064	92.43
765.243	91.84
765.423	91.96
765.602	92.55
765.781	90.65
765.96	90.59
766.139	90.81
766.318	92.41
766.497	91.33
766.676	89.84
766.854	90.07
767.033	92.07
767.212	91.15
767.391	92.27
767.57	94.93
767.749	93.99
767.928	93.24
768.106	92.57
768.285	91.71
768.464	89.08
768.643	87.04
768.821	85.76
769	86.39
769.179	85.57
769.357	86.88
769.536	88.67
769.715	87.5
769.893	86.78
770.072	86.78
770.25	85.56
770.429	84.34
770.607	85.92
770.786	86.91
770.964	88.84
771.143	89.28
771.321	88.15
771.5	87.23
771.678	87.65
771.857	84.46
772.035	83.55
772.213	85.98
772.392	83.33
772.57	82.12
772.748	83.38
772.927	85.21
773.105	85.35
773.283	87.43
773.461	88.86
773.64	89.31
773.818	89.2
773.996	88.89
774.174	90.33
774.352	88.42
774.531	88.01
774.709	86.35
774.887	86.16
775.065	86.21
775.243	87.76
775.421	86.4
775.599	88.57
775.777	87.45
775.955	86.02
776.133	83.62
776.311	84.82
776.489	84.8
776.667	85.23
776.844	87.39
777.022	88.06
777.2	88.88
777.378	86.59
777.556	88.84
777.734	88.39
777.911	90.2
778.089	90.63
778.267	91.69
778.445	92.25
778.622	90.04
778.8	86.8
778.978	86.83
779.155	87.65
779.333	86.43
779.511	87.26
779.688	90.08
779.866	89.84
780.043	89.3
780.221	88.99
780.398	87.62
780.576	87.16
780.753	87.88
780.931	87.76
781.108	88.42
781.286	91.3
781.463	91.11
781.64	87.41
781.818	87.76
781.995	84.03
782.172	80.84
782.35	80.9
782.527	82.33
782.704	80.76
782.882	81.53
783.059	82.75
783.236	82.43
783.413	82.9
783.59	83.39
783.768	82.94
783.945	82.75
784.122	81.34
784.299	80.84
784.476	80.84
784.653	81.95
784.83	79.41
785.007	77.5
785.184	78.46
785.361	77.18
785.538	75.07
785.715	78.92
785.892	80.25
786.069	82.25
786.246	83.12
786.423	84.77
786.6	85.6
786.776	88.52
786.953	85.89
787.13	85.88
787.307	84.57
787.484	79.69
787.66	78.6
787.837	77.01
788.014	78.67
788.191	79.05
788.367	80.78
788.544	80.72
788.721	81.08
788.897	78.5
789.074	82.24
789.25	82.68
789.427	82.45
789.603	78.38
789.78	78.66
789.956	73.58
790.133	73.73
790.309	74.17
790.486	77.78
790.662	77.69
790.839	79.68
791.015	82.9
791.192	81.24
791.368	79.88
791.544	82.35
791.721	80.23
791.897	74.15
792.073	76.16
792.249	78.02
792.426	75.22
792.602	77.17
792.778	78.81
792.954	75.66
793.13	75.26
793.307	77.37
793.483	77.19
793.659	77.51
793.835	80.1
794.011	81.17
794.187	77.39
794.363	77.72
794.539	81.49
794.715	80.24
794.891	79.32
795.067	79.78
795.243	76.14
795.419	73.75
795.595	75.23
795.771	77.13
795.947	79.75
796.122	79.2
796.298	75.58
796.474	79.32
796.65	78.03
796.826	76.38
797.001	78.63
797.177	75.14
797.353	69.9
797.529	70.13
797.704	74.11
797.88	75.89
798.056	79.55
798.231	80.15
798.407	84.47
798.582	81.63
798.758	82.31
798.934	86.64
799.109	83.49
799.285	81.6
799.46	78.67
799.636	80.71
799.811	78.12
799.986	79.54
800.162	74.2
800.337	80.55
800.513	74.91
800.688	73.51
800.863	78.38
801.039	80.88
801.214	74.79
801.389	74.43
801.565	76.43
801.74	71.47
801.915	69.63
802.09	72.33
802.265	74.53
802.441	75.83
802.616	78.55
802.791	84.06
802.966	84.84
803.141	85.37
803.316	81.86
803.491	78.37
803.666	71.84
803.841	68.45
804.016	63.02
804.191	64.97
804.366	69.26
804.541	74.44
804.716	71.06
804.891	73.08
805.066	77.02
805.241	68.07
805.416	74.59
805.591	80.59
805.765	92.92
805.94	89.36
806.115	94.28
806.29	88.13
806.464	87.61
806.639	76.56
806.814	74.58
806.989	74.35
807.163	71.39
807.338	66.2
807.512	68.83
807.687	69.69
807.862	67.02
808.036	71.52
808.211	74.7
808.385	74.11
808.56	65.8
808.734	54.08
808.909	48.9
809.083	52.95
809.258	55.98
809.432	55.07
809.606	70.43
809.781	73.76
809.955	69.51
810.13	64.83
810.304	68.41
810.478	66.68
810.652	59.73
810.827	64.03
811.001	60.89
811.175	67.05
811.349	71.12
811.524	76.55
811.698	66.86
811.872	75.23
812.046	68.86
812.22	64.5
812.394	65.61
812.568	73.44
812.742	74.95
812.916	80.34
813.09	78.76
813.264	76.3
813.438	74.46
813.612	69.73
813.786	70.44
813.96	76.23
814.134	82.06
814.308	80.34
814.482	80.93
814.656	74.04
814.83	73.76
815.003	72.33
815.177	72.31
815.351	73.52
815.525	74.28
815.698	68.6
815.872	58.29
816.046	51.49
816.219	54.23
816.393	47.59
816.567	51.69
816.74	57.22
816.914	66.37
817.088	60.63
817.261	73.44
817.435	72.75
817.608	71.52
817.782	60.3
817.955	70.68
818.129	63.54
818.302	60.48
818.475	56.41
818.649	60.98
818.822	52.66
818.996	55.53
819.169	65.71
819.342	66.24
819.516	68.85
819.689	69.86
819.862	72.42
820.035	67.61
820.209	74.22
820.382	68.03
820.555	64.41
820.728	47.87
820.901	47.57
821.075	41.79
821.248	56.31
821.421	49.95
821.594	60.34
821.767	57.63
821.94	55.92
822.113	57.33
822.286	63.7
822.459	67.95
822.632	73.96
822.805	78.41
822.978	68.04
823.151	58.31
823.324	44.35
823.496	27.59
823.669	31.69
823.842	42.94
824.015	48.23
824.188	43.98
824.361	59.87
824.533	53.9
824.706	51.25
824.879	61.74
825.051	77.46
825.224	68.59
825.397	67.3
825.569	58.59
825.742	54.4
825.915	46.21
826.087	41.01
826.26	32.95
826.432	24.1
826.605	26.89
826.777	21.37
826.95	31.5
827.122	30.44
827.295	54.37
827.467	65.28
827.64	71.58
827.812	66.58
827.984	88.47
828.157	56.2
828.329	46.35
828.501	45.73
828.674	46.62
828.846	41.07
829.018	41.47
829.19	28.62
829.363	26.06
829.535	26.13
829.707	19.33
829.879	26.74
830.051	31.53
830.223	52.65
830.395	37.79
830.568	37.57
830.74	44.32
830.912	44.28
831.084	31.15
831.256	31.23
831.428	35.17
831.6	13.49
831.772	1.99
831.943	-10.7
832.115	-3.27
832.287	3.81
832.459	31.79
832.631	46.07
832.803	54.17
832.975	60.75
833.146	56.61
833.318	59.7
833.49	63.9
833.662	73.29
833.833	60.04
834.005	60.03
834.177	63.75
834.348	60.74
834.52	56.91
834.692	58.4
834.863	59.29
835.035	50.87
835.206	45.83
835.378	43.79
835.549	43.32
835.721	42.48
835.892	52.64
836.064	51.86
836.235	53.85
836.407	52.05
836.578	56.52
836.749	36.69
836.921	49.72
837.092	41.89
837.264	42.11
837.435	36.97
837.606	37.37
837.777	39.61
837.949	54.27
838.12	55.37
838.291	49.33
838.462	56.78
838.633	52.15
838.805	34.54
838.976	44.24
839.147	62.44
839.318	66.42
839.489	58.49
839.66	74.35
839.831	68.38
840.002	67.97
840.173	61.28
840.344	59.85
840.515	33.89
840.686	39.41
840.857	43.87
841.028	52.26
841.199	58.89
841.369	74.29
841.54	69.86
841.711	68.23
841.882	72.22
842.053	51.14
842.223	53.22
842.394	50.02
842.565	34.13
842.736	25.83
842.906	30.66
843.077	41.18
843.248	65.43
843.418	65.44
843.589	53.72
843.759	67.03
843.93	69.46
844.101	51.98
844.271	73.88
844.442	84.42
844.612	78.03
844.783	71.23
844.953	62.17
845.123	50.29
845.294	42.95
845.464	26.04
845.635	-8.11
845.805	-12.63
845.975	-4.02
846.146	12.96
846.316	18.49
846.486	48.38
846.656	56
846.827	51.49
846.997	46.26
847.167	47.1
847.337	44.33
847.507	44.09
847.677	42.24
847.848	50.84
848.018	54.98
848.188	68.27
848.358	41.33
848.528	73.85
848.698	56.29
848.868	52.5
849.038	31.81
849.208	32.38
849.378	5.85
849.548	-2.58
849.718	-26.23
849.887	-7.39
850.057	40.39
850.227	51.55
850.397	53.82
850.567	23.32
850.737	18.43
850.906	-17.1
851.076	-3.09
851.246	22.58
851.415	63.52
851.585	78.31
851.755	92.21
851.924	95.45
852.094	77.14
852.264	82.07
852.433	48.53
852.603	18.09
852.772	22.37
852.942	56.69
853.111	34.72
853.281	57.09
853.45	60.27
853.62	57.56
853.789	26.92
853.959	44.53
854.128	55.33
854.297	52
854.467	44.31
854.636	37.52
854.805	46.13
854.975	16.66
855.144	22.99
855.313	25.13
855.482	16.66
855.652	-17.56
855.821	-13.79
855.99	-10.16
856.159	2.03
856.328	45.54
856.497	49.68
856.667	70.84
856.836	79.24
857.005	91.06
857.174	74.41
857.343	55.7
857.512	44.27
857.681	21.85
857.85	11.02
858.019	9.78
858.188	31.42
858.356	34.42
858.525	34.59
858.694	45.62
858.863	44.3
859.032	54.09
859.201	57.3
859.369	66.4
859.538	60.92
859.707	49.89
859.876	43.45
860.044	53.58
860.213	54.56
860.382	38.09
860.55	26.9
860.719	38.02
860.888	32.95
861.056	9.04
861.225	15.14
861.393	34.2
861.562	12.34
861.73	10.92
861.899	29.29
862.067	29.05
862.236	18.76
862.404	36.36
862.572	68.72
862.741	53.76
862.909	39.28
863.078	38.9
863.246	15.77
863.414	27.82
863.582	36.4
863.751	42.5
863.919	39.11
864.087	40.84
864.255	-0.91
864.424	-14.58
864.592	27.58
864.76	39.48
864.928	62.89
865.096	78.91
865.264	76.05
865.432	67.92
865.6	69.96
865.768	32.39
865.936	-14.95
866.104	9.4
866.272	-39.37
866.44	-36.25
866.608	-6.98
866.776	32.51
866.944	33.9
867.112	34.86
867.28	37.83
867.448	50.99
867.615	38.48
867.783	28.93
867.951	44.67
868.119	62.64
868.286	62.99
868.454	55.61
868.622	37.15
868.789	27.27
868.957	37.05
869.125	40.8
869.292	21.86
869.46	50.03
869.627	65.53
869.795	38.44
869.963	38.92
870.13	40.4
870.298	25.78
870.465	51.84
870.632	65.28
870.8	59.68
870.967	64.41
871.135	45.77
871.302	-3.74
871.469	25.19
871.637	14.78
871.804	12.47
871.971	15.31
872.139	32.88
872.306	-21.86
872.473	-15.68
872.64	-58.82
872.807	-22.29
872.975	-100.37
873.142	17
873.309	-16.43
873.476	45.17
873.643	72.49
873.81	59.83
873.977	50.51
874.144	92.64
874.311	43.31
874.478	-0.73
874.645	-42.13
874.812	-7.96
874.979	11.83
875.146	1.02
875.313	7.05
875.48	77.43
875.647	88.36
875.813	38.37
875.98	38.85
876.147	70.01
876.314	-18.31
876.481	-0.22
876.647	49.21
876.814	29.79
876.981	37.92
877.147	64.05
877.314	66.34
877.481	41.86
877.647	55.37
877.814	31.94
877.98	48.56
878.147	53.23
878.314	72.22
878.48	68.24
878.647	90.2
878.813	58.93
878.979	45.91
879.146	33.46
879.312	58.49
879.479	10.52
879.645	24.83
879.811	3.33
879.978	21.86
880.144	21.45
880.31	34.97
880.477	41.31
880.643	31.1
880.809	-34.61
880.975	-40.56
881.142	-71.89
881.308	388.16
881.474	386.3
881.64	-18.51
881.806	-95.65
881.972	-48.71
882.138	11.51
882.304	36.67
882.47	63.22
882.636	53.56
882.802	70.5
882.968	113.6
883.134	57.87
883.3	18.97
883.466	57.09
883.632	46.6
883.798	-59.71
883.964	-67.66
884.129	-347.6
884.295	27.52
884.461	-12.04
884.627	29.14
884.793	24.71
884.958	50.48
885.124	1.27
885.29	-32.31
885.455	-28.89
885.621	-4.9
885.787	-45.47
885.952	-28.07
886.118	18.13
886.283	5.37
886.449	-11.33
886.614	13.52
886.78	14.79
886.945	-1.57
887.111	-10.55
887.276	-32.17
887.442	-125.46
887.607	-102.95
887.773	-55.42
887.938	-60.44
888.103	-18.53
888.269	23.34
888.434	48.06
888.599	43
888.764	58.01
888.93	60.3
889.095	42.66
889.26	15.32
889.425	1.2
889.59	-29.5
889.756	-50.92
889.921	-33.03
890.086	-31.85
890.251	27.2
890.416	24.26
890.581	40.85
890.746	61.68
890.911	44.71
891.076	38.07
891.241	39.18
891.406	32.09
891.571	38.52
891.736	-23.17
891.901	26.35
892.065	8.16
892.23	35.83
892.395	-1.51
892.56	1.05
892.725	60.98
892.889	209.41
893.054	74.08
893.219	13.18
893.384	-24.27
893.548	-177.9
893.713	-294.06
893.878	-457.99
