Data from Ofra_1a_PS_8HS24_Reflection_3.txt Node
Date: Tue Jul 20 11:03:46 EDT 2021
User: Adam
Spectrometer: FLMT01687
Trigger mode: 0
Integration Time (sec): 1.004000E0
Scans to average: 2
Electric dark correction enabled: true
Nonlinearity correction enabled: false
Boxcar width: 2
XAxis mode: Wavelengths
Number of Pixels in Spectrum: 3648
>>>>>Begin Spectral Data<<<<<
179.494	-330.96
179.716	-516.03
179.937	1339.13
180.158	-2175.8
180.38	299.92
180.601	208.34
180.823	208.43
181.044	180.03
181.265	64.92
181.486	157.04
181.708	80.07
181.929	-36.36
182.15	139.35
182.372	-226.6
182.593	85.79
182.814	19.02
183.035	48.77
183.257	33.6
183.478	5.49
183.699	-36.07
183.92	-71.44
184.141	-67.71
184.363	-56.3
184.584	-55.08
184.805	6.83
185.026	30.42
185.247	29.01
185.468	12.79
185.689	26.86
185.91	-19.28
186.132	14.46
186.353	4.73
186.574	5.16
186.795	4.1
187.016	43.05
187.237	30.03
187.458	31.74
187.679	22.25
187.9	15.5
188.121	23.24
188.342	41.11
188.563	36.65
188.784	54.55
189.005	36.73
189.226	22.79
189.447	1.53
189.667	-2.98
189.888	-18.7
190.109	-26.66
190.33	-15.68
190.551	-8.68
190.772	-19.6
190.993	-44.16
191.214	-42.57
191.434	-59.5
191.655	-63.45
191.876	10.82
192.097	61.19
192.318	61.09
192.538	40.94
192.759	12.87
192.98	28.35
193.201	13.7
193.421	10.87
193.642	9.22
193.863	21.62
194.083	17.14
194.304	25.49
194.525	30.46
194.745	31.63
194.966	20.75
195.187	4.02
195.407	-0.56
195.628	2.92
195.848	6.67
196.069	18.9
196.29	29.14
196.51	4.93
196.731	-30.35
196.951	-42.87
197.172	-43.51
197.392	-59.95
197.613	-13.37
197.833	-18.13
198.054	-26.05
198.274	-24.76
198.495	-16.7
198.715	-31.65
198.936	-4.23
199.156	17
199.377	10.37
199.597	8.02
199.817	20.25
200.038	7.81
200.258	6.64
200.479	13.07
200.699	17.59
200.919	-0.67
201.14	-1.43
201.36	-18.61
201.58	-42.17
201.801	-98.62
202.021	-131.27
202.241	-120.63
202.461	-83.99
202.682	-45.24
202.902	-2.24
203.122	27.63
203.342	23.84
203.563	18.28
203.783	7.47
204.003	-3.42
204.223	18.1
204.443	27.11
204.663	22.82
204.884	38.97
205.104	65.78
205.324	26.91
205.544	3.96
205.764	48.21
205.984	40.44
206.204	36.67
206.424	21.94
206.644	17.22
206.864	-61.48
207.084	-17.77
207.304	-24.84
207.525	-4.31
207.745	24.15
207.964	40.67
208.184	31.82
208.404	22.57
208.624	18.85
208.844	4.01
209.064	2.81
209.284	-9.97
209.504	-10.48
209.724	-19.8
209.944	-27.58
210.164	-27.18
210.384	-39.8
210.604	-111.55
210.823	-123.47
211.043	-68.95
211.263	-175.14
211.483	-91.97
211.703	-58.47
211.922	-50.54
212.142	-30.88
212.362	11.84
212.582	9.39
212.801	20.09
213.021	20.57
213.241	-8.53
213.461	4.05
213.68	4.44
213.9	7.84
214.12	16.36
214.339	-2.45
214.559	0.89
214.779	7.75
214.998	4.83
215.218	-7.82
215.438	1.17
215.657	-7.9
215.877	-11.25
216.096	2.41
216.316	10.41
216.535	1.24
216.755	7.6
216.974	0.72
217.194	-24.14
217.413	-17.93
217.633	2.46
217.852	-1.99
218.072	5.57
218.291	17.11
218.511	6.6
218.73	-4.63
218.95	-24.76
219.169	-40.19
219.389	-10.16
219.608	-8.55
219.827	7.81
220.047	20.81
220.266	24.55
220.485	5.93
220.705	3.4
220.924	-8.3
221.143	33.99
221.363	28.51
221.582	29.98
221.801	37.97
222.021	30.81
222.24	18.29
222.459	32.36
222.678	27.29
222.897	3.96
223.117	16.7
223.336	14.69
223.555	14.39
223.774	19.36
223.993	48.52
224.213	48.95
224.432	38.51
224.651	14.71
224.87	16.3
225.089	16.91
225.308	24.06
225.527	6.21
225.746	15.98
225.965	9.68
226.184	-7.52
226.404	-25.08
226.623	3.51
226.842	2.45
227.061	4.28
227.28	23.45
227.499	39.99
227.718	35.86
227.936	37.31
228.155	44.12
228.374	28.17
228.593	27.01
228.812	22.73
229.031	32.5
229.25	10.26
229.469	20.28
229.688	1.63
229.907	2.38
230.125	-4.12
230.344	-9.09
230.563	0.18
230.782	-1.87
231.001	-10.72
231.22	-11.66
231.438	10.77
231.657	8.54
231.876	21.51
232.095	30.78
232.313	19.4
232.532	20.7
232.751	15.25
232.969	0.84
233.188	-11.95
233.407	3.24
233.625	-1.87
233.844	4.59
234.063	4.59
234.281	4.03
234.5	-6.41
234.719	-5.22
234.937	-41.75
235.156	-32.68
235.374	-12.62
235.593	0.28
235.811	21.64
236.03	38.52
236.249	34.22
236.467	40.52
236.686	36.91
236.904	27.33
237.123	14.63
237.341	0.26
237.559	-29.05
237.778	-7.22
237.996	-56.74
238.215	-110.12
238.433	-139.41
238.652	-61.26
238.87	-76.74
239.088	-83.96
239.307	-28.61
239.525	-19.54
239.743	-32.1
239.962	-44.41
240.18	-16.39
240.398	-22.24
240.617	-20.76
240.835	-11.68
241.053	-5.49
241.271	18.79
241.49	18.46
241.708	24.38
241.926	25.99
242.144	46.58
242.363	9.68
242.581	24.45
242.799	10.87
243.017	4.31
243.235	-15.49
243.453	-21.31
243.672	-12.17
243.89	-4.08
244.108	2.46
244.326	26.8
244.544	29.8
244.762	16.12
244.98	16.58
245.198	21.65
245.416	3.5
245.634	2.1
245.852	0.76
246.07	10
246.288	-4.88
246.506	-4.47
246.724	6.17
246.942	17.61
247.16	5.36
247.378	7.3
247.596	51.5
247.814	27.51
248.032	-15.42
248.25	22.59
248.468	30.34
248.685	14.49
248.903	2.47
249.121	11.89
249.339	-1.07
249.557	-26.44
249.775	-12.08
249.992	4.69
250.21	-12.25
250.428	-7.99
250.646	1.61
250.863	-13.73
251.081	-5.92
251.299	23.5
251.517	35.81
251.734	43.51
251.952	38.89
252.17	39.7
252.387	22.33
252.605	5.6
252.823	-9.03
253.04	15.86
253.258	12.46
253.475	29.04
253.693	32.17
253.911	22.04
254.128	9.7
254.346	18.21
254.563	15.34
254.781	4.5
254.998	-1.14
255.216	-34.8
255.433	-68.04
255.651	-61.81
255.868	-36.5
256.086	-23.91
256.303	-3.27
256.521	25.26
256.738	10.24
256.956	-2.1
257.173	-18.91
257.39	-15.1
257.608	-27.13
257.825	-24.36
258.043	-7.85
258.26	9.1
258.477	13.42
258.695	22.2
258.912	16.97
259.129	16.35
259.346	10.57
259.564	17.47
259.781	-12.83
259.998	20.95
260.216	22.04
260.433	7.78
260.65	-6.51
260.867	-21.43
261.084	-32.36
261.302	-56.99
261.519	-24.36
261.736	-23.13
261.953	-2.36
262.17	9.07
262.387	-1.27
262.604	-3.75
262.822	14.36
263.039	17.05
263.256	11.61
263.473	25.16
263.69	21.54
263.907	20.22
264.124	30.8
264.341	40.66
264.558	47.98
264.775	59.37
264.992	62.62
265.209	44.8
265.426	29.29
265.643	7.77
265.86	-3.05
266.077	-18.95
266.294	0.09
266.51	27.59
266.727	-2.27
266.944	7.95
267.161	3.02
267.378	2.73
267.595	-27.33
267.812	-15.9
268.028	-41.38
268.245	-23.83
268.462	-26.26
268.679	-3.5
268.896	17.16
269.112	15.92
269.329	-12.89
269.546	13.67
269.763	8.8
269.979	-3.43
270.196	14.82
270.413	18.12
270.629	-1.25
270.846	-9.94
271.063	1.93
271.279	-7.77
271.496	-15.47
271.712	-12.62
271.929	5.59
272.146	5.43
272.362	-2.6
272.579	2.8
272.795	6.25
273.012	3.37
273.228	-3.99
273.445	8.26
273.661	10.46
273.878	1.61
274.094	0.68
274.311	9.91
274.527	-2.16
274.744	0.08
274.96	10.52
275.177	5.21
275.393	12.95
275.609	21.05
275.826	27
276.042	16.45
276.259	19.53
276.475	4.4
276.691	-5.94
276.908	-11.81
277.124	3.2
277.34	-4.97
277.557	-19.85
277.773	-18.3
277.989	-18.38
278.205	-21.71
278.422	-16.25
278.638	13.25
278.854	11.13
279.07	22.76
279.286	21.73
279.503	26.96
279.719	16.11
279.935	17.5
280.151	11.65
280.367	14.33
280.583	0.21
280.799	-2.37
281.016	-38.68
281.232	-13.04
281.448	-12.4
281.664	-0.28
281.88	11.78
282.096	24.78
282.312	6.86
282.528	-3.21
282.744	-13.63
282.96	-45.87
283.176	-68.28
283.392	-125.79
283.608	-72.55
283.824	-71.92
284.04	-102.13
284.256	-56.29
284.471	-24.94
284.687	-27.7
284.903	-17.18
285.119	21.33
285.335	29.95
285.551	42.71
285.767	46.42
285.982	42.96
286.198	-29.2
286.414	-33.98
286.63	-41.49
286.846	-42.59
287.061	-21.8
287.277	7.12
287.493	-10.78
287.709	-15.49
287.924	0.48
288.14	14.37
288.356	25.21
288.571	37.07
288.787	34.76
289.003	33.21
289.218	13.25
289.434	1.23
289.65	13.17
289.865	9.19
290.081	-2.56
290.296	2.61
290.512	2.87
290.727	-8.73
290.943	-4.59
291.159	-1.97
291.374	-20.69
291.59	-22.62
291.805	-29.71
292.021	-29.78
292.236	-22.34
292.451	-9.43
292.667	-14.55
292.882	-5.62
293.098	-15.03
293.313	-24.39
293.529	-20.99
293.744	-16.92
293.959	-22.26
294.175	-13.58
294.39	-15.96
294.605	-2.88
294.821	-3.76
295.036	-12.52
295.251	-8.77
295.467	-1.84
295.682	-4.78
295.897	-8.87
296.112	-2.7
296.328	-5.15
296.543	-14.7
296.758	-13.01
296.973	-6.09
297.188	-1.34
297.404	-26.11
297.619	-48.11
297.834	-95.57
298.049	-85.68
298.264	-72.65
298.479	-53.19
298.694	-2.64
298.909	9.69
299.125	11.47
299.34	15.44
299.555	19.85
299.77	25.19
299.985	27.32
300.2	31.92
300.415	20.26
300.63	22.65
300.845	-1.15
301.06	-4.49
301.275	-21.61
301.49	-11.91
301.704	-12.45
301.919	-18.01
302.134	-25.29
302.349	-14.08
302.564	-11.2
302.779	-47.9
302.994	-23.45
303.209	-18.84
303.423	-21.84
303.638	-35.81
303.853	-28.38
304.068	-41.28
304.283	-41.21
304.497	-48.54
304.712	-12.9
304.927	7.55
305.142	15.13
305.356	18.24
305.571	14.11
305.786	4.29
306	15.48
306.215	6.7
306.43	6.07
306.644	0.61
306.859	12.01
307.074	-6.27
307.288	8.68
307.503	11.52
307.717	8.13
307.932	4.52
308.147	-1.97
308.361	-8.51
308.576	-19.74
308.79	-9.02
309.005	-25.23
309.219	5.52
309.434	9.38
309.648	11.09
309.863	13.66
310.077	19.4
310.292	11.43
310.506	1.26
310.72	-9.99
310.935	10.76
311.149	17.65
311.364	17.39
311.578	21.42
311.792	25.79
312.007	-3.54
312.221	-30.42
312.435	-44.63
312.649	-32.25
312.864	-9.65
313.078	-2.4
313.292	17.78
313.507	36.41
313.721	39.64
313.935	33.45
314.149	29.45
314.363	28.07
314.578	20.31
314.792	-15.09
315.006	-26.39
315.22	-7.31
315.434	-10.76
315.648	-9.11
315.862	8.36
316.077	11.38
316.291	-0.12
316.505	-23.34
316.719	-25.87
316.933	-30.66
317.147	-21.09
317.361	-19.79
317.575	-10.44
317.789	-3.12
318.003	-0.42
318.217	1.24
318.431	13.8
318.645	15.21
318.859	8.33
319.073	9.98
319.287	4.68
319.5	-1.17
319.714	-8.91
319.928	-6.18
320.142	-6.45
320.356	11.08
320.57	-7.34
320.784	12.39
320.997	4.5
321.211	12.8
321.425	-22.96
321.639	-1.14
321.853	7.71
322.066	4.47
322.28	-18.88
322.494	-2
322.707	-0.09
322.921	-19.67
323.135	-9.55
323.349	23.34
323.562	23.2
323.776	26.98
323.989	31.18
324.203	20.14
324.417	3.52
324.63	-10.89
324.844	-36.2
325.057	-55.91
325.271	-47.62
325.485	-51.12
325.698	-23.79
325.912	5.99
326.125	-0.86
326.339	11.19
326.552	8.9
326.766	8.85
326.979	9.27
327.193	16.45
327.406	-0.13
327.619	15.37
327.833	16.91
328.046	10.8
328.26	7.64
328.473	-1.45
328.686	-15.85
328.9	-6.73
329.113	-18.2
329.326	-17.55
329.54	4.11
329.753	24.69
329.966	19.34
330.179	25.81
330.393	29.87
330.606	29.38
330.819	2.59
331.032	-1.48
331.246	5.18
331.459	18.91
331.672	9.82
331.885	17.24
332.098	18.94
332.311	1.06
332.525	-11.43
332.738	-13.53
332.951	-10.62
333.164	-3.96
333.377	4.25
333.59	4.67
333.803	12.09
334.016	9.68
334.229	11.73
334.442	8.02
334.655	-1.91
334.868	12.24
335.081	6.01
335.294	-4.34
335.507	6.51
335.72	14.16
335.933	2.63
336.146	5.76
336.359	21.86
336.572	12.03
336.785	23.22
336.997	22.17
337.21	26.71
337.423	-21.15
337.636	-6.37
337.849	-18.71
338.062	-8.31
338.274	-2.07
338.487	3.98
338.7	-4
338.913	10.14
339.125	1.78
339.338	-3.51
339.551	4.32
339.763	2.58
339.976	-10.42
340.189	-4.85
340.402	-1.37
340.614	7.23
340.827	15.48
341.039	24.11
341.252	26.14
341.465	11.64
341.677	7.81
341.89	-8.48
342.102	-5.1
342.315	-9.75
342.527	2.74
342.74	-13.43
342.952	-22.99
343.165	-32.6
343.377	-16.8
343.59	-28.88
343.802	-8.17
344.015	18.11
344.227	22.72
344.44	6.73
344.652	5.9
344.864	6.45
345.077	13.92
345.289	24.9
345.502	49.06
345.714	50.57
345.926	61.95
346.139	31.11
346.351	25.11
346.563	14.05
346.775	26.44
346.988	5.08
347.2	10.57
347.412	9.67
347.624	13.09
347.837	20.34
348.049	31.82
348.261	27.76
348.473	23.44
348.685	9.89
348.897	-17.33
349.11	-23.03
349.322	-17.92
349.534	-30.74
349.746	-23.2
349.958	-22.27
350.17	-31.3
350.382	-27.18
350.594	-6.22
350.806	7.71
351.018	22.05
351.23	33.49
351.442	33.33
351.654	21.58
351.866	10.71
352.078	19.06
352.29	1.01
352.502	0.67
352.714	15.05
352.926	16.01
353.138	15.43
353.35	10.51
353.561	6.89
353.773	1.45
353.985	4.45
354.197	-5.92
354.409	3.74
354.621	-0.1
354.832	-6.78
355.044	-17.75
355.256	-14.98
355.468	-22.15
355.679	-5.62
355.891	10.9
356.103	7.27
356.314	4.98
356.526	-3.01
356.738	-6.93
356.949	-16.01
357.161	7.8
357.373	9.62
357.584	5.59
357.796	3.22
358.008	4.91
358.219	-3.1
358.431	-21.59
358.642	-1.16
358.854	8.58
359.065	0.99
359.277	4.16
359.488	12.3
359.7	-1.95
359.911	-20.56
360.123	-7.9
360.334	-20.71
360.546	-21.75
360.757	-7.55
360.969	0.05
361.18	12.84
361.391	5.9
361.603	16.82
361.814	5.02
362.025	11.07
362.237	-4.47
362.448	10.9
362.659	-1.11
362.871	-4.39
363.082	1.44
363.293	-8.42
363.504	-24.67
363.716	-5.58
363.927	9.1
364.138	-21.89
364.349	-9.53
364.56	-31.71
364.772	-26.32
364.983	-20.14
365.194	-8.13
365.405	-9.58
365.616	7.51
365.827	3.09
366.038	8.6
366.25	18.46
366.461	16.41
366.672	21.19
366.883	15.84
367.094	1.98
367.305	-5.24
367.516	-1.76
367.727	-21.69
367.938	-20.01
368.149	-31.92
368.36	-43.61
368.571	-59.74
368.781	-47.38
368.992	-46.43
369.203	-40.07
369.414	-44.46
369.625	-34.88
369.836	-12.86
370.047	-6.99
370.258	5.51
370.468	10.4
370.679	3.53
370.89	-4.57
371.101	6.9
371.312	-7.56
371.522	-6.47
371.733	-4.13
371.944	-20.35
372.155	-36.02
372.365	-19.79
372.576	-20.31
372.787	0.47
372.997	-1.57
373.208	-7.11
373.419	-9.65
373.629	-4.63
373.84	-21.97
374.05	-13.11
374.261	-13.17
374.472	-14.25
374.682	3.53
374.893	4.31
375.103	19.93
375.314	26.05
375.524	22.7
375.735	10.6
375.945	9.55
376.156	-3.18
376.366	-8
376.577	-8.37
376.787	-3.74
376.997	3.89
377.208	4.01
377.418	4.47
377.629	8.83
377.839	4.39
378.049	-3.27
378.26	-6.38
378.47	-5.76
378.68	-0.3
378.89	3.68
379.101	17.58
379.311	21.89
379.521	16.36
379.732	20.97
379.942	23.33
380.152	8.99
380.362	11.65
380.572	20.61
380.783	18.61
380.993	17.28
381.203	21.44
381.413	21.31
381.623	15.3
381.833	13.95
382.043	6.07
382.253	8.15
382.463	18.61
382.674	18.85
382.884	18.63
383.094	18.87
383.304	15.08
383.514	3.92
383.724	0.58
383.934	-5.99
384.144	-1.17
384.353	5.18
384.563	10.04
384.773	15.28
384.983	13.19
385.193	14.85
385.403	5.63
385.613	3
385.823	-0.34
386.033	2.23
386.242	-4.44
386.452	0.46
386.662	-5.46
386.872	-3.84
387.082	-0.31
387.291	0.15
387.501	4.02
387.711	11.34
387.921	13.52
388.13	13.58
388.34	15.77
388.55	9.65
388.759	1.64
388.969	-5.04
389.179	-6.71
389.388	-11.53
389.598	-14.52
389.807	-15.18
390.017	-13.43
390.227	-16.18
390.436	-12.31
390.646	-10.15
390.855	-6.22
391.065	-4.77
391.274	-1.27
391.484	-4.17
391.693	-1.59
391.903	-0.34
392.112	1.46
392.322	-1.44
392.531	0.82
392.74	0.08
392.95	0.01
393.159	-0.25
393.369	2.52
393.578	2.64
393.787	2.68
393.997	3.32
394.206	2.25
394.415	1.99
394.625	1.89
394.834	0.63
395.043	0.83
395.252	2.75
395.462	3.34
395.671	3.25
395.88	5.55
396.089	4.17
396.298	3.51
396.508	2.96
396.717	3.47
396.926	1.95
397.135	3.34
397.344	3.05
397.553	2.99
397.762	3.29
397.971	3.65
398.181	3.47
398.39	2.75
398.599	2.98
398.808	2.6
399.017	2.82
399.226	2.47
399.435	2.89
399.644	2.82
399.853	3.04
400.062	3.09
400.27	2.69
400.479	2.97
400.688	2.98
400.897	2.74
401.106	2.6
401.315	3.06
401.524	2.97
401.733	2.73
401.941	3.15
402.15	3.1
402.359	3.07
402.568	3.11
402.777	3.39
402.985	2.98
403.194	3.02
403.403	3.25
403.612	3.23
403.82	2.74
404.029	2.92
404.238	2.99
404.446	2.9
404.655	2.87
404.864	3.06
405.072	2.96
405.281	2.85
405.489	2.77
405.698	2.95
405.906	3.13
406.115	3.17
406.324	3.25
406.532	3.22
406.741	3.22
406.949	3.22
407.158	3.19
407.366	3.07
407.574	3.12
407.783	2.93
407.991	2.76
408.2	3
408.408	3.03
408.617	3.02
408.825	2.93
409.033	2.99
409.242	2.91
409.45	2.92
409.658	2.77
409.867	2.83
410.075	2.77
410.283	2.63
410.491	2.47
410.7	2.5
410.908	2.59
411.116	2.64
411.324	2.62
411.533	2.63
411.741	2.64
411.949	2.64
412.157	2.62
412.365	2.67
412.573	2.68
412.781	2.65
412.99	2.65
413.198	2.58
413.406	2.6
413.614	2.76
413.822	2.84
414.03	2.76
414.238	2.97
414.446	2.87
414.654	2.7
414.862	2.67
415.07	2.64
415.278	2.53
415.486	2.5
415.694	2.66
415.902	2.58
416.109	2.48
416.317	2.51
416.525	2.45
416.733	2.4
416.941	2.38
417.149	2.42
417.357	2.44
417.564	2.53
417.772	2.6
417.98	2.68
418.188	2.61
418.395	2.33
418.603	2.14
418.811	1.89
419.019	1.88
419.226	2.14
419.434	2.11
419.642	2.08
419.849	2.05
420.057	1.93
420.265	1.79
420.472	1.89
420.68	2
420.887	2.06
421.095	2.17
421.302	2.13
421.51	2.15
421.717	2.27
421.925	2.34
422.132	2.36
422.34	2.25
422.547	2.2
422.755	2.28
422.962	2.21
423.17	1.89
423.377	1.97
423.585	2.15
423.792	2.01
423.999	2.22
424.207	2.26
424.414	2.34
424.621	2.24
424.829	2.27
425.036	2.06
425.243	2.27
425.451	2.26
425.658	2.31
425.865	2.32
426.072	2.36
426.28	2.39
426.487	2.33
426.694	2.14
426.901	2.22
427.108	2.13
427.315	1.97
427.523	1.91
427.73	2.05
427.937	1.86
428.144	1.93
428.351	1.97
428.558	2.1
428.765	2.08
428.972	2.29
429.179	2.18
429.386	2.46
429.593	2.41
429.8	2.37
430.007	2.34
430.214	2.58
430.421	2.49
430.628	2.53
430.835	2.54
431.042	2.37
431.249	2.26
431.456	2.23
431.662	2.31
431.869	2.43
432.076	2.52
432.283	2.65
432.49	2.58
432.697	2.53
432.903	2.37
433.11	2.49
433.317	2.53
433.524	2.6
433.73	2.49
433.937	2.78
434.144	2.51
434.35	2.34
434.557	2.45
434.764	2.53
434.97	2.3
435.177	2.51
435.384	2.56
435.59	2.55
435.797	2.58
436.003	2.61
436.21	2.51
436.416	2.53
436.623	2.43
436.829	2.5
437.036	2.54
437.242	2.6
437.449	2.63
437.655	2.74
437.862	2.68
438.068	2.64
438.275	2.67
438.481	2.64
438.687	2.62
438.894	2.65
439.1	2.63
439.307	2.71
439.513	2.73
439.719	2.74
439.926	2.87
440.132	2.98
440.338	2.87
440.544	2.83
440.751	2.77
440.957	2.76
441.163	2.62
441.369	2.63
441.575	2.6
441.782	2.67
441.988	2.7
442.194	2.77
442.4	2.85
442.606	3.03
442.812	3.13
443.018	3.11
443.224	3.21
443.431	3.13
443.637	3.06
443.843	2.95
444.049	3
444.255	2.99
444.461	3.03
444.667	2.99
444.873	2.96
445.079	2.87
445.284	2.8
445.49	2.83
445.696	2.8
445.902	2.84
446.108	2.89
446.314	2.95
446.52	3.01
446.726	3.06
446.931	2.96
447.137	2.95
447.343	3.01
447.549	3
447.755	3.01
447.96	3.16
448.166	3.15
448.372	3.11
448.578	3.05
448.783	3.06
448.989	3.1
449.195	3.15
449.4	3.13
449.606	3.16
449.812	3.11
450.017	3.06
450.223	2.97
450.428	2.99
450.634	2.95
450.84	3.04
451.045	3.04
451.251	3.15
451.456	3.17
451.662	3.24
451.867	3.25
452.073	3.22
452.278	3.17
452.483	3.12
452.689	3.15
452.894	3.22
453.1	3.21
453.305	3.25
453.51	3.28
453.716	3.22
453.921	3.21
454.127	3.22
454.332	3.19
454.537	3.2
454.742	3.22
454.948	3.11
455.153	3.13
455.358	3.12
455.563	3.21
455.769	3.26
455.974	3.31
456.179	3.31
456.384	3.3
456.589	3.28
456.795	3.18
457	3.2
457.205	3.18
457.41	3.18
457.615	3.15
457.82	3.25
458.025	3.2
458.23	3.19
458.435	3.23
458.64	3.18
458.845	3.19
459.05	3.25
459.255	3.29
459.46	3.23
459.665	3.28
459.87	3.19
460.075	3.24
460.28	3.28
460.485	3.42
460.69	3.41
460.895	3.52
461.099	3.38
461.304	3.28
461.509	3.22
461.714	3.21
461.919	3.2
462.123	3.27
462.328	3.33
462.533	3.23
462.738	3.17
462.942	3.06
463.147	3.09
463.352	3.14
463.556	3.22
463.761	3.29
463.966	3.41
464.17	3.43
464.375	3.47
464.58	3.44
464.784	3.45
464.989	3.45
465.193	3.37
465.398	3.41
465.602	3.6
465.807	3.59
466.011	3.58
466.216	3.66
466.42	3.62
466.625	3.57
466.829	3.51
467.034	3.6
467.238	3.65
467.443	3.66
467.647	3.59
467.851	3.71
468.056	3.64
468.26	3.62
468.464	3.66
468.669	3.72
468.873	3.69
469.077	3.72
469.282	3.76
469.486	3.75
469.69	3.72
469.894	3.79
470.099	3.82
470.303	3.76
470.507	3.77
470.711	3.74
470.915	3.78
471.119	3.8
471.324	3.89
471.528	3.92
471.732	4.01
471.936	4.08
472.14	4.06
472.344	4.11
472.548	4.08
472.752	4.02
472.956	3.91
473.16	3.9
473.364	3.84
473.568	3.81
473.772	3.9
473.976	4.05
474.18	4.09
474.384	4.1
474.588	4.15
474.792	4.15
474.995	4.07
475.199	4.08
475.403	4.09
475.607	4.09
475.811	4.15
476.015	4.09
476.218	4.08
476.422	4.13
476.626	4.14
476.83	4.21
477.033	4.34
477.237	4.35
477.441	4.35
477.644	4.37
477.848	4.37
478.052	4.29
478.255	4.32
478.459	4.38
478.663	4.44
478.866	4.42
479.07	4.42
479.273	4.51
479.477	4.45
479.681	4.45
479.884	4.43
480.088	4.46
480.291	4.39
480.495	4.41
480.698	4.46
480.901	4.44
481.105	4.47
481.308	4.55
481.512	4.58
481.715	4.63
481.919	4.72
482.122	4.75
482.325	4.82
482.529	4.81
482.732	4.75
482.935	4.71
483.138	4.71
483.342	4.7
483.545	4.8
483.748	4.86
483.952	4.92
484.155	4.93
484.358	4.92
484.561	4.86
484.764	4.84
484.967	4.84
485.171	4.82
485.374	4.76
485.577	4.7
485.78	4.72
485.983	4.66
486.186	4.66
486.389	4.69
486.592	4.74
486.795	4.75
486.998	4.71
487.201	4.72
487.404	4.82
487.607	4.84
487.81	4.82
488.013	4.91
488.216	4.94
488.419	4.91
488.622	4.83
488.825	4.88
489.028	4.88
489.231	4.9
489.433	4.86
489.636	4.91
489.839	4.87
490.042	4.86
490.245	4.81
490.447	4.81
490.65	4.88
490.853	4.88
491.056	4.85
491.258	4.91
491.461	4.83
491.664	4.8
491.866	4.75
492.069	4.84
492.272	4.79
492.474	4.83
492.677	4.85
492.879	4.86
493.082	4.84
493.285	4.85
493.487	4.85
493.69	4.81
493.892	4.76
494.095	4.75
494.297	4.78
494.5	4.84
494.702	4.91
494.905	5.03
495.107	5.04
495.309	5.1
495.512	5.07
495.714	5.1
495.917	5.16
496.119	5.18
496.321	5.12
496.524	5.09
496.726	5.04
496.928	4.97
497.13	4.93
497.333	5
497.535	5.04
497.737	5.06
497.939	5.07
498.142	5.08
498.344	5.07
498.546	5.11
498.748	5.15
498.95	5.18
499.152	5.22
499.355	5.18
499.557	5.15
499.759	5.15
499.961	5.13
500.163	5.17
500.365	5.29
500.567	5.29
500.769	5.31
500.971	5.34
501.173	5.27
501.375	5.29
501.577	5.36
501.779	5.34
501.981	5.34
502.183	5.37
502.385	5.32
502.587	5.34
502.788	5.46
502.99	5.51
503.192	5.59
503.394	5.63
503.596	5.57
503.798	5.45
503.999	5.47
504.201	5.48
504.403	5.52
504.605	5.6
504.806	5.7
505.008	5.7
505.21	5.7
505.411	5.68
505.613	5.69
505.815	5.74
506.016	5.75
506.218	5.78
506.42	5.79
506.621	5.79
506.823	5.79
507.024	5.85
507.226	5.91
507.427	5.96
507.629	6.01
507.83	6.05
508.032	5.99
508.233	6
508.435	5.98
508.636	6.03
508.838	6.02
509.039	6.1
509.24	6.12
509.442	6.15
509.643	6.1
509.845	6.13
510.046	6.16
510.247	6.17
510.448	6.24
510.65	6.26
510.851	6.3
511.052	6.29
511.254	6.39
511.455	6.37
511.656	6.41
511.857	6.41
512.058	6.4
512.26	6.31
512.461	6.32
512.662	6.33
512.863	6.24
513.064	6.22
513.265	6.23
513.466	6.26
513.667	6.32
513.868	6.41
514.069	6.42
514.27	6.42
514.471	6.41
514.672	6.4
514.873	6.37
515.074	6.43
515.275	6.44
515.476	6.44
515.677	6.46
515.878	6.51
516.079	6.54
516.28	6.58
516.481	6.62
516.682	6.58
516.882	6.56
517.083	6.54
517.284	6.54
517.485	6.57
517.686	6.62
517.886	6.64
518.087	6.6
518.288	6.61
518.488	6.6
518.689	6.61
518.89	6.63
519.091	6.77
519.291	6.77
519.492	6.8
519.692	6.82
519.893	6.86
520.094	6.78
520.294	6.83
520.495	6.79
520.695	6.8
520.896	6.81
521.096	6.87
521.297	6.9
521.497	6.9
521.698	6.86
521.898	6.84
522.099	6.78
522.299	6.74
522.499	6.8
522.7	6.86
522.9	6.89
523.101	6.95
523.301	6.97
523.501	7.01
523.702	7.01
523.902	7.07
524.102	7.13
524.302	7.18
524.503	7.18
524.703	7.17
524.903	7.13
525.103	7.09
525.304	7.05
525.504	7.09
525.704	7.18
525.904	7.16
526.104	7.23
526.304	7.26
526.504	7.27
526.705	7.22
526.905	7.23
527.105	7.21
527.305	7.2
527.505	7.12
527.705	7.11
527.905	7.18
528.105	7.19
528.305	7.19
528.505	7.24
528.705	7.34
528.905	7.32
529.105	7.33
529.304	7.35
529.504	7.37
529.704	7.34
529.904	7.34
530.104	7.36
530.304	7.4
530.503	7.38
530.703	7.36
530.903	7.4
531.103	7.48
531.303	7.5
531.502	7.59
531.702	7.61
531.902	7.66
532.101	7.6
532.301	7.62
532.501	7.66
532.7	7.68
532.9	7.72
533.1	7.73
533.299	7.72
533.499	7.59
533.698	7.61
533.898	7.57
534.097	7.55
534.297	7.58
534.496	7.63
534.696	7.69
534.895	7.73
535.095	7.81
535.294	7.84
535.494	7.87
535.693	7.87
535.892	7.85
536.092	7.8
536.291	7.82
536.491	7.86
536.69	7.84
536.889	7.85
537.088	7.87
537.288	7.84
537.487	7.83
537.686	7.81
537.886	7.84
538.085	7.89
538.284	7.96
538.483	7.96
538.682	8.05
538.882	8.09
539.081	8.12
539.28	8.12
539.479	8.14
539.678	8.1
539.877	8.15
540.076	8.14
540.275	8.17
540.474	8.19
540.673	8.28
540.872	8.26
541.071	8.31
541.27	8.35
541.469	8.41
541.668	8.43
541.867	8.46
542.066	8.47
542.265	8.55
542.464	8.57
542.663	8.65
542.862	8.74
543.06	8.85
543.259	8.92
543.458	8.98
543.657	8.95
543.856	8.99
544.054	8.98
544.253	8.93
544.452	8.94
544.651	9.02
544.849	9.02
545.048	9.03
545.247	9.09
545.445	9.12
545.644	9.09
545.843	9.14
546.041	9.17
546.24	9.2
546.438	9.28
546.637	9.35
546.836	9.4
547.034	9.49
547.233	9.55
547.431	9.52
547.63	9.55
547.828	9.58
548.027	9.56
548.225	9.58
548.423	9.63
548.622	9.7
548.82	9.75
549.019	9.78
549.217	9.91
549.415	9.95
549.614	10.09
549.812	10.1
550.01	10.22
550.209	10.25
550.407	10.37
550.605	10.28
550.803	10.36
551.002	10.4
551.2	10.41
551.398	10.51
551.596	10.65
551.794	10.75
551.993	10.86
552.191	10.93
552.389	10.95
552.587	10.99
552.785	10.99
552.983	11.04
553.181	11.08
553.379	11.13
553.577	11.14
553.775	11.25
553.973	11.25
554.171	11.32
554.369	11.46
554.567	11.6
554.765	11.58
554.963	11.66
555.161	11.71
555.359	11.8
555.557	11.82
555.755	12.02
555.952	12.2
556.15	12.34
556.348	12.3
556.546	12.43
556.744	12.43
556.941	12.42
557.139	12.46
557.337	12.56
557.535	12.57
557.732	12.61
557.93	12.73
558.128	12.84
558.325	12.99
558.523	13.13
558.721	13.32
558.918	13.44
559.116	13.54
559.313	13.6
559.511	13.63
559.708	13.6
559.906	13.66
560.104	13.75
560.301	13.83
560.498	14
560.696	14.08
560.893	14.2
561.091	14.25
561.288	14.36
561.486	14.41
561.683	14.49
561.88	14.61
562.078	14.66
562.275	14.72
562.473	14.83
562.67	14.93
562.867	15.01
563.064	15.11
563.262	15.21
563.459	15.32
563.656	15.42
563.853	15.46
564.051	15.62
564.248	15.7
564.445	15.79
564.642	15.89
564.839	15.98
565.036	16.07
565.234	16.18
565.431	16.29
565.628	16.39
565.825	16.5
566.022	16.61
566.219	16.62
566.416	16.64
566.613	16.78
566.81	16.85
567.007	16.8
567.204	16.91
567.401	17.07
567.598	17.05
567.795	17.16
567.991	17.29
568.188	17.34
568.385	17.32
568.582	17.51
568.779	17.49
568.976	17.52
569.172	17.68
569.369	17.69
569.566	17.68
569.763	17.69
569.96	17.83
570.156	17.87
570.353	17.99
570.55	18.1
570.746	18.26
570.943	18.3
571.14	18.29
571.336	18.38
571.533	18.42
571.729	18.45
571.926	18.51
572.123	18.59
572.319	18.63
572.516	18.64
572.712	18.68
572.909	18.65
573.105	18.63
573.302	18.61
573.498	18.65
573.695	18.64
573.891	18.69
574.087	18.69
574.284	18.74
574.48	18.7
574.677	18.76
574.873	18.78
575.069	18.89
575.266	18.96
575.462	19.05
575.658	19.14
575.854	19.21
576.051	19.2
576.247	19.14
576.443	19.16
576.639	19.14
576.835	19.05
577.032	18.98
577.228	19.1
577.424	19.13
577.62	19.11
577.816	19.12
578.012	19.22
578.208	19.25
578.404	19.18
578.6	19.28
578.796	19.38
578.993	19.4
579.189	19.41
579.384	19.39
579.58	19.4
579.776	19.36
579.972	19.29
580.168	19.17
580.364	19.22
580.56	19.06
580.756	19.01
580.952	19
581.148	19.11
581.343	19.15
581.539	19.26
581.735	19.35
581.931	19.38
582.127	19.32
582.322	19.33
582.518	19.26
582.714	19.22
582.909	19.22
583.105	19.18
583.301	19.14
583.496	19.13
583.692	19.09
583.888	19.09
584.083	19.04
584.279	18.97
584.474	18.97
584.67	18.91
584.866	18.88
585.061	18.87
585.257	18.92
585.452	18.89
585.648	18.91
585.843	18.86
586.039	18.98
586.234	18.97
586.429	18.98
586.625	19.11
586.82	19.15
587.015	19.11
587.211	19.11
587.406	19.11
587.601	19.03
587.797	19.07
587.992	19.1
588.187	19.04
588.383	19.13
588.578	19.19
588.773	19.2
588.968	19.27
589.163	19.33
589.359	19.24
589.554	19.16
589.749	19.13
589.944	19.09
590.139	19.14
590.334	19.34
590.529	19.36
590.724	19.48
590.919	19.49
591.114	19.5
591.309	19.38
591.504	19.41
591.699	19.33
591.894	19.37
592.089	19.5
592.284	19.57
592.479	19.67
592.674	19.69
592.869	19.79
593.064	19.77
593.259	19.84
593.454	19.9
593.648	20.05
593.843	20
594.038	19.99
594.233	19.94
594.428	20.06
594.622	20.11
594.817	20.27
595.012	20.37
595.206	20.52
595.401	20.55
595.596	20.51
595.79	20.52
595.985	20.54
596.18	20.61
596.374	20.79
596.569	20.94
596.763	20.98
596.958	21.08
597.153	21.09
597.347	20.9
597.542	20.92
597.736	21
597.931	21.11
598.125	21.26
598.319	21.46
598.514	21.52
598.708	21.61
598.903	21.67
599.097	21.64
599.291	21.6
599.486	21.71
599.68	21.74
599.874	21.73
600.069	21.79
600.263	21.94
600.457	21.97
600.651	22.02
600.846	22.08
601.04	22.12
601.234	22.11
601.428	22.13
601.622	22.17
601.817	22.25
602.011	22.23
602.205	22.32
602.399	22.28
602.593	22.26
602.787	22.19
602.981	22.22
603.175	22.3
603.369	22.29
603.563	22.35
603.757	22.32
603.951	22.32
604.145	22.19
604.339	22.26
604.533	22.13
604.727	22.13
604.921	22.11
605.115	22.09
605.309	21.97
605.502	22.02
605.696	22.07
605.89	22.09
606.084	22.13
606.278	22.16
606.471	22.12
606.665	22.05
606.859	22
607.053	21.86
607.246	21.84
607.44	21.79
607.634	21.78
607.827	21.74
608.021	21.71
608.214	21.67
608.408	21.61
608.602	21.45
608.795	21.48
608.989	21.42
609.182	21.36
609.376	21.34
609.569	21.32
609.763	21.18
609.956	21.14
610.15	21.03
610.343	20.92
610.537	20.9
610.73	20.74
610.923	20.74
611.117	20.74
611.31	20.68
611.504	20.58
611.697	20.56
611.89	20.46
612.083	20.35
612.277	20.3
612.47	20.25
612.663	20.28
612.856	20.21
613.05	20.22
613.243	20.17
613.436	20.1
613.629	19.95
613.822	19.79
614.015	19.67
614.209	19.54
614.402	19.56
614.595	19.54
614.788	19.58
614.981	19.5
615.174	19.44
615.367	19.37
615.56	19.29
615.753	19.21
615.946	19.13
616.139	19.16
616.332	19.08
616.525	18.99
616.718	18.97
616.911	18.96
617.103	18.89
617.296	18.8
617.489	18.76
617.682	18.75
617.875	18.72
618.067	18.66
618.26	18.64
618.453	18.65
618.646	18.55
618.838	18.51
619.031	18.47
619.224	18.5
619.417	18.45
619.609	18.43
619.802	18.3
619.994	18.32
620.187	18.17
620.38	18.22
620.572	18.21
620.765	18.32
620.957	18.21
621.15	18.21
621.342	18.14
621.535	18.12
621.727	18.05
621.92	18.09
622.112	18.11
622.305	18.04
622.497	18.05
622.69	18.03
622.882	18.04
623.074	18.09
623.267	18.13
623.459	18.06
623.651	18.08
623.844	18.04
624.036	17.94
624.228	17.83
624.42	17.79
624.613	17.71
624.805	17.69
624.997	17.63
625.189	17.62
625.381	17.54
625.574	17.5
625.766	17.43
625.958	17.47
626.15	17.49
626.342	17.51
626.534	17.47
626.726	17.5
626.918	17.44
627.11	17.42
627.302	17.44
627.494	17.44
627.686	17.4
627.878	17.34
628.07	17.3
628.262	17.34
628.454	17.25
628.646	17.27
628.838	17.34
629.029	17.21
629.221	17.03
629.413	17.04
629.605	16.89
629.797	16.83
629.989	16.94
630.18	17.02
630.372	17.03
630.564	17.08
630.755	17.11
630.947	17.07
631.139	16.96
631.33	16.9
631.522	16.88
631.714	16.75
631.905	16.68
632.097	16.66
632.289	16.66
632.48	16.73
632.672	16.67
632.863	16.65
633.055	16.59
633.246	16.61
633.438	16.43
633.629	16.49
633.821	16.49
634.012	16.54
634.203	16.48
634.395	16.51
634.586	16.48
634.777	16.37
634.969	16.34
635.16	16.28
635.351	16.2
635.543	16.19
635.734	16.22
635.925	16.23
636.117	16.25
636.308	16.29
636.499	16.26
636.69	16.29
636.881	16.26
637.073	16.31
637.264	16.26
637.455	16.22
637.646	16.16
637.837	16.16
638.028	16.11
638.219	16.21
638.41	16.21
638.601	16.25
638.792	16.23
638.983	16.16
639.174	16.05
639.365	16.06
639.556	15.94
639.747	15.86
639.938	15.91
640.129	15.92
640.32	15.81
640.511	15.83
640.701	15.9
640.892	15.87
641.083	15.81
641.274	15.88
641.465	15.84
641.655	15.74
641.846	15.68
642.037	15.59
642.228	15.51
642.418	15.43
642.609	15.45
642.8	15.43
642.99	15.43
643.181	15.4
643.372	15.46
643.562	15.34
643.753	15.35
643.943	15.29
644.134	15.19
644.324	15.21
644.515	15.27
644.705	15.21
644.896	15.32
645.086	15.42
645.277	15.37
645.467	15.31
645.658	15.21
645.848	15.08
646.038	15
646.229	14.98
646.419	14.96
646.61	15
646.8	15.02
646.99	15.04
647.18	14.96
647.371	14.9
647.561	14.8
647.751	14.76
647.941	14.72
648.132	14.75
648.322	14.72
648.512	14.85
648.702	14.95
648.892	14.86
649.082	14.82
649.272	14.76
649.462	14.75
649.653	14.6
649.843	14.68
650.033	14.69
650.223	14.71
650.413	14.69
650.603	14.74
650.793	14.62
650.983	14.56
651.172	14.53
651.362	14.37
651.552	14.31
651.742	14.32
651.932	14.33
652.122	14.32
652.312	14.36
652.502	14.24
652.691	14.23
652.881	14.14
653.071	14.07
653.261	13.91
653.45	13.92
653.64	13.79
653.83	13.74
654.019	13.69
654.209	13.6
654.399	13.48
654.588	13.44
654.778	13.3
654.968	13.19
655.157	13.15
655.347	13.03
655.536	12.87
655.726	12.7
655.915	12.5
656.105	12.46
656.294	12.41
656.484	12.28
656.673	12.26
656.863	12.28
657.052	12.13
657.241	12.03
657.431	11.95
657.62	11.86
657.809	11.6
657.999	11.52
658.188	11.34
658.377	11.22
658.567	11.05
658.756	11.04
658.945	10.9
659.134	10.8
659.324	10.57
659.513	10.36
659.702	10.16
659.891	10.01
660.08	9.92
660.269	9.89
660.458	9.84
660.648	9.7
660.837	9.51
661.026	9.3
661.215	9.12
661.404	8.97
661.593	8.91
661.782	8.79
661.971	8.63
662.16	8.6
662.349	8.47
662.538	8.3
662.726	8.28
662.915	8.35
663.104	8.21
663.293	8.16
663.482	8.06
663.671	7.92
663.86	7.75
664.048	7.7
664.237	7.62
664.426	7.69
664.615	7.6
664.803	7.5
664.992	7.41
665.181	7.41
665.369	7.2
665.558	7.2
665.747	7.24
665.935	7.21
666.124	7.14
666.312	7.13
666.501	7.08
666.69	6.97
666.878	6.9
667.067	6.76
667.255	6.77
667.444	6.8
667.632	6.82
667.82	6.85
668.009	6.83
668.197	6.77
668.386	6.63
668.574	6.59
668.762	6.48
668.951	6.54
669.139	6.55
669.327	6.53
669.516	6.59
669.704	6.74
669.892	6.7
670.08	6.67
670.269	6.72
670.457	6.68
670.645	6.51
670.833	6.55
671.021	6.67
671.21	6.67
671.398	6.75
671.586	6.85
671.774	6.97
671.962	6.99
672.15	7.05
672.338	7.06
672.526	7.09
672.714	7
672.902	6.94
673.09	7.05
673.278	7.04
673.466	7.15
673.654	7.24
673.842	7.41
674.03	7.38
674.218	7.45
674.405	7.44
674.593	7.48
674.781	7.52
674.969	7.68
675.157	7.81
675.344	8.01
675.532	8.11
675.72	8.22
675.908	8.21
676.095	8.24
676.283	8.28
676.471	8.3
676.658	8.35
676.846	8.39
677.033	8.42
677.221	8.32
677.409	8.44
677.596	8.5
677.784	8.63
677.971	8.66
678.159	8.82
678.346	8.78
678.534	8.82
678.721	8.89
678.909	9.04
679.096	9.11
679.283	9.3
679.471	9.47
679.658	9.53
679.846	9.59
680.033	9.76
680.22	9.83
680.408	9.82
680.595	9.89
680.782	9.99
680.969	10.14
681.157	10.29
681.344	10.33
681.531	10.5
681.718	10.62
681.905	10.78
682.093	10.9
682.28	11.21
682.467	11.39
682.654	11.58
682.841	11.76
683.028	11.81
683.215	11.99
683.402	12.07
683.589	12.27
683.776	12.32
683.963	12.51
684.15	12.56
684.337	12.72
684.524	12.92
684.711	13.11
684.898	13.37
685.085	13.76
685.271	14.23
685.458	14.24
685.645	14.4
685.832	14.75
686.019	14.88
686.205	15.12
686.392	15.53
686.579	15.9
686.766	16.22
686.952	16.57
687.139	16.67
687.326	17.01
687.512	17.33
687.699	17.7
687.886	17.92
688.072	18.33
688.259	18.71
688.445	19.23
688.632	19.58
688.818	20.11
689.005	20.45
689.191	20.98
689.378	21.28
689.564	21.85
689.751	22.27
689.937	22.93
690.124	23.43
690.31	23.98
690.496	24.19
690.683	24.81
690.869	25.31
691.055	25.78
691.242	26.33
691.428	27.13
691.614	27.6
691.8	28.22
691.987	28.82
692.173	29.4
692.359	29.96
692.545	30.61
692.731	31.26
692.918	31.88
693.104	32.54
693.29	32.89
693.476	33.6
693.662	34.16
693.848	34.81
694.034	35.32
694.22	36.18
694.406	36.6
694.592	37.18
694.778	37.55
694.964	38.31
695.15	38.71
695.336	39.25
695.522	39.75
695.708	40.66
695.894	41.09
696.08	41.82
696.265	42.53
696.451	43.07
696.637	43.6
696.823	44.35
697.009	44.96
697.194	45.77
697.38	46.64
697.566	47.1
697.751	47.69
697.937	48.39
698.123	49.02
698.308	49.19
698.494	49.78
698.68	50.21
698.865	50.68
699.051	51.04
699.236	51.78
699.422	52.38
699.607	53
699.793	53.54
699.978	53.99
700.164	54.38
700.349	54.97
700.535	55.12
700.72	55.41
700.906	55.91
701.091	56.56
701.276	56.65
701.462	57.6
701.647	58.17
701.832	58.68
702.018	58.91
702.203	59.59
702.388	59.81
702.573	60.08
702.759	60.09
702.944	60.23
703.129	60.42
703.314	60.61
703.499	61.09
703.684	61.72
703.87	62.54
704.055	63
704.24	63.31
704.425	63.53
704.61	63.88
704.795	64.07
704.98	63.98
705.165	64.54
705.35	65.06
705.535	65.46
705.72	65.71
705.905	66.48
706.09	66.66
706.275	66.79
706.459	67.05
706.644	67.33
706.829	67.71
707.014	68.17
707.199	68.42
707.384	68.38
707.568	68.33
707.753	68.66
707.938	68.58
708.123	68.73
708.307	69.22
708.492	69.81
708.677	69.56
708.861	69.72
709.046	69.97
709.231	70.05
709.415	70.2
709.6	70.46
709.784	70.8
709.969	71.38
710.153	71.42
710.338	71.81
710.522	72.34
710.707	72.59
710.891	72.4
711.076	72.67
711.26	72.81
711.445	72.7
711.629	72.87
711.813	73.46
711.998	73.87
712.182	73.82
712.366	74.04
712.551	74.23
712.735	73.85
712.919	73.87
713.103	74.24
713.288	74.2
713.472	73.97
713.656	74.28
713.84	74.32
714.024	74.3
714.208	74.25
714.393	74.74
714.577	74.88
714.761	75.09
714.945	75.34
715.129	75.98
715.313	75.75
715.497	76.03
715.681	76
715.865	75.83
716.049	75.72
716.233	75.92
716.417	75.77
716.601	76.13
716.785	76.53
716.968	76.64
717.152	76.89
717.336	76.95
717.52	76.95
717.704	77.08
717.888	77.47
718.071	77.58
718.255	77.92
718.439	77.81
718.622	77.94
718.806	78.01
718.99	78.18
719.174	78.35
719.357	78.62
719.541	78.79
719.724	78.57
719.908	78.62
720.092	78.4
720.275	78.14
720.459	78.13
720.642	77.85
720.826	77.67
721.009	77.65
721.193	77.81
721.376	77.81
721.559	78.53
721.743	78.76
721.926	79.2
722.11	79.88
722.293	80.3
722.476	79.7
722.66	80.34
722.843	80.14
723.026	80.48
723.21	80.37
723.393	81.12
723.576	80.75
723.759	81.04
723.942	80.5
724.126	80.16
724.309	80.14
724.492	80.27
724.675	80.24
724.858	80.61
725.041	81.16
725.224	81.82
725.407	81.66
725.59	81.59
725.774	81.21
725.957	81.3
726.14	80.34
726.322	80.72
726.505	80.74
726.688	81.04
726.871	80.99
727.054	82
727.237	82.15
727.42	81.62
727.603	81.69
727.786	81.4
727.968	80.56
728.151	80.34
728.334	81.66
728.517	81.95
728.699	82.74
728.882	83.3
729.065	83.28
729.248	82.94
729.43	83.18
729.613	83.15
729.796	83.54
729.978	83.42
730.161	83
730.343	82.81
730.526	82.74
730.708	82.79
730.891	83.19
731.073	83.62
731.256	83.88
731.438	84.59
731.621	84.14
731.803	84.12
731.986	84.56
732.168	84.9
732.35	84.5
732.533	84.91
732.715	84.99
732.898	84.46
733.08	83.93
733.262	83.89
733.444	84.16
733.627	84.73
733.809	85.5
733.991	85.72
734.173	85.15
734.355	84.6
734.538	85.06
734.72	84.94
734.902	85.2
735.084	85.61
735.266	86.05
735.448	85.71
735.63	85.87
735.812	85.85
735.994	86.27
736.176	86.35
736.358	86.18
736.54	86.95
736.722	86.62
736.904	86.34
737.086	85.82
737.268	86.34
737.45	86.36
737.632	86.19
737.814	87.04
737.995	88.05
738.177	88.59
738.359	87.94
738.541	88.49
738.723	87.86
738.904	87.93
739.086	87.82
739.268	87.94
739.449	87.75
739.631	87.54
739.813	86.91
739.994	85.6
740.176	86.33
740.358	87.02
740.539	86.7
740.721	86.72
740.902	87.39
741.084	87.05
741.265	86.62
741.447	87.64
741.628	87.54
741.81	88.22
741.991	88.23
742.172	87.72
742.354	87.07
742.535	87.89
742.717	86.29
742.898	85.67
743.079	86.56
743.261	87.06
743.442	85.97
743.623	86.49
743.804	86.65
743.986	86.73
744.167	86.59
744.348	87.05
744.529	87.22
744.71	86.7
744.891	85.86
745.073	85.98
745.254	86.32
745.435	87.18
745.616	87.62
745.797	87.47
745.978	87.08
746.159	86.97
746.34	85.87
746.521	86.12
746.702	87.62
746.883	87.86
747.064	87.35
747.245	88.4
747.426	87.58
747.606	86.52
747.787	86.99
747.968	86.83
748.149	85.33
748.33	85.53
748.51	84.76
748.691	84.09
748.872	85.5
749.053	85.9
749.233	85.91
749.414	87.71
749.595	89.58
749.775	88.53
749.956	89.09
750.137	89.09
750.317	87.75
750.498	86.31
750.678	85.54
750.859	86.34
751.04	87.04
751.22	86.08
751.4	86.16
751.581	87.32
751.761	86.96
751.942	87.44
752.122	88.15
752.303	87.77
752.483	87.93
752.663	87.63
752.844	86.78
753.024	87.99
753.204	87.77
753.385	86.84
753.565	86.44
753.745	85.46
753.925	83.66
754.106	84.01
754.286	83.88
754.466	83
754.646	82.98
754.826	84.97
755.006	84.24
755.187	85.47
755.367	84.81
755.547	85.93
755.727	85.76
755.907	85.78
756.087	84.54
756.267	85.37
756.447	86.07
756.627	85.62
756.807	86.88
756.987	87.08
757.167	88.34
757.346	87.02
757.526	87.3
757.706	86.35
757.886	86.56
758.066	85.93
758.246	85.08
758.425	83.88
758.605	83.41
758.785	83.67
758.965	83.82
759.144	82.85
759.324	83.01
759.504	83.85
759.683	83.36
759.863	82.68
760.043	83.58
760.222	84.15
760.402	82.42
760.581	82.8
760.761	83.99
760.94	84.7
761.12	84.37
761.299	86.31
761.479	86.58
761.658	85.49
761.838	86.21
762.017	87.03
762.197	85.09
762.376	84.72
762.555	84.99
762.735	85.51
762.914	83.43
763.093	83.39
763.273	82.5
763.452	81.09
763.631	79.54
763.81	80.66
763.99	80.55
764.169	80.8
764.348	81.58
764.527	81.76
764.706	81.17
764.885	82.65
765.064	82.94
765.243	82.39
765.423	83.33
765.602	84.03
765.781	82.84
765.96	82.68
766.139	83.86
766.318	83.18
766.497	82.37
766.676	80.07
766.854	80.56
767.033	79.62
767.212	80.37
767.391	82.62
767.57	87.09
767.749	86.2
767.928	87.27
768.106	85.47
768.285	82.78
768.464	81.05
768.643	80.24
768.821	79.26
769	79.29
769.179	80.15
769.357	80.05
769.536	81.4
769.715	80.4
769.893	81.69
770.072	80.17
770.25	79.43
770.429	78.81
770.607	79.55
770.786	77.4
770.964	79.23
771.143	81.42
771.321	80.47
771.5	82.74
771.678	84.08
771.857	81.49
772.035	81.07
772.213	81.58
772.392	76.9
772.57	76.76
772.748	77.73
772.927	76.65
773.105	76.71
773.283	79.96
773.461	80.8
773.64	81.56
773.818	81.6
773.996	82.97
774.174	81.46
774.352	78.11
774.531	77
774.709	77.78
774.887	74.38
775.065	74.57
775.243	77.11
775.421	78.06
775.599	78.37
775.777	80.38
775.955	80.56
776.133	81.09
776.311	79.84
776.489	79.11
776.667	79.36
776.844	77.52
777.022	76.65
777.2	77.92
777.378	74.52
777.556	75.51
777.734	79.26
777.911	79.57
778.089	79.88
778.267	82.86
778.445	83.65
778.622	82.3
778.8	80.17
778.978	80.75
779.155	82.22
779.333	79.42
779.511	77.14
779.688	77.66
779.866	77.91
780.043	77.42
780.221	77.88
780.398	77.68
780.576	78.01
780.753	74.58
780.931	72.08
781.108	74.34
781.286	76.9
781.463	76.24
781.64	78.7
781.818	82.08
781.995	78.03
782.172	77.62
782.35	78.21
782.527	76.74
782.704	74.31
782.882	74.15
783.059	71.71
783.236	74.52
783.413	75.04
783.59	76.71
783.768	78.48
783.945	81.01
784.122	79.57
784.299	79.62
784.476	78.13
784.653	78.08
784.83	74.76
785.007	73.97
785.184	72.74
785.361	72.86
785.538	69.59
785.715	75.83
785.892	72.94
786.069	75.51
786.246	75.77
786.423	78.38
786.6	75
786.776	78.52
786.953	77.97
787.13	79.31
787.307	79.6
787.484	76.53
787.66	76.43
787.837	75
788.014	74.02
788.191	72.16
788.367	72.93
788.544	71.58
788.721	67.62
788.897	66.78
789.074	68.88
789.25	63.74
789.427	63.22
789.603	62.8
789.78	64.22
789.956	61.98
790.133	64.63
790.309	67.66
790.486	71.04
790.662	71.38
790.839	70.99
791.015	74.88
791.192	71.61
791.368	70.56
791.544	70.3
791.721	73.66
791.897	71.48
792.073	70.73
792.249	71.9
792.426	68.36
792.602	66.08
792.778	65.05
792.954	65.99
793.13	65.96
793.307	64.78
793.483	62.53
793.659	62.18
793.835	64.25
794.011	69.13
794.187	74.93
794.363	75.24
794.539	77.91
794.715	75.44
794.891	71.83
795.067	72.2
795.243	73.88
795.419	72.06
795.595	75.98
795.771	74.69
795.947	70.55
796.122	66.71
796.298	66.62
796.474	64.77
796.65	69.35
796.826	69.73
797.001	76.61
797.177	71.97
797.353	69.58
797.529	64.14
797.704	61.59
797.88	56.46
798.056	62.44
798.231	62.94
798.407	66.59
798.582	68.88
798.758	71.04
798.934	71.37
799.109	69.38
799.285	64.58
799.46	64.47
799.636	64.85
799.811	67.46
799.986	69.84
800.162	70.07
800.337	71.21
800.513	71.53
800.688	68.8
800.863	77.84
801.039	78.26
801.214	73.41
801.389	71.5
801.565	69.95
801.74	62.6
801.915	64.46
802.09	65.84
802.265	68.88
802.441	66.37
802.616	69.05
802.791	70.22
802.966	75.57
803.141	73.81
803.316	78.83
803.491	74.59
803.666	71.44
803.841	62.92
804.016	61.25
804.191	59.92
804.366	59.87
804.541	62.72
804.716	70.22
804.891	72.03
805.066	72.06
805.241	69.65
805.416	72.31
805.591	67.86
805.765	71.59
805.94	64.57
806.115	72.91
806.29	64.36
806.464	62.14
806.639	54.6
806.814	58.33
806.989	53.55
807.163	59.42
807.338	62.85
807.512	67.65
807.687	71.52
807.862	72.84
808.036	76.2
808.211	81.03
808.385	79.54
808.56	68.82
808.734	62.84
808.909	58.57
809.083	55.95
809.258	62.73
809.432	60.93
809.606	65.47
809.781	69
809.955	70.56
810.13	66.48
810.304	73.06
810.478	73.13
810.652	69.18
810.827	65.32
811.001	58.7
811.175	59.47
811.349	57.55
811.524	57.01
811.698	52.8
811.872	58.39
812.046	56.03
812.22	51.9
812.394	47.65
812.568	56.03
812.742	58.86
812.916	65.49
813.09	67.35
813.264	68.18
813.438	63.15
813.612	59.15
813.786	50.62
813.96	58.19
814.134	61.91
814.308	66.85
814.482	72.34
814.656	70.5
814.83	63.96
815.003	60.97
815.177	57.8
815.351	58.85
815.525	70.67
815.698	63.98
815.872	59.33
816.046	57.7
816.219	57.66
816.393	50.61
816.567	55.62
816.74	55.29
816.914	64.21
817.088	65.62
817.261	68.16
817.435	71.04
817.608	73.48
817.782	55.51
817.955	49.58
818.129	49.88
818.302	56.1
818.475	59.17
818.649	67.3
818.822	63.03
818.996	62.72
819.169	59.32
819.342	53.96
819.516	59.74
819.689	62.41
819.862	65.21
820.035	61.99
820.209	65.25
820.382	59.54
820.555	58.59
820.728	55.55
820.901	47.18
821.075	56.8
821.248	56.95
821.421	57.81
821.594	60.88
821.767	61.37
821.94	55.88
822.113	54.25
822.286	64.31
822.459	54.02
822.632	62.57
822.805	63.22
822.978	67.35
823.151	51.82
823.324	51.05
823.496	45.49
823.669	41.36
823.842	37.96
824.015	37.84
824.188	28.64
824.361	39.31
824.533	39.51
824.706	41.66
824.879	50.28
825.051	64.34
825.224	59.47
825.397	56.87
825.569	56.58
825.742	51.32
825.915	49.5
826.087	46.02
826.26	49.15
826.432	49.34
826.605	48.71
826.777	48.61
826.95	55.88
827.122	45.85
827.295	28.75
827.467	24.4
827.64	9.65
827.812	-15.9
827.984	1.27
828.157	20.06
828.329	42.35
828.501	32.71
828.674	44.44
828.846	42.38
829.018	55.45
829.19	38.13
829.363	52.13
829.535	58.78
829.707	57.41
829.879	46.75
830.051	51.23
830.223	58.01
830.395	41.65
830.568	37.12
830.74	40.32
830.912	53.47
831.084	48.76
831.256	48.15
831.428	54.35
831.6	40.99
831.772	15.75
831.943	8.96
832.115	22.26
832.287	39.54
832.459	38.74
832.631	57.18
832.803	62.33
832.975	54.97
833.146	35.19
833.318	40.79
833.49	39.23
833.662	41.11
833.833	49.21
834.005	61.53
834.177	60.23
834.348	42.04
834.52	33.2
834.692	17.17
834.863	12.36
835.035	14.7
835.206	21.9
835.378	27.67
835.549	43.14
835.721	45.79
835.892	52.17
836.064	54.73
836.235	61.05
836.407	55.13
836.578	47.85
836.749	31.51
836.921	33.39
837.092	24.36
837.264	34.5
837.435	41.52
837.606	44.34
837.777	51.9
837.949	59.8
838.12	49.28
838.291	48.04
838.462	49.17
838.633	38.64
838.805	14.13
838.976	29.69
839.147	24.57
839.318	22.28
839.489	15.75
839.66	42.44
839.831	41.4
840.002	45.07
840.173	44.44
840.344	46.18
840.515	25.62
840.686	22.94
840.857	18.69
841.028	11.9
841.199	6.23
841.369	17.69
841.54	-13.68
841.711	23.24
841.882	68.96
842.053	58.86
842.223	58.38
842.394	59.94
842.565	24.23
842.736	3.11
842.906	6.24
843.077	13.37
843.248	20.61
843.418	49.1
843.589	60.13
843.759	69.41
843.93	73.59
844.101	72.51
844.271	77.85
844.442	74.02
844.612	75.36
844.783	61.96
844.953	58.62
845.123	41.24
845.294	39.74
845.464	7.55
845.635	-12.66
845.805	-9.94
845.975	5.19
846.146	-7.08
846.316	1.02
846.486	31.49
846.656	32.02
846.827	50.59
846.997	40.42
847.167	48.46
847.337	30.62
847.507	28.53
847.677	8.06
847.848	37.77
848.018	40.88
848.188	53
848.358	50.99
848.528	78.87
848.698	54.4
848.868	64.94
849.038	52.88
849.208	69.5
849.378	60.61
849.548	48.83
849.718	15.59
849.887	19.15
850.057	-12.37
850.227	-12.67
850.397	34.8
850.567	32.82
850.737	52.72
850.906	47.28
851.076	20.45
851.246	27.4
851.415	31.76
851.585	24.18
851.755	43.83
851.924	58.25
852.094	58.68
852.264	59.38
852.433	49.81
852.603	35.16
852.772	49.09
852.942	58.48
853.111	33.79
853.281	43.37
853.45	39.93
853.62	39.78
853.789	8.35
853.959	32.22
854.128	25.39
854.297	33.39
854.467	23.23
854.636	23.52
854.805	11.37
854.975	3.85
855.144	-10.09
855.313	17.99
855.482	16
855.652	2.01
855.821	29.56
855.99	57.4
856.159	25.81
856.328	42.1
856.497	54.7
856.667	32.83
856.836	36.61
857.005	21.29
857.174	17.07
857.343	-5.57
857.512	4.59
857.681	-18.57
857.85	-1.02
858.019	-16.39
858.188	-11.25
858.356	-7.64
858.525	-6.59
858.694	14.52
858.863	21.33
859.032	24.47
859.201	6.87
859.369	17.03
859.538	28.16
859.707	12.82
859.876	27.35
860.044	61.03
860.213	65.79
860.382	48.46
860.55	51.6
860.719	61.96
860.888	42.82
861.056	41.8
861.225	16.72
861.393	31.47
861.562	10.84
861.73	8.63
861.899	-6.82
862.067	1.07
862.236	-15.17
862.404	-0.2
862.572	-3.17
862.741	-0.65
862.909	-15.57
863.078	-6.77
863.246	-19.16
863.414	-1.78
863.582	24.62
863.751	34
863.919	30.34
864.087	26.8
864.255	25.12
864.424	-7.29
864.592	19.49
864.76	15.05
864.928	47.43
865.096	36.26
865.264	28.29
865.432	17.82
865.6	71.42
865.768	57.34
865.936	45.8
866.104	42.45
866.272	31.68
866.44	-60.01
866.608	-42.11
866.776	-47.44
866.944	-18.78
867.112	6.21
867.28	44.29
867.448	52.85
867.615	49.86
867.783	-4.72
867.951	-4.58
868.119	-34.07
868.286	-59.01
868.454	-16.61
868.622	16.62
868.789	21.42
868.957	29.82
869.125	19.19
869.292	-18.04
869.46	12.67
869.627	1.8
869.795	-77.8
869.963	-49.86
870.13	-17.63
870.298	-9.74
870.465	-12.42
870.632	9.79
870.8	2.07
870.967	9.58
871.135	-15.43
871.302	11.92
871.469	36.24
871.637	77.5
871.804	70.03
871.971	50.08
872.139	31.1
872.306	15.54
872.473	-3.22
872.64	-135.59
872.807	-145.99
872.975	-309.57
873.142	-104.33
873.309	-71.85
873.476	12.72
873.643	60.1
873.81	31.34
873.977	4.22
874.144	57.08
874.311	-12.15
874.478	-71.37
874.645	-61.27
874.812	47.5
874.979	-18.83
875.146	10.02
875.313	15.46
875.48	44.23
875.647	5.46
875.813	14.42
875.98	-23.92
876.147	-61.32
876.314	-31.67
876.481	-51.39
876.647	-27.28
876.814	2.26
876.981	16.66
877.147	-0.21
877.314	17.64
877.481	22.94
877.647	24.55
877.814	-5.06
877.98	-10.41
878.147	11.48
878.314	26.31
878.48	38.71
878.647	64.01
878.813	80.72
878.979	78.51
879.146	67.79
879.312	81.12
879.479	79.19
879.645	63.25
879.811	43.21
879.978	32.6
880.144	18.7
880.31	9.08
880.477	11.04
880.643	17.64
880.809	-41.46
880.975	1.45
881.142	-46.36
881.308	274.02
881.474	443.68
881.64	-46.53
881.806	-164.71
881.972	-79.88
882.138	-24.89
882.304	-40.01
882.47	-44.48
882.636	-47.27
882.802	-57.77
882.968	-90.74
883.134	-57.16
883.3	-60.16
883.466	-20.85
883.632	45.12
883.798	36.31
883.964	110.78
884.129	682.97
884.295	127.15
884.461	22.95
884.627	54.51
884.793	26.49
884.958	26.41
885.124	-7.52
885.29	-58.96
885.455	-116.48
885.621	-32.14
885.787	-21.33
885.952	-22.81
886.118	41.43
886.283	48.16
886.449	7.93
886.614	-1.98
886.78	-15.7
886.945	-69.63
887.111	-102.54
887.276	-100.69
887.442	-193.36
887.607	-98.64
887.773	-47.48
887.938	-8.5
888.103	7.84
888.269	36.55
888.434	25.77
888.599	8.69
888.764	19.42
888.93	9.92
889.095	-2.03
889.26	-11.02
889.425	-10.02
889.59	-48.81
889.756	-39.81
889.921	-59.48
890.086	-95.25
890.251	-108.79
890.416	-68.94
890.581	-98.56
890.746	15.5
890.911	27.95
891.076	36.91
891.241	50.89
891.406	77.94
891.571	77.67
891.736	37.29
891.901	62.46
892.065	23.9
892.23	21.89
892.395	-16.58
892.56	-12.81
892.725	-32.77
892.889	69.96
893.054	4.26
893.219	27.1
893.384	37.44
893.548	-7.62
893.713	-28.44
893.878	-37.17
