Data from Ofra_PS_T2_1A_9GT30_Reflection_3.txt Node
Date: Wed Jul 21 18:19:47 EDT 2021
User: Adam
Spectrometer: FLMT01687
Trigger mode: 0
Integration Time (sec): 1.100000E0
Scans to average: 2
Electric dark correction enabled: true
Nonlinearity correction enabled: false
Boxcar width: 2
XAxis mode: Wavelengths
Number of Pixels in Spectrum: 3648
>>>>>Begin Spectral Data<<<<<
179.494	494
179.716	617.18
179.937	567.44
180.158	545.37
180.38	836.56
180.601	447.79
180.823	115.98
181.044	-8.29
181.265	88.6
181.486	114.34
181.708	31.99
181.929	135.71
182.15	-482.39
182.372	54.56
182.593	64.63
182.814	26.76
183.035	40.61
183.257	38.24
183.478	-85
183.699	-54.07
183.92	-94.56
184.141	-71.47
184.363	-93.37
184.584	-25.38
184.805	4.26
185.026	36.15
185.247	45.06
185.468	26.51
185.689	14.98
185.91	20.07
186.132	-1.42
186.353	-8.94
186.574	19.35
186.795	14.18
187.016	-66.03
187.237	-42.94
187.458	-98.98
187.679	-117.57
187.9	-57.94
188.121	-12.56
188.342	-18.72
188.563	39.05
188.784	86.18
189.005	50.56
189.226	50.42
189.447	43.05
189.667	-109.47
189.888	-320.94
190.109	-1418.83
190.33	-791.94
190.551	-1503.1
190.772	-426.51
190.993	-325.18
191.214	-228.06
191.434	-140.47
191.655	-20.31
191.876	-3.29
192.097	-60.4
192.318	-97.85
192.538	-159.38
192.759	-136.36
192.98	-58.89
193.201	-9.12
193.421	6.36
193.642	26.61
193.863	26.81
194.083	0.16
194.304	-14.99
194.525	-22.41
194.745	-63.43
194.966	-86.32
195.187	-73.81
195.407	-117.59
195.628	-161.37
195.848	-132.32
196.069	-118.96
196.29	-64.81
196.51	-53.45
196.731	-49.65
196.951	-73.51
197.172	-96.52
197.392	-115.53
197.613	-130.42
197.833	-167.67
198.054	-144.41
198.274	-86.47
198.495	-117.7
198.715	-68.74
198.936	-91.87
199.156	-71.04
199.377	-164.66
199.597	-134.79
199.817	-191.66
200.038	-98.72
200.258	-174.9
200.479	-94.17
200.699	-91.25
200.919	-0.84
201.14	-13.22
201.36	-14.9
201.58	7.34
201.801	26.77
202.021	-12.56
202.241	-26.1
202.461	-27.22
202.682	-148.11
202.902	-215.89
203.122	-125.26
203.342	-103.46
203.563	-57.19
203.783	11.68
204.003	0.86
204.223	-6.77
204.443	37.72
204.663	22.12
204.884	-14.19
205.104	12.92
205.324	30.26
205.544	13.57
205.764	48.56
205.984	35.64
206.204	37.6
206.424	35.36
206.644	8.52
206.864	2.07
207.084	-25
207.304	-48.66
207.525	-174.53
207.745	-75.52
207.964	-26.39
208.184	-51.2
208.404	-71.55
208.624	-78.49
208.844	-93.15
209.064	-400.35
209.284	-419.04
209.504	-283.77
209.724	-126.49
209.944	-85.48
210.164	-45.66
210.384	-25.19
210.604	-24.62
210.823	-47.08
211.043	-59.84
211.263	-39.89
211.483	-35.04
211.703	-66
211.922	-79.51
212.142	-21.92
212.362	-28.69
212.582	-43.37
212.801	-54.17
213.021	-50.29
213.241	-76.38
213.461	-108.84
213.68	-116.68
213.9	-68.14
214.12	-31.17
214.339	-72.08
214.559	-43.02
214.779	-6.71
214.998	-4.97
215.218	-57.97
215.438	-21.86
215.657	-26.11
215.877	-57.64
216.096	-33.32
216.316	-25.76
216.535	-53.48
216.755	-55.08
216.974	-132
217.194	-191.25
217.413	-183.7
217.633	-189.76
217.852	-318.52
218.072	-140.07
218.291	-81.69
218.511	-17.23
218.73	-30.21
218.95	-24.05
219.169	-28.27
219.389	-54.45
219.608	-47.87
219.827	-31.93
220.047	2.37
220.266	9.68
220.485	8.06
220.705	12.66
220.924	-18.42
221.143	0.26
221.363	-24.58
221.582	-19.09
221.801	-24.06
222.021	-4.21
222.24	-81.35
222.459	-62.05
222.678	-81.17
222.897	-125.4
223.117	-192.25
223.336	-181.88
223.555	-113.82
223.774	-68.11
223.993	-83.91
224.213	18.27
224.432	18.15
224.651	40.45
224.87	7.43
225.089	27.65
225.308	7.68
225.527	21.68
225.746	9.94
225.965	18.51
226.184	-18.68
226.404	5.39
226.623	-21.46
226.842	-23.01
227.061	-3.75
227.28	10.67
227.499	-3.84
227.718	10.45
227.936	7.73
228.155	6.61
228.374	-3.97
228.593	3.02
228.812	-3.31
229.031	-8.81
229.25	-60.13
229.469	-64.79
229.688	-75.8
229.907	-38.88
230.125	-12.26
230.344	14.32
230.563	28.28
230.782	45.97
231.001	-15.46
231.22	-29.67
231.438	-0.26
231.657	-4.73
231.876	-14.2
232.095	38.68
232.313	51.61
232.532	18.74
232.751	-17.41
232.969	-39.97
233.188	-115.28
233.407	-62.85
233.625	-19.74
233.844	-8.76
234.063	12.59
234.281	20.88
234.5	5.01
234.719	3.18
234.937	16.56
235.156	14.17
235.374	18.82
235.593	9.6
235.811	-2.93
236.03	-16.1
236.249	-57.21
236.467	-74.61
236.686	-27.61
236.904	-15.86
237.123	-37.2
237.341	-30.49
237.559	-16.32
237.778	-35.11
237.996	-57.16
238.215	-26.58
238.433	-16.92
238.652	-33.88
238.87	-43.73
239.088	-32.3
239.307	-31.15
239.525	-43.26
239.743	-57.13
239.962	-47.89
240.18	-44.6
240.398	-65.62
240.617	-66.6
240.835	-46.16
241.053	-26.07
241.271	-10.9
241.49	9.32
241.708	5.23
241.926	-12.77
242.144	-14.22
242.363	-56.26
242.581	-92.58
242.799	-58.75
243.017	-27.71
243.235	-58.65
243.453	-46.64
243.672	-49.62
243.89	-44.41
244.108	-52.22
244.326	-25.52
244.544	-27.79
244.762	-13.67
244.98	-33.61
245.198	-38.24
245.416	-57.16
245.634	-45.9
245.852	-70.6
246.07	-52.78
246.288	-50.26
246.506	-66.68
246.724	-72.1
246.942	-57.55
247.16	-23.45
247.378	-20.94
247.596	-10.25
247.814	13.41
248.032	1.75
248.25	-11.53
248.468	11.15
248.685	36.11
248.903	38.1
249.121	38.93
249.339	16.27
249.557	-0.83
249.775	-4.84
249.992	-68.55
250.21	-64.26
250.428	-40.19
250.646	-83.66
250.863	-104.97
251.081	-68.46
251.299	-63.81
251.517	-63.03
251.734	-36.68
251.952	-40.15
252.17	-35.55
252.387	-25.32
252.605	-34.79
252.823	-17.35
253.04	4.02
253.258	21.34
253.475	2.19
253.693	21.44
253.911	8.32
254.128	1.81
254.346	-30.71
254.563	-14.72
254.781	-32.56
254.998	-43.35
255.216	-38.03
255.433	-15.45
255.651	16.45
255.868	29.21
256.086	48.39
256.303	33.32
256.521	27.26
256.738	-4.24
256.956	-26.46
257.173	-67.35
257.39	-88.25
257.608	-119.27
257.825	-39.39
258.043	-18.28
258.26	14
258.477	45.11
258.695	41.91
258.912	-15.49
259.129	-0.03
259.346	-31.4
259.564	-61.31
259.781	-87.45
259.998	-30.96
260.216	-31.25
260.433	1.76
260.65	4.56
260.867	24.2
261.084	-10.87
261.302	-22.2
261.519	-22.29
261.736	-27.39
261.953	-46.71
262.17	-11.08
262.387	-27.27
262.604	-78.66
262.822	-90.89
263.039	-51.63
263.256	-108.34
263.473	-78.33
263.69	-29.75
263.907	6.61
264.124	12.41
264.341	14.75
264.558	8.81
264.775	13.24
264.992	6.47
265.209	-18.45
265.426	6.95
265.643	15.16
265.86	12.43
266.077	-2.43
266.294	5.95
266.51	-28.71
266.727	-59.27
266.944	-55.32
267.161	-39.94
267.378	-38.96
267.595	-10.86
267.812	-17.94
268.028	-37.54
268.245	-18.92
268.462	-34.35
268.679	-50.07
268.896	2.56
269.112	4.16
269.329	-2.5
269.546	-3.12
269.763	-6.88
269.979	-32.07
270.196	-19.97
270.413	-60.31
270.629	-72.87
270.846	-61.55
271.063	-47.4
271.279	-67.21
271.496	-46.22
271.712	-11.47
271.929	-1.02
272.146	-30.39
272.362	-1.95
272.579	17.68
272.795	22.1
273.012	12.09
273.228	32.79
273.445	-14.64
273.661	-60.28
273.878	-89.08
274.094	-56.52
274.311	-90.29
274.527	-6.01
274.744	10.05
274.96	11.9
275.177	11.7
275.393	35.52
275.609	21.58
275.826	39.04
276.042	46.92
276.259	17.82
276.475	16.28
276.691	10.01
276.908	-11.44
277.124	-13.73
277.34	-6.21
277.557	-20.81
277.773	-22.79
277.989	-27.19
278.205	-29.16
278.422	-7.49
278.638	0.85
278.854	17.1
279.07	9.72
279.286	-1.19
279.503	-34.99
279.719	-52.12
279.935	-70.38
280.151	-65.13
280.367	-17.41
280.583	-25.77
280.799	-21.01
281.016	-38.61
281.232	-16.33
281.448	-27.25
281.664	-5.01
281.88	-41.68
282.096	-16.41
282.312	2
282.528	0.21
282.744	2.54
282.96	28.88
283.176	13.88
283.392	4.07
283.608	0.27
283.824	-18.7
284.04	-17.02
284.256	3.79
284.471	-0.69
284.687	6.43
284.903	39.77
285.119	51.59
285.335	10.87
285.551	17.41
285.767	-11.59
285.982	-50.27
286.198	-97.44
286.414	-25.91
286.63	-32.49
286.846	-3.94
287.061	-2.23
287.277	24.08
287.493	-13.45
287.709	15.88
287.924	-3.2
288.14	25.03
288.356	13.03
288.571	43.91
288.787	11.71
289.003	10.37
289.218	-11.57
289.434	-38.5
289.65	-54.49
289.865	-50.17
290.081	-21.34
290.296	-0.25
290.512	2.4
290.727	-18.17
290.943	-31.31
291.159	-37
291.374	-38.74
291.59	-55.38
291.805	-30.01
292.021	-11.55
292.236	-9.14
292.451	-5.78
292.667	11.17
292.882	8.42
293.098	5.6
293.313	-26.74
293.529	-42.5
293.744	-45.61
293.959	-49.87
294.175	-49.81
294.39	-3.22
294.605	11.25
294.821	27.67
295.036	33.68
295.251	32.69
295.467	-8.16
295.682	-21.38
295.897	-81
296.112	-96.14
296.328	-77.84
296.543	-86.3
296.758	-81.6
296.973	-25.44
297.188	13.89
297.404	-13.54
297.619	-28.48
297.834	-38.68
298.049	-68.35
298.264	-102.01
298.479	-39.59
298.694	-22.44
298.909	-1.06
299.125	17.19
299.34	31.19
299.555	15.74
299.77	35
299.985	-14.12
300.2	-79.53
300.415	-99.51
300.63	-76.45
300.845	-79.09
301.06	-74.4
301.275	-27.51
301.49	-1.21
301.704	-12.84
301.919	-24.57
302.134	-17.32
302.349	-18.13
302.564	-84.5
302.779	-88.45
302.994	-85.66
303.209	-45.14
303.423	-53.91
303.638	17.32
303.853	-9.29
304.068	-10.96
304.283	-31.95
304.497	-23.03
304.712	-37.34
304.927	-24.05
305.142	-24.93
305.356	-9.63
305.571	-19.29
305.786	-23.63
306	-46.19
306.215	-38.2
306.43	-66.6
306.644	-57.8
306.859	-14.79
307.074	12.81
307.288	-12.6
307.503	-19.45
307.717	-33.26
307.932	-38.35
308.147	-46.99
308.361	-22.07
308.576	-16.04
308.79	-44.65
309.005	-41.51
309.219	-29.49
309.434	-52.87
309.648	-59.07
309.863	-33.06
310.077	-41.07
310.292	-47.81
310.506	-43.23
310.72	-15.43
310.935	-5.17
311.149	-4.25
311.364	19.14
311.578	25.02
311.792	10.04
312.007	16.96
312.221	3.5
312.435	-6.12
312.649	-17.69
312.864	4.11
313.078	12.16
313.292	31.3
313.507	1.56
313.721	32.5
313.935	13.6
314.149	-3.67
314.363	9.54
314.578	15.03
314.792	14.43
315.006	-10.82
315.22	5.11
315.434	-0.45
315.648	9
315.862	4.91
316.077	15
316.291	-2.48
316.505	6.5
316.719	-6.55
316.933	-19.18
317.147	-3.31
317.361	-40.92
317.575	-67.5
317.789	-93.41
318.003	-128.09
318.217	-119.72
318.431	-40.13
318.645	2.29
318.859	4.15
319.073	14.75
319.287	0.27
319.5	-34.24
319.714	-78.95
319.928	-94.41
320.142	-105.03
320.356	-37.94
320.57	4.12
320.784	24.82
320.997	-0.4
321.211	-16.48
321.425	-76.06
321.639	-114.05
321.853	-63.54
322.066	-22.94
322.28	-22.83
322.494	-15.23
322.707	6.33
322.921	0.49
323.135	2.65
323.349	27.95
323.562	16.93
323.776	9.32
323.989	5.09
324.203	-38.08
324.417	-58.9
324.63	-77.54
324.844	-77.89
325.057	-88.38
325.271	-56.08
325.485	-19.37
325.698	5.41
325.912	15.23
326.125	-8.31
326.339	-2.75
326.552	-26.04
326.766	-24.07
326.979	-17.06
327.193	24.15
327.406	12.44
327.619	2.16
327.833	14.5
328.046	-4.81
328.26	-37.77
328.473	-17.9
328.686	-34.97
328.9	-58.85
329.113	-39.86
329.326	-56.42
329.54	-46.3
329.753	-41.19
329.966	-63.01
330.179	-55.26
330.393	-22.07
330.606	-15.78
330.819	-2.62
331.032	8.82
331.246	11.68
331.459	25.22
331.672	3.96
331.885	-8.88
332.098	-18.88
332.311	-46.07
332.525	-79.73
332.738	-47.74
332.951	-23.36
333.164	-5.47
333.377	17.44
333.59	29.04
333.803	25.1
334.016	16.67
334.229	9.92
334.442	7.55
334.655	8.3
334.868	10.24
335.081	5.49
335.294	-12.56
335.507	-29.35
335.72	-37.44
335.933	-40.5
336.146	-43.6
336.359	-30.25
336.572	-28.71
336.785	-42.11
336.997	-41.56
337.21	-9.68
337.423	-19.03
337.636	-19.72
337.849	6.65
338.062	-2.49
338.274	-13.7
338.487	-6.41
338.7	-7.08
338.913	-60.49
339.125	-77.25
339.338	-130.03
339.551	-114.28
339.763	-81.19
339.976	-50.18
340.189	-21.01
340.402	-5.54
340.614	-9.19
340.827	-17.61
341.039	-36.4
341.252	-38.07
341.465	-21.82
341.677	-16.59
341.89	-36.54
342.102	-20.7
342.315	-36.88
342.527	-73.45
342.74	-77.43
342.952	-49.18
343.165	-39.75
343.377	-12.59
343.59	-11.5
343.802	8.07
344.015	12.74
344.227	27.47
344.44	6.26
344.652	18.66
344.864	-7.07
345.077	6.43
345.289	-1.74
345.502	7.15
345.714	-8.02
345.926	2.96
346.139	-10.53
346.351	-0.3
346.563	5.99
346.775	14.73
346.988	-5
347.2	-16.78
347.412	-54.73
347.624	-57.13
347.837	-77.8
348.049	-49.25
348.261	-19.51
348.473	-8.42
348.685	-23.17
348.897	-29.54
349.11	-41.15
349.322	-75.44
349.534	-60.18
349.746	-58.72
349.958	-34.28
350.17	-29.51
350.382	-3.66
350.594	-15.81
350.806	-13.22
351.018	-6.53
351.23	-26.66
351.442	-78.74
351.654	-72.96
351.866	-58.42
352.078	-59.37
352.29	-27.35
352.502	-0.3
352.714	3.44
352.926	-9.96
353.138	-12.32
353.35	-20.47
353.561	-19.19
353.773	-35.27
353.985	-16.79
354.197	-25.07
354.409	-21.15
354.621	-19.92
354.832	-12.83
355.044	-32.8
355.256	-33.14
355.468	-18.31
355.679	-34.68
355.891	-29.27
356.103	-24.92
356.314	-13.95
356.526	-14.53
356.738	0.33
356.949	-7.99
357.161	0.33
357.373	-17.27
357.584	-37.29
357.796	-24.62
358.008	-32.17
358.219	-16.11
358.431	-6.49
358.642	11.34
358.854	3.64
359.065	4.72
359.277	-26.11
359.488	-36.06
359.7	-76.8
359.911	-92.56
360.123	-62.58
360.334	-65.91
360.546	-78.02
360.757	-56.08
360.969	-32.8
361.18	-16.4
361.391	-11.79
361.603	-6.68
361.814	-0.58
362.025	5.12
362.237	-17.59
362.448	-11.15
362.659	2.28
362.871	-5.24
363.082	-15.56
363.293	-12.46
363.504	-24.09
363.716	-58.97
363.927	-67.98
364.138	-92.65
364.349	-96.97
364.56	-78.64
364.772	-49.21
364.983	-16.65
365.194	-7.79
365.405	3.01
365.616	11.45
365.827	6.17
366.038	-28.84
366.25	-28.17
366.461	-60.28
366.672	-32.47
366.883	-22.04
367.094	-0.93
367.305	-12.48
367.516	-0.02
367.727	-29.17
367.938	-36.29
368.149	-39.07
368.36	-21.05
368.571	-18.21
368.781	-25.52
368.992	-45.17
369.203	-57.65
369.414	-78.71
369.625	-85.03
369.836	-84.32
370.047	-84.94
370.258	-81.53
370.468	-84.74
370.679	-98
370.89	-78.86
371.101	-51.21
371.312	-44.03
371.522	-24.14
371.733	-19.89
371.944	-17.17
372.155	-25.63
372.365	-29.4
372.576	-36.96
372.787	-31.35
372.997	-49.36
373.208	-41.49
373.419	-16.23
373.629	-37.47
373.84	-32.1
374.05	-28.35
374.261	-27.41
374.472	-56.39
374.682	1.86
374.893	6.5
375.103	35.44
375.314	32.77
375.524	38.81
375.735	32.32
375.945	29.44
376.156	2.72
376.366	2.85
376.577	-4.36
376.787	-18.61
376.997	-14.24
377.208	-6.26
377.418	-11.98
377.629	-1.08
377.839	4.17
378.049	-1.25
378.26	2.35
378.47	5.36
378.68	-8.38
378.89	-21.14
379.101	-30.35
379.311	-60.58
379.521	-81.44
379.732	-75.93
379.942	-67
380.152	-83.73
380.362	-48.05
380.572	-46.92
380.783	-26.48
380.993	-19.38
381.203	-9.53
381.413	-20.3
381.623	-2.71
381.833	-7.82
382.043	-10.25
382.253	-10.97
382.463	-2.69
382.674	-17.49
382.884	-36.95
383.094	-42.28
383.304	-38.44
383.514	-33.67
383.724	-16.47
383.934	-12.31
384.144	-19.58
384.353	-18.58
384.563	-17.57
384.773	-22.85
384.983	-27.76
385.193	-4.68
385.403	3.75
385.613	0.82
385.823	-8.18
386.033	-1.53
386.242	-7.97
386.452	-20.41
386.662	-28.46
386.872	-14.28
387.082	-22.53
387.291	-32.49
387.501	-28.6
387.711	-17.12
387.921	-27.85
388.13	-21.27
388.34	-6.3
388.55	-9.25
388.759	-13.85
388.969	-10.08
389.179	-9.41
389.388	-13.11
389.598	-6.32
389.807	-11.81
390.017	-11.4
390.227	-11.1
390.436	-11.14
390.646	-14.36
390.855	-8.14
391.065	-8.09
391.274	-10.83
391.484	-13.95
391.693	-9.78
391.903	-8.04
392.112	-3.15
392.322	0.57
392.531	4.57
392.74	2.81
392.95	-1.67
393.159	-4.2
393.369	-3.68
393.578	-4.69
393.787	-4.74
393.997	-1.35
394.206	-2.05
394.415	-2.15
394.625	-2.67
394.834	-3.91
395.043	-3.52
395.252	-0.47
395.462	0.54
395.671	1.51
395.88	2.59
396.089	3.82
396.298	1.26
396.508	1.07
396.717	0.92
396.926	1.12
397.135	0.25
397.344	0.23
397.553	0.97
397.762	2.02
397.971	2.27
398.181	2.24
398.39	1.97
398.599	1.73
398.808	1.51
399.017	2.22
399.226	3.1
399.435	4.82
399.644	4.77
399.853	3.81
400.062	3.37
400.27	2.91
400.479	2.04
400.688	1.21
400.897	1.92
401.106	1.76
401.315	1.7
401.524	1.91
401.733	2.35
401.941	2.58
402.15	3
402.359	2.88
402.568	2.95
402.777	3.3
402.985	2.86
403.194	2.52
403.403	2.52
403.612	2.3
403.82	2.21
404.029	2.55
404.238	2.5
404.446	2.63
404.655	2.55
404.864	2.5
405.072	2.29
405.281	2.57
405.489	2.29
405.698	2.35
405.906	2.28
406.115	2.28
406.324	1.98
406.532	2.11
406.741	2.29
406.949	2.36
407.158	2.29
407.366	2.42
407.574	2.47
407.783	2.39
407.991	2.15
408.2	2.45
408.408	2.36
408.617	2.22
408.825	2.16
409.033	2.27
409.242	2.11
409.45	2.17
409.658	2.24
409.867	2.26
410.075	2.18
410.283	2.13
410.491	2.15
410.7	2.08
410.908	2.09
411.116	2.44
411.324	2.35
411.533	2.24
411.741	2.4
411.949	2.43
412.157	2.07
412.365	2.19
412.573	2.31
412.781	2.39
412.99	2.36
413.198	2.45
413.406	2.41
413.614	2.39
413.822	2.12
414.03	2.1
414.238	2.04
414.446	2.09
414.654	1.84
414.862	1.93
415.07	1.99
415.278	2.21
415.486	2.08
415.694	2.36
415.902	2.39
416.109	2.27
416.317	2.16
416.525	2.08
416.733	2.01
416.941	2.08
417.149	2
417.357	1.98
417.564	2.18
417.772	2.4
417.98	2.38
418.188	2.42
418.395	2.53
418.603	2.69
418.811	2.28
419.019	2.09
419.226	2.15
419.434	2.25
419.642	1.88
419.849	2.05
420.057	2.09
420.265	2.19
420.472	1.81
420.68	1.92
420.887	1.85
421.095	1.92
421.302	1.76
421.51	2.07
421.717	2.1
421.925	2.2
422.132	2.05
422.34	1.87
422.547	1.74
422.755	1.67
422.962	1.54
423.17	1.48
423.377	1.68
423.585	1.69
423.792	1.67
423.999	1.69
424.207	1.71
424.414	1.77
424.621	1.75
424.829	1.67
425.036	1.72
425.243	1.86
425.451	1.83
425.658	1.8
425.865	2.06
426.072	2.02
426.28	2.24
426.487	2.24
426.694	2.19
426.901	1.92
427.108	1.96
427.315	1.74
427.523	1.92
427.73	1.92
427.937	1.87
428.144	1.64
428.351	1.7
428.558	1.72
428.765	1.69
428.972	1.83
429.179	2.13
429.386	2.23
429.593	1.95
429.8	1.92
430.007	1.96
430.214	1.89
430.421	1.69
430.628	1.52
430.835	1.39
431.042	1.46
431.249	1.51
431.456	1.57
431.662	1.79
431.869	2.03
432.076	1.98
432.283	2.03
432.49	1.94
432.697	2.05
432.903	1.93
433.11	1.89
433.317	1.94
433.524	2.09
433.73	1.98
433.937	2.2
434.144	2.17
434.35	2.11
434.557	2.05
434.764	2.12
434.97	1.95
435.177	2.07
435.384	2
435.59	2.07
435.797	2.21
436.003	2.27
436.21	2.27
436.416	2.39
436.623	2.39
436.829	2.38
437.036	2.45
437.242	2.41
437.449	2.3
437.655	2.35
437.862	2.21
438.068	2.16
438.275	2.34
438.481	2.55
438.687	2.48
438.894	2.56
439.1	2.63
439.307	2.77
439.513	2.66
439.719	2.73
439.926	2.84
440.132	2.77
440.338	2.45
440.544	2.55
440.751	2.47
440.957	2.45
441.163	2.39
441.369	2.58
441.575	2.39
441.782	2.43
441.988	2.27
442.194	2.33
442.4	2.23
442.606	2.57
442.812	2.64
443.018	2.82
443.224	2.86
443.431	2.89
443.637	2.58
443.843	2.46
444.049	2.44
444.255	2.39
444.461	2.51
444.667	2.57
444.873	2.72
445.079	2.79
445.284	2.86
445.49	2.6
445.696	2.49
445.902	2.39
446.108	2.31
446.314	2.25
446.52	2.37
446.726	2.58
446.931	2.54
447.137	2.57
447.343	2.63
447.549	2.63
447.755	2.56
447.96	2.71
448.166	2.64
448.372	2.61
448.578	2.64
448.783	2.65
448.989	2.69
449.195	2.88
449.4	2.96
449.606	2.94
449.812	2.88
450.017	2.92
450.223	2.76
450.428	2.66
450.634	2.8
450.84	2.93
451.045	2.78
451.251	2.76
451.456	3.01
451.662	3
451.867	3.11
452.073	3.14
452.278	3.22
452.483	3.27
452.689	3.17
452.894	3.12
453.1	3.07
453.305	3.05
453.51	2.9
453.716	2.89
453.921	2.86
454.127	2.89
454.332	2.82
454.537	2.77
454.742	2.8
454.948	2.73
455.153	2.74
455.358	2.82
455.563	2.98
455.769	3.04
455.974	3.07
456.179	2.92
456.384	2.89
456.589	2.79
456.795	2.7
457	2.62
457.205	2.91
457.41	2.91
457.615	2.83
457.82	2.86
458.025	2.95
458.23	2.78
458.435	2.8
458.64	2.77
458.845	2.88
459.05	2.86
459.255	2.91
459.46	2.92
459.665	3
459.87	2.97
460.075	3.01
460.28	3.08
460.485	3.13
460.69	3.15
460.895	3.06
461.099	2.95
461.304	2.96
461.509	3.01
461.714	2.92
461.919	3.07
462.123	3.08
462.328	3.06
462.533	2.94
462.738	3.12
462.942	3.03
463.147	3.11
463.352	3.17
463.556	3.3
463.761	3.22
463.966	3.23
464.17	3.22
464.375	3.15
464.58	3.07
464.784	3.08
464.989	3.09
465.193	3.09
465.398	3.11
465.602	3.25
465.807	3.27
466.011	3.33
466.216	3.4
466.42	3.5
466.625	3.46
466.829	3.53
467.034	3.54
467.238	3.69
467.443	3.62
467.647	3.52
467.851	3.57
468.056	3.56
468.26	3.43
468.464	3.45
468.669	3.61
468.873	3.73
469.077	3.75
469.282	3.85
469.486	3.9
469.69	3.87
469.894	3.66
470.099	3.75
470.303	3.73
470.507	3.6
470.711	3.46
470.915	3.46
471.119	3.31
471.324	3.26
471.528	3.38
471.732	3.52
471.936	3.53
472.14	3.61
472.344	3.69
472.548	3.75
472.752	3.95
472.956	4.2
473.16	4.24
473.364	4.15
473.568	4.1
473.772	3.97
473.976	3.8
474.18	3.78
474.384	3.94
474.588	3.99
474.792	3.91
474.995	4
475.199	4.06
475.403	4.07
475.607	4.13
475.811	4.18
476.015	4.25
476.218	4.34
476.422	4.31
476.626	4.38
476.83	4.47
477.033	4.46
477.237	4.31
477.441	4.34
477.644	4.23
477.848	4.18
478.052	4.1
478.255	4.23
478.459	4.2
478.663	4.41
478.866	4.44
479.07	4.51
479.273	4.7
479.477	4.79
479.681	4.76
479.884	4.81
480.088	4.81
480.291	4.64
480.495	4.6
480.698	4.57
480.901	4.61
481.105	4.67
481.308	4.67
481.512	4.72
481.715	4.77
481.919	4.78
482.122	4.81
482.325	4.86
482.529	4.91
482.732	4.92
482.935	4.84
483.138	4.83
483.342	4.9
483.545	4.98
483.748	5.02
483.952	5.09
484.155	5.17
484.358	5.08
484.561	4.98
484.764	4.86
484.967	4.95
485.171	5
485.374	5.07
485.577	5.16
485.78	5.28
485.983	5.23
486.186	5.15
486.389	5.12
486.592	5.08
486.795	5.08
486.998	5.07
487.201	5.08
487.404	5.18
487.607	5.22
487.81	5.24
488.013	5.32
488.216	5.38
488.419	5.33
488.622	5.32
488.825	5.27
489.028	5.16
489.231	5.13
489.433	5.07
489.636	5.03
489.839	5.04
490.042	5.05
490.245	4.99
490.447	5.06
490.65	5.1
490.853	5.14
491.056	5.23
491.258	5.27
491.461	5.27
491.664	5.3
491.866	5.24
492.069	5.31
492.272	5.25
492.474	5.31
492.677	5.35
492.879	5.45
493.082	5.43
493.285	5.65
493.487	5.65
493.69	5.56
493.892	5.55
494.095	5.53
494.297	5.4
494.5	5.43
494.702	5.5
494.905	5.52
495.107	5.54
495.309	5.55
495.512	5.6
495.714	5.62
495.917	5.63
496.119	5.63
496.321	5.73
496.524	5.69
496.726	5.69
496.928	5.72
497.13	5.72
497.333	5.69
497.535	5.76
497.737	5.85
497.939	5.83
498.142	5.9
498.344	5.91
498.546	5.81
498.748	5.81
498.95	5.91
499.152	5.89
499.355	5.96
499.557	6.09
499.759	6.2
499.961	6.17
500.163	6.29
500.365	6.27
500.567	6.29
500.769	6.2
500.971	6.22
501.173	6.09
501.375	6.16
501.577	6.17
501.779	6.21
501.981	6.27
502.183	6.41
502.385	6.43
502.587	6.36
502.788	6.46
502.99	6.54
503.192	6.6
503.394	6.59
503.596	6.65
503.798	6.68
503.999	6.7
504.201	6.67
504.403	6.75
504.605	6.82
504.806	6.77
505.008	6.78
505.21	6.92
505.411	6.97
505.613	6.97
505.815	7.04
506.016	7.15
506.218	7.19
506.42	7.25
506.621	7.35
506.823	7.41
507.024	7.36
507.226	7.33
507.427	7.33
507.629	7.39
507.83	7.49
508.032	7.51
508.233	7.62
508.435	7.67
508.636	7.77
508.838	7.77
509.039	7.81
509.24	7.8
509.442	7.86
509.643	7.83
509.845	7.85
510.046	7.95
510.247	7.96
510.448	7.98
510.65	8.02
510.851	8.14
511.052	8.17
511.254	8.21
511.455	8.29
511.656	8.37
511.857	8.37
512.058	8.38
512.26	8.38
512.461	8.39
512.662	8.36
512.863	8.31
513.064	8.3
513.265	8.38
513.466	8.47
513.667	8.52
513.868	8.6
514.069	8.72
514.27	8.83
514.471	8.78
514.672	8.83
514.873	8.88
515.074	8.9
515.275	8.78
515.476	8.79
515.677	8.79
515.878	8.86
516.079	8.9
516.28	8.99
516.481	9.12
516.682	9.22
516.882	9.18
517.083	9.2
517.284	9.18
517.485	9.11
517.686	9.13
517.886	9.11
518.087	9.19
518.288	9.28
518.488	9.34
518.689	9.33
518.89	9.37
519.091	9.37
519.291	9.32
519.492	9.39
519.692	9.51
519.893	9.58
520.094	9.55
520.294	9.62
520.495	9.55
520.695	9.56
520.896	9.56
521.096	9.62
521.297	9.67
521.497	9.75
521.698	9.71
521.898	9.72
522.099	9.69
522.299	9.77
522.499	9.77
522.7	9.85
522.9	9.87
523.101	9.97
523.301	9.94
523.501	9.95
523.702	9.95
523.902	10.03
524.102	10.08
524.302	10.11
524.503	10.19
524.703	10.23
524.903	10.25
525.103	10.3
525.304	10.4
525.504	10.41
525.704	10.49
525.904	10.47
526.104	10.39
526.304	10.42
526.504	10.49
526.705	10.44
526.905	10.57
527.105	10.63
527.305	10.57
527.505	10.52
527.705	10.55
527.905	10.55
528.105	10.57
528.305	10.6
528.505	10.72
528.705	10.77
528.905	10.71
529.105	10.8
529.304	10.86
529.504	10.9
529.704	10.89
529.904	10.93
530.104	10.91
530.304	10.97
530.503	10.92
530.703	10.9
530.903	10.93
531.103	11
531.303	11.04
531.502	11.09
531.702	11.21
531.902	11.3
532.101	11.25
532.301	11.22
532.501	11.27
532.7	11.22
532.9	11.21
533.1	11.29
533.299	11.34
533.499	11.4
533.698	11.5
533.898	11.55
534.097	11.57
534.297	11.55
534.496	11.54
534.696	11.54
534.895	11.66
535.095	11.74
535.294	11.77
535.494	11.79
535.693	11.87
535.892	11.86
536.092	11.82
536.291	11.83
536.491	11.93
536.69	11.99
536.889	11.9
537.088	11.93
537.288	12.07
537.487	12.04
537.686	12.05
537.886	12.24
538.085	12.32
538.284	12.41
538.483	12.45
538.682	12.48
538.882	12.51
539.081	12.61
539.28	12.5
539.479	12.57
539.678	12.59
539.877	12.63
540.076	12.67
540.275	12.74
540.474	12.86
540.673	12.95
540.872	12.95
541.071	12.98
541.27	13.04
541.469	13.06
541.668	13.05
541.867	13.15
542.066	13.27
542.265	13.43
542.464	13.43
542.663	13.48
542.862	13.57
543.06	13.59
543.259	13.57
543.458	13.67
543.657	13.79
543.856	13.83
544.054	13.85
544.253	13.89
544.452	13.92
544.651	14.04
544.849	14.06
545.048	14.15
545.247	14.2
545.445	14.28
545.644	14.33
545.843	14.37
546.041	14.39
546.24	14.53
546.438	14.61
546.637	14.67
546.836	14.8
547.034	15
547.233	15.1
547.431	15.12
547.63	15.17
547.828	15.25
548.027	15.26
548.225	15.3
548.423	15.41
548.622	15.55
548.82	15.63
549.019	15.68
549.217	15.74
549.415	15.82
549.614	15.92
549.812	15.97
550.01	16.05
550.209	16.19
550.407	16.34
550.605	16.33
550.803	16.49
551.002	16.63
551.2	16.73
551.398	16.8
551.596	16.94
551.794	17
551.993	17.06
552.191	17.12
552.389	17.28
552.587	17.41
552.785	17.49
552.983	17.69
553.181	17.82
553.379	17.89
553.577	17.97
553.775	18.15
553.973	18.22
554.171	18.27
554.369	18.29
554.567	18.38
554.765	18.48
554.963	18.51
555.161	18.63
555.359	18.84
555.557	19.02
555.755	19.13
555.952	19.39
556.15	19.5
556.348	19.62
556.546	19.76
556.744	19.79
556.941	19.9
557.139	20.03
557.337	20.11
557.535	20.15
557.732	20.29
557.93	20.43
558.128	20.57
558.325	20.72
558.523	20.86
558.721	21.03
558.918	21.06
559.116	21.21
559.313	21.23
559.511	21.36
559.708	21.42
559.906	21.56
560.104	21.68
560.301	21.88
560.498	22.03
560.696	22.19
560.893	22.29
561.091	22.4
561.288	22.54
561.486	22.65
561.683	22.75
561.88	22.86
562.078	22.98
562.275	23.01
562.473	23.12
562.67	23.32
562.867	23.42
563.064	23.57
563.262	23.67
563.459	23.79
563.656	23.87
563.853	24
564.051	24.09
564.248	24.34
564.445	24.5
564.642	24.55
564.839	24.71
565.036	24.92
565.234	25.03
565.431	25.06
565.628	25.26
565.825	25.45
566.022	25.58
566.219	25.65
566.416	25.79
566.613	25.82
566.81	25.89
567.007	25.87
567.204	25.85
567.401	25.97
567.598	26.1
567.795	26.07
567.991	26.13
568.188	26.28
568.385	26.36
568.582	26.46
568.779	26.6
568.976	26.75
569.172	26.94
569.369	26.92
569.566	27.01
569.763	27.12
569.96	27.11
570.156	27.14
570.353	27.16
570.55	27.11
570.746	27.09
570.943	27.15
571.14	27.11
571.336	27.16
571.533	27.28
571.729	27.29
571.926	27.45
572.123	27.56
572.319	27.68
572.516	27.62
572.712	27.67
572.909	27.61
573.105	27.62
573.302	27.67
573.498	27.81
573.695	27.84
573.891	27.88
574.087	27.96
574.284	27.98
574.48	27.94
574.677	27.97
574.873	27.91
575.069	27.92
575.266	28.02
575.462	28.04
575.658	28.17
575.854	28.36
576.051	28.36
576.247	28.3
576.443	28.33
576.639	28.19
576.835	28.08
577.032	28.02
577.228	28.12
577.424	28.12
577.62	28.16
577.816	28.21
578.012	28.27
578.208	28.14
578.404	28.23
578.6	28.19
578.796	28.17
578.993	28.13
579.189	28.21
579.384	28.08
579.58	28.1
579.776	28.1
579.972	28.07
580.168	27.93
580.364	27.98
580.56	27.97
580.756	27.97
580.952	27.93
581.148	27.97
581.343	27.98
581.539	28
581.735	27.92
581.931	27.95
582.127	27.98
582.322	27.84
582.518	27.8
582.714	27.75
582.909	27.71
583.105	27.57
583.301	27.58
583.496	27.65
583.692	27.68
583.888	27.66
584.083	27.84
584.279	27.87
584.474	27.83
584.67	27.84
584.866	27.88
585.061	27.68
585.257	27.7
585.452	27.63
585.648	27.62
585.843	27.63
586.039	27.67
586.234	27.61
586.429	27.55
586.625	27.56
586.82	27.53
587.015	27.55
587.211	27.51
587.406	27.52
587.601	27.5
587.797	27.46
587.992	27.44
588.187	27.52
588.383	27.52
588.578	27.57
588.773	27.76
588.968	27.79
589.163	27.89
589.359	27.82
589.554	27.74
589.749	27.6
589.944	27.64
590.139	27.58
590.334	27.79
590.529	27.87
590.724	27.98
590.919	28.04
591.114	28.09
591.309	28.09
591.504	28.18
591.699	28.16
591.894	28.18
592.089	28.15
592.284	28.19
592.479	28.28
592.674	28.35
592.869	28.51
593.064	28.64
593.259	28.74
593.454	28.87
593.648	28.96
593.843	28.94
594.038	28.95
594.233	28.96
594.428	29.02
594.622	28.98
594.817	29.17
595.012	29.28
595.206	29.34
595.401	29.22
595.596	29.39
595.79	29.33
595.985	29.46
596.18	29.56
596.374	29.74
596.569	29.86
596.763	29.95
596.958	29.98
597.153	30.1
597.347	30.13
597.542	30.18
597.736	30.24
597.931	30.37
598.125	30.37
598.319	30.57
598.514	30.66
598.708	30.8
598.903	30.86
599.097	30.97
599.291	30.95
599.486	30.97
599.68	31.04
599.874	31.12
600.069	31.07
600.263	31.12
600.457	31.09
600.651	31.09
600.846	31.07
601.04	31.14
601.234	31.27
601.428	31.37
601.622	31.46
601.817	31.53
602.011	31.66
602.205	31.64
602.399	31.7
602.593	31.66
602.787	31.61
602.981	31.51
603.175	31.63
603.369	31.59
603.563	31.67
603.757	31.8
603.951	31.94
604.145	31.75
604.339	31.81
604.533	31.62
604.727	31.6
604.921	31.51
605.115	31.54
605.309	31.55
605.502	31.74
605.696	31.76
605.89	31.73
606.084	31.65
606.278	31.56
606.471	31.39
606.665	31.33
606.859	31.23
607.053	31.23
607.246	31.24
607.44	31.19
607.634	30.97
607.827	31.04
608.021	30.88
608.214	30.74
608.408	30.7
608.602	30.74
608.795	30.6
608.989	30.55
609.182	30.53
609.376	30.46
609.569	30.38
609.763	30.22
609.956	30.1
610.15	29.92
610.343	29.8
610.537	29.64
610.73	29.62
610.923	29.66
611.117	29.63
611.31	29.63
611.504	29.61
611.697	29.47
611.89	29.39
612.083	29.36
612.277	29.31
612.47	29.28
612.663	29.25
612.856	29.21
613.05	29.08
613.243	28.96
613.436	28.74
613.629	28.63
613.822	28.54
614.015	28.43
614.209	28.24
614.402	28.26
614.595	28.29
614.788	28.15
614.981	28.09
615.174	28.05
615.367	27.98
615.56	27.89
615.753	27.8
615.946	27.65
616.139	27.61
616.332	27.66
616.525	27.61
616.718	27.62
616.911	27.66
617.103	27.64
617.296	27.52
617.489	27.42
617.682	27.35
617.875	27.34
618.067	27.09
618.26	26.94
618.453	26.95
618.646	26.96
618.838	26.9
619.031	27.1
619.224	27.07
619.417	27.02
619.609	26.94
619.802	26.82
619.994	26.68
620.187	26.63
620.38	26.51
620.572	26.42
620.765	26.53
620.957	26.45
621.15	26.39
621.342	26.36
621.535	26.28
621.727	26.11
621.92	26.08
622.112	26.05
622.305	26.08
622.497	26.09
622.69	26.12
622.882	26.1
623.074	26.21
623.267	26.12
623.459	26.07
623.651	26.02
623.844	26.05
624.036	25.95
624.228	25.87
624.42	25.89
624.613	25.86
624.805	25.86
624.997	25.81
625.189	25.82
625.381	25.8
625.574	25.78
625.766	25.64
625.958	25.64
626.15	25.67
626.342	25.65
626.534	25.64
626.726	25.59
626.918	25.5
627.11	25.43
627.302	25.38
627.494	25.35
627.686	25.43
627.878	25.38
628.07	25.36
628.262	25.28
628.454	25.28
628.646	25.21
628.838	25.25
629.029	25.14
629.221	25.28
629.413	25.09
629.605	25.04
629.797	24.94
629.989	24.96
630.18	24.74
630.372	24.79
630.564	24.76
630.755	24.81
630.947	24.93
631.139	24.78
631.33	24.63
631.522	24.7
631.714	24.64
631.905	24.45
632.097	24.52
632.289	24.59
632.48	24.46
632.672	24.39
632.863	24.29
633.055	24.22
633.246	24.16
633.438	24.16
633.629	24.15
633.821	24.22
634.012	24.28
634.203	24.21
634.395	24.12
634.586	24.12
634.777	24.03
634.969	23.95
635.16	24.07
635.351	24.02
635.543	23.95
635.734	23.98
635.925	23.97
636.117	23.9
636.308	23.93
636.499	23.87
636.69	23.76
636.881	23.77
637.073	23.78
637.264	23.8
637.455	23.84
637.646	23.94
637.837	23.94
638.028	23.79
638.219	23.7
638.41	23.62
638.601	23.49
638.792	23.5
638.983	23.55
639.174	23.52
639.365	23.6
639.556	23.57
639.747	23.45
639.938	23.44
640.129	23.38
640.32	23.2
640.511	23.26
640.701	23.37
640.892	23.32
641.083	23.38
641.274	23.41
641.465	23.33
641.655	23.24
641.846	23.2
642.037	23.12
642.228	23.12
642.418	23.15
642.609	23.05
642.8	23.07
642.99	22.97
643.181	22.97
643.372	22.89
643.562	22.86
643.753	22.69
643.943	22.64
644.134	22.49
644.324	22.49
644.515	22.48
644.705	22.57
644.896	22.64
645.086	22.69
645.277	22.56
645.467	22.56
645.658	22.52
645.848	22.56
646.038	22.5
646.229	22.46
646.419	22.28
646.61	22.24
646.8	22.09
646.99	22.12
647.18	22.15
647.371	22.15
647.561	22.09
647.751	22.18
647.941	22.03
648.132	22
648.322	22.06
648.512	22.1
648.702	21.95
648.892	21.98
649.082	21.93
649.272	21.77
649.462	21.68
649.653	21.63
649.843	21.53
650.033	21.51
650.223	21.59
650.413	21.51
650.603	21.49
650.793	21.49
650.983	21.41
651.172	21.23
651.362	21.09
651.552	21.01
651.742	20.87
651.932	20.84
652.122	20.84
652.312	20.91
652.502	20.82
652.691	20.73
652.881	20.64
653.071	20.54
653.261	20.37
653.45	20.23
653.64	20.28
653.83	20.12
654.019	20.01
654.209	19.89
654.399	19.91
654.588	19.73
654.778	19.58
654.968	19.51
655.157	19.44
655.347	19.3
655.536	19.1
655.726	18.87
655.915	18.63
656.105	18.48
656.294	18.24
656.484	18.05
656.673	18.05
656.863	17.97
657.052	17.75
657.241	17.49
657.431	17.3
657.62	17.05
657.809	16.68
657.999	16.49
658.188	16.35
658.377	16.1
658.567	15.91
658.756	15.78
658.945	15.56
659.134	15.29
659.324	15.14
659.513	14.87
659.702	14.66
659.891	14.47
660.08	14.34
660.269	14.25
660.458	14
660.648	13.77
660.837	13.58
661.026	13.36
661.215	13.09
661.404	12.95
661.593	12.9
661.782	12.57
661.971	12.5
662.16	12.35
662.349	12.3
662.538	12
662.726	12.01
662.915	11.63
663.104	11.39
663.293	11.21
663.482	11.16
663.671	10.97
663.86	10.89
664.048	10.72
664.237	10.56
664.426	10.25
664.615	10.13
664.803	9.96
664.992	9.77
665.181	9.55
665.369	9.45
665.558	9.21
665.747	9.08
665.935	9.17
666.124	9.17
666.312	9.01
666.501	8.95
666.69	8.75
666.878	8.49
667.067	8.22
667.255	8.34
667.444	8.5
667.632	8.66
667.82	8.7
668.009	8.73
668.197	8.53
668.386	8.31
668.574	8.21
668.762	8.19
668.951	8.08
669.139	8.12
669.327	8.06
669.516	8.1
669.704	7.94
669.892	8.02
670.08	7.9
670.269	7.79
670.457	7.63
670.645	7.56
670.833	7.59
671.021	7.54
671.21	7.63
671.398	7.81
671.586	7.79
671.774	7.68
671.962	7.76
672.15	7.76
672.338	7.67
672.526	7.82
672.714	7.73
672.902	7.75
673.09	7.79
673.278	7.89
673.466	7.87
673.654	8.11
673.842	8.16
674.03	8.16
674.218	7.98
674.405	8.01
674.593	7.98
674.781	7.98
674.969	7.97
675.157	8.14
675.344	8.26
675.532	8.29
675.72	8.41
675.908	8.51
676.095	8.53
676.283	8.6
676.471	8.85
676.658	8.81
676.846	8.91
677.033	9.04
677.221	9.13
677.409	8.99
677.596	9.18
677.784	9.33
677.971	9.39
678.159	9.46
678.346	9.68
678.534	9.75
678.721	9.94
678.909	9.94
679.096	10
679.283	10.1
679.471	10.21
679.658	10.2
679.846	10.49
680.033	10.83
680.22	10.87
680.408	11.05
680.595	11.2
680.782	11.15
680.969	11.17
681.157	11.32
681.344	11.5
681.531	11.58
681.718	11.73
681.905	12.06
682.093	12.3
682.28	12.54
682.467	12.93
682.654	13.24
682.841	13.21
683.028	13.36
683.215	13.4
683.402	13.44
683.589	13.69
683.776	14.02
683.963	14.19
684.15	14.54
684.337	14.87
684.524	15.16
684.711	15.48
684.898	15.89
685.085	16.23
685.271	16.55
685.458	16.89
685.645	17.13
685.832	17.53
686.019	17.88
686.205	18.21
686.392	18.53
686.579	19.04
686.766	19.45
686.952	19.93
687.139	20.54
687.326	20.93
687.512	21.25
687.699	21.85
687.886	22.16
688.072	22.51
688.259	23.07
688.445	23.73
688.632	23.95
688.818	24.72
689.005	25.36
689.191	25.93
689.378	26.7
689.564	27.47
689.751	27.91
689.937	28.39
690.124	29.07
690.31	29.15
690.496	29.74
690.683	30.52
690.869	31.16
691.055	31.61
691.242	32.72
691.428	33.43
691.614	34.12
691.8	35.06
691.987	35.85
692.173	36.37
692.359	37.06
692.545	37.72
692.731	38.19
692.918	38.93
693.104	39.53
693.29	40.06
693.476	40.7
693.662	41.42
693.848	42.07
694.034	42.75
694.22	43.47
694.406	44.2
694.592	45.04
694.778	45.77
694.964	46.52
695.15	47.05
695.336	47.46
695.522	48.18
695.708	48.66
695.894	49.35
696.08	50.26
696.265	51.01
696.451	51.5
696.637	52.31
696.823	52.63
697.009	53.01
697.194	53.69
697.38	54.11
697.566	54.53
697.751	55.43
697.937	56.17
698.123	56.87
698.308	57.45
698.494	58.1
698.68	58.49
698.865	58.94
699.051	59.24
699.236	59.69
699.422	60.18
699.607	60.47
699.793	61.26
699.978	61.76
700.164	62.23
700.349	62.69
700.535	63.38
700.72	63.55
700.906	64.31
701.091	64.79
701.276	65.2
701.462	66.28
701.647	66.95
701.832	67.19
702.018	67.7
702.203	67.91
702.388	67.69
702.573	68.04
702.759	68.37
702.944	68.54
703.129	68.9
703.314	69.35
703.499	69.31
703.684	69.72
703.87	70.72
704.055	71.83
704.24	72.19
704.425	73.04
704.61	73.57
704.795	73.58
704.98	73.52
705.165	73.7
705.35	74.02
705.535	74.16
705.72	74.36
705.905	75.13
706.09	75.88
706.275	75.75
706.459	75.82
706.644	76.25
706.829	76
707.014	75.93
707.199	76.45
707.384	77.01
707.568	77.18
707.753	77.68
707.938	77.93
708.123	78.12
708.307	78.02
708.492	78.2
708.677	78.22
708.861	78.08
709.046	78.14
709.231	79.09
709.415	79.51
709.6	79.49
709.784	79.72
709.969	79.78
710.153	79.34
710.338	79.25
710.522	79.49
710.707	80.13
710.891	80.44
711.076	80.9
711.26	81.03
711.445	81.51
711.629	81.8
711.813	82.49
711.998	82.65
712.182	82.74
712.366	83.18
712.551	83.76
712.735	83.69
712.919	83.57
713.103	83.73
713.288	83.25
713.472	82.52
713.656	82.73
713.84	82.98
714.024	83.33
714.208	83.47
714.393	84.12
714.577	84.01
714.761	84.38
714.945	84.74
715.129	84.82
715.313	84.82
715.497	84.86
715.681	85.23
715.865	84.96
716.049	85.3
716.233	85.2
716.417	85.81
716.601	84.94
716.785	85.04
716.968	85.36
717.152	85.31
717.336	85.01
717.52	85.47
717.704	85.77
717.888	85.92
718.071	86.3
718.255	86.77
718.439	86.67
718.622	86.74
718.806	86.64
718.99	86.17
719.174	86.08
719.357	86.25
719.541	85.86
719.724	85.96
719.908	86.88
720.092	87.05
720.275	87.73
720.459	87.89
720.642	87.59
720.826	87.58
721.009	87.16
721.193	86.52
721.376	86.83
721.559	87.66
721.743	87.43
721.926	88.03
722.11	88.5
722.293	87.93
722.476	87.73
722.66	87.87
722.843	87.67
723.026	87.21
723.21	87.84
723.393	88.33
723.576	88.23
723.759	87.95
723.942	88.14
724.126	88.21
724.309	87.47
724.492	87.57
724.675	87.81
724.858	88.16
725.041	88.48
725.224	89.09
725.407	89.17
725.59	89.56
725.774	89.01
725.957	88.33
726.14	87.81
726.322	87.99
726.505	87.41
726.688	88.52
726.871	88.91
727.054	89.36
727.237	88.93
727.42	89.33
727.603	88.61
727.786	89.04
727.968	89.14
728.151	89.5
728.334	89.9
728.517	90.3
728.699	90.21
728.882	90.15
729.065	90.23
729.248	90.08
729.43	90.67
729.613	91.44
729.796	91.78
729.978	91.6
730.161	91.74
730.343	91.06
730.526	91.17
730.708	91.23
730.891	91.9
731.073	91.09
731.256	90.94
731.438	90.38
731.621	89.99
731.803	89.57
731.986	90.16
732.168	89.67
732.35	90.13
732.533	90.53
732.715	91.08
732.898	91.3
733.08	92.15
733.262	91.94
733.444	91.91
733.627	91.65
733.809	91.72
733.991	92.03
734.173	91.83
734.355	91.45
734.538	91.75
734.72	91.52
734.902	91.65
735.084	91.96
735.266	92.02
735.448	91.91
735.63	91.91
735.812	91.66
735.994	92.65
736.176	92.64
736.358	91.98
736.54	92.87
736.722	92.21
736.904	91
737.086	91.02
737.268	91.65
737.45	91.76
737.632	92.57
737.814	92.19
737.995	92.67
738.177	92.94
738.359	91.83
738.541	92.2
738.723	93.02
738.904	93.7
739.086	93.44
739.268	93.9
739.449	93.21
739.631	92.6
739.813	91.96
739.994	92.45
740.176	92.99
740.358	93.1
740.539	94.9
740.721	95.38
740.902	95.9
741.084	95.41
741.265	95.3
741.447	94.3
741.628	94.21
741.81	93.35
741.991	94.1
742.172	95.52
742.354	96.11
742.535	96.09
742.717	96.63
742.898	96.98
743.079	96.18
743.261	95.41
743.442	94.22
743.623	93.94
743.804	93.74
743.986	94.28
744.167	93.42
744.348	94.14
744.529	94.5
744.71	93.2
744.891	93.28
745.073	93.59
745.254	92.96
745.435	92.56
745.616	93.07
745.797	92.17
745.978	92.26
746.159	92.98
746.34	92.39
746.521	94.28
746.702	93.66
746.883	93.65
747.064	92.39
747.245	93.56
747.426	91.67
747.606	92.45
747.787	92.82
747.968	93.5
748.149	92.78
748.33	93.15
748.51	92.84
748.691	91.72
748.872	92.54
749.053	92.68
749.233	92.25
749.414	91.4
749.595	91.65
749.775	90.1
749.956	89.03
750.137	89.02
750.317	89.91
750.498	90.75
750.678	92.27
750.859	94.18
751.04	94.85
751.22	93.69
751.4	93.07
751.581	91.58
751.761	91.71
751.942	91.46
752.122	92.63
752.303	92.95
752.483	93.88
752.663	92.25
752.844	91.41
753.024	91.41
753.204	91.93
753.385	91.04
753.565	90.87
753.745	90.48
753.925	89.52
754.106	88.04
754.286	87.17
754.466	87.67
754.646	87.43
754.826	87.34
755.006	87.56
755.187	89.66
755.367	90.47
755.547	91.14
755.727	93.41
755.907	94.32
756.087	94.35
756.267	92.99
756.447	93.39
756.627	90.72
756.807	90.35
756.987	90.08
757.167	90.08
757.346	88.54
757.526	89.07
757.706	90.14
757.886	90.47
758.066	91.23
758.246	93.67
758.425	93.29
758.605	91.2
758.785	91.24
758.965	91.04
759.144	89.22
759.324	89.6
759.504	91.36
759.683	90.84
759.863	88.58
760.043	87.62
760.222	89.01
760.402	88.21
760.581	87.5
760.761	89.8
760.94	89.28
761.12	89.84
761.299	89.9
761.479	89.98
761.658	88.43
761.838	88.05
762.017	87.4
762.197	87.38
762.376	87.11
762.555	88.59
762.735	90.04
762.914	87.5
763.093	86.86
763.273	87.38
763.452	86.7
763.631	88.31
763.81	90.44
763.99	89.74
764.169	89.34
764.348	87.13
764.527	85.21
764.706	84.96
764.885	86.87
765.064	84.66
765.243	86.09
765.423	87.56
765.602	86.54
765.781	85.17
765.96	86.02
766.139	85.31
766.318	84.59
766.497	84.31
766.676	84.43
766.854	85.99
767.033	86.11
767.212	85.87
767.391	85.98
767.57	86.52
767.749	87.44
767.928	90.05
768.106	88.41
768.285	87.91
768.464	87.09
768.643	85.15
768.821	83.4
769	85.12
769.179	84.04
769.357	83.39
769.536	83.4
769.715	83.83
769.893	85.79
770.072	87.49
770.25	88.57
770.429	88.67
770.607	87.73
770.786	85.85
770.964	87.07
771.143	85.06
771.321	87.27
771.5	88.82
771.678	87.03
771.857	83.45
772.035	84.47
772.213	82.46
772.392	79.61
772.57	80.35
772.748	83.78
772.927	83.22
773.105	82.04
773.283	82.6
773.461	83.38
773.64	82.84
773.818	82.4
773.996	82.02
774.174	82.98
774.352	81.89
774.531	77.5
774.709	80.26
774.887	80.19
775.065	79.76
775.243	77.68
775.421	80.72
775.599	80.8
775.777	79.73
775.955	76.62
776.133	78.63
776.311	79.5
776.489	76.15
776.667	77.11
776.844	79.24
777.022	78.91
777.2	77.72
777.378	79.32
777.556	80.11
777.734	82.07
777.911	84.39
778.089	84.63
778.267	84.95
778.445	83.71
778.622	81.42
778.8	78.5
778.978	79.08
779.155	78.78
779.333	80.28
779.511	82.51
779.688	86.36
779.866	82.06
780.043	80.31
780.221	79.35
780.398	75.75
780.576	75.25
780.753	79.43
780.931	79.26
781.108	79.45
781.286	83.35
781.463	81.57
781.64	78.61
781.818	79.87
781.995	81.52
782.172	79.21
782.35	79.9
782.527	82.82
782.704	82.01
782.882	81.6
783.059	81.96
783.236	80.79
783.413	82.21
783.59	82.38
783.768	79.65
783.945	81.67
784.122	84.02
784.299	82.85
784.476	81.64
784.653	80.33
784.83	76.68
785.007	69.84
785.184	70.26
785.361	68.46
785.538	74.63
785.715	79.23
785.892	82.47
786.069	85.91
786.246	89.6
786.423	87.11
786.6	84.57
786.776	87.03
786.953	80.52
787.13	81.8
787.307	78.23
787.484	76.79
787.66	74.27
787.837	76.51
788.014	75.6
788.191	77.09
788.367	78.71
788.544	79.63
788.721	77.89
788.897	78.48
789.074	79.56
789.25	75.76
789.427	74.82
789.603	74.26
789.78	73.4
789.956	70.23
790.133	71.51
790.309	71.34
790.486	72.38
790.662	69.14
790.839	72.23
791.015	74.39
791.192	72.8
791.368	75.67
791.544	73.77
791.721	71.22
791.897	69.34
792.073	70.13
792.249	64.54
792.426	68.06
792.602	71.44
792.778	74.14
792.954	72.9
793.13	76.99
793.307	76.6
793.483	71.4
793.659	70.36
793.835	71.76
794.011	66.61
794.187	65
794.363	68.67
794.539	68.23
794.715	62.51
794.891	64.84
795.067	64.42
795.243	66.76
795.419	66.68
795.595	68.3
795.771	64.34
795.947	66.48
796.122	63.2
796.298	65.96
796.474	68.13
796.65	70.97
796.826	68.83
797.001	68.78
797.177	62.69
797.353	65.48
797.529	65.86
797.704	65.98
797.88	65.67
798.056	64.64
798.231	66.43
798.407	68.97
798.582	71.64
798.758	76.69
798.934	89.18
799.109	80.91
799.285	78.04
799.46	78.13
799.636	74.51
799.811	64.99
799.986	70.51
800.162	73.59
800.337	77.57
800.513	72.88
800.688	68.5
800.863	81.95
801.039	73.49
801.214	62.25
801.389	66.92
801.565	67.43
801.74	53.24
801.915	64.97
802.09	70.21
802.265	71.01
802.441	70.87
802.616	70.24
802.791	68.31
802.966	71.59
803.141	69.66
803.316	71.07
803.491	77.78
803.666	79.22
803.841	75.22
804.016	73.68
804.191	75.12
804.366	67.08
804.541	66.25
804.716	61.17
804.891	59.45
805.066	60.74
805.241	60.15
805.416	56.46
805.591	60.99
805.765	66.79
805.94	67.57
806.115	65.68
806.29	60.38
806.464	60.04
806.639	53.75
806.814	53.68
806.989	54.1
807.163	65.53
807.338	70.71
807.512	67.22
807.687	59.84
807.862	67.82
808.036	66.97
808.211	62.95
808.385	71.82
808.56	78.21
808.734	72.06
808.909	58.3
809.083	62.66
809.258	65.24
809.432	64.96
809.606	53.48
809.781	58.19
809.955	62.93
810.13	60.28
810.304	53.65
810.478	52.21
810.652	59.17
810.827	59.48
811.001	52.42
811.175	50.04
811.349	54.3
811.524	48.71
811.698	34.89
811.872	42.84
812.046	54.26
812.22	64.59
812.394	57.86
812.568	63.51
812.742	63.5
812.916	59.35
813.09	43.39
813.264	48.74
813.438	49.65
813.612	45.5
813.786	38.86
813.96	52.57
814.134	47.55
814.308	47.06
814.482	55.27
814.656	55.6
814.83	52.4
815.003	59.34
815.177	54.42
815.351	50.04
815.525	50.85
815.698	51.53
815.872	45.01
816.046	42.35
816.219	47.3
816.393	53.04
816.567	60.59
816.74	61.63
816.914	65.65
817.088	63.06
817.261	56.71
817.435	38.78
817.608	47.41
817.782	39.17
817.955	40.41
818.129	40.27
818.302	43.41
818.475	43.03
818.649	46.17
818.822	38.18
818.996	51.27
819.169	52.28
819.342	40.47
819.516	48.76
819.689	55.57
819.862	46.53
820.035	40.04
820.209	46.48
820.382	45.91
820.555	48.52
820.728	43.45
820.901	43.72
821.075	34.67
821.248	37.69
821.421	16.98
821.594	19.88
821.767	42.11
821.94	62.4
822.113	36.72
822.286	37.48
822.459	44.57
822.632	33.37
822.805	16.09
822.978	27.62
823.151	25.58
823.324	15.63
823.496	-9.61
823.669	-10.89
823.842	-3.12
824.015	1.52
824.188	-10.81
824.361	16.97
824.533	16.09
824.706	18.4
824.879	12.6
825.051	25.73
825.224	16.78
825.397	0.82
825.569	-9.64
825.742	9.92
825.915	24.02
826.087	35.38
826.26	40.37
826.432	50.57
826.605	51.2
826.777	36.36
826.95	32.55
827.122	25.13
827.295	10.9
827.467	8.4
827.64	-20.4
827.812	-18.44
827.984	-3.66
828.157	-8.89
828.329	-30.97
828.501	-12.06
828.674	10.83
828.846	-14.36
829.018	16.71
829.19	5.91
829.363	30.38
829.535	16.17
829.707	23.77
829.879	2.19
830.051	9.49
830.223	-19.44
830.395	-41.53
830.568	-36.01
830.74	-37.48
830.912	-5.58
831.084	-0.03
831.256	9.54
831.428	-2.3
831.6	-9.06
831.772	-50.82
831.943	-50.18
832.115	-33.26
832.287	-1.15
832.459	16.23
832.631	35.61
832.803	51.27
832.975	72
833.146	50.31
833.318	29.25
833.49	23.48
833.662	5.37
833.833	-11.46
834.005	-9.47
834.177	-4
834.348	-1.58
834.52	-20.99
834.692	-19.7
834.863	-32.41
835.035	-28.75
835.206	-80.34
835.378	-42.59
835.549	-32.98
835.721	-12.7
835.892	-15.59
836.064	-10.54
836.235	-19.03
836.407	-24.45
836.578	-40.03
836.749	-28.62
836.921	-65.42
837.092	-76.64
837.264	-58.15
837.435	-76.36
837.606	-37.24
837.777	7.25
837.949	22.12
838.12	26.49
838.291	39.33
838.462	25.32
838.633	-3.16
838.805	8.49
838.976	7.02
839.147	-36.77
839.318	-47.52
839.489	-78.91
839.66	-80.92
839.831	-41.1
840.002	-12.78
840.173	-6.53
840.344	52.24
840.515	50
840.686	-97.36
840.857	-117.66
841.028	-91.48
841.199	-93.42
841.369	-109.12
841.54	-73.93
841.711	-25.34
841.882	-30.32
842.053	-26.87
842.223	-4.76
842.394	5.58
842.565	-23.56
842.736	-5.12
842.906	-5.09
843.077	-0.2
843.248	9.89
843.418	21.36
843.589	-4.27
843.759	53.56
843.93	12.5
844.101	11.55
844.271	12.92
844.442	17.99
844.612	18.18
844.783	-1.21
844.953	-45.16
845.123	-50.51
845.294	-45.26
845.464	-247.31
845.635	-74.94
845.805	-26.56
845.975	-14.57
846.146	-58.79
846.316	-53.74
846.486	-19.06
846.656	8.54
846.827	0.31
846.997	9.08
847.167	38.22
847.337	2.92
847.507	-48.01
847.677	-40.75
847.848	15.6
848.018	9.42
848.188	10
848.358	6.82
848.528	0.87
848.698	-40.71
848.868	-112.21
849.038	-235.82
849.208	-89.02
849.378	-56.68
849.548	-50.88
849.718	-31.98
849.887	-3.08
850.057	-25.06
850.227	-68.19
850.397	-106.06
850.567	-199.9
850.737	-507.61
850.906	-1515.63
851.076	-970.7
851.246	-422.77
851.415	-82.37
851.585	-56.15
851.755	-98.4
851.924	-58.96
852.094	-95.47
852.264	-156.08
852.433	-880.29
852.603	-84.78
852.772	14.16
852.942	-4.14
853.111	-15.5
853.281	25.94
853.45	18.51
853.62	-48.22
853.789	-53.75
853.959	-42.46
854.128	-54.67
854.297	-73.23
854.467	-75.65
854.636	-84.31
854.805	-32.89
854.975	-103.75
855.144	-192.47
855.313	-140.91
855.482	-392.34
855.652	-207.22
855.821	-71.66
855.99	21.15
856.159	6.78
856.328	33.69
856.497	3.6
856.667	0.18
856.836	-27.27
857.005	-68.23
857.174	-127.01
857.343	-147.66
857.512	-158.82
857.681	-176.49
857.85	-219.52
858.019	-97.79
858.188	-89.62
858.356	-104.18
858.525	-167.39
858.694	-132.34
858.863	-315.76
859.032	-248.18
859.201	-346.11
859.369	-261.1
859.538	-197.98
859.707	-115
859.876	-112.94
860.044	-101.95
860.213	-10.45
860.382	-10.11
860.55	-30.57
860.719	-4.63
860.888	9.2
861.056	-28.53
861.225	-46.52
861.393	-13.75
861.562	-27.87
861.73	-104.98
861.899	-389.79
862.067	-3436.21
862.236	-182.82
862.404	-378.82
862.572	-192.1
862.741	-31.75
862.909	-7.09
863.078	-115.15
863.246	-50.13
863.414	-66.39
863.582	-66.16
863.751	-114.78
863.919	-77.03
864.087	-33.18
864.255	-16.16
864.424	-226.1
864.592	-4.55
864.76	-51.86
864.928	-106
865.096	-147.29
865.264	-154.58
865.432	-1535.23
865.6	-124.75
865.768	-143.05
865.936	-157.13
866.104	-135.75
866.272	-237.34
866.44	-491.54
866.608	797.55
866.776	362.26
866.944	3796.51
867.112	-740.04
867.28	-228.61
867.448	-72.48
867.615	-30.98
867.783	-13.74
867.951	-22.71
868.119	-25.36
868.286	-57.11
868.454	-167.2
868.622	-167.66
868.789	-114.1
868.957	-3925
869.125	-2875
869.292	-185.87
869.46	-307.66
869.627	-88.08
869.795	-62.89
869.963	-40.41
870.13	-16.85
870.298	5.05
870.465	-80.26
870.632	-101.61
870.8	-64.79
870.967	-134.54
871.135	-229.28
871.302	-186.49
871.469	-189.27
871.637	-319.4
871.804	-181.89
871.971	-198.12
872.139	-658.84
872.306	-88.4
872.473	-103.34
872.64	-338.84
872.807	-82.95
872.975	10.9
873.142	-272.91
873.309	2385.14
873.476	-57.18
873.643	-18.48
873.81	-29.82
873.977	-25.11
874.144	-5.41
874.311	-200.59
874.478	-218.73
874.645	-242.99
874.812	-167.63
874.979	-116.62
875.146	-121.97
875.313	-154.16
875.48	-55.27
875.647	-66.89
875.813	-98.57
875.98	-60.79
876.147	-72.15
876.314	-165.5
876.481	1019.42
876.647	-1369.1
876.814	572.28
876.981	-147.88
877.147	-83.22
877.314	-40.46
877.481	1.63
877.647	12.7
877.814	-34.79
877.98	-61.02
878.147	-22.7
878.314	11.33
878.48	-56.06
878.647	5.25
878.813	35.52
878.979	18.85
879.146	-27.62
879.312	-16.68
879.479	-122.67
879.645	-239.47
879.811	-440.22
879.978	-1143.13
880.144	-294.24
880.31	-120.36
880.477	-365.81
880.643	-429.05
880.809	-145.98
880.975	-130.41
881.142	-971.36
881.308	-121.97
881.474	-34.44
881.64	-57.77
881.806	-140.02
881.972	-2.51
882.138	11.69
882.304	6.77
882.47	-134.62
882.636	-536.48
882.802	-246.66
882.968	-43.4
883.134	-37.06
883.3	-29.04
883.466	0.64
883.632	21.55
883.798	-19.14
883.964	-40.16
884.129	-29.8
884.295	-22.43
884.461	-52.76
884.627	-34.35
884.793	-25.33
884.958	-16.57
885.124	-86.95
885.29	-179.61
885.455	-463.35
885.621	-151.52
885.787	-245.37
885.952	-123.53
886.118	-122.27
886.283	-96.86
886.449	-194.83
886.614	-175.27
886.78	-310.58
886.945	1166.39
887.111	-605.49
887.276	-489.49
887.442	-845.91
887.607	-462.97
887.773	-330.73
887.938	-269.58
888.103	-393.96
888.269	-320.93
888.434	-441.35
888.599	-186.37
888.764	-96.78
888.93	-29.22
889.095	-40.5
889.26	-76.27
889.425	-49.54
889.59	-78.38
889.756	-117.41
889.921	-75.07
890.086	-42.45
890.251	-29
890.416	-129.86
890.581	-1244.35
890.746	181.25
890.911	414.97
891.076	178.29
891.241	-566.79
891.406	-27.92
891.571	-161.49
891.736	-355.28
891.901	-993.36
892.065	1197.25
892.23	277.51
892.395	315.36
892.56	528.18
892.725	-762.11
892.889	-2064.63
893.054	-232.97
893.219	-96.55
893.384	-40.37
893.548	-94.95
893.713	-104.12
893.878	-75.47
