Data from Ofra_PS_T2_2A_2GT10_Reflection_3.txt Node
Date: Wed Jul 21 17:01:50 EDT 2021
User: Adam
Spectrometer: FLMT01687
Trigger mode: 0
Integration Time (sec): 1.100000E0
Scans to average: 2
Electric dark correction enabled: true
Nonlinearity correction enabled: false
Boxcar width: 2
XAxis mode: Wavelengths
Number of Pixels in Spectrum: 3648
>>>>>Begin Spectral Data<<<<<
179.494	612.8
179.716	675.06
179.937	627.02
180.158	597.5
180.38	998.75
180.601	385.64
180.823	118.67
181.044	-6.16
181.265	52.21
181.486	-7.51
181.708	76.67
181.929	420.41
182.15	-294.37
182.372	19.59
182.593	-2.79
182.814	58.52
183.035	66.43
183.257	38.9
183.478	-14.47
183.699	-22.66
183.92	-42.96
184.141	-6.86
184.363	-18.6
184.584	2.43
184.805	28.75
185.026	29.43
185.247	18.65
185.468	-4.35
185.689	15.62
185.91	1.32
186.132	13.6
186.353	20.11
186.574	67.2
186.795	55.69
187.016	25.79
187.237	12.43
187.458	0.95
187.679	3.31
187.9	-21
188.121	-13.81
188.342	-18.51
188.563	29.21
188.784	14.01
189.005	39.21
189.226	94.77
189.447	89.78
189.667	-59.22
189.888	-138.42
190.109	-1023.38
190.33	-641.94
190.551	-1087.61
190.772	-203.15
190.993	-184.49
191.214	-92.14
191.434	-52.9
191.655	17.79
191.876	-48.31
192.097	-67.48
192.318	-160.25
192.538	-230.21
192.759	-179.94
192.98	-64.19
193.201	-38.19
193.421	1.74
193.642	9.62
193.863	18.87
194.083	-0.72
194.304	-4.79
194.525	-6.44
194.745	-21.02
194.966	-39.58
195.187	-48.45
195.407	-49.94
195.628	-107.53
195.848	-86.55
196.069	-44.6
196.29	-9.52
196.51	-47.94
196.731	-20.34
196.951	-33.13
197.172	-77.26
197.392	-93.79
197.613	-55.42
197.833	-105.13
198.054	-98.81
198.274	-54.75
198.495	-54.11
198.715	-36.56
198.936	-33.27
199.156	-23.13
199.377	-99.62
199.597	-110.18
199.817	-150.06
200.038	-89.73
200.258	-154.44
200.479	-95.98
200.699	-125.44
200.919	-16.49
201.14	-66.05
201.36	-67.55
201.58	1.46
201.801	25.58
202.021	-6.58
202.241	11.5
202.461	9.32
202.682	-71.6
202.902	-123.54
203.122	-57.01
203.342	-53.71
203.563	-15.34
203.783	4.59
204.003	-14.72
204.223	-41.15
204.443	3.78
204.663	-33.8
204.884	-22.64
205.104	31.11
205.324	58.21
205.544	58.39
205.764	89.28
205.984	93.81
206.204	70.22
206.424	54.3
206.644	25.78
206.864	22.54
207.084	-34.57
207.304	-20.37
207.525	-105.63
207.745	-1.5
207.964	5.32
208.184	-30.77
208.404	-73.74
208.624	-89.88
208.844	-105.74
209.064	-451.84
209.284	-375.91
209.504	-171.48
209.724	-21.02
209.944	-16.24
210.164	26.52
210.384	10.05
210.604	-3.81
210.823	-37.02
211.043	-36.15
211.263	-24.62
211.483	-6.21
211.703	-55.86
211.922	-56.55
212.142	-7.6
212.362	-21.61
212.582	-29.05
212.801	-18.93
213.021	-19.6
213.241	-30.34
213.461	-54.19
213.68	-71.48
213.9	-30.81
214.12	-11.75
214.339	-58.63
214.559	-21.81
214.779	13.86
214.998	6.13
215.218	-43.56
215.438	-13.96
215.657	-32.62
215.877	-46.6
216.096	-25.06
216.316	-2.52
216.535	-2.97
216.755	11.9
216.974	-29.9
217.194	-56.66
217.413	-103.87
217.633	-111.4
217.852	-226.68
218.072	-93.74
218.291	-51.55
218.511	22.24
218.73	-6.09
218.95	-12.04
219.169	-24.84
219.389	-68.41
219.608	-70.42
219.827	-61.93
220.047	-44.5
220.266	-21.7
220.485	-0.13
220.705	7.08
220.924	-7.29
221.143	20.39
221.363	-7.63
221.582	1.08
221.801	6.96
222.021	16.16
222.24	-58.1
222.459	44.06
222.678	1.92
222.897	-62.5
223.117	-102.56
223.336	-36.39
223.555	-39.35
223.774	31.83
223.993	53.77
224.213	98.58
224.432	65.02
224.651	63.57
224.87	16.71
225.089	25.85
225.308	21.26
225.527	42.57
225.746	39.94
225.965	40.35
226.184	31.48
226.404	30.87
226.623	5.99
226.842	0.23
227.061	24.65
227.28	22.41
227.499	15.49
227.718	24.1
227.936	12.48
228.155	6.71
228.374	-6.48
228.593	-2.99
228.812	-13.01
229.031	-3.48
229.25	-54.37
229.469	-38.49
229.688	-39.88
229.907	-10.89
230.125	-10.3
230.344	25.5
230.563	27.6
230.782	38.18
231.001	-38.07
231.22	-9.25
231.438	-7.04
231.657	-4.26
231.876	-25.29
232.095	42.14
232.313	29.19
232.532	4.58
232.751	-15.39
232.969	-3.48
233.188	-119.53
233.407	-33.37
233.625	-0.15
233.844	-11.8
234.063	-22.56
234.281	7.34
234.5	-4.77
234.719	-4.29
234.937	14.23
235.156	24.86
235.374	33.18
235.593	15.86
235.811	-7.15
236.03	-29.01
236.249	-58.02
236.467	-70.99
236.686	-6.84
236.904	15.88
237.123	3.49
237.341	6.93
237.559	24.22
237.778	-1.37
237.996	-30.96
238.215	3.5
238.433	1.19
238.652	-19.15
238.87	-16.91
239.088	6.59
239.307	2.48
239.525	-12.4
239.743	-43.99
239.962	-43.62
240.18	-62.5
240.398	-87.23
240.617	-74.98
240.835	-29.09
241.053	-31.08
241.271	-7.44
241.49	-0.15
241.708	-11.4
241.926	-56.87
242.144	-37.89
242.363	-65.87
242.581	-69.97
242.799	-47.52
243.017	-16.98
243.235	-40.39
243.453	-38.17
243.672	-46.19
243.89	-43.42
244.108	-51.97
244.326	-23.99
244.544	-14.9
244.762	-11.95
244.98	-4.42
245.198	-4.91
245.416	-30.96
245.634	-30.99
245.852	-38.32
246.07	-46.97
246.288	-46.73
246.506	-76.23
246.724	-56.96
246.942	-34.76
247.16	-2.8
247.378	6.97
247.596	43.02
247.814	15.72
248.032	-12.91
248.25	-19.98
248.468	-21.6
248.685	-26.67
248.903	2.99
249.121	7.81
249.339	-16.24
249.557	-26.45
249.775	-14.38
249.992	-61.96
250.21	-68.47
250.428	-53.72
250.646	-80.07
250.863	-104.02
251.081	-63.63
251.299	-48.52
251.517	-21.56
251.734	-5.42
251.952	9.25
252.17	-0.61
252.387	10.65
252.605	-4.61
252.823	4.27
253.04	6.79
253.258	23.41
253.475	4.52
253.693	30.25
253.911	25.3
254.128	20.29
254.346	23.37
254.563	20.26
254.781	4.03
254.998	2.28
255.216	10.04
255.433	-7.75
255.651	31.41
255.868	35.66
256.086	51.73
256.303	44.02
256.521	37.9
256.738	14.37
256.956	-3.9
257.173	-35.81
257.39	-38.96
257.608	-45.17
257.825	8.26
258.043	36.32
258.26	55.98
258.477	70.41
258.695	54.88
258.912	7.92
259.129	4.72
259.346	-41.23
259.564	-70.46
259.781	-85.29
259.998	-30.85
260.216	-3.14
260.433	40.61
260.65	40.24
260.867	43.77
261.084	18.56
261.302	-11.57
261.519	-7.06
261.736	-11.32
261.953	-5.26
262.17	19.13
262.387	10.77
262.604	-37.41
262.822	-54.86
263.039	-42.22
263.256	-76.08
263.473	-43.52
263.69	-17.88
263.907	8.39
264.124	26.18
264.341	26.59
264.558	24.72
264.775	39.36
264.992	23.05
265.209	-1.46
265.426	1.83
265.643	-4.9
265.86	0.06
266.077	8.84
266.294	-6.62
266.51	-12.68
266.727	-26.27
266.944	-39.71
267.161	-30.53
267.378	-11.04
267.595	16.11
267.812	-0.77
268.028	-11.09
268.245	-0.43
268.462	-24.79
268.679	-32
268.896	28.23
269.112	22.93
269.329	14.59
269.546	7.64
269.763	10.03
269.979	-7.29
270.196	1.08
270.413	-27.91
270.629	-27.59
270.846	-43.81
271.063	-52.63
271.279	-75.43
271.496	-46.33
271.712	-8.71
271.929	0.82
272.146	-16.15
272.362	-2.36
272.579	15.06
272.795	6.17
273.012	6.57
273.228	15.25
273.445	14.91
273.661	-3.1
273.878	-30.05
274.094	-31.8
274.311	-47.31
274.527	-4.18
274.744	-0.89
274.96	-3.71
275.177	7.65
275.393	28.86
275.609	15.34
275.826	37.06
276.042	49.4
276.259	25.77
276.475	28.5
276.691	31.92
276.908	4.43
277.124	4.62
277.34	11.93
277.557	0.83
277.773	6.53
277.989	-1.12
278.205	-2.58
278.422	13.04
278.638	7.32
278.854	8.45
279.07	13.13
279.286	13.81
279.503	-13.17
279.719	-14.25
279.935	-24.33
280.151	-9.95
280.367	5.3
280.583	3.65
280.799	-2.17
281.016	-20.71
281.232	-8.65
281.448	-23.11
281.664	-0.46
281.88	-27.19
282.096	-6.28
282.312	-3.99
282.528	37.3
282.744	31.04
282.96	22.54
283.176	10.11
283.392	16.6
283.608	-6.79
283.824	-3
284.04	17.04
284.256	23.29
284.471	1.05
284.687	-1.91
284.903	9.54
285.119	20.49
285.335	6.57
285.551	27.85
285.767	14.51
285.982	-3.58
286.198	-29.14
286.414	5.73
286.63	13.21
286.846	31.85
287.061	9.01
287.277	36.83
287.493	4.81
287.709	0.05
287.924	-14.81
288.14	14.3
288.356	-6.47
288.571	27.31
288.787	15.31
289.003	13.57
289.218	-1.73
289.434	-35.94
289.65	-47.35
289.865	-50.48
290.081	-36.56
290.296	-10.88
290.512	10.22
290.727	-0.52
290.943	-11.87
291.159	-19.38
291.374	-25.08
291.59	-26.51
291.805	-20.64
292.021	-4.05
292.236	-2.01
292.451	3.63
292.667	7.13
292.882	19.81
293.098	8.51
293.313	-15.94
293.529	-29.55
293.744	-47.85
293.959	-63.37
294.175	-52.77
294.39	1.96
294.605	9.77
294.821	25.63
295.036	32.14
295.251	32.03
295.467	2.27
295.682	0.06
295.897	-42.2
296.112	-46.22
296.328	-34.05
296.543	-51.15
296.758	-54.06
296.973	-3.65
297.188	30.94
297.404	6.73
297.619	-3.86
297.834	-9.69
298.049	-43.59
298.264	-78.84
298.479	-26.58
298.694	-18.08
298.909	1.22
299.125	9.4
299.34	11.29
299.555	-12.56
299.77	6.65
299.985	-40.96
300.2	-73.3
300.415	-86.07
300.63	-33.23
300.845	-52.27
301.06	-33.03
301.275	-7.66
301.49	23.77
301.704	-2.38
301.919	-4.58
302.134	-11.06
302.349	-13.6
302.564	-88.41
302.779	-114.67
302.994	-59.56
303.209	-15.76
303.423	15.3
303.638	58.79
303.853	38.24
304.068	4.32
304.283	-9.7
304.497	-9.42
304.712	-14.87
304.927	-12.33
305.142	-6.42
305.356	2.84
305.571	-9.98
305.786	-25.04
306	-41.63
306.215	-39.42
306.43	-51.72
306.644	-36.62
306.859	-18.32
307.074	-0.91
307.288	-14.7
307.503	-31.57
307.717	-44.75
307.932	-46.24
308.147	-46.38
308.361	-38.77
308.576	-43.04
308.79	-73.94
309.005	-61.13
309.219	-42.74
309.434	-53.77
309.648	-45.55
309.863	-18.51
310.077	-11.92
310.292	-19.95
310.506	-7.89
310.72	16.63
310.935	20.29
311.149	18.69
311.364	33.7
311.578	42.93
311.792	20.6
312.007	23.45
312.221	9.97
312.435	17.23
312.649	-2.67
312.864	42.59
313.078	63.55
313.292	127.68
313.507	78
313.721	90.5
313.935	41.51
314.149	18.47
314.363	-0.73
314.578	9.93
314.792	9.36
315.006	-13.34
315.22	7.05
315.434	11.84
315.648	16.93
315.862	34.56
316.077	47.52
316.291	22.12
316.505	33.76
316.719	26.76
316.933	-18.21
317.147	-29.01
317.361	-37.38
317.575	-66.39
317.789	-113.46
318.003	-164.2
318.217	-128.18
318.431	-43.53
318.645	3.17
318.859	24.48
319.073	47
319.287	37.86
319.5	6.99
319.714	-24
319.928	-53.04
320.142	-74.98
320.356	-38.88
320.57	-16.03
320.784	-46.22
320.997	-48.58
321.211	-47.06
321.425	-101.08
321.639	-116.55
321.853	-50.91
322.066	-21.11
322.28	-19.79
322.494	-5.01
322.707	22.86
322.921	10.19
323.135	-0.89
323.349	-4.55
323.562	-7.43
323.776	-38.29
323.989	-30.49
324.203	-41.35
324.417	-25.3
324.63	-42.13
324.844	-34.96
325.057	-28.82
325.271	-7.89
325.485	1.05
325.698	19.82
325.912	40.95
326.125	4.04
326.339	-3.43
326.552	-24.75
326.766	-25.15
326.979	-22.97
327.193	22.86
327.406	10.1
327.619	10.39
327.833	14.28
328.046	-7.21
328.26	-36.28
328.473	-10.16
328.686	-24.73
328.9	-23.21
329.113	-2.54
329.326	-20.53
329.54	1.91
329.753	-5.52
329.966	-23.98
330.179	-26.02
330.393	-20.03
330.606	-13.44
330.819	7.54
331.032	26.2
331.246	35.24
331.459	54.65
331.672	44.02
331.885	33.44
332.098	6.89
332.311	-24.29
332.525	-62.21
332.738	-75.92
332.951	-38.3
333.164	-8.37
333.377	12.44
333.59	31.77
333.803	32.8
334.016	19.14
334.229	19.21
334.442	22.22
334.655	30.86
334.868	40.75
335.081	31.26
335.294	12.59
335.507	-10.1
335.72	-16.95
335.933	-24.19
336.146	-26.19
336.359	-14.34
336.572	-23.32
336.785	-41.17
336.997	-39.09
337.21	-15.35
337.423	-28.53
337.636	-22.45
337.849	-1.28
338.062	-0.5
338.274	-7.13
338.487	0.63
338.7	-9.6
338.913	-51.19
339.125	-81.24
339.338	-120.6
339.551	-133.93
339.763	-86.04
339.976	-47.08
340.189	-0.73
340.402	9.75
340.614	10.25
340.827	-1.55
341.039	-21.98
341.252	-32.35
341.465	-16.41
341.677	-14.78
341.89	-41.89
342.102	-27.56
342.315	-46.32
342.527	-74.27
342.74	-43.84
342.952	-19.01
343.165	-5.86
343.377	18.2
343.59	3.73
343.802	3.89
344.015	14.3
344.227	20.47
344.44	12.46
344.652	27.02
344.864	10.78
345.077	31.38
345.289	35.14
345.502	30.39
345.714	21.89
345.926	31.8
346.139	8.05
346.351	3.78
346.563	18.48
346.775	27.23
346.988	9.73
347.2	1.79
347.412	-40.63
347.624	-57.03
347.837	-99.1
348.049	-56.5
348.261	-18.59
348.473	-4.97
348.685	-9
348.897	1.28
349.11	-35.41
349.322	-57.8
349.534	-40.55
349.746	-26.64
349.958	-17.94
350.17	8.3
350.382	23.43
350.594	16.01
350.806	14.65
351.018	27.94
351.23	13.18
351.442	-23.97
351.654	-29.24
351.866	-29.23
352.078	-35.66
352.29	-8.62
352.502	4.32
352.714	10.55
352.926	0.32
353.138	0.17
353.35	-11.52
353.561	-15.29
353.773	-35.47
353.985	-22.4
354.197	-25
354.409	-26.4
354.621	-31.09
354.832	-5.26
355.044	-6.17
355.256	-21.62
355.468	5.81
355.679	12.18
355.891	10.04
356.103	-4.36
356.314	16.7
356.526	10.03
356.738	17.58
356.949	24.35
357.161	28.32
357.373	11.65
357.584	-6.68
357.796	-7.14
358.008	-13.11
358.219	1.4
358.431	-0.36
358.642	7.57
358.854	-1.08
359.065	-13.4
359.277	-42.22
359.488	-52.74
359.7	-76.7
359.911	-81.53
360.123	-61.57
360.334	-71.06
360.546	-72.86
360.757	-60.31
360.969	-43.49
361.18	-34.77
361.391	-15.17
361.603	-23.65
361.814	-16.83
362.025	-21.4
362.237	-29.09
362.448	-14.48
362.659	0.77
362.871	1.56
363.082	-7.51
363.293	1.46
363.504	-27.79
363.716	-48.49
363.927	-60.79
364.138	-66.59
364.349	-85.47
364.56	-51.24
364.772	-38.72
364.983	-17.9
365.194	-13.16
365.405	6.21
365.616	20.73
365.827	22.89
366.038	-0.26
366.25	-3.2
366.461	-44.86
366.672	-28.63
366.883	-3.99
367.094	4.32
367.305	-7.7
367.516	3.98
367.727	-27.33
367.938	-39.76
368.149	-29.86
368.36	-5.04
368.571	-4.76
368.781	-17.35
368.992	-38
369.203	-60.47
369.414	-101.58
369.625	-99.64
369.836	-78.8
370.047	-90.09
370.258	-62.89
370.468	-42.38
370.679	-51.6
370.89	-45.3
371.101	-17.7
371.312	-26.56
371.522	-20.64
371.733	-18.73
371.944	-10.94
372.155	-3.29
372.365	-4.23
372.576	-6.4
372.787	-9.81
372.997	-29.18
373.208	-29.82
373.419	-16.3
373.629	-41.49
373.84	-36.66
374.05	-35.05
374.261	-27.15
374.472	-22.14
374.682	14.84
374.893	17.74
375.103	43.14
375.314	29.97
375.524	24.65
375.735	15.77
375.945	26.08
376.156	-0.44
376.366	-0.08
376.577	6.2
376.787	5.62
376.997	5.83
377.208	1.77
377.418	-14.81
377.629	-18.88
377.839	-24.77
378.049	-19.6
378.26	-0.06
378.47	12.8
378.68	9.8
378.89	9.34
379.101	-3.95
379.311	-37.14
379.521	-53.42
379.732	-55.97
379.942	-47.37
380.152	-56.5
380.362	-15.68
380.572	-10.19
380.783	-6.63
380.993	1.14
381.203	16.65
381.413	9.81
381.623	2.99
381.833	15.32
382.043	5.26
382.253	-3.09
382.463	-4.4
382.674	-12.12
382.884	-29.79
383.094	-28.21
383.304	-16.72
383.514	-8.43
383.724	2.09
383.934	2.81
384.144	-5.94
384.353	-17.81
384.563	-23.74
384.773	-20.34
384.983	-30.05
385.193	-4.63
385.403	-1.05
385.613	3.97
385.823	-3.98
386.033	1.84
386.242	-8.92
386.452	-11.92
386.662	-20.49
386.872	-6.19
387.082	-8.48
387.291	-15.95
387.501	-13.26
387.711	-2.61
387.921	-9.21
388.13	-8.09
388.34	0.94
388.55	-2.23
388.759	-4.6
388.969	-0.59
389.179	-5.72
389.388	-6.76
389.598	0.26
389.807	-5.72
390.017	-14.15
390.227	-7.85
390.436	-11.43
390.646	-12.2
390.855	-8.19
391.065	-7.16
391.274	-10.88
391.484	-11.77
391.693	-11.54
391.903	-9.67
392.112	-2.94
392.322	0.44
392.531	5.36
392.74	3.59
392.95	-1.15
393.159	-3.26
393.369	-3.35
393.578	-4.75
393.787	-3.84
393.997	-2.5
394.206	-4.29
394.415	-4.24
394.625	-3.48
394.834	-4.35
395.043	-3.1
395.252	-1.02
395.462	-0.26
395.671	0.28
395.88	0.83
396.089	1.2
396.298	0.07
396.508	0.62
396.717	-0.29
396.926	-0.35
397.135	0.18
397.344	0.76
397.553	0.77
397.762	2.15
397.971	2.5
398.181	2.41
398.39	1.79
398.599	1.44
398.808	0.98
399.017	1.4
399.226	2.2
399.435	3.29
399.644	2.9
399.853	2.54
400.062	2.22
400.27	1.25
400.479	0.61
400.688	0.45
400.897	0.48
401.106	0.85
401.315	1.18
401.524	1.33
401.733	1.8
401.941	2.08
402.15	2.1
402.359	1.66
402.568	1.86
402.777	2.05
402.985	2
403.194	1.69
403.403	1.7
403.612	1.34
403.82	0.94
404.029	1.1
404.238	0.98
404.446	1.41
404.655	1.26
404.864	1.58
405.072	1.33
405.281	1.66
405.489	1.44
405.698	1.44
405.906	1.29
406.115	1.28
406.324	1.16
406.532	1.13
406.741	1.53
406.949	1.52
407.158	1.54
407.366	1.66
407.574	1.68
407.783	1.67
407.991	1.56
408.2	1.64
408.408	1.45
408.617	1.41
408.825	1.26
409.033	1.29
409.242	1.45
409.45	1.61
409.658	1.59
409.867	1.71
410.075	1.67
410.283	1.48
410.491	1.3
410.7	1.3
410.908	1.22
411.116	1.49
411.324	1.43
411.533	1.4
411.741	1.48
411.949	1.43
412.157	1.18
412.365	1.19
412.573	1.37
412.781	1.47
412.99	1.38
413.198	1.59
413.406	1.6
413.614	1.39
413.822	1.21
414.03	1.33
414.238	1.09
414.446	1.25
414.654	1.23
414.862	1.42
415.07	1.44
415.278	1.76
415.486	1.52
415.694	1.68
415.902	1.44
416.109	1.31
416.317	1.18
416.525	1.09
416.733	1.06
416.941	1.31
417.149	1.35
417.357	1.32
417.564	1.55
417.772	1.72
417.98	1.62
418.188	1.7
418.395	1.8
418.603	1.89
418.811	1.61
419.019	1.58
419.226	1.67
419.434	1.66
419.642	1.46
419.849	1.55
420.057	1.63
420.265	1.56
420.472	1.26
420.68	1.23
420.887	1.02
421.095	0.97
421.302	0.98
421.51	1.23
421.717	1.39
421.925	1.69
422.132	1.52
422.34	1.25
422.547	1.07
422.755	1.07
422.962	0.99
423.17	1.05
423.377	1.29
423.585	1.44
423.792	1.32
423.999	1.23
424.207	1.21
424.414	1.3
424.621	1.21
424.829	1.2
425.036	1.38
425.243	1.5
425.451	1.28
425.658	1.25
425.865	1.43
426.072	1.36
426.28	1.46
426.487	1.47
426.694	1.54
426.901	1.37
427.108	1.3
427.315	1.23
427.523	1.38
427.73	1.41
427.937	1.46
428.144	1.4
428.351	1.28
428.558	1.34
428.765	1.21
428.972	1.09
429.179	1.14
429.386	1.4
429.593	1.16
429.8	1.07
430.007	1.25
430.214	1.44
430.421	1.18
430.628	1.2
430.835	1.21
431.042	1.16
431.249	1.07
431.456	1.13
431.662	1.27
431.869	1.43
432.076	1.44
432.283	1.44
432.49	1.5
432.697	1.53
432.903	1.3
433.11	1.4
433.317	1.44
433.524	1.57
433.73	1.42
433.937	1.67
434.144	1.46
434.35	1.43
434.557	1.25
434.764	1.26
434.97	1.08
435.177	1.35
435.384	1.3
435.59	1.4
435.797	1.7
436.003	1.84
436.21	1.76
436.416	1.78
436.623	1.8
436.829	1.65
437.036	1.73
437.242	1.7
437.449	1.56
437.655	1.53
437.862	1.47
438.068	1.32
438.275	1.42
438.481	1.74
438.687	1.63
438.894	1.66
439.1	1.76
439.307	1.79
439.513	1.65
439.719	1.63
439.926	1.81
440.132	1.75
440.338	1.56
440.544	1.58
440.751	1.59
440.957	1.52
441.163	1.4
441.369	1.57
441.575	1.49
441.782	1.51
441.988	1.42
442.194	1.49
442.4	1.44
442.606	1.69
442.812	1.88
443.018	1.95
443.224	2.02
443.431	2.08
443.637	1.83
443.843	1.66
444.049	1.66
444.255	1.6
444.461	1.66
444.667	1.7
444.873	1.73
445.079	1.73
445.284	1.81
445.49	1.62
445.696	1.53
445.902	1.53
446.108	1.52
446.314	1.46
446.52	1.5
446.726	1.7
446.931	1.68
447.137	1.68
447.343	1.71
447.549	1.67
447.755	1.59
447.96	1.64
448.166	1.56
448.372	1.55
448.578	1.6
448.783	1.6
448.989	1.65
449.195	1.91
449.4	1.91
449.606	1.87
449.812	1.78
450.017	1.79
450.223	1.65
450.428	1.56
450.634	1.63
450.84	1.83
451.045	1.76
451.251	1.7
451.456	1.97
451.662	2.06
451.867	2.04
452.073	2.03
452.278	2.09
452.483	2.19
452.689	2.1
452.894	2.12
453.1	2.17
453.305	2.15
453.51	1.96
453.716	1.93
453.921	1.9
454.127	1.83
454.332	1.75
454.537	1.73
454.742	1.73
454.948	1.72
455.153	1.88
455.358	1.97
455.563	2.12
455.769	2.3
455.974	2.29
456.179	2.07
456.384	2.07
456.589	1.92
456.795	1.68
457	1.7
457.205	1.95
457.41	1.92
457.615	1.9
457.82	1.98
458.025	1.99
458.23	1.9
458.435	1.91
458.64	1.88
458.845	2.04
459.05	1.92
459.255	1.96
459.46	1.96
459.665	2.02
459.87	2
460.075	2.12
460.28	2.13
460.485	2.2
460.69	2.28
460.895	2.08
461.099	1.96
461.304	2.05
461.509	2.1
461.714	2.05
461.919	2.17
462.123	2.14
462.328	2.13
462.533	2.04
462.738	2.05
462.942	2.01
463.147	2.15
463.352	2.15
463.556	2.21
463.761	2.24
463.966	2.28
464.17	2.29
464.375	2.17
464.58	2.07
464.784	2.04
464.989	2.03
465.193	2.03
465.398	2.12
465.602	2.3
465.807	2.24
466.011	2.31
466.216	2.34
466.42	2.41
466.625	2.35
466.829	2.45
467.034	2.52
467.238	2.67
467.443	2.63
467.647	2.58
467.851	2.63
468.056	2.6
468.26	2.48
468.464	2.47
468.669	2.61
468.873	2.71
469.077	2.69
469.282	2.76
469.486	2.78
469.69	2.78
469.894	2.6
470.099	2.61
470.303	2.68
470.507	2.68
470.711	2.54
470.915	2.55
471.119	2.53
471.324	2.46
471.528	2.47
471.732	2.6
471.936	2.65
472.14	2.71
472.344	2.73
472.548	2.73
472.752	2.82
472.956	3.01
473.16	3.05
473.364	2.99
473.568	3.02
473.772	3.07
473.976	2.93
474.18	2.87
474.384	2.95
474.588	2.9
474.792	2.8
474.995	2.81
475.199	2.96
475.403	2.98
475.607	3.03
475.811	2.96
476.015	3.07
476.218	3.07
476.422	3.02
476.626	3.11
476.83	3.3
477.033	3.2
477.237	3.11
477.441	3.18
477.644	3.1
477.848	3.03
478.052	3.06
478.255	3.05
478.459	3.1
478.663	3.23
478.866	3.2
479.07	3.22
479.273	3.37
479.477	3.33
479.681	3.29
479.884	3.28
480.088	3.27
480.291	3.18
480.495	3.15
480.698	3.21
480.901	3.2
481.105	3.3
481.308	3.3
481.512	3.32
481.715	3.3
481.919	3.42
482.122	3.38
482.325	3.4
482.529	3.43
482.732	3.42
482.935	3.25
483.138	3.2
483.342	3.25
483.545	3.28
483.748	3.38
483.952	3.51
484.155	3.66
484.358	3.66
484.561	3.66
484.764	3.55
484.967	3.58
485.171	3.6
485.374	3.53
485.577	3.62
485.78	3.66
485.983	3.6
486.186	3.48
486.389	3.48
486.592	3.43
486.795	3.47
486.998	3.46
487.201	3.55
487.404	3.6
487.607	3.69
487.81	3.64
488.013	3.74
488.216	3.7
488.419	3.74
488.622	3.62
488.825	3.56
489.028	3.48
489.231	3.44
489.433	3.37
489.636	3.34
489.839	3.32
490.042	3.28
490.245	3.31
490.447	3.41
490.65	3.38
490.853	3.4
491.056	3.51
491.258	3.54
491.461	3.52
491.664	3.62
491.866	3.6
492.069	3.61
492.272	3.51
492.474	3.54
492.677	3.54
492.879	3.66
493.082	3.67
493.285	3.82
493.487	3.75
493.69	3.69
493.892	3.59
494.095	3.54
494.297	3.48
494.5	3.53
494.702	3.55
494.905	3.58
495.107	3.61
495.309	3.63
495.512	3.61
495.714	3.64
495.917	3.66
496.119	3.62
496.321	3.64
496.524	3.66
496.726	3.63
496.928	3.66
497.13	3.68
497.333	3.62
497.535	3.61
497.737	3.69
497.939	3.62
498.142	3.68
498.344	3.74
498.546	3.66
498.748	3.67
498.95	3.77
499.152	3.77
499.355	3.78
499.557	3.9
499.759	3.92
499.961	3.86
500.163	3.87
500.365	3.89
500.567	3.89
500.769	3.83
500.971	3.88
501.173	3.86
501.375	3.9
501.577	3.85
501.779	3.86
501.981	3.86
502.183	3.88
502.385	3.84
502.587	3.8
502.788	3.86
502.99	3.85
503.192	3.86
503.394	3.86
503.596	3.91
503.798	3.95
503.999	4
504.201	3.99
504.403	4.03
504.605	4.02
504.806	3.96
505.008	3.93
505.21	4.03
505.411	4.01
505.613	4.07
505.815	4.11
506.016	4.17
506.218	4.26
506.42	4.28
506.621	4.31
506.823	4.33
507.024	4.3
507.226	4.21
507.427	4.19
507.629	4.24
507.83	4.25
508.032	4.2
508.233	4.27
508.435	4.34
508.636	4.34
508.838	4.3
509.039	4.36
509.24	4.36
509.442	4.3
509.643	4.22
509.845	4.25
510.046	4.33
510.247	4.28
510.448	4.34
510.65	4.44
510.851	4.53
511.052	4.5
511.254	4.54
511.455	4.59
511.656	4.64
511.857	4.67
512.058	4.65
512.26	4.67
512.461	4.59
512.662	4.56
512.863	4.44
513.064	4.46
513.265	4.47
513.466	4.55
513.667	4.53
513.868	4.61
514.069	4.67
514.27	4.77
514.471	4.69
514.672	4.68
514.873	4.64
515.074	4.69
515.275	4.54
515.476	4.61
515.677	4.65
515.878	4.79
516.079	4.72
516.28	4.77
516.481	4.84
516.682	4.86
516.882	4.75
517.083	4.77
517.284	4.78
517.485	4.73
517.686	4.72
517.886	4.73
518.087	4.79
518.288	4.84
518.488	4.83
518.689	4.83
518.89	4.81
519.091	4.77
519.291	4.73
519.492	4.77
519.692	4.8
519.893	4.87
520.094	4.93
520.294	4.99
520.495	4.95
520.695	4.97
520.896	4.96
521.096	4.95
521.297	4.96
521.497	4.98
521.698	4.95
521.898	4.91
522.099	4.89
522.299	4.96
522.499	4.98
522.7	5.06
522.9	5.08
523.101	5.15
523.301	5.11
523.501	5.12
523.702	5.06
523.902	5.18
524.102	5.2
524.302	5.22
524.503	5.29
524.703	5.33
524.903	5.32
525.103	5.3
525.304	5.34
525.504	5.33
525.704	5.37
525.904	5.33
526.104	5.35
526.304	5.37
526.504	5.41
526.705	5.45
526.905	5.55
527.105	5.56
527.305	5.55
527.505	5.51
527.705	5.44
527.905	5.38
528.105	5.4
528.305	5.35
528.505	5.39
528.705	5.48
528.905	5.48
529.105	5.48
529.304	5.56
529.504	5.64
529.704	5.55
529.904	5.58
530.104	5.59
530.304	5.64
530.503	5.56
530.703	5.55
530.903	5.52
531.103	5.56
531.303	5.49
531.502	5.55
531.702	5.64
531.902	5.65
532.101	5.64
532.301	5.67
532.501	5.68
532.7	5.65
532.9	5.74
533.1	5.79
533.299	5.86
533.499	5.85
533.698	5.84
533.898	5.79
534.097	5.79
534.297	5.79
534.496	5.81
534.696	5.91
534.895	6.01
535.095	6.07
535.294	6.05
535.494	6
535.693	6
535.892	5.98
536.092	5.91
536.291	5.9
536.491	5.99
536.69	6.04
536.889	5.99
537.088	6.01
537.288	6.07
537.487	6.09
537.686	6.02
537.886	6.12
538.085	6.15
538.284	6.24
538.483	6.22
538.682	6.34
538.882	6.36
539.081	6.42
539.28	6.31
539.479	6.33
539.678	6.29
539.877	6.38
540.076	6.4
540.275	6.51
540.474	6.6
540.673	6.67
540.872	6.63
541.071	6.68
541.27	6.64
541.469	6.67
541.668	6.65
541.867	6.65
542.066	6.69
542.265	6.79
542.464	6.72
542.663	6.73
542.862	6.87
543.06	6.92
543.259	6.98
543.458	7.09
543.657	7.17
543.856	7.17
544.054	7.11
544.253	7.08
544.452	7.06
544.651	7.13
544.849	7.12
545.048	7.19
545.247	7.19
545.445	7.29
545.644	7.29
545.843	7.28
546.041	7.31
546.24	7.42
546.438	7.5
546.637	7.55
546.836	7.67
547.034	7.72
547.233	7.73
547.431	7.67
547.63	7.67
547.828	7.68
548.027	7.72
548.225	7.73
548.423	7.76
548.622	7.86
548.82	7.83
549.019	7.84
549.217	7.93
549.415	7.99
549.614	8.07
549.812	8.12
550.01	8.17
550.209	8.2
550.407	8.29
550.605	8.28
550.803	8.35
551.002	8.44
551.2	8.44
551.398	8.48
551.596	8.56
551.794	8.6
551.993	8.7
552.191	8.75
552.389	8.84
552.587	8.92
552.785	9.02
552.983	9.06
553.181	9.25
553.379	9.3
553.577	9.26
553.775	9.37
553.973	9.44
554.171	9.4
554.369	9.42
554.567	9.52
554.765	9.5
554.963	9.51
555.161	9.54
555.359	9.64
555.557	9.74
555.755	9.82
555.952	9.96
556.15	10.05
556.348	10.07
556.546	10.15
556.744	10.17
556.941	10.11
557.139	10.21
557.337	10.28
557.535	10.31
557.732	10.35
557.93	10.47
558.128	10.5
558.325	10.58
558.523	10.61
558.721	10.77
558.918	10.83
559.116	10.9
559.313	10.93
559.511	11.11
559.708	11.12
559.906	11.22
560.104	11.29
560.301	11.45
560.498	11.44
560.696	11.53
560.893	11.61
561.091	11.71
561.288	11.71
561.486	11.79
561.683	11.88
561.88	11.97
562.078	12.04
562.275	12.1
562.473	12.21
562.67	12.33
562.867	12.4
563.064	12.47
563.262	12.56
563.459	12.6
563.656	12.7
563.853	12.7
564.051	12.83
564.248	12.97
564.445	13.12
564.642	13.09
564.839	13.22
565.036	13.32
565.234	13.43
565.431	13.44
565.628	13.61
565.825	13.74
566.022	13.84
566.219	13.83
566.416	13.95
566.613	14.01
566.81	14.07
567.007	14.02
567.204	14.09
567.401	14.05
567.598	14.1
567.795	14.09
567.991	14.2
568.188	14.34
568.385	14.5
568.582	14.53
568.779	14.62
568.976	14.73
569.172	14.78
569.369	14.8
569.566	14.9
569.763	15.05
569.96	15.06
570.156	15.09
570.353	15.13
570.55	15.22
570.746	15.28
570.943	15.36
571.14	15.38
571.336	15.47
571.533	15.56
571.729	15.5
571.926	15.6
572.123	15.76
572.319	15.84
572.516	15.83
572.712	15.98
572.909	15.99
573.105	15.99
573.302	15.99
573.498	16.12
573.695	16.13
573.891	16.16
574.087	16.19
574.284	16.22
574.48	16.17
574.677	16.15
574.873	16.19
575.069	16.26
575.266	16.32
575.462	16.3
575.658	16.45
575.854	16.49
576.051	16.55
576.247	16.52
576.443	16.59
576.639	16.55
576.835	16.5
577.032	16.44
577.228	16.59
577.424	16.69
577.62	16.67
577.816	16.74
578.012	16.81
578.208	16.76
578.404	16.74
578.6	16.85
578.796	16.87
578.993	16.83
579.189	16.75
579.384	16.69
579.58	16.56
579.776	16.56
579.972	16.56
580.168	16.59
580.364	16.67
580.56	16.7
580.756	16.65
580.952	16.62
581.148	16.73
581.343	16.76
581.539	16.84
581.735	16.87
581.931	16.9
582.127	16.83
582.322	16.76
582.518	16.83
582.714	16.83
582.909	16.89
583.105	16.92
583.301	16.92
583.496	16.86
583.692	16.86
583.888	16.85
584.083	16.86
584.279	16.92
584.474	16.96
584.67	17
584.866	17.03
585.061	16.94
585.257	16.97
585.452	16.93
585.648	16.93
585.843	16.94
586.039	16.95
586.234	16.91
586.429	16.91
586.625	16.89
586.82	16.85
587.015	16.87
587.211	16.82
587.406	16.92
587.601	16.91
587.797	16.91
587.992	16.94
588.187	17
588.383	16.88
588.578	16.95
588.773	16.99
588.968	16.94
589.163	17.07
589.359	17.07
589.554	17.1
589.749	17.12
589.944	17.28
590.139	17.18
590.334	17.27
590.529	17.18
590.724	17.27
590.919	17.32
591.114	17.24
591.309	17.32
591.504	17.46
591.699	17.42
591.894	17.42
592.089	17.52
592.284	17.44
592.479	17.48
592.674	17.49
592.869	17.51
593.064	17.63
593.259	17.8
593.454	17.77
593.648	17.87
593.843	17.91
594.038	17.94
594.233	17.91
594.428	18.02
594.622	18.04
594.817	18.23
595.012	18.22
595.206	18.28
595.401	18.3
595.596	18.35
595.79	18.37
595.985	18.54
596.18	18.6
596.374	18.73
596.569	18.82
596.763	18.71
596.958	18.74
597.153	18.87
597.347	18.88
597.542	19.02
597.736	19.2
597.931	19.24
598.125	19.26
598.319	19.41
598.514	19.38
598.708	19.41
598.903	19.4
599.097	19.46
599.291	19.46
599.486	19.47
599.68	19.44
599.874	19.51
600.069	19.47
600.263	19.49
600.457	19.62
600.651	19.74
600.846	19.75
601.04	19.86
601.234	19.86
601.428	19.93
601.622	19.99
601.817	20.03
602.011	20.05
602.205	20.18
602.399	20.11
602.593	20.07
602.787	20.07
602.981	20.09
603.175	20.03
603.369	19.97
603.563	20.03
603.757	20.15
603.951	20.12
604.145	20.1
604.339	20.22
604.533	20.19
604.727	20.02
604.921	19.99
605.115	19.98
605.309	20.04
605.502	19.96
605.696	20.02
605.89	19.93
606.084	19.88
606.278	19.72
606.471	19.69
606.665	19.61
606.859	19.54
607.053	19.45
607.246	19.47
607.44	19.52
607.634	19.5
607.827	19.55
608.021	19.53
608.214	19.44
608.408	19.27
608.602	19.27
608.795	19.2
608.989	19.15
609.182	19.03
609.376	19.02
609.569	18.89
609.763	18.84
609.956	18.77
610.15	18.7
610.343	18.66
610.537	18.57
610.73	18.58
610.923	18.58
611.117	18.61
611.31	18.58
611.504	18.58
611.697	18.44
611.89	18.37
612.083	18.31
612.277	18.35
612.47	18.31
612.663	18.35
612.856	18.26
613.05	18.14
613.243	17.99
613.436	17.87
613.629	17.69
613.822	17.58
614.015	17.51
614.209	17.39
614.402	17.41
614.595	17.55
614.788	17.58
614.981	17.58
615.174	17.54
615.367	17.45
615.56	17.28
615.753	17.19
615.946	17.11
616.139	17.08
616.332	17.13
616.525	17.12
616.718	17.17
616.911	17.21
617.103	17.22
617.296	17.18
617.489	17.14
617.682	17.05
617.875	16.98
618.067	16.93
618.26	16.82
618.453	16.84
618.646	16.83
618.838	16.8
619.031	16.83
619.224	16.81
619.417	16.76
619.609	16.68
619.802	16.59
619.994	16.54
620.187	16.55
620.38	16.5
620.572	16.51
620.765	16.6
620.957	16.46
621.15	16.44
621.342	16.36
621.535	16.35
621.727	16.25
621.92	16.29
622.112	16.19
622.305	16.28
622.497	16.21
622.69	16.21
622.882	16.17
623.074	16.22
623.267	16.14
623.459	16.16
623.651	16.05
623.844	16.13
624.036	16.16
624.228	16.09
624.42	16.11
624.613	16.32
624.805	16.22
624.997	16.14
625.189	16.18
625.381	16.16
625.574	16.06
625.766	16.01
625.958	15.99
626.15	16.01
626.342	15.94
626.534	15.95
626.726	15.96
626.918	15.93
627.11	15.83
627.302	15.87
627.494	15.75
627.686	15.76
627.878	15.73
628.07	15.73
628.262	15.62
628.454	15.64
628.646	15.67
628.838	15.72
629.029	15.65
629.221	15.7
629.413	15.58
629.605	15.45
629.797	15.4
629.989	15.45
630.18	15.45
630.372	15.44
630.564	15.43
630.755	15.47
630.947	15.56
631.139	15.41
631.33	15.42
631.522	15.54
631.714	15.53
631.905	15.42
632.097	15.46
632.289	15.52
632.48	15.45
632.672	15.34
632.863	15.25
633.055	15.15
633.246	15.14
633.438	15.06
633.629	15.03
633.821	15.08
634.012	15.12
634.203	15
634.395	15.01
634.586	15.03
634.777	14.98
634.969	14.95
635.16	15.02
635.351	15.01
635.543	15.09
635.734	15.01
635.925	15.04
636.117	15.09
636.308	15.05
636.499	14.92
636.69	14.92
636.881	14.9
637.073	14.86
637.264	14.82
637.455	14.84
637.646	14.99
637.837	15.09
638.028	15.07
638.219	15.18
638.41	15.11
638.601	14.93
638.792	14.88
638.983	14.85
639.174	14.75
639.365	14.81
639.556	14.85
639.747	14.76
639.938	14.84
640.129	14.84
640.32	14.79
640.511	14.82
640.701	14.94
640.892	14.72
641.083	14.76
641.274	14.85
641.465	14.84
641.655	14.7
641.846	14.79
642.037	14.68
642.228	14.59
642.418	14.61
642.609	14.64
642.8	14.63
642.99	14.59
643.181	14.57
643.372	14.58
643.562	14.55
643.753	14.49
643.943	14.5
644.134	14.47
644.324	14.35
644.515	14.38
644.705	14.39
644.896	14.43
645.086	14.44
645.277	14.44
645.467	14.32
645.658	14.29
645.848	14.24
646.038	14.2
646.229	14.23
646.419	14.21
646.61	14.19
646.8	14.17
646.99	14.15
647.18	14.13
647.371	14.18
647.561	14.03
647.751	14
647.941	13.93
648.132	13.85
648.322	13.77
648.512	13.9
648.702	13.88
648.892	13.88
649.082	13.88
649.272	13.81
649.462	13.68
649.653	13.67
649.843	13.63
650.033	13.63
650.223	13.64
650.413	13.56
650.603	13.52
650.793	13.53
650.983	13.39
651.172	13.31
651.362	13.32
651.552	13.19
651.742	13.07
651.932	13.1
652.122	13.17
652.312	13.15
652.502	13.16
652.691	13.2
652.881	13.04
653.071	12.91
653.261	12.86
653.45	12.72
653.64	12.59
653.83	12.55
654.019	12.43
654.209	12.28
654.399	12.21
654.588	12.09
654.778	11.93
654.968	11.83
655.157	11.8
655.347	11.78
655.536	11.66
655.726	11.62
655.915	11.49
656.105	11.33
656.294	11.24
656.484	11.15
656.673	11
656.863	11
657.052	10.91
657.241	10.68
657.431	10.48
657.62	10.3
657.809	9.96
657.999	9.8
658.188	9.63
658.377	9.51
658.567	9.43
658.756	9.33
658.945	9.16
659.134	9.06
659.324	8.95
659.513	8.85
659.702	8.78
659.891	8.73
660.08	8.6
660.269	8.55
660.458	8.36
660.648	8.19
660.837	8
661.026	7.93
661.215	7.77
661.404	7.65
661.593	7.57
661.782	7.39
661.971	7.28
662.16	7.17
662.349	7.07
662.538	6.93
662.726	6.92
662.915	6.74
663.104	6.61
663.293	6.62
663.482	6.62
663.671	6.54
663.86	6.4
664.048	6.3
664.237	6.18
664.426	5.98
664.615	5.9
664.803	5.87
664.992	5.82
665.181	5.73
665.369	5.67
665.558	5.55
665.747	5.52
665.935	5.55
666.124	5.56
666.312	5.48
666.501	5.44
666.69	5.35
666.878	5.23
667.067	5.07
667.255	5.18
667.444	5.37
667.632	5.42
667.82	5.56
668.009	5.45
668.197	5.32
668.386	5.18
668.574	5.15
668.762	4.93
668.951	4.96
669.139	4.95
669.327	4.81
669.516	4.8
669.704	4.82
669.892	4.88
670.08	4.87
670.269	4.77
670.457	4.61
670.645	4.44
670.833	4.51
671.021	4.51
671.21	4.67
671.398	4.95
671.586	4.95
671.774	4.81
671.962	4.82
672.15	4.76
672.338	4.51
672.526	4.67
672.714	4.62
672.902	4.64
673.09	4.64
673.278	4.83
673.466	4.83
673.654	5.01
673.842	5.05
674.03	5.1
674.218	4.92
674.405	4.87
674.593	4.81
674.781	4.9
674.969	4.94
675.157	5.19
675.344	5.38
675.532	5.43
675.72	5.48
675.908	5.52
676.095	5.48
676.283	5.46
676.471	5.63
676.658	5.59
676.846	5.58
677.033	5.61
677.221	5.57
677.409	5.35
677.596	5.37
677.784	5.36
677.971	5.36
678.159	5.44
678.346	5.56
678.534	5.64
678.721	5.82
678.909	5.88
679.096	5.84
679.283	6.1
679.471	6.22
679.658	6.27
679.846	6.46
680.033	6.7
680.22	6.6
680.408	6.53
680.595	6.59
680.782	6.53
680.969	6.6
681.157	6.76
681.344	6.85
681.531	6.94
681.718	7.05
681.905	7.26
682.093	7.46
682.28	7.71
682.467	7.85
682.654	7.95
682.841	8.05
683.028	8.22
683.215	8.38
683.402	8.25
683.589	8.5
683.776	8.58
683.963	8.43
684.15	8.53
684.337	8.93
684.524	9.14
684.711	9.37
684.898	9.6
685.085	9.88
685.271	10.14
685.458	10.19
685.645	10.34
685.832	10.73
686.019	10.9
686.205	11.09
686.392	11.42
686.579	11.61
686.766	11.97
686.952	12.23
687.139	12.73
687.326	12.92
687.512	13.23
687.699	13.38
687.886	13.56
688.072	13.56
688.259	14.17
688.445	14.53
688.632	14.75
688.818	15.35
689.005	15.77
689.191	15.91
689.378	16.55
689.564	17.09
689.751	17.53
689.937	18.01
690.124	18.54
690.31	18.69
690.496	19.14
690.683	19.55
690.869	20.11
691.055	20.66
691.242	21.27
691.428	21.84
691.614	22.32
691.8	22.73
691.987	23.11
692.173	23.75
692.359	24.24
692.545	24.82
692.731	25.31
692.918	25.93
693.104	26.37
693.29	27.04
693.476	27.66
693.662	28.36
693.848	28.83
694.034	29.33
694.22	29.73
694.406	30.31
694.592	30.83
694.778	31.35
694.964	32
695.15	32.59
695.336	32.99
695.522	33.7
695.708	34.37
695.894	34.85
696.08	35.34
696.265	35.96
696.451	36.62
696.637	37.2
696.823	37.9
697.009	38.49
697.194	38.79
697.38	39.07
697.566	39.44
697.751	39.85
697.937	40.64
698.123	41.29
698.308	42.19
698.494	42.74
698.68	43.52
698.865	44.11
699.051	44.9
699.236	45.22
699.422	45.99
699.607	46.07
699.793	46.27
699.978	46.5
700.164	46.96
700.349	47.3
700.535	48.03
700.72	48.48
700.906	49.26
701.091	49.63
701.276	50.33
701.462	50.89
701.647	51.56
701.832	51.66
702.018	51.89
702.203	52.27
702.388	52.46
702.573	52.74
702.759	53.52
702.944	54.03
703.129	54.19
703.314	54.45
703.499	54.63
703.684	54.76
703.87	55.83
704.055	56.71
704.24	57.18
704.425	57.81
704.61	58.43
704.795	58.11
704.98	57.91
705.165	58.47
705.35	58.78
705.535	58.96
705.72	59.4
705.905	60.04
706.09	60.24
706.275	60.62
706.459	60.42
706.644	60.54
706.829	60.77
707.014	60.99
707.199	61.19
707.384	62.14
707.568	62.61
707.753	62.95
707.938	62.92
708.123	62.95
708.307	62.9
708.492	62.66
708.677	62.64
708.861	62.62
709.046	62.62
709.231	63.02
709.415	63.58
709.6	63.59
709.784	64.36
709.969	65.24
710.153	65.09
710.338	65.25
710.522	65.91
710.707	66.08
710.891	65.76
711.076	66.18
711.26	66.33
711.445	66.24
711.629	66.33
711.813	66.41
711.998	66.26
712.182	66.09
712.366	66.39
712.551	67.25
712.735	67.91
712.919	68.37
713.103	68.97
713.288	68.66
713.472	68.09
713.656	68.34
713.84	68.39
714.024	68.42
714.208	68.6
714.393	68.69
714.577	68.7
714.761	68.59
714.945	68.78
715.129	68.99
715.313	69.16
715.497	69.04
715.681	69.92
715.865	69.62
716.049	69.87
716.233	69.81
716.417	70.03
716.601	69.53
716.785	70.28
716.968	70.52
717.152	70.94
717.336	71.1
717.52	71.37
717.704	71.12
717.888	71.23
718.071	71.41
718.255	71.81
718.439	71.59
718.622	72.05
718.806	72.36
718.99	71.72
719.174	71.19
719.357	71.83
719.541	71.64
719.724	71.4
719.908	72.35
720.092	72.98
720.275	72.92
720.459	72.8
720.642	72.52
720.826	72.18
721.009	71.68
721.193	71.1
721.376	71.51
721.559	72.42
721.743	72.83
721.926	72.94
722.11	73.34
722.293	72.91
722.476	72.07
722.66	71.74
722.843	71.76
723.026	71.29
723.21	71.37
723.393	71.92
723.576	72.13
723.759	72.03
723.942	72.61
724.126	72.77
724.309	72.73
724.492	73
724.675	73.24
724.858	73.49
725.041	74.33
725.224	74.87
725.407	74.85
725.59	75.38
725.774	74.72
725.957	73.94
726.14	73.58
726.322	73.74
726.505	73.46
726.688	74.44
726.871	74.43
727.054	74.6
727.237	74.21
727.42	74.54
727.603	74.45
727.786	74.89
727.968	74.78
728.151	74.55
728.334	74.46
728.517	74.52
728.699	74.87
728.882	75.02
729.065	75.98
729.248	76.42
729.43	76.42
729.613	76.95
729.796	77.54
729.978	77.08
730.161	76.29
730.343	75.8
730.526	75.83
730.708	75.06
730.891	75.23
731.073	75.55
731.256	75.97
731.438	75.57
731.621	76.6
731.803	76.65
731.986	76.69
732.168	76.6
732.35	76.95
732.533	76.65
732.715	76.95
732.898	77.5
733.08	77.5
733.262	77.84
733.444	77.52
733.627	77.32
733.809	77.9
733.991	78.99
734.173	77.82
734.355	78.04
734.538	79.06
734.72	78.09
734.902	77.63
735.084	78.34
735.266	78.4
735.448	78.09
735.63	77.95
735.812	78.1
735.994	79.03
736.176	79.07
736.358	78.61
736.54	79.54
736.722	78.78
736.904	77.95
737.086	78.27
737.268	79.73
737.45	80.26
737.632	80.79
737.814	80.13
737.995	79.26
738.177	78.42
738.359	77.19
738.541	77.02
738.723	77.45
738.904	78.7
739.086	78.15
739.268	77.9
739.449	78.81
739.631	78.37
739.813	78.33
739.994	78.13
740.176	79.34
740.358	78.75
740.539	80.55
740.721	80.21
740.902	81.77
741.084	81.54
741.265	81.7
741.447	80.88
741.628	81.61
741.81	80.25
741.991	80.56
742.172	81
742.354	80.97
742.535	80.37
742.717	80.63
742.898	80.52
743.079	80.67
743.261	80.61
743.442	80.07
743.623	80.57
743.804	80.83
743.986	81.53
744.167	80.1
744.348	80.35
744.529	81.06
744.71	80.36
744.891	78.99
745.073	79.32
745.254	79.71
745.435	78.66
745.616	79.07
745.797	79.08
745.978	79.76
746.159	79.7
746.34	79.16
746.521	80.39
746.702	79.8
746.883	79.84
747.064	79.05
747.245	79.6
747.426	77.81
747.606	78.51
747.787	77.91
747.968	78.46
748.149	78.73
748.33	78.99
748.51	79.37
748.691	80.25
748.872	80.75
749.053	80.44
749.233	80.33
749.414	79.58
749.595	79.12
749.775	78.37
749.956	77.85
750.137	78.02
750.317	79.18
750.498	80.63
750.678	81.51
750.859	83.44
751.04	83.81
751.22	82.24
751.4	80.22
751.581	79.53
751.761	78.49
751.942	78.22
752.122	79.3
752.303	80.24
752.483	79.16
752.663	79.47
752.844	79.93
753.024	80.17
753.204	80.4
753.385	81.07
753.565	80.26
753.745	80.26
753.925	79.35
754.106	78.19
754.286	78.07
754.466	78.79
754.646	78.09
754.826	78.61
755.006	78
755.187	79.23
755.367	79.42
755.547	79.92
755.727	81.15
755.907	81.82
756.087	83.18
756.267	82.79
756.447	81.56
756.627	79.43
756.807	80.47
756.987	77.9
757.167	78.11
757.346	79.27
757.526	79.03
757.706	80.02
757.886	81.32
758.066	81.96
758.246	82.6
758.425	83.43
758.605	82.37
758.785	82.47
758.965	81.49
759.144	79.04
759.324	80.49
759.504	79.89
759.683	79.7
759.863	78.27
760.043	79.09
760.222	78.1
760.402	78.22
760.581	78.68
760.761	81.34
760.94	81.66
761.12	83.41
761.299	83.41
761.479	83.16
761.658	80.46
761.838	80.15
762.017	78.84
762.197	80.18
762.376	80.36
762.555	82.3
762.735	83.58
762.914	82.17
763.093	81.4
763.273	79.48
763.452	79.41
763.631	78.91
763.81	78.53
763.99	78.73
764.169	79.71
764.348	77.39
764.527	76.03
764.706	77.45
764.885	78.19
765.064	76.08
765.243	77.25
765.423	78.41
765.602	77.79
765.781	76.1
765.96	75.88
766.139	76.55
766.318	76.79
766.497	76.58
766.676	77.63
766.854	80.67
767.033	79.28
767.212	77.19
767.391	78.08
767.57	77.65
767.749	77.46
767.928	78.72
768.106	79.94
768.285	76.72
768.464	76.26
768.643	76.03
768.821	76.94
769	78.97
769.179	80.64
769.357	80.67
769.536	80.5
769.715	79.08
769.893	77.89
770.072	78.56
770.25	78.41
770.429	77.93
770.607	77.98
770.786	77.34
770.964	77.74
771.143	78.87
771.321	80.19
771.5	79.98
771.678	79.08
771.857	77.52
772.035	75.45
772.213	74.68
772.392	74.11
772.57	74.81
772.748	75.97
772.927	75.75
773.105	74.78
773.283	75.76
773.461	77
773.64	77.22
773.818	78.47
773.996	79.24
774.174	78.61
774.352	75.84
774.531	73.71
774.709	75.01
774.887	74.54
775.065	73.73
775.243	74.53
775.421	75.82
775.599	75.54
775.777	72.61
775.955	72.52
776.133	71.9
776.311	70.48
776.489	68.08
776.667	71.27
776.844	71.19
777.022	70.81
777.2	71.33
777.378	73.06
777.556	73.83
777.734	78
777.911	81.04
778.089	80.57
778.267	80.03
778.445	76.75
778.622	73.94
778.8	71.83
778.978	75.12
779.155	73.1
779.333	76.63
779.511	73.68
779.688	76.85
779.866	72.04
780.043	71.12
780.221	70.42
780.398	71.2
780.576	69.79
780.753	74.52
780.931	73.69
781.108	72.42
781.286	76.35
781.463	73.83
781.64	68.98
781.818	71.01
781.995	72.3
782.172	70.3
782.35	70.93
782.527	74.61
782.704	75.43
782.882	73.49
783.059	72.02
783.236	74.86
783.413	75.65
783.59	76.48
783.768	75.86
783.945	77.53
784.122	75.04
784.299	75.54
784.476	71.33
784.653	71.45
784.83	68.13
785.007	66.22
785.184	64.68
785.361	65.54
785.538	68.59
785.715	72.41
785.892	73.46
786.069	73.89
786.246	77.59
786.423	75.62
786.6	75.54
786.776	77.12
786.953	74.87
787.13	75.8
787.307	77.39
787.484	77.81
787.66	73.98
787.837	76.07
788.014	72.2
788.191	66.41
788.367	64.11
788.544	70.56
788.721	67.59
788.897	71.97
789.074	78.62
789.25	78.23
789.427	77.08
789.603	78.92
789.78	76.23
789.956	73.38
790.133	70.23
790.309	69.6
790.486	72.72
790.662	70.97
790.839	71.37
791.015	72.86
791.192	70.91
791.368	68.27
791.544	68.05
791.721	64.66
791.897	65.75
792.073	63.53
792.249	60.77
792.426	64.61
792.602	68.99
792.778	68.65
792.954	70.28
793.13	70.37
793.307	60.69
793.483	54.96
793.659	55.78
793.835	59.94
794.011	60.06
794.187	65.73
794.363	67.05
794.539	69.17
794.715	62.17
794.891	57.66
795.067	60.65
795.243	66.2
795.419	59.64
795.595	60.94
795.771	69.05
795.947	66.89
796.122	62.7
796.298	68.99
796.474	72.57
796.65	69.13
796.826	67.93
797.001	66.88
797.177	62.76
797.353	62.77
797.529	66.31
797.704	65.22
797.88	62.34
798.056	57.71
798.231	54.84
798.407	57.86
798.582	62.07
798.758	75.97
798.934	86.88
799.109	84.17
799.285	83.23
799.46	85.3
799.636	77.34
799.811	72.38
799.986	72.58
800.162	71.5
800.337	68.12
800.513	62.28
800.688	63.68
800.863	73.26
801.039	63.6
801.214	62.63
801.389	73.87
801.565	71.89
801.74	54.03
801.915	58.98
802.09	58.68
802.265	57.31
802.441	55.84
802.616	59.85
802.791	66.64
802.966	65.67
803.141	61.2
803.316	62.11
803.491	70.54
803.666	69.35
803.841	69.86
804.016	69.54
804.191	72.87
804.366	69.78
804.541	65.34
804.716	60.61
804.891	55.92
805.066	55.1
805.241	51.37
805.416	49.67
805.591	50.87
805.765	62.85
805.94	68.54
806.115	68.94
806.29	65.35
806.464	66.13
806.639	57.15
806.814	48.78
806.989	46.24
807.163	60.74
807.338	61.3
807.512	57.99
807.687	42.56
807.862	52.47
808.036	47.03
808.211	43.16
808.385	51.19
808.56	68.64
808.734	69.65
808.909	63.33
809.083	67
809.258	65.28
809.432	63.78
809.606	51.64
809.781	54.62
809.955	62.3
810.13	72.36
810.304	66.92
810.478	66.11
810.652	74.56
810.827	72.31
811.001	57.85
811.175	59.44
811.349	57.25
811.524	48.16
811.698	34.47
811.872	39.69
812.046	48.18
812.22	58.56
812.394	58.21
812.568	74.25
812.742	74.12
812.916	64.52
813.09	51.69
813.264	48.69
813.438	44.73
813.612	45.39
813.786	49.14
813.96	62.2
814.134	67.78
814.308	81.71
814.482	90.15
814.656	73.34
814.83	74.85
815.003	75.11
815.177	53.09
815.351	41.99
815.525	48.87
815.698	38.71
815.872	29.64
816.046	23.91
816.219	33.4
816.393	44.92
816.567	43.36
816.74	47.64
816.914	65.78
817.088	61.56
817.261	55.44
817.435	55.21
817.608	62.09
817.782	48.31
817.955	55.41
818.129	49.43
818.302	56.84
818.475	55.56
818.649	50.47
818.822	42.44
818.996	63.43
819.169	57.35
819.342	47.2
819.516	58.85
819.689	62.68
819.862	39.44
820.035	30.91
820.209	38.35
820.382	33.67
820.555	32.84
820.728	22.5
820.901	29.13
821.075	27.56
821.248	30.49
821.421	17.19
821.594	30.83
821.767	34.22
821.94	45.52
822.113	32.04
822.286	31.3
822.459	42.78
822.632	45.18
822.805	42.58
822.978	51.4
823.151	61.41
823.324	36.93
823.496	22.76
823.669	15.24
823.842	13.33
824.015	0.52
824.188	-6.31
824.361	3.01
824.533	-2.23
824.706	11.1
824.879	19.67
825.051	29.68
825.224	27.22
825.397	39.77
825.569	20.23
825.742	32.71
825.915	56.93
826.087	67.52
826.26	51.14
826.432	64.14
826.605	55.63
826.777	41.03
826.95	41.49
827.122	24.36
827.295	18.07
827.467	23.76
827.64	-1.73
827.812	-3.69
827.984	3.52
828.157	-5.37
828.329	-33.52
828.501	-9.81
828.674	9.91
828.846	10.03
829.018	24
829.19	16.47
829.363	35.73
829.535	36.84
829.707	35.67
829.879	16.31
830.051	8.46
830.223	-2.41
830.395	-41.21
830.568	-33.43
830.74	-33.7
830.912	6.35
831.084	-0.13
831.256	11.64
831.428	7.43
831.6	-1.37
831.772	-24.47
831.943	-46.54
832.115	-23
832.287	-5.54
832.459	3.87
832.631	9.08
832.803	29.97
832.975	33.22
833.146	28.13
833.318	34.02
833.49	48.67
833.662	30.5
833.833	2.83
834.005	1.63
834.177	18.84
834.348	-2.46
834.52	5.42
834.692	30.47
834.863	12.71
835.035	2.67
835.206	-31.28
835.378	-15.48
835.549	-27.7
835.721	2.42
835.892	-14.58
836.064	3.83
836.235	-12.43
836.407	3.42
836.578	-14.06
836.749	-3.21
836.921	-33.8
837.092	-51.38
837.264	-62.53
837.435	-79.33
837.606	-35.91
837.777	-0.43
837.949	28.39
838.12	41.06
838.291	53.84
838.462	43.66
838.633	19.17
838.805	20.28
838.976	25.41
839.147	16.81
839.318	-26.79
839.489	-50.97
839.66	-54.84
839.831	-30.55
840.002	-38.39
840.173	-29.37
840.344	33.57
840.515	6.81
840.686	-142.96
840.857	-86.1
841.028	-49.4
841.199	-61.7
841.369	-67.06
841.54	-27.23
841.711	-4.03
841.882	1.18
842.053	-11.28
842.223	-11.25
842.394	-2.52
842.565	-6.16
842.736	4.98
842.906	11.08
843.077	27.19
843.248	30.66
843.418	8.43
843.589	-48.41
843.759	-27.74
843.93	-71.15
844.101	-29.92
844.271	-16.85
844.442	17.89
844.612	14
844.783	-10.33
844.953	-41.14
845.123	-25.67
845.294	-59.47
845.464	-149.25
845.635	-21.74
845.805	28.72
845.975	23.08
846.146	12.09
846.316	-14.79
846.486	5.53
846.656	43.53
846.827	26.31
846.997	7.82
847.167	35.72
847.337	22.14
847.507	-41.01
847.677	-14.41
847.848	42.38
848.018	43.17
848.188	39.42
848.358	30.86
848.528	14.79
848.698	-32.95
848.868	-142.21
849.038	-265.13
849.208	-94.96
849.378	-47.24
849.548	-31.26
849.718	-4.8
849.887	28.35
850.057	-0.38
850.227	-50.22
850.397	-77.83
850.567	-197.25
850.737	-580
850.906	-1543.75
851.076	-892.19
851.246	-407.85
851.415	-18.18
851.585	1.57
851.755	-46.04
851.924	2.67
852.094	4.46
852.264	-72.79
852.433	-844.23
852.603	-120.05
852.772	-86.69
852.942	-32.33
853.111	-49.94
853.281	8.55
853.45	38.35
853.62	-49.94
853.789	-93.11
853.959	-66.22
854.128	-64.87
854.297	-86.52
854.467	-61.43
854.636	32.66
854.805	37.45
854.975	39.41
855.144	75.07
855.313	386.71
855.482	-8.03
855.652	-46.13
855.821	-9.3
855.99	67.87
856.159	30.28
856.328	26.7
856.497	1.91
856.667	2.01
856.836	-18.34
857.005	-25.15
857.174	-43.58
857.343	-67.5
857.512	-36.3
857.681	-54.52
857.85	-69.79
858.019	-40.75
858.188	-7.87
858.356	-50.59
858.525	-100.71
858.694	-78.44
858.863	-145.09
859.032	-133.74
859.201	-142.21
859.369	-77.04
859.538	-91.06
859.707	-62.62
859.876	-76.88
860.044	-38.22
860.213	34.52
860.382	44.31
860.55	54.81
860.719	64.35
860.888	62.35
861.056	17.18
861.225	2.29
861.393	35.33
861.562	42.5
861.73	-17.97
861.899	-107.85
862.067	-1837.93
862.236	-60.19
862.404	-185.59
862.572	-62.2
862.741	-13.93
862.909	4.58
863.078	-56.85
863.246	-25.49
863.414	-32.78
863.582	13.98
863.751	-5.15
863.919	-23.04
864.087	3.68
864.255	-24.66
864.424	-337.85
864.592	-40.54
864.76	-116.38
864.928	-311.2
865.096	-185.03
865.264	-138.01
865.432	-1600
865.6	-52
865.768	-75.63
865.936	-64.02
866.104	-27.84
866.272	-99.06
866.44	-311.42
866.608	486.96
866.776	206.54
866.944	1783.72
867.112	-280.51
867.28	-130.26
867.448	-32.76
867.615	11.77
867.783	-7.32
867.951	-27.97
868.119	8.07
868.286	-71.25
868.454	-210.64
868.622	-160.86
868.789	-176.69
868.957	-3657.14
869.125	-1584.21
869.292	-112.53
869.46	-186.25
869.627	-36.71
869.795	-40
869.963	-20.37
870.13	11.29
870.298	14.85
870.465	-16.07
870.632	-47.25
870.8	-13.9
870.967	-71.72
871.135	-83.22
871.302	-67.47
871.469	0.22
871.637	33.45
871.804	23.83
871.971	-21.15
872.139	-161.4
872.306	13.49
872.473	-19.11
872.64	-170.82
872.807	8.12
872.975	47.71
873.142	-110.91
873.309	1472.97
873.476	53.92
873.643	76.68
873.81	28.26
873.977	51.98
874.144	43.97
874.311	-114.12
874.478	-145.76
874.645	-198.1
874.812	-138.4
874.979	-78.85
875.146	-65.96
875.313	-88.15
875.48	10.76
875.647	-5.97
875.813	-33.54
875.98	-14.29
876.147	-41.08
876.314	-105.81
876.481	1102.48
876.647	-1546.07
876.814	728.5
876.981	-228.08
877.147	-74.18
877.314	-21.02
877.481	-6.99
877.647	19.2
877.814	-1.25
877.98	-87.24
878.147	-44.69
878.314	24.63
878.48	-46.48
878.647	-21.12
878.813	36.94
878.979	15.91
879.146	-38.26
879.312	-43.75
879.479	-118.94
879.645	-211.7
879.811	-347
879.978	-754.96
880.144	-188.48
880.31	-102.81
880.477	-320.67
880.643	-323.94
880.809	-106.98
880.975	-89
881.142	-607.27
881.308	-79.49
881.474	-40
881.64	-70.87
881.806	-81.21
881.972	4.61
882.138	19.06
882.304	1.15
882.47	-114.32
882.636	-500.82
882.802	-253.82
882.968	-102.33
883.134	-66.63
883.3	-59.89
883.466	-33.21
883.632	7.95
883.798	-3.79
883.964	-4.71
884.129	-15.68
884.295	16.69
884.461	-41.66
884.627	-17.66
884.793	-46.82
884.958	-10.34
885.124	-78.17
885.29	-147.95
885.455	-266.02
885.621	-92.29
885.787	-172.49
885.952	-75.83
886.118	-105.52
886.283	-109.58
886.449	-170.17
886.614	-174.46
886.78	-292.69
886.945	814.75
887.111	-460.69
887.276	-478.41
887.442	-844.55
887.607	-493.4
887.773	-308.28
887.938	-246.48
888.103	-272.76
888.269	-126.2
888.434	-289.73
888.599	-104.98
888.764	-47.27
888.93	5.88
889.095	-35.03
889.26	-17.55
889.425	33.77
889.59	132.12
889.756	63.93
889.921	73.54
890.086	81.99
890.251	33.25
890.416	-116.48
890.581	-1174.19
890.746	248.21
890.911	494.27
891.076	185.9
891.241	-547.76
891.406	12.43
891.571	-1.9
891.736	-102.75
891.901	-315.04
892.065	295.6
892.23	115.22
892.395	230.53
892.56	334.39
892.725	-411.72
892.889	-1153.66
893.054	-224.92
893.219	-19.43
893.384	27.41
893.548	3.36
893.713	-7.02
893.878	27.57
