Data from Ofra_PS_T2_2A_6EV18_Reflection_3.txt Node
Date: Wed Jul 21 17:17:00 EDT 2021
User: Adam
Spectrometer: FLMT01687
Trigger mode: 0
Integration Time (sec): 1.100000E0
Scans to average: 2
Electric dark correction enabled: true
Nonlinearity correction enabled: false
Boxcar width: 2
XAxis mode: Wavelengths
Number of Pixels in Spectrum: 3648
>>>>>Begin Spectral Data<<<<<
179.494	538.2
179.716	621.88
179.937	624.34
180.158	596.44
180.38	900.47
180.601	320.3
180.823	89.19
181.044	-150.36
181.265	150.55
181.486	119.24
181.708	178.23
181.929	1140.31
182.15	-748.94
182.372	132.52
182.593	46.78
182.814	52.02
183.035	84.39
183.257	39.51
183.478	-104.2
183.699	2.98
183.92	-43.65
184.141	-47.45
184.363	-33.04
184.584	23.31
184.805	16.25
185.026	65.74
185.247	75.66
185.468	44.82
185.689	54.69
185.91	51.35
186.132	36.33
186.353	8.55
186.574	38.73
186.795	25.54
187.016	-25.43
187.237	-25.02
187.458	-55.46
187.679	-26.72
187.9	-12.23
188.121	5.77
188.342	20.57
188.563	67.86
188.784	64.95
189.005	69.88
189.226	85.18
189.447	52.6
189.667	-166.38
189.888	-400.86
190.109	-1356.82
190.33	-660.48
190.551	-1152.88
190.772	-222.46
190.993	-153.4
191.214	-117.41
191.434	-92.49
191.655	22.73
191.876	-2.26
192.097	-36.84
192.318	-61.63
192.538	-81.16
192.759	-104.13
192.98	-3.01
193.201	30.84
193.421	37.41
193.642	42.3
193.863	38.66
194.083	-1.02
194.304	-5.29
194.525	-14.08
194.745	-23.16
194.966	-37.05
195.187	-29.14
195.407	-53.05
195.628	-84.75
195.848	-112.92
196.069	-92.15
196.29	-44.74
196.51	-73.16
196.731	-82.44
196.951	-92.54
197.172	-111.22
197.392	-122.5
197.613	-96.44
197.833	-109.02
198.054	-74.33
198.274	-47.71
198.495	-66.7
198.715	-35.32
198.936	-57.42
199.156	-55.58
199.377	-126.77
199.597	-123.27
199.817	-145.43
200.038	-48.55
200.258	-112.95
200.479	-45.54
200.699	-49.43
200.919	20.39
201.14	-35.08
201.36	-53.94
201.58	4.93
201.801	37.86
202.021	2.8
202.241	24.42
202.461	25.98
202.682	-60.09
202.902	-122.97
203.122	-34.91
203.342	-44.86
203.563	0.18
203.783	26.66
204.003	-2.49
204.223	-27.27
204.443	20.79
204.663	-8.56
204.884	20.17
205.104	67.03
205.324	86.76
205.544	79.75
205.764	85.15
205.984	69.83
206.204	53.41
206.424	16
206.644	-27.1
206.864	-13.8
207.084	-51.74
207.304	-37.69
207.525	-33.05
207.745	4.92
207.964	33.65
208.184	-32.82
208.404	-85.29
208.624	-82.73
208.844	-88.07
209.064	-425.29
209.284	-395.79
209.504	-180.82
209.724	-55.01
209.944	-33.9
210.164	-1.38
210.384	4.18
210.604	8.36
210.823	-35.34
211.043	-61.13
211.263	-42.94
211.483	-46.05
211.703	-105.54
211.922	-77.61
212.142	11.81
212.362	27.66
212.582	32.88
212.801	43.48
213.021	-0.27
213.241	-59.85
213.461	-97.66
213.68	-143.23
213.9	-107.82
214.12	-48.43
214.339	-79.34
214.559	-53.58
214.779	18.4
214.998	9.82
215.218	-20.87
215.438	10.22
215.657	6.03
215.877	-7.34
216.096	9.2
216.316	-0.27
216.535	-26.54
216.755	-12.57
216.974	-115.49
217.194	-186.96
217.413	-137.34
217.633	-114.48
217.852	-194.77
218.072	-79.02
218.291	-17.8
218.511	-0.05
218.73	-15.99
218.95	-13.56
219.169	-17.75
219.389	-61.19
219.608	-43.68
219.827	-52.43
220.047	-41.57
220.266	-25.5
220.485	-12.48
220.705	4.54
220.924	-2.37
221.143	16.41
221.363	-19.75
221.582	-3.79
221.801	-8.62
222.021	3.71
222.24	-81.81
222.459	29.3
222.678	-60.82
222.897	-121.16
223.117	-135.05
223.336	-94.58
223.555	-90.88
223.774	4.19
223.993	34.87
224.213	83.67
224.432	56.34
224.651	82.53
224.87	27.04
225.089	36.06
225.308	16.95
225.527	42.48
225.746	25.8
225.965	29.84
226.184	17.11
226.404	45.5
226.623	17.55
226.842	21.08
227.061	49.76
227.28	42.35
227.499	27.36
227.718	45.56
227.936	37.22
228.155	35.18
228.374	10.21
228.593	22.14
228.812	11.72
229.031	6.22
229.25	-43.66
229.469	-18.95
229.688	-33.74
229.907	-0.74
230.125	33.84
230.344	39.73
230.563	40.48
230.782	64.83
231.001	-7.12
231.22	-9.86
231.438	22.41
231.657	17.63
231.876	-7.37
232.095	46.61
232.313	47.62
232.532	8.34
232.751	-5.04
232.969	-18.55
233.188	-84.77
233.407	-32.88
233.625	-6.4
233.844	-31.23
234.063	-15.07
234.281	-7.33
234.5	-23.25
234.719	-4.78
234.937	25.88
235.156	23.73
235.374	39.94
235.593	38.91
235.811	31.77
236.03	8.97
236.249	-9.77
236.467	-37.79
236.686	-4.25
236.904	-5.92
237.123	-16.91
237.341	-21.28
237.559	0.37
237.778	-24.21
237.996	-20.92
238.215	15.04
238.433	30.66
238.652	22.93
238.87	2.29
239.088	18.08
239.307	21.2
239.525	19.59
239.743	-15.68
239.962	27.61
240.18	-7.61
240.398	-61.29
240.617	-60.43
240.835	-23.42
241.053	-38.68
241.271	12.89
241.49	23.01
241.708	-13.45
241.926	-57.86
242.144	-29.32
242.363	-104.47
242.581	-118.5
242.799	-61.74
243.017	-25.12
243.235	-52.75
243.453	-14.7
243.672	-19.39
243.89	-16.2
244.108	-17.83
244.326	10.93
244.544	8.43
244.762	1.77
244.98	-1.55
245.198	6.18
245.416	-15.8
245.634	-24.65
245.852	-17.58
246.07	-24.5
246.288	-24.87
246.506	-43.56
246.724	-19.85
246.942	-22.12
247.16	2.15
247.378	11.06
247.596	26.63
247.814	20.66
248.032	-5.21
248.25	-3.21
248.468	-9.33
248.685	-13.84
248.903	20.65
249.121	38.91
249.339	22.15
249.557	24.27
249.775	38.47
249.992	-46.31
250.21	-60.17
250.428	-40.2
250.646	-59.64
250.863	-90.81
251.081	-44.43
251.299	-31.69
251.517	-26.78
251.734	-22.04
251.952	-21.82
252.17	-13.55
252.387	3.5
252.605	-12.21
252.823	-5.28
253.04	16.89
253.258	34.91
253.475	16.85
253.693	44.92
253.911	37.99
254.128	24.42
254.346	28.54
254.563	18.68
254.781	-5.68
254.998	-24.04
255.216	-37.53
255.433	-37.77
255.651	-8.18
255.868	11.69
256.086	44.68
256.303	40.66
256.521	19.06
256.738	-0.04
256.956	-38.37
257.173	-58.01
257.39	-63.89
257.608	-79.2
257.825	-0.28
258.043	48.18
258.26	43.9
258.477	82.34
258.695	64.71
258.912	1.79
259.129	12.33
259.346	-28.04
259.564	-79.39
259.781	-84.59
259.998	-43.8
260.216	-31.5
260.433	18.73
260.65	18.51
260.867	28.39
261.084	-10.46
261.302	-42.82
261.519	-67.59
261.736	-70.95
261.953	-79.01
262.17	-30.6
262.387	-74.8
262.604	-98.34
262.822	-119.51
263.039	-108.4
263.256	-169.44
263.473	-88.98
263.69	-68.55
263.907	-4.98
264.124	12.75
264.341	14.2
264.558	7.73
264.775	34.02
264.992	7.88
265.209	1.65
265.426	36.18
265.643	23.61
265.86	14.46
266.077	27.26
266.294	30.59
266.51	-25.87
266.727	-24.72
266.944	-21.74
267.161	-35.61
267.378	-41.53
267.595	-8.47
267.812	-25.97
268.028	-20.18
268.245	4.85
268.462	-9.3
268.679	-22.08
268.896	25.36
269.112	11.72
269.329	-4.37
269.546	-12.58
269.763	-18.12
269.979	-36.6
270.196	-26.12
270.413	-43.78
270.629	-47.55
270.846	-49.27
271.063	-40.45
271.279	-51.9
271.496	-51.37
271.712	-14.35
271.929	17.6
272.146	-14.97
272.362	-13.7
272.579	31.39
272.795	44.9
273.012	34.17
273.228	47.26
273.445	26.55
273.661	-2.69
273.878	-62.28
274.094	-50.21
274.311	-89.05
274.527	-7.76
274.744	-2.52
274.96	6.91
275.177	-1.2
275.393	26.62
275.609	4.43
275.826	26.01
276.042	18.46
276.259	6.43
276.475	12.43
276.691	13.18
276.908	-12.39
277.124	-5.06
277.34	2.73
277.557	-13.39
277.773	-30.23
277.989	-23.33
278.205	-16.66
278.422	-2.73
278.638	-2.51
278.854	24.97
279.07	17.31
279.286	3.05
279.503	-30.45
279.719	-36.22
279.935	-68.84
280.151	-80.81
280.367	-58.67
280.583	-77.74
280.799	-52.95
281.016	-73.77
281.232	-39.78
281.448	-34.26
281.664	5.63
281.88	-23.92
282.096	-7.62
282.312	22.99
282.528	48.99
282.744	46.88
282.96	59.45
283.176	58.95
283.392	37.46
283.608	13.92
283.824	9.93
284.04	17.11
284.256	12.62
284.471	10.41
284.687	9.46
284.903	27.43
285.119	41.53
285.335	21.94
285.551	33
285.767	28.22
285.982	-3.29
286.198	-45.84
286.414	16.93
286.63	20.27
286.846	40.62
287.061	22
287.277	55.93
287.493	26.53
287.709	35.01
287.924	-4.38
288.14	39.42
288.356	30.13
288.571	37.81
288.787	16.25
289.003	40.95
289.218	13.88
289.434	-33.85
289.65	-28.81
289.865	-35.51
290.081	-30.06
290.296	-8.64
290.512	19.44
290.727	-6.29
290.943	3.59
291.159	-11.64
291.374	-10.81
291.59	-31.38
291.805	-24.65
292.021	-24.82
292.236	-31.5
292.451	-11.24
292.667	0.11
292.882	28.64
293.098	24.92
293.313	20.38
293.529	-31.08
293.744	-40.94
293.959	-58.57
294.175	-57.99
294.39	-24.34
294.605	3.65
294.821	25.33
295.036	32.2
295.251	52.33
295.467	45.84
295.682	27.06
295.897	-15.12
296.112	-45.9
296.328	-54.35
296.543	-77.74
296.758	-64.98
296.973	-8.45
297.188	41.15
297.404	17.8
297.619	6.23
297.834	6.46
298.049	-13.42
298.264	-52.94
298.479	1.77
298.694	8.41
298.909	27.06
299.125	21.3
299.34	32.43
299.555	10.65
299.77	29.18
299.985	-21.98
300.2	-71.84
300.415	-99.92
300.63	-78.55
300.845	-87.47
301.06	-96.22
301.275	-51.06
301.49	-34.68
301.704	-28.42
301.919	-51.36
302.134	-55.63
302.349	-78.1
302.564	-122.38
302.779	-163.66
302.994	-100.27
303.209	-43.32
303.423	51.01
303.638	77.73
303.853	41.98
304.068	25.15
304.283	19.8
304.497	-3.39
304.712	-26.16
304.927	-14.45
305.142	-21.92
305.356	-16.61
305.571	-12.51
305.786	-26.97
306	-45.81
306.215	-34.67
306.43	-53.03
306.644	-43.9
306.859	4.22
307.074	13.78
307.288	-1.16
307.503	8.11
307.717	-6.88
307.932	-20.8
308.147	-20.55
308.361	-9.26
308.576	-21.18
308.79	-68.22
309.005	-59.19
309.219	-54.89
309.434	-53.09
309.648	-69.57
309.863	-37.32
310.077	-44.79
310.292	-34.84
310.506	-41.52
310.72	5.54
310.935	27.58
311.149	34.77
311.364	47.99
311.578	56.88
311.792	39.22
312.007	38.22
312.221	18.38
312.435	8.97
312.649	-16.75
312.864	-44.1
313.078	-42.07
313.292	12.58
313.507	-39.67
313.721	-5.8
313.935	33
314.149	8.58
314.363	1.69
314.578	10.31
314.792	13.03
315.006	3.71
315.22	21
315.434	25.97
315.648	42.51
315.862	40.27
316.077	52.24
316.291	44.06
316.505	49.13
316.719	47.37
316.933	19.06
317.147	-5.78
317.361	-47.23
317.575	-60.85
317.789	-116.14
318.003	-178.95
318.217	-128.7
318.431	-50.74
318.645	-19.44
318.859	-11.64
319.073	10.43
319.287	-5.92
319.5	-17.15
319.714	-51.44
319.928	-66.39
320.142	-82.97
320.356	-12.61
320.57	11.11
320.784	11.74
320.997	4.34
321.211	30.96
321.425	-49.03
321.639	-97.79
321.853	-48.31
322.066	-22.96
322.28	-40.39
322.494	-28.63
322.707	-1.64
322.921	-20.13
323.135	-12.94
323.349	9.01
323.562	-4.62
323.776	-18.09
323.989	-10.44
324.203	-28.19
324.417	-40.04
324.63	-63.56
324.844	-47.48
325.057	-46.95
325.271	-13.82
325.485	4.69
325.698	34.52
325.912	38.16
326.125	21.31
326.339	8.44
326.552	-27.45
326.766	-40.11
326.979	-25.4
327.193	14.56
327.406	6.36
327.619	10.45
327.833	34.96
328.046	7.53
328.26	-27.08
328.473	-8.5
328.686	-33.05
328.9	-41.92
329.113	-24.07
329.326	-31.35
329.54	-6.93
329.753	-8.34
329.966	-5.88
330.179	-15.57
330.393	-7.85
330.606	-19.78
330.819	-1.77
331.032	-1.97
331.246	10.97
331.459	41.73
331.672	28.26
331.885	29
332.098	22.92
332.311	10.23
332.525	-54.1
332.738	-32.09
332.951	-8.12
333.164	21.55
333.377	32.83
333.59	51.67
333.803	50.81
334.016	39.62
334.229	17.6
334.442	22.68
334.655	29.67
334.868	34.88
335.081	39.33
335.294	37.55
335.507	16.37
335.72	1.57
335.933	-17.8
336.146	-28.77
336.359	-17.86
336.572	-39.71
336.785	-69.14
336.997	-44.15
337.21	-17.13
337.423	-30.2
337.636	-27.12
337.849	6.64
338.062	-7.03
338.274	-18.27
338.487	-25.2
338.7	-21.8
338.913	-71.03
339.125	-74.25
339.338	-116.71
339.551	-86.88
339.763	-44.78
339.976	-7.52
340.189	0.95
340.402	13.43
340.614	-4.19
340.827	-13.15
341.039	-36.04
341.252	-31.9
341.465	-13.53
341.677	-4.7
341.89	-34.04
342.102	9.34
342.315	-1.92
342.527	-34.28
342.74	-43.14
342.952	7.83
343.165	-22.86
343.377	2.75
343.59	3.08
343.802	16.85
344.015	6.94
344.227	39.95
344.44	33.57
344.652	40.34
344.864	38.73
345.077	44.45
345.289	37.31
345.502	35.39
345.714	26
345.926	24.13
346.139	13.49
346.351	16.71
346.563	24.68
346.775	33.96
346.988	27.92
347.2	14.19
347.412	-26.56
347.624	-57.35
347.837	-74.66
348.049	-51.88
348.261	-8.66
348.473	0.89
348.685	11.13
348.897	11.48
349.11	-7.92
349.322	-36.95
349.534	-20.49
349.746	-20.64
349.958	-19.4
350.17	-15.14
350.382	5.32
350.594	-7.67
350.806	-2.15
351.018	6.63
351.23	-7.11
351.442	-70.75
351.654	-64.1
351.866	-65.78
352.078	-57.25
352.29	-26.82
352.502	9.35
352.714	17.26
352.926	18.61
353.138	11.78
353.35	0.33
353.561	-5.72
353.773	-29.72
353.985	-30.86
354.197	-38.42
354.409	-36.28
354.621	-36.08
354.832	-18.26
355.044	-18.01
355.256	-16.04
355.468	-13.41
355.679	-20.14
355.891	-20.02
356.103	-29.03
356.314	-18.81
356.526	-19.26
356.738	-3.3
356.949	-12.19
357.161	15.06
357.373	-1.33
357.584	5.13
357.796	12.95
358.008	13.65
358.219	20.38
358.431	26.66
358.642	29.39
358.854	15.47
359.065	-3.52
359.277	-47.09
359.488	-56.52
359.7	-87.13
359.911	-93.7
360.123	-59.48
360.334	-69.69
360.546	-103.16
360.757	-103.87
360.969	-89.13
361.18	-85.68
361.391	-46.13
361.603	-27.17
361.814	-8.86
362.025	-4.68
362.237	-1.75
362.448	13.3
362.659	24.69
362.871	26.45
363.082	21.48
363.293	20.45
363.504	-2.36
363.716	-33.23
363.927	-34.82
364.138	-55.61
364.349	-70.13
364.56	-63.88
364.772	-50.34
364.983	-31.04
365.194	-28.03
365.405	-7.78
365.616	1.98
365.827	0.93
366.038	-29.16
366.25	-33.23
366.461	-83.37
366.672	-43.92
366.883	-16.81
367.094	-7.68
367.305	-21.32
367.516	-9.29
367.727	-41.09
367.938	-66.93
368.149	-62.81
368.36	-22.71
368.571	-16.4
368.781	-20.04
368.992	-20.7
369.203	-37.6
369.414	-72.06
369.625	-84.86
369.836	-79.95
370.047	-115.63
370.258	-86.02
370.468	-76.41
370.679	-90.32
370.89	-73.15
371.101	-30.06
371.312	-44.19
371.522	-38.47
371.733	-16.48
371.944	-17.71
372.155	-16.97
372.365	-13.23
372.576	-14.1
372.787	-22.85
372.997	-31.89
373.208	-37.3
373.419	-12.15
373.629	-39.91
373.84	-36.92
374.05	-60.59
374.261	-38.07
374.472	-61.43
374.682	-4.07
374.893	-3.95
375.103	35.56
375.314	22.27
375.524	22.48
375.735	10.79
375.945	24.36
376.156	-1.94
376.366	-5.87
376.577	-3.57
376.787	-14.32
376.997	-14
377.208	-8.81
377.418	-17.02
377.629	5.53
377.839	11.27
378.049	3.47
378.26	17.04
378.47	19.53
378.68	-0.02
378.89	-9.34
379.101	-9.65
379.311	-39.76
379.521	-57.23
379.732	-45.65
379.942	-36.62
380.152	-61.84
380.362	-22.36
380.572	-14.14
380.783	-9.54
380.993	6.83
381.203	23
381.413	32.27
381.623	36.01
381.833	37.62
382.043	21.59
382.253	15.52
382.463	3.3
382.674	-12.28
382.884	-35.13
383.094	-34.98
383.304	-21.26
383.514	-27.64
383.724	-7.74
383.934	-11.75
384.144	-18.71
384.353	-29.97
384.563	-20.64
384.773	-20.71
384.983	-22.02
385.193	-6.4
385.403	-7.09
385.613	-7.61
385.823	-15.81
386.033	-8.57
386.242	-15.66
386.452	-14.52
386.662	-21.84
386.872	-11.69
387.082	-13.82
387.291	-26.03
387.501	-27.4
387.711	-17.05
387.921	-30.47
388.13	-26.12
388.34	-7.81
388.55	-12.01
388.759	-12.52
388.969	0.29
389.179	0.04
389.388	-0.11
389.598	6.25
389.807	-1.55
390.017	-10.5
390.227	-9.1
390.436	-12.71
390.646	-11.51
390.855	-4.87
391.065	-0.88
391.274	-2.43
391.484	-4.94
391.693	0.06
391.903	-0.17
392.112	6.12
392.322	9.64
392.531	14.68
392.74	9.61
392.95	5.56
393.159	0.19
393.369	-1.4
393.578	-2.32
393.787	-2.74
393.997	-1.18
394.206	-2.31
394.415	-1.87
394.625	-1.14
394.834	-2.2
395.043	-1.7
395.252	1.44
395.462	2.36
395.671	3.33
395.88	4.65
396.089	4.87
396.298	2.25
396.508	2.44
396.717	1.09
396.926	1.1
397.135	1.1
397.344	1.59
397.553	2.4
397.762	4.2
397.971	4.02
398.181	4.34
398.39	3.52
398.599	2.3
398.808	1.82
399.017	3.03
399.226	3.78
399.435	5.28
399.644	5.74
399.853	4.76
400.062	4.01
400.27	3.38
400.479	2.61
400.688	1.88
400.897	2.29
401.106	2.5
401.315	2.29
401.524	2.46
401.733	3.4
401.941	3.52
402.15	3.52
402.359	3.42
402.568	3.88
402.777	3.65
402.985	3.63
403.194	3.69
403.403	3.8
403.612	3.56
403.82	3.21
404.029	3.21
404.238	2.8
404.446	3.14
404.655	3.09
404.864	3.3
405.072	3.08
405.281	3.52
405.489	3.2
405.698	3.07
405.906	2.94
406.115	3.17
406.324	3.03
406.532	3.27
406.741	3.57
406.949	3.53
407.158	3.43
407.366	3.42
407.574	3.37
407.783	3.2
407.991	3.18
408.2	3.33
408.408	3.27
408.617	3.13
408.825	2.99
409.033	2.94
409.242	3.03
409.45	3.17
409.658	3.06
409.867	3.18
410.075	3.16
410.283	2.9
410.491	2.73
410.7	2.76
410.908	2.71
411.116	3.04
411.324	2.99
411.533	2.97
411.741	3.14
411.949	3.23
412.157	2.85
412.365	2.88
412.573	2.93
412.781	2.92
412.99	2.76
413.198	3.07
413.406	3.11
413.614	3.08
413.822	2.98
414.03	2.93
414.238	2.58
414.446	2.63
414.654	2.41
414.862	2.5
415.07	2.55
415.278	2.89
415.486	2.69
415.694	2.98
415.902	2.83
416.109	2.77
416.317	2.62
416.525	2.54
416.733	2.46
416.941	2.57
417.149	2.57
417.357	2.63
417.564	2.95
417.772	3.16
417.98	2.99
418.188	2.96
418.395	2.96
418.603	2.98
418.811	2.62
419.019	2.53
419.226	2.81
419.434	2.82
419.642	2.51
419.849	2.69
420.057	2.86
420.265	2.69
420.472	2.52
420.68	2.68
420.887	2.58
421.095	2.66
421.302	2.59
421.51	2.82
421.717	2.93
421.925	3.03
422.132	2.7
422.34	2.48
422.547	2.44
422.755	2.27
422.962	2.08
423.17	2.23
423.377	2.38
423.585	2.36
423.792	2.3
423.999	2.35
424.207	2.25
424.414	2.4
424.621	2.36
424.829	2.21
425.036	2.29
425.243	2.46
425.451	2.31
425.658	2.12
425.865	2.56
426.072	2.59
426.28	2.89
426.487	2.87
426.694	2.95
426.901	2.69
427.108	2.66
427.315	2.31
427.523	2.58
427.73	2.5
427.937	2.5
428.144	2.25
428.351	2.26
428.558	2.34
428.765	2.34
428.972	2.17
429.179	2.44
429.386	2.69
429.593	2.44
429.8	2.39
430.007	2.57
430.214	2.62
430.421	2.37
430.628	2.16
430.835	2.12
431.042	2.18
431.249	2.13
431.456	2.17
431.662	2.39
431.869	2.65
432.076	2.7
432.283	2.85
432.49	2.94
432.697	2.94
432.903	2.62
433.11	2.5
433.317	2.42
433.524	2.53
433.73	2.44
433.937	2.81
434.144	2.7
434.35	2.67
434.557	2.35
434.764	2.37
434.97	2.22
435.177	2.36
435.384	2.27
435.59	2.47
435.797	2.77
436.003	2.88
436.21	2.92
436.416	3.02
436.623	2.99
436.829	2.98
437.036	3.11
437.242	3.02
437.449	3
437.655	3.04
437.862	2.93
438.068	2.71
438.275	2.9
438.481	3.05
438.687	3.06
438.894	2.99
439.1	3.08
439.307	3.18
439.513	3.08
439.719	3.1
439.926	3.18
440.132	3.19
440.338	3.02
440.544	3.14
440.751	3
440.957	3.09
441.163	2.91
441.369	3.04
441.575	2.79
441.782	2.92
441.988	2.8
442.194	2.93
442.4	2.86
442.606	3.16
442.812	3.13
443.018	3.18
443.224	3.17
443.431	3.3
443.637	3.09
443.843	2.99
444.049	2.97
444.255	2.97
444.461	2.97
444.667	3
444.873	3.21
445.079	3.19
445.284	3.25
445.49	2.98
445.696	2.84
445.902	2.69
446.108	2.68
446.314	2.61
446.52	2.72
446.726	3.04
446.931	3.1
447.137	3.15
447.343	3.22
447.549	3.16
447.755	2.88
447.96	2.85
448.166	2.77
448.372	2.64
448.578	2.69
448.783	2.74
448.989	2.89
449.195	3.18
449.4	3.26
449.606	3.29
449.812	3.2
450.017	3.21
450.223	2.95
450.428	2.85
450.634	2.92
450.84	3.1
451.045	2.93
451.251	2.89
451.456	3.23
451.662	3.35
451.867	3.39
452.073	3.43
452.278	3.52
452.483	3.48
452.689	3.31
452.894	3.34
453.1	3.39
453.305	3.33
453.51	3.19
453.716	3.1
453.921	3.03
454.127	2.99
454.332	2.96
454.537	2.84
454.742	2.89
454.948	2.92
455.153	2.91
455.358	3.03
455.563	3.26
455.769	3.34
455.974	3.28
456.179	3.14
456.384	3.14
456.589	3.02
456.795	2.85
457	2.8
457.205	3.11
457.41	3.07
457.615	3.06
457.82	3.24
458.025	3.27
458.23	3.12
458.435	3.16
458.64	3.12
458.845	3.29
459.05	3.28
459.255	3.29
459.46	3.27
459.665	3.24
459.87	3.1
460.075	3.14
460.28	3.16
460.485	3.26
460.69	3.31
460.895	3.17
461.099	3.07
461.304	3.18
461.509	3.18
461.714	3.11
461.919	3.25
462.123	3.15
462.328	3.14
462.533	2.99
462.738	3.12
462.942	3
463.147	3.15
463.352	3.13
463.556	3.19
463.761	3.2
463.966	3.28
464.17	3.23
464.375	3.12
464.58	3.05
464.784	2.95
464.989	2.88
465.193	2.92
465.398	2.91
465.602	3.06
465.807	3.12
466.011	3.18
466.216	3.22
466.42	3.31
466.625	3.38
466.829	3.49
467.034	3.56
467.238	3.7
467.443	3.67
467.647	3.45
467.851	3.44
468.056	3.44
468.26	3.33
468.464	3.35
468.669	3.59
468.873	3.69
469.077	3.7
469.282	3.74
469.486	3.78
469.69	3.73
469.894	3.56
470.099	3.58
470.303	3.64
470.507	3.57
470.711	3.45
470.915	3.48
471.119	3.42
471.324	3.39
471.528	3.42
471.732	3.6
471.936	3.62
472.14	3.69
472.344	3.72
472.548	3.8
472.752	3.91
472.956	4.13
473.16	4.1
473.364	4.01
473.568	3.94
473.772	3.86
473.976	3.74
474.18	3.72
474.384	3.82
474.588	3.81
474.792	3.67
474.995	3.63
475.199	3.71
475.403	3.73
475.607	3.79
475.811	3.81
476.015	3.93
476.218	3.94
476.422	3.89
476.626	3.98
476.83	4.1
477.033	4.01
477.237	3.95
477.441	4.04
477.644	3.98
477.848	3.99
478.052	3.99
478.255	4.03
478.459	4.01
478.663	4.23
478.866	4.22
479.07	4.29
479.273	4.46
479.477	4.5
479.681	4.37
479.884	4.36
480.088	4.23
480.291	4.12
480.495	4.11
480.698	4.13
480.901	4.18
481.105	4.35
481.308	4.35
481.512	4.3
481.715	4.38
481.919	4.39
482.122	4.34
482.325	4.34
482.529	4.42
482.732	4.38
482.935	4.31
483.138	4.26
483.342	4.31
483.545	4.37
483.748	4.39
483.952	4.49
484.155	4.67
484.358	4.74
484.561	4.69
484.764	4.61
484.967	4.67
485.171	4.73
485.374	4.63
485.577	4.71
485.78	4.79
485.983	4.75
486.186	4.58
486.389	4.53
486.592	4.51
486.795	4.49
486.998	4.44
487.201	4.5
487.404	4.62
487.607	4.65
487.81	4.7
488.013	4.75
488.216	4.79
488.419	4.77
488.622	4.73
488.825	4.65
489.028	4.6
489.231	4.51
489.433	4.48
489.636	4.41
489.839	4.44
490.042	4.4
490.245	4.47
490.447	4.53
490.65	4.6
490.853	4.58
491.056	4.63
491.258	4.61
491.461	4.59
491.664	4.66
491.866	4.66
492.069	4.73
492.272	4.69
492.474	4.76
492.677	4.76
492.879	4.86
493.082	5
493.285	5.17
493.487	5.1
493.69	5
493.892	4.95
494.095	4.84
494.297	4.75
494.5	4.81
494.702	4.86
494.905	4.9
495.107	4.87
495.309	4.91
495.512	4.93
495.714	4.98
495.917	5.02
496.119	4.99
496.321	5.04
496.524	5.11
496.726	5.13
496.928	5.16
497.13	5.17
497.333	5.14
497.535	5.11
497.737	5.05
497.939	5.02
498.142	5.13
498.344	5.11
498.546	5
498.748	5.12
498.95	5.27
499.152	5.25
499.355	5.31
499.557	5.46
499.759	5.55
499.961	5.47
500.163	5.49
500.365	5.52
500.567	5.62
500.769	5.43
500.971	5.5
501.173	5.45
501.375	5.45
501.577	5.33
501.779	5.43
501.981	5.4
502.183	5.46
502.385	5.44
502.587	5.4
502.788	5.49
502.99	5.58
503.192	5.69
503.394	5.71
503.596	5.83
503.798	5.87
503.999	5.86
504.201	5.82
504.403	5.92
504.605	5.9
504.806	5.84
505.008	5.88
505.21	5.92
505.411	5.92
505.613	5.94
505.815	5.95
506.016	5.98
506.218	6.12
506.42	6.07
506.621	6.11
506.823	6.17
507.024	6.13
507.226	6.04
507.427	6.05
507.629	6.11
507.83	6.16
508.032	6.18
508.233	6.29
508.435	6.38
508.636	6.43
508.838	6.4
509.039	6.45
509.24	6.43
509.442	6.44
509.643	6.4
509.845	6.41
510.046	6.46
510.247	6.46
510.448	6.5
510.65	6.49
510.851	6.66
511.052	6.6
511.254	6.58
511.455	6.66
511.656	6.79
511.857	6.77
512.058	6.79
512.26	6.81
512.461	6.71
512.662	6.65
512.863	6.55
513.064	6.58
513.265	6.57
513.466	6.69
513.667	6.76
513.868	6.81
514.069	6.9
514.27	7.02
514.471	6.95
514.672	6.9
514.873	6.89
515.074	6.92
515.275	6.8
515.476	6.83
515.677	6.86
515.878	7
516.079	6.9
516.28	6.99
516.481	7.13
516.682	7.16
516.882	7.03
517.083	7.05
517.284	7.01
517.485	6.95
517.686	6.9
517.886	6.92
518.087	7.03
518.288	7.04
518.488	6.96
518.689	6.99
518.89	7
519.091	6.98
519.291	6.99
519.492	7.06
519.692	7.13
519.893	7.19
520.094	7.2
520.294	7.21
520.495	7.21
520.695	7.25
520.896	7.24
521.096	7.27
521.297	7.31
521.497	7.28
521.698	7.14
521.898	7.1
522.099	7.07
522.299	7.13
522.499	7.19
522.7	7.29
522.9	7.35
523.101	7.44
523.301	7.42
523.501	7.34
523.702	7.29
523.902	7.37
524.102	7.41
524.302	7.37
524.503	7.46
524.703	7.53
524.903	7.47
525.103	7.4
525.304	7.49
525.504	7.55
525.704	7.59
525.904	7.6
526.104	7.58
526.304	7.55
526.504	7.5
526.705	7.47
526.905	7.57
527.105	7.56
527.305	7.59
527.505	7.57
527.705	7.58
527.905	7.57
528.105	7.56
528.305	7.47
528.505	7.53
528.705	7.64
528.905	7.59
529.105	7.63
529.304	7.72
529.504	7.83
529.704	7.75
529.904	7.78
530.104	7.81
530.304	7.89
530.503	7.77
530.703	7.73
530.903	7.73
531.103	7.76
531.303	7.68
531.502	7.76
531.702	7.89
531.902	7.95
532.101	7.95
532.301	7.98
532.501	7.98
532.7	7.9
532.9	7.88
533.1	7.94
533.299	7.99
533.499	8
533.698	8.04
533.898	8.05
534.097	8.05
534.297	8.07
534.496	8.05
534.696	8.11
534.895	8.21
535.095	8.26
535.294	8.2
535.494	8.17
535.693	8.15
535.892	8.15
536.092	8.15
536.291	8.14
536.491	8.28
536.69	8.34
536.889	8.3
537.088	8.25
537.288	8.36
537.487	8.38
537.686	8.38
537.886	8.39
538.085	8.44
538.284	8.54
538.483	8.5
538.682	8.56
538.882	8.62
539.081	8.75
539.28	8.63
539.479	8.63
539.678	8.62
539.877	8.74
540.076	8.69
540.275	8.78
540.474	8.83
540.673	8.88
540.872	8.79
541.071	8.82
541.27	8.85
541.469	8.96
541.668	9.01
541.867	9.07
542.066	9.13
542.265	9.19
542.464	9.16
542.663	9.14
542.862	9.27
543.06	9.33
543.259	9.37
543.458	9.42
543.657	9.47
543.856	9.49
544.054	9.45
544.253	9.43
544.452	9.47
544.651	9.56
544.849	9.5
545.048	9.59
545.247	9.64
545.445	9.73
545.644	9.73
545.843	9.77
546.041	9.78
546.24	9.86
546.438	9.95
546.637	10.02
546.836	10.24
547.034	10.33
547.233	10.37
547.431	10.32
547.63	10.37
547.828	10.26
548.027	10.3
548.225	10.31
548.423	10.36
548.622	10.4
548.82	10.45
549.019	10.54
549.217	10.66
549.415	10.74
549.614	10.83
549.812	10.86
550.01	10.81
550.209	10.85
550.407	10.93
550.605	10.94
550.803	11.08
551.002	11.22
551.2	11.28
551.398	11.37
551.596	11.54
551.794	11.59
551.993	11.7
552.191	11.77
552.389	11.83
552.587	11.9
552.785	11.97
552.983	12.05
553.181	12.21
553.379	12.25
553.577	12.24
553.775	12.35
553.973	12.37
554.171	12.45
554.369	12.51
554.567	12.57
554.765	12.63
554.963	12.76
555.161	12.71
555.359	12.87
555.557	13.02
555.755	13.11
555.952	13.2
556.15	13.34
556.348	13.38
556.546	13.51
556.744	13.58
556.941	13.66
557.139	13.72
557.337	13.81
557.535	13.82
557.732	13.88
557.93	14.04
558.128	14.13
558.325	14.2
558.523	14.29
558.721	14.46
558.918	14.39
559.116	14.47
559.313	14.52
559.511	14.68
559.708	14.65
559.906	14.79
560.104	14.9
560.301	15.01
560.498	15.08
560.696	15.2
560.893	15.31
561.091	15.41
561.288	15.58
561.486	15.65
561.683	15.73
561.88	15.87
562.078	16.04
562.275	16.1
562.473	16.25
562.67	16.48
562.867	16.57
563.064	16.6
563.262	16.63
563.459	16.7
563.656	16.83
563.853	16.83
564.051	16.95
564.248	17.11
564.445	17.31
564.642	17.28
564.839	17.53
565.036	17.69
565.234	17.95
565.431	17.95
565.628	18.17
565.825	18.27
566.022	18.36
566.219	18.39
566.416	18.52
566.613	18.53
566.81	18.61
567.007	18.56
567.204	18.58
567.401	18.59
567.598	18.69
567.795	18.69
567.991	18.85
568.188	18.96
568.385	19.15
568.582	19.23
568.779	19.4
568.976	19.52
569.172	19.66
569.369	19.67
569.566	19.69
569.763	19.73
569.96	19.7
570.156	19.66
570.353	19.66
570.55	19.79
570.746	19.82
570.943	19.92
571.14	20.03
571.336	20.15
571.533	20.21
571.729	20.22
571.926	20.28
572.123	20.38
572.319	20.41
572.516	20.37
572.712	20.47
572.909	20.45
573.105	20.52
573.302	20.61
573.498	20.78
573.695	20.72
573.891	20.87
574.087	20.81
574.284	20.73
574.48	20.6
574.677	20.68
574.873	20.67
575.069	20.79
575.266	20.9
575.462	20.93
575.658	21
575.854	21
576.051	20.99
576.247	20.96
576.443	20.98
576.639	21.02
576.835	21.01
577.032	20.99
577.228	21.17
577.424	21.3
577.62	21.23
577.816	21.3
578.012	21.32
578.208	21.16
578.404	21.18
578.6	21.27
578.796	21.26
578.993	21.24
579.189	21.28
579.384	21.12
579.58	21.03
579.776	21.04
579.972	20.98
580.168	20.93
580.364	20.99
580.56	20.96
580.756	20.92
580.952	20.96
581.148	20.93
581.343	21.02
581.539	21.09
581.735	21.13
581.931	21.15
582.127	21.24
582.322	21.11
582.518	21.18
582.714	21.09
582.909	21
583.105	20.91
583.301	20.89
583.496	20.82
583.692	20.73
583.888	20.68
584.083	20.72
584.279	20.9
584.474	20.86
584.67	20.91
584.866	20.95
585.061	20.86
585.257	20.75
585.452	20.79
585.648	20.77
585.843	20.84
586.039	20.9
586.234	20.85
586.429	20.74
586.625	20.8
586.82	20.71
587.015	20.65
587.211	20.52
587.406	20.6
587.601	20.58
587.797	20.6
587.992	20.65
588.187	20.83
588.383	20.77
588.578	20.7
588.773	20.69
588.968	20.64
589.163	20.66
589.359	20.69
589.554	20.78
589.749	20.86
589.944	20.97
590.139	20.91
590.334	20.92
590.529	20.87
590.724	20.94
590.919	20.98
591.114	21.04
591.309	21.22
591.504	21.39
591.699	21.31
591.894	21.44
592.089	21.44
592.284	21.39
592.479	21.45
592.674	21.56
592.869	21.49
593.064	21.6
593.259	21.69
593.454	21.79
593.648	21.8
593.843	21.9
594.038	22.1
594.233	22.04
594.428	21.98
594.622	22.03
594.817	22.12
595.012	22.12
595.206	22.29
595.401	22.47
595.596	22.52
595.79	22.62
595.985	22.79
596.18	22.87
596.374	22.89
596.569	22.96
596.763	23
596.958	22.94
597.153	22.97
597.347	23.01
597.542	23.26
597.736	23.34
597.931	23.48
598.125	23.53
598.319	23.63
598.514	23.57
598.708	23.66
598.903	23.61
599.097	23.71
599.291	23.82
599.486	23.88
599.68	23.79
599.874	23.85
600.069	23.82
600.263	23.78
600.457	23.81
600.651	23.86
600.846	23.93
601.04	23.99
601.234	24.06
601.428	24.14
601.622	24.23
601.817	24.31
602.011	24.43
602.205	24.56
602.399	24.58
602.593	24.55
602.787	24.6
602.981	24.5
603.175	24.42
603.369	24.37
603.563	24.38
603.757	24.38
603.951	24.49
604.145	24.48
604.339	24.56
604.533	24.61
604.727	24.6
604.921	24.45
605.115	24.37
605.309	24.48
605.502	24.44
605.696	24.31
605.89	24.31
606.084	24.39
606.278	24.18
606.471	24.12
606.665	24.08
606.859	23.93
607.053	23.8
607.246	23.79
607.44	23.71
607.634	23.66
607.827	23.75
608.021	23.67
608.214	23.64
608.408	23.54
608.602	23.42
608.795	23.34
608.989	23.23
609.182	23.14
609.376	23.18
609.569	23.23
609.763	23.16
609.956	23.15
610.15	22.98
610.343	22.92
610.537	22.73
610.73	22.69
610.923	22.64
611.117	22.6
611.31	22.51
611.504	22.49
611.697	22.33
611.89	22.33
612.083	22.32
612.277	22.29
612.47	22.2
612.663	22.06
612.856	21.86
613.05	21.73
613.243	21.57
613.436	21.47
613.629	21.42
613.822	21.33
614.015	21.22
614.209	21.12
614.402	21.15
614.595	21.2
614.788	21.21
614.981	21.13
615.174	21.02
615.367	20.91
615.56	20.75
615.753	20.59
615.946	20.57
616.139	20.56
616.332	20.66
616.525	20.67
616.718	20.75
616.911	20.67
617.103	20.6
617.296	20.38
617.489	20.24
617.682	20.12
617.875	20.03
618.067	19.94
618.26	19.8
618.453	19.8
618.646	19.78
618.838	19.77
619.031	20
619.224	20.09
619.417	20.06
619.609	20.05
619.802	20.1
619.994	19.88
620.187	19.86
620.38	19.85
620.572	19.72
620.765	19.68
620.957	19.55
621.15	19.39
621.342	19.27
621.535	19.33
621.727	19.28
621.92	19.3
622.112	19.32
622.305	19.41
622.497	19.31
622.69	19.27
622.882	19.25
623.074	19.31
623.267	19.27
623.459	19.19
623.651	19.13
623.844	19.11
624.036	18.98
624.228	18.86
624.42	18.9
624.613	19.06
624.805	19.12
624.997	19.11
625.189	19.18
625.381	19.18
625.574	18.99
625.766	18.83
625.958	18.81
626.15	18.73
626.342	18.73
626.534	18.71
626.726	18.76
626.918	18.8
627.11	18.79
627.302	18.7
627.494	18.64
627.686	18.6
627.878	18.46
628.07	18.43
628.262	18.39
628.454	18.48
628.646	18.45
628.838	18.52
629.029	18.43
629.221	18.5
629.413	18.28
629.605	18.16
629.797	18.07
629.989	18.1
630.18	18
630.372	18.03
630.564	18
630.755	18
630.947	18.02
631.139	17.85
631.33	17.83
631.522	17.97
631.714	17.97
631.905	17.93
632.097	17.96
632.289	17.98
632.48	17.85
632.672	17.72
632.863	17.53
633.055	17.46
633.246	17.36
633.438	17.29
633.629	17.37
633.821	17.44
634.012	17.48
634.203	17.46
634.395	17.45
634.586	17.4
634.777	17.37
634.969	17.37
635.16	17.37
635.351	17.28
635.543	17.21
635.734	17.27
635.925	17.26
636.117	17.29
636.308	17.39
636.499	17.39
636.69	17.26
636.881	17.15
637.073	17.21
637.264	17.15
637.455	17.19
637.646	17.27
637.837	17.36
638.028	17.31
638.219	17.4
638.41	17.34
638.601	17.23
638.792	17.3
638.983	17.21
639.174	17.12
639.365	17.18
639.556	17.13
639.747	17.04
639.938	17.11
640.129	17.06
640.32	16.91
640.511	16.91
640.701	16.93
640.892	16.88
641.083	16.93
641.274	17.01
641.465	17.09
641.655	17.03
641.846	16.9
642.037	16.82
642.228	16.7
642.418	16.75
642.609	16.76
642.8	16.84
642.99	16.78
643.181	16.91
643.372	16.86
643.562	16.84
643.753	16.75
643.943	16.7
644.134	16.54
644.324	16.41
644.515	16.34
644.705	16.44
644.896	16.53
645.086	16.56
645.277	16.58
645.467	16.61
645.658	16.48
645.848	16.51
646.038	16.49
646.229	16.39
646.419	16.34
646.61	16.37
646.8	16.23
646.99	16.21
647.18	16.22
647.371	16.16
647.561	16.1
647.751	16.14
647.941	16.04
648.132	16.01
648.322	15.99
648.512	16.04
648.702	16.04
648.892	16.06
649.082	16.1
649.272	16.02
649.462	15.83
649.653	15.71
649.843	15.64
650.033	15.61
650.223	15.62
650.413	15.64
650.603	15.69
650.793	15.74
650.983	15.64
651.172	15.59
651.362	15.53
651.552	15.4
651.742	15.24
651.932	15.22
652.122	15.24
652.312	15.38
652.502	15.36
652.691	15.41
652.881	15.38
653.071	15.31
653.261	15.07
653.45	14.92
653.64	14.91
653.83	14.79
654.019	14.57
654.209	14.55
654.399	14.56
654.588	14.39
654.778	14.25
654.968	14.17
655.157	14.04
655.347	13.86
655.536	13.67
655.726	13.6
655.915	13.49
656.105	13.37
656.294	13.26
656.484	13.14
656.673	13
656.863	12.97
657.052	12.8
657.241	12.59
657.431	12.42
657.62	12.24
657.809	11.9
657.999	11.71
658.188	11.54
658.377	11.34
658.567	11.28
658.756	11.22
658.945	11.13
659.134	11.02
659.324	10.88
659.513	10.69
659.702	10.51
659.891	10.34
660.08	10.24
660.269	10.25
660.458	10.03
660.648	9.91
660.837	9.77
661.026	9.71
661.215	9.38
661.404	9.28
661.593	9.21
661.782	9.01
661.971	8.88
662.16	8.84
662.349	8.77
662.538	8.6
662.726	8.62
662.915	8.42
663.104	8.35
663.293	8.27
663.482	8.24
663.671	8.07
663.86	7.98
664.048	7.91
664.237	7.82
664.426	7.63
664.615	7.66
664.803	7.62
664.992	7.51
665.181	7.42
665.369	7.36
665.558	7.21
665.747	7.12
665.935	7.1
666.124	7.13
666.312	7.08
666.501	7.02
666.69	6.87
666.878	6.79
667.067	6.61
667.255	6.67
667.444	7.01
667.632	7.15
667.82	7.23
668.009	7.32
668.197	7.21
668.386	6.95
668.574	7.04
668.762	6.86
668.951	6.76
669.139	6.76
669.327	6.65
669.516	6.65
669.704	6.69
669.892	6.83
670.08	6.87
670.269	6.8
670.457	6.72
670.645	6.57
670.833	6.65
671.021	6.66
671.21	6.83
671.398	7
671.586	7.05
671.774	6.86
671.962	6.9
672.15	6.95
672.338	6.8
672.526	7.04
672.714	7.07
672.902	7.14
673.09	7.15
673.278	7.39
673.466	7.31
673.654	7.58
673.842	7.53
674.03	7.59
674.218	7.49
674.405	7.64
674.593	7.48
674.781	7.67
674.969	7.75
675.157	7.86
675.344	8.02
675.532	8.17
675.72	8.25
675.908	8.34
676.095	8.32
676.283	8.26
676.471	8.51
676.658	8.55
676.846	8.69
677.033	8.89
677.221	9.03
677.409	8.89
677.596	8.97
677.784	8.97
677.971	9.09
678.159	9.17
678.346	9.21
678.534	9.3
678.721	9.49
678.909	9.44
679.096	9.43
679.283	9.84
679.471	9.97
679.658	9.97
679.846	10.35
680.033	10.76
680.22	10.67
680.408	10.7
680.595	10.88
680.782	10.71
680.969	10.63
681.157	10.89
681.344	10.98
681.531	11.01
681.718	11.03
681.905	11.18
682.093	11.34
682.28	11.65
682.467	12
682.654	12.3
682.841	12.53
683.028	12.64
683.215	12.84
683.402	12.75
683.589	12.93
683.776	13.11
683.963	13.12
684.15	13.22
684.337	13.45
684.524	13.72
684.711	14.02
684.898	14.16
685.085	14.36
685.271	14.84
685.458	15.04
685.645	15.26
685.832	15.76
686.019	16.24
686.205	16.39
686.392	16.71
686.579	17.02
686.766	17.35
686.952	17.5
687.139	18.02
687.326	18.4
687.512	18.66
687.699	18.97
687.886	19.25
688.072	19.45
688.259	19.76
688.445	20.32
688.632	20.61
688.818	21.21
689.005	21.87
689.191	22.33
689.378	22.79
689.564	23.44
689.751	23.86
689.937	24.16
690.124	24.72
690.31	25.03
690.496	25.49
690.683	26.13
690.869	26.61
691.055	27.14
691.242	28
691.428	28.65
691.614	29.3
691.8	30.12
691.987	30.87
692.173	31.47
692.359	32.22
692.545	32.94
692.731	33.33
692.918	34.11
693.104	34.67
693.29	35.37
693.476	35.92
693.662	36.84
693.848	37.24
694.034	37.91
694.22	38.1
694.406	38.97
694.592	39.89
694.778	40.6
694.964	41.23
695.15	42.1
695.336	42.38
695.522	42.95
695.708	43.55
695.894	44.21
696.08	45.01
696.265	45.94
696.451	46.49
696.637	47.3
696.823	47.69
697.009	48.17
697.194	48.58
697.38	48.99
697.566	49.62
697.751	50.44
697.937	51.43
698.123	52.15
698.308	52.87
698.494	53.41
698.68	53.82
698.865	54.3
699.051	54.99
699.236	55.38
699.422	56.1
699.607	56.49
699.793	56.95
699.978	57.11
700.164	57.7
700.349	58.06
700.535	58.92
700.72	59.27
700.906	59.99
701.091	60.53
701.276	60.93
701.462	61.66
701.647	62.32
701.832	62.83
702.018	63.33
702.203	63.96
702.388	63.94
702.573	64.26
702.759	65.23
702.944	65.51
703.129	65.45
703.314	66.07
703.499	66.2
703.684	65.98
703.87	66.99
704.055	68.16
704.24	68.57
704.425	69.38
704.61	70.03
704.795	70.03
704.98	69.92
705.165	69.77
705.35	69.86
705.535	69.83
705.72	70.1
705.905	70.74
706.09	71.69
706.275	72.23
706.459	72.43
706.644	72.47
706.829	72.46
707.014	72.31
707.199	72.76
707.384	73.31
707.568	73.8
707.753	74.27
707.938	74.76
708.123	74.51
708.307	74.5
708.492	74.36
708.677	74.32
708.861	74.29
709.046	74.7
709.231	75.31
709.415	75.9
709.6	76.09
709.784	76.32
709.969	76.38
710.153	76.01
710.338	76
710.522	75.98
710.707	76.22
710.891	76.61
711.076	77.14
711.26	76.95
711.445	77.32
711.629	77.57
711.813	77.43
711.998	77.86
712.182	78.27
712.366	79.02
712.551	79.78
712.735	80.08
712.919	79.86
713.103	80.42
713.288	79.83
713.472	79.36
713.656	80.1
713.84	80.27
714.024	80.18
714.208	79.98
714.393	80.39
714.577	80.44
714.761	80.62
714.945	80.55
715.129	81.06
715.313	81.04
715.497	80.74
715.681	81.03
715.865	81.29
716.049	81.67
716.233	81.65
716.417	81.73
716.601	81.68
716.785	81.42
716.968	81.49
717.152	81.75
717.336	82.22
717.52	82.14
717.704	82.57
717.888	82.52
718.071	82.26
718.255	81.91
718.439	81.69
718.622	81.91
718.806	82.53
718.99	82.46
719.174	82.58
719.357	83.12
719.541	82.89
719.724	82.74
719.908	83.78
720.092	84.56
720.275	85.06
720.459	85.29
720.642	84.98
720.826	84.84
721.009	84.23
721.193	83.38
721.376	83.82
721.559	84.49
721.743	84.53
721.926	84.97
722.11	85.64
722.293	84.9
722.476	84.09
722.66	84.01
722.843	83.71
723.026	83.14
723.21	83.55
723.393	84.41
723.576	84.23
723.759	83.39
723.942	83.87
724.126	84.28
724.309	83.78
724.492	84.17
724.675	84.71
724.858	85
725.041	84.9
725.224	85.52
725.407	85.68
725.59	86.4
725.774	86.05
725.957	85.88
726.14	86.14
726.322	85.82
726.505	85.83
726.688	87.19
726.871	87.04
727.054	86.76
727.237	87.32
727.42	87.63
727.603	86.9
727.786	87.61
727.968	87.76
728.151	87.78
728.334	87.19
728.517	87.37
728.699	87.74
728.882	87.83
729.065	88.17
729.248	89.04
729.43	89.64
729.613	90.31
729.796	90.86
729.978	90.14
730.161	89.95
730.343	89.2
730.526	89.34
730.708	88.63
730.891	89.45
731.073	89.26
731.256	89.17
731.438	88.56
731.621	89.58
731.803	89.44
731.986	90.02
732.168	89.71
732.35	90.17
732.533	89.76
732.715	89.89
732.898	89.79
733.08	90.5
733.262	90.46
733.444	90.47
733.627	90.24
733.809	90.61
733.991	91.33
734.173	91.13
734.355	90.88
734.538	91.77
734.72	91.04
734.902	91.21
735.084	91.39
735.266	91.66
735.448	91.62
735.63	92.78
735.812	92.9
735.994	93.61
736.176	94.05
736.358	94.05
736.54	94.83
736.722	94.39
736.904	93.48
737.086	93.23
737.268	94.33
737.45	94.02
737.632	93.93
737.814	94.02
737.995	94.11
738.177	93.01
738.359	92.22
738.541	92.57
738.723	93.16
738.904	93.85
739.086	93.37
739.268	93.55
739.449	94.12
739.631	93.92
739.813	94.5
739.994	95.16
740.176	95.71
740.358	95.38
740.539	96.95
740.721	96.49
740.902	98.02
741.084	97.4
741.265	97.58
741.447	96.64
741.628	96.83
741.81	94.84
741.991	95.67
742.172	96.43
742.354	96.77
742.535	96.09
742.717	96.63
742.898	96.02
743.079	95.22
743.261	94.35
743.442	93.95
743.623	95.03
743.804	96.19
743.986	96.91
744.167	95.51
744.348	96.03
744.529	95.08
744.71	92.96
744.891	92.24
745.073	93.04
745.254	92.78
745.435	92.8
745.616	93.45
745.797	92.89
745.978	93.57
746.159	94.71
746.34	93.91
746.521	95.26
746.702	94.58
746.883	93.13
747.064	91.73
747.245	92.35
747.426	91.67
747.606	93.72
747.787	95.57
747.968	95.57
748.149	96.61
748.33	96.84
748.51	96.25
748.691	95.6
748.872	96.66
749.053	96.21
749.233	95.03
749.414	94.31
749.595	94.38
749.775	93.54
749.956	92.26
750.137	92.53
750.317	93.13
750.498	94.73
750.678	94.85
750.859	95.67
751.04	95.77
751.22	95.19
751.4	93.83
751.581	93.14
751.761	93.02
751.942	93.94
752.122	94.25
752.303	92.77
752.483	93.26
752.663	93.01
752.844	92.31
753.024	93.57
753.204	95.2
753.385	95.01
753.565	94.67
753.745	94.28
753.925	92.65
754.106	91.74
754.286	92.07
754.466	93.22
754.646	94.49
754.826	93.24
755.006	91.4
755.187	91.32
755.367	91.46
755.547	91.59
755.727	93.62
755.907	95.75
756.087	96.99
756.267	96.17
756.447	94.18
756.627	91.63
756.807	92.02
756.987	90.89
757.167	91.38
757.346	93.02
757.526	92.8
757.706	94.2
757.886	94.61
758.066	94.63
758.246	95.8
758.425	96.38
758.605	92.98
758.785	93.09
758.965	92.48
759.144	89.34
759.324	90.56
759.504	91.68
759.683	91.11
759.863	89.53
760.043	89.3
760.222	89.91
760.402	90.19
760.581	89.55
760.761	91.7
760.94	92.18
761.12	93.53
761.299	94.11
761.479	94.34
761.658	92.42
761.838	92.59
762.017	90.69
762.197	91.09
762.376	92.12
762.555	93.62
762.735	94.49
762.914	92.99
763.093	92.06
763.273	90.91
763.452	90.05
763.631	88.05
763.81	88.26
763.99	88.66
764.169	88
764.348	86.24
764.527	86.65
764.706	87.14
764.885	87.21
765.064	86.25
765.243	88.26
765.423	89.96
765.602	90.81
765.781	87.98
765.96	88.21
766.139	86.31
766.318	86.15
766.497	84.41
766.676	86.59
766.854	89.44
767.033	89.9
767.212	89.27
767.391	90.1
767.57	89.3
767.749	88.91
767.928	90.83
768.106	90.12
768.285	88.17
768.464	88.99
768.643	88.64
768.821	88.25
769	89.79
769.179	90.99
769.357	89.91
769.536	89.06
769.715	88.64
769.893	89.52
770.072	90.27
770.25	91.2
770.429	91.88
770.607	90.07
770.786	87.46
770.964	88.91
771.143	88.69
771.321	90.21
771.5	92.59
771.678	92.03
771.857	89.81
772.035	89.53
772.213	86.29
772.392	83.6
772.57	83.88
772.748	84.36
772.927	82.59
773.105	82.59
773.283	84.7
773.461	85.56
773.64	86.56
773.818	89.12
773.996	91.43
774.174	89.85
774.352	87.55
774.531	84
774.709	85.93
774.887	83.99
775.065	85.16
775.243	87.19
775.421	87.78
775.599	86.54
775.777	84.56
775.955	81.41
776.133	78.46
776.311	79.33
776.489	74.92
776.667	76.27
776.844	78.1
777.022	78.87
777.2	78.09
777.378	79.84
777.556	81.26
777.734	82.9
777.911	86.01
778.089	87.68
778.267	88.33
778.445	85.72
778.622	84.11
778.8	81.9
778.978	82.53
779.155	80.6
779.333	83.23
779.511	81.54
779.688	84.28
779.866	82.01
780.043	80.67
780.221	79.82
780.398	79.47
780.576	80.22
780.753	83.22
780.931	83.89
781.108	81.09
781.286	83.28
781.463	78.58
781.64	73.39
781.818	75.7
781.995	77.73
782.172	75.97
782.35	78.69
782.527	85.2
782.704	84.42
782.882	85.01
783.059	86.18
783.236	85.82
783.413	84.63
783.59	83.69
783.768	78.15
783.945	80.25
784.122	80.63
784.299	75.84
784.476	74.69
784.653	78.15
784.83	75.4
785.007	71.37
785.184	73.9
785.361	74.49
785.538	79.29
785.715	83.18
785.892	84.16
786.069	86.63
786.246	87.54
786.423	85.05
786.6	80.09
786.776	82.36
786.953	78.76
787.13	81.42
787.307	80.9
787.484	83.74
787.66	82.52
787.837	81.59
788.014	79.28
788.191	73.78
788.367	68.77
788.544	70.98
788.721	71.96
788.897	70.75
789.074	77.14
789.25	77.81
789.427	78.34
789.603	79.53
789.78	81.78
789.956	76.66
790.133	78.47
790.309	74.58
790.486	76.12
790.662	74.13
790.839	77.21
791.015	77.14
791.192	77.99
791.368	77.44
791.544	76.68
791.721	76.45
791.897	76.56
792.073	75.42
792.249	69.78
792.426	72.83
792.602	73.3
792.778	71.07
792.954	70.05
793.13	71.93
793.307	66.62
793.483	60.47
793.659	62.51
793.835	67.97
794.011	64.58
794.187	64.4
794.363	65.96
794.539	70.44
794.715	60.48
794.891	61.53
795.067	61.65
795.243	70.71
795.419	67.87
795.595	70.1
795.771	73.89
795.947	75.81
796.122	67.86
796.298	69.96
796.474	74.91
796.65	74.1
796.826	71.28
797.001	75.22
797.177	67.14
797.353	70.67
797.529	77.02
797.704	77.65
797.88	72.41
798.056	75.35
798.231	68.24
798.407	64.37
798.582	67.19
798.758	74.92
798.934	81.95
799.109	81.74
799.285	77.16
799.46	80.19
799.636	76.79
799.811	73.92
799.986	77.84
800.162	84.58
800.337	83.16
800.513	74.51
800.688	71.46
800.863	73.87
801.039	61.21
801.214	53.55
801.389	61
801.565	56.35
801.74	47.13
801.915	60.32
802.09	67
802.265	71.77
802.441	67.9
802.616	70.81
802.791	71
802.966	66.29
803.141	66.68
803.316	72.34
803.491	75.04
803.666	75.29
803.841	78.55
804.016	71.75
804.191	76.25
804.366	72.8
804.541	63.28
804.716	61.87
804.891	58.62
805.066	58.24
805.241	58.5
805.416	62.79
805.591	61.1
805.765	65.01
805.94	70.01
806.115	69.35
806.29	63.89
806.464	65.02
806.639	58.72
806.814	46.1
806.989	42.32
807.163	54.78
807.338	52.75
807.512	55.08
807.687	42.27
807.862	58.1
808.036	53.37
808.211	61.18
808.385	65.62
808.56	88.83
808.734	83.39
808.909	78.51
809.083	76.94
809.258	87.39
809.432	73.09
809.606	58.8
809.781	54.81
809.955	58.64
810.13	58.43
810.304	62.36
810.478	67.71
810.652	84.66
810.827	78.43
811.001	64.81
811.175	62.93
811.349	63.55
811.524	48.49
811.698	40.02
811.872	42
812.046	54.34
812.22	52.7
812.394	54.12
812.568	58.44
812.742	62.61
812.916	51.74
813.09	57.85
813.264	55.17
813.438	60.79
813.612	56.99
813.786	56.2
813.96	58.67
814.134	67.31
814.308	72.92
814.482	83.28
814.656	78.16
814.83	84.64
815.003	86.06
815.177	72.47
815.351	61.19
815.525	61.84
815.698	46.24
815.872	27.09
816.046	26.26
816.219	30.02
816.393	38.51
816.567	50.53
816.74	66.53
816.914	69.17
817.088	80.5
817.261	74.97
817.435	57.12
817.608	58.57
817.782	42.66
817.955	37.31
818.129	38.5
818.302	50.04
818.475	58.21
818.649	71.84
818.822	61.72
818.996	80.68
819.169	78.18
819.342	64.76
819.516	64.23
819.689	67.36
819.862	50.91
820.035	46.14
820.209	40.48
820.382	46.25
820.555	46.99
820.728	34.08
820.901	33.15
821.075	42.43
821.248	49.11
821.421	37.59
821.594	59.67
821.767	83.45
821.94	87.31
822.113	44.3
822.286	47.53
822.459	48.14
822.632	27.63
822.805	14.8
822.978	31.26
823.151	31.41
823.324	20.13
823.496	7.06
823.669	8.9
823.842	22.98
824.015	15.12
824.188	7.03
824.361	-0.74
824.533	0.72
824.706	6.48
824.879	14.38
825.051	24.11
825.224	34.37
825.397	29.03
825.569	7.87
825.742	25.63
825.915	40.51
826.087	60.67
826.26	56.77
826.432	65.48
826.605	69.9
826.777	51.08
826.95	41.79
827.122	29.42
827.295	29.77
827.467	28.73
827.64	11.21
827.812	8.65
827.984	10.52
828.157	3.37
828.329	-50.71
828.501	-33.34
828.674	-2.92
828.846	4.1
829.018	17.05
829.19	20.91
829.363	54.41
829.535	62.05
829.707	61.1
829.879	43.23
830.051	43.64
830.223	14.6
830.395	-25.56
830.568	-37.68
830.74	-27.27
830.912	14.38
831.084	7.18
831.256	6.51
831.428	12.41
831.6	11.43
831.772	-27.58
831.943	-36.06
832.115	5.03
832.287	35.98
832.459	33.14
832.631	46.17
832.803	77.37
832.975	88.56
833.146	59.37
833.318	53.64
833.49	72.95
833.662	43.9
833.833	17.46
834.005	29.54
834.177	46.19
834.348	26.91
834.52	9.08
834.692	9.89
834.863	-3.15
835.035	4.33
835.206	-35.44
835.378	8.55
835.549	-8.55
835.721	-1.46
835.892	-27.33
836.064	-5.8
836.235	-22.76
836.407	23.78
836.578	-10.47
836.749	-9.73
836.921	-35.75
837.092	-47.11
837.264	-64.45
837.435	-60.76
837.606	-14.64
837.777	25.18
837.949	45.5
838.12	38.2
838.291	47.41
838.462	44.39
838.633	8.82
838.805	0.13
838.976	12.36
839.147	-39.77
839.318	-55.27
839.489	-93.34
839.66	-96.35
839.831	-76.83
840.002	-60.64
840.173	-115.42
840.344	-67.31
840.515	-113.07
840.686	-224.06
840.857	-169.26
841.028	-124.05
841.199	-77.89
841.369	-96.99
841.54	-90.96
841.711	-41.32
841.882	-17.52
842.053	-28.34
842.223	-16.82
842.394	6.65
842.565	12.9
842.736	31.21
842.906	42.04
843.077	33.71
843.248	70.49
843.418	46.36
843.589	-1.24
843.759	75.41
843.93	89.03
844.101	20.86
844.271	35.67
844.442	54.01
844.612	38.01
844.783	19.18
844.953	-10.7
845.123	-13.19
845.294	-58.35
845.464	-260.82
845.635	-126.49
845.805	-8.43
845.975	-3.4
846.146	-43.23
846.316	-42.66
846.486	-6.08
846.656	13.05
846.827	-2.09
846.997	7.51
847.167	30.84
847.337	-1.65
847.507	-38.51
847.677	-12.89
847.848	51.22
848.018	59.99
848.188	63.32
848.358	48.51
848.528	31.93
848.698	-31.61
848.868	-189.21
849.038	-291.33
849.208	-89.77
849.378	-31.29
849.548	-14.82
849.718	17.93
849.887	36.71
850.057	0.17
850.227	-49.05
850.397	-68.68
850.567	-151.62
850.737	-472.5
850.906	-1459.69
851.076	-811.52
851.246	-237.57
851.415	-15.16
851.585	1.4
851.755	-18.55
851.924	6.79
852.094	-45.86
852.264	-138.88
852.433	-993.03
852.603	-165.04
852.772	-181.48
852.942	-78.61
853.111	-84.03
853.281	-34.87
853.45	1.73
853.62	-87.61
853.789	-88.6
853.959	-69.99
854.128	-96.95
854.297	-138.35
854.467	-90.1
854.636	-40.87
854.805	-1.37
854.975	-45.99
855.144	-98.84
855.313	-88.64
855.482	-596.17
855.652	-394.28
855.821	-230.45
855.99	-23.91
856.159	-5.17
856.328	1.5
856.497	-0.84
856.667	2.31
856.836	7.87
857.005	-20.09
857.174	-31.05
857.343	-18.12
857.512	89.26
857.681	40.31
857.85	8.35
858.019	18.3
858.188	1.64
858.356	-46.94
858.525	-121.08
858.694	-98.02
858.863	-186.17
859.032	-166.74
859.201	-251.19
859.369	-162.44
859.538	-125.9
859.707	-131.65
859.876	-136.1
860.044	-119.25
860.213	-5.02
860.382	4.96
860.55	21.93
860.719	51.13
860.888	54.06
861.056	11.32
861.225	-19.87
861.393	49.16
861.562	44.89
861.73	-19.48
861.899	-130.76
862.067	-1161.21
862.236	-157.29
862.404	-381.48
862.572	-210.75
862.741	-56.99
862.909	-44.86
863.078	-122.39
863.246	-35.18
863.414	-37.56
863.582	-15.14
863.751	-30.99
863.919	-59
864.087	-38.34
864.255	-48.35
864.424	-485.56
864.592	-63.6
864.76	-99.07
864.928	-327
865.096	-200.88
865.264	-112.6
865.432	-2101.7
865.6	-115.88
865.768	-123.06
865.936	-118.27
866.104	-133.13
866.272	-178.36
866.44	-458.56
866.608	626.49
866.776	315.74
866.944	2945.93
867.112	-635.91
867.28	-237.52
867.448	-81.37
867.615	-17.58
867.783	-2.92
867.951	6.95
868.119	47.26
868.286	29.56
868.454	-18.75
868.622	-19.51
868.789	-1.41
868.957	-669.64
869.125	-2441.45
869.292	-224.26
869.46	-312.42
869.627	-52.13
869.795	-61.66
869.963	-1.73
870.13	20.31
870.298	28.91
870.465	-72.82
870.632	-105.23
870.8	-83.18
870.967	-119.74
871.135	-184.22
871.302	-152.45
871.469	-148.84
871.637	-234.07
871.804	-121.72
871.971	-137.1
872.139	-444.07
872.306	-8.51
872.473	-50.36
872.64	-423.93
872.807	-234.98
872.975	-9.26
873.142	-285
873.309	2029.05
873.476	28.96
873.643	97.08
873.81	31.24
873.977	64.9
874.144	55.5
874.311	-41.12
874.478	-96.74
874.645	-152.72
874.812	-150.97
874.979	-111.91
875.146	-116.85
875.313	-135.39
875.48	-35.6
875.647	-26.8
875.813	-40.2
875.98	-13.31
876.147	-40.96
876.314	-99.37
876.481	935.33
876.647	-1305.34
876.814	533.55
876.981	-34.9
877.147	-36.79
877.314	2.98
877.481	30.36
877.647	31
877.814	-18.81
877.98	-48.31
878.147	12.05
878.314	32.02
878.48	-35.47
878.647	-21.36
878.813	23.22
878.979	-8.45
879.146	-49.23
879.312	-41.2
879.479	-77.87
879.645	-194.84
879.811	-322.95
879.978	-822.71
880.144	-204.14
880.31	-114.31
880.477	-295.67
880.643	-281.25
880.809	0.48
880.975	2.17
881.142	-243.41
881.308	25.05
881.474	-7.86
881.64	-84.61
881.806	-172.1
881.972	-99.02
882.138	-124.51
882.304	-117.8
882.47	-240.52
882.636	-930.12
882.802	-255.33
882.968	-44.37
883.134	-41.33
883.3	-14.24
883.466	43.12
883.632	75.96
883.798	34.75
883.964	54.47
884.129	45.83
884.295	25.37
884.461	-30.96
884.627	-77.11
884.793	-139.25
884.958	-92.11
885.124	-158.88
885.29	-265.11
885.455	-523.18
885.621	-127.75
885.787	-173.71
885.952	-90.76
886.118	-91.38
886.283	-56.91
886.449	-152.67
886.614	-173.71
886.78	-386.83
886.945	1525.82
887.111	-714.88
887.276	-615.77
887.442	-1007.05
887.607	-270.64
887.773	-209.47
887.938	-186.62
888.103	-233.36
888.269	-117.7
888.434	-311.76
888.599	-111.08
888.764	-35.89
888.93	7.58
889.095	-30.91
889.26	-70.06
889.425	-40.07
889.59	4.24
889.756	-38.17
889.921	0.7
890.086	36.88
890.251	22.37
890.416	-134.73
890.581	-1186.69
890.746	183.48
890.911	426.59
891.076	218.94
891.241	-591.6
891.406	-16.28
891.571	-101.13
891.736	-345.76
891.901	-521.02
892.065	590.93
892.23	188.75
892.395	271.38
892.56	431.14
892.725	-619.34
892.889	-2153.05
893.054	-303.08
893.219	-113.56
893.384	-25.34
893.548	-85.3
893.713	-85.65
893.878	-48.01
