Data from Ofra_1a_PS_8CX24_Reflection_2.txt Node
Date: Tue Jul 20 11:01:17 EDT 2021
User: Adam
Spectrometer: FLMT01687
Trigger mode: 0
Integration Time (sec): 1.004000E0
Scans to average: 2
Electric dark correction enabled: true
Nonlinearity correction enabled: false
Boxcar width: 2
XAxis mode: Wavelengths
Number of Pixels in Spectrum: 3648
>>>>>Begin Spectral Data<<<<<
179.494	-316.24
179.716	-509.92
179.937	1077.93
180.158	-1250.32
180.38	214.46
180.601	116.68
180.823	37.22
181.044	-20.42
181.265	-112.89
181.486	157.14
181.708	120.52
181.929	-7136.36
182.15	0.71
182.372	168.97
182.593	195.82
182.814	-66.38
183.035	-18.75
183.257	12.88
183.478	-5.56
183.699	-23.99
183.92	-93.32
184.141	-74.04
184.363	-56.28
184.584	-65.12
184.805	-2.04
185.026	59.95
185.247	44.36
185.468	27.4
185.689	28.84
185.91	-3.26
186.132	-41.28
186.353	-33.39
186.574	-30.89
186.795	-35.06
187.016	-15.04
187.237	-17.39
187.458	-36.29
187.679	-10.94
187.9	3.83
188.121	0.48
188.342	15.5
188.563	42.41
188.784	38.33
189.005	27.2
189.226	36.82
189.447	29.12
189.667	28.59
189.888	14.57
190.109	5.3
190.33	13.04
190.551	13.23
190.772	25.49
190.993	23.65
191.214	11.18
191.434	-18.66
191.655	31.46
191.876	21.11
192.097	48.86
192.318	69.82
192.538	39.54
192.759	3.12
192.98	12
193.201	8.19
193.421	-6.23
193.642	7.1
193.863	21.08
194.083	17.16
194.304	36.05
194.525	39.84
194.745	38.6
194.966	31.29
195.187	21.06
195.407	-2.42
195.628	7.94
195.848	7.88
196.069	-9.19
196.29	6.75
196.51	3.26
196.731	-20.36
196.951	-21.09
197.172	-13.93
197.392	-35.71
197.613	-5.19
197.833	-13.51
198.054	-26.99
198.274	-26.92
198.495	-3.18
198.715	-15.51
198.936	8.69
199.156	11.72
199.377	17.03
199.597	3.06
199.817	12.56
200.038	-1.02
200.258	26.34
200.479	34.9
200.699	31.4
200.919	2.62
201.14	2.02
201.36	-5.04
201.58	-32.36
201.801	-45.63
202.021	-24.86
202.241	-23.82
202.461	-28.2
202.682	4.77
202.902	24.82
203.122	23.38
203.342	21.5
203.563	20.53
203.783	5.47
204.003	-9.23
204.223	3.61
204.443	23.3
204.663	27.93
204.884	28.04
205.104	20.72
205.324	19.4
205.544	-61.89
205.764	-24.48
205.984	-34.08
206.204	-39.44
206.424	-62.61
206.644	-52.4
206.864	-106.16
207.084	-19.91
207.304	-27.76
207.525	-16.48
207.745	26
207.964	36.2
208.184	17.71
208.404	19.4
208.624	26.9
208.844	27.47
209.064	37
209.284	17.31
209.504	11.83
209.724	2.62
209.944	-32.2
210.164	-44.78
210.384	-44.56
210.604	-79.89
210.823	-81.98
211.043	-47.22
211.263	-111.3
211.483	-60.05
211.703	-31.6
211.922	-36.85
212.142	-23.18
212.362	-9.21
212.582	-15.39
212.801	1.02
213.021	4.42
213.241	-1.98
213.461	20.19
213.68	22.93
213.9	4.47
214.12	-7.25
214.339	-7.67
214.559	-13.73
214.779	-31.82
214.998	-21.14
215.218	-14.41
215.438	-1.22
215.657	-8.74
215.877	-5.26
216.096	24.1
216.316	40.47
216.535	24.83
216.755	28.98
216.974	24.54
217.194	-17
217.413	-35.26
217.633	-42.51
217.852	-36.42
218.072	-14.35
218.291	-10.88
218.511	-1.46
218.73	1.8
218.95	-10.74
219.169	-28.53
219.389	-29.64
219.608	-61.4
219.827	-28.15
220.047	-5.39
220.266	-28.61
220.485	-16.43
220.705	25.34
220.924	12.21
221.143	4.96
221.363	21.09
221.582	29.31
221.801	19.14
222.021	34.79
222.24	47.64
222.459	61.95
222.678	45.91
222.897	46.27
223.117	48.41
223.336	49.11
223.555	40.47
223.774	33.45
223.993	29.74
224.213	26.53
224.432	3.64
224.651	-5.89
224.87	6.72
225.089	17.47
225.308	12.53
225.527	15.08
225.746	19.01
225.965	15.01
226.184	0.09
226.404	-13
226.623	-4.65
226.842	-0.24
227.061	0.78
227.28	10.27
227.499	19.06
227.718	13.47
227.936	19.47
228.155	12.9
228.374	23.6
228.593	16.73
228.812	19.36
229.031	14.8
229.25	7.2
229.469	-19.96
229.688	-4.63
229.907	-11.02
230.125	-15.29
230.344	2.17
230.563	17.56
230.782	15.38
231.001	40.47
231.22	40.36
231.438	33.82
231.657	37.67
231.876	32.72
232.095	35.84
232.313	17.75
232.532	11.07
232.751	-9.15
232.969	-6.94
233.188	-20.46
233.407	0.4
233.625	15.83
233.844	16.87
234.063	8.81
234.281	18.56
234.5	13.29
234.719	-2.11
234.937	-10.06
235.156	-11.62
235.374	-25.07
235.593	-21.18
235.811	1.29
236.03	13.78
236.249	22.71
236.467	14.2
236.686	-7.86
236.904	-11
237.123	-19.48
237.341	-32.52
237.559	-28.8
237.778	20.73
237.996	1.58
238.215	-15.27
238.433	-44.13
238.652	0.11
238.87	-36.44
239.088	-24.19
239.307	-14.86
239.525	-3.31
239.743	-17.85
239.962	-10.72
240.18	3.89
240.398	8.5
240.617	-10.2
240.835	-17.69
241.053	-14.52
241.271	6.05
241.49	18.65
241.708	6.44
241.926	6.98
242.144	28.29
242.363	-17.14
242.581	-63.33
242.799	-8.4
243.017	-17.29
243.235	-17.34
243.453	-26.51
243.672	-6.59
243.89	-8.79
244.108	9.3
244.326	13.76
244.544	22.44
244.762	0.56
244.98	0.99
245.198	5.46
245.416	-2.76
245.634	-1.66
245.852	1.83
246.07	15.41
246.288	13.06
246.506	10.4
246.724	10.45
246.942	23.82
247.16	11.18
247.378	-6.85
247.596	12.33
247.814	1.93
248.032	-22.83
248.25	8.03
248.468	18.02
248.685	8.33
248.903	3.69
249.121	11.91
249.339	7.01
249.557	10.07
249.775	6.38
249.992	13.23
250.21	6.69
250.428	17.02
250.646	5.02
250.863	4.81
251.081	9.18
251.299	39.68
251.517	38.51
251.734	38.64
251.952	34.07
252.17	23.4
252.387	-18.4
252.605	-28.92
252.823	-42.85
253.04	-30.3
253.258	-10.25
253.475	8.73
253.693	1.72
253.911	0.43
254.128	-11.89
254.346	-6.51
254.563	-4
254.781	-9.9
254.998	-5.16
255.216	-17.86
255.433	-34.09
255.651	-20.19
255.868	-16.79
256.086	-12.11
256.303	-8.9
256.521	-5.81
256.738	-16.47
256.956	-12.54
257.173	-30.27
257.39	-12.37
257.608	-9.93
257.825	-10.32
258.043	0.75
258.26	18.16
258.477	17.88
258.695	19.52
258.912	17.82
259.129	16.99
259.346	1.39
259.564	10.09
259.781	7.3
259.998	22.94
260.216	21.52
260.433	20.71
260.65	22.72
260.867	15.15
261.084	-2.29
261.302	-18.69
261.519	-5.51
261.736	-9.77
261.953	3.99
262.17	19.27
262.387	31.48
262.604	26.52
262.822	25.02
263.039	30.3
263.256	24.51
263.473	17.12
263.69	13.33
263.907	23.77
264.124	26.47
264.341	37.76
264.558	30.48
264.775	37.52
264.992	21.51
265.209	-15.6
265.426	-39.82
265.643	-12.8
265.86	-28.72
266.077	-33.3
266.294	14.35
266.51	29.6
266.727	3.58
266.944	22.61
267.161	24.14
267.378	17.24
267.595	-5.67
267.812	1.13
268.028	-36.99
268.245	-36.91
268.462	-21.13
268.679	-2.29
268.896	8.89
269.112	15.41
269.329	-12.67
269.546	-3.83
269.763	-16.5
269.979	-19.2
270.196	-9.56
270.413	4.74
270.629	-20.48
270.846	-20.1
271.063	-13.35
271.279	-6.45
271.496	-13
271.712	-5.07
271.929	10.65
272.146	3.66
272.362	-4.43
272.579	5.89
272.795	14.78
273.012	5.15
273.228	8.2
273.445	0.43
273.661	-9.72
273.878	-15.95
274.094	-10.75
274.311	-7.59
274.527	-17.85
274.744	12.31
274.96	24.48
275.177	26.19
275.393	26.7
275.609	36.66
275.826	31.44
276.042	14.72
276.259	20.97
276.475	15.12
276.691	-0.96
276.908	-0.95
277.124	16.34
277.34	-0.12
277.557	-5.61
277.773	-7.98
277.989	-13.53
278.205	-14.31
278.422	-6.25
278.638	-16.07
278.854	-1.04
279.07	11.65
279.286	-0.73
279.503	-3.99
279.719	14.74
279.935	9.41
280.151	-9.48
280.367	5.15
280.583	0.22
280.799	-16.15
281.016	-48.5
281.232	-32.29
281.448	-42.65
281.664	-21.65
281.88	-2.61
282.096	16.68
282.312	9.98
282.528	7.21
282.744	1.19
282.96	-21.92
283.176	-32.53
283.392	-56.16
283.608	-44.89
283.824	-100.17
284.04	-131.1
284.256	-79.01
284.471	-36.41
284.687	-23.96
284.903	0.48
285.119	27.93
285.335	31.41
285.551	19.91
285.767	-1.78
285.982	9.65
286.198	-19.6
286.414	-14.61
286.63	-18.51
286.846	-1.21
287.061	-16.88
287.277	-3.16
287.493	-29.03
287.709	-24.51
287.924	-4.89
288.14	11.73
288.356	19.53
288.571	29.71
288.787	30.64
289.003	28.74
289.218	22.8
289.434	8.99
289.65	29.82
289.865	16.89
290.081	19.26
290.296	24.65
290.512	22.93
290.727	-3.8
290.943	7.89
291.159	1.19
291.374	-23.93
291.59	-17.95
291.805	-26.57
292.021	-27.2
292.236	-17.7
292.451	-10.74
292.667	-21.23
292.882	9.83
293.098	16.11
293.313	15.78
293.529	25.02
293.744	15.52
293.959	15.5
294.175	20.62
294.39	13.21
294.605	24.44
294.821	24.07
295.036	16.12
295.251	15.81
295.467	2.07
295.682	-4.77
295.897	-5.94
296.112	-16.11
296.328	-17.64
296.543	-18.45
296.758	-18.34
296.973	0.4
297.188	1.09
297.404	-6.72
297.619	-23.65
297.834	-56.61
298.049	-66.94
298.264	-41.42
298.479	-24.22
298.694	9.33
298.909	16.93
299.125	9.28
299.34	7.68
299.555	0.24
299.77	21.3
299.985	12.07
300.2	28.87
300.415	16.13
300.63	23.96
300.845	6.83
301.06	27.73
301.275	14.4
301.49	31.32
301.704	14.18
301.919	8.94
302.134	-8.02
302.349	-1.78
302.564	-3.95
302.779	-16.1
302.994	13.75
303.209	23.09
303.423	26.21
303.638	30.42
303.853	24.67
304.068	-10.13
304.283	-10.49
304.497	-28.82
304.712	-23.07
304.927	-10.77
305.142	-4.08
305.356	-7.3
305.571	-9.12
305.786	-4.94
306	17.68
306.215	13.56
306.43	10.82
306.644	22.17
306.859	19.19
307.074	10.23
307.288	11.27
307.503	24.56
307.717	10.28
307.932	16.63
308.147	8.66
308.361	11
308.576	-11.65
308.79	-12.09
309.005	-29.63
309.219	-19.41
309.434	-15.89
309.648	-7.45
309.863	1.42
310.077	8.1
310.292	9.92
310.506	-11.05
310.72	-16.88
310.935	8.47
311.149	13.82
311.364	25.44
311.578	34.77
311.792	49.89
312.007	43.33
312.221	21.13
312.435	-0.5
312.649	0.07
312.864	-14.2
313.078	-17.35
313.292	-8.6
313.507	-6.87
313.721	-2.56
313.935	11.58
314.149	-5.57
314.363	-1.61
314.578	9.12
314.792	-30.25
315.006	-46.46
315.22	-21.47
315.434	-18.07
315.648	-33.55
315.862	0.07
316.077	-9.62
316.291	-2.04
316.505	-24.19
316.719	-15.52
316.933	-22.08
317.147	-13.46
317.361	-19.06
317.575	-5.97
317.789	-1.52
318.003	-2.43
318.217	14.76
318.431	6.38
318.645	-5.53
318.859	1.87
319.073	6.36
319.287	0.29
319.5	0.37
319.714	3.58
319.928	-2.75
320.142	4.56
320.356	23.57
320.57	18.39
320.784	22.23
320.997	9.16
321.211	10.02
321.425	-23.84
321.639	2.64
321.853	18.53
322.066	20.46
322.28	8.87
322.494	12.31
322.707	8.23
322.921	-9.33
323.135	-5.31
323.349	-0.51
323.562	2.86
323.776	2.9
323.989	17.24
324.203	5.74
324.417	-1.19
324.63	-16.43
324.844	-29.8
325.057	-70.15
325.271	-48.81
325.485	-42.57
325.698	-19.52
325.912	10.69
326.125	6.74
326.339	12.79
326.552	-1.97
326.766	-23.03
326.979	-31.23
327.193	-12.49
327.406	-33.56
327.619	-12.45
327.833	-3.07
328.046	-11.13
328.26	-18.22
328.473	-10.15
328.686	-13.01
328.9	5.16
329.113	6.85
329.326	10.84
329.54	14.08
329.753	21.07
329.966	16.82
330.179	18.14
330.393	24.45
330.606	26.65
330.819	19.02
331.032	13.36
331.246	13.92
331.459	13.12
331.672	10.51
331.885	9.18
332.098	5.68
332.311	1.41
332.525	-2.58
332.738	-2.87
332.951	-6.08
333.164	0.3
333.377	3.34
333.59	2.22
333.803	-2.64
334.016	-0.4
334.229	-4.92
334.442	-12.94
334.655	-14.39
334.868	-14.31
335.081	-9.28
335.294	-8.24
335.507	1.26
335.72	17.36
335.933	37.16
336.146	19.5
336.359	21.87
336.572	20.79
336.785	-9.48
336.997	-36.18
337.21	-23.7
337.423	-40.56
337.636	-28.35
337.849	-22.52
338.062	-18.92
338.274	1.7
338.487	-12.62
338.7	-33.96
338.913	0.95
339.125	5.05
339.338	-6.89
339.551	13.84
339.763	25.3
339.976	15.44
340.189	18.85
340.402	19.07
340.614	7.59
340.827	5.49
341.039	-4.08
341.252	4.41
341.465	-2.25
341.677	13.1
341.89	-5.51
342.102	11.78
342.315	4.89
342.527	9.72
342.74	-6.02
342.952	12.48
343.165	-6.13
343.377	6.49
343.59	7.78
343.802	3.72
344.015	11.89
344.227	20.21
344.44	10.99
344.652	17.2
344.864	28.22
345.077	41.22
345.289	50.34
345.502	59.03
345.714	52.54
345.926	41.57
346.139	23.5
346.351	4.97
346.563	0.64
346.775	4.58
346.988	27.02
347.2	30.65
347.412	34.04
347.624	30.27
347.837	32.34
348.049	24.22
348.261	12.01
348.473	-2.34
348.685	-4.36
348.897	-19.85
349.11	-14.9
349.322	2.27
349.534	15.46
349.746	15.57
349.958	8.93
350.17	-4.23
350.382	-2.52
350.594	-1.29
350.806	12.07
351.018	25.19
351.23	37.95
351.442	40.06
351.654	33.85
351.866	24.96
352.078	15.57
352.29	10.42
352.502	-5.22
352.714	-16.05
352.926	-26.64
353.138	-21.8
353.35	-25.32
353.561	-22.68
353.773	-21.1
353.985	-3.53
354.197	3.53
354.409	2.88
354.621	-2.4
354.832	-7.07
355.044	-31.46
355.256	-32.21
355.468	-24.6
355.679	5.06
355.891	23.16
356.103	28.6
356.314	27.88
356.526	11.58
356.738	-10.71
356.949	-21.46
357.161	-6.58
357.373	-9.12
357.584	9.89
357.796	20.45
358.008	24.65
358.219	20.58
358.431	13.91
358.642	19.95
358.854	25.15
359.065	9
359.277	6.39
359.488	10.24
359.7	0.18
359.911	-19.02
360.123	0.69
360.334	-8.04
360.546	-2.19
360.757	0.69
360.969	5.76
361.18	9.25
361.391	22.02
361.603	28.72
361.814	31.53
362.025	27.93
362.237	25.86
362.448	28.11
362.659	14.73
362.871	-9.25
363.082	-11.01
363.293	-31.15
363.504	-68.56
363.716	-69.15
363.927	-15.22
364.138	-29.75
364.349	-43.4
364.56	-36.35
364.772	-21.13
364.983	-32.18
365.194	-22.71
365.405	-4.67
365.616	11.68
365.827	6.28
366.038	9.24
366.25	18.06
366.461	24.86
366.672	17.12
366.883	25.21
367.094	20.24
367.305	2.86
367.516	4.6
367.727	-4.85
367.938	-11
368.149	-18.64
368.36	-6.59
368.571	-43.62
368.781	-42.98
368.992	-49.49
369.203	-36.25
369.414	-38.8
369.625	-12.98
369.836	2.86
370.047	12.87
370.258	26.79
370.468	16.77
370.679	12.73
370.89	14.12
371.101	19.92
371.312	0.79
371.522	4.46
371.733	-8.44
371.944	-30.91
372.155	-38.38
372.365	-24.53
372.576	-28.57
372.787	-8.2
372.997	0.36
373.208	-10.11
373.419	-12.67
373.629	-15.48
373.84	-18.83
374.05	-28.75
374.261	-28.15
374.472	-23.22
374.682	-4.63
374.893	-9.08
375.103	11.44
375.314	15.07
375.524	9.69
375.735	15.58
375.945	13.86
376.156	2.58
376.366	5.53
376.577	5.47
376.787	2.93
376.997	10.54
377.208	8.68
377.418	4.39
377.629	3.54
377.839	-7.23
378.049	-8.82
378.26	-6.47
378.47	-18.47
378.68	-18.64
378.89	-11.44
379.101	-10.07
379.311	-12.21
379.521	-9.94
379.732	-4.18
379.942	-1.92
380.152	-12.62
380.362	-12.11
380.572	3.33
380.783	6.46
380.993	11.41
381.203	14.57
381.413	19.58
381.623	10.72
381.833	15.23
382.043	5.06
382.253	8.46
382.463	15.37
382.674	21.3
382.884	14.19
383.094	16.44
383.304	19.22
383.514	16.46
383.724	12.74
383.934	9.02
384.144	11.14
384.353	10.49
384.563	15.37
384.773	11.41
384.983	13.79
385.193	12.06
385.403	5.64
385.613	1.87
385.823	5.27
386.033	4.72
386.242	1.77
386.452	-0.91
386.662	-4.6
386.872	0.44
387.082	0.62
387.291	-4.62
387.501	0.56
387.711	1.88
387.921	-2.51
388.13	0.18
388.34	6.41
388.55	2.21
388.759	-1.34
388.969	-0.4
389.179	-1.86
389.388	-4.33
389.598	-2.35
389.807	-2.55
390.017	-3.36
390.227	-5.17
390.436	-4.33
390.646	-3.35
390.855	-0.45
391.065	-0.34
391.274	-0.22
391.484	0.62
391.693	-2.08
391.903	-4.16
392.112	-4.87
392.322	-4.75
392.531	-4.64
392.74	-2.25
392.95	-1.08
393.159	0.89
393.369	2.16
393.578	2.28
393.787	2.42
393.997	3.18
394.206	1.09
394.415	0.4
394.625	0.24
394.834	-1.27
395.043	-1.39
395.252	0.81
395.462	1.88
395.671	1.28
395.88	2.78
396.089	2.71
396.298	1.64
396.508	1.11
396.717	1.84
396.926	1.21
397.135	1.33
397.344	1.61
397.553	1.64
397.762	1.84
397.971	1.2
398.181	1.31
398.39	1.23
398.599	1.2
398.808	0.64
399.017	1.98
399.226	2.12
399.435	1.95
399.644	2.22
399.853	2.48
400.062	1.64
400.27	1.09
400.479	1.2
400.688	1.1
400.897	0.96
401.106	1.24
401.315	1.44
401.524	1.62
401.733	1.27
401.941	1.21
402.15	0.91
402.359	0.85
402.568	0.83
402.777	0.93
402.985	0.88
403.194	0.97
403.403	1.04
403.612	0.92
403.82	0.83
404.029	0.95
404.238	0.96
404.446	1.09
404.655	1.19
404.864	1.31
405.072	1.32
405.281	1.33
405.489	1.17
405.698	1.21
405.906	1.21
406.115	1.23
406.324	1.26
406.532	1.39
406.741	1.38
406.949	1.4
407.158	1.46
407.366	1.36
407.574	1.44
407.783	1.39
407.991	1.38
408.2	1.43
408.408	1.54
408.617	1.4
408.825	1.41
409.033	1.45
409.242	1.44
409.45	1.38
409.658	1.46
409.867	1.54
410.075	1.47
410.283	1.35
410.491	1.3
410.7	1.08
410.908	1.17
411.116	1.31
411.324	1.27
411.533	1.2
411.741	1.35
411.949	1.23
412.157	1.09
412.365	1.15
412.573	1.28
412.781	1.22
412.99	1.08
413.198	1.09
413.406	1.1
413.614	1.14
413.822	1.27
414.03	1.26
414.238	1.3
414.446	1.4
414.654	1.28
414.862	1.11
415.07	1.13
415.278	1.16
415.486	0.87
415.694	1.01
415.902	1.05
416.109	1.02
416.317	1.04
416.525	1.17
416.733	1.18
416.941	1.28
417.149	1.28
417.357	1.32
417.564	1.27
417.772	1.29
417.98	1.33
418.188	1.37
418.395	1.09
418.603	0.98
418.811	0.85
419.019	0.83
419.226	0.81
419.434	0.89
419.642	0.87
419.849	0.87
420.057	0.8
420.265	0.72
420.472	0.78
420.68	1.01
420.887	1.03
421.095	1.07
421.302	1.14
421.51	1.04
421.717	0.95
421.925	1.08
422.132	0.95
422.34	0.78
422.547	0.86
422.755	0.87
422.962	0.67
423.17	0.62
423.377	0.87
423.585	0.88
423.792	0.91
423.999	0.98
424.207	0.93
424.414	0.79
424.621	0.84
424.829	0.83
425.036	0.84
425.243	0.97
425.451	1.02
425.658	1
425.865	1.14
426.072	1.16
426.28	1.26
426.487	1.27
426.694	1.12
426.901	1.01
427.108	0.9
427.315	0.8
427.523	0.78
427.73	0.91
427.937	0.74
428.144	0.78
428.351	0.75
428.558	0.88
428.765	0.89
428.972	1.04
429.179	0.99
429.386	1.16
429.593	1.08
429.8	1.05
430.007	1.11
430.214	1.26
430.421	1.24
430.628	1.21
430.835	1.21
431.042	1.22
431.249	1.2
431.456	1.1
431.662	1.19
431.869	1.27
432.076	1.24
432.283	1.25
432.49	1.24
432.697	1.17
432.903	1.06
433.11	1.09
433.317	1.06
433.524	1.04
433.73	0.99
433.937	1.14
434.144	0.95
434.35	0.8
434.557	0.83
434.764	0.86
434.97	0.65
435.177	0.75
435.384	0.99
435.59	1.16
435.797	1.27
436.003	1.31
436.21	1.28
436.416	1.18
436.623	1.05
436.829	0.93
437.036	0.96
437.242	0.95
437.449	1.01
437.655	1.03
437.862	1.08
438.068	1.16
438.275	1.32
438.481	1.32
438.687	1.24
438.894	1.33
439.1	1.19
439.307	1.25
439.513	1.25
439.719	1.4
439.926	1.34
440.132	1.45
440.338	1.33
440.544	1.26
440.751	1.12
440.957	1.14
441.163	0.99
441.369	0.99
441.575	1.02
441.782	1.02
441.988	1.04
442.194	1.1
442.4	1.1
442.606	1.21
442.812	1.27
443.018	1.26
443.224	1.38
443.431	1.41
443.637	1.24
443.843	1.29
444.049	1.32
444.255	1.33
444.461	1.26
444.667	1.3
444.873	1.27
445.079	1.22
445.284	1.15
445.49	1.13
445.696	1.12
445.902	1.1
446.108	1.09
446.314	1.07
446.52	1.2
446.726	1.24
446.931	1.25
447.137	1.26
447.343	1.34
447.549	1.25
447.755	1.25
447.96	1.27
448.166	1.25
448.372	1.22
448.578	1.24
448.783	1.25
448.989	1.24
449.195	1.24
449.4	1.28
449.606	1.26
449.812	1.28
450.017	1.35
450.223	1.28
450.428	1.2
450.634	1.22
450.84	1.22
451.045	1.23
451.251	1.34
451.456	1.43
451.662	1.48
451.867	1.51
452.073	1.53
452.278	1.49
452.483	1.43
452.689	1.43
452.894	1.48
453.1	1.39
453.305	1.36
453.51	1.52
453.716	1.49
453.921	1.45
454.127	1.43
454.332	1.5
454.537	1.39
454.742	1.4
454.948	1.36
455.153	1.36
455.358	1.37
455.563	1.37
455.769	1.39
455.974	1.41
456.179	1.38
456.384	1.27
456.589	1.19
456.795	1.14
457	1.13
457.205	1.19
457.41	1.29
457.615	1.29
457.82	1.3
458.025	1.28
458.23	1.23
458.435	1.23
458.64	1.28
458.845	1.22
459.05	1.25
459.255	1.24
459.46	1.18
459.665	1.13
459.87	1.18
460.075	1.19
460.28	1.29
460.485	1.41
460.69	1.48
460.895	1.51
461.099	1.42
461.304	1.29
461.509	1.24
461.714	1.24
461.919	1.17
462.123	1.22
462.328	1.18
462.533	1.05
462.738	1.06
462.942	1.05
463.147	1.02
463.352	1.13
463.556	1.23
463.761	1.12
463.966	1.14
464.17	1.18
464.375	1.18
464.58	1.18
464.784	1.27
464.989	1.31
465.193	1.36
465.398	1.34
465.602	1.48
465.807	1.5
466.011	1.47
466.216	1.4
466.42	1.47
466.625	1.42
466.829	1.45
467.034	1.52
467.238	1.64
467.443	1.62
467.647	1.58
467.851	1.51
468.056	1.55
468.26	1.47
468.464	1.41
468.669	1.44
468.873	1.5
469.077	1.47
469.282	1.54
469.486	1.56
469.69	1.59
469.894	1.59
470.099	1.55
470.303	1.43
470.507	1.53
470.711	1.42
470.915	1.49
471.119	1.55
471.324	1.66
471.528	1.6
471.732	1.64
471.936	1.6
472.14	1.58
472.344	1.64
472.548	1.72
472.752	1.75
472.956	1.72
473.16	1.75
473.364	1.73
473.568	1.65
473.772	1.58
473.976	1.66
474.18	1.65
474.384	1.54
474.588	1.61
474.792	1.69
474.995	1.66
475.199	1.56
475.403	1.65
475.607	1.65
475.811	1.61
476.015	1.58
476.218	1.63
476.422	1.67
476.626	1.65
476.83	1.72
477.033	1.76
477.237	1.8
477.441	1.76
477.644	1.73
477.848	1.68
478.052	1.63
478.255	1.61
478.459	1.58
478.663	1.68
478.866	1.72
479.07	1.76
479.273	1.84
479.477	1.87
479.681	1.91
479.884	1.87
480.088	1.85
480.291	1.77
480.495	1.73
480.698	1.64
480.901	1.66
481.105	1.75
481.308	1.76
481.512	1.8
481.715	1.89
481.919	1.97
482.122	1.91
482.325	1.98
482.529	1.99
482.732	1.92
482.935	1.88
483.138	1.89
483.342	1.92
483.545	2.04
483.748	2.09
483.952	2.12
484.155	2.17
484.358	2.1
484.561	2.03
484.764	2
484.967	1.97
485.171	2
485.374	2.02
485.577	2.03
485.78	2.04
485.983	1.99
486.186	1.9
486.389	1.88
486.592	1.84
486.795	1.89
486.998	1.92
487.201	1.98
487.404	2.15
487.607	2.21
487.81	2.17
488.013	2.21
488.216	2.15
488.419	2.05
488.622	2
488.825	2.01
489.028	2.02
489.231	2.06
489.433	2.05
489.636	2.08
489.839	2.12
490.042	2.13
490.245	2.05
490.447	2.06
490.65	2.09
490.853	2.05
491.056	2.04
491.258	2.11
491.461	2.08
491.664	2.04
491.866	1.98
492.069	2.04
492.272	1.99
492.474	2.03
492.677	2.08
492.879	2.14
493.082	2.14
493.285	2.22
493.487	2.22
493.69	2.26
493.892	2.25
494.095	2.22
494.297	2.26
494.5	2.25
494.702	2.24
494.905	2.3
495.107	2.33
495.309	2.32
495.512	2.34
495.714	2.38
495.917	2.4
496.119	2.42
496.321	2.43
496.524	2.4
496.726	2.33
496.928	2.33
497.13	2.26
497.333	2.21
497.535	2.32
497.737	2.4
497.939	2.34
498.142	2.42
498.344	2.49
498.546	2.4
498.748	2.42
498.95	2.48
499.152	2.47
499.355	2.49
499.557	2.58
499.759	2.66
499.961	2.67
500.163	2.71
500.365	2.73
500.567	2.7
500.769	2.65
500.971	2.74
501.173	2.64
501.375	2.71
501.577	2.71
501.779	2.7
501.981	2.67
502.183	2.72
502.385	2.71
502.587	2.76
502.788	2.83
502.99	2.83
503.192	2.92
503.394	2.89
503.596	2.84
503.798	2.75
503.999	2.75
504.201	2.69
504.403	2.7
504.605	2.77
504.806	2.89
505.008	2.88
505.21	2.91
505.411	2.89
505.613	2.88
505.815	2.84
506.016	2.88
506.218	2.93
506.42	2.91
506.621	2.93
506.823	2.95
507.024	2.89
507.226	2.87
507.427	2.97
507.629	2.95
507.83	2.96
508.032	2.99
508.233	3
508.435	2.98
508.636	3.11
508.838	3.07
509.039	3.12
509.24	3.14
509.442	3.13
509.643	3.02
509.845	3.03
510.046	3.09
510.247	3.07
510.448	3.09
510.65	3.09
510.851	3.17
511.052	3.13
511.254	3.21
511.455	3.21
511.656	3.23
511.857	3.23
512.058	3.23
512.26	3.2
512.461	3.24
512.662	3.27
512.863	3.14
513.064	3.15
513.265	3.13
513.466	3.12
513.667	3.14
513.868	3.2
514.069	3.18
514.27	3.25
514.471	3.23
514.672	3.23
514.873	3.25
515.074	3.33
515.275	3.28
515.476	3.37
515.677	3.41
515.878	3.46
516.079	3.41
516.28	3.44
516.481	3.43
516.682	3.39
516.882	3.37
517.083	3.38
517.284	3.39
517.485	3.33
517.686	3.36
517.886	3.31
518.087	3.27
518.288	3.26
518.488	3.28
518.689	3.27
518.89	3.33
519.091	3.44
519.291	3.47
519.492	3.51
519.692	3.54
519.893	3.56
520.094	3.55
520.294	3.56
520.495	3.51
520.695	3.49
520.896	3.46
521.096	3.48
521.297	3.46
521.497	3.49
521.698	3.5
521.898	3.53
522.099	3.5
522.299	3.52
522.499	3.54
522.7	3.57
522.9	3.58
523.101	3.59
523.301	3.62
523.501	3.63
523.702	3.65
523.902	3.66
524.102	3.76
524.302	3.76
524.503	3.77
524.703	3.75
524.903	3.73
525.103	3.69
525.304	3.68
525.504	3.7
525.704	3.71
525.904	3.71
526.104	3.68
526.304	3.71
526.504	3.75
526.705	3.73
526.905	3.76
527.105	3.8
527.305	3.82
527.505	3.8
527.705	3.8
527.905	3.87
528.105	3.9
528.305	3.88
528.505	3.9
528.705	4
528.905	3.99
529.105	4.02
529.304	4.05
529.504	4.03
529.704	4.02
529.904	3.97
530.104	3.95
530.304	3.98
530.503	3.97
530.703	3.92
530.903	3.97
531.103	4.03
531.303	4.01
531.502	4.06
531.702	4.12
531.902	4.18
532.101	4.14
532.301	4.2
532.501	4.3
532.7	4.32
532.9	4.3
533.1	4.33
533.299	4.33
533.499	4.27
533.698	4.28
533.898	4.33
534.097	4.35
534.297	4.3
534.496	4.28
534.696	4.34
534.895	4.31
535.095	4.35
535.294	4.45
535.494	4.46
535.693	4.45
535.892	4.47
536.092	4.46
536.291	4.41
536.491	4.43
536.69	4.49
536.889	4.43
537.088	4.43
537.288	4.48
537.487	4.5
537.686	4.43
537.886	4.53
538.085	4.55
538.284	4.56
538.483	4.59
538.682	4.68
538.882	4.69
539.081	4.73
539.28	4.73
539.479	4.74
539.678	4.75
539.877	4.75
540.076	4.79
540.275	4.83
540.474	4.85
540.673	4.86
540.872	4.89
541.071	4.91
541.27	4.9
541.469	4.93
541.668	4.96
541.867	4.95
542.066	4.95
542.265	5.05
542.464	5.09
542.663	5.17
542.862	5.22
543.06	5.28
543.259	5.3
543.458	5.28
543.657	5.28
543.856	5.34
544.054	5.35
544.253	5.36
544.452	5.46
544.651	5.48
544.849	5.41
545.048	5.42
545.247	5.41
545.445	5.45
545.644	5.53
545.843	5.58
546.041	5.65
546.24	5.71
546.438	5.73
546.637	5.73
546.836	5.85
547.034	5.87
547.233	5.95
547.431	5.87
547.63	5.89
547.828	5.87
548.027	5.87
548.225	5.86
548.423	6.01
548.622	6.08
548.82	6.13
549.019	6.17
549.217	6.25
549.415	6.22
549.614	6.34
549.812	6.37
550.01	6.46
550.209	6.53
550.407	6.61
550.605	6.48
550.803	6.56
551.002	6.61
551.2	6.56
551.398	6.65
551.596	6.77
551.794	6.85
551.993	6.89
552.191	7.02
552.389	7.09
552.587	7.11
552.785	7.08
552.983	7.11
553.181	7.14
553.379	7.13
553.577	7.22
553.775	7.33
553.973	7.38
554.171	7.4
554.369	7.47
554.567	7.54
554.765	7.55
554.963	7.62
555.161	7.65
555.359	7.72
555.557	7.75
555.755	7.87
555.952	7.96
556.15	8.13
556.348	8.14
556.546	8.24
556.744	8.18
556.941	8.18
557.139	8.22
557.337	8.32
557.535	8.29
557.732	8.42
557.93	8.55
558.128	8.58
558.325	8.6
558.523	8.71
558.721	8.76
558.918	8.81
559.116	8.88
559.313	8.97
559.511	9.09
559.708	9.17
559.906	9.17
560.104	9.26
560.301	9.34
560.498	9.41
560.696	9.48
560.893	9.59
561.091	9.58
561.288	9.62
561.486	9.6
561.683	9.68
561.88	9.78
562.078	9.9
562.275	9.98
562.473	10.09
562.67	10.15
562.867	10.2
563.064	10.25
563.262	10.28
563.459	10.38
563.656	10.46
563.853	10.43
564.051	10.55
564.248	10.68
564.445	10.72
564.642	10.77
564.839	10.98
565.036	11.07
565.234	11.14
565.431	11.24
565.628	11.22
565.825	11.25
566.022	11.28
566.219	11.3
566.416	11.31
566.613	11.44
566.81	11.5
567.007	11.48
567.204	11.51
567.401	11.55
567.598	11.6
567.795	11.64
567.991	11.76
568.188	11.86
568.385	11.88
568.582	11.96
568.779	11.98
568.976	11.98
569.172	12.05
569.369	12.14
569.566	12.2
569.763	12.14
569.96	12.19
570.156	12.22
570.353	12.2
570.55	12.12
570.746	12.24
570.943	12.27
571.14	12.23
571.336	12.31
571.533	12.41
571.729	12.37
571.926	12.46
572.123	12.57
572.319	12.62
572.516	12.61
572.712	12.77
572.909	12.69
573.105	12.65
573.302	12.62
573.498	12.67
573.695	12.6
573.891	12.64
574.087	12.6
574.284	12.55
574.48	12.62
574.677	12.69
574.873	12.75
575.069	12.83
575.266	12.91
575.462	12.9
575.658	12.95
575.854	13.01
576.051	13.04
576.247	12.94
576.443	12.89
576.639	12.84
576.835	12.75
577.032	12.77
577.228	12.88
577.424	12.86
577.62	12.86
577.816	12.86
578.012	12.77
578.208	12.78
578.404	12.88
578.6	12.9
578.796	12.9
578.993	12.97
579.189	12.93
579.384	12.94
579.58	12.87
579.776	12.89
579.972	12.85
580.168	12.83
580.364	12.84
580.56	12.81
580.756	12.83
580.952	12.78
581.148	12.83
581.343	12.76
581.539	12.86
581.735	12.83
581.931	12.85
582.127	12.84
582.322	12.83
582.518	12.83
582.714	12.87
582.909	12.85
583.105	12.78
583.301	12.77
583.496	12.71
583.692	12.63
583.888	12.64
584.083	12.67
584.279	12.62
584.474	12.56
584.67	12.58
584.866	12.61
585.061	12.56
585.257	12.65
585.452	12.72
585.648	12.65
585.843	12.62
586.039	12.65
586.234	12.6
586.429	12.53
586.625	12.59
586.82	12.58
587.015	12.56
587.211	12.54
587.406	12.57
587.601	12.6
587.797	12.65
587.992	12.63
588.187	12.57
588.383	12.63
588.578	12.56
588.773	12.54
588.968	12.64
589.163	12.79
589.359	12.84
589.554	12.86
589.749	12.92
589.944	12.9
590.139	12.82
590.334	12.78
590.529	12.79
590.724	12.79
590.919	12.82
591.114	12.81
591.309	12.79
591.504	12.82
591.699	12.73
591.894	12.69
592.089	12.76
592.284	12.83
592.479	12.81
592.674	12.91
592.869	12.98
593.064	13.03
593.259	13.03
593.454	13.12
593.648	13.17
593.843	13.19
594.038	13.21
594.233	13.23
594.428	13.28
594.622	13.37
594.817	13.5
595.012	13.44
595.206	13.5
595.401	13.58
595.596	13.58
595.79	13.49
595.985	13.53
596.18	13.64
596.374	13.68
596.569	13.72
596.763	13.78
596.958	13.93
597.153	13.97
597.347	13.94
597.542	14.04
597.736	14.12
597.931	14.16
598.125	14.22
598.319	14.34
598.514	14.25
598.708	14.27
598.903	14.31
599.097	14.27
599.291	14.3
599.486	14.46
599.68	14.49
599.874	14.55
600.069	14.62
600.263	14.66
600.457	14.65
600.651	14.73
600.846	14.73
601.04	14.74
601.234	14.69
601.428	14.7
601.622	14.72
601.817	14.74
602.011	14.75
602.205	14.83
602.399	14.83
602.593	14.83
602.787	14.77
602.981	14.82
603.175	14.81
603.369	14.84
603.563	14.81
603.757	14.88
603.951	14.85
604.145	14.77
604.339	14.78
604.533	14.84
604.727	14.85
604.921	14.91
605.115	14.94
605.309	14.83
605.502	14.79
605.696	14.73
605.89	14.65
606.084	14.63
606.278	14.66
606.471	14.62
606.665	14.55
606.859	14.48
607.053	14.47
607.246	14.48
607.44	14.35
607.634	14.37
607.827	14.3
608.021	14.22
608.214	14.03
608.408	14.07
608.602	13.98
608.795	13.99
608.989	13.95
609.182	13.97
609.376	13.92
609.569	13.87
609.763	13.83
609.956	13.81
610.15	13.78
610.343	13.78
610.537	13.76
610.73	13.64
610.923	13.55
611.117	13.54
611.31	13.4
611.504	13.37
611.697	13.39
611.89	13.32
612.083	13.17
612.277	13.19
612.47	13.12
612.663	13.1
612.856	13.1
613.05	13.08
613.243	13
613.436	12.95
613.629	12.84
613.822	12.73
614.015	12.67
614.209	12.62
614.402	12.52
614.595	12.56
614.788	12.61
614.981	12.55
615.174	12.44
615.367	12.39
615.56	12.2
615.753	12.16
615.946	12.02
616.139	11.98
616.332	11.92
616.525	11.89
616.718	11.81
616.911	11.91
617.103	11.98
617.296	12.01
617.489	11.94
617.682	11.91
617.875	11.84
618.067	11.72
618.26	11.64
618.453	11.7
618.646	11.71
618.838	11.65
619.031	11.63
619.224	11.59
619.417	11.55
619.609	11.49
619.802	11.46
619.994	11.5
620.187	11.46
620.38	11.38
620.572	11.29
620.765	11.32
620.957	11.27
621.15	11.24
621.342	11.24
621.535	11.29
621.727	11.22
621.92	11.22
622.112	11.21
622.305	11.2
622.497	11.13
622.69	11.11
622.882	11.1
623.074	11.2
623.267	11.21
623.459	11.19
623.651	11.17
623.844	11.2
624.036	11.12
624.228	11.16
624.42	11.07
624.613	11.06
624.805	10.98
624.997	10.93
625.189	10.91
625.381	10.94
625.574	10.9
625.766	10.8
625.958	10.8
626.15	10.72
626.342	10.77
626.534	10.78
626.726	10.83
626.918	10.79
627.11	10.77
627.302	10.7
627.494	10.65
627.686	10.61
627.878	10.61
628.07	10.69
628.262	10.7
628.454	10.68
628.646	10.66
628.838	10.66
629.029	10.5
629.221	10.43
629.413	10.39
629.605	10.37
629.797	10.31
629.989	10.37
630.18	10.39
630.372	10.38
630.564	10.36
630.755	10.37
630.947	10.32
631.139	10.27
631.33	10.21
631.522	10.11
631.714	10.02
631.905	9.99
632.097	9.98
632.289	10.03
632.48	10.07
632.672	10.09
632.863	9.94
633.055	9.93
633.246	9.88
633.438	9.84
633.629	9.88
633.821	9.92
634.012	9.88
634.203	9.9
634.395	9.88
634.586	9.81
634.777	9.88
634.969	9.85
635.16	9.79
635.351	9.77
635.543	9.69
635.734	9.62
635.925	9.66
636.117	9.68
636.308	9.72
636.499	9.73
636.69	9.71
636.881	9.6
637.073	9.59
637.264	9.54
637.455	9.53
637.646	9.54
637.837	9.58
638.028	9.47
638.219	9.49
638.41	9.56
638.601	9.56
638.792	9.58
638.983	9.57
639.174	9.4
639.365	9.33
639.556	9.19
639.747	9.05
639.938	9.1
640.129	9.2
640.32	9.14
640.511	9.17
640.701	9.25
640.892	9.13
641.083	8.97
641.274	8.92
641.465	8.95
641.655	8.89
641.846	8.94
642.037	9.02
642.228	8.97
642.418	8.87
642.609	8.83
642.8	8.81
642.99	8.77
643.181	8.85
643.372	8.83
643.562	8.82
643.753	8.75
643.943	8.67
644.134	8.57
644.324	8.61
644.515	8.61
644.705	8.63
644.896	8.71
645.086	8.73
645.277	8.69
645.467	8.57
645.658	8.5
645.848	8.49
646.038	8.47
646.229	8.45
646.419	8.45
646.61	8.54
646.8	8.45
646.99	8.44
647.18	8.39
647.371	8.37
647.561	8.21
647.751	8.24
647.941	8.2
648.132	8.16
648.322	8.1
648.512	8.16
648.702	8.16
648.892	8.16
649.082	8.17
649.272	8.16
649.462	8.2
649.653	8.12
649.843	8.07
650.033	8.11
650.223	8.15
650.413	8.13
650.603	8.19
650.793	8.14
650.983	8.12
651.172	8.1
651.362	8.01
651.552	7.96
651.742	8
651.932	8
652.122	8.02
652.312	8.01
652.502	7.9
652.691	7.88
652.881	7.77
653.071	7.67
653.261	7.58
653.45	7.6
653.64	7.59
653.83	7.55
654.019	7.45
654.209	7.52
654.399	7.46
654.588	7.36
654.778	7.33
654.968	7.36
655.157	7.25
655.347	7.16
655.536	7.09
655.726	6.94
655.915	6.85
656.105	6.81
656.294	6.73
656.484	6.63
656.673	6.63
656.863	6.64
657.052	6.56
657.241	6.49
657.431	6.45
657.62	6.38
657.809	6.16
657.999	6.05
658.188	5.99
658.377	5.86
658.567	5.75
658.756	5.76
658.945	5.63
659.134	5.53
659.324	5.44
659.513	5.33
659.702	5.18
659.891	5.19
660.08	5.06
660.269	4.96
660.458	4.85
660.648	4.83
660.837	4.75
661.026	4.75
661.215	4.72
661.404	4.7
661.593	4.64
661.782	4.56
661.971	4.41
662.16	4.38
662.349	4.26
662.538	4.14
662.726	4.09
662.915	4.06
663.104	3.97
663.293	4
663.482	3.99
663.671	3.86
663.86	3.84
664.048	3.87
664.237	3.83
664.426	3.81
664.615	3.85
664.803	3.82
664.992	3.7
665.181	3.69
665.369	3.57
665.558	3.54
665.747	3.53
665.935	3.62
666.124	3.59
666.312	3.68
666.501	3.66
666.69	3.76
666.878	3.61
667.067	3.52
667.255	3.5
667.444	3.56
667.632	3.42
667.82	3.46
668.009	3.51
668.197	3.49
668.386	3.44
668.574	3.45
668.762	3.48
668.951	3.47
669.139	3.45
669.327	3.45
669.516	3.44
669.704	3.47
669.892	3.43
670.08	3.48
670.269	3.44
670.457	3.57
670.645	3.52
670.833	3.59
671.021	3.59
671.21	3.64
671.398	3.65
671.586	3.75
671.774	3.83
671.962	3.86
672.15	3.9
672.338	3.91
672.526	3.91
672.714	3.91
672.902	3.91
673.09	4.03
673.278	4.2
673.466	4.36
673.654	4.39
673.842	4.47
674.03	4.47
674.218	4.38
674.405	4.34
674.593	4.48
674.781	4.59
674.969	4.68
675.157	4.71
675.344	4.74
675.532	4.76
675.72	4.79
675.908	4.76
676.095	4.82
676.283	4.93
676.471	4.9
676.658	4.93
676.846	5.02
677.033	5.02
677.221	5
677.409	5.13
677.596	5.18
677.784	5.28
677.971	5.27
678.159	5.36
678.346	5.46
678.534	5.49
678.721	5.51
678.909	5.75
679.096	5.8
679.283	5.82
679.471	5.84
679.658	5.92
679.846	5.84
680.033	6
680.22	6.08
680.408	6.11
680.595	6.19
680.782	6.26
680.969	6.36
681.157	6.51
681.344	6.68
681.531	6.81
681.718	7.01
681.905	7.02
682.093	6.98
682.28	7.15
682.467	7.22
682.654	7.24
682.841	7.39
683.028	7.48
683.215	7.59
683.402	7.47
683.589	7.51
683.776	7.49
683.963	7.53
684.15	7.67
684.337	7.99
684.524	8.16
684.711	8.4
684.898	8.52
685.085	8.52
685.271	8.7
685.458	8.91
685.645	8.97
685.832	9.35
686.019	9.41
686.205	9.54
686.392	9.65
686.579	9.81
686.766	9.91
686.952	10.31
687.139	10.57
687.326	10.95
687.512	11.14
687.699	11.4
687.886	11.62
688.072	11.84
688.259	12.08
688.445	12.53
688.632	12.79
688.818	13.23
689.005	13.48
689.191	13.79
689.378	14.1
689.564	14.67
689.751	14.91
689.937	15.51
690.124	15.84
690.31	16.1
690.496	16.41
690.683	16.84
690.869	17.19
691.055	17.74
691.242	18.26
691.428	18.73
691.614	19.25
691.8	19.66
691.987	20.09
692.173	20.66
692.359	21.28
692.545	21.96
692.731	22.55
692.918	23.1
693.104	23.72
693.29	24.28
693.476	24.8
693.662	25.44
693.848	26.01
694.034	26.5
694.22	27.04
694.406	27.46
694.592	27.91
694.778	28.45
694.964	28.96
695.15	29.4
695.336	30.03
695.522	30.8
695.708	31.49
695.894	32.16
696.08	32.84
696.265	33.49
696.451	33.86
696.637	34.59
696.823	35.09
697.009	35.77
697.194	36.4
697.38	37.29
697.566	37.71
697.751	38.69
697.937	39.38
698.123	40.15
698.308	40.51
698.494	41.39
698.68	41.99
698.865	42.36
699.051	42.96
699.236	43.82
699.422	44.19
699.607	44.76
699.793	45.62
699.978	45.92
700.164	46.37
700.349	47.2
700.535	47.66
700.72	47.92
700.906	48.45
701.091	49.05
701.276	49.17
701.462	49.82
701.647	50.35
701.832	51.06
702.018	51.66
702.203	52.53
702.388	52.79
702.573	53.33
702.759	53.59
702.944	53.81
703.129	53.76
703.314	54.29
703.499	54.99
703.684	55.74
703.87	56.31
704.055	57.12
704.24	57.54
704.425	57.87
704.61	58.2
704.795	58.7
704.98	58.86
705.165	59.51
705.35	59.72
705.535	59.96
705.72	60.18
705.905	60.7
706.09	60.98
706.275	61.51
706.459	61.94
706.644	62.43
706.829	62.66
707.014	63.02
707.199	63.42
707.384	63.84
707.568	64.05
707.753	64.89
707.938	65.32
708.123	65.49
708.307	65.96
708.492	66.62
708.677	66.86
708.861	66.68
709.046	66.89
709.231	67.08
709.415	67.01
709.6	66.82
709.784	67.45
709.969	68.05
710.153	68.25
710.338	69.01
710.522	69.56
710.707	69.75
710.891	69.79
711.076	69.97
711.26	69.89
711.445	70.21
711.629	70.24
711.813	70.65
711.998	71.34
712.182	71.26
712.366	71.77
712.551	72.35
712.735	72.49
712.919	72.64
713.103	73.23
713.288	73
713.472	73.37
713.656	73.7
713.84	73.55
714.024	73.8
714.208	73.7
714.393	73.91
714.577	73.95
714.761	74.19
714.945	74.38
715.129	75.14
715.313	74.97
715.497	75.05
715.681	74.92
715.865	75.12
716.049	75.1
716.233	75.2
716.417	75.34
716.601	75.94
716.785	76.24
716.968	76.57
717.152	77.02
717.336	77.79
717.52	78.31
717.704	78.29
717.888	78.6
718.071	78.68
718.255	78.64
718.439	78.77
718.622	79.08
718.806	79.06
718.99	79.13
719.174	79.33
719.357	79.56
719.541	79.55
719.724	79.84
719.908	80.24
720.092	80.32
720.275	80.1
720.459	80.43
720.642	80.6
720.826	80.37
721.009	80.56
721.193	79.99
721.376	80.15
721.559	80.1
721.743	80.71
721.926	80.83
722.11	81.78
722.293	82.12
722.476	81.84
722.66	82.66
722.843	82.75
723.026	83.1
723.21	82.95
723.393	83.88
723.576	83.3
723.759	83.53
723.942	83.55
724.126	83.5
724.309	83.28
724.492	83.16
724.675	83.4
724.858	83.71
725.041	84.13
725.224	84.24
725.407	84.4
725.59	84.07
725.774	83.84
725.957	83.99
726.14	84.15
726.322	84.56
726.505	84.86
726.688	85
726.871	84.58
727.054	85.22
727.237	84.5
727.42	84.13
727.603	84.2
727.786	84.71
727.968	84.18
728.151	85.04
728.334	86.07
728.517	86.22
728.699	86.68
728.882	86.49
729.065	86.39
729.248	86.27
729.43	86.88
729.613	86.74
729.796	87.7
729.978	87.98
730.161	87.69
730.343	87.25
730.526	86.37
730.708	85.98
730.891	86.34
731.073	85.93
731.256	86.29
731.438	87.84
731.621	88.53
731.803	88.12
731.986	88.93
732.168	89.37
732.35	89.03
732.533	88.5
732.715	89.09
732.898	89.16
733.08	89.16
733.262	88.86
733.444	89.5
733.627	89.14
733.809	89.66
733.991	89.59
734.173	89.74
734.355	89.69
734.538	89.9
734.72	89.82
734.902	89.54
735.084	90.58
735.266	90.78
735.448	91.03
735.63	91.11
735.812	91.64
735.994	90.95
736.176	91.02
736.358	91.43
736.54	92.13
736.722	91.7
736.904	91.81
737.086	91
737.268	91.49
737.45	91.81
737.632	91.9
737.814	92.49
737.995	92.96
738.177	92.2
738.359	91.07
738.541	91.53
738.723	91.4
738.904	91.41
739.086	91.63
739.268	91.75
739.449	91.24
739.631	91.24
739.813	91.72
739.994	92.53
740.176	92.9
740.358	93.56
740.539	92.56
740.721	92.41
740.902	91.28
741.084	91.66
741.265	91.64
741.447	93.8
741.628	94.33
741.81	95.41
741.991	95.17
742.172	94.56
742.354	93.43
742.535	92.47
742.717	91.46
742.898	91.81
743.079	93.41
743.261	93.42
743.442	93.06
743.623	93.57
743.804	92.93
743.986	91.4
744.167	90.78
744.348	90.57
744.529	90.44
744.71	90.28
744.891	89.91
745.073	90.04
745.254	91.59
745.435	91.39
745.616	91.01
745.797	91.55
745.978	92.06
746.159	90.89
746.34	90.87
746.521	91.3
746.702	91.8
746.883	91.29
747.064	92.7
747.245	93.25
747.426	94.42
747.606	93.56
747.787	94.01
747.968	93.52
748.149	93.01
748.33	92.13
748.51	92.56
748.691	92.68
748.872	93.14
749.053	92.57
749.233	92.35
749.414	93.52
749.595	93.85
749.775	93.16
749.956	93.95
750.137	93.19
750.317	91.52
750.498	90.68
750.678	89.73
750.859	90.21
751.04	91.15
751.22	91.15
751.4	91.77
751.581	93.11
751.761	92.49
751.942	93.65
752.122	93.41
752.303	93.28
752.483	92.23
752.663	92.76
752.844	92.2
753.024	93.02
753.204	93.52
753.385	94.35
753.565	93.57
753.745	92.89
753.925	92.16
754.106	91.75
754.286	91.67
754.466	91.93
754.646	91.84
754.826	93.09
755.006	91.31
755.187	91.66
755.367	91.7
755.547	91.94
755.727	91.08
755.907	91.5
756.087	91.52
756.267	90.33
756.447	89.7
756.627	89.63
756.807	91.67
756.987	90.68
757.167	92.19
757.346	91.95
757.526	92.67
757.706	91.27
757.886	92.26
758.066	92.18
758.246	92.56
758.425	91.69
758.605	91.54
758.785	90.63
758.965	90.64
759.144	89.86
759.324	91.18
759.504	90.98
759.683	89.88
759.863	89.65
760.043	90.41
760.222	89.68
760.402	89.58
760.581	90.74
760.761	90.74
760.94	91.5
761.12	91.21
761.299	93.3
761.479	93.58
761.658	93.09
761.838	92.4
762.017	91.49
762.197	89.04
762.376	89.35
762.555	88.5
762.735	87.86
762.914	89.1
763.093	89.71
763.273	89.7
763.452	90.37
763.631	90.15
763.81	90.22
763.99	89.52
764.169	89.2
764.348	88.86
764.527	89.31
764.706	88.59
764.885	89.77
765.064	90.02
765.243	90.56
765.423	91.47
765.602	90.94
765.781	89.42
765.96	89.04
766.139	90.02
766.318	90.63
766.497	91.41
766.676	91.17
766.854	91.03
767.033	90.31
767.212	89.81
767.391	89.98
767.57	92.28
767.749	90.96
767.928	91.82
768.106	90.2
768.285	88.7
768.464	88.07
768.643	88.61
768.821	86.48
769	86.95
769.179	88.7
769.357	88.48
769.536	88.61
769.715	88.65
769.893	87.72
770.072	84.86
770.25	83.24
770.429	83.32
770.607	83.59
770.786	85.01
770.964	86.96
771.143	87.84
771.321	86.39
771.5	86.84
771.678	85.91
771.857	83.24
772.035	83.35
772.213	86.05
772.392	83.96
772.57	83.56
772.748	86.42
772.927	85.93
773.105	83.91
773.283	84.58
773.461	86.39
773.64	86.96
773.818	87.57
773.996	90.47
774.174	92.22
774.352	90.09
774.531	87.54
774.709	85.74
774.887	81.97
775.065	81.23
775.243	82.08
775.421	82.46
775.599	86.12
775.777	86.93
775.955	86.46
776.133	85.66
776.311	84.95
776.489	83.79
776.667	83.87
776.844	83.41
777.022	84.63
777.2	86.95
777.378	84.92
777.556	86.79
777.734	86.54
777.911	88.69
778.089	88.53
778.267	90.57
778.445	91.22
778.622	91.23
778.8	85.79
778.978	84.84
779.155	84.78
779.333	83.61
779.511	84.06
779.688	87.28
779.866	88.33
780.043	89.09
780.221	88.42
780.398	87.41
780.576	85.99
780.753	86.01
780.931	83.7
781.108	84.13
781.286	86.54
781.463	86.05
781.64	84.18
781.818	86.98
781.995	87.03
782.172	84.56
782.35	84.62
782.527	85.35
782.704	83.64
782.882	81.28
783.059	81.29
783.236	81.94
783.413	81.09
783.59	81.53
783.768	82.91
783.945	83.84
784.122	84.9
784.299	86.07
784.476	83.83
784.653	83.74
784.83	83.96
785.007	83.26
785.184	80.43
785.361	80.92
785.538	78.71
785.715	83.96
785.892	82.34
786.069	84.21
786.246	86.58
786.423	89.17
786.6	84.74
786.776	87.12
786.953	85.62
787.13	84.88
787.307	84.21
787.484	81.45
787.66	79.7
787.837	78.97
788.014	78.02
788.191	78.16
788.367	77.29
788.544	75.67
788.721	76.94
788.897	76.86
789.074	78.65
789.25	80.35
789.427	81.2
789.603	81.59
789.78	79.05
789.956	76.87
790.133	74.95
790.309	74.53
790.486	74.07
790.662	77.11
790.839	78.8
791.015	82.45
791.192	80.99
791.368	82.96
791.544	82.41
791.721	79.48
791.897	77.12
792.073	78.97
792.249	78.31
792.426	78.06
792.602	80.8
792.778	80.63
792.954	82.16
793.13	80.49
793.307	80.23
793.483	77.65
793.659	76.25
793.835	78.25
794.011	83.57
794.187	84.52
794.363	86.73
794.539	89.82
794.715	86.6
794.891	82.51
795.067	83.18
795.243	81.43
795.419	78.85
795.595	83.02
795.771	81.3
795.947	81.71
796.122	76.79
796.298	77.93
796.474	78.73
796.65	79.06
796.826	73.57
797.001	76.71
797.177	72.9
797.353	69.05
797.529	68.6
797.704	71.74
797.88	72.71
798.056	75.64
798.231	73.9
798.407	77.5
798.582	78.69
798.758	80.41
798.934	82.1
799.109	78.75
799.285	75.7
799.46	72.08
799.636	71.84
799.811	71.85
799.986	75.42
800.162	66.76
800.337	67.27
800.513	66.02
800.688	61.53
800.863	64.4
801.039	70.36
801.214	68.74
801.389	64.62
801.565	70.99
801.74	68.06
801.915	70.03
802.09	71.15
802.265	76.06
802.441	73.37
802.616	77.04
802.791	78.76
802.966	82.76
803.141	81.48
803.316	84.2
803.491	80.58
803.666	80.47
803.841	79.6
804.016	79.49
804.191	76.37
804.366	73.17
804.541	73.1
804.716	66.01
804.891	62.73
805.066	65.44
805.241	68.18
805.416	75.04
805.591	75.76
805.765	83.09
805.94	75.25
806.115	79.69
806.29	71.48
806.464	75.51
806.639	72.06
806.814	75.48
806.989	73.46
807.163	76.89
807.338	76.69
807.512	79.72
807.687	83.15
807.862	82.79
808.036	81.29
808.211	83.13
808.385	80.3
808.56	76.3
808.734	67.49
808.909	68.27
809.083	71.68
809.258	75.77
809.432	79.23
809.606	87.77
809.781	89.07
809.955	85.67
810.13	78.99
810.304	73.57
810.478	66.99
810.652	66.67
810.827	64.64
811.001	64.54
811.175	64.87
811.349	79.99
811.524	79.98
811.698	78.82
811.872	85
812.046	88.81
812.22	80.45
812.394	77.33
812.568	84.12
812.742	73.63
812.916	71
813.09	65.8
813.264	66.35
813.438	58.94
813.612	56.23
813.786	54.54
813.96	57.92
814.134	53.31
814.308	58.32
814.482	64.45
814.656	59.86
814.83	60.28
815.003	73.09
815.177	65.3
815.351	67.47
815.525	76.51
815.698	73.82
815.872	59.69
816.046	67.33
816.219	68.98
816.393	76.22
816.567	77.91
816.74	87.6
816.914	85.22
817.088	89.8
817.261	82.98
817.435	88.27
817.608	81.04
817.782	76.54
817.955	69.3
818.129	64.23
818.302	57.09
818.475	67.37
818.649	65.4
818.822	68.53
818.996	85.97
819.169	91.78
819.342	92.43
819.516	106.41
819.689	94.06
819.862	85.21
820.035	85.65
820.209	71.06
820.382	61.56
820.555	64.38
820.728	57.03
820.901	51.35
821.075	63.09
821.248	86.23
821.421	77.11
821.594	77.21
821.767	86.06
821.94	75.25
822.113	56.13
822.286	60.47
822.459	63.19
822.632	61.96
822.805	66.71
822.978	70.4
823.151	67.11
823.324	50.41
823.496	35.33
823.669	44.09
823.842	44.46
824.015	52.97
824.188	59.84
824.361	56.71
824.533	39.26
824.706	43.55
824.879	50.17
825.051	51.99
825.224	60.42
825.397	66.48
825.569	63.96
825.742	68.5
825.915	66.49
826.087	68.26
826.26	63.37
826.432	65.87
826.605	52.98
826.777	64.17
826.95	56.83
827.122	44.42
827.295	32.94
827.467	43.14
827.64	37.8
827.812	43.01
827.984	80.32
828.157	75.56
828.329	66.55
828.501	63.02
828.674	63.65
828.846	45.43
829.018	53.71
829.19	59.11
829.363	55.92
829.535	64.18
829.707	78.35
829.879	66.37
830.051	51.25
830.223	55.73
830.395	37.09
830.568	37.54
830.74	46.71
830.912	53.35
831.084	41.51
831.256	41.15
831.428	31.74
831.6	15.02
831.772	17.65
831.943	38.46
832.115	59.07
832.287	58.19
832.459	61.66
832.631	55.56
832.803	42.78
832.975	35.22
833.146	32.24
833.318	38.92
833.49	40.12
833.662	61.34
833.833	71.27
834.005	78.32
834.177	75.78
834.348	80.52
834.52	60.91
834.692	55.09
834.863	57.8
835.035	58.37
835.206	54.84
835.378	65.68
835.549	61.02
835.721	48.93
835.892	41.66
836.064	39.19
836.235	28.51
836.407	41.44
836.578	49.28
836.749	34.08
836.921	45.66
837.092	36.78
837.264	29.59
837.435	19.27
837.606	34.27
837.777	29.63
837.949	43
838.12	44.4
838.291	58.97
838.462	68.66
838.633	64.55
838.805	49.73
838.976	52.34
839.147	39.93
839.318	32.33
839.489	27.23
839.66	46.72
839.831	41.14
840.002	35.7
840.173	40.72
840.344	42.47
840.515	30.26
840.686	28.51
840.857	38.68
841.028	35.61
841.199	49.98
841.369	64.79
841.54	67.59
841.711	85.49
841.882	68.98
842.053	38.17
842.223	17.4
842.394	22.03
842.565	6.63
842.736	20.96
842.906	35.34
843.077	58.63
843.248	85.75
843.418	76.01
843.589	73.26
843.759	74.88
843.93	73.81
844.101	50.41
844.271	95.21
844.442	91.24
844.612	85.21
844.783	76.6
844.953	84.5
845.123	66.97
845.294	71.19
845.464	85.43
845.635	100.1
845.805	86.43
845.975	78.35
846.146	44.57
846.316	13.23
846.486	8.93
846.656	30.2
846.827	32.79
846.997	39.77
847.167	45.1
847.337	53.72
847.507	47.87
847.677	38.28
847.848	62.93
848.018	71.3
848.188	58.74
848.358	55.98
848.528	60.97
848.698	29.17
848.868	30.59
849.038	27.03
849.208	46.18
849.378	58.65
849.548	47.75
849.718	27.55
849.887	19.64
850.057	-16.88
850.227	-36.99
850.397	15.58
850.567	-0.18
850.737	21.01
850.906	-4.75
851.076	7.91
851.246	15.92
851.415	36.48
851.585	37.29
851.755	59.2
851.924	44.7
852.094	11.78
852.264	0.11
852.433	-22.83
852.603	-63.07
852.772	-21
852.942	33.5
853.111	34.93
853.281	43.63
853.45	37.06
853.62	1.06
853.789	-35.66
853.959	-17.34
854.128	-10.73
854.297	12.31
854.467	31.19
854.636	49.38
854.805	54.46
854.975	33.74
855.144	27.89
855.313	63.38
855.482	47.27
855.652	50.28
855.821	45.95
855.99	54.38
856.159	14.17
856.328	18.13
856.497	15.6
856.667	24.48
856.836	36.02
857.005	30.15
857.174	33.42
857.343	6.63
857.512	2.86
857.681	-30.67
857.85	-19.32
858.019	-66.33
858.188	-46.29
858.356	0.12
858.525	5.65
858.694	39.41
858.863	24.62
859.032	20.91
859.201	-18.44
859.369	-14.55
859.538	-35.73
859.707	-51.34
859.876	-3.49
860.044	17.15
860.213	23.59
860.382	19.28
860.55	20.04
860.719	13.21
860.888	10.37
861.056	10.99
861.225	36.74
861.393	49.47
861.562	55.15
861.73	36.47
861.899	54.29
862.067	39.23
862.236	27.06
862.404	20.41
862.572	11.87
862.741	-20.14
862.909	-31.23
863.078	-13.63
863.246	7.76
863.414	32.88
863.582	43.55
863.751	55.76
863.919	52.99
864.087	27.12
864.255	33.36
864.424	-6.48
864.592	20
864.76	38.53
864.928	52.15
865.096	39.93
865.264	59.12
865.432	60.54
865.6	65.08
865.768	54.59
865.936	36.37
866.104	27.13
866.272	-3.9
866.44	-13.69
866.608	7.01
866.776	38.33
866.944	52.71
867.112	40.66
867.28	24.27
867.448	22.62
867.615	6.91
867.783	-29.63
867.951	-6.2
868.119	19.7
868.286	4.68
868.454	36.65
868.622	61.45
868.789	39.59
868.957	33.64
869.125	49.75
869.292	24.97
869.46	36.64
869.627	39.19
869.795	-2.2
869.963	-14.08
870.13	-14.51
870.298	-45.9
870.465	-23.5
870.632	-35.89
870.8	-29.92
870.967	-20.36
871.135	-31.73
871.302	-28.65
871.469	6.45
871.637	14.66
871.804	16.22
871.971	8.55
872.139	-4.19
872.306	-40.53
872.473	-89.71
872.64	-166.75
872.807	-128.29
872.975	-218.51
873.142	-12.92
873.309	15.75
873.476	54.83
873.643	87.49
873.81	73.96
873.977	39.99
874.144	60.7
874.311	31.41
874.478	-28.17
874.645	-95.69
874.812	11.72
874.979	-13.29
875.146	-56.16
875.313	-29.53
875.48	63
875.647	29.67
875.813	-1.12
875.98	7.22
876.147	-6.22
876.314	-42.06
876.481	-20.63
876.647	-23.87
876.814	-34.66
876.981	-6.27
877.147	-16.38
877.314	-21.1
877.481	21.11
877.647	80.99
877.814	71.85
877.98	70.18
878.147	83.43
878.314	58.32
878.48	31.03
878.647	49.08
878.813	81.06
878.979	83.22
879.146	141.51
879.312	144.43
879.479	115.33
879.645	49.96
879.811	38.41
879.978	54.84
880.144	41.86
880.31	46.49
880.477	93.89
880.643	79.48
880.809	33.55
880.975	50.54
881.142	19.5
881.308	259.35
881.474	376.66
881.64	5.88
881.806	-21.62
881.972	1.41
882.138	30.77
882.304	71.14
882.47	59.54
882.636	44.21
882.802	43
882.968	59.24
883.134	35.72
883.3	46.58
883.466	76.81
883.632	112.23
883.798	76.89
883.964	26.73
884.129	-212.66
884.295	42.07
884.461	-29.88
884.627	28.62
884.793	9.96
884.958	43.68
885.124	11.25
885.29	1.92
885.455	-10.19
885.621	11.42
885.787	-27.83
885.952	-33.58
886.118	-8.08
886.283	-15.35
886.449	5.58
886.614	9.93
886.78	16.23
886.945	26.13
887.111	1.7
887.276	-38.33
887.442	-58.57
887.607	10.34
887.773	3.81
887.938	11.52
888.103	26.04
888.269	42.36
888.434	41.29
888.599	32.97
888.764	42.79
888.93	41.59
889.095	37.13
889.26	8.44
889.425	18.43
889.59	0.27
889.756	18.67
889.921	-39.28
890.086	-63.62
890.251	-57.37
890.416	-48.18
890.581	-99.11
890.746	10.42
890.911	18.14
891.076	8.71
891.241	14.83
891.406	17.92
891.571	-28.47
891.736	-111.4
891.901	-28.17
892.065	-30.54
892.23	-59.22
892.395	-64.49
892.56	-36.69
892.725	-55.27
892.889	25.21
893.054	89.87
893.219	67.43
893.384	87.09
893.548	59.72
893.713	47.19
893.878	13.75
