Data from Ofra_PS_T2_1A_4CX12_Reflection_3.txt Node
Date: Wed Jul 21 18:05:05 EDT 2021
User: Adam
Spectrometer: FLMT01687
Trigger mode: 0
Integration Time (sec): 1.100000E0
Scans to average: 2
Electric dark correction enabled: true
Nonlinearity correction enabled: false
Boxcar width: 2
XAxis mode: Wavelengths
Number of Pixels in Spectrum: 3648
>>>>>Begin Spectral Data<<<<<
179.494	590.2
179.716	657.65
179.937	663.26
180.158	677.69
180.38	1111.09
180.601	421.96
180.823	170.78
181.044	-2.01
181.265	89.52
181.486	38.27
181.708	107.1
181.929	481.12
182.15	-150.35
182.372	102.79
182.593	37.02
182.814	16.22
183.035	73.78
183.257	38.93
183.478	-39.95
183.699	-30.93
183.92	-28.56
184.141	-53.78
184.363	-100.88
184.584	-22.09
184.805	-4.18
185.026	25.34
185.247	28.56
185.468	18.84
185.689	11.06
185.91	29.9
186.132	23.28
186.353	23.75
186.574	73.69
186.795	71.49
187.016	15.74
187.237	7.97
187.458	-17.74
187.679	-15.83
187.9	-16.5
188.121	-4.89
188.342	-21.72
188.563	41.43
188.784	48.02
189.005	12.81
189.226	20.12
189.447	9.78
189.667	-178.52
189.888	-414.66
190.109	-1213.96
190.33	-589.52
190.551	-1137.83
190.772	-291.71
190.993	-239.56
191.214	-215.88
191.434	-115.05
191.655	-30.03
191.876	-100.49
192.097	-157.12
192.318	-176.79
192.538	-276.76
192.759	-151
192.98	-70.74
193.201	-9.81
193.421	10.77
193.642	24.83
193.863	25.64
194.083	24.27
194.304	15.04
194.525	8.83
194.745	-6.37
194.966	-31.14
195.187	-25.66
195.407	-62.24
195.628	-95.53
195.848	-113.42
196.069	-123.83
196.29	-79.46
196.51	-64.93
196.731	-50.68
196.951	-53.2
197.172	-32.12
197.392	-79.51
197.613	-96.57
197.833	-126.01
198.054	-86.01
198.274	-55.69
198.495	-81.67
198.715	-30.82
198.936	-46.48
199.156	-54.87
199.377	-138.27
199.597	-118.64
199.817	-140.36
200.038	-61.19
200.258	-104.74
200.479	-60.15
200.699	-48.54
200.919	7.51
201.14	-32.42
201.36	-78.22
201.58	-12.67
201.801	12.75
202.021	-25.17
202.241	-43.03
202.461	-24.98
202.682	-123.4
202.902	-184.94
203.122	-99.35
203.342	-59.69
203.563	-21.48
203.783	-4.43
204.003	-27.39
204.223	-45.92
204.443	-1.99
204.663	-43.23
204.884	-11.53
205.104	14.22
205.324	39.61
205.544	47.33
205.764	52.68
205.984	40.2
206.204	54.41
206.424	27.36
206.644	-20.76
206.864	-25.77
207.084	-43.88
207.304	-68.91
207.525	-161.8
207.745	-80.25
207.964	-0.22
208.184	-72.53
208.404	-104.64
208.624	-89.57
208.844	-92.32
209.064	-346.03
209.284	-283.35
209.504	-138.23
209.724	-38.87
209.944	-0.14
210.164	19.93
210.384	24.09
210.604	29.21
210.823	-16.35
211.043	-52.09
211.263	-47.56
211.483	-63.63
211.703	-109.47
211.922	-88.43
212.142	-25.5
212.362	-7.41
212.582	-11.55
212.801	-16.02
213.021	-24.71
213.241	-15.9
213.461	-58.15
213.68	-60.62
213.9	-44.74
214.12	-46.2
214.339	-130.06
214.559	-119.39
214.779	-65.29
214.998	-70.81
215.218	-103.54
215.438	-50.56
215.657	-43.41
215.877	-30.92
216.096	7.81
216.316	20.19
216.535	-1.54
216.755	-1.27
216.974	-62.52
217.194	-116.33
217.413	-125.87
217.633	-107.7
217.852	-165.02
218.072	-80.91
218.291	-31.97
218.511	19.77
218.73	-6.29
218.95	-4.07
219.169	-9.35
219.389	-55.55
219.608	-57.15
219.827	-37.27
220.047	-39.24
220.266	-25.57
220.485	-11.17
220.705	11.04
220.924	-14.82
221.143	29.04
221.363	4.41
221.582	7.73
221.801	8.23
222.021	23.69
222.24	-79.43
222.459	-3.4
222.678	-9.12
222.897	-100.44
223.117	-140.84
223.336	-51.07
223.555	-37.17
223.774	9.06
223.993	50.23
224.213	102.54
224.432	43.2
224.651	58.76
224.87	27.19
225.089	35.49
225.308	34.59
225.527	49.12
225.746	33.86
225.965	17.29
226.184	8.44
226.404	9.89
226.623	-10.83
226.842	4.97
227.061	30.93
227.28	33.11
227.499	14.29
227.718	27.51
227.936	12.32
228.155	13.98
228.374	-1.22
228.593	8.03
228.812	-0.78
229.031	-8.48
229.25	-55.25
229.469	-78.39
229.688	-89.45
229.907	-43.32
230.125	-36.8
230.344	-22.27
230.563	-5.16
230.782	22.43
231.001	-47.45
231.22	-37.46
231.438	-0.35
231.657	8.17
231.876	-3.79
232.095	46.89
232.313	59.28
232.532	52.55
232.751	36.39
232.969	4.59
233.188	-76.92
233.407	-22.88
233.625	-11.91
233.844	-42.41
234.063	-29.45
234.281	-1.6
234.5	-20.7
234.719	-11.84
234.937	9.23
235.156	18.03
235.374	21.74
235.593	14.44
235.811	-4
236.03	-11.94
236.249	-63.16
236.467	-80.83
236.686	-30.87
236.904	-13.25
237.123	-38.25
237.341	-23.38
237.559	-14.64
237.778	-26.42
237.996	-42.36
238.215	9.05
238.433	20.21
238.652	28.29
238.87	4.37
239.088	10.23
239.307	3.06
239.525	-4.76
239.743	-38.12
239.962	-14.37
240.18	-36.42
240.398	-73.86
240.617	-66.44
240.835	-47.45
241.053	-32.48
241.271	17.61
241.49	33.16
241.708	-2.67
241.926	9.02
242.144	-17.96
242.363	-74.16
242.581	-108.95
242.799	-38.57
243.017	-15.36
243.235	-23.6
243.453	-5.63
243.672	0.6
243.89	-18.85
244.108	-23.03
244.326	3.13
244.544	17.02
244.762	17.18
244.98	29.38
245.198	17.73
245.416	-9.35
245.634	-39.32
245.852	-51.02
246.07	-56.48
246.288	-46.71
246.506	-84.02
246.724	-48.65
246.942	-33.24
247.16	-4.33
247.378	19.89
247.596	45.74
247.814	38.89
248.032	13.97
248.25	13.84
248.468	1.1
248.685	4.27
248.903	32.5
249.121	35.63
249.339	3.54
249.557	-14.87
249.775	-6.12
249.992	-75.34
250.21	-67.67
250.428	-49.62
250.646	-76.35
250.863	-106.12
251.081	-59.09
251.299	-71.49
251.517	-74.39
251.734	-43.65
251.952	-29.14
252.17	-25.94
252.387	-9.97
252.605	-8.98
252.823	-5.91
253.04	9.95
253.258	20.28
253.475	16.55
253.693	39.79
253.911	40.95
254.128	20.31
254.346	14.85
254.563	1.18
254.781	-20.14
254.998	-39.29
255.216	-13.52
255.433	-11.52
255.651	21.92
255.868	33.39
256.086	54.52
256.303	43.12
256.521	20.27
256.738	-1.78
256.956	-41.27
257.173	-70.78
257.39	-85.53
257.608	-90.67
257.825	-20.6
258.043	37.06
258.26	51.87
258.477	88.86
258.695	82.01
258.912	37.91
259.129	18.37
259.346	-15.01
259.564	-56.77
259.781	-63.63
259.998	-5.65
260.216	12.49
260.433	45.42
260.65	40.26
260.867	51.86
261.084	8.37
261.302	-4.61
261.519	-36.17
261.736	-48.69
261.953	-74.9
262.17	-22.87
262.387	-65.55
262.604	-93.25
262.822	-106.71
263.039	-88.11
263.256	-161.99
263.473	-82.08
263.69	-34.78
263.907	7.48
264.124	24.96
264.341	39.42
264.558	19.4
264.775	30.85
264.992	12.9
265.209	11.23
265.426	20.25
265.643	29.32
265.86	34.3
266.077	30.18
266.294	21.17
266.51	-13.18
266.727	-28.42
266.944	-30.16
267.161	-13.56
267.378	-9.63
267.595	13.52
267.812	-9.6
268.028	-25.72
268.245	-6.36
268.462	-29.71
268.679	-41.18
268.896	24.96
269.112	34.55
269.329	30.84
269.546	37.85
269.763	38.71
269.979	13.08
270.196	-0.95
270.413	-32.62
270.629	-41.29
270.846	-39.08
271.063	-30.47
271.279	-35.29
271.496	-39.47
271.712	-9.51
271.929	9.18
272.146	-10.54
272.362	-2.07
272.579	55.51
272.795	37.14
273.012	33.45
273.228	26.58
273.445	7.4
273.661	-40.91
273.878	-68.73
274.094	-74.43
274.311	-81.58
274.527	-12.26
274.744	-15.52
274.96	-17.42
275.177	-10.17
275.393	8.49
275.609	-10.54
275.826	22.46
276.042	30.05
276.259	24.41
276.475	26.28
276.691	38.94
276.908	4.6
277.124	6.92
277.34	9.99
277.557	2.75
277.773	-9.42
277.989	-10.9
278.205	3.52
278.422	18.43
278.638	25.95
278.854	38.96
279.07	51.77
279.286	28.92
279.503	4.43
279.719	-25.38
279.935	-50.06
280.151	-58.38
280.367	-32.36
280.583	-43.51
280.799	-31.48
281.016	-61.41
281.232	-15.92
281.448	-7.83
281.664	15.37
281.88	6.68
282.096	26.89
282.312	35.11
282.528	36.83
282.744	33.13
282.96	24.84
283.176	21.35
283.392	7.79
283.608	-3.14
283.824	-9.63
284.04	-0.38
284.256	4.41
284.471	0.9
284.687	-0.82
284.903	20.36
285.119	42.53
285.335	20.3
285.551	12.26
285.767	-1.56
285.982	-26.25
286.198	-70.27
286.414	2.51
286.63	15.05
286.846	45.37
287.061	26.8
287.277	51.77
287.493	20.42
287.709	36.19
287.924	9.09
288.14	53.94
288.356	56.01
288.571	61.1
288.787	29.99
289.003	35.5
289.218	8.2
289.434	-30.34
289.65	-25.98
289.865	-18.26
290.081	0.55
290.296	13.83
290.512	20.99
290.727	-18.06
290.943	-19.63
291.159	-37.64
291.374	-43.95
291.59	-54.72
291.805	-38.06
292.021	-30.23
292.236	-19.7
292.451	-4.91
292.667	-5.89
292.882	4.85
293.098	4.02
293.313	-25.68
293.529	-41.66
293.744	-34.67
293.959	-34.28
294.175	-35.15
294.39	0.18
294.605	18.68
294.821	42.62
295.036	39.54
295.251	57.13
295.467	25.37
295.682	4.53
295.897	-74.34
296.112	-75.51
296.328	-87.5
296.543	-95.21
296.758	-73.5
296.973	-4.61
297.188	25.38
297.404	-0.93
297.619	-3.65
297.834	-18.89
298.049	-43.16
298.264	-61.48
298.479	-0.69
298.694	12.65
298.909	35.88
299.125	43.84
299.34	54.23
299.555	33.72
299.77	51.76
299.985	12.2
300.2	-36.11
300.415	-46.22
300.63	-12.78
300.845	-39.3
301.06	-43.33
301.275	-8.73
301.49	2.93
301.704	-24.74
301.919	-45.92
302.134	-50.4
302.349	-42.33
302.564	-100.45
302.779	-83.83
302.994	-12.03
303.209	15.67
303.423	11.19
303.638	53.66
303.853	10.88
304.068	9.34
304.283	0.57
304.497	-4.02
304.712	-16.38
304.927	-10.28
305.142	-17.97
305.356	-4.58
305.571	-8.84
305.786	-24.36
306	-27.65
306.215	-24.54
306.43	-58.5
306.644	-44
306.859	23.77
307.074	23.83
307.288	6.93
307.503	5.98
307.717	-16.06
307.932	-32.39
308.147	-37.95
308.361	-17.99
308.576	-20.07
308.79	-51.2
309.005	-41.03
309.219	-16.23
309.434	-38.94
309.648	-31.93
309.863	-11.1
310.077	-15.25
310.292	-22.28
310.506	1.45
310.72	8.42
310.935	27.37
311.149	25.25
311.364	30.39
311.578	36.95
311.792	33.5
312.007	33.23
312.221	15.2
312.435	27.63
312.649	13.38
312.864	50.67
313.078	54.09
313.292	96.08
313.507	46.16
313.721	66.52
313.935	22.48
314.149	6.02
314.363	17.16
314.578	18.1
314.792	8.95
315.006	-14.62
315.22	4.18
315.434	-0.79
315.648	19.65
315.862	12.68
316.077	24.85
316.291	-6.04
316.505	1.8
316.719	-23.92
316.933	-20.4
317.147	-2.33
317.361	-42.34
317.575	-75.02
317.789	-109.79
318.003	-166.08
318.217	-122.18
318.431	-30.15
318.645	14.24
318.859	17.07
319.073	48.4
319.287	23.46
319.5	0.87
319.714	-27.08
319.928	-43.22
320.142	-72.51
320.356	-37.79
320.57	8.43
320.784	-13.86
320.997	-32.55
321.211	-24.82
321.425	-61.83
321.639	-90.78
321.853	-31.25
322.066	-0.28
322.28	-12.07
322.494	10.39
322.707	17.22
322.921	3.74
323.135	-3.4
323.349	23.11
323.562	-12
323.776	-19.91
323.989	-19.74
324.203	-36.58
324.417	-63.45
324.63	-59.45
324.844	-61.76
325.057	-64.6
325.271	-40.26
325.485	-12.7
325.698	7
325.912	11.46
326.125	-4.71
326.339	-0.85
326.552	-17.39
326.766	-35.29
326.979	-4.95
327.193	23.02
327.406	3.02
327.619	2.25
327.833	31.86
328.046	0.53
328.26	-41
328.473	-12.06
328.686	-46.93
328.9	-44.43
329.113	-15.33
329.326	-21.5
329.54	-30.13
329.753	-16.94
329.966	-48.33
330.179	-56.46
330.393	-21.96
330.606	-0.97
330.819	22.41
331.032	30.33
331.246	35.25
331.459	53.85
331.672	43.26
331.885	20.64
332.098	-1.76
332.311	-21.8
332.525	-66.77
332.738	-58.36
332.951	-4.92
333.164	26.23
333.377	50.41
333.59	59.86
333.803	62.72
334.016	47.33
334.229	41.76
334.442	32.14
334.655	40.29
334.868	43.24
335.081	33.37
335.294	24.95
335.507	17.08
335.72	17.08
335.933	-1.98
336.146	3.88
336.359	11.29
336.572	-22.08
336.785	-40.74
336.997	-16.33
337.21	-9.76
337.423	-26.42
337.636	-18.22
337.849	-10.12
338.062	-27.3
338.274	-17.98
338.487	-32.96
338.7	-26.49
338.913	-56.77
339.125	-77.12
339.338	-155.1
339.551	-86.97
339.763	-57.63
339.976	-33.41
340.189	-20.89
340.402	6.16
340.614	-14.62
340.827	-20.87
341.039	-48.73
341.252	-41.33
341.465	-25.18
341.677	-30.81
341.89	-72.5
342.102	-28.59
342.315	-35.65
342.527	-76.85
342.74	-78.54
342.952	-36.49
343.165	-50.13
343.377	-27.39
343.59	-15.95
343.802	11.04
344.015	4.96
344.227	17.28
344.44	9.8
344.652	3.68
344.864	-4.38
345.077	34.22
345.289	33.52
345.502	29.98
345.714	28.1
345.926	30.27
346.139	0.05
346.351	4.49
346.563	12.74
346.775	15.96
346.988	1.44
347.2	-9.73
347.412	-58.91
347.624	-89.55
347.837	-102.46
348.049	-87.38
348.261	-34.77
348.473	-12.78
348.685	3.55
348.897	-14.42
349.11	-31.11
349.322	-64.7
349.534	-45.58
349.746	-42.39
349.958	-22.15
350.17	-22.52
350.382	6.13
350.594	1.11
350.806	1.83
351.018	14.61
351.23	16.43
351.442	-39.74
351.654	-24.1
351.866	-1.66
352.078	-3.71
352.29	16.69
352.502	29.73
352.714	27.98
352.926	1.96
353.138	7.51
353.35	-7.49
353.561	-9.86
353.773	-31.88
353.985	-2.19
354.197	-17.09
354.409	-19.53
354.621	-25.17
354.832	-13.25
355.044	-42.9
355.256	-41.62
355.468	-25.6
355.679	-29.54
355.891	-27.01
356.103	-23.25
356.314	-13.71
356.526	-8.99
356.738	6.94
356.949	-9.54
357.161	13.94
357.373	12.96
357.584	6.95
357.796	20.65
358.008	28.75
358.219	29.12
358.431	23.11
358.642	25.1
358.854	8.09
359.065	-15.61
359.277	-34.02
359.488	-36.8
359.7	-65.8
359.911	-80.01
360.123	-41.17
360.334	-53.07
360.546	-73.45
360.757	-69.7
360.969	-45.24
361.18	-47.29
361.391	-33.08
361.603	-43.22
361.814	-17.92
362.025	-19.84
362.237	-21.41
362.448	-1.47
362.659	20.47
362.871	10.35
363.082	4.05
363.293	8.11
363.504	-6.9
363.716	-31.96
363.927	-38.42
364.138	-54.59
364.349	-74.6
364.56	-65.21
364.772	-51.77
364.983	-17.77
365.194	-11.54
365.405	2.07
365.616	25.12
365.827	23.73
366.038	-4.79
366.25	-8.39
366.461	-27.08
366.672	-23.49
366.883	-5.48
367.094	0.44
367.305	-5.03
367.516	0.16
367.727	-33.75
367.938	-40.64
368.149	-50.18
368.36	-32.92
368.571	-28.01
368.781	-22.31
368.992	-36.54
369.203	-55.28
369.414	-71.77
369.625	-87.43
369.836	-92.28
370.047	-107.47
370.258	-59.57
370.468	-70.21
370.679	-70.54
370.89	-63.29
371.101	-43.21
371.312	-50.18
371.522	-29.34
371.733	-30.64
371.944	-12.27
372.155	6.73
372.365	-8.23
372.576	-12.43
372.787	-0.75
372.997	-34.42
373.208	-43.58
373.419	-16.85
373.629	-42.38
373.84	-42.9
374.05	-41.82
374.261	-43.2
374.472	-52.47
374.682	-2.23
374.893	-3.13
375.103	29.67
375.314	21.27
375.524	9.2
375.735	4.21
375.945	5.94
376.156	-14.36
376.366	-2.36
376.577	9.98
376.787	-3.09
376.997	2.82
377.208	-1.92
377.418	-13.03
377.629	-11.66
377.839	-5.77
378.049	-13.94
378.26	-0.06
378.47	5.58
378.68	-4.81
378.89	-14.94
379.101	-4.53
379.311	-26.59
379.521	-47.81
379.732	-34.02
379.942	-26.82
380.152	-51.54
380.362	-23.15
380.572	-15.07
380.783	-6.4
380.993	9.34
381.203	18.27
381.413	28.6
381.623	37.38
381.833	33.53
382.043	14.56
382.253	7.45
382.463	-1.16
382.674	-17.43
382.884	-35.27
383.094	-28.1
383.304	-19.97
383.514	-10.58
383.724	5.52
383.934	5.36
384.144	-8.21
384.353	-13.52
384.563	-24.36
384.773	-23.36
384.983	-32.47
385.193	-6.26
385.403	-0.97
385.613	7.17
385.823	-0.99
386.033	10.54
386.242	0.66
386.452	-6.87
386.662	-20.99
386.872	-5.3
387.082	-14.91
387.291	-21.3
387.501	-15.67
387.711	-3.92
387.921	-17.1
388.13	-11.61
388.34	3.89
388.55	-1.1
388.759	-1.77
388.969	2.91
389.179	2.89
389.388	-5.24
389.598	0.35
389.807	-6.72
390.017	-7.93
390.227	-6.19
390.436	-6.25
390.646	-7.34
390.855	-2.03
391.065	-2.9
391.274	-6.01
391.484	-6.8
391.693	-3.67
391.903	-4.27
392.112	0.45
392.322	3.36
392.531	7.02
392.74	6.76
392.95	1.8
393.159	-0.11
393.369	-0.67
393.578	-0.95
393.787	-3.35
393.997	1.04
394.206	-0.14
394.415	-0.49
394.625	-1.18
394.834	-1.43
395.043	-0.88
395.252	1.03
395.462	1.99
395.671	3.35
395.88	5.12
396.089	5.1
396.298	3.43
396.508	3.77
396.717	2.39
396.926	2.69
397.135	2.26
397.344	2.87
397.553	3.47
397.762	4.6
397.971	3.23
398.181	3.83
398.39	3.06
398.599	2.41
398.808	2.45
399.017	4.21
399.226	4.95
399.435	6.09
399.644	6.48
399.853	5.41
400.062	4.53
400.27	3.98
400.479	3.66
400.688	2.47
400.897	3.35
401.106	3.42
401.315	2.95
401.524	3.16
401.733	4.16
401.941	3.94
402.15	4.22
402.359	4.36
402.568	4.48
402.777	4.41
402.985	4.26
403.194	3.9
403.403	3.83
403.612	3.31
403.82	3.1
404.029	3.39
404.238	3.23
404.446	3.6
404.655	3.44
404.864	3.33
405.072	2.84
405.281	3.2
405.489	2.91
405.698	3.1
405.906	3.12
406.115	3.36
406.324	3.2
406.532	3.32
406.741	3.55
406.949	3.64
407.158	3.59
407.366	3.76
407.574	3.64
407.783	3.65
407.991	3.46
408.2	3.63
408.408	3.49
408.617	3.53
408.825	3.28
409.033	3.39
409.242	3.31
409.45	3.31
409.658	3.13
409.867	3.42
410.075	3.31
410.283	3.25
410.491	3.23
410.7	3.15
410.908	3.02
411.116	3.31
411.324	3.23
411.533	3.14
411.741	3.4
411.949	3.31
412.157	3.09
412.365	3.16
412.573	3.15
412.781	3.13
412.99	3.09
413.198	3.27
413.406	3.24
413.614	3.36
413.822	3.25
414.03	3.15
414.238	3.01
414.446	3.18
414.654	2.94
414.862	3.05
415.07	3.23
415.278	3.3
415.486	2.93
415.694	3.16
415.902	2.95
416.109	2.85
416.317	2.8
416.525	2.84
416.733	2.72
416.941	2.89
417.149	2.75
417.357	2.69
417.564	2.84
417.772	3.02
417.98	2.82
418.188	2.92
418.395	2.94
418.603	3.13
418.811	2.78
419.019	2.82
419.226	2.98
419.434	3.2
419.642	2.91
419.849	3.26
420.057	3.33
420.265	3.19
420.472	2.84
420.68	2.91
420.887	2.74
421.095	2.77
421.302	2.83
421.51	3.03
421.717	3.1
421.925	3.08
422.132	2.95
422.34	2.66
422.547	2.74
422.755	2.58
422.962	2.58
423.17	2.61
423.377	2.78
423.585	2.73
423.792	2.64
423.999	2.67
424.207	2.64
424.414	2.76
424.621	2.67
424.829	2.63
425.036	2.61
425.243	2.65
425.451	2.5
425.658	2.39
425.865	2.74
426.072	2.82
426.28	3.3
426.487	3.22
426.694	3.37
426.901	3.13
427.108	3.01
427.315	2.71
427.523	3.05
427.73	3.01
427.937	3.04
428.144	2.93
428.351	2.74
428.558	2.68
428.765	2.49
428.972	2.48
429.179	2.69
429.386	2.97
429.593	2.83
429.8	2.81
430.007	2.84
430.214	2.93
430.421	2.77
430.628	2.64
430.835	2.71
431.042	2.89
431.249	2.78
431.456	2.9
431.662	3.09
431.869	3.18
432.076	3.16
432.283	3.33
432.49	3.19
432.697	3.24
432.903	3.03
433.11	2.96
433.317	3.03
433.524	3.13
433.73	3.03
433.937	3.34
434.144	3.31
434.35	3.14
434.557	3.13
434.764	3.21
434.97	3.06
435.177	3.26
435.384	3.28
435.59	3.37
435.797	3.42
436.003	3.55
436.21	3.4
436.416	3.55
436.623	3.55
436.829	3.66
437.036	3.76
437.242	3.73
437.449	3.57
437.655	3.55
437.862	3.47
438.068	3.34
438.275	3.62
438.481	3.85
438.687	3.81
438.894	3.78
439.1	3.8
439.307	3.7
439.513	3.54
439.719	3.56
439.926	3.73
440.132	3.77
440.338	3.69
440.544	3.82
440.751	3.82
440.957	3.88
441.163	3.74
441.369	3.89
441.575	3.71
441.782	3.73
441.988	3.54
442.194	3.74
442.4	3.67
442.606	3.89
442.812	3.89
443.018	3.97
443.224	3.9
443.431	3.99
443.637	3.78
443.843	3.76
444.049	3.74
444.255	3.67
444.461	3.75
444.667	3.77
444.873	3.91
445.079	3.9
445.284	4.03
445.49	3.73
445.696	3.59
445.902	3.44
446.108	3.39
446.314	3.28
446.52	3.42
446.726	3.71
446.931	3.76
447.137	3.8
447.343	3.82
447.549	3.83
447.755	3.69
447.96	3.7
448.166	3.66
448.372	3.62
448.578	3.66
448.783	3.64
448.989	3.7
449.195	3.91
449.4	3.93
449.606	3.88
449.812	3.86
450.017	3.91
450.223	3.76
450.428	3.81
450.634	3.94
450.84	4.15
451.045	4.12
451.251	4.07
451.456	4.32
451.662	4.34
451.867	4.32
452.073	4.36
452.278	4.52
452.483	4.47
452.689	4.35
452.894	4.29
453.1	4.17
453.305	4.05
453.51	4
453.716	3.96
453.921	4
454.127	4.01
454.332	4.02
454.537	3.95
454.742	4
454.948	3.98
455.153	4.02
455.358	4.19
455.563	4.37
455.769	4.54
455.974	4.49
456.179	4.42
456.384	4.33
456.589	4.23
456.795	4
457	4.04
457.205	4.22
457.41	4.24
457.615	4.27
457.82	4.37
458.025	4.46
458.23	4.36
458.435	4.36
458.64	4.16
458.845	4.28
459.05	4.24
459.255	4.24
459.46	4.24
459.665	4.44
459.87	4.48
460.075	4.47
460.28	4.53
460.485	4.63
460.69	4.6
460.895	4.45
461.099	4.47
461.304	4.56
461.509	4.49
461.714	4.4
461.919	4.58
462.123	4.47
462.328	4.46
462.533	4.37
462.738	4.53
462.942	4.42
463.147	4.5
463.352	4.58
463.556	4.68
463.761	4.69
463.966	4.7
464.17	4.72
464.375	4.48
464.58	4.48
464.784	4.39
464.989	4.37
465.193	4.34
465.398	4.47
465.602	4.55
465.807	4.53
466.011	4.56
466.216	4.6
466.42	4.63
466.625	4.65
466.829	4.8
467.034	4.92
467.238	5.09
467.443	5.03
467.647	4.87
467.851	4.84
468.056	4.77
468.26	4.7
468.464	4.75
468.669	4.88
468.873	5
469.077	5.09
469.282	5.2
469.486	5.27
469.69	5.29
469.894	5.14
470.099	5.1
470.303	5.12
470.507	4.97
470.711	4.93
470.915	4.93
471.119	4.82
471.324	4.77
471.528	4.82
471.732	4.86
471.936	4.84
472.14	4.95
472.344	4.94
472.548	4.97
472.752	5.13
472.956	5.35
473.16	5.31
473.364	5.19
473.568	5.21
473.772	5.14
473.976	4.97
474.18	4.94
474.384	5.08
474.588	5.09
474.792	4.96
474.995	5.07
475.199	5.18
475.403	5.2
475.607	5.26
475.811	5.31
476.015	5.29
476.218	5.34
476.422	5.2
476.626	5.18
476.83	5.27
477.033	5.24
477.237	5.11
477.441	5.22
477.644	5.2
477.848	5.17
478.052	5.14
478.255	5.17
478.459	5.22
478.663	5.42
478.866	5.45
479.07	5.47
479.273	5.6
479.477	5.54
479.681	5.32
479.884	5.26
480.088	5.19
480.291	5.16
480.495	5.19
480.698	5.27
480.901	5.42
481.105	5.64
481.308	5.57
481.512	5.59
481.715	5.61
481.919	5.61
482.122	5.51
482.325	5.55
482.529	5.55
482.732	5.52
482.935	5.44
483.138	5.4
483.342	5.51
483.545	5.59
483.748	5.67
483.952	5.75
484.155	5.86
484.358	5.81
484.561	5.71
484.764	5.6
484.967	5.68
485.171	5.71
485.374	5.66
485.577	5.76
485.78	5.82
485.983	5.72
486.186	5.58
486.389	5.58
486.592	5.53
486.795	5.59
486.998	5.6
487.201	5.69
487.404	5.74
487.607	5.83
487.81	5.83
488.013	5.84
488.216	5.82
488.419	5.78
488.622	5.67
488.825	5.58
489.028	5.55
489.231	5.5
489.433	5.45
489.636	5.4
489.839	5.43
490.042	5.32
490.245	5.31
490.447	5.38
490.65	5.44
490.853	5.46
491.056	5.58
491.258	5.66
491.461	5.67
491.664	5.7
491.866	5.62
492.069	5.69
492.272	5.6
492.474	5.6
492.677	5.58
492.879	5.64
493.082	5.61
493.285	5.71
493.487	5.71
493.69	5.66
493.892	5.67
494.095	5.67
494.297	5.64
494.5	5.64
494.702	5.72
494.905	5.7
495.107	5.64
495.309	5.63
495.512	5.67
495.714	5.66
495.917	5.72
496.119	5.72
496.321	5.78
496.524	5.75
496.726	5.74
496.928	5.69
497.13	5.66
497.333	5.55
497.535	5.59
497.737	5.57
497.939	5.55
498.142	5.65
498.344	5.67
498.546	5.56
498.748	5.64
498.95	5.77
499.152	5.73
499.355	5.84
499.557	6
499.759	6.05
499.961	5.94
500.163	5.96
500.365	5.89
500.567	5.88
500.769	5.75
500.971	5.81
501.173	5.7
501.375	5.72
501.577	5.64
501.779	5.63
501.981	5.63
502.183	5.71
502.385	5.69
502.587	5.65
502.788	5.74
502.99	5.79
503.192	5.84
503.394	5.83
503.596	5.91
503.798	5.92
503.999	5.92
504.201	5.88
504.403	5.94
504.605	5.96
504.806	5.89
505.008	5.83
505.21	5.92
505.411	5.9
505.613	5.88
505.815	5.97
506.016	6.05
506.218	6.05
506.42	6.03
506.621	6.1
506.823	6.09
507.024	6.01
507.226	6.01
507.427	6.02
507.629	5.99
507.83	6.05
508.032	6.02
508.233	6.08
508.435	6.17
508.636	6.23
508.838	6.13
509.039	6.2
509.24	6.16
509.442	6.14
509.643	6.04
509.845	6.09
510.046	6.1
510.247	6.05
510.448	6.05
510.65	6.12
510.851	6.22
511.052	6.23
511.254	6.26
511.455	6.33
511.656	6.38
511.857	6.39
512.058	6.37
512.26	6.34
512.461	6.28
512.662	6.28
512.863	6.2
513.064	6.24
513.265	6.27
513.466	6.35
513.667	6.34
513.868	6.34
514.069	6.37
514.27	6.43
514.471	6.37
514.672	6.38
514.873	6.4
515.074	6.45
515.275	6.32
515.476	6.32
515.677	6.33
515.878	6.46
516.079	6.37
516.28	6.5
516.481	6.58
516.682	6.58
516.882	6.42
517.083	6.43
517.284	6.32
517.485	6.27
517.686	6.23
517.886	6.24
518.087	6.31
518.288	6.37
518.488	6.33
518.689	6.35
518.89	6.41
519.091	6.35
519.291	6.33
519.492	6.39
519.692	6.43
519.893	6.45
520.094	6.46
520.294	6.45
520.495	6.42
520.695	6.43
520.896	6.4
521.096	6.52
521.297	6.6
521.497	6.61
521.698	6.53
521.898	6.5
522.099	6.42
522.299	6.43
522.499	6.42
522.7	6.51
522.9	6.56
523.101	6.63
523.301	6.64
523.501	6.64
523.702	6.63
523.902	6.74
524.102	6.77
524.302	6.77
524.503	6.8
524.703	6.79
524.903	6.74
525.103	6.67
525.304	6.75
525.504	6.83
525.704	6.9
525.904	6.88
526.104	6.88
526.304	6.84
526.504	6.83
526.705	6.79
526.905	6.86
527.105	6.89
527.305	6.84
527.505	6.76
527.705	6.73
527.905	6.69
528.105	6.68
528.305	6.7
528.505	6.8
528.705	6.89
528.905	6.84
529.105	6.87
529.304	6.93
529.504	6.99
529.704	6.93
529.904	6.97
530.104	6.97
530.304	7.03
530.503	6.99
530.703	6.93
530.903	6.93
531.103	6.97
531.303	6.89
531.502	6.86
531.702	7.02
531.902	7.06
532.101	7
532.301	7.05
532.501	7.07
532.7	7.01
532.9	6.99
533.1	6.98
533.299	6.98
533.499	7
533.698	6.96
533.898	7.03
534.097	7.07
534.297	7.14
534.496	7.11
534.696	7.16
534.895	7.23
535.095	7.34
535.294	7.29
535.494	7.29
535.693	7.32
535.892	7.27
536.092	7.15
536.291	7.11
536.491	7.22
536.69	7.29
536.889	7.22
537.088	7.25
537.288	7.36
537.487	7.38
537.686	7.33
537.886	7.44
538.085	7.5
538.284	7.56
538.483	7.48
538.682	7.53
538.882	7.49
539.081	7.54
539.28	7.42
539.479	7.44
539.678	7.38
539.877	7.48
540.076	7.46
540.275	7.54
540.474	7.7
540.673	7.75
540.872	7.69
541.071	7.75
541.27	7.75
541.469	7.72
541.668	7.76
541.867	7.82
542.066	7.86
542.265	7.98
542.464	7.94
542.663	7.95
542.862	8.09
543.06	8.12
543.259	8.08
543.458	8.15
543.657	8.26
543.856	8.27
544.054	8.2
544.253	8.22
544.452	8.19
544.651	8.22
544.849	8.18
545.048	8.24
545.247	8.33
545.445	8.42
545.644	8.45
545.843	8.42
546.041	8.48
546.24	8.53
546.438	8.6
546.637	8.66
546.836	8.83
547.034	8.9
547.233	8.9
547.431	8.86
547.63	8.83
547.828	8.8
548.027	8.86
548.225	8.86
548.423	8.84
548.622	8.9
548.82	8.96
549.019	8.93
549.217	9.07
549.415	9.17
549.614	9.26
549.812	9.23
550.01	9.23
550.209	9.22
550.407	9.36
550.605	9.34
550.803	9.48
551.002	9.7
551.2	9.77
551.398	9.76
551.596	9.97
551.794	10.04
551.993	10.04
552.191	10.15
552.389	10.27
552.587	10.25
552.785	10.31
552.983	10.39
553.181	10.48
553.379	10.54
553.577	10.56
553.775	10.63
553.973	10.69
554.171	10.72
554.369	10.74
554.567	10.8
554.765	10.83
554.963	10.92
555.161	10.91
555.359	10.98
555.557	11.18
555.755	11.31
555.952	11.4
556.15	11.53
556.348	11.67
556.546	11.74
556.744	11.77
556.941	11.8
557.139	11.91
557.337	11.91
557.535	11.94
557.732	12.07
557.93	12.26
558.128	12.37
558.325	12.54
558.523	12.58
558.721	12.64
558.918	12.64
559.116	12.7
559.313	12.67
559.511	12.85
559.708	12.91
559.906	13
560.104	13.09
560.301	13.27
560.498	13.31
560.696	13.42
560.893	13.58
561.091	13.75
561.288	13.87
561.486	13.96
561.683	14.03
561.88	14.08
562.078	14.11
562.275	14.12
562.473	14.31
562.67	14.47
562.867	14.65
563.064	14.75
563.262	14.84
563.459	14.88
563.656	15.05
563.853	15.06
564.051	15.15
564.248	15.34
564.445	15.38
564.642	15.43
564.839	15.59
565.036	15.76
565.234	15.93
565.431	16.09
565.628	16.2
565.825	16.35
566.022	16.47
566.219	16.47
566.416	16.58
566.613	16.64
566.81	16.65
567.007	16.62
567.204	16.7
567.401	16.77
567.598	16.86
567.795	16.98
567.991	17.15
568.188	17.32
568.385	17.5
568.582	17.62
568.779	17.63
568.976	17.78
569.172	17.9
569.369	17.86
569.566	17.89
569.763	18
569.96	17.99
570.156	17.92
570.353	17.99
570.55	18.07
570.746	18.14
570.943	18.25
571.14	18.29
571.336	18.42
571.533	18.54
571.729	18.55
571.926	18.59
572.123	18.81
572.319	18.82
572.516	18.78
572.712	18.84
572.909	18.85
573.105	18.84
573.302	18.89
573.498	19.06
573.695	19.04
573.891	19.09
574.087	19.13
574.284	19.12
574.48	19.03
574.677	19.14
574.873	19.18
575.069	19.18
575.266	19.33
575.462	19.3
575.658	19.37
575.854	19.46
576.051	19.45
576.247	19.39
576.443	19.46
576.639	19.43
576.835	19.34
577.032	19.36
577.228	19.47
577.424	19.54
577.62	19.52
577.816	19.61
578.012	19.63
578.208	19.51
578.404	19.47
578.6	19.48
578.796	19.39
578.993	19.4
579.189	19.46
579.384	19.33
579.58	19.33
579.776	19.36
579.972	19.28
580.168	19.16
580.364	19.28
580.56	19.23
580.756	19.27
580.952	19.34
581.148	19.43
581.343	19.44
581.539	19.49
581.735	19.52
581.931	19.56
582.127	19.58
582.322	19.56
582.518	19.65
582.714	19.57
582.909	19.44
583.105	19.33
583.301	19.29
583.496	19.18
583.692	19.11
583.888	19.11
584.083	19.19
584.279	19.18
584.474	19.2
584.67	19.2
584.866	19.24
585.061	19.11
585.257	19.12
585.452	19.09
585.648	19.1
585.843	19.18
586.039	19.27
586.234	19.31
586.429	19.28
586.625	19.35
586.82	19.23
587.015	19.21
587.211	19.11
587.406	19.23
587.601	19.2
587.797	19.15
587.992	19.1
588.187	19.21
588.383	19.15
588.578	19.11
588.773	19.17
588.968	19.28
589.163	19.29
589.359	19.27
589.554	19.34
589.749	19.39
589.944	19.48
590.139	19.51
590.334	19.58
590.529	19.5
590.724	19.57
590.919	19.57
591.114	19.55
591.309	19.6
591.504	19.78
591.699	19.75
591.894	19.78
592.089	19.85
592.284	19.89
592.479	19.95
592.674	19.99
592.869	20.01
593.064	20.01
593.259	20.16
593.454	20.16
593.648	20.23
593.843	20.25
594.038	20.38
594.233	20.24
594.428	20.27
594.622	20.27
594.817	20.39
595.012	20.41
595.206	20.51
595.401	20.56
595.596	20.64
595.79	20.77
595.985	20.87
596.18	20.94
596.374	21.17
596.569	21.27
596.763	21.15
596.958	21.29
597.153	21.42
597.347	21.33
597.542	21.51
597.736	21.67
597.931	21.67
598.125	21.78
598.319	21.91
598.514	21.93
598.708	22.06
598.903	22.17
599.097	22.3
599.291	22.33
599.486	22.26
599.68	22.26
599.874	22.32
600.069	22.2
600.263	22.21
600.457	22.41
600.651	22.48
600.846	22.46
601.04	22.64
601.234	22.69
601.428	22.71
601.622	22.75
601.817	22.79
602.011	22.75
602.205	22.87
602.399	22.88
602.593	23.01
602.787	22.98
602.981	23.06
603.175	23.09
603.369	23.03
603.563	23.02
603.757	23.16
603.951	23.11
604.145	23.09
604.339	23.17
604.533	22.96
604.727	22.82
604.921	22.8
605.115	22.79
605.309	22.81
605.502	22.89
605.696	22.91
605.89	22.85
606.084	22.81
606.278	22.67
606.471	22.61
606.665	22.58
606.859	22.55
607.053	22.46
607.246	22.47
607.44	22.47
607.634	22.34
607.827	22.36
608.021	22.35
608.214	22.28
608.408	22.13
608.602	22.13
608.795	22.04
608.989	22
609.182	21.9
609.376	21.95
609.569	21.81
609.763	21.58
609.956	21.4
610.15	21.28
610.343	21.19
610.537	21.06
610.73	21.1
610.923	21.13
611.117	21.14
611.31	21.07
611.504	21.05
611.697	21.01
611.89	20.83
612.083	20.71
612.277	20.58
612.47	20.55
612.663	20.36
612.856	20.32
613.05	20.23
613.243	20.16
613.436	20.05
613.629	20.04
613.822	19.87
614.015	19.89
614.209	19.8
614.402	19.82
614.595	19.8
614.788	19.81
614.981	19.65
615.174	19.51
615.367	19.34
615.56	19.13
615.753	19.15
615.946	19.08
616.139	19.19
616.332	19.26
616.525	19.34
616.718	19.34
616.911	19.3
617.103	19.24
617.296	19.08
617.489	18.94
617.682	18.81
617.875	18.73
618.067	18.55
618.26	18.49
618.453	18.56
618.646	18.51
618.838	18.55
619.031	18.63
619.224	18.6
619.417	18.53
619.609	18.56
619.802	18.49
619.994	18.39
620.187	18.37
620.38	18.34
620.572	18.23
620.765	18.23
620.957	18.17
621.15	18.02
621.342	17.93
621.535	17.93
621.727	17.87
621.92	17.78
622.112	17.76
622.305	17.8
622.497	17.72
622.69	17.72
622.882	17.79
623.074	17.92
623.267	17.84
623.459	17.76
623.651	17.7
623.844	17.69
624.036	17.72
624.228	17.75
624.42	17.83
624.613	17.88
624.805	17.85
624.997	17.74
625.189	17.67
625.381	17.66
625.574	17.55
625.766	17.46
625.958	17.37
626.15	17.44
626.342	17.41
626.534	17.43
626.726	17.4
626.918	17.47
627.11	17.37
627.302	17.32
627.494	17.3
627.686	17.28
627.878	17.18
628.07	17.18
628.262	17.07
628.454	17.05
628.646	17.09
628.838	17.08
629.029	16.95
629.221	17.07
629.413	16.93
629.605	16.79
629.797	16.73
629.989	16.79
630.18	16.67
630.372	16.6
630.564	16.63
630.755	16.63
630.947	16.61
631.139	16.44
631.33	16.42
631.522	16.47
631.714	16.43
631.905	16.39
632.097	16.41
632.289	16.39
632.48	16.24
632.672	16.16
632.863	16
633.055	15.95
633.246	15.95
633.438	15.86
633.629	15.82
633.821	15.92
634.012	15.94
634.203	15.84
634.395	15.88
634.586	15.86
634.777	15.8
634.969	15.76
635.16	15.89
635.351	15.83
635.543	15.85
635.734	15.79
635.925	15.84
636.117	15.8
636.308	15.84
636.499	15.74
636.69	15.73
636.881	15.63
637.073	15.7
637.264	15.67
637.455	15.82
637.646	15.89
637.837	15.96
638.028	15.8
638.219	15.92
638.41	15.76
638.601	15.67
638.792	15.62
638.983	15.58
639.174	15.35
639.365	15.44
639.556	15.42
639.747	15.42
639.938	15.5
640.129	15.55
640.32	15.47
640.511	15.49
640.701	15.57
640.892	15.53
641.083	15.58
641.274	15.63
641.465	15.62
641.655	15.49
641.846	15.48
642.037	15.43
642.228	15.31
642.418	15.34
642.609	15.37
642.8	15.36
642.99	15.29
643.181	15.44
643.372	15.42
643.562	15.36
643.753	15.32
643.943	15.29
644.134	15.07
644.324	15.01
644.515	15.04
644.705	15.1
644.896	15.14
645.086	15.22
645.277	15.15
645.467	15.1
645.658	15
645.848	14.99
646.038	14.96
646.229	14.97
646.419	14.91
646.61	14.89
646.8	14.87
646.99	14.78
647.18	14.76
647.371	14.8
647.561	14.73
647.751	14.69
647.941	14.62
648.132	14.65
648.322	14.58
648.512	14.66
648.702	14.68
648.892	14.79
649.082	14.73
649.272	14.66
649.462	14.46
649.653	14.4
649.843	14.26
650.033	14.27
650.223	14.25
650.413	14.22
650.603	14.27
650.793	14.3
650.983	14.17
651.172	14.1
651.362	14.1
651.552	13.88
651.742	13.74
651.932	13.68
652.122	13.64
652.312	13.74
652.502	13.8
652.691	13.86
652.881	13.83
653.071	13.8
653.261	13.63
653.45	13.51
653.64	13.42
653.83	13.26
654.019	13.18
654.209	13.13
654.399	13.05
654.588	12.96
654.778	12.95
654.968	12.79
655.157	12.72
655.347	12.61
655.536	12.38
655.726	12.25
655.915	12.13
656.105	12.02
656.294	11.95
656.484	11.84
656.673	11.75
656.863	11.71
657.052	11.48
657.241	11.24
657.431	11.09
657.62	10.91
657.809	10.65
657.999	10.49
658.188	10.38
658.377	10.14
658.567	10.05
658.756	9.93
658.945	9.82
659.134	9.64
659.324	9.69
659.513	9.56
659.702	9.41
659.891	9.25
660.08	9.17
660.269	9.08
660.458	8.92
660.648	8.86
660.837	8.8
661.026	8.77
661.215	8.59
661.404	8.45
661.593	8.38
661.782	8.2
661.971	8.14
662.16	8.06
662.349	8.03
662.538	7.85
662.726	7.8
662.915	7.61
663.104	7.46
663.293	7.46
663.482	7.46
663.671	7.4
663.86	7.24
664.048	7.26
664.237	7.12
664.426	6.88
664.615	6.86
664.803	6.91
664.992	6.79
665.181	6.68
665.369	6.68
665.558	6.57
665.747	6.47
665.935	6.54
666.124	6.6
666.312	6.68
666.501	6.65
666.69	6.56
666.878	6.45
667.067	6.31
667.255	6.43
667.444	6.8
667.632	6.89
667.82	6.99
668.009	7.06
668.197	6.89
668.386	6.61
668.574	6.78
668.762	6.64
668.951	6.61
669.139	6.66
669.327	6.59
669.516	6.59
669.704	6.61
669.892	6.77
670.08	6.81
670.269	6.86
670.457	6.66
670.645	6.63
670.833	6.76
671.021	6.76
671.21	6.78
671.398	7
671.586	7.12
671.774	6.95
671.962	7
672.15	7.03
672.338	6.97
672.526	7.03
672.714	6.88
672.902	6.92
673.09	7.08
673.278	7.28
673.466	7.31
673.654	7.71
673.842	7.79
674.03	7.83
674.218	7.69
674.405	7.76
674.593	7.61
674.781	7.67
674.969	7.7
675.157	7.91
675.344	8.02
675.532	8.21
675.72	8.34
675.908	8.41
676.095	8.4
676.283	8.5
676.471	8.67
676.658	8.7
676.846	8.69
677.033	8.78
677.221	8.75
677.409	8.56
677.596	8.45
677.784	8.6
677.971	8.62
678.159	8.69
678.346	8.88
678.534	9.17
678.721	9.3
678.909	9.28
679.096	9.28
679.283	9.49
679.471	9.42
679.658	9.51
679.846	9.84
680.033	10.17
680.22	10.12
680.408	10.33
680.595	10.29
680.782	10.14
680.969	10.16
681.157	10.25
681.344	10.27
681.531	10.42
681.718	10.54
681.905	10.57
682.093	10.67
682.28	10.86
682.467	11.07
682.654	11.3
682.841	11.43
683.028	11.63
683.215	11.69
683.402	11.69
683.589	11.82
683.776	12.04
683.963	12.1
684.15	12.28
684.337	12.6
684.524	12.77
684.711	13.04
684.898	13.16
685.085	13.37
685.271	13.57
685.458	13.87
685.645	13.96
685.832	14.42
686.019	14.73
686.205	15.07
686.392	15.3
686.579	15.46
686.766	15.77
686.952	16.11
687.139	16.51
687.326	16.74
687.512	17.31
687.699	17.59
687.886	17.88
688.072	18.1
688.259	18.64
688.445	19.09
688.632	19.47
688.818	20.17
689.005	20.59
689.191	21.09
689.378	21.6
689.564	22.16
689.751	22.48
689.937	22.95
690.124	23.45
690.31	23.65
690.496	24.09
690.683	24.7
690.869	25.44
691.055	26.04
691.242	26.89
691.428	27.56
691.614	28.13
691.8	28.79
691.987	29.48
692.173	30.18
692.359	30.91
692.545	31.78
692.731	32.32
692.918	33.01
693.104	33.74
693.29	34.43
693.476	35.07
693.662	35.8
693.848	36.47
694.034	37.16
694.22	37.87
694.406	38.6
694.592	39.38
694.778	40.15
694.964	40.86
695.15	41.51
695.336	42.12
695.522	43.08
695.708	43.72
695.894	44.5
696.08	45.28
696.265	46
696.451	46.49
696.637	47.46
696.823	48.32
697.009	48.98
697.194	49.6
697.38	50.21
697.566	50.64
697.751	51.15
697.937	51.94
698.123	52.57
698.308	53.09
698.494	53.78
698.68	54.09
698.865	54.61
699.051	55.37
699.236	56.26
699.422	56.89
699.607	57.51
699.793	58.24
699.978	58.87
700.164	59.35
700.349	60.03
700.535	60.72
700.72	61.14
700.906	61.8
701.091	62.17
701.276	62.76
701.462	63.66
701.647	64.47
701.832	65.04
702.018	65.63
702.203	66.02
702.388	65.97
702.573	66.28
702.759	66.96
702.944	67.38
703.129	67.67
703.314	68.36
703.499	68.59
703.684	68.55
703.87	69.67
704.055	70.68
704.24	71.33
704.425	72.08
704.61	72.86
704.795	72.85
704.98	72.89
705.165	73.1
705.35	73.76
705.535	74.19
705.72	74.63
705.905	75.16
706.09	75.54
706.275	75.41
706.459	75.03
706.644	74.87
706.829	74.93
707.014	75.19
707.199	75.65
707.384	76.5
707.568	76.94
707.753	77.56
707.938	78.04
708.123	78.21
708.307	77.96
708.492	78.56
708.677	78.31
708.861	78.49
709.046	78.51
709.231	79.65
709.415	80.01
709.6	80.19
709.784	80.15
709.969	80.78
710.153	80.25
710.338	79.99
710.522	80.42
710.707	80.97
710.891	80.95
711.076	81.51
711.26	81.71
711.445	82.05
711.629	81.9
711.813	82.1
711.998	82.33
712.182	82.34
712.366	82.79
712.551	83.51
712.735	83.5
712.919	83.45
713.103	84.2
713.288	83.86
713.472	83.57
713.656	84.37
713.84	84.71
714.024	84.73
714.208	84.88
714.393	85.26
714.577	85.34
714.761	85.13
714.945	85.43
715.129	85.68
715.313	85.86
715.497	85.56
715.681	86.22
715.865	85.68
716.049	85.9
716.233	85.86
716.417	86.13
716.601	85.98
716.785	86.43
716.968	86.65
717.152	86.98
717.336	87.14
717.52	87.26
717.704	87.53
717.888	87.85
718.071	87.98
718.255	88.4
718.439	88.18
718.622	88.08
718.806	87.7
718.99	87.27
719.174	86.88
719.357	87.05
719.541	87.35
719.724	87.56
719.908	88.58
720.092	89.1
720.275	89.51
720.459	89.63
720.642	88.88
720.826	87.87
721.009	87.61
721.193	86.65
721.376	86.74
721.559	87.93
721.743	88.52
721.926	89.04
722.11	89.97
722.293	89.83
722.476	89.05
722.66	89.18
722.843	88.63
723.026	88.53
723.21	88.36
723.393	89.38
723.576	89.28
723.759	88.86
723.942	89.14
724.126	89.33
724.309	89.32
724.492	89.65
724.675	89.82
724.858	90.03
725.041	90.74
725.224	90.85
725.407	90.73
725.59	91.63
725.774	91.37
725.957	90.31
726.14	90.14
726.322	90.86
726.505	90.86
726.688	91.55
726.871	92.59
727.054	92.46
727.237	91.81
727.42	91.8
727.603	91.54
727.786	91.71
727.968	92.22
728.151	92.52
728.334	92.84
728.517	93.43
728.699	93.63
728.882	93.62
729.065	94.7
729.248	94.81
729.43	94.59
729.613	95.46
729.796	96.24
729.978	95.07
730.161	94.83
730.343	94.93
730.526	94.73
730.708	93.71
730.891	94.04
731.073	94.27
731.256	93.69
731.438	93.46
731.621	94.77
731.803	94.54
731.986	94.59
732.168	94.49
732.35	94.46
732.533	93.95
732.715	94.27
732.898	94.95
733.08	95.36
733.262	95.12
733.444	95.03
733.627	95.64
733.809	95.54
733.991	96.63
734.173	96.37
734.355	96.25
734.538	97.04
734.72	96.34
734.902	96.25
735.084	96.74
735.266	96.83
735.448	96.37
735.63	96.78
735.812	96.41
735.994	97.48
736.176	97.78
736.358	97.07
736.54	97.8
736.722	97.29
736.904	96.06
737.086	96.03
737.268	96.93
737.45	96.57
737.632	97.29
737.814	97.26
737.995	97.75
738.177	97.32
738.359	97.03
738.541	97.66
738.723	98.25
738.904	98.64
739.086	99.2
739.268	99.38
739.449	99.64
739.631	99.34
739.813	99.2
739.994	99.24
740.176	100.21
740.358	99.58
740.539	100.69
740.721	100.63
740.902	101.4
741.084	100.06
741.265	99.49
741.447	98.88
741.628	99.3
741.81	96.74
741.991	98.14
742.172	99.6
742.354	100.29
742.535	100.05
742.717	101.66
742.898	101.18
743.079	100.09
743.261	99.73
743.442	99.13
743.623	100.59
743.804	100.68
743.986	101.79
744.167	100.48
744.348	100.06
744.529	99.26
744.71	98.59
744.891	97.69
745.073	98.2
745.254	98.14
745.435	96.79
745.616	96.85
745.797	97.37
745.978	97.32
746.159	98.12
746.34	97.13
746.521	99.01
746.702	97.35
746.883	97.12
747.064	96.74
747.245	98.53
747.426	96.59
747.606	97.65
747.787	98.39
747.968	99.23
748.149	99.74
748.33	100.82
748.51	101.05
748.691	100.66
748.872	100.28
749.053	99.34
749.233	97.6
749.414	96.61
749.595	95.42
749.775	94.76
749.956	93.95
750.137	94.98
750.317	96.21
750.498	99.61
750.678	100.15
750.859	100.64
751.04	100.95
751.22	99.62
751.4	97.15
751.581	96.33
751.761	96.88
751.942	96.44
752.122	96.71
752.303	96.17
752.483	96.79
752.663	95.99
752.844	95
753.024	96.45
753.204	98.23
753.385	96.66
753.565	97.35
753.745	97.1
753.925	95.14
754.106	93.68
754.286	94.79
754.466	93.62
754.646	95.49
754.826	96.13
755.006	94.58
755.187	94.2
755.367	95.84
755.547	95.44
755.727	95.76
755.907	98.4
756.087	98.84
756.267	97.78
756.447	97.8
756.627	95.97
756.807	96.21
756.987	95.31
757.167	95.86
757.346	95.43
757.526	95.55
757.706	94.74
757.886	96.27
758.066	96.37
758.246	97.94
758.425	98.43
758.605	98.43
758.785	98.5
758.965	98.69
759.144	95.33
759.324	96.69
759.504	96.24
759.683	96.26
759.863	95.13
760.043	94.48
760.222	93.14
760.402	93.33
760.581	91.7
760.761	93.47
760.94	94.05
761.12	96
761.299	96.33
761.479	96.21
761.658	93.58
761.838	93.75
762.017	91.81
762.197	92.28
762.376	92.92
762.555	95.2
762.735	96.43
762.914	96.18
763.093	95.97
763.273	96.07
763.452	95.05
763.631	94.91
763.81	94.15
763.99	92.46
764.169	92.09
764.348	90.59
764.527	90.82
764.706	93.43
764.885	95.5
765.064	93.22
765.243	94.55
765.423	93.7
765.602	92.73
765.781	89.84
765.96	89.73
766.139	88.31
766.318	89.45
766.497	89.26
766.676	90.39
766.854	92.24
767.033	92.98
767.212	91.54
767.391	92.28
767.57	93.92
767.749	93.95
767.928	94.68
768.106	94.09
768.285	91.07
768.464	90.26
768.643	89.38
768.821	88.22
769	89.67
769.179	90.63
769.357	88.24
769.536	87.7
769.715	89.69
769.893	90.8
770.072	89.43
770.25	91.81
770.429	94.45
770.607	92.54
770.786	91.24
770.964	93.44
771.143	91.92
771.321	91.01
771.5	92.73
771.678	91.68
771.857	89.62
772.035	89.56
772.213	88.7
772.392	85.67
772.57	87.6
772.748	87.98
772.927	86.76
773.105	86.37
773.283	87.52
773.461	86.8
773.64	86.88
773.818	87.77
773.996	89.11
774.174	88.68
774.352	87.08
774.531	86.38
774.709	89.3
774.887	86.63
775.065	87.83
775.243	87.26
775.421	88.91
775.599	88
775.777	88.26
775.955	84.97
776.133	84.33
776.311	84.15
776.489	81.25
776.667	81.98
776.844	83.5
777.022	82.56
777.2	81.13
777.378	82.57
777.556	84.06
777.734	87.14
777.911	92.93
778.089	94.77
778.267	93.87
778.445	91.34
778.622	88.44
778.8	85.28
778.978	85.38
779.155	85.44
779.333	86.24
779.511	87.9
779.688	89.94
779.866	85.41
780.043	82.49
780.221	82.32
780.398	77.6
780.576	75.71
780.753	81.2
780.931	81.38
781.108	80.05
781.286	83.96
781.463	83.12
781.64	77.96
781.818	82.43
781.995	84.33
782.172	83.87
782.35	85.6
782.527	91.06
782.704	86.83
782.882	87.19
783.059	85.8
783.236	81.17
783.413	81.03
783.59	83.41
783.768	80.11
783.945	83.25
784.122	86.48
784.299	82.9
784.476	81.54
784.653	81.75
784.83	78.36
785.007	76.42
785.184	76.27
785.361	75.87
785.538	80.9
785.715	84.03
785.892	85.36
786.069	87.82
786.246	88.11
786.423	85.37
786.6	82
786.776	85.8
786.953	84.07
787.13	83.89
787.307	83.94
787.484	83.67
787.66	79.9
787.837	80.32
788.014	80.6
788.191	80.35
788.367	80.44
788.544	84.79
788.721	84.37
788.897	87.45
789.074	87.52
789.25	87.29
789.427	83.64
789.603	82.36
789.78	81.84
789.956	78.98
790.133	77.99
790.309	77.87
790.486	81.57
790.662	78.32
790.839	81.19
791.015	84.11
791.192	84.63
791.368	86.62
791.544	84.49
791.721	82.34
791.897	81.58
792.073	77.67
792.249	67.6
792.426	73.75
792.602	78.22
792.778	75.06
792.954	76.43
793.13	79.54
793.307	70.58
793.483	61.15
793.659	67.2
793.835	71.38
794.011	71.41
794.187	72.28
794.363	75.12
794.539	71.82
794.715	67.99
794.891	68.95
795.067	68.47
795.243	76.77
795.419	75.4
795.595	72.07
795.771	74.5
795.947	78.88
796.122	71.02
796.298	74.96
796.474	74.55
796.65	73.33
796.826	68.95
797.001	69.55
797.177	64.18
797.353	71.27
797.529	70.56
797.704	73.95
797.88	77.18
798.056	75.73
798.231	69.01
798.407	75.11
798.582	75.25
798.758	80.68
798.934	90.39
799.109	95.6
799.285	89.39
799.46	90.53
799.636	84.28
799.811	79.8
799.986	80.34
800.162	79.54
800.337	80.37
800.513	74.49
800.688	70.63
800.863	73.33
801.039	73.01
801.214	69.47
801.389	73.31
801.565	75.16
801.74	67.76
801.915	72.67
802.09	70.25
802.265	77.56
802.441	68.85
802.616	73.82
802.791	68.4
802.966	70.54
803.141	64.34
803.316	68.55
803.491	68.3
803.666	77.59
803.841	75.64
804.016	73.26
804.191	72.49
804.366	71.09
804.541	65.53
804.716	67.92
804.891	64.27
805.066	67.68
805.241	65.96
805.416	64.67
805.591	61.89
805.765	70.26
805.94	73.32
806.115	73.82
806.29	64.68
806.464	62.81
806.639	53.44
806.814	41.78
806.989	31.95
807.163	51.39
807.338	52.41
807.512	59.23
807.687	56.88
807.862	70.22
808.036	67.39
808.211	76.22
808.385	82.01
808.56	101.31
808.734	105.43
808.909	97.53
809.083	85.87
809.258	84.18
809.432	81.6
809.606	66.96
809.781	64.18
809.955	72.35
810.13	70.91
810.304	53.61
810.478	50.36
810.652	60.44
810.827	62.45
811.001	58.91
811.175	64.13
811.349	70.46
811.524	63.92
811.698	45.06
811.872	44.41
812.046	53.15
812.22	58.4
812.394	59.82
812.568	72.38
812.742	72.88
812.916	68.63
813.09	58
813.264	53.18
813.438	52.62
813.612	50.76
813.786	43.54
813.96	54.44
814.134	58.41
814.308	69.61
814.482	73.51
814.656	74.97
814.83	75.57
815.003	73.68
815.177	57.67
815.351	54.3
815.525	57.69
815.698	51.92
815.872	44.45
816.046	43.36
816.219	50.23
816.393	53.76
816.567	60.94
816.74	61.49
816.914	68.14
817.088	68.18
817.261	70.57
817.435	51.79
817.608	61.75
817.782	50.53
817.955	53.87
818.129	46.44
818.302	52.13
818.475	62.12
818.649	72.74
818.822	56.61
818.996	71.83
819.169	84.21
819.342	66.5
819.516	71.74
819.689	84.64
819.862	68.94
820.035	56.96
820.209	51.77
820.382	52.01
820.555	49.25
820.728	46.53
820.901	38.5
821.075	51.17
821.248	50.94
821.421	51.34
821.594	58.17
821.767	81.71
821.94	85.7
822.113	65
822.286	58.32
822.459	64.51
822.632	59.02
822.805	45.7
822.978	40.61
823.151	47.51
823.324	33.09
823.496	12.66
823.669	13.01
823.842	28.98
824.015	3.93
824.188	-6.47
824.361	1.63
824.533	-2.83
824.706	21.03
824.879	27.92
825.051	40.29
825.224	37.08
825.397	49.59
825.569	31.17
825.742	50.01
825.915	62.92
826.087	86.09
826.26	55.44
826.432	44.68
826.605	40.3
826.777	23.75
826.95	15.96
827.122	13.68
827.295	19.22
827.467	22.79
827.64	-5.11
827.812	-1.12
827.984	11.84
828.157	4.31
828.329	-33.99
828.501	-0.13
828.674	27.56
828.846	15.66
829.018	34.99
829.19	35.7
829.363	54.2
829.535	42.25
829.707	33.25
829.879	9.99
830.051	6.43
830.223	-17.04
830.395	-46.38
830.568	-42.71
830.74	-32.86
830.912	8.95
831.084	4.26
831.256	14.68
831.428	6.69
831.6	-8.12
831.772	-44.29
831.943	-62.65
832.115	-39.98
832.287	-2.35
832.459	2.89
832.631	16.71
832.803	44.87
832.975	45.11
833.146	19.48
833.318	21.39
833.49	36.7
833.662	19.7
833.833	8.92
834.005	19.1
834.177	42.52
834.348	26.26
834.52	18.59
834.692	29.47
834.863	0.48
835.035	-35.06
835.206	-73.54
835.378	-39.92
835.549	-46.46
835.721	-21.7
835.892	-17.71
836.064	-20.33
836.235	-21.45
836.407	0.67
836.578	-13.09
836.749	-6.15
836.921	1.45
837.092	-75.19
837.264	-79.11
837.435	-83.71
837.606	-38.38
837.777	-3.81
837.949	39.4
838.12	39.17
838.291	52.79
838.462	55.03
838.633	23
838.805	5.57
838.976	23.97
839.147	-37.3
839.318	-61.37
839.489	-92.43
839.66	-74.42
839.831	-24.63
840.002	-11.33
840.173	-38.42
840.344	24.33
840.515	34.97
840.686	-119.54
840.857	-97.64
841.028	-63.81
841.199	-97.17
841.369	-105.09
841.54	-78.79
841.711	-25.21
841.882	-4.52
842.053	-4.73
842.223	-22.09
842.394	-10.07
842.565	-21.74
842.736	-13.86
842.906	3.51
843.077	31.27
843.248	27.81
843.418	20.13
843.589	-11.69
843.759	8.99
843.93	-12.37
844.101	1.87
844.271	10.53
844.442	36.12
844.612	42.71
844.783	17.74
844.953	7.11
845.123	27.89
845.294	30.47
845.464	-136.64
845.635	-16.19
845.805	60.94
845.975	22.81
846.146	-37.04
846.316	-24.09
846.486	-1.43
846.656	23.02
846.827	9.45
846.997	22.58
847.167	51.05
847.337	30.34
847.507	-36.22
847.677	-5.46
847.848	38.2
848.018	25.7
848.188	32.23
848.358	31.65
848.528	10.85
848.698	-46.49
848.868	-120.66
849.038	-258.77
849.208	-97.81
849.378	-39.89
849.548	-13.06
849.718	7.7
849.887	31.42
850.057	14.65
850.227	-21.98
850.397	-33.8
850.567	-107.02
850.737	-275.98
850.906	-1097.19
851.076	-692.77
851.246	-360.6
851.415	-22.84
851.585	11.05
851.755	-8.37
851.924	20.14
852.094	38.6
852.264	-26.27
852.433	-688.22
852.603	-117.76
852.772	-57.94
852.942	-38.16
853.111	-33.72
853.281	-7.93
853.45	46.03
853.62	5.51
853.789	13.94
853.959	54.63
854.128	19.19
854.297	-44.51
854.467	-99.97
854.636	-82.89
854.805	-10.17
854.975	-8.64
855.144	10.21
855.313	334.44
855.482	-200.55
855.652	-222.45
855.821	-205.45
855.99	-48.98
856.159	-13.78
856.328	20.95
856.497	-0.67
856.667	4.39
856.836	34.43
857.005	0.7
857.174	-53.87
857.343	-63.07
857.512	-52.7
857.681	-155.55
857.85	-203.31
858.019	-78.86
858.188	-61.87
858.356	-73.12
858.525	-111.65
858.694	-92.3
858.863	-258.4
859.032	-178.85
859.201	-209.23
859.369	-92.28
859.538	-57.82
859.707	-28.42
859.876	-36.1
860.044	-33.16
860.213	15.71
860.382	0.38
860.55	-1.26
860.719	20.07
860.888	25.64
861.056	-38.68
861.225	-50.21
861.393	-19.43
861.562	-40.4
861.73	-130.42
861.899	-283.64
862.067	-2075
862.236	-124.82
862.404	-280.62
862.572	-142.55
862.741	-19.66
862.909	-28.97
863.078	-142.59
863.246	-92.08
863.414	-80.11
863.582	-80.97
863.751	-77.02
863.919	-12.79
864.087	38.4
864.255	25.46
864.424	-188.35
864.592	10.92
864.76	-90.12
864.928	-344.6
865.096	-155.33
865.264	-150.88
865.432	-1810.8
865.6	-0.88
865.768	-66.38
865.936	-110.17
866.104	-121.33
866.272	-223.67
866.44	-546.36
866.608	840.62
866.776	320.1
866.944	2752.91
867.112	-455.83
867.28	-167.26
867.448	-54.9
867.615	-27.02
867.783	-3.87
867.951	-24.71
868.119	2.68
868.286	-50.35
868.454	-187.56
868.622	-207.34
868.789	-246.52
868.957	-5841.07
869.125	-3280.92
869.292	-204.61
869.46	-241.48
869.627	-21.06
869.795	-37.45
869.963	4.54
870.13	-0.4
870.298	20.51
870.465	-77.53
870.632	-65.88
870.8	-37.57
870.967	-77.24
871.135	-135.1
871.302	-115.45
871.469	-126.49
871.637	-218.42
871.804	-80.82
871.971	-127.22
872.139	-416.63
872.306	-36.8
872.473	-65.8
872.64	-344.53
872.807	-165.18
872.975	3.39
873.142	-334.45
873.309	2729.05
873.476	-67.49
873.643	-36.51
873.81	-74.08
873.977	-0.26
874.144	30.61
874.311	-83
874.478	-128.43
874.645	-165.87
874.812	-109.97
874.979	-45.14
875.146	-66.33
875.313	-71.36
875.48	-6.97
875.647	-0.77
875.813	-44.72
875.98	-15.15
876.147	-24.37
876.314	-71.8
876.481	854.34
876.647	-1215.45
876.814	604.02
876.981	-180.67
877.147	-27.67
877.314	-6.3
877.481	31.93
877.647	66.48
877.814	9.34
877.98	-105.16
878.147	-45.08
878.314	-9.18
878.48	-106.83
878.647	-55.42
878.813	49.87
878.979	45.07
879.146	10.01
879.312	2.55
879.479	-39.16
879.645	-159.95
879.811	-373.42
879.978	-999.81
880.144	-249.09
880.31	-94.34
880.477	-300.53
880.643	-297.45
880.809	-100.58
880.975	-134.12
881.142	-890.68
881.308	-121.63
881.474	-103.35
881.64	-114.51
881.806	-127.78
881.972	-51.93
882.138	-79.32
882.304	-34.22
882.47	-145.29
882.636	-709.63
882.802	-266.16
882.968	-51.98
883.134	-33.85
883.3	-38.96
883.466	18.31
883.632	51.82
883.798	1.79
883.964	-39.33
884.129	-50.66
884.295	-25.75
884.461	-93.57
884.627	-104.86
884.793	-100.41
884.958	-44.69
885.124	-163.3
885.29	-257.94
885.455	-430.46
885.621	-125.88
885.787	-195.57
885.952	-87.01
886.118	-75.31
886.283	-56.69
886.449	-163.01
886.614	-185.67
886.78	-279.9
886.945	1065.16
887.111	-705.06
887.276	-585.65
887.442	-1016.14
887.607	-585.26
887.773	-424.76
887.938	-307.51
888.103	-380.42
888.269	-253.54
888.434	-393.38
888.599	-113.45
888.764	31.88
888.93	56.55
889.095	26.33
889.26	-21.33
889.425	34.99
889.59	21.03
889.756	-7.81
889.921	-7.81
890.086	53.77
890.251	12.34
890.416	-144.57
890.581	-1623.79
890.746	211.7
890.911	360.35
891.076	183.6
891.241	-417.72
891.406	3.01
891.571	-69.37
891.736	-332.45
891.901	-567.04
892.065	684.34
892.23	131.23
892.395	201.13
892.56	330.85
892.725	-591.99
892.889	-1767.68
893.054	-326.1
893.219	-147.66
893.384	-77.58
893.548	-106.83
893.713	-119.39
893.878	-75.58
