Data from Ofra_PS_T2_2A_8HS21_Reflection_3.txt Node
Date: Wed Jul 21 17:19:43 EDT 2021
User: Adam
Spectrometer: FLMT01687
Trigger mode: 0
Integration Time (sec): 1.100000E0
Scans to average: 2
Electric dark correction enabled: true
Nonlinearity correction enabled: false
Boxcar width: 2
XAxis mode: Wavelengths
Number of Pixels in Spectrum: 3648
>>>>>Begin Spectral Data<<<<<
179.494	412.8
179.716	518.82
179.937	477.22
180.158	463.5
180.38	631.87
180.601	253.59
180.823	92.07
181.044	91
181.265	388.24
181.486	192.23
181.708	166.28
181.929	838.78
182.15	-173.24
182.372	112.5
182.593	136.93
182.814	77.97
183.035	136.7
183.257	118
183.478	146.17
183.699	110.55
183.92	70.97
184.141	61.32
184.363	41.16
184.584	62.15
184.805	60.68
185.026	99.27
185.247	104.66
185.468	88.06
185.689	118.42
185.91	126.16
186.132	117.46
186.353	96.76
186.574	132.46
186.795	78.1
187.016	23.73
187.237	8.97
187.458	-3.66
187.679	-20.24
187.9	10.87
188.121	31.42
188.342	110.68
188.563	114.79
188.784	172.11
189.005	166
189.226	224.05
189.447	151.44
189.667	133.98
189.888	-96.06
190.109	-853.25
190.33	-588.39
190.551	-929.2
190.772	-116.95
190.993	-79.47
191.214	-14.41
191.434	16.46
191.655	76.2
191.876	36.23
192.097	1.05
192.318	-62.7
192.538	-113.49
192.759	-107.38
192.98	-4.02
193.201	33.18
193.421	50.99
193.642	42.52
193.863	39.44
194.083	19.31
194.304	16.32
194.525	17.29
194.745	17.55
194.966	15.03
195.187	-3.02
195.407	-3.63
195.628	-35.01
195.848	-33.62
196.069	-29.4
196.29	33.78
196.51	-23.69
196.731	-9.32
196.951	-17.9
197.172	-48.41
197.392	-107.43
197.613	-74.81
197.833	-111.49
198.054	-73.37
198.274	-8.38
198.495	-21.24
198.715	9.16
198.936	3.58
199.156	-11.74
199.377	-91.78
199.597	-79.41
199.817	-105.98
200.038	-47.62
200.258	-72.72
200.479	-9.65
200.699	31.8
200.919	92.78
201.14	65.13
201.36	40.05
201.58	47.24
201.801	60.57
202.021	17.47
202.241	15.24
202.461	26.61
202.682	-35.86
202.902	-105.32
203.122	-34.52
203.342	-24.05
203.563	7.59
203.783	44.59
204.003	33.27
204.223	40.62
204.443	72.74
204.663	64.57
204.884	61
205.104	89.1
205.324	100.42
205.544	112.78
205.764	122.49
205.984	116.75
206.204	103.93
206.424	92.94
206.644	78.41
206.864	36.71
207.084	0.89
207.304	34.56
207.525	-116.25
207.745	-62.48
207.964	4.82
208.184	-42.41
208.404	-82
208.624	-71.42
208.844	-65.99
209.064	-338.71
209.284	-331.09
209.504	-131.14
209.724	5.85
209.944	6.96
210.164	35.49
210.384	40.14
210.604	5.82
210.823	-59.06
211.043	-80.07
211.263	-53.5
211.483	-43.31
211.703	-66.47
211.922	-21.17
212.142	53.76
212.362	88.64
212.582	51.69
212.801	56.54
213.021	21.17
213.241	-8.81
213.461	-57.76
213.68	-71.86
213.9	-51.96
214.12	-20.33
214.339	-60.46
214.559	-32.44
214.779	26.24
214.998	41.06
215.218	24.95
215.438	35.87
215.657	22.18
215.877	15.66
216.096	31.08
216.316	39.34
216.535	46.88
216.755	50.27
216.974	33.53
217.194	-21.19
217.413	-18.56
217.633	-1.22
217.852	-76.01
218.072	-38.73
218.291	0.45
218.511	37.71
218.73	-3.82
218.95	3.18
219.169	-2.23
219.389	-53.4
219.608	-47.84
219.827	-17.95
220.047	12.24
220.266	24.09
220.485	51.32
220.705	56.28
220.924	19.94
221.143	57.55
221.363	45.27
221.582	52.58
221.801	72.28
222.021	96.31
222.24	46.93
222.459	113.08
222.678	48.3
222.897	-32.75
223.117	-74.62
223.336	-51.74
223.555	-27.63
223.774	40.97
223.993	67.15
224.213	130.53
224.432	106.47
224.651	101.69
224.87	70.63
225.089	75.47
225.308	45.21
225.527	57.38
225.746	59.45
225.965	37.07
226.184	26.74
226.404	33.01
226.623	23.34
226.842	23.49
227.061	58.45
227.28	51.7
227.499	49.77
227.718	63.16
227.936	65.21
228.155	80.34
228.374	79.75
228.593	81.26
228.812	88.3
229.031	81.27
229.25	28.24
229.469	41.01
229.688	49.6
229.907	50.5
230.125	56.96
230.344	51.67
230.563	39.56
230.782	46.73
231.001	-12.02
231.22	-22.86
231.438	25.13
231.657	36.68
231.876	18.74
232.095	63.04
232.313	74.72
232.532	55.79
232.751	10.23
232.969	29.49
233.188	-60.1
233.407	10.81
233.625	24.23
233.844	31.95
234.063	53.85
234.281	69.45
234.5	58.71
234.719	59.58
234.937	82.6
235.156	59.86
235.374	65.88
235.593	64.59
235.811	73.07
236.03	55.43
236.249	30.68
236.467	8.12
236.686	12.95
236.904	17.23
237.123	-0.49
237.341	13.48
237.559	28.98
237.778	17.72
237.996	-1.99
238.215	39.91
238.433	45.32
238.652	43.87
238.87	25.75
239.088	40.97
239.307	34.84
239.525	35.13
239.743	-0.22
239.962	13.45
240.18	-8.77
240.398	-64.41
240.617	-80.48
240.835	-37.35
241.053	7.15
241.271	58.49
241.49	68.53
241.708	77.41
241.926	52.37
242.144	26.53
242.363	-31.26
242.581	-42.46
242.799	4.6
243.017	30.68
243.235	22.7
243.453	45.09
243.672	48.18
243.89	39.96
244.108	28.59
244.326	32.76
244.544	40.38
244.762	35.29
244.98	48.11
245.198	59.38
245.416	48.35
245.634	32.31
245.852	37.44
246.07	30.09
246.288	24.49
246.506	14.08
246.724	31.56
246.942	29.2
247.16	63.4
247.378	68.94
247.596	97.57
247.814	98.53
248.032	58.88
248.25	37.64
248.468	25.79
248.685	18.38
248.903	48.23
249.121	61.75
249.339	33.82
249.557	30.1
249.775	38.68
249.992	-30.48
250.21	-21.15
250.428	-10.72
250.646	-22.81
250.863	-59.45
251.081	-25.89
251.299	-32.93
251.517	-17.71
251.734	0.23
251.952	16.43
252.17	9.01
252.387	25.86
252.605	12.73
252.823	21.26
253.04	33.55
253.258	47.38
253.475	42.25
253.693	70.09
253.911	50.3
254.128	48.19
254.346	47.04
254.563	26.81
254.781	-6.05
254.998	-26.92
255.216	-21.22
255.433	-1.19
255.651	50.89
255.868	100.96
256.086	120.83
256.303	93.63
256.521	72.04
256.738	37.73
256.956	-1.89
257.173	-13.6
257.39	-10.14
257.608	-29.22
257.825	47.31
258.043	91.68
258.26	85.21
258.477	114.92
258.695	107.67
258.912	59.72
259.129	52.18
259.346	8.34
259.564	-31.24
259.781	-30.87
259.998	27.39
260.216	38.33
260.433	103.26
260.65	92.6
260.867	92.33
261.084	67.56
261.302	58.43
261.519	43.16
261.736	17.78
261.953	2.32
262.17	27.29
262.387	0.53
262.604	-44.48
262.822	-37.57
263.039	-17.8
263.256	-57.29
263.473	-5.87
263.69	3.51
263.907	33.81
264.124	53.14
264.341	56.26
264.558	37.61
264.775	69.27
264.992	60.61
265.209	51.21
265.426	66.65
265.643	73.84
265.86	74.02
266.077	88.11
266.294	83.32
266.51	55
266.727	40.61
266.944	30.5
267.161	11.78
267.378	12.74
267.595	6.22
267.812	-16.85
268.028	-45.45
268.245	-12.93
268.462	-22.81
268.679	-13.68
268.896	36.12
269.112	47.05
269.329	45
269.546	68.3
269.763	68.73
269.979	49.56
270.196	44.15
270.413	5.71
270.629	-33.78
270.846	-56.6
271.063	-30.55
271.279	-41.47
271.496	-27.16
271.712	17.77
271.929	55.19
272.146	35.14
272.362	42
272.579	78.37
272.795	68
273.012	74.51
273.228	86.04
273.445	64.99
273.661	51.79
273.878	10.51
274.094	-3.75
274.311	-28.99
274.527	28.92
274.744	27.96
274.96	20.89
275.177	23.28
275.393	41.37
275.609	31.3
275.826	48.76
276.042	45.4
276.259	21.98
276.475	31.81
276.691	43.02
276.908	15.63
277.124	38.68
277.34	58.89
277.557	51.46
277.773	29.87
277.989	44.04
278.205	39.82
278.422	50.32
278.638	49.59
278.854	73.16
279.07	72.56
279.286	47.03
279.503	20.84
279.719	21.15
279.935	-15.09
280.151	-27.41
280.367	18
280.583	6.91
280.799	0
281.016	-7.5
281.232	18.21
281.448	27.96
281.664	47.62
281.88	39.45
282.096	48.91
282.312	70.71
282.528	61.13
282.744	58.3
282.96	52.64
283.176	35.7
283.392	18.12
283.608	6.4
283.824	3.04
284.04	10.79
284.256	25.32
284.471	15.6
284.687	24.75
284.903	54.01
285.119	84.2
285.335	67.53
285.551	99.39
285.767	79.64
285.982	63.4
286.198	19.24
286.414	60.44
286.63	56.94
286.846	73.48
287.061	40.11
287.277	75.12
287.493	44.75
287.709	50.49
287.924	24.72
288.14	68.78
288.356	61.41
288.571	82.36
288.787	67.04
289.003	66.75
289.218	44.25
289.434	-5.27
289.65	-4.7
289.865	-10.39
290.081	11.68
290.296	31.14
290.512	44.05
290.727	12.87
290.943	19.18
291.159	4.64
291.374	-3.12
291.59	-17.23
291.805	-2.12
292.021	-3.16
292.236	0.86
292.451	18.83
292.667	23.81
292.882	52.73
293.098	57.45
293.313	48.99
293.529	23.79
293.744	38.06
293.959	-12.08
294.175	-3.2
294.39	31.73
294.605	44.5
294.821	72.12
295.036	87.29
295.251	90.51
295.467	72.22
295.682	84.1
295.897	26.09
296.112	20.94
296.328	12.07
296.543	-6.2
296.758	-17.58
296.973	21.11
297.188	41.05
297.404	26.51
297.619	30.02
297.834	13.73
298.049	-1.67
298.264	-23.27
298.479	18.2
298.694	26.29
298.909	44.94
299.125	50.02
299.34	56.5
299.555	35.92
299.77	43.55
299.985	3.03
300.2	-42.12
300.415	-55.72
300.63	-26.86
300.845	-42.32
301.06	-28.81
301.275	7.01
301.49	22.03
301.704	12.49
301.919	-2.75
302.134	-17.12
302.349	-23.42
302.564	-66.72
302.779	-68.95
302.994	6.58
303.209	55.42
303.423	95.63
303.638	102.43
303.853	56.11
304.068	43.17
304.283	33.9
304.497	20.83
304.712	10.51
304.927	25.78
305.142	22.29
305.356	36.86
305.571	34.32
305.786	18.12
306	3.88
306.215	5.33
306.43	-15.47
306.644	-5.92
306.859	80.14
307.074	89.46
307.288	54
307.503	51.57
307.717	28.67
307.932	3.37
308.147	-2.1
308.361	16.8
308.576	15.85
308.79	-5.63
309.005	-8.18
309.219	9.45
309.434	12.81
309.648	7.17
309.863	22.97
310.077	31.18
310.292	22.36
310.506	27.65
310.72	44.74
310.935	67.29
311.149	60.58
311.364	81.02
311.578	88.66
311.792	86.87
312.007	84.26
312.221	62.95
312.435	55.15
312.649	34.66
312.864	94.84
313.078	86.97
313.292	160.04
313.507	160.3
313.721	205.16
313.935	79.53
314.149	77.06
314.363	62.42
314.578	58.65
314.792	48.63
315.006	38.58
315.22	37.44
315.434	47.04
315.648	50.54
315.862	49.73
316.077	43.72
316.291	45.34
316.505	49.92
316.719	64.36
316.933	50.18
317.147	78.88
317.361	18.86
317.575	-17.3
317.789	-61.12
318.003	-88.66
318.217	-99.45
318.431	12.1
318.645	45.96
318.859	45.62
319.073	63.57
319.287	43.99
319.5	9.52
319.714	-22.42
319.928	-34.19
320.142	-52.98
320.356	24.82
320.57	56.93
320.784	29.53
320.997	39.84
321.211	65.11
321.425	-5.95
321.639	-42.56
321.853	29.87
322.066	30.61
322.28	10.83
322.494	17.19
322.707	44.37
322.921	17.29
323.135	9.28
323.349	35.55
323.562	22.61
323.776	14.18
323.989	27.9
324.203	21.2
324.417	12.38
324.63	5.85
324.844	0
325.057	-1.05
325.271	24.05
325.485	18.06
325.698	39.39
325.912	49.03
326.125	32.18
326.339	20.89
326.552	0
326.766	5.86
326.979	30
327.193	59.15
327.406	57.3
327.619	59.13
327.833	77.4
328.046	37.98
328.26	1.76
328.473	24.57
328.686	7.76
328.9	-3.27
329.113	18.01
329.326	11.92
329.54	29.77
329.753	41.15
329.966	29.3
330.179	21.49
330.393	34.92
330.606	16.1
330.819	28.4
331.032	33.67
331.246	45.04
331.459	66.65
331.672	63.78
331.885	68.15
332.098	53.22
332.311	48.32
332.525	-4.81
332.738	36.01
332.951	42.95
333.164	66
333.377	73.53
333.59	87.89
333.803	70.74
334.016	61.88
334.229	76.41
334.442	81.61
334.655	95.79
334.868	109.73
335.081	94.55
335.294	68.1
335.507	61.17
335.72	51.19
335.933	28.51
336.146	40.14
336.359	50.63
336.572	15.05
336.785	-19.26
336.997	-8.5
337.21	7.05
337.423	-3.66
337.636	16.18
337.849	40.42
338.062	25.68
338.274	22.96
338.487	7.88
338.7	-0.2
338.913	-46.79
339.125	-51.76
339.338	-102.13
339.551	-42.98
339.763	-20.35
339.976	27.31
340.189	43.94
340.402	58.86
340.614	24.71
340.827	27.01
341.039	2.26
341.252	12.37
341.465	28.23
341.677	45.72
341.89	22.87
342.102	62.19
342.315	35.54
342.527	-0.24
342.74	-7.35
342.952	27.64
343.165	7.61
343.377	39.71
343.59	35.57
343.802	44.05
344.015	50.17
344.227	60.07
344.44	50.42
344.652	52.59
344.864	45.2
345.077	49.23
345.289	49.1
345.502	53.76
345.714	48.55
345.926	50.74
346.139	41.23
346.351	50.65
346.563	45.77
346.775	54.25
346.988	45.11
347.2	37.78
347.412	-8.03
347.624	-11.26
347.837	-20.96
348.049	2.61
348.261	13.94
348.473	30.75
348.685	36.44
348.897	26.89
349.11	4.97
349.322	0
349.534	4.59
349.746	-5.04
349.958	19.57
350.17	47.07
350.382	53.84
350.594	50.12
350.806	56.8
351.018	42.08
351.23	28.85
351.442	-12.15
351.654	0.27
351.866	7.08
352.078	20.25
352.29	29.54
352.502	43.19
352.714	51.88
352.926	41.65
353.138	35.17
353.35	22.03
353.561	21.81
353.773	3.84
353.985	4.49
354.197	4.22
354.409	17.21
354.621	10.81
354.832	14.91
355.044	17.31
355.256	20.98
355.468	18.41
355.679	19.73
355.891	29.1
356.103	21.11
356.314	32.09
356.526	40.24
356.738	44.79
356.949	38.52
357.161	59
357.373	29.81
357.584	11.12
357.796	18.1
358.008	13.42
358.219	29.47
358.431	34.65
358.642	52.55
358.854	54.53
359.065	45.75
359.277	7.5
359.488	2.51
359.7	-15.47
359.911	-36.93
360.123	-8.09
360.334	-16.35
360.546	-12.56
360.757	-20.13
360.969	7.65
361.18	7.65
361.391	18.7
361.603	5.93
361.814	16.71
362.025	2.4
362.237	-8.86
362.448	11.29
362.659	23.72
362.871	24.15
363.082	27.22
363.293	42.68
363.504	20.88
363.716	-5.12
363.927	-1.24
364.138	-17.62
364.349	-37.71
364.56	-17.31
364.772	-9.73
364.983	5.47
365.194	9
365.405	25.37
365.616	39.02
365.827	51.61
366.038	36.8
366.25	33.03
366.461	-5.31
366.672	7.85
366.883	26.66
367.094	28.77
367.305	25.89
367.516	41.1
367.727	18.61
367.938	-2.37
368.149	-2.8
368.36	4.81
368.571	13.77
368.781	-0
368.992	-4.08
369.203	-13.84
369.414	-21.38
369.625	-26.18
369.836	-10.69
370.047	-19.26
370.258	-15.41
370.468	-19.21
370.679	-40.55
370.89	-36
371.101	-18.84
371.312	-17.55
371.522	-12.45
371.733	0.41
371.944	11.92
372.155	26.41
372.365	22.13
372.576	31.68
372.787	28.49
372.997	4.33
373.208	-5.07
373.419	19.45
373.629	-18.95
373.84	-15.71
374.05	-6.61
374.261	-4.06
374.472	-14.39
374.682	30.39
374.893	31.32
375.103	57.33
375.314	54.61
375.524	50.7
375.735	49.33
375.945	52.91
376.156	27.75
376.366	26.81
376.577	29.23
376.787	11.74
376.997	20.76
377.208	23.68
377.418	21.9
377.629	29.56
377.839	38.78
378.049	28.17
378.26	31.48
378.47	36.81
378.68	21.13
378.89	19.2
379.101	13.8
379.311	-1.7
379.521	-33.11
379.732	-15.94
379.942	-16.18
380.152	-31.65
380.362	-11.73
380.572	-7.56
380.783	7.22
380.993	13.61
381.203	35.75
381.413	52.46
381.623	61.56
381.833	44.51
382.043	37.8
382.253	28.58
382.463	16.9
382.674	5.72
382.884	-9.8
383.094	-10.27
383.304	-0.62
383.514	5.26
383.724	19.29
383.934	18.12
384.144	11.58
384.353	-5.46
384.563	-5.22
384.773	-0.08
384.983	-1.8
385.193	15.38
385.403	24.12
385.613	27.47
385.823	18.15
386.033	28.41
386.242	24.23
386.452	19.41
386.662	6.98
386.872	21.23
387.082	16.3
387.291	10.11
387.501	17.07
387.711	27.93
387.921	9.94
388.13	11.39
388.34	28.07
388.55	20.37
388.759	15.79
388.969	26.12
389.179	24.35
389.388	16.69
389.598	23.96
389.807	21.82
390.017	12.53
390.227	12.28
390.436	10.03
390.646	10.16
390.855	14.14
391.065	16.63
391.274	15.94
391.484	13.29
391.693	14.34
391.903	15.16
392.112	21.04
392.322	22.76
392.531	27.76
392.74	27.3
392.95	24.15
393.159	21.93
393.369	21.12
393.578	19.48
393.787	18.29
393.997	19.88
394.206	19.42
394.415	20.16
394.625	20.19
394.834	18.63
395.043	18.56
395.252	19.75
395.462	20.58
395.671	22.02
395.88	23.86
396.089	24.44
396.298	22.55
396.508	23.09
396.717	21.41
396.926	21.24
397.135	21.35
397.344	21.77
397.553	21.95
397.762	23.76
397.971	23.44
398.181	23.02
398.39	22.24
398.599	21.78
398.808	21.29
399.017	21.92
399.226	23.1
399.435	24.89
399.644	25.06
399.853	24.03
400.062	23.73
400.27	22.75
400.479	21.84
400.688	21.37
400.897	22.06
401.106	22.04
401.315	22.06
401.524	21.94
401.733	22.67
401.941	22.9
402.15	23.02
402.359	22.94
402.568	23.12
402.777	23
402.985	22.65
403.194	22.41
403.403	22.72
403.612	22.41
403.82	21.83
404.029	21.99
404.238	22
404.446	21.95
404.655	21.91
404.864	22
405.072	21.55
405.281	21.8
405.489	21.34
405.698	21.34
405.906	21.29
406.115	21.15
406.324	20.89
406.532	21.04
406.741	21.2
406.949	20.96
407.158	21.15
407.366	21.12
407.574	20.95
407.783	20.75
407.991	20.64
408.2	20.72
408.408	20.54
408.617	20.45
408.825	20.36
409.033	20.41
409.242	20.3
409.45	20.4
409.658	20.36
409.867	20.41
410.075	20.28
410.283	19.94
410.491	19.71
410.7	19.67
410.908	19.47
411.116	19.68
411.324	19.76
411.533	19.77
411.741	19.9
411.949	19.98
412.157	19.61
412.365	19.65
412.573	19.56
412.781	19.36
412.99	19.21
413.198	19.34
413.406	19.16
413.614	19.07
413.822	18.93
414.03	18.89
414.238	18.63
414.446	18.8
414.654	18.62
414.862	18.77
415.07	18.72
415.278	18.93
415.486	18.6
415.694	18.69
415.902	18.47
416.109	18.36
416.317	18.26
416.525	18.02
416.733	17.91
416.941	17.88
417.149	17.89
417.357	17.92
417.564	18.28
417.772	18.34
417.98	18.45
418.188	18.43
418.395	18.36
418.603	18.42
418.811	18.33
419.019	18.02
419.226	18.17
419.434	18.21
419.642	17.81
419.849	17.81
420.057	17.78
420.265	17.68
420.472	17.39
420.68	17.48
420.887	17.17
421.095	17.47
421.302	17.23
421.51	17.47
421.717	17.58
421.925	17.88
422.132	17.62
422.34	17.47
422.547	17.39
422.755	17.23
422.962	17.13
423.17	16.98
423.377	17.16
423.585	17.24
423.792	17.24
423.999	17.23
424.207	17.29
424.414	17.26
424.621	17.06
424.829	17.08
425.036	17.2
425.243	17.31
425.451	17.22
425.658	17.23
425.865	17.48
426.072	17.35
426.28	17.58
426.487	17.46
426.694	17.45
426.901	17.14
427.108	17.21
427.315	16.99
427.523	17.52
427.73	17.65
427.937	17.77
428.144	17.65
428.351	17.75
428.558	17.83
428.765	17.73
428.972	17.71
429.179	17.87
429.386	18.21
429.593	17.82
429.8	17.84
430.007	18.07
430.214	18.23
430.421	17.86
430.628	18
430.835	17.99
431.042	18.1
431.249	18.19
431.456	18.23
431.662	18.31
431.869	18.51
432.076	18.55
432.283	18.62
432.49	18.68
432.697	18.72
432.903	18.56
433.11	18.44
433.317	18.44
433.524	18.79
433.73	18.87
433.937	19.39
434.144	19.4
434.35	19.42
434.557	19.25
434.764	19.41
434.97	19.05
435.177	19.4
435.384	19.42
435.59	19.46
435.797	19.6
436.003	19.89
436.21	19.69
436.416	19.79
436.623	19.91
436.829	19.93
437.036	19.96
437.242	20.12
437.449	20.17
437.655	20.3
437.862	20.3
438.068	20.28
438.275	20.38
438.481	20.59
438.687	20.62
438.894	20.56
439.1	20.71
439.307	20.96
439.513	20.86
439.719	20.94
439.926	21.12
440.132	21.16
440.338	20.89
440.544	21.15
440.751	21.07
440.957	21.18
441.163	21.18
441.369	21.32
441.575	21.16
441.782	21.33
441.988	21.32
442.194	21.35
442.4	21.37
442.606	21.61
442.812	21.65
443.018	21.78
443.224	21.92
443.431	22.24
443.637	22.22
443.843	22.07
444.049	22.16
444.255	22.1
444.461	22.04
444.667	22.01
444.873	22.37
445.079	22.31
445.284	22.42
445.49	22.17
445.696	22.07
445.902	21.93
446.108	21.95
446.314	21.88
446.52	22.12
446.726	22.31
446.931	22.36
447.137	22.45
447.343	22.67
447.549	22.47
447.755	22.55
447.96	22.59
448.166	22.45
448.372	22.31
448.578	22.54
448.783	22.46
448.989	22.62
449.195	22.88
449.4	23.03
449.606	23.04
449.812	23.07
450.017	22.94
450.223	22.82
450.428	22.81
450.634	23.01
450.84	23.13
451.045	23.18
451.251	23.14
451.456	23.36
451.662	23.23
451.867	23.27
452.073	23.29
452.278	23.52
452.483	23.58
452.689	23.57
452.894	23.63
453.1	23.66
453.305	23.56
453.51	23.31
453.716	23.31
453.921	23.41
454.127	23.36
454.332	23.29
454.537	23.34
454.742	23.31
454.948	23.15
455.153	23.27
455.358	23.4
455.563	23.66
455.769	23.84
455.974	23.86
456.179	23.69
456.384	23.64
456.589	23.52
456.795	23.3
457	23.33
457.205	23.66
457.41	23.75
457.615	23.72
457.82	23.95
458.025	23.97
458.23	23.84
458.435	23.92
458.64	23.96
458.845	24.06
459.05	24.03
459.255	24.05
459.46	24.01
459.665	23.96
459.87	23.87
460.075	23.85
460.28	23.94
460.485	23.91
460.69	23.97
460.895	23.97
461.099	23.99
461.304	24.01
461.509	24.02
461.714	23.85
461.919	23.88
462.123	23.87
462.328	23.99
462.533	23.99
462.738	24.23
462.942	24.26
463.147	24.31
463.352	24.25
463.556	24.37
463.761	24.42
463.966	24.4
464.17	24.5
464.375	24.53
464.58	24.4
464.784	24.38
464.989	24.51
465.193	24.68
465.398	24.59
465.602	24.88
465.807	24.91
466.011	24.93
466.216	25
466.42	25.21
466.625	25.1
466.829	25.19
467.034	25.3
467.238	25.36
467.443	25.29
467.647	25.34
467.851	25.35
468.056	25.44
468.26	25.36
468.464	25.47
468.669	25.53
468.873	25.81
469.077	25.8
469.282	25.96
469.486	26.08
469.69	26.22
469.894	25.9
470.099	26.05
470.303	26.1
470.507	25.96
470.711	25.85
470.915	25.92
471.119	25.82
471.324	25.71
471.528	25.88
471.732	26.1
471.936	26.32
472.14	26.4
472.344	26.69
472.548	26.75
472.752	26.81
472.956	27.08
473.16	27.06
473.364	26.91
473.568	26.88
473.772	26.97
473.976	26.83
474.18	26.93
474.384	27.01
474.588	27.01
474.792	26.96
474.995	27
475.199	27.12
475.403	27.21
475.607	27.37
475.811	27.36
476.015	27.5
476.218	27.64
476.422	27.67
476.626	27.72
476.83	27.9
477.033	27.82
477.237	27.72
477.441	27.78
477.644	27.79
477.848	27.78
478.052	27.78
478.255	27.91
478.459	27.98
478.663	28.18
478.866	28.23
479.07	28.36
479.273	28.47
479.477	28.49
479.681	28.46
479.884	28.53
480.088	28.49
480.291	28.44
480.495	28.43
480.698	28.53
480.901	28.61
481.105	28.71
481.308	28.73
481.512	28.8
481.715	28.8
481.919	28.84
482.122	28.89
482.325	28.97
482.529	29.02
482.732	29.05
482.935	29
483.138	29.03
483.342	29.1
483.545	29.3
483.748	29.36
483.952	29.46
484.155	29.55
484.358	29.58
484.561	29.48
484.764	29.51
484.967	29.58
485.171	29.78
485.374	29.72
485.577	29.81
485.78	29.93
485.983	29.92
486.186	29.76
486.389	29.84
486.592	29.84
486.795	29.76
486.998	29.69
487.201	29.75
487.404	29.82
487.607	29.91
487.81	29.96
488.013	30.01
488.216	29.92
488.419	29.86
488.622	29.77
488.825	29.83
489.028	29.82
489.231	29.74
489.433	29.67
489.636	29.71
489.839	29.56
490.042	29.57
490.245	29.63
490.447	29.82
490.65	29.8
490.853	29.94
491.056	29.96
491.258	30.1
491.461	30.04
491.664	30.01
491.866	29.98
492.069	30.12
492.272	30.03
492.474	30.1
492.677	30.15
492.879	30.11
493.082	30.13
493.285	30.34
493.487	30.31
493.69	30.27
493.892	30.31
494.095	30.3
494.297	30.2
494.5	30.13
494.702	30.19
494.905	30.23
495.107	30.21
495.309	30.21
495.512	30.34
495.714	30.38
495.917	30.41
496.119	30.37
496.321	30.38
496.524	30.41
496.726	30.46
496.928	30.41
497.13	30.46
497.333	30.53
497.535	30.59
497.737	30.54
497.939	30.71
498.142	30.77
498.344	30.74
498.546	30.63
498.748	30.73
498.95	30.71
499.152	30.74
499.355	30.79
499.557	30.96
499.759	30.98
499.961	30.98
500.163	31.03
500.365	31.02
500.567	31.08
500.769	31.03
500.971	31.02
501.173	30.95
501.375	31.02
501.577	30.9
501.779	30.95
501.981	30.94
502.183	30.95
502.385	30.91
502.587	30.93
502.788	31.04
502.99	31.1
503.192	31.21
503.394	31.21
503.596	31.2
503.798	31.26
503.999	31.3
504.201	31.37
504.403	31.47
504.605	31.53
504.806	31.39
505.008	31.44
505.21	31.46
505.411	31.5
505.613	31.59
505.815	31.65
506.016	31.77
506.218	31.91
506.42	31.87
506.621	31.78
506.823	31.87
507.024	31.72
507.226	31.58
507.427	31.59
507.629	31.69
507.83	31.79
508.032	31.79
508.233	31.92
508.435	32.09
508.636	32.24
508.838	32.15
509.039	32.33
509.24	32.38
509.442	32.32
509.643	32.18
509.845	32.23
510.046	32.23
510.247	32.27
510.448	32.27
510.65	32.42
510.851	32.57
511.052	32.56
511.254	32.47
511.455	32.56
511.656	32.61
511.857	32.61
512.058	32.61
512.26	32.68
512.461	32.66
512.662	32.64
512.863	32.58
513.064	32.63
513.265	32.58
513.466	32.66
513.667	32.63
513.868	32.66
514.069	32.77
514.27	32.95
514.471	32.94
514.672	33.02
514.873	33.05
515.074	33.06
515.275	32.98
515.476	33.05
515.677	33.04
515.878	33.25
516.079	33.19
516.28	33.24
516.481	33.32
516.682	33.41
516.882	33.31
517.083	33.25
517.284	33.2
517.485	33.12
517.686	32.99
517.886	32.89
518.087	33.05
518.288	33.12
518.488	33.11
518.689	33.25
518.89	33.38
519.091	33.42
519.291	33.41
519.492	33.55
519.692	33.57
519.893	33.57
520.094	33.56
520.294	33.48
520.495	33.44
520.695	33.48
520.896	33.5
521.096	33.48
521.297	33.6
521.497	33.64
521.698	33.66
521.898	33.63
522.099	33.63
522.299	33.69
522.499	33.74
522.7	33.74
522.9	33.78
523.101	33.94
523.301	33.9
523.501	33.82
523.702	33.87
523.902	33.9
524.102	33.88
524.302	33.87
524.503	33.88
524.703	33.74
524.903	33.73
525.103	33.71
525.304	33.74
525.504	33.84
525.704	34
525.904	33.98
526.104	33.97
526.304	34.02
526.504	34.01
526.705	33.94
526.905	34.05
527.105	34.16
527.305	34.15
527.505	34.07
527.705	34.11
527.905	34.06
528.105	33.93
528.305	33.9
528.505	33.98
528.705	34.08
528.905	34.13
529.105	34.14
529.304	34.17
529.504	34.23
529.704	34.15
529.904	34.08
530.104	34.14
530.304	34.3
530.503	34.28
530.703	34.26
530.903	34.33
531.103	34.34
531.303	34.25
531.502	34.31
531.702	34.49
531.902	34.48
532.101	34.36
532.301	34.33
532.501	34.31
532.7	34.21
532.9	34.24
533.1	34.41
533.299	34.49
533.499	34.6
533.698	34.55
533.898	34.58
534.097	34.63
534.297	34.74
534.496	34.62
534.696	34.7
534.895	34.77
535.095	34.77
535.294	34.62
535.494	34.64
535.693	34.67
535.892	34.7
536.092	34.65
536.291	34.71
536.491	34.75
536.69	34.77
536.889	34.66
537.088	34.62
537.288	34.71
537.487	34.67
537.686	34.67
537.886	34.8
538.085	34.95
538.284	35.01
538.483	35.11
538.682	35.15
538.882	35.18
539.081	35.22
539.28	35.15
539.479	35.18
539.678	35.21
539.877	35.3
540.076	35.32
540.275	35.36
540.474	35.54
540.673	35.58
540.872	35.46
541.071	35.48
541.27	35.49
541.469	35.46
541.668	35.45
541.867	35.59
542.066	35.66
542.265	35.83
542.464	35.91
542.663	36.09
542.862	36.25
543.06	36.45
543.259	36.47
543.458	36.44
543.657	36.42
543.856	36.34
544.054	36.13
544.253	36.02
544.452	36.06
544.651	36.11
544.849	36.09
545.048	36.19
545.247	36.35
545.445	36.44
545.644	36.48
545.843	36.52
546.041	36.61
546.24	36.7
546.438	36.77
546.637	36.82
546.836	36.98
547.034	37.03
547.233	36.97
547.431	36.95
547.63	36.92
547.828	36.88
548.027	36.86
548.225	36.88
548.423	36.92
548.622	37.06
548.82	37.2
549.019	37.34
549.217	37.48
549.415	37.56
549.614	37.61
549.812	37.64
550.01	37.64
550.209	37.77
550.407	37.88
550.605	38.01
550.803	38.19
551.002	38.27
551.2	38.3
551.398	38.42
551.596	38.49
551.794	38.51
551.993	38.6
552.191	38.69
552.389	38.81
552.587	38.83
552.785	38.93
552.983	39.06
553.181	39.18
553.379	39.19
553.577	39.36
553.775	39.52
553.973	39.6
554.171	39.79
554.369	39.86
554.567	39.86
554.765	39.89
554.963	39.92
555.161	39.85
555.359	39.94
555.557	40.1
555.755	40.19
555.952	40.4
556.15	40.55
556.348	40.62
556.546	40.71
556.744	40.68
556.941	40.64
557.139	40.75
557.337	40.81
557.535	40.9
557.732	41.13
557.93	41.23
558.128	41.28
558.325	41.48
558.523	41.4
558.721	41.52
558.918	41.63
559.116	41.68
559.313	41.73
559.511	42.05
559.708	42.04
559.906	42.19
560.104	42.21
560.301	42.31
560.498	42.32
560.696	42.34
560.893	42.41
561.091	42.65
561.288	42.81
561.486	42.87
561.683	43.15
561.88	43.28
562.078	43.45
562.275	43.6
562.473	43.8
562.67	43.99
562.867	44.08
563.064	44.18
563.262	44.17
563.459	44.26
563.656	44.32
563.853	44.45
564.051	44.49
564.248	44.72
564.445	44.84
564.642	44.81
564.839	44.91
565.036	45.22
565.234	45.4
565.431	45.58
565.628	45.87
565.825	46.04
566.022	46.15
566.219	46.06
566.416	46.17
566.613	46.31
566.81	46.39
567.007	46.3
567.204	46.45
567.401	46.52
567.598	46.52
567.795	46.72
567.991	46.86
568.188	47.08
568.385	47.23
568.582	47.26
568.779	47.33
568.976	47.58
569.172	47.67
569.369	47.6
569.566	47.76
569.763	47.81
569.96	47.7
570.156	47.71
570.353	47.79
570.55	47.97
570.746	48.01
570.943	48.14
571.14	48.18
571.336	48.34
571.533	48.33
571.729	48.27
571.926	48.28
572.123	48.32
572.319	48.37
572.516	48.25
572.712	48.47
572.909	48.57
573.105	48.72
573.302	48.79
573.498	49.14
573.695	49.02
573.891	49.06
574.087	49
574.284	48.92
574.48	48.78
574.677	48.9
574.873	48.97
575.069	49.16
575.266	49.27
575.462	49.26
575.658	49.27
575.854	49.38
576.051	49.29
576.247	49.28
576.443	49.25
576.639	49.23
576.835	49.08
577.032	49.12
577.228	49.28
577.424	49.46
577.62	49.44
577.816	49.48
578.012	49.48
578.208	49.4
578.404	49.34
578.6	49.43
578.796	49.47
578.993	49.49
579.189	49.41
579.384	49.38
579.58	49.39
579.776	49.37
579.972	49.27
580.168	49.21
580.364	49.25
580.56	49.22
580.756	49.21
580.952	49.34
581.148	49.45
581.343	49.43
581.539	49.48
581.735	49.47
581.931	49.38
582.127	49.44
582.322	49.56
582.518	49.57
582.714	49.62
582.909	49.67
583.105	49.64
583.301	49.46
583.496	49.38
583.692	49.28
583.888	49.19
584.083	49.15
584.279	49.32
584.474	49.34
584.67	49.35
584.866	49.42
585.061	49.3
585.257	49.29
585.452	49.31
585.648	49.43
585.843	49.52
586.039	49.62
586.234	49.6
586.429	49.59
586.625	49.63
586.82	49.42
587.015	49.51
587.211	49.43
587.406	49.53
587.601	49.47
587.797	49.52
587.992	49.54
588.187	49.64
588.383	49.64
588.578	49.7
588.773	49.81
588.968	49.75
589.163	49.83
589.359	49.77
589.554	49.75
589.749	49.72
589.944	49.84
590.139	49.84
590.334	49.87
590.529	49.91
590.724	49.94
590.919	50
591.114	50.02
591.309	50.23
591.504	50.32
591.699	50.34
591.894	50.51
592.089	50.55
592.284	50.4
592.479	50.53
592.674	50.57
592.869	50.55
593.064	50.58
593.259	50.82
593.454	50.83
593.648	50.97
593.843	50.85
594.038	50.84
594.233	50.7
594.428	50.66
594.622	50.65
594.817	50.94
595.012	51.06
595.206	51.08
595.401	51.09
595.596	51.17
595.79	51.16
595.985	51.35
596.18	51.63
596.374	51.84
596.569	51.99
596.763	52.02
596.958	52.02
597.153	51.98
597.347	51.81
597.542	51.83
597.736	51.84
597.931	51.87
598.125	52
598.319	52.4
598.514	52.47
598.708	52.6
598.903	52.63
599.097	52.59
599.291	52.41
599.486	52.48
599.68	52.48
599.874	52.66
600.069	52.79
600.263	52.92
600.457	53
600.651	53.07
600.846	52.99
601.04	53.11
601.234	53.2
601.428	53.31
601.622	53.33
601.817	53.39
602.011	53.4
602.205	53.36
602.399	53.18
602.593	53.29
602.787	53.35
602.981	53.28
603.175	53.34
603.369	53.36
603.563	53.29
603.757	53.3
603.951	53.43
604.145	53.43
604.339	53.44
604.533	53.39
604.727	53.35
604.921	53.26
605.115	53.2
605.309	53.37
605.502	53.51
605.696	53.54
605.89	53.41
606.084	53.49
606.278	53.42
606.471	53.33
606.665	53.23
606.859	53.12
607.053	53.02
607.246	52.9
607.44	52.83
607.634	52.92
607.827	53.06
608.021	52.94
608.214	52.91
608.408	52.72
608.602	52.57
608.795	52.49
608.989	52.45
609.182	52.38
609.376	52.42
609.569	52.33
609.763	52.29
609.956	52.24
610.15	52.19
610.343	52.23
610.537	52.11
610.73	52.02
610.923	52
611.117	51.96
611.31	51.86
611.504	51.88
611.697	51.82
611.89	51.81
612.083	51.75
612.277	51.76
612.47	51.71
612.663	51.66
612.856	51.57
613.05	51.4
613.243	51.27
613.436	51.15
613.629	51.09
613.822	50.96
614.015	50.95
614.209	50.85
614.402	50.87
614.595	50.93
614.788	50.89
614.981	50.81
615.174	50.65
615.367	50.55
615.56	50.38
615.753	50.34
615.946	50.38
616.139	50.41
616.332	50.53
616.525	50.43
616.718	50.48
616.911	50.41
617.103	50.43
617.296	50.4
617.489	50.46
617.682	50.39
617.875	50.45
618.067	50.39
618.26	50.26
618.453	50.21
618.646	50.23
618.838	50.13
619.031	50.27
619.224	50.18
619.417	50.16
619.609	50.2
619.802	50.08
619.994	49.89
620.187	49.89
620.38	49.84
620.572	49.6
620.765	49.73
620.957	49.58
621.15	49.5
621.342	49.43
621.535	49.49
621.727	49.32
621.92	49.32
622.112	49.21
622.305	49.26
622.497	49.22
622.69	49.3
622.882	49.35
623.074	49.4
623.267	49.33
623.459	49.21
623.651	49.07
623.844	49.16
624.036	49.25
624.228	49.14
624.42	49.13
624.613	49.22
624.805	49.1
624.997	49.03
625.189	49.13
625.381	49.12
625.574	48.97
625.766	48.85
625.958	48.75
626.15	48.65
626.342	48.74
626.534	48.77
626.726	48.82
626.918	48.83
627.11	48.72
627.302	48.63
627.494	48.72
627.686	48.71
627.878	48.71
628.07	48.91
628.262	48.92
628.454	48.75
628.646	48.74
628.838	48.7
629.029	48.51
629.221	48.5
629.413	48.45
629.605	48.25
629.797	48.07
629.989	48.04
630.18	47.94
630.372	47.86
630.564	47.91
630.755	48.03
630.947	48.07
631.139	47.86
631.33	47.7
631.522	47.78
631.714	47.65
631.905	47.54
632.097	47.61
632.289	47.67
632.48	47.49
632.672	47.46
632.863	47.37
633.055	47.2
633.246	47.19
633.438	47.08
633.629	47.08
633.821	47.15
634.012	47.24
634.203	47.13
634.395	47.24
634.586	47.2
634.777	47.11
634.969	47.14
635.16	47.24
635.351	47.1
635.543	47.03
635.734	47.08
635.925	47.05
636.117	47.04
636.308	47.18
636.499	47.24
636.69	46.98
636.881	46.87
637.073	46.81
637.264	46.63
637.455	46.58
637.646	46.79
637.837	46.82
638.028	46.79
638.219	46.9
638.41	46.83
638.601	46.69
638.792	46.67
638.983	46.6
639.174	46.45
639.365	46.59
639.556	46.51
639.747	46.38
639.938	46.55
640.129	46.53
640.32	46.37
640.511	46.46
640.701	46.53
640.892	46.37
641.083	46.39
641.274	46.45
641.465	46.32
641.655	46.2
641.846	46.1
642.037	46.05
642.228	45.9
642.418	46.02
642.609	46.12
642.8	46.17
642.99	46.12
643.181	46.15
643.372	46.03
643.562	46
643.753	45.86
643.943	45.76
644.134	45.62
644.324	45.55
644.515	45.49
644.705	45.53
644.896	45.62
645.086	45.69
645.277	45.72
645.467	45.62
645.658	45.57
645.848	45.6
646.038	45.56
646.229	45.47
646.419	45.39
646.61	45.47
646.8	45.34
646.99	45.25
647.18	45.22
647.371	45.37
647.561	45.25
647.751	45.26
647.941	45.2
648.132	45.28
648.322	45.13
648.512	45.16
648.702	45.15
648.892	45.09
649.082	44.98
649.272	44.91
649.462	44.71
649.653	44.63
649.843	44.69
650.033	44.73
650.223	44.83
650.413	44.85
650.603	44.9
650.793	44.93
650.983	44.79
651.172	44.63
651.362	44.61
651.552	44.46
651.742	44.31
651.932	44.34
652.122	44.42
652.312	44.4
652.502	44.5
652.691	44.49
652.881	44.5
653.071	44.38
653.261	44.23
653.45	43.91
653.64	43.82
653.83	43.52
654.019	43.35
654.209	43.34
654.399	43.3
654.588	43.19
654.778	43.22
654.968	43.18
655.157	43
655.347	42.96
655.536	42.85
655.726	42.63
655.915	42.31
656.105	42.18
656.294	41.93
656.484	41.67
656.673	41.66
656.863	41.7
657.052	41.57
657.241	41.5
657.431	41.29
657.62	41.14
657.809	40.76
657.999	40.6
658.188	40.36
658.377	40.18
658.567	39.9
658.756	39.89
658.945	39.62
659.134	39.26
659.324	39.08
659.513	38.75
659.702	38.51
659.891	38.36
660.08	38.28
660.269	38.15
660.458	37.98
660.648	37.73
660.837	37.53
661.026	37.44
661.215	37.17
661.404	36.97
661.593	36.82
661.782	36.54
661.971	36.29
662.16	36.22
662.349	36.05
662.538	35.76
662.726	35.66
662.915	35.46
663.104	35.28
663.293	35.23
663.482	35.16
663.671	35
663.86	34.85
664.048	34.61
664.237	34.32
664.426	34.02
664.615	33.7
664.803	33.55
664.992	33.41
665.181	33.21
665.369	33.08
665.558	33.06
665.747	32.95
665.935	32.86
666.124	32.81
666.312	32.76
666.501	32.67
666.69	32.45
666.878	32.26
667.067	32.09
667.255	32.1
667.444	32.13
667.632	32.11
667.82	32.11
668.009	32.11
668.197	31.99
668.386	31.83
668.574	31.95
668.762	31.86
668.951	31.64
669.139	31.46
669.327	31.37
669.516	31.44
669.704	31.4
669.892	31.69
670.08	31.86
670.269	31.77
670.457	31.57
670.645	31.4
670.833	31.49
671.021	31.32
671.21	31.44
671.398	31.51
671.586	31.66
671.774	31.47
671.962	31.6
672.15	31.5
672.338	31.29
672.526	31.29
672.714	31.2
672.902	31.2
673.09	31.37
673.278	31.66
673.466	31.75
673.654	31.85
673.842	31.93
674.03	32.05
674.218	31.9
674.405	31.83
674.593	31.91
674.781	31.87
674.969	31.86
675.157	32.05
675.344	32.21
675.532	32.42
675.72	32.7
675.908	32.81
676.095	32.84
676.283	33.03
676.471	33.19
676.658	33.19
676.846	33.27
677.033	33.49
677.221	33.55
677.409	33.56
677.596	33.8
677.784	33.93
677.971	33.97
678.159	34.12
678.346	34.09
678.534	33.98
678.721	34.23
678.909	34.4
679.096	34.5
679.283	34.86
679.471	35.24
679.658	35.44
679.846	35.72
680.033	36
680.22	36.07
680.408	36.11
680.595	36.15
680.782	36.15
680.969	36.3
681.157	36.57
681.344	36.68
681.531	36.75
681.718	36.9
681.905	37.08
682.093	37.16
682.28	37.63
682.467	38.11
682.654	38.46
682.841	38.69
683.028	39.19
683.215	39.45
683.402	39.55
683.589	39.8
683.776	40.25
683.963	40.23
684.15	40.53
684.337	41.09
684.524	41.28
684.711	41.59
684.898	41.95
685.085	42.22
685.271	42.58
685.458	43.13
685.645	43.12
685.832	43.52
686.019	44.02
686.205	44.15
686.392	44.48
686.579	45.08
686.766	45.72
686.952	46.03
687.139	46.71
687.326	47
687.512	47.57
687.699	47.88
687.886	48.47
688.072	48.71
688.259	49.28
688.445	49.72
688.632	50.23
688.818	50.97
689.005	51.4
689.191	51.81
689.378	52.44
689.564	53.04
689.751	53.38
689.937	53.91
690.124	54.61
690.31	54.79
690.496	55.24
690.683	55.48
690.869	55.97
691.055	56.44
691.242	57.14
691.428	57.57
691.614	58.15
691.8	58.72
691.987	59.45
692.173	59.89
692.359	60.47
692.545	61.12
692.731	61.45
692.918	61.7
693.104	62.23
693.29	62.7
693.476	63.18
693.662	63.94
693.848	64.26
694.034	64.78
694.22	64.88
694.406	65.31
694.592	65.65
694.778	66.33
694.964	66.52
695.15	67.32
695.336	67.62
695.522	68.22
695.708	68.43
695.894	69.22
696.08	69.56
696.265	69.93
696.451	70.28
696.637	70.87
696.823	70.85
697.009	71.09
697.194	71.54
697.38	71.53
697.566	71.72
697.751	72.33
697.937	73
698.123	73.3
698.308	73.78
698.494	74.38
698.68	74.43
698.865	74.9
699.051	75.39
699.236	75.43
699.422	75.78
699.607	75.9
699.793	75.79
699.978	75.62
700.164	76.07
700.349	76.25
700.535	76.72
700.72	76.63
700.906	77.14
701.091	77.3
701.276	77.45
701.462	78.01
701.647	78.62
701.832	78.92
702.018	79.48
702.203	79.41
702.388	79.11
702.573	79.28
702.759	79.94
702.944	79.75
703.129	79.92
703.314	80.23
703.499	80.03
703.684	79.34
703.87	80.45
704.055	81.2
704.24	81.51
704.425	82.11
704.61	82.4
704.795	81.83
704.98	81.38
705.165	81.15
705.35	81.42
705.535	81.67
705.72	81.85
705.905	82.19
706.09	82.59
706.275	82.58
706.459	82.28
706.644	82.17
706.829	82.52
707.014	82.67
707.199	82.84
707.384	83.63
707.568	83.93
707.753	84.08
707.938	84.36
708.123	84.01
708.307	83.85
708.492	84.02
708.677	84.03
708.861	83.69
709.046	83.91
709.231	84.13
709.415	84.24
709.6	83.75
709.784	83.83
709.969	83.69
710.153	83.61
710.338	83.3
710.522	83.71
710.707	84.12
710.891	84.41
711.076	84.37
711.26	84.19
711.445	84.37
711.629	84.15
711.813	84.06
711.998	84.71
712.182	84.83
712.366	85.08
712.551	85.78
712.735	85.93
712.919	85.54
713.103	85.83
713.288	85.61
713.472	85.08
713.656	85.82
713.84	86.01
714.024	86.41
714.208	86.38
714.393	86.56
714.577	86.32
714.761	86.45
714.945	86.3
715.129	86.31
715.313	86.48
715.497	86.13
715.681	86.29
715.865	86.13
716.049	86.07
716.233	85.88
716.417	85.95
716.601	85.67
716.785	85.59
716.968	86.01
717.152	86.4
717.336	86.73
717.52	86.59
717.704	86.87
717.888	86.88
718.071	86.57
718.255	86.91
718.439	86.94
718.622	86.98
718.806	87.16
718.99	87.02
719.174	86.18
719.357	86.07
719.541	86.07
719.724	85.84
719.908	87.02
720.092	87.76
720.275	88.13
720.459	88.17
720.642	87.65
720.826	86.74
721.009	86.75
721.193	86.21
721.376	86.46
721.559	87.33
721.743	87.33
721.926	87.23
722.11	87.75
722.293	87.19
722.476	86.59
722.66	86.67
722.843	86.51
723.026	86.14
723.21	86.22
723.393	86.94
723.576	87.12
723.759	86.84
723.942	87.41
724.126	87.46
724.309	87.1
724.492	87
724.675	87.5
724.858	87.78
725.041	88.58
725.224	88.35
725.407	88.26
725.59	88.59
725.774	87.56
725.957	86.24
726.14	86.59
726.322	86.73
726.505	86.21
726.688	87.77
726.871	88.46
727.054	88.4
727.237	88.32
727.42	88.57
727.603	87.23
727.786	87.55
727.968	87.48
728.151	87.49
728.334	86.98
728.517	87.73
728.699	88.24
728.882	88.63
729.065	89.19
729.248	89.6
729.43	89.72
729.613	90.02
729.796	90.14
729.978	89.36
730.161	88.98
730.343	88.41
730.526	87.99
730.708	87.16
730.891	87.52
731.073	87.59
731.256	87.61
731.438	87.69
731.621	88.85
731.803	88.96
731.986	89.46
732.168	89.24
732.35	89.21
732.533	88.54
732.715	88.64
732.898	88.9
733.08	88.97
733.262	89.42
733.444	89.54
733.627	89.53
733.809	89.7
733.991	91.03
734.173	89.94
734.355	89.78
734.538	90.41
734.72	89.7
734.902	89.4
735.084	89.99
735.266	90
735.448	89.6
735.63	90.03
735.812	89.17
735.994	90.27
736.176	90.73
736.358	90.38
736.54	91.39
736.722	91.1
736.904	90.14
737.086	90.48
737.268	91.8
737.45	91.19
737.632	91.96
737.814	91.48
737.995	91.24
738.177	90.03
738.359	89.26
738.541	89.45
738.723	90.58
738.904	90.39
739.086	90.55
739.268	90.67
739.449	90.89
739.631	89.79
739.813	90.29
739.994	90.53
740.176	90.92
740.358	89.92
740.539	90.99
740.721	91.32
740.902	92.09
741.084	91.86
741.265	91.73
741.447	91.26
741.628	90.54
741.81	89.78
741.991	90.56
742.172	92.23
742.354	92.24
742.535	91.8
742.717	92.03
742.898	91.54
743.079	91.75
743.261	91.71
743.442	91.95
743.623	92.41
743.804	92.59
743.986	93.3
744.167	91.89
744.348	91.48
744.529	91.09
744.71	89.68
744.891	87.44
745.073	88.38
745.254	88.39
745.435	87.69
745.616	88.46
745.797	89.3
745.978	88.13
746.159	89.29
746.34	88.78
746.521	90.31
746.702	88.37
746.883	89.85
747.064	88.71
747.245	89.44
747.426	88.54
747.606	89.81
747.787	90.2
747.968	90.63
748.149	91.35
748.33	91.74
748.51	91.9
748.691	90.41
748.872	90.9
749.053	89.16
749.233	87.6
749.414	87.88
749.595	88.07
749.775	87.49
749.956	88.43
750.137	88.51
750.317	88.95
750.498	90.74
750.678	90.52
750.859	91.01
751.04	91.35
751.22	89.34
751.4	87.78
751.581	87.01
751.761	87.16
751.942	88.34
752.122	88.88
752.303	88.94
752.483	88.67
752.663	88.61
752.844	87.82
753.024	89.15
753.204	89.28
753.385	88.96
753.565	88.94
753.745	87.94
753.925	85.84
754.106	85.55
754.286	85.91
754.466	85.69
754.646	87.36
754.826	87.28
755.006	86.68
755.187	88.28
755.367	89.24
755.547	89.26
755.727	91.41
755.907	91.9
756.087	92.55
756.267	89.85
756.447	88.73
756.627	87.21
756.807	88.48
756.987	86.6
757.167	86.75
757.346	87.17
757.526	85.64
757.706	85.11
757.886	86.36
758.066	88.19
758.246	89.17
758.425	90.45
758.605	88.75
758.785	88.03
758.965	88.02
759.144	84.98
759.324	86.68
759.504	88.36
759.683	89.24
759.863	87.36
760.043	88.07
760.222	87.88
760.402	87.12
760.581	86.08
760.761	87.63
760.94	86.99
761.12	87.65
761.299	88.1
761.479	87.57
761.658	86.77
761.838	87.23
762.017	84.87
762.197	83.76
762.376	84.3
762.555	84.71
762.735	85.48
762.914	85.17
763.093	86.74
763.273	86.06
763.452	86.11
763.631	86.16
763.81	87.05
763.99	86.41
764.169	86.95
764.348	84.94
764.527	83.06
764.706	84.05
764.885	85.5
765.064	83.97
765.243	84.81
765.423	87.36
765.602	87.03
765.781	83.61
765.96	83.91
766.139	84.25
766.318	84.6
766.497	84.39
766.676	86.29
766.854	86.71
767.033	87.42
767.212	85.93
767.391	84.86
767.57	83.78
767.749	85.72
767.928	85.94
768.106	84.96
768.285	84.61
768.464	86.56
768.643	83.42
768.821	82.12
769	84.01
769.179	83.3
769.357	81.48
769.536	81.78
769.715	83.03
769.893	83.99
770.072	85.13
770.25	84.29
770.429	85.34
770.607	83.56
770.786	81.8
770.964	82.56
771.143	82.48
771.321	83.86
771.5	85.46
771.678	85.06
771.857	83.6
772.035	84.87
772.213	83.86
772.392	82.56
772.57	84.57
772.748	85.01
772.927	84.14
773.105	84.44
773.283	86.18
773.461	85.84
773.64	86.16
773.818	87.21
773.996	86.36
774.174	83.81
774.352	81.87
774.531	79.32
774.709	81.17
774.887	81.95
775.065	81.6
775.243	81.76
775.421	84.85
775.599	85.39
775.777	81.97
775.955	81.23
776.133	80.1
776.311	79.68
776.489	75.85
776.667	77.29
776.844	78.03
777.022	79.31
777.2	78.84
777.378	78.82
777.556	80.81
777.734	84.26
777.911	86.08
778.089	85.16
778.267	86.95
778.445	85.7
778.622	81.33
778.8	78.63
778.978	82.03
779.155	81.63
779.333	80.91
779.511	81.5
779.688	84.74
779.866	79.59
780.043	76.83
780.221	78.92
780.398	77.9
780.576	78.7
780.753	80.65
780.931	80.64
781.108	78.7
781.286	79.95
781.463	74.04
781.64	70.79
781.818	72.39
781.995	71.94
782.172	72.68
782.35	75.39
782.527	80.66
782.704	79.65
782.882	81.25
783.059	81.3
783.236	81.79
783.413	81.34
783.59	84.17
783.768	79.62
783.945	79.48
784.122	77.99
784.299	77.49
784.476	77.47
784.653	80.56
784.83	76.57
785.007	72.37
785.184	72.29
785.361	68.07
785.538	70.02
785.715	76.19
785.892	80.44
786.069	82.47
786.246	86.4
786.423	86.15
786.6	86.59
786.776	90.74
786.953	88.31
787.13	90.7
787.307	90.6
787.484	86.46
787.66	80.2
787.837	80.34
788.014	75.13
788.191	72.98
788.367	71.65
788.544	76.38
788.721	74.99
788.897	76.09
789.074	75.99
789.25	74.83
789.427	73.28
789.603	76.41
789.78	78.28
789.956	78.51
790.133	77.79
790.309	77.82
790.486	76.92
790.662	72.01
790.839	73.22
791.015	76.53
791.192	74.51
791.368	76.78
791.544	76.51
791.721	74.4
791.897	72.45
792.073	71.3
792.249	63.57
792.426	68.18
792.602	72.6
792.778	75.49
792.954	75.71
793.13	79.4
793.307	72.18
793.483	63.66
793.659	64.44
793.835	67.54
794.011	63.17
794.187	73.61
794.363	69.11
794.539	70.06
794.715	68.02
794.891	69.52
795.067	62.69
795.243	73.97
795.419	71.28
795.595	67.89
795.771	70.92
795.947	73.13
796.122	67.26
796.298	72.33
796.474	73.36
796.65	71.63
796.826	67.96
797.001	72.65
797.177	64.69
797.353	68.66
797.529	73.26
797.704	75.01
797.88	73.12
798.056	73.08
798.231	71.23
798.407	71.75
798.582	74.09
798.758	79.91
798.934	88.2
799.109	87.65
799.285	80.3
799.46	83.57
799.636	78.77
799.811	74.69
799.986	76.39
800.162	82.58
800.337	82.07
800.513	77.25
800.688	75.24
800.863	83.7
801.039	76.67
801.214	70.14
801.389	74.29
801.565	70.05
801.74	51.93
801.915	61.28
802.09	69.97
802.265	73.61
802.441	72.88
802.616	76.2
802.791	72.77
802.966	67.06
803.141	61.83
803.316	56.5
803.491	68.12
803.666	74.7
803.841	70.84
804.016	68.18
804.191	81.84
804.366	74.38
804.541	65.57
804.716	64.66
804.891	63.09
805.066	63.61
805.241	58.03
805.416	57
805.591	60.87
805.765	69.05
805.94	69.84
806.115	74.75
806.29	70.4
806.464	72.29
806.639	72.27
806.814	68.21
806.989	56.17
807.163	68.68
807.338	70.02
807.512	68.3
807.687	58.8
807.862	72.92
808.036	74.19
808.211	74.35
808.385	71.9
808.56	86.43
808.734	91.68
808.909	84.52
809.083	75.93
809.258	92.9
809.432	86.93
809.606	74.55
809.781	73.21
809.955	80.3
810.13	73.18
810.304	74.43
810.478	73.88
810.652	83.3
810.827	83.61
811.001	75.38
811.175	71.39
811.349	72.1
811.524	59.18
811.698	43.21
811.872	49.02
812.046	49.06
812.22	57.95
812.394	58.11
812.568	70.96
812.742	71.34
812.916	68.17
813.09	58.05
813.264	61.9
813.438	66.75
813.612	59.35
813.786	61.08
813.96	68.35
814.134	67.76
814.308	74.07
814.482	88.48
814.656	85.13
814.83	89.06
815.003	92.76
815.177	75.54
815.351	64.18
815.525	68.81
815.698	57.43
815.872	51.48
816.046	49.49
816.219	49.84
816.393	64.63
816.567	70.95
816.74	78.34
816.914	86.83
817.088	99.11
817.261	82.14
817.435	82.62
817.608	78.28
817.782	67.73
817.955	60.52
818.129	55.71
818.302	61.33
818.475	70.29
818.649	78.08
818.822	72.27
818.996	96.96
819.169	98.17
819.342	81.58
819.516	83.7
819.689	81.4
819.862	61.65
820.035	46.86
820.209	46.21
820.382	50.19
820.555	55.59
820.728	51.79
820.901	59.78
821.075	60.5
821.248	59.69
821.421	54.48
821.594	45.64
821.767	67.96
821.94	84.31
822.113	64.48
822.286	57.4
822.459	73.58
822.632	51.28
822.805	32.78
822.978	40.69
823.151	52.46
823.324	46.17
823.496	39.65
823.669	44.37
823.842	41.91
824.015	28.61
824.188	13.97
824.361	7.46
824.533	13.23
824.706	33.3
824.879	36.51
825.051	53.38
825.224	53.04
825.397	58.99
825.569	34.86
825.742	48.72
825.915	55.65
826.087	76.64
826.26	58.66
826.432	55.99
826.605	57.69
826.777	42.53
826.95	38.61
827.122	16.81
827.295	31.65
827.467	32.27
827.64	15.9
827.812	10.91
827.984	24.24
828.157	16.51
828.329	-27.52
828.501	-19.97
828.674	4.51
828.846	10.38
829.018	40.67
829.19	39.12
829.363	64.22
829.535	57.03
829.707	66.18
829.879	31.64
830.051	40.51
830.223	33.1
830.395	20.32
830.568	10.34
830.74	12.28
830.912	45.13
831.084	33.1
831.256	30.22
831.428	28.51
831.6	9.43
831.772	-36.91
831.943	-66.72
832.115	-19.54
832.287	6.72
832.459	35.01
832.631	56.64
832.803	87.39
832.975	99.66
833.146	73.66
833.318	61.46
833.49	72.34
833.662	62.21
833.833	22.85
834.005	28.63
834.177	39.37
834.348	18.62
834.52	2.9
834.692	10.47
834.863	-10.56
835.035	-17.84
835.206	-48.9
835.378	-11.96
835.549	-6.69
835.721	9.84
835.892	2.48
836.064	8.72
836.235	3.71
836.407	30.22
836.578	12.91
836.749	48.58
836.921	28.85
837.092	10.17
837.264	-15.26
837.435	-21.99
837.606	14.96
837.777	55.77
837.949	57.46
838.12	55.52
838.291	65.99
838.462	51.67
838.633	21.19
838.805	34.95
838.976	50.65
839.147	3.34
839.318	-25.17
839.489	-63.43
839.66	-72.46
839.831	-31.21
840.002	-10.66
840.173	-17.82
840.344	42.43
840.515	78.71
840.686	-12.06
840.857	19.69
841.028	43.37
841.199	-1.2
841.369	-48.29
841.54	-45.17
841.711	-16.41
841.882	12.55
842.053	19.34
842.223	15.11
842.394	50.58
842.565	52.8
842.736	44
842.906	56.35
843.077	80.72
843.248	102.96
843.418	98.15
843.589	70.32
843.759	124.27
843.93	109.62
844.101	47.39
844.271	55.15
844.442	65.56
844.612	72.33
844.783	21.78
844.953	-16.08
845.123	-27.73
845.294	-43.32
845.464	-317.01
845.635	-94.74
845.805	22.32
845.975	9.98
846.146	-12.29
846.316	-2
846.486	32.04
846.656	64.17
846.827	53.69
846.997	51.2
847.167	92.44
847.337	21.15
847.507	-48.26
847.677	-21.47
847.848	39.07
848.018	25.36
848.188	44.03
848.358	34.23
848.528	17.6
848.698	-24.4
848.868	-81.1
849.038	-138.03
849.208	-30.61
849.378	39.67
849.548	11.85
849.718	24.96
849.887	36.98
850.057	20.7
850.227	-25.55
850.397	-25.98
850.567	-89
850.737	-230.87
850.906	-997.5
851.076	-700.78
851.246	-256.02
851.415	-4.7
851.585	2.66
851.755	-10.3
851.924	30.31
852.094	-1.73
852.264	-71.02
852.433	-750
852.603	-94.31
852.772	-24.57
852.942	-16.69
853.111	-42.91
853.281	-7.38
853.45	21.12
853.62	-29.04
853.789	-35.19
853.959	64.69
854.128	9.49
854.297	-25.8
854.467	-56.88
854.636	-18.72
854.805	-17.7
854.975	-3.09
855.144	-23.84
855.313	270.63
855.482	-10.95
855.652	-75
855.821	-101.16
855.99	30.89
856.159	37.74
856.328	36.39
856.497	14.04
856.667	24.1
856.836	22.12
857.005	-13.93
857.174	-28.9
857.343	18.89
857.512	81.68
857.681	24.81
857.85	17.49
858.019	42.57
858.188	7.39
858.356	-27.11
858.525	-51.3
858.694	-32.16
858.863	-167.85
859.032	-79.41
859.201	-109.3
859.369	-91.07
859.538	-37.02
859.707	11.54
859.876	0.55
860.044	12.8
860.213	55.49
860.382	30.71
860.55	28.87
860.719	29.61
860.888	25.98
861.056	-7.05
861.225	-28.05
861.393	17.93
861.562	49.85
861.73	13.48
861.899	-86.39
862.067	237.93
862.236	53.32
862.404	-113.26
862.572	-46.8
862.741	49.34
862.909	14.71
863.078	-81.16
863.246	-18.92
863.414	24.81
863.582	16.23
863.751	-7.06
863.919	-1.57
864.087	48.88
864.255	47.32
864.424	-196.02
864.592	11.62
864.76	41.92
864.928	129.6
865.096	-14.33
865.264	51.75
865.432	-286.36
865.6	184.5
865.768	-49.28
865.936	-63.7
866.104	-31.4
866.272	46.88
866.44	-251.57
866.608	440.22
866.776	180.65
866.944	2246.51
867.112	-549.15
867.28	-207.65
867.448	-29.93
867.615	7.59
867.783	19.96
867.951	26.98
868.119	69.76
868.286	34.78
868.454	-37.13
868.622	-17.9
868.789	-31.58
868.957	-278.57
869.125	-1302.63
869.292	-75.92
869.46	-138.75
869.627	28.61
869.795	17.37
869.963	32.07
870.13	54.24
870.298	72.99
870.465	0
870.632	-58.85
870.8	-43.72
870.967	-127.98
871.135	-187.76
871.302	-142
871.469	-130.75
871.637	-177.22
871.804	-60.79
871.971	-91.3
872.139	-241.4
872.306	11.35
872.473	19.63
872.64	-123.61
872.807	49.68
872.975	54.88
873.142	-67.64
873.309	1345.95
873.476	127.05
873.643	183.2
873.81	132.11
873.977	108.05
874.144	90.07
874.311	-49.41
874.478	-135.25
874.645	-145.85
874.812	-39.52
874.979	-4.75
875.146	-21.37
875.313	-21.66
875.48	54.9
875.647	32.35
875.813	4.17
875.98	17.67
876.147	7.8
876.314	-25.04
876.481	701.65
876.647	-974.16
876.814	396.37
876.981	110.77
877.147	18.59
877.314	24.49
877.481	65.95
877.647	64.78
877.814	29.63
877.98	-14.65
878.147	43.16
878.314	95.63
878.48	96.24
878.647	72.75
878.813	105.14
878.979	77.17
879.146	1.8
879.312	6.35
879.479	-27.91
879.645	-128.3
879.811	-225.24
879.978	-464.89
880.144	-111.24
880.31	-73.48
880.477	-251.67
880.643	-340.14
880.809	-77.38
880.975	-50.97
881.142	-381.82
881.308	25.2
881.474	69.68
881.64	25.05
881.806	-91.88
881.972	-17.5
882.138	-10.61
882.304	24.21
882.47	-101.86
882.636	-275.41
882.802	-102.23
882.968	37.27
883.134	12.13
883.3	0.67
883.466	43.18
883.632	84.56
883.798	18.37
883.964	30.8
884.129	63.99
884.295	76.45
884.461	-21.83
884.627	-0.45
884.793	-39.44
884.958	-2.02
885.124	-79.17
885.29	-154.92
885.455	-183.5
885.621	-21.03
885.787	-135.73
885.952	-96.26
886.118	-79.51
886.283	-67.07
886.449	-155.59
886.614	-146.25
886.78	-190.38
886.945	157.38
887.111	-372.83
887.276	-185.8
887.442	-150
887.607	-63.68
887.773	-165.29
887.938	-144.13
888.103	-181.11
888.269	-83.13
888.434	-53.51
888.599	2.13
888.764	80.27
888.93	69.05
889.095	31.49
889.26	-37.41
889.425	17.81
889.59	47.08
889.756	-34.82
889.921	-29.52
890.086	66.48
890.251	26.65
890.416	-131.12
890.581	-962.9
890.746	181.07
890.911	422.29
891.076	191.73
891.241	-297.76
891.406	77.37
891.571	119.43
891.736	1.38
891.901	42.48
892.065	-52.75
892.23	96.82
892.395	198.43
892.56	228.9
892.725	-100.78
892.889	117.07
893.054	-13.25
893.219	42.4
893.384	52.92
893.548	4.85
893.713	-34.35
893.878	-11.21
