Data from Ofra_PS_T2_1A_6GT17_Reflection_2.txt Node
Date: Wed Jul 21 18:13:37 EDT 2021
User: Adam
Spectrometer: FLMT01687
Trigger mode: 0
Integration Time (sec): 1.100000E0
Scans to average: 2
Electric dark correction enabled: true
Nonlinearity correction enabled: false
Boxcar width: 2
XAxis mode: Wavelengths
Number of Pixels in Spectrum: 3648
>>>>>Begin Spectral Data<<<<<
179.494	430.2
179.716	509.65
179.937	500.35
180.158	479.44
180.38	832.97
180.601	366.71
180.823	63.11
181.044	-119.08
181.265	-19.3
181.486	-37.6
181.708	64.61
181.929	760.71
182.15	-541.9
182.372	14.95
182.593	-74.48
182.814	30.85
183.035	75
183.257	66.51
183.478	26.65
183.699	61.12
183.92	34.72
184.141	23.97
184.363	10.4
184.584	58.98
184.805	44.89
185.026	57.52
185.247	56.13
185.468	34.5
185.689	24.89
185.91	39.67
186.132	34.12
186.353	39.13
186.574	110.58
186.795	90.71
187.016	46.4
187.237	35.26
187.458	29.61
187.679	4.88
187.9	10.47
188.121	19.39
188.342	36.39
188.563	59.82
188.784	71.89
189.005	50.53
189.226	97.91
189.447	92.85
189.667	-64.44
189.888	-241.26
190.109	-971.1
190.33	-643.06
190.551	-998.89
190.772	-181.05
190.993	-106.15
191.214	-95.14
191.434	-60.94
191.655	-24.02
191.876	-60.88
192.097	-156.95
192.318	-136.63
192.538	-196.41
192.759	-143.14
192.98	-53.81
193.201	-13.11
193.421	-1.72
193.642	19.93
193.863	26.61
194.083	-3.36
194.304	-8.01
194.525	-10.63
194.745	-22.83
194.966	-38.25
195.187	-34.07
195.407	-36.73
195.628	-117.98
195.848	-117.4
196.069	-92.58
196.29	-16.19
196.51	-45.13
196.731	-17.21
196.951	-25.67
197.172	-59.87
197.392	-111.54
197.613	-114.2
197.833	-155.96
198.054	-140.57
198.274	-99.18
198.495	-110.88
198.715	-65.55
198.936	-82.24
199.156	-70
199.377	-156.35
199.597	-161.28
199.817	-181.67
200.038	-88.47
200.258	-139.57
200.479	-67.26
200.699	-51.02
200.919	26.19
201.14	-29.19
201.36	-48.07
201.58	1.15
201.801	38.33
202.021	-7.64
202.241	-18.1
202.461	-15.86
202.682	-98.08
202.902	-182.01
203.122	-96.73
203.342	-56.29
203.563	-16.42
203.783	0.36
204.003	-32.13
204.223	-32.7
204.443	39.09
204.663	45.57
204.884	58.71
205.104	76.62
205.324	93.71
205.544	55.04
205.764	51.65
205.984	45.34
206.204	58.51
206.424	38
206.644	10.64
206.864	9.71
207.084	-42.84
207.304	-62.23
207.525	-150.23
207.745	-46.29
207.964	-20.86
208.184	-46.54
208.404	-69.82
208.624	-57.99
208.844	-64.8
209.064	-266.3
209.284	-235.69
209.504	-84.57
209.724	-2.68
209.944	-2.22
210.164	7.22
210.384	22.23
210.604	-1.99
210.823	-45.01
211.043	-46.94
211.263	-21.93
211.483	-33.49
211.703	-49.85
211.922	-29.77
212.142	25.08
212.362	52.69
212.582	42
212.801	26.4
213.021	11.28
213.241	-15.81
213.461	-74.75
213.68	-111.29
213.9	-70.62
214.12	-74.42
214.339	-121.29
214.559	-90.73
214.779	-22.29
214.998	-19.13
215.218	-29.78
215.438	8.47
215.657	11.85
215.877	16.99
216.096	36.09
216.316	55.06
216.535	31.11
216.755	41.11
216.974	-21.44
217.194	-94.02
217.413	-113.76
217.633	-115.71
217.852	-268.47
218.072	-106.43
218.291	-61.47
218.511	-16.83
218.73	-26.61
218.95	-17.06
219.169	-34.35
219.389	-57.73
219.608	-51.28
219.827	-49.35
220.047	-32.61
220.266	-10.15
220.485	-12.29
220.705	-9.47
220.924	-13.98
221.143	23.1
221.363	10.98
221.582	27.35
221.801	43.82
222.021	56.77
222.24	18.75
222.459	94.36
222.678	28.69
222.897	-55.66
223.117	-122.79
223.336	-68.95
223.555	-62.53
223.774	-15.41
223.993	14.21
224.213	64.04
224.432	37.54
224.651	42.96
224.87	8.05
225.089	19.73
225.308	13.97
225.527	30.29
225.746	25.06
225.965	27.57
226.184	-8.65
226.404	10.28
226.623	-29.89
226.842	-21.34
227.061	5.33
227.28	5.06
227.499	-21.37
227.718	1.14
227.936	-11.26
228.155	-15.35
228.374	1.47
228.593	10.62
228.812	-9.43
229.031	-10.92
229.25	-51.34
229.469	-58.07
229.688	-49.37
229.907	15.71
230.125	30.61
230.344	36.45
230.563	35.05
230.782	41
231.001	-37.96
231.22	-46.95
231.438	-16.51
231.657	-2.49
231.876	-10.34
232.095	35.96
232.313	55
232.532	45.91
232.751	30.91
232.969	15.71
233.188	-30.68
233.407	5.49
233.625	16.47
233.844	6.01
234.063	12.81
234.281	31.32
234.5	17.3
234.719	5.25
234.937	27.26
235.156	22.53
235.374	13.34
235.593	-1.9
235.811	-16.7
236.03	-33.17
236.249	-39.48
236.467	3.41
236.686	16.1
236.904	24.77
237.123	2.25
237.341	-6.04
237.559	-20.74
237.778	-37.63
237.996	-55.44
238.215	-5.01
238.433	11
238.652	12.9
238.87	0.73
239.088	5.57
239.307	-6.94
239.525	-7.92
239.743	-20.03
239.962	-26.44
240.18	-46.81
240.398	-62.45
240.617	-76.68
240.835	-72.45
241.053	-24.95
241.271	13.49
241.49	17.78
241.708	-19.04
241.926	-45.54
242.144	-39.57
242.363	-90.7
242.581	-107.11
242.799	-42.81
243.017	-0.65
243.235	-17.02
243.453	1.28
243.672	1.01
243.89	-1.11
244.108	-10.18
244.326	16.42
244.544	29.7
244.762	25.24
244.98	37.15
245.198	45.83
245.416	12.76
245.634	9.54
245.852	-4.86
246.07	-25.1
246.288	-34.97
246.506	-58.26
246.724	-57.15
246.942	-27.78
247.16	5.91
247.378	15.07
247.596	23.51
247.814	29.26
248.032	9.35
248.25	11.89
248.468	2.19
248.685	19.38
248.903	41.02
249.121	36.81
249.339	-0.39
249.557	-4.04
249.775	3.74
249.992	-58.41
250.21	-49.79
250.428	-16.72
250.646	-25.74
250.863	-29.88
251.081	-6.22
251.299	2.03
251.517	-2.6
251.734	-6.24
251.952	-29.71
252.17	-21.22
252.387	-6.54
252.605	-0.58
252.823	5.5
253.04	27.52
253.258	42.7
253.475	29.52
253.693	20.81
253.911	32.12
254.128	25.52
254.346	11.47
254.563	5.83
254.781	-15.9
254.998	-46.55
255.216	-68.19
255.433	-55.79
255.651	-9.3
255.868	36.64
256.086	58.28
256.303	63.9
256.521	40.16
256.738	8.89
256.956	-31.77
257.173	-53.32
257.39	-69.72
257.608	-86.7
257.825	-0.51
258.043	33.54
258.26	31.93
258.477	64.09
258.695	64.13
258.912	1.33
259.129	13.76
259.346	-10.18
259.564	-44.24
259.781	-43.34
259.998	5.25
260.216	36.9
260.433	59.27
260.65	53.91
260.867	61.04
261.084	35.43
261.302	1.51
261.519	-1.13
261.736	-10.54
261.953	-32.57
262.17	-16.08
262.387	-46.77
262.604	-63.94
262.822	-85.02
263.039	-75.39
263.256	-110.57
263.473	-70.81
263.69	-47.3
263.907	7.37
264.124	29.81
264.341	27.55
264.558	15.95
264.775	27.31
264.992	2.8
265.209	0.8
265.426	34.4
265.643	41.68
265.86	46.08
266.077	44.8
266.294	28.19
266.51	-25.87
266.727	-47.2
266.944	-67.26
267.161	-48.23
267.378	-41.99
267.595	-2.66
267.812	-9.11
268.028	-10.99
268.245	-6.79
268.462	-24.91
268.679	-35.76
268.896	6.35
269.112	17.36
269.329	18.36
269.546	23.97
269.763	17.57
269.979	0.71
270.196	-4.3
270.413	-35.31
270.629	-40.8
270.846	-49.47
271.063	-31.43
271.279	-47.61
271.496	-44.53
271.712	-19.25
271.929	-19.19
272.146	-32.01
272.362	-22.16
272.579	19.9
272.795	33.15
273.012	37.42
273.228	56.55
273.445	46.8
273.661	8.95
273.878	-54.54
274.094	-35.21
274.311	-84.77
274.527	-13.35
274.744	-5.18
274.96	8.31
275.177	5.24
275.393	24.32
275.609	7.78
275.826	34.26
276.042	30.11
276.259	23.69
276.475	35.6
276.691	31.35
276.908	-1.6
277.124	11.99
277.34	14.93
277.557	-11.29
277.773	-16.16
277.989	-6.45
278.205	-15.51
278.422	-4.82
278.638	-1.05
278.854	15.55
279.07	21.21
279.286	20.08
279.503	-5.92
279.719	-0.06
279.935	-26.02
280.151	-48.02
280.367	-11.78
280.583	-9.59
280.799	-15.08
281.016	-39.27
281.232	-13.5
281.448	-39.96
281.664	-11.22
281.88	-36.1
282.096	-11.72
282.312	25.47
282.528	64.28
282.744	47.91
282.96	47.59
283.176	47.56
283.392	34.78
283.608	23.67
283.824	13.11
284.04	11.93
284.256	6.89
284.471	-17.13
284.687	-23.18
284.903	4.69
285.119	26.38
285.335	16.31
285.551	45.62
285.767	25.74
285.982	1.77
286.198	-30.74
286.414	15.31
286.63	1.79
286.846	29.3
287.061	6.72
287.277	31.36
287.493	-5.67
287.709	19.72
287.924	-15.24
288.14	34.18
288.356	39.13
288.571	55.79
288.787	28.13
289.003	43.09
289.218	28.38
289.434	-15.86
289.65	-9.64
289.865	-7.18
290.081	-2.81
290.296	-18.09
290.512	9.9
290.727	-17.21
290.943	-19.92
291.159	-29.47
291.374	-21.58
291.59	-48.43
291.805	-30.68
292.021	-19.29
292.236	-19.81
292.451	-7.82
292.667	11.3
292.882	15.25
293.098	15.35
293.313	-0.06
293.529	-10.56
293.744	-36
293.959	-42.53
294.175	-53.51
294.39	-20.5
294.605	-12.25
294.821	13
295.036	13.8
295.251	25.78
295.467	-5.37
295.682	-30.31
295.897	-82.81
296.112	-89.11
296.328	-72.24
296.543	-77.5
296.758	-46.46
296.973	-6.11
297.188	32.25
297.404	-4.71
297.619	2.89
297.834	-23.52
298.049	-24.7
298.264	-74.31
298.479	-5.3
298.694	3.7
298.909	21.46
299.125	19.3
299.34	33.99
299.555	-3.2
299.77	6.73
299.985	-24.48
300.2	-69.66
300.415	-93.44
300.63	-54.9
300.845	-67.62
301.06	-70.13
301.275	-41.54
301.49	-16.52
301.704	-30.2
301.919	-43.46
302.134	-46.28
302.349	-38.72
302.564	-92.33
302.779	-98.38
302.994	-56.54
303.209	-44.8
303.423	-24.6
303.638	38.09
303.853	12.68
304.068	6.07
304.283	1.45
304.497	-12.27
304.712	-31.76
304.927	-27.42
305.142	-28.8
305.356	-14.44
305.571	-3.28
305.786	-11.68
306	-18.08
306.215	-12.04
306.43	-34.28
306.644	-29.69
306.859	-17.27
307.074	16.74
307.288	-10.86
307.503	3
307.717	-14.1
307.932	-8.38
308.147	-25.45
308.361	7.54
308.576	-4.17
308.79	-41.75
309.005	-32.59
309.219	-25.25
309.434	-46.08
309.648	-45.48
309.863	-17.19
310.077	-15.19
310.292	-10.86
310.506	-15.42
310.72	-0.92
310.935	7.99
311.149	-14.02
311.364	-5.22
311.578	17.22
311.792	11.87
312.007	12.41
312.221	12.51
312.435	15.76
312.649	-6.01
312.864	29.38
313.078	43.32
313.292	113.77
313.507	98.1
313.721	140.33
313.935	55.02
314.149	41.74
314.363	13.45
314.578	5.76
314.792	6.36
315.006	-16.88
315.22	0.72
315.434	-0.6
315.648	12.86
315.862	18.96
316.077	18.44
316.291	6.48
316.505	20.78
316.719	28.52
316.933	-6.17
317.147	-4.96
317.361	-76.83
317.575	-101.13
317.789	-149.23
318.003	-232.45
318.217	-182.4
318.431	-56.79
318.645	-2.18
318.859	0.43
319.073	25.05
319.287	16.44
319.5	-13.6
319.714	-49.8
319.928	-63.2
320.142	-67.76
320.356	14.08
320.57	51.67
320.784	45
320.997	40.78
321.211	20.31
321.425	-69.05
321.639	-105.67
321.853	-47.27
322.066	-5.12
322.28	-5.13
322.494	11.17
322.707	22.05
322.921	4.67
323.135	-12.47
323.349	7.04
323.562	-10.58
323.776	-22.27
323.989	-13.75
324.203	-42.26
324.417	-59.32
324.63	-60.85
324.844	-61.29
325.057	-59.51
325.271	-22.93
325.485	1.83
325.698	19.13
325.912	34.74
326.125	7.93
326.339	9.35
326.552	-19.31
326.766	-24.28
326.979	-17.66
327.193	36.76
327.406	12.77
327.619	13.07
327.833	23.63
328.046	3.36
328.26	-48.84
328.473	-1.8
328.686	-12.56
328.9	-13.12
329.113	5.95
329.326	1.43
329.54	-27.77
329.753	-45.35
329.966	-72.9
330.179	-52.02
330.393	-22.09
330.606	-10.08
330.819	19.43
331.032	31.58
331.246	26.25
331.459	53.43
331.672	50.25
331.885	32.54
332.098	16.99
332.311	13.84
332.525	-47
332.738	-67.87
332.951	-21.42
333.164	-11.28
333.377	3.45
333.59	9.47
333.803	21.05
334.016	8.91
334.229	5.77
334.442	-4.32
334.655	24.11
334.868	38.58
335.081	34
335.294	15.39
335.507	2.3
335.72	-8.28
335.933	-33.68
336.146	-46.66
336.359	-19.26
336.572	-31.37
336.785	-58.25
336.997	-50.68
337.21	-29.38
337.423	-47.81
337.636	-41.72
337.849	-13.57
338.062	-8.73
338.274	-7.4
338.487	-13.75
338.7	-16.16
338.913	-63.86
339.125	-68.42
339.338	-117.58
339.551	-91.97
339.763	-58.02
339.976	-33.77
340.189	-24.82
340.402	-10.49
340.614	-15.94
340.827	-20.34
341.039	-36.98
341.252	-33.59
341.465	-12.43
341.677	-17.29
341.89	-43.69
342.102	-5.95
342.315	-12.58
342.527	-57.89
342.74	-44.16
342.952	-11.06
343.165	-1.06
343.377	11.75
343.59	14.84
343.802	30.43
344.015	29.21
344.227	19.87
344.44	17.55
344.652	20.61
344.864	-0.19
345.077	27.36
345.289	22.9
345.502	22.43
345.714	15.86
345.926	26.33
346.139	-0.03
346.351	17.95
346.563	24.42
346.775	32.16
346.988	18.65
347.2	9.29
347.412	-35.52
347.624	-65.13
347.837	-95.4
348.049	-57.59
348.261	-0.05
348.473	16.72
348.685	20.58
348.897	31.56
349.11	8.52
349.322	-21.73
349.534	-15.9
349.746	-7.06
349.958	-16.73
350.17	-38.44
350.382	-20.3
350.594	-14.44
350.806	-12.88
351.018	3.89
351.23	3.58
351.442	-40.14
351.654	-64.37
351.866	-50.61
352.078	-51.29
352.29	-22.75
352.502	0.24
352.714	17.9
352.926	9.22
353.138	9.79
353.35	-0.15
353.561	10.94
353.773	-8.25
353.985	5.29
354.197	-7.93
354.409	-6.47
354.621	-17.77
354.832	-2.86
355.044	-21.57
355.256	-14.11
355.468	8.93
355.679	9.83
355.891	14.01
356.103	12.88
356.314	27.81
356.526	16.63
356.738	29.21
356.949	6.65
357.161	22.7
357.373	10.11
357.584	-10.53
357.796	-22.01
358.008	-15.84
358.219	-3.68
358.431	-7.18
358.642	12.28
358.854	16.17
359.065	0.28
359.277	-24.93
359.488	-42.44
359.7	-59.05
359.911	-65.06
360.123	-37.38
360.334	-49.58
360.546	-62.24
360.757	-70.58
360.969	-65.19
361.18	-68.25
361.391	-47.09
361.603	-41.36
361.814	-43.38
362.025	-36.94
362.237	-44.87
362.448	-39.55
362.659	-21.31
362.871	-11.56
363.082	-11.15
363.293	-1.59
363.504	-2.65
363.716	-8.46
363.927	-9.27
364.138	-22.93
364.349	-25.25
364.56	-28.79
364.772	-30.47
364.983	-14.05
365.194	-12.61
365.405	-4.18
365.616	8.37
365.827	7.12
366.038	-6.15
366.25	-11.43
366.461	-39.06
366.672	-29.24
366.883	-7.68
367.094	3.47
367.305	-8.14
367.516	-2
367.727	-20.15
367.938	-25.64
368.149	-28.92
368.36	-7.04
368.571	-5.36
368.781	-25.93
368.992	-45.84
369.203	-77.13
369.414	-102.56
369.625	-90.96
369.836	-62.95
370.047	-83.84
370.258	-49.9
370.468	-38.45
370.679	-63.97
370.89	-54.31
371.101	-25.01
371.312	-21.26
371.522	-11.4
371.733	1.06
371.944	13.09
372.155	6.37
372.365	-10.64
372.576	-21.86
372.787	-32.57
372.997	-70.55
373.208	-53.98
373.419	-23.99
373.629	-50.52
373.84	-44.62
374.05	-34.47
374.261	-35.37
374.472	-55.53
374.682	7.36
374.893	11.56
375.103	35.18
375.314	38.36
375.524	38.06
375.735	23.25
375.945	27.78
376.156	-4.79
376.366	-8.62
376.577	-4.14
376.787	-15.25
376.997	-12.36
377.208	-2.8
377.418	-17.27
377.629	-10.44
377.839	-1.43
378.049	-1.98
378.26	8.79
378.47	20.23
378.68	13.63
378.89	4.97
379.101	1.92
379.311	-20.62
379.521	-42.03
379.732	-47.54
379.942	-52.24
380.152	-66.34
380.362	-41.69
380.572	-36.49
380.783	-12.05
380.993	0.86
381.203	7.53
381.413	19.13
381.623	22.67
381.833	10.16
382.043	8.33
382.253	6.02
382.463	-2.06
382.674	-10.87
382.884	-33.95
383.094	-34.19
383.304	-30.87
383.514	-20.13
383.724	-10.31
383.934	-6.66
384.144	-21.34
384.353	-27.24
384.563	-27.12
384.773	-23.18
384.983	-25.79
385.193	-6.97
385.403	0.44
385.613	-6.55
385.823	-18.41
386.033	-6.9
386.242	-13.61
386.452	-18.22
386.662	-26.28
386.872	-4.86
387.082	-13.17
387.291	-17.56
387.501	-21.85
387.711	-9.67
387.921	-20.18
388.13	-19.89
388.34	-6.02
388.55	-6.5
388.759	-11.19
388.969	-7.15
389.179	-6.84
389.388	-10.03
389.598	-4.03
389.807	-6.95
390.017	-7.32
390.227	-3.79
390.436	-7.1
390.646	-8.27
390.855	-2.13
391.065	-5.47
391.274	-8.98
391.484	-7.82
391.693	-6.52
391.903	-7.23
392.112	0.34
392.322	4.29
392.531	7.38
392.74	8.2
392.95	5.68
393.159	1.57
393.369	-0.32
393.578	-0.68
393.787	-4.36
393.997	-3.67
394.206	-3.93
394.415	-3.76
394.625	-4.78
394.834	-5.31
395.043	-4.33
395.252	-2.56
395.462	-0.8
395.671	0.25
395.88	2.29
396.089	2.61
396.298	0.7
396.508	-0.83
396.717	-1.98
396.926	-1.44
397.135	-1.52
397.344	-1.02
397.553	0.34
397.762	1.46
397.971	1.39
398.181	1.63
398.39	0.93
398.599	0.22
398.808	0.15
399.017	0.69
399.226	1.72
399.435	3.06
399.644	3.61
399.853	3.01
400.062	2.9
400.27	2.17
400.479	1.72
400.688	1.13
400.897	1.11
401.106	0.9
401.315	0.98
401.524	0.98
401.733	1.53
401.941	2.29
402.15	2.21
402.359	1.76
402.568	1.94
402.777	1.91
402.985	1.49
403.194	1.63
403.403	1.98
403.612	1.71
403.82	1.54
404.029	1.9
404.238	1.76
404.446	1.83
404.655	1.84
404.864	1.55
405.072	1.12
405.281	1.15
405.489	0.88
405.698	0.95
405.906	1.16
406.115	1.35
406.324	1.4
406.532	1.71
406.741	1.89
406.949	1.97
407.158	1.79
407.366	1.78
407.574	1.68
407.783	1.77
407.991	1.6
408.2	1.85
408.408	1.77
408.617	1.65
408.825	1.33
409.033	1.43
409.242	1.54
409.45	1.63
409.658	1.58
409.867	1.77
410.075	1.65
410.283	1.42
410.491	1.37
410.7	1.37
410.908	1.45
411.116	1.68
411.324	1.62
411.533	1.54
411.741	1.68
411.949	1.53
412.157	1.3
412.365	1.33
412.573	1.37
412.781	1.42
412.99	1.35
413.198	1.54
413.406	1.7
413.614	1.79
413.822	1.58
414.03	1.58
414.238	1.34
414.446	1.28
414.654	1
414.862	1.17
415.07	1.23
415.278	1.46
415.486	1.32
415.694	1.52
415.902	1.43
416.109	1.25
416.317	1.17
416.525	1.08
416.733	1
416.941	1.12
417.149	1.22
417.357	1.28
417.564	1.59
417.772	1.81
417.98	1.77
418.188	1.71
418.395	1.76
418.603	1.77
418.811	1.47
419.019	1.28
419.226	1.45
419.434	1.49
419.642	1.23
419.849	1.38
420.057	1.56
420.265	1.54
420.472	1.3
420.68	1.5
420.887	1.45
421.095	1.38
421.302	1.33
421.51	1.52
421.717	1.51
421.925	1.62
422.132	1.49
422.34	1.39
422.547	1.35
422.755	1.19
422.962	0.99
423.17	1.01
423.377	1.09
423.585	1.07
423.792	0.98
423.999	1.15
424.207	1.12
424.414	1.21
424.621	1.25
424.829	1.37
425.036	1.36
425.243	1.47
425.451	1.25
425.658	1.08
425.865	1.29
426.072	1.23
426.28	1.61
426.487	1.78
426.694	1.95
426.901	1.59
427.108	1.58
427.315	1.22
427.523	1.41
427.73	1.22
427.937	1.33
428.144	1.21
428.351	1.23
428.558	1.16
428.765	1.21
428.972	1.18
429.179	1.4
429.386	1.58
429.593	1.43
429.8	1.36
430.007	1.49
430.214	1.52
430.421	1.37
430.628	1.18
430.835	1.12
431.042	1.33
431.249	1.28
431.456	1.21
431.662	1.33
431.869	1.51
432.076	1.35
432.283	1.4
432.49	1.44
432.697	1.48
432.903	1.34
433.11	1.33
433.317	1.32
433.524	1.49
433.73	1.47
433.937	1.74
434.144	1.57
434.35	1.6
434.557	1.44
434.764	1.54
434.97	1.34
435.177	1.64
435.384	1.55
435.59	1.6
435.797	1.72
436.003	1.84
436.21	1.74
436.416	1.86
436.623	1.89
436.829	1.91
437.036	1.94
437.242	1.86
437.449	1.8
437.655	1.84
437.862	1.75
438.068	1.59
438.275	1.68
438.481	1.84
438.687	1.77
438.894	1.77
439.1	1.85
439.307	2.04
439.513	1.86
439.719	1.91
439.926	1.93
440.132	1.95
440.338	1.68
440.544	1.87
440.751	1.82
440.957	1.83
441.163	1.77
441.369	1.97
441.575	1.81
441.782	1.84
441.988	1.79
442.194	1.84
442.4	1.78
442.606	1.99
442.812	2
443.018	2.06
443.224	2.1
443.431	2.23
443.637	2.02
443.843	1.92
444.049	1.94
444.255	1.85
444.461	1.82
444.667	1.78
444.873	2.02
445.079	2.09
445.284	2.24
445.49	2.05
445.696	1.93
445.902	1.79
446.108	1.64
446.314	1.56
446.52	1.55
446.726	1.87
446.931	1.87
447.137	1.92
447.343	1.95
447.549	1.94
447.755	1.78
447.96	1.82
448.166	1.8
448.372	1.7
448.578	1.74
448.783	1.75
448.989	1.7
449.195	1.81
449.4	1.88
449.606	1.89
449.812	1.92
450.017	2.03
450.223	2
450.428	1.93
450.634	2.07
450.84	2.15
451.045	2.12
451.251	2
451.456	2.3
451.662	2.36
451.867	2.4
452.073	2.3
452.278	2.48
452.483	2.45
452.689	2.28
452.894	2.29
453.1	2.45
453.305	2.35
453.51	2.25
453.716	2.28
453.921	2.3
454.127	2.17
454.332	2.17
454.537	2.11
454.742	2.08
454.948	1.98
455.153	2.06
455.358	2.16
455.563	2.31
455.769	2.47
455.974	2.51
456.179	2.35
456.384	2.3
456.589	2.3
456.795	2.04
457	2
457.205	2.26
457.41	2.2
457.615	2.13
457.82	2.22
458.025	2.26
458.23	2.08
458.435	2.12
458.64	2.08
458.845	2.24
459.05	2.25
459.255	2.27
459.46	2.3
459.665	2.31
459.87	2.29
460.075	2.28
460.28	2.31
460.485	2.32
460.69	2.36
460.895	2.19
461.099	2.15
461.304	2.28
461.509	2.25
461.714	2.15
461.919	2.34
462.123	2.3
462.328	2.28
462.533	2.23
462.738	2.4
462.942	2.3
463.147	2.42
463.352	2.43
463.556	2.51
463.761	2.42
463.966	2.43
464.17	2.41
464.375	2.29
464.58	2.24
464.784	2.17
464.989	2.12
465.193	2.14
465.398	2.22
465.602	2.39
465.807	2.43
466.011	2.51
466.216	2.53
466.42	2.55
466.625	2.59
466.829	2.67
467.034	2.7
467.238	2.82
467.443	2.78
467.647	2.58
467.851	2.65
468.056	2.63
468.26	2.51
468.464	2.5
468.669	2.65
468.873	2.72
469.077	2.72
469.282	2.81
469.486	2.92
469.69	2.91
469.894	2.77
470.099	2.82
470.303	2.84
470.507	2.65
470.711	2.55
470.915	2.59
471.119	2.53
471.324	2.48
471.528	2.58
471.732	2.7
471.936	2.58
472.14	2.64
472.344	2.72
472.548	2.77
472.752	2.85
472.956	3.15
473.16	3.07
473.364	2.92
473.568	2.89
473.772	2.87
473.976	2.71
474.18	2.69
474.384	2.83
474.588	2.82
474.792	2.7
474.995	2.76
475.199	2.92
475.403	2.89
475.607	3
475.811	2.97
476.015	2.91
476.218	2.91
476.422	2.85
476.626	2.81
476.83	2.92
477.033	2.97
477.237	2.84
477.441	2.91
477.644	2.92
477.848	2.97
478.052	2.93
478.255	3.03
478.459	3.03
478.663	3.13
478.866	3.13
479.07	3.18
479.273	3.34
479.477	3.42
479.681	3.4
479.884	3.36
480.088	3.33
480.291	3.18
480.495	3.16
480.698	3.09
480.901	3.14
481.105	3.26
481.308	3.27
481.512	3.26
481.715	3.39
481.919	3.39
482.122	3.35
482.325	3.33
482.529	3.28
482.732	3.21
482.935	3.18
483.138	3.09
483.342	3.19
483.545	3.34
483.748	3.37
483.952	3.46
484.155	3.63
484.358	3.63
484.561	3.58
484.764	3.56
484.967	3.59
485.171	3.58
485.374	3.51
485.577	3.6
485.78	3.63
485.983	3.62
486.186	3.55
486.389	3.51
486.592	3.43
486.795	3.43
486.998	3.37
487.201	3.44
487.404	3.58
487.607	3.67
487.81	3.67
488.013	3.7
488.216	3.64
488.419	3.56
488.622	3.45
488.825	3.4
489.028	3.35
489.231	3.34
489.433	3.31
489.636	3.29
489.839	3.36
490.042	3.29
490.245	3.28
490.447	3.33
490.65	3.39
490.853	3.34
491.056	3.45
491.258	3.42
491.461	3.42
491.664	3.44
491.866	3.39
492.069	3.49
492.272	3.53
492.474	3.58
492.677	3.59
492.879	3.75
493.082	3.73
493.285	3.86
493.487	3.78
493.69	3.74
493.892	3.56
494.095	3.49
494.297	3.4
494.5	3.45
494.702	3.46
494.905	3.51
495.107	3.56
495.309	3.61
495.512	3.61
495.714	3.66
495.917	3.75
496.119	3.73
496.321	3.78
496.524	3.84
496.726	3.85
496.928	3.84
497.13	3.85
497.333	3.77
497.535	3.77
497.737	3.76
497.939	3.77
498.142	3.81
498.344	3.78
498.546	3.68
498.748	3.7
498.95	3.77
499.152	3.71
499.355	3.78
499.557	3.9
499.759	3.92
499.961	3.84
500.163	3.95
500.365	3.9
500.567	3.93
500.769	3.85
500.971	3.86
501.173	3.74
501.375	3.82
501.577	3.75
501.779	3.86
501.981	3.93
502.183	3.96
502.385	3.91
502.587	3.87
502.788	3.82
502.99	3.79
503.192	3.87
503.394	3.87
503.596	3.9
503.798	3.99
503.999	4.01
504.201	3.95
504.403	4.04
504.605	4.11
504.806	4.04
505.008	4.02
505.21	4.11
505.411	4.08
505.613	4.06
505.815	4.07
506.016	4.13
506.218	4.15
506.42	4.16
506.621	4.17
506.823	4.21
507.024	4.13
507.226	4.03
507.427	4.06
507.629	4.05
507.83	4.08
508.032	4.08
508.233	4.19
508.435	4.21
508.636	4.33
508.838	4.21
509.039	4.24
509.24	4.23
509.442	4.22
509.643	4.14
509.845	4.23
510.046	4.32
510.247	4.33
510.448	4.36
510.65	4.4
510.851	4.52
511.052	4.47
511.254	4.47
511.455	4.52
511.656	4.57
511.857	4.57
512.058	4.57
512.26	4.6
512.461	4.52
512.662	4.58
512.863	4.48
513.064	4.5
513.265	4.49
513.466	4.57
513.667	4.5
513.868	4.54
514.069	4.57
514.27	4.59
514.471	4.53
514.672	4.48
514.873	4.45
515.074	4.54
515.275	4.45
515.476	4.47
515.677	4.51
515.878	4.63
516.079	4.56
516.28	4.61
516.481	4.7
516.682	4.79
516.882	4.67
517.083	4.63
517.284	4.57
517.485	4.5
517.686	4.43
517.886	4.46
518.087	4.55
518.288	4.65
518.488	4.64
518.689	4.64
518.89	4.6
519.091	4.62
519.291	4.55
519.492	4.62
519.692	4.63
519.893	4.74
520.094	4.71
520.294	4.74
520.495	4.69
520.695	4.72
520.896	4.66
521.096	4.68
521.297	4.75
521.497	4.82
521.698	4.77
521.898	4.77
522.099	4.78
522.299	4.76
522.499	4.77
522.7	4.85
522.9	4.89
523.101	4.91
523.301	4.94
523.501	4.92
523.702	4.91
523.902	4.95
524.102	5.03
524.302	4.97
524.503	5.02
524.703	5.03
524.903	5.02
525.103	4.93
525.304	5.06
525.504	5.1
525.704	5.12
525.904	5.12
526.104	5.12
526.304	5.07
526.504	5.11
526.705	5.1
526.905	5.19
527.105	5.21
527.305	5.14
527.505	5.03
527.705	5.04
527.905	4.97
528.105	4.94
528.305	5
528.505	5.07
528.705	5.13
528.905	5.07
529.105	5.1
529.304	5.14
529.504	5.2
529.704	5.13
529.904	5.18
530.104	5.2
530.304	5.2
530.503	5.2
530.703	5.17
530.903	5.17
531.103	5.19
531.303	5.17
531.502	5.16
531.702	5.29
531.902	5.33
532.101	5.33
532.301	5.38
532.501	5.37
532.7	5.29
532.9	5.33
533.1	5.31
533.299	5.29
533.499	5.34
533.698	5.38
533.898	5.34
534.097	5.4
534.297	5.47
534.496	5.44
534.696	5.45
534.895	5.51
535.095	5.59
535.294	5.59
535.494	5.58
535.693	5.59
535.892	5.58
536.092	5.47
536.291	5.41
536.491	5.52
536.69	5.57
536.889	5.51
537.088	5.54
537.288	5.64
537.487	5.66
537.686	5.63
537.886	5.78
538.085	5.8
538.284	5.85
538.483	5.83
538.682	5.92
538.882	5.84
539.081	5.91
539.28	5.8
539.479	5.77
539.678	5.74
539.877	5.86
540.076	5.84
540.275	5.92
540.474	6.02
540.673	6.03
540.872	5.98
541.071	6.03
541.27	6.03
541.469	6.06
541.668	6.09
541.867	6.12
542.066	6.16
542.265	6.24
542.464	6.18
542.663	6.2
542.862	6.33
543.06	6.34
543.259	6.33
543.458	6.41
543.657	6.47
543.856	6.47
544.054	6.45
544.253	6.46
544.452	6.44
544.651	6.5
544.849	6.47
545.048	6.57
545.247	6.61
545.445	6.68
545.644	6.69
545.843	6.69
546.041	6.72
546.24	6.81
546.438	6.9
546.637	6.92
546.836	7.05
547.034	7.1
547.233	7.14
547.431	7.1
547.63	7.14
547.828	7.14
548.027	7.11
548.225	7.1
548.423	7.16
548.622	7.27
548.82	7.28
549.019	7.41
549.217	7.45
549.415	7.5
549.614	7.48
549.812	7.5
550.01	7.5
550.209	7.58
550.407	7.66
550.605	7.71
550.803	7.84
551.002	7.92
551.2	7.97
551.398	8.07
551.596	8.2
551.794	8.22
551.993	8.27
552.191	8.31
552.389	8.4
552.587	8.39
552.785	8.42
552.983	8.51
553.181	8.62
553.379	8.63
553.577	8.76
553.775	8.87
553.973	8.9
554.171	9
554.369	9.05
554.567	9.04
554.765	9.04
554.963	9.18
555.161	9.11
555.359	9.17
555.557	9.27
555.755	9.4
555.952	9.43
556.15	9.59
556.348	9.66
556.546	9.8
556.744	9.86
556.941	9.93
557.139	10.03
557.337	10.1
557.535	10.1
557.732	10.26
557.93	10.38
558.128	10.41
558.325	10.54
558.523	10.62
558.721	10.67
558.918	10.7
559.116	10.8
559.313	10.8
559.511	10.95
559.708	10.99
559.906	11.07
560.104	11.17
560.301	11.29
560.498	11.29
560.696	11.36
560.893	11.49
561.091	11.58
561.288	11.7
561.486	11.83
561.683	11.93
561.88	11.97
562.078	12.09
562.275	12.15
562.473	12.27
562.67	12.44
562.867	12.58
563.064	12.7
563.262	12.8
563.459	12.87
563.656	13.06
563.853	13.12
564.051	13.14
564.248	13.24
564.445	13.33
564.642	13.24
564.839	13.42
565.036	13.66
565.234	13.87
565.431	14.01
565.628	14.22
565.825	14.28
566.022	14.32
566.219	14.36
566.416	14.41
566.613	14.47
566.81	14.55
567.007	14.55
567.204	14.6
567.401	14.67
567.598	14.69
567.795	14.72
567.991	14.82
568.188	14.92
568.385	15.07
568.582	15.18
568.779	15.35
568.976	15.5
569.172	15.66
569.369	15.65
569.566	15.77
569.763	15.79
569.96	15.75
570.156	15.65
570.353	15.73
570.55	15.78
570.746	15.89
570.943	16.05
571.14	16.15
571.336	16.27
571.533	16.37
571.729	16.37
571.926	16.44
572.123	16.56
572.319	16.61
572.516	16.52
572.712	16.59
572.909	16.58
573.105	16.69
573.302	16.71
573.498	16.85
573.695	16.82
573.891	16.89
574.087	16.9
574.284	16.88
574.48	16.89
574.677	17
574.873	17.03
575.069	17.04
575.266	17.15
575.462	17.17
575.658	17.21
575.854	17.26
576.051	17.32
576.247	17.23
576.443	17.2
576.639	17.21
576.835	17.16
577.032	17.09
577.228	17.25
577.424	17.31
577.62	17.22
577.816	17.29
578.012	17.31
578.208	17.27
578.404	17.39
578.6	17.48
578.796	17.48
578.993	17.51
579.189	17.46
579.384	17.28
579.58	17.23
579.776	17.22
579.972	17.19
580.168	17.13
580.364	17.24
580.56	17.19
580.756	17.13
580.952	17.1
581.148	17.17
581.343	17.1
581.539	17.19
581.735	17.25
581.931	17.29
582.127	17.3
582.322	17.35
582.518	17.32
582.714	17.22
582.909	17.18
583.105	17.11
583.301	17.04
583.496	17.07
583.692	17.03
583.888	17.08
584.083	17.1
584.279	17.12
584.474	17.11
584.67	17.2
584.866	17.21
585.061	17.19
585.257	17.26
585.452	17.24
585.648	17.2
585.843	17.26
586.039	17.28
586.234	17.29
586.429	17.31
586.625	17.38
586.82	17.34
587.015	17.35
587.211	17.29
587.406	17.28
587.601	17.33
587.797	17.26
587.992	17.2
588.187	17.29
588.383	17.29
588.578	17.3
588.773	17.41
588.968	17.52
589.163	17.57
589.359	17.54
589.554	17.48
589.749	17.42
589.944	17.46
590.139	17.35
590.334	17.46
590.529	17.54
590.724	17.6
590.919	17.66
591.114	17.73
591.309	17.81
591.504	17.82
591.699	17.84
591.894	17.87
592.089	17.93
592.284	17.96
592.479	18.03
592.674	18.07
592.869	18.12
593.064	18.23
593.259	18.32
593.454	18.45
593.648	18.57
593.843	18.58
594.038	18.58
594.233	18.56
594.428	18.51
594.622	18.55
594.817	18.66
595.012	18.74
595.206	18.76
595.401	18.84
595.596	18.93
595.79	18.99
595.985	19.16
596.18	19.32
596.374	19.4
596.569	19.46
596.763	19.53
596.958	19.48
597.153	19.54
597.347	19.64
597.542	19.72
597.736	19.76
597.931	19.83
598.125	19.83
598.319	19.9
598.514	19.93
598.708	20.05
598.903	20.13
599.097	20.27
599.291	20.32
599.486	20.32
599.68	20.34
599.874	20.35
600.069	20.39
600.263	20.38
600.457	20.52
600.651	20.59
600.846	20.71
601.04	20.68
601.234	20.72
601.428	20.8
601.622	20.83
601.817	20.88
602.011	20.97
602.205	21.04
602.399	21
602.593	21.07
602.787	21.08
602.981	21.04
603.175	20.99
603.369	20.98
603.563	20.96
603.757	21.06
603.951	21.16
604.145	21.25
604.339	21.29
604.533	21.14
604.727	21
604.921	20.96
605.115	20.92
605.309	21
605.502	21.06
605.696	21.05
605.89	21.03
606.084	20.91
606.278	20.81
606.471	20.77
606.665	20.71
606.859	20.58
607.053	20.62
607.246	20.55
607.44	20.52
607.634	20.42
607.827	20.47
608.021	20.4
608.214	20.26
608.408	20.18
608.602	20.12
608.795	20.03
608.989	19.92
609.182	19.97
609.376	19.95
609.569	19.87
609.763	19.77
609.956	19.7
610.15	19.53
610.343	19.45
610.537	19.43
610.73	19.34
610.923	19.36
611.117	19.37
611.31	19.23
611.504	19.23
611.697	19.19
611.89	19.07
612.083	18.96
612.277	19.01
612.47	18.83
612.663	18.8
612.856	18.77
613.05	18.68
613.243	18.6
613.436	18.56
613.629	18.44
613.822	18.29
614.015	18.25
614.209	18.09
614.402	18.1
614.595	18.08
614.788	18.04
614.981	17.91
615.174	17.74
615.367	17.66
615.56	17.49
615.753	17.42
615.946	17.35
616.139	17.46
616.332	17.48
616.525	17.51
616.718	17.47
616.911	17.43
617.103	17.4
617.296	17.31
617.489	17.24
617.682	17.23
617.875	17.32
618.067	17.18
618.26	17.04
618.453	17.08
618.646	16.99
618.838	16.93
619.031	17.04
619.224	17.09
619.417	17.08
619.609	17.11
619.802	17.06
619.994	16.94
620.187	16.9
620.38	16.79
620.572	16.69
620.765	16.68
620.957	16.58
621.15	16.46
621.342	16.42
621.535	16.49
621.727	16.44
621.92	16.44
622.112	16.32
622.305	16.35
622.497	16.29
622.69	16.27
622.882	16.24
623.074	16.4
623.267	16.3
623.459	16.14
623.651	16.09
623.844	16.17
624.036	16.18
624.228	16.14
624.42	16.21
624.613	16.2
624.805	16.07
624.997	15.93
625.189	15.87
625.381	15.91
625.574	15.83
625.766	15.85
625.958	15.91
626.15	16.03
626.342	15.96
626.534	15.94
626.726	15.87
626.918	15.84
627.11	15.75
627.302	15.72
627.494	15.67
627.686	15.75
627.878	15.67
628.07	15.55
628.262	15.44
628.454	15.44
628.646	15.43
628.838	15.51
629.029	15.47
629.221	15.54
629.413	15.49
629.605	15.32
629.797	15.2
629.989	15.31
630.18	15.31
630.372	15.31
630.564	15.27
630.755	15.27
630.947	15.3
631.139	15.16
631.33	15.04
631.522	15.17
631.714	15.14
631.905	15.09
632.097	15.1
632.289	15.12
632.48	14.97
632.672	14.95
632.863	14.74
633.055	14.71
633.246	14.7
633.438	14.65
633.629	14.59
633.821	14.68
634.012	14.71
634.203	14.62
634.395	14.62
634.586	14.66
634.777	14.64
634.969	14.63
635.16	14.78
635.351	14.71
635.543	14.73
635.734	14.67
635.925	14.67
636.117	14.62
636.308	14.71
636.499	14.66
636.69	14.66
636.881	14.57
637.073	14.64
637.264	14.56
637.455	14.56
637.646	14.66
637.837	14.7
638.028	14.55
638.219	14.65
638.41	14.58
638.601	14.49
638.792	14.49
638.983	14.52
639.174	14.37
639.365	14.47
639.556	14.42
639.747	14.35
639.938	14.39
640.129	14.39
640.32	14.2
640.511	14.28
640.701	14.37
640.892	14.32
641.083	14.44
641.274	14.68
641.465	14.58
641.655	14.46
641.846	14.5
642.037	14.39
642.228	14.27
642.418	14.38
642.609	14.38
642.8	14.36
642.99	14.3
643.181	14.31
643.372	14.3
643.562	14.29
643.753	14.22
643.943	14.24
644.134	14.15
644.324	14.05
644.515	14.07
644.705	14.11
644.896	14.14
645.086	14.19
645.277	14.15
645.467	14.17
645.658	14.13
645.848	14.11
646.038	14.08
646.229	14.11
646.419	13.95
646.61	13.84
646.8	13.78
646.99	13.74
647.18	13.7
647.371	13.71
647.561	13.67
647.751	13.66
647.941	13.57
648.132	13.57
648.322	13.67
648.512	13.77
648.702	13.77
648.892	13.84
649.082	13.79
649.272	13.59
649.462	13.43
649.653	13.32
649.843	13.16
650.033	13.17
650.223	13.21
650.413	13.19
650.603	13.28
650.793	13.35
650.983	13.27
651.172	13.24
651.362	13.27
651.552	13.12
651.742	13.01
651.932	13.03
652.122	13.04
652.312	13.06
652.502	13.14
652.691	13.09
652.881	12.96
653.071	12.83
653.261	12.61
653.45	12.42
653.64	12.33
653.83	12.21
654.019	12.15
654.209	12.11
654.399	12.1
654.588	12.05
654.778	11.96
654.968	11.89
655.157	11.8
655.347	11.67
655.536	11.47
655.726	11.38
655.915	11.16
656.105	11.04
656.294	10.91
656.484	10.82
656.673	10.72
656.863	10.69
657.052	10.5
657.241	10.3
657.431	10.1
657.62	9.94
657.809	9.66
657.999	9.54
658.188	9.39
658.377	9.28
658.567	9.19
658.756	9.07
658.945	8.9
659.134	8.77
659.324	8.65
659.513	8.53
659.702	8.32
659.891	8.24
660.08	8.15
660.269	8.08
660.458	7.85
660.648	7.84
660.837	7.74
661.026	7.68
661.215	7.47
661.404	7.3
661.593	7.29
661.782	7.1
661.971	6.95
662.16	6.94
662.349	6.92
662.538	6.75
662.726	6.73
662.915	6.54
663.104	6.39
663.293	6.39
663.482	6.34
663.671	6.16
663.86	6.12
664.048	6.05
664.237	5.94
664.426	5.75
664.615	5.79
664.803	5.69
664.992	5.59
665.181	5.43
665.369	5.35
665.558	5.27
665.747	5.23
665.935	5.26
666.124	5.3
666.312	5.38
666.501	5.31
666.69	5.25
666.878	5.21
667.067	5.13
667.255	5.18
667.444	5.37
667.632	5.45
667.82	5.55
668.009	5.44
668.197	5.31
668.386	5.13
668.574	5.23
668.762	5.03
668.951	5.06
669.139	5.09
669.327	5.05
669.516	4.99
669.704	5.03
669.892	5.24
670.08	5.22
670.269	5.07
670.457	4.93
670.645	4.79
670.833	4.78
671.021	4.85
671.21	5.02
671.398	5.26
671.586	5.3
671.774	5.09
671.962	5.07
672.15	5.15
672.338	5.01
672.526	5.11
672.714	5.11
672.902	5.05
673.09	5.08
673.278	5.26
673.466	5.28
673.654	5.51
673.842	5.55
674.03	5.57
674.218	5.39
674.405	5.44
674.593	5.38
674.781	5.55
674.969	5.51
675.157	5.65
675.344	5.72
675.532	5.79
675.72	5.84
675.908	5.95
676.095	5.89
676.283	5.88
676.471	6.03
676.658	5.98
676.846	5.96
677.033	6.2
677.221	6.39
677.409	6.28
677.596	6.38
677.784	6.39
677.971	6.35
678.159	6.28
678.346	6.35
678.534	6.38
678.721	6.64
678.909	6.71
679.096	6.84
679.283	7.12
679.471	7.22
679.658	7.29
679.846	7.46
680.033	7.66
680.22	7.59
680.408	7.6
680.595	7.57
680.782	7.45
680.969	7.42
681.157	7.51
681.344	7.65
681.531	7.77
681.718	7.88
681.905	8.03
682.093	8.01
682.28	8.26
682.467	8.55
682.654	8.77
682.841	8.9
683.028	9.24
683.215	9.32
683.402	9.14
683.589	9.33
683.776	9.5
683.963	9.52
684.15	9.7
684.337	10.01
684.524	10.13
684.711	10.26
684.898	10.37
685.085	10.56
685.271	10.84
685.458	11
685.645	11.17
685.832	11.54
686.019	11.85
686.205	12.06
686.392	12.39
686.579	12.76
686.766	13.1
686.952	13.17
687.139	13.57
687.326	13.8
687.512	14.03
687.699	14.37
687.886	14.81
688.072	14.97
688.259	15.52
688.445	16.09
688.632	16.49
688.818	17.11
689.005	17.63
689.191	18.05
689.378	18.65
689.564	19.17
689.751	19.42
689.937	19.87
690.124	20.37
690.31	20.62
690.496	20.9
690.683	21.51
690.869	22.18
691.055	22.74
691.242	23.54
691.428	24.25
691.614	25.04
691.8	25.65
691.987	26.3
692.173	26.51
692.359	27.25
692.545	27.68
692.731	28.29
692.918	28.85
693.104	29.65
693.29	30.17
693.476	30.88
693.662	31.52
693.848	32.05
694.034	32.67
694.22	33.22
694.406	33.94
694.592	34.65
694.778	35.55
694.964	36.33
695.15	37.16
695.336	37.7
695.522	38.49
695.708	39.19
695.894	39.72
696.08	40.36
696.265	41.07
696.451	41.79
696.637	42.49
696.823	43.28
697.009	43.82
697.194	44.38
697.38	44.84
697.566	45.18
697.751	45.77
697.937	46.59
698.123	47.37
698.308	47.87
698.494	48.64
698.68	49.06
698.865	49.46
699.051	49.99
699.236	50.7
699.422	51.01
699.607	51.6
699.793	52.22
699.978	52.57
700.164	52.89
700.349	53.63
700.535	54.15
700.72	54.46
700.906	55.15
701.091	55.4
701.276	55.84
701.462	56.83
701.647	57.49
701.832	57.85
702.018	58.6
702.203	58.73
702.388	58.76
702.573	59.07
702.759	59.87
702.944	60.05
703.129	60.56
703.314	60.73
703.499	61.16
703.684	61.17
703.87	62.22
704.055	63.09
704.24	63.79
704.425	64.19
704.61	64.45
704.795	64.52
704.98	64.77
705.165	64.75
705.35	64.93
705.535	65.24
705.72	65.31
705.905	65.49
706.09	66.05
706.275	66.33
706.459	66.35
706.644	66.58
706.829	66.55
707.014	66.46
707.199	66.87
707.384	67.64
707.568	67.88
707.753	68.44
707.938	69.23
708.123	69.29
708.307	69.3
708.492	69.43
708.677	69.24
708.861	68.85
709.046	68.81
709.231	69.37
709.415	69.48
709.6	69.83
709.784	69.98
709.969	70.48
710.153	69.97
710.338	70.18
710.522	70.41
710.707	71.1
710.891	71.03
711.076	71.43
711.26	71.31
711.445	71.44
711.629	71.17
711.813	71.3
711.998	71.59
712.182	71.87
712.366	72.38
712.551	73.04
712.735	73.59
712.919	73.21
713.103	73.7
713.288	73.32
713.472	73
713.656	73.09
713.84	73.28
714.024	73.36
714.208	73.28
714.393	73.63
714.577	73.93
714.761	74.3
714.945	74.24
715.129	74.78
715.313	74.52
715.497	73.95
715.681	74.58
715.865	74.47
716.049	74.51
716.233	74.77
716.417	75.29
716.601	74.63
716.785	74.84
716.968	74.62
717.152	74.59
717.336	74.58
717.52	74.79
717.704	74.64
717.888	75.1
718.071	75.46
718.255	75.53
718.439	75.64
718.622	76.18
718.806	76.41
718.99	76.02
719.174	75.77
719.357	76.07
719.541	75.87
719.724	75.48
719.908	76.61
720.092	77.2
720.275	77.49
720.459	77.6
720.642	77.24
720.826	76.54
721.009	75.87
721.193	75.18
721.376	75.05
721.559	75.54
721.743	75.47
721.926	76.36
722.11	77.18
722.293	76.82
722.476	76.65
722.66	76.82
722.843	76.61
723.026	75.63
723.21	76.64
723.393	77.54
723.576	77.4
723.759	77.15
723.942	77.29
724.126	76.89
724.309	76.37
724.492	76.74
724.675	76.43
724.858	77.18
725.041	77.56
725.224	77.52
725.407	77.44
725.59	78.7
725.774	78.09
725.957	77.5
726.14	77.4
726.322	77.63
726.505	76.83
726.688	77.2
726.871	77.03
727.054	77.77
727.237	77.64
727.42	77.99
727.603	78.45
727.786	79.36
727.968	79.08
728.151	79.17
728.334	78.87
728.517	79.15
728.699	79.12
728.882	78.78
729.065	78.67
729.248	79.42
729.43	79.31
729.613	79.65
729.796	80.65
729.978	80.68
730.161	80.65
730.343	79.88
730.526	80.14
730.708	79.52
730.891	79.43
731.073	79.1
731.256	79.07
731.438	78.85
731.621	79.04
731.803	79.48
731.986	79.45
732.168	79.49
732.35	79.58
732.533	79.64
732.715	79.96
732.898	80.38
733.08	80.6
733.262	80.75
733.444	80.74
733.627	80.02
733.809	80.15
733.991	81.01
734.173	80.67
734.355	80.91
734.538	81.52
734.72	81.36
734.902	81.17
735.084	81.5
735.266	81.62
735.448	81.88
735.63	81.92
735.812	81.93
735.994	82.49
736.176	82.79
736.358	81.67
736.54	82.37
736.722	82.14
736.904	81.02
737.086	80.75
737.268	81.93
737.45	81.62
737.632	81.54
737.814	81.48
737.995	80.84
738.177	80.49
738.359	79.38
738.541	80.54
738.723	81.39
738.904	83
739.086	83.31
739.268	83.64
739.449	83.36
739.631	83.18
739.813	82.5
739.994	82.64
740.176	83.77
740.358	82.51
740.539	83.13
740.721	83
740.902	83.54
741.084	83.12
741.265	83.46
741.447	83.32
741.628	83.1
741.81	81.89
741.991	82.3
742.172	83.72
742.354	83.55
742.535	83.97
742.717	84.71
742.898	84.57
743.079	84.64
743.261	84.6
743.442	84.34
743.623	85.04
743.804	85.07
743.986	84.95
744.167	83.92
744.348	83.53
744.529	83.23
744.71	82.53
744.891	81.36
745.073	81.58
745.254	81.59
745.435	81.66
745.616	81.18
745.797	81.03
745.978	81.07
746.159	81.75
746.34	80.24
746.521	82.45
746.702	81.73
746.883	82.27
747.064	81.56
747.245	82.1
747.426	80.68
747.606	82.32
747.787	82.44
747.968	82.75
748.149	83.56
748.33	83.29
748.51	83.1
748.691	82.62
748.872	82.38
749.053	81.38
749.233	80.5
749.414	80.07
749.595	78.66
749.775	77.78
749.956	78.51
750.137	78.48
750.317	78.63
750.498	81.41
750.678	83.05
750.859	83.6
751.04	84.54
751.22	84.1
751.4	83.41
751.581	81.65
751.761	81.69
751.942	82.71
752.122	81.83
752.303	81.55
752.483	81.76
752.663	80.99
752.844	80
753.024	82.05
753.204	81.74
753.385	81.1
753.565	81.64
753.745	81.7
753.925	80.25
754.106	79.78
754.286	81.01
754.466	79.74
754.646	80.42
754.826	80.37
755.006	79.61
755.187	80.33
755.367	81.49
755.547	81.32
755.727	81.94
755.907	82.25
756.087	82.4
756.267	80.92
756.447	80.03
756.627	78.54
756.807	79.68
756.987	77.81
757.167	78.07
757.346	79.42
757.526	79.23
757.706	79.58
757.886	80.54
758.066	81.37
758.246	82.04
758.425	81.91
758.605	81.28
758.785	81.53
758.965	80.87
759.144	78.26
759.324	80.12
759.504	79.66
759.683	78.87
759.863	78.31
760.043	77.19
760.222	76.46
760.402	76.06
760.581	76.17
760.761	77.91
760.94	78.42
761.12	79.27
761.299	80.84
761.479	80.22
761.658	79.28
761.838	79.5
762.017	79.77
762.197	79.14
762.376	79.52
762.555	78.92
762.735	79.43
762.914	77.57
763.093	77.34
763.273	77.57
763.452	77.09
763.631	77.23
763.81	78.21
763.99	77.78
764.169	78.2
764.348	77.3
764.527	75.84
764.706	77.03
764.885	77.79
765.064	76.05
765.243	77.28
765.423	78.26
765.602	77.33
765.781	75.93
765.96	75.26
766.139	73.75
766.318	74.74
766.497	73.59
766.676	74.37
766.854	76.58
767.033	76.97
767.212	77.37
767.391	77.47
767.57	77.27
767.749	76.83
767.928	78.61
768.106	77.17
768.285	76.91
768.464	77.22
768.643	76.25
768.821	76.09
769	76.95
769.179	76.2
769.357	74.34
769.536	74.33
769.715	72.89
769.893	73.28
770.072	73.61
770.25	75.57
770.429	77.01
770.607	77.01
770.786	76.1
770.964	78.65
771.143	76.7
771.321	78.5
771.5	80.32
771.678	79.07
771.857	76.22
772.035	77.71
772.213	74.46
772.392	72.12
772.57	74.35
772.748	74.78
772.927	72.48
773.105	73.77
773.283	74.94
773.461	75.26
773.64	75.93
773.818	79.6
773.996	80.58
774.174	80.24
774.352	76.89
774.531	74.07
774.709	74.09
774.887	73.1
775.065	73.42
775.243	74.63
775.421	76.04
775.599	75.33
775.777	72.45
775.955	70.25
776.133	70.37
776.311	70.33
776.489	66.84
776.667	68.17
776.844	70.35
777.022	68.62
777.2	69.4
777.378	72.47
777.556	72.38
777.734	73.07
777.911	75.58
778.089	73.87
778.267	71.32
778.445	71.09
778.622	70.01
778.8	68.31
778.978	72.06
779.155	71
779.333	70.56
779.511	71.67
779.688	73.51
779.866	67.56
780.043	67.82
780.221	67.71
780.398	65.23
780.576	64.6
780.753	68.92
780.931	67.69
781.108	68.8
781.286	72.98
781.463	70.46
781.64	67.71
781.818	71.3
781.995	71.49
782.172	68.41
782.35	70.01
782.527	72.32
782.704	71.03
782.882	72.51
783.059	69.74
783.236	70.96
783.413	71.4
783.59	71.31
783.768	70.15
783.945	73.61
784.122	71.49
784.299	72.77
784.476	71.85
784.653	69.61
784.83	66.19
785.007	63.45
785.184	62.09
785.361	61.26
785.538	65.21
785.715	68.13
785.892	71.5
786.069	71.8
786.246	74.6
786.423	75.48
786.6	75.42
786.776	78.76
786.953	76.35
787.13	78.11
787.307	74.32
787.484	72.43
787.66	67.77
787.837	67.75
788.014	63.85
788.191	60.25
788.367	58.42
788.544	63.71
788.721	63.76
788.897	66.02
789.074	70.89
789.25	72.8
789.427	67.26
789.603	68.77
789.78	69.58
789.956	66.75
790.133	62.85
790.309	67.03
790.486	68.77
790.662	66.32
790.839	67.61
791.015	75.56
791.192	72.18
791.368	72.35
791.544	70.4
791.721	68.8
791.897	64.02
792.073	63.4
792.249	56.12
792.426	59.48
792.602	61.35
792.778	62.1
792.954	59.4
793.13	63.42
793.307	57.94
793.483	52.28
793.659	54.27
793.835	60.36
794.011	59.71
794.187	61.7
794.363	64.6
794.539	64.47
794.715	59.6
794.891	58.31
795.067	61.43
795.243	66.17
795.419	63.19
795.595	62.53
795.771	63.48
795.947	64.85
796.122	61.23
796.298	68.26
796.474	71.83
796.65	71.84
796.826	66.88
797.001	66.3
797.177	56.28
797.353	58.61
797.529	62.56
797.704	63.23
797.88	63.4
798.056	63.44
798.231	59.71
798.407	58.67
798.582	61.22
798.758	69.57
798.934	78.55
799.109	74.07
799.285	65.62
799.46	63.6
799.636	59.43
799.811	53.51
799.986	56.94
800.162	61.91
800.337	64.43
800.513	57.51
800.688	60.42
800.863	66.32
801.039	62.42
801.214	58.63
801.389	67.67
801.565	62.21
801.74	53.49
801.915	63.09
802.09	68.7
802.265	66.55
802.441	60.89
802.616	61.59
802.791	58.93
802.966	57.53
803.141	54.84
803.316	58.53
803.491	65.37
803.666	69.87
803.841	65.12
804.016	60.92
804.191	65.1
804.366	60.83
804.541	53.52
804.716	60.04
804.891	60.28
805.066	61.91
805.241	62.33
805.416	58.76
805.591	54.57
805.765	58.67
805.94	59.34
806.115	57.25
806.29	55.24
806.464	53.92
806.639	46.66
806.814	42.09
806.989	37.38
807.163	49.08
807.338	51.33
807.512	49.67
807.687	30.07
807.862	42.7
808.036	42.78
808.211	44.19
808.385	53.31
808.56	70.08
808.734	81.02
808.909	82.78
809.083	75.54
809.258	78.89
809.432	78.7
809.606	57.57
809.781	48.95
809.955	54.57
810.13	54.75
810.304	56.02
810.478	52.12
810.652	61.52
810.827	63.25
811.001	56.68
811.175	52.26
811.349	55.39
811.524	46.2
811.698	36.85
811.872	45.81
812.046	53.34
812.22	65.75
812.394	67.71
812.568	73.71
812.742	65.72
812.916	59.26
813.09	43.38
813.264	39.97
813.438	43.53
813.612	45.87
813.786	45.81
813.96	56.61
814.134	57.17
814.308	64.79
814.482	70.54
814.656	61.91
814.83	60.16
815.003	62.8
815.177	51.92
815.351	35
815.525	40.65
815.698	32.7
815.872	21.59
816.046	4.69
816.219	23.82
816.393	36.42
816.567	45.94
816.74	63.49
816.914	84.99
817.088	87
817.261	67.47
817.435	52.5
817.608	46.25
817.782	26.31
817.955	29.84
818.129	36.22
818.302	58.8
818.475	62.47
818.649	71.12
818.822	56.74
818.996	80.58
819.169	70.94
819.342	55.71
819.516	58.04
819.689	70.23
819.862	52.65
820.035	43.28
820.209	47.42
820.382	48.03
820.555	48.42
820.728	42.82
820.901	45.41
821.075	45.25
821.248	43.72
821.421	28.81
821.594	37.25
821.767	54.23
821.94	66.5
822.113	44.3
822.286	42.5
822.459	43.75
822.632	30.71
822.805	7.6
822.978	16.38
823.151	22.92
823.324	14.3
823.496	-6.99
823.669	1.75
823.842	-2.4
824.015	-12.1
824.188	-20.55
824.361	-6.11
824.533	-8.1
824.706	11.87
824.879	17.67
825.051	25.45
825.224	22.42
825.397	20.92
825.569	5.23
825.742	18.64
825.915	39.45
826.087	70.97
826.26	61.19
826.432	68.46
826.605	61.74
826.777	39.93
826.95	17.36
827.122	2.47
827.295	0.82
827.467	7.68
827.64	-21.84
827.812	-23.39
827.984	5.5
828.157	-6.69
828.329	-48.03
828.501	-12.08
828.674	14.3
828.846	-12.3
829.018	10.93
829.19	12.35
829.363	21.99
829.535	15.14
829.707	21.32
829.879	2.52
830.051	-10.13
830.223	-17.74
830.395	-48.9
830.568	-65.59
830.74	-66.97
830.912	-22.8
831.084	-33.15
831.256	-14.14
831.428	-9.86
831.6	-10.92
831.772	-48.92
831.943	-52.85
832.115	-19.98
832.287	5.55
832.459	16.05
832.631	25.17
832.803	44.76
832.975	44.36
833.146	12.53
833.318	-10.04
833.49	4.38
833.662	-14.71
833.833	-28.06
834.005	-2.87
834.177	15.67
834.348	16.05
834.52	5.74
834.692	25.21
834.863	-17.45
835.035	-24.63
835.206	-66.49
835.378	-26.48
835.549	-60.01
835.721	-22.32
835.892	-14.26
836.064	-21.25
836.235	-32.49
836.407	-7.83
836.578	-36.28
836.749	-39.4
836.921	-30.23
837.092	-56.65
837.264	-65.8
837.435	-56.8
837.606	-25.5
837.777	0.93
837.949	15.14
838.12	35.27
838.291	36.27
838.462	35.18
838.633	11.77
838.805	20.71
838.976	22.34
839.147	-25.31
839.318	-50.41
839.489	-87.86
839.66	-85.5
839.831	-27.62
840.002	-8.64
840.173	10.61
840.344	71.04
840.515	84.71
840.686	-64.26
840.857	-59.8
841.028	-118.37
841.199	-101.03
841.369	-109.14
841.54	-76.74
841.711	-37.9
841.882	0.48
842.053	-12.63
842.223	-5.25
842.394	10.1
842.565	3.54
842.736	2.68
842.906	12.24
843.077	18.44
843.248	16.66
843.418	8.83
843.589	-23.79
843.759	-21.49
843.93	-9.05
844.101	-2.58
844.271	6.84
844.442	18.35
844.612	29.65
844.783	2.11
844.953	-37.4
845.123	-27.82
845.294	-64.4
845.464	-312.76
845.635	-129.92
845.805	-17.26
845.975	-19.43
846.146	-34.54
846.316	-20.25
846.486	15.03
846.656	36.33
846.827	30.3
846.997	21.67
847.167	36.43
847.337	0.17
847.507	-48.63
847.677	-42.73
847.848	31.59
848.018	32.09
848.188	32
848.358	22.83
848.528	14.33
848.698	-38.52
848.868	-108.1
849.038	-181.04
849.208	-59.51
849.378	-22.05
849.548	6.52
849.718	7.35
849.887	18.65
850.057	4.95
850.227	-19.23
850.397	-62.44
850.567	-163.41
850.737	-464.67
850.906	-1654.69
851.076	-1048.24
851.246	-457.46
851.415	-61.72
851.585	-2.73
851.755	-7.54
851.924	35.39
852.094	21.04
852.264	3.82
852.433	-713.22
852.603	-151.67
852.772	-189.68
852.942	-69.14
853.111	-83.66
853.281	-48.57
853.45	-3.73
853.62	-62.39
853.789	-75.91
853.959	-75.14
854.128	-68.47
854.297	-94.45
854.467	-116.98
854.636	-118.49
854.805	-36.78
854.975	-81.73
855.144	-130.07
855.313	-8.92
855.482	-420.99
855.652	-218.93
855.821	-78.71
855.99	12.93
856.159	10.9
856.328	27.68
856.497	7.47
856.667	2.1
856.836	-18.22
857.005	-54.33
857.174	-88.5
857.343	-118.27
857.512	-129.07
857.681	-154.02
857.85	-201.02
858.019	-99.52
858.188	-82.82
858.356	-83.42
858.525	-122.85
858.694	-95.46
858.863	-179.91
859.032	-121.58
859.201	-193.91
859.369	-146.36
859.538	-71.65
859.707	-94.73
859.876	-128.94
860.044	-112.01
860.213	-5.02
860.382	-33.69
860.55	-27.29
860.719	0.4
860.888	18.63
861.056	-19.87
861.225	-34.72
861.393	-5.95
861.562	-17.76
861.73	-115.58
861.899	-408.77
862.067	-2030.17
862.236	-54.92
862.404	-176.59
862.572	-86.55
862.741	-11.97
862.909	-33.98
863.078	-174.79
863.246	-128.61
863.414	-111.99
863.582	-43.24
863.751	-33.2
863.919	12.07
864.087	80.72
864.255	100.96
864.424	-52.89
864.592	49.07
864.76	-31.6
864.928	-202.2
865.096	-129.22
865.264	-135.24
865.432	-1863.07
865.6	29.63
865.768	-57.54
865.936	-73.06
866.104	-26.89
866.272	22.27
866.44	-267.22
866.608	447.15
866.776	184.95
866.944	2087.79
867.112	-475.74
867.28	-170.74
867.448	-49.97
867.615	-31.88
867.783	6.2
867.951	-4.65
868.119	11.84
868.286	-27.47
868.454	-136.82
868.622	-163.42
868.789	-188.63
868.957	-2126.79
869.125	-1920.39
869.292	-105.59
869.46	-164.3
869.627	2.06
869.795	-36.71
869.963	23.16
870.13	35.08
870.298	43.94
870.465	-20.05
870.632	-31.31
870.8	-46.13
870.967	-70.13
871.135	-122.86
871.302	-98.75
871.469	-99.06
871.637	-72.86
871.804	-40.67
871.971	-54.1
872.139	-314.3
872.306	28.99
872.473	-30.73
872.64	-192.17
872.807	-55.76
872.975	64.82
873.142	-131.18
873.309	958.78
873.476	68.7
873.643	104.79
873.81	57.66
873.977	68.41
874.144	72.24
874.311	-51.71
874.478	-82.5
874.645	-128.33
874.812	-90.86
874.979	-60.11
875.146	-58.67
875.313	-90.02
875.48	7.35
875.647	-12.56
875.813	-65.49
875.98	-42.69
876.147	-56.3
876.314	-128.87
876.481	1096.49
876.647	-1194.1
876.814	418.52
876.981	-29.13
877.147	-42.99
877.314	24.11
877.481	48.28
877.647	35.24
877.814	-9.96
877.98	-34.13
878.147	-15.19
878.314	34.78
878.48	9.7
878.647	38.73
878.813	72.01
878.979	54.16
879.146	-13.26
879.312	-24.27
879.479	-70.39
879.645	-198.03
879.811	-411.91
879.978	-786.07
880.144	-196.56
880.31	-118.53
880.477	-325.76
880.643	-352.02
880.809	-121.3
880.975	-87.02
881.142	-747.95
881.308	-47.02
881.474	14.4
881.64	-14.71
881.806	-117.81
881.972	-23.71
882.138	-49.66
882.304	-46.04
882.47	-210.28
882.636	-647.34
882.802	-215.21
882.968	-106.79
883.134	-64.38
883.3	-30.42
883.466	11.86
883.632	46.72
883.798	41.76
883.964	23.02
884.129	5.93
884.295	57.12
884.461	-7.62
884.627	-0.56
884.793	-5.87
884.958	10.37
885.124	-120.79
885.29	-152
885.455	-229
885.621	-52.04
885.787	-107.39
885.952	-26.87
886.118	-72.98
886.283	-63.19
886.449	-155.72
886.614	-153.88
886.78	-278.37
886.945	861.89
887.111	-572.69
887.276	-423.15
887.442	-810.68
887.607	-417.81
887.773	-342.28
887.938	-278.26
888.103	-301.16
888.269	-189.08
888.434	-339.32
888.599	-90.46
888.764	35.6
888.93	6.81
889.095	-13.34
889.26	-32.65
889.425	-3.27
889.59	-43.39
889.756	-63.35
889.921	-16.86
890.086	18.18
890.251	-14.18
890.416	-174.54
890.581	-1631.85
890.746	331.34
890.911	762.9
891.076	302.4
891.241	-732.65
891.406	-37.99
891.571	-112.5
891.736	-298.97
891.901	-454.65
892.065	646.98
892.23	168.19
892.395	223.24
892.56	340.97
892.725	-504.49
892.889	-1121.34
893.054	-145.98
893.219	-56.85
893.384	2.75
893.548	-38.06
893.713	-71.45
893.878	-57.83
