Data from Ofra_PS_T2_1A_6GT17_Reflection_1.txt Node
Date: Wed Jul 21 18:13:24 EDT 2021
User: Adam
Spectrometer: FLMT01687
Trigger mode: 0
Integration Time (sec): 1.100000E0
Scans to average: 2
Electric dark correction enabled: true
Nonlinearity correction enabled: false
Boxcar width: 2
XAxis mode: Wavelengths
Number of Pixels in Spectrum: 3648
>>>>>Begin Spectral Data<<<<<
179.494	571.6
179.716	620.24
179.937	607.16
180.158	608.87
180.38	922.19
180.601	422.38
180.823	154.86
181.044	-18.72
181.265	32.72
181.486	77.88
181.708	48.38
181.929	525.51
182.15	-197.89
182.372	92.4
182.593	63.94
182.814	13.51
183.035	86.7
183.257	54.93
183.478	-11.38
183.699	31.75
183.92	-23.44
184.141	-39.52
184.363	-102.36
184.584	-55.56
184.805	-38.45
185.026	26.92
185.247	44.41
185.468	32.48
185.689	34.93
185.91	30.59
186.132	14.38
186.353	-5.24
186.574	43.3
186.795	39.09
187.016	13.71
187.237	-6.4
187.458	-18.25
187.679	-20.18
187.9	-12.42
188.121	-24.14
188.342	-16.96
188.563	37.48
188.784	51.95
189.005	52.92
189.226	112.52
189.447	90.65
189.667	-68.2
189.888	-259.85
190.109	-1055.19
190.33	-624.84
190.551	-979.2
190.772	-199.64
190.993	-201.79
191.214	-155.79
191.434	-94.13
191.655	-17.98
191.876	-60.12
192.097	-109
192.318	-153.59
192.538	-285.78
192.759	-220.47
192.98	-105.18
193.201	-42.77
193.421	-6.13
193.642	9.76
193.863	24.86
194.083	5.1
194.304	1.78
194.525	-2.61
194.745	1.68
194.966	-30.01
195.187	-29.57
195.407	-49.64
195.628	-123.12
195.848	-151.99
196.069	-120.53
196.29	-69.5
196.51	-85.04
196.731	-74.2
196.951	-64.25
197.172	-78.79
197.392	-114.68
197.613	-115.55
197.833	-115.83
198.054	-98.56
198.274	-57.9
198.495	-86.13
198.715	-42.33
198.936	-65.58
199.156	-63.48
199.377	-158.85
199.597	-127.88
199.817	-166.69
200.038	-106.89
200.258	-170
200.479	-102.08
200.699	-140.37
200.919	-28.54
201.14	-12.76
201.36	-21.35
201.58	17.97
201.801	38.56
202.021	1.55
202.241	-6.99
202.461	-9.61
202.682	-112.49
202.902	-158.71
203.122	-94.72
203.342	-91.03
203.563	-27.23
203.783	8.25
204.003	-30.49
204.223	-15.94
204.443	30.39
204.663	-4.18
204.884	-11.6
205.104	11.61
205.324	21.21
205.544	8.92
205.764	39.09
205.984	42.47
206.204	57.53
206.424	41.7
206.644	11.82
206.864	18
207.084	-27.97
207.304	-39.48
207.525	-111.41
207.745	-59.01
207.964	-23.67
208.184	-55.46
208.404	-84.87
208.624	-97.24
208.844	-54.78
209.064	-328.23
209.284	-308.42
209.504	-158.63
209.724	-31.15
209.944	-52.28
210.164	-22.89
210.384	-11.88
210.604	-3.63
210.823	-46.99
211.043	-67.1
211.263	-44.58
211.483	-36.99
211.703	-92.6
211.922	-79.42
212.142	-7.64
212.362	2.76
212.582	-8.07
212.801	0.76
213.021	-11.3
213.241	-3.69
213.461	-44.77
213.68	-63.26
213.9	-36.6
214.12	-6.39
214.339	-72.85
214.559	-41.27
214.779	-1.07
214.998	-11.63
215.218	-42.72
215.438	-19.77
215.657	-23.8
215.877	-9.74
216.096	24.5
216.316	21
216.535	22.07
216.755	15.28
216.974	-64.37
217.194	-149.2
217.413	-142.59
217.633	-152.17
217.852	-227.93
218.072	-97.07
218.291	-51.59
218.511	5.21
218.73	-1.66
218.95	-13.18
219.169	-17.53
219.389	-43.78
219.608	-41.68
219.827	-37.31
220.047	-1.93
220.266	6.25
220.485	14.24
220.705	35.73
220.924	14.74
221.143	28.03
221.363	11.55
221.582	24.19
221.801	24.48
222.021	39.73
222.24	-39.32
222.459	10.41
222.678	-51.33
222.897	-155.14
223.117	-201.79
223.336	-126.66
223.555	-84.63
223.774	-61.94
223.993	-48.81
224.213	6.92
224.432	-19.06
224.651	22.12
224.87	23.08
225.089	32.35
225.308	11.59
225.527	27.97
225.746	8.15
225.965	-2.05
226.184	-29.39
226.404	14.59
226.623	-0.35
226.842	-0.48
227.061	21.79
227.28	30.47
227.499	22.57
227.718	24.67
227.936	18.14
228.155	28.83
228.374	24.29
228.593	9.68
228.812	13.99
229.031	12.78
229.25	-35.43
229.469	-53.1
229.688	-41.73
229.907	-7.04
230.125	5.57
230.344	7.42
230.563	7.01
230.782	16.34
231.001	-51.7
231.22	-59.21
231.438	-40.66
231.657	-23.1
231.876	-40.63
232.095	18.45
232.313	34.27
232.532	25.56
232.751	13.07
232.969	-4.42
233.188	-80.05
233.407	-18.08
233.625	-10.15
233.844	-23.72
234.063	0.99
234.281	8.81
234.5	-10.05
234.719	10.62
234.937	42.37
235.156	28.59
235.374	25.57
235.593	22.8
235.811	-13.46
236.03	-39.59
236.249	-80.68
236.467	-80.9
236.686	-41.68
236.904	-1.94
237.123	-31.09
237.341	-5.69
237.559	4.96
237.778	-3.55
237.996	-25.54
238.215	28.29
238.433	27.96
238.652	32.63
238.87	8.22
239.088	11.63
239.307	-4.44
239.525	-17.53
239.743	-38.6
239.962	-22.97
240.18	-28.94
240.398	-69.58
240.617	-101.33
240.835	-86.62
241.053	-51.14
241.271	-27.39
241.49	6.56
241.708	33.01
241.926	28.18
242.144	10.6
242.363	-44.41
242.581	-64.15
242.799	-31.88
243.017	7.85
243.235	-7.86
243.453	18.1
243.672	2.84
243.89	-2.11
244.108	-22.24
244.326	-7.4
244.544	-8.26
244.762	3.49
244.98	9.23
245.198	15.81
245.416	-6.26
245.634	-17.48
245.852	-33.8
246.07	-56.55
246.288	-82.3
246.506	-101.62
246.724	-66.9
246.942	-52.09
247.16	-10.79
247.378	22.05
247.596	40.69
247.814	24.28
248.032	2.72
248.25	4.32
248.468	5.01
248.685	8.81
248.903	27.89
249.121	36.56
249.339	11.82
249.557	-7.74
249.775	10.86
249.992	-46.22
250.21	-53.04
250.428	-40.98
250.646	-63.46
250.863	-104.06
251.081	-59.35
251.299	-44.9
251.517	-30.88
251.734	-3.17
251.952	6.86
252.17	4.86
252.387	13.59
252.605	-0.94
252.823	-4.49
253.04	11.71
253.258	22.06
253.475	4.93
253.693	14.21
253.911	22.6
254.128	16.95
254.346	-4.11
254.563	-10.07
254.781	-25.4
254.998	-68.47
255.216	-89.56
255.433	-75.14
255.651	-38.82
255.868	1.2
256.086	60.22
256.303	48.35
256.521	44.97
256.738	23.27
256.956	-7.71
257.173	-48.11
257.39	-39.86
257.608	-62.54
257.825	10.96
258.043	32.68
258.26	26.24
258.477	53.07
258.695	51.92
258.912	-36.86
259.129	-20.41
259.346	-52.78
259.564	-86.86
259.781	-115.34
259.998	-33.76
260.216	-19.01
260.433	41.38
260.65	36.77
260.867	50.59
261.084	14.27
261.302	11.46
261.519	4.02
261.736	-10.68
261.953	-38.74
262.17	8.92
262.387	-19.44
262.604	-62.03
262.822	-79.86
263.039	-51.81
263.256	-124.61
263.473	-92.22
263.69	-75.28
263.907	-28.08
264.124	-25.92
264.341	-18.49
264.558	-21.29
264.775	1.17
264.992	-13.19
265.209	-7.58
265.426	11.45
265.643	20.96
265.86	31.28
266.077	22.56
266.294	20.87
266.51	-20.81
266.727	-38.15
266.944	-48.57
267.161	-24.78
267.378	-34.02
267.595	11.66
267.812	-18.08
268.028	-28.27
268.245	-6.42
268.462	-11.47
268.679	-29.9
268.896	26.3
269.112	19.84
269.329	-12.65
269.546	-14.69
269.763	-15.4
269.979	-32.95
270.196	-46.34
270.413	-63
270.629	-73.65
270.846	-71.74
271.063	-72.15
271.279	-75.69
271.496	-54.06
271.712	-18.55
271.929	-8.3
272.146	-17.79
272.362	16.41
272.579	26.5
272.795	35.05
273.012	39.24
273.228	53.47
273.445	26.41
273.661	24.2
273.878	-16.82
274.094	-37.93
274.311	-85.42
274.527	-13.46
274.744	-16.52
274.96	-26.03
275.177	-2.45
275.393	20.86
275.609	7.11
275.826	25.44
276.042	22.82
276.259	23.38
276.475	33.43
276.691	42.41
276.908	26.29
277.124	43.43
277.34	28.99
277.557	13.75
277.773	-7.72
277.989	-10.77
278.205	-18.24
278.422	4.5
278.638	-1.87
278.854	24.36
279.07	29.29
279.286	13.39
279.503	-28.4
279.719	-13.61
279.935	-49.89
280.151	-63.34
280.367	-35.76
280.583	-35.94
280.799	-32.83
281.016	-55.89
281.232	-19.13
281.448	-21.86
281.664	-2.89
281.88	-32.1
282.096	6.17
282.312	11.78
282.528	27.16
282.744	43.9
282.96	59.74
283.176	28.02
283.392	25.71
283.608	17.04
283.824	-1.36
284.04	-3.23
284.256	3.32
284.471	-18.89
284.687	-34.76
284.903	-12.48
285.119	-3.67
285.335	-17.91
285.551	6.47
285.767	12.41
285.982	-5.64
286.198	-40.38
286.414	-9.67
286.63	-9.79
286.846	17.59
287.061	7.22
287.277	34.58
287.493	15.62
287.709	21.18
287.924	-11.83
288.14	20.17
288.356	30.74
288.571	54.69
288.787	33.91
289.003	44.43
289.218	20.15
289.434	-18.59
289.65	-34.53
289.865	-34.41
290.081	-27.9
290.296	-8.12
290.512	-8.29
290.727	-19.08
290.943	-21.05
291.159	-32.17
291.374	-42.9
291.59	-56.6
291.805	-44.79
292.021	-31.38
292.236	-24.56
292.451	2.83
292.667	10.37
292.882	24.4
293.098	14.11
293.313	-7.86
293.529	-40.55
293.744	-43.19
293.959	-46.98
294.175	-30.87
294.39	-2.67
294.605	12.95
294.821	35.85
295.036	40.17
295.251	42.57
295.467	16.3
295.682	-5.54
295.897	-63.61
296.112	-90.56
296.328	-95.04
296.543	-92.65
296.758	-68.4
296.973	-20.29
297.188	20.48
297.404	-4.64
297.619	-14.49
297.834	-25.44
298.049	-44.46
298.264	-58.99
298.479	2.88
298.694	9.85
298.909	25.42
299.125	23.6
299.34	21.57
299.555	-13.11
299.77	-11.19
299.985	-61.5
300.2	-98.45
300.415	-110.43
300.63	-85.66
300.845	-84.12
301.06	-86.99
301.275	-62.49
301.49	-38.48
301.704	-42.95
301.919	-60.38
302.134	-55.38
302.349	-43.61
302.564	-113.05
302.779	-149.94
302.994	-104.78
303.209	-58.31
303.423	-37.92
303.638	32.18
303.853	-4.6
304.068	-6.45
304.283	-5.93
304.497	1.33
304.712	-14.39
304.927	9.49
305.142	4.29
305.356	0.34
305.571	-6.61
305.786	-30.22
306	-50.19
306.215	-58.1
306.43	-59.96
306.644	-79.91
306.859	-21.75
307.074	12.15
307.288	-6.14
307.503	-8.38
307.717	-15.35
307.932	-18.78
308.147	-28.18
308.361	-1.23
308.576	-12.85
308.79	-47.71
309.005	-29.36
309.219	-18.31
309.434	-43.2
309.648	-25.54
309.863	9.15
310.077	6.55
310.292	7.96
310.506	12.64
310.72	9.56
310.935	18.17
311.149	9.93
311.364	27.29
311.578	41.59
311.792	37.58
312.007	17.41
312.221	7.6
312.435	2.52
312.649	-11.94
312.864	11.81
313.078	44.31
313.292	100.14
313.507	77.31
313.721	88.4
313.935	34.57
314.149	19.78
314.363	11.79
314.578	4.89
314.792	10.44
315.006	-13.08
315.22	3.15
315.434	-1.97
315.648	8.66
315.862	2.2
316.077	19.85
316.291	6.57
316.505	9.49
316.719	2.98
316.933	-9.1
317.147	-18.72
317.361	-64.41
317.575	-72.61
317.789	-71.73
318.003	-125.29
318.217	-85.47
318.431	-6.76
318.645	23.88
318.859	5.44
319.073	39.12
319.287	22.68
319.5	-9.98
319.714	-57.56
319.928	-65.16
320.142	-85.57
320.356	-19.17
320.57	30.72
320.784	65.96
320.997	50.79
321.211	17.09
321.425	-52.16
321.639	-86.91
321.853	-37.99
322.066	-14.49
322.28	-4.07
322.494	6
322.707	13.46
322.921	-13.59
323.135	-22.16
323.349	-24.82
323.562	-33.43
323.776	-45.89
323.989	-41.08
324.203	-57.63
324.417	-63.7
324.63	-70.16
324.844	-65.41
325.057	-63.61
325.271	-51.55
325.485	-17.03
325.698	4.1
325.912	19.98
326.125	-5.23
326.339	-1.79
326.552	-19.42
326.766	-21.86
326.979	-6.55
327.193	36.97
327.406	26.86
327.619	8.03
327.833	9.03
328.046	-26.07
328.26	-65.45
328.473	-29.65
328.686	-36.63
328.9	-37.54
329.113	-14.58
329.326	-23.55
329.54	-15.53
329.753	-8.24
329.966	-21.42
330.179	8.2
330.393	27.54
330.606	11.8
330.819	17.61
331.032	29.21
331.246	25.03
331.459	40.29
331.672	36.54
331.885	32.33
332.098	13.86
332.311	2.89
332.525	-53.32
332.738	-51.4
332.951	-30.49
333.164	4.59
333.377	14.48
333.59	29.23
333.803	35.47
334.016	22.54
334.229	10.54
334.442	12.66
334.655	31.47
334.868	30.45
335.081	25.33
335.294	9.84
335.507	1.6
335.72	-9.64
335.933	-27.29
336.146	-36.68
336.359	-26.98
336.572	-53.86
336.785	-78.68
336.997	-60.68
337.21	-16.68
337.423	-5.37
337.636	3.02
337.849	30.93
338.062	40.25
338.274	27.54
338.487	11.48
338.7	15.74
338.913	-26.6
339.125	-63.8
339.338	-96.86
339.551	-92.13
339.763	-61.95
339.976	-40.29
340.189	-3.96
340.402	-8.89
340.614	-17.25
340.827	-20.59
341.039	-34.83
341.252	-38.38
341.465	-29.61
341.677	-24.12
341.89	-63.95
342.102	-26.55
342.315	-40.37
342.527	-59.21
342.74	-47.35
342.952	-6.97
343.165	-21.27
343.377	5.46
343.59	7.96
343.802	24.04
344.015	21.7
344.227	38.67
344.44	20.76
344.652	21.57
344.864	-4.26
345.077	11.9
345.289	15.95
345.502	14.88
345.714	9.71
345.926	23.29
346.139	21.03
346.351	15.11
346.563	30.62
346.775	36.7
346.988	21.89
347.2	3.5
347.412	-26.66
347.624	-49.9
347.837	-78.63
348.049	-45.36
348.261	-9.4
348.473	5.43
348.685	9.87
348.897	21.16
349.11	-4.6
349.322	-18.18
349.534	-8.45
349.746	2.45
349.958	-1.3
350.17	-3.85
350.382	4.36
350.594	-11.76
350.806	-30.39
351.018	-26.48
351.23	-32.85
351.442	-75.75
351.654	-59.96
351.866	-48.48
352.078	-52.14
352.29	-28.4
352.502	-5.08
352.714	5.91
352.926	3.02
353.138	15.43
353.35	-0.47
353.561	-3.81
353.773	-26.48
353.985	-15.57
354.197	-34.28
354.409	-30.2
354.621	-28.38
354.832	-19.2
355.044	-28
355.256	-22.33
355.468	-1.45
355.679	-2
355.891	8.28
356.103	-4.23
356.314	2.75
356.526	4.56
356.738	-4.85
356.949	-26.97
357.161	-4.77
357.373	-5.93
357.584	-28.47
357.796	-7.02
358.008	-9.28
358.219	7.46
358.431	-2.67
358.642	18.09
358.854	2.98
359.065	1.93
359.277	-36.28
359.488	-28.46
359.7	-68.33
359.911	-76.66
360.123	-55.99
360.334	-72.23
360.546	-96.19
360.757	-75.39
360.969	-48.63
361.18	-50.96
361.391	-9.99
361.603	-14.88
361.814	-2.54
362.025	-9.58
362.237	-1.16
362.448	5.84
362.659	29.49
362.871	19.65
363.082	22.4
363.293	15
363.504	1.76
363.716	-31.34
363.927	-38.82
364.138	-68.07
364.349	-82.37
364.56	-71.76
364.772	-62.23
364.983	-32.3
365.194	-20.95
365.405	-3.69
365.616	13.74
365.827	16.95
366.038	-12.66
366.25	-23.56
366.461	-60.82
366.672	-30.71
366.883	-15.25
367.094	-5.16
367.305	-12.2
367.516	11.13
367.727	-28.58
367.938	-38.9
368.149	-39.91
368.36	-17.7
368.571	-24.01
368.781	-35.94
368.992	-41.84
369.203	-56.69
369.414	-75.5
369.625	-83.17
369.836	-59.2
370.047	-81.7
370.258	-59.61
370.468	-59.68
370.679	-73.68
370.89	-68.77
371.101	-45.15
371.312	-51.06
371.522	-43.39
371.733	-17.79
371.944	1.5
372.155	8.83
372.365	1.19
372.576	4.75
372.787	-4.16
372.997	-33.69
373.208	-38.26
373.419	-0.82
373.629	-26.81
373.84	-32.68
374.05	-31.51
374.261	-15.52
374.472	-56.68
374.682	-11.27
374.893	-11.87
375.103	21.76
375.314	12.3
375.524	11.03
375.735	7.32
375.945	18.05
376.156	-12.6
376.366	-9.03
376.577	1.62
376.787	-7.77
376.997	-9.17
377.208	-6.57
377.418	-18.98
377.629	-12.87
377.839	-10.69
378.049	-10.57
378.26	7.51
378.47	18.86
378.68	9.35
378.89	5.68
379.101	-3
379.311	-35.1
379.521	-62.18
379.732	-52.05
379.942	-62.03
380.152	-73.63
380.362	-44.01
380.572	-39.55
380.783	-35.73
380.993	-15.14
381.203	-11.1
381.413	2.9
381.623	10.8
381.833	14.06
382.043	4.82
382.253	7.95
382.463	-2.11
382.674	-17.26
382.884	-38.1
383.094	-34.74
383.304	-26.87
383.514	-20.53
383.724	2.67
383.934	2.97
384.144	-5.34
384.353	-14.64
384.563	-17.9
384.773	-26.33
384.983	-28.63
385.193	-6.77
385.403	1.09
385.613	2.59
385.823	-3.05
386.033	2.04
386.242	-13.16
386.452	-17.76
386.662	-26.54
386.872	-13.23
387.082	-21.15
387.291	-29.12
387.501	-32.04
387.711	-22.87
387.921	-32.06
388.13	-24.27
388.34	-11.14
388.55	-9.13
388.759	-7.42
388.969	-0.9
389.179	-3.7
389.388	-1.21
389.598	5.08
389.807	-4.23
390.017	-8.57
390.227	-6.32
390.436	-10.97
390.646	-14.07
390.855	-9.98
391.065	-10.22
391.274	-8.44
391.484	-8.11
391.693	-5.39
391.903	-5.45
392.112	1.8
392.322	0.95
392.531	2.22
392.74	2.66
392.95	-0.5
393.159	-4.7
393.369	-2.59
393.578	-3.68
393.787	-5.91
393.997	-3.68
394.206	-4.13
394.415	-5.49
394.625	-4.27
394.834	-5.34
395.043	-4.4
395.252	-1.78
395.462	0.64
395.671	1.57
395.88	2.27
396.089	3.31
396.298	1.25
396.508	0.53
396.717	-0.36
396.926	0.56
397.135	0.25
397.344	0.7
397.553	0.89
397.762	2.35
397.971	2.09
398.181	1.84
398.39	1.45
398.599	1.36
398.808	0.92
399.017	1.48
399.226	2.84
399.435	3.24
399.644	3.2
399.853	2.7
400.062	2.23
400.27	1.55
400.479	1.19
400.688	0.41
400.897	0.58
401.106	0.9
401.315	0.75
401.524	1
401.733	1.76
401.941	2.29
402.15	2.12
402.359	2.03
402.568	2.21
402.777	2.28
402.985	1.84
403.194	1.94
403.403	2.12
403.612	1.92
403.82	1.54
404.029	1.63
404.238	1.3
404.446	1.45
404.655	1.23
404.864	1.3
405.072	1.15
405.281	1.32
405.489	1.03
405.698	1.04
405.906	1.15
406.115	1.19
406.324	1.22
406.532	1.39
406.741	1.85
406.949	1.82
407.158	1.82
407.366	1.86
407.574	1.73
407.783	1.57
407.991	1.38
408.2	1.5
408.408	1.46
408.617	1.38
408.825	1.21
409.033	1.38
409.242	1.42
409.45	1.48
409.658	1.52
409.867	1.7
410.075	1.62
410.283	1.59
410.491	1.6
410.7	1.5
410.908	1.51
411.116	1.81
411.324	1.64
411.533	1.59
411.741	1.85
411.949	1.83
412.157	1.56
412.365	1.63
412.573	1.59
412.781	1.49
412.99	1.33
413.198	1.43
413.406	1.42
413.614	1.49
413.822	1.3
414.03	1.37
414.238	1.23
414.446	1.33
414.654	1.11
414.862	1.33
415.07	1.37
415.278	1.62
415.486	1.41
415.694	1.58
415.902	1.4
416.109	1.31
416.317	1.16
416.525	1.02
416.733	0.97
416.941	1.16
417.149	1.09
417.357	1.08
417.564	1.43
417.772	1.65
417.98	1.55
418.188	1.55
418.395	1.67
418.603	1.83
418.811	1.43
419.019	1.48
419.226	1.75
419.434	1.75
419.642	1.45
419.849	1.67
420.057	1.6
420.265	1.62
420.472	1.35
420.68	1.44
420.887	1.46
421.095	1.57
421.302	1.37
421.51	1.58
421.717	1.63
421.925	1.7
422.132	1.53
422.34	1.38
422.547	1.47
422.755	1.22
422.962	1.11
423.17	1.09
423.377	1.24
423.585	1.2
423.792	1.24
423.999	1.29
424.207	1.34
424.414	1.46
424.621	1.35
424.829	1.48
425.036	1.38
425.243	1.48
425.451	1.34
425.658	1.21
425.865	1.19
426.072	1.18
426.28	1.27
426.487	1.26
426.694	1.44
426.901	1.33
427.108	1.4
427.315	1.22
427.523	1.53
427.73	1.53
427.937	1.52
428.144	1.35
428.351	1.31
428.558	1.18
428.765	1.09
428.972	1.02
429.179	1.22
429.386	1.49
429.593	1.31
429.8	1.2
430.007	1.37
430.214	1.42
430.421	1.26
430.628	1.26
430.835	1.3
431.042	1.4
431.249	1.38
431.456	1.35
431.662	1.41
431.869	1.61
432.076	1.64
432.283	1.77
432.49	1.72
432.697	1.65
432.903	1.4
433.11	1.21
433.317	1.23
433.524	1.52
433.73	1.55
433.937	1.86
434.144	1.84
434.35	1.73
434.557	1.45
434.764	1.5
434.97	1.34
435.177	1.61
435.384	1.59
435.59	1.75
435.797	1.94
436.003	2.01
436.21	1.84
436.416	1.9
436.623	1.86
436.829	1.9
437.036	1.98
437.242	2.05
437.449	2.07
437.655	2.06
437.862	2
438.068	1.89
438.275	1.99
438.481	2.07
438.687	2.1
438.894	1.98
439.1	2.01
439.307	2.07
439.513	1.97
439.719	1.95
439.926	2.13
440.132	2.15
440.338	1.92
440.544	2
440.751	1.95
440.957	1.98
441.163	1.87
441.369	2.02
441.575	1.85
441.782	1.96
441.988	1.8
442.194	1.81
442.4	1.8
442.606	2.12
442.812	2.1
443.018	2.18
443.224	2.24
443.431	2.31
443.637	2.02
443.843	1.96
444.049	1.97
444.255	1.89
444.461	1.9
444.667	1.93
444.873	2.03
445.079	2.01
445.284	2.19
445.49	1.91
445.696	1.84
445.902	1.73
446.108	1.64
446.314	1.48
446.52	1.59
446.726	1.84
446.931	1.91
447.137	1.97
447.343	2.1
447.549	2.11
447.755	1.99
447.96	2.07
448.166	1.99
448.372	1.92
448.578	2.01
448.783	2.03
448.989	1.97
449.195	2.09
449.4	2.14
449.606	2.07
449.812	1.96
450.017	2.01
450.223	1.9
450.428	1.79
450.634	1.9
450.84	2.1
451.045	2.1
451.251	2.13
451.456	2.48
451.662	2.57
451.867	2.59
452.073	2.6
452.278	2.69
452.483	2.67
452.689	2.54
452.894	2.56
453.1	2.53
453.305	2.46
453.51	2.33
453.716	2.25
453.921	2.27
454.127	2.17
454.332	2.09
454.537	2.03
454.742	2.1
454.948	1.97
455.153	2.09
455.358	2.25
455.563	2.37
455.769	2.41
455.974	2.45
456.179	2.33
456.384	2.31
456.589	2.23
456.795	2.09
457	2.08
457.205	2.3
457.41	2.26
457.615	2.24
457.82	2.38
458.025	2.41
458.23	2.28
458.435	2.28
458.64	2.22
458.845	2.26
459.05	2.23
459.255	2.23
459.46	2.32
459.665	2.39
459.87	2.42
460.075	2.44
460.28	2.51
460.485	2.48
460.69	2.44
460.895	2.25
461.099	2.22
461.304	2.37
461.509	2.39
461.714	2.39
461.919	2.55
462.123	2.49
462.328	2.42
462.533	2.32
462.738	2.37
462.942	2.28
463.147	2.39
463.352	2.41
463.556	2.45
463.761	2.49
463.966	2.51
464.17	2.47
464.375	2.34
464.58	2.34
464.784	2.27
464.989	2.3
465.193	2.33
465.398	2.44
465.602	2.57
465.807	2.54
466.011	2.55
466.216	2.57
466.42	2.6
466.625	2.68
466.829	2.74
467.034	2.74
467.238	3.01
467.443	2.94
467.647	2.72
467.851	2.78
468.056	2.88
468.26	2.64
468.464	2.62
468.669	2.81
468.873	3.02
469.077	2.96
469.282	3.05
469.486	3.16
469.69	3.11
469.894	2.9
470.099	2.93
470.303	2.98
470.507	2.87
470.711	2.72
470.915	2.71
471.119	2.68
471.324	2.58
471.528	2.63
471.732	2.79
471.936	2.83
472.14	2.94
472.344	2.99
472.548	2.98
472.752	3.12
472.956	3.3
473.16	3.18
473.364	3.12
473.568	3.1
473.772	3.05
473.976	2.86
474.18	2.8
474.384	2.86
474.588	2.88
474.792	2.77
474.995	2.89
475.199	3.04
475.403	3.1
475.607	3.16
475.811	3.13
476.015	3.2
476.218	3.27
476.422	3.16
476.626	3.26
476.83	3.41
477.033	3.24
477.237	3.13
477.441	3.22
477.644	3.19
477.848	3.12
478.052	3.13
478.255	3.16
478.459	3.18
478.663	3.28
478.866	3.33
479.07	3.4
479.273	3.53
479.477	3.57
479.681	3.51
479.884	3.44
480.088	3.39
480.291	3.27
480.495	3.23
480.698	3.18
480.901	3.29
481.105	3.39
481.308	3.46
481.512	3.42
481.715	3.49
481.919	3.48
482.122	3.51
482.325	3.51
482.529	3.6
482.732	3.54
482.935	3.43
483.138	3.34
483.342	3.41
483.545	3.42
483.748	3.46
483.952	3.63
484.155	3.81
484.358	3.77
484.561	3.77
484.764	3.77
484.967	3.76
485.171	3.77
485.374	3.79
485.577	3.83
485.78	3.84
485.983	3.84
486.186	3.74
486.389	3.67
486.592	3.64
486.795	3.66
486.998	3.54
487.201	3.59
487.404	3.62
487.607	3.64
487.81	3.64
488.013	3.75
488.216	3.76
488.419	3.81
488.622	3.75
488.825	3.7
489.028	3.64
489.231	3.53
489.433	3.49
489.636	3.47
489.839	3.46
490.042	3.43
490.245	3.46
490.447	3.48
490.65	3.53
490.853	3.56
491.056	3.63
491.258	3.67
491.461	3.69
491.664	3.72
491.866	3.66
492.069	3.77
492.272	3.72
492.474	3.75
492.677	3.75
492.879	3.84
493.082	3.82
493.285	3.98
493.487	3.88
493.69	3.84
493.892	3.72
494.095	3.65
494.297	3.51
494.5	3.56
494.702	3.55
494.905	3.68
495.107	3.74
495.309	3.77
495.512	3.85
495.714	3.94
495.917	3.89
496.119	3.88
496.321	3.93
496.524	3.89
496.726	3.87
496.928	3.95
497.13	3.91
497.333	3.87
497.535	3.93
497.737	3.92
497.939	3.91
498.142	3.96
498.344	3.95
498.546	3.87
498.748	3.88
498.95	3.95
499.152	3.95
499.355	4.01
499.557	4.14
499.759	4.23
499.961	4.16
500.163	4.18
500.365	4.2
500.567	4.23
500.769	4.11
500.971	4.15
501.173	4.09
501.375	4.11
501.577	3.98
501.779	4.02
501.981	3.99
502.183	3.99
502.385	3.93
502.587	3.93
502.788	4
502.99	4.01
503.192	4.08
503.394	4.08
503.596	4.12
503.798	4.12
503.999	4.17
504.201	4.17
504.403	4.22
504.605	4.25
504.806	4.19
505.008	4.17
505.21	4.23
505.411	4.2
505.613	4.2
505.815	4.22
506.016	4.23
506.218	4.29
506.42	4.25
506.621	4.27
506.823	4.35
507.024	4.33
507.226	4.25
507.427	4.32
507.629	4.35
507.83	4.38
508.032	4.33
508.233	4.39
508.435	4.49
508.636	4.51
508.838	4.4
509.039	4.47
509.24	4.46
509.442	4.41
509.643	4.38
509.845	4.38
510.046	4.46
510.247	4.46
510.448	4.44
510.65	4.51
510.851	4.57
511.052	4.52
511.254	4.49
511.455	4.57
511.656	4.56
511.857	4.64
512.058	4.64
512.26	4.66
512.461	4.63
512.662	4.64
512.863	4.51
513.064	4.48
513.265	4.47
513.466	4.49
513.667	4.47
513.868	4.52
514.069	4.66
514.27	4.75
514.471	4.67
514.672	4.73
514.873	4.71
515.074	4.67
515.275	4.53
515.476	4.58
515.677	4.54
515.878	4.66
516.079	4.62
516.28	4.69
516.481	4.78
516.682	4.84
516.882	4.75
517.083	4.73
517.284	4.74
517.485	4.69
517.686	4.66
517.886	4.64
518.087	4.72
518.288	4.74
518.488	4.67
518.689	4.69
518.89	4.69
519.091	4.7
519.291	4.69
519.492	4.77
519.692	4.8
519.893	4.92
520.094	4.94
520.294	4.91
520.495	4.86
520.695	4.85
520.896	4.81
521.096	4.8
521.297	4.88
521.497	4.92
521.698	4.89
521.898	4.86
522.099	4.85
522.299	4.89
522.499	4.91
522.7	4.95
522.9	4.95
523.101	5
523.301	5
523.501	4.96
523.702	4.97
523.902	5.06
524.102	5.1
524.302	5.07
524.503	5.16
524.703	5.15
524.903	5.13
525.103	5.03
525.304	5.12
525.504	5.17
525.704	5.25
525.904	5.25
526.104	5.27
526.304	5.22
526.504	5.18
526.705	5.15
526.905	5.19
527.105	5.18
527.305	5.16
527.505	5.08
527.705	5.06
527.905	5.02
528.105	5.13
528.305	5.13
528.505	5.22
528.705	5.34
528.905	5.36
529.105	5.31
529.304	5.34
529.504	5.39
529.704	5.3
529.904	5.29
530.104	5.31
530.304	5.36
530.503	5.32
530.703	5.28
530.903	5.31
531.103	5.36
531.303	5.3
531.502	5.31
531.702	5.4
531.902	5.39
532.101	5.31
532.301	5.35
532.501	5.36
532.7	5.33
532.9	5.37
533.1	5.42
533.299	5.44
533.499	5.46
533.698	5.44
533.898	5.38
534.097	5.38
534.297	5.44
534.496	5.43
534.696	5.51
534.895	5.62
535.095	5.7
535.294	5.63
535.494	5.59
535.693	5.56
535.892	5.54
536.092	5.5
536.291	5.5
536.491	5.61
536.69	5.66
536.889	5.58
537.088	5.57
537.288	5.64
537.487	5.65
537.686	5.62
537.886	5.71
538.085	5.8
538.284	5.88
538.483	5.91
538.682	6
538.882	5.99
539.081	5.98
539.28	5.85
539.479	5.84
539.678	5.78
539.877	5.91
540.076	5.9
540.275	5.95
540.474	6
540.673	6.02
540.872	5.9
541.071	5.96
541.27	5.97
541.469	5.98
541.668	6
541.867	6.09
542.066	6.16
542.265	6.24
542.464	6.17
542.663	6.2
542.862	6.3
543.06	6.31
543.259	6.31
543.458	6.41
543.657	6.52
543.856	6.5
544.054	6.48
544.253	6.52
544.452	6.5
544.651	6.48
544.849	6.46
545.048	6.5
545.247	6.52
545.445	6.58
545.644	6.64
545.843	6.67
546.041	6.7
546.24	6.74
546.438	6.81
546.637	6.84
546.836	6.93
547.034	7.03
547.233	7.06
547.431	7.04
547.63	7.06
547.828	7.04
548.027	7.07
548.225	7.1
548.423	7.14
548.622	7.17
548.82	7.2
549.019	7.2
549.217	7.31
549.415	7.42
549.614	7.54
549.812	7.59
550.01	7.59
550.209	7.59
550.407	7.67
550.605	7.6
550.803	7.73
551.002	7.83
551.2	7.88
551.398	7.91
551.596	8.04
551.794	8.06
551.993	8.1
552.191	8.15
552.389	8.22
552.587	8.3
552.785	8.34
552.983	8.42
553.181	8.53
553.379	8.54
553.577	8.54
553.775	8.64
553.973	8.69
554.171	8.79
554.369	8.84
554.567	8.91
554.765	8.93
554.963	9.03
555.161	9.03
555.359	9.12
555.557	9.23
555.755	9.33
555.952	9.39
556.15	9.48
556.348	9.54
556.546	9.63
556.744	9.67
556.941	9.71
557.139	9.79
557.337	9.88
557.535	9.88
557.732	10
557.93	10.11
558.128	10.18
558.325	10.26
558.523	10.31
558.721	10.4
558.918	10.43
559.116	10.46
559.313	10.52
559.511	10.71
559.708	10.77
559.906	10.91
560.104	11.02
560.301	11.18
560.498	11.19
560.696	11.22
560.893	11.24
561.091	11.36
561.288	11.5
561.486	11.61
561.683	11.77
561.88	11.91
562.078	11.99
562.275	11.91
562.473	11.97
562.67	12.06
562.867	12.15
563.064	12.23
563.262	12.36
563.459	12.45
563.656	12.63
563.853	12.71
564.051	12.76
564.248	12.95
564.445	13.04
564.642	12.99
564.839	13.13
565.036	13.34
565.234	13.52
565.431	13.6
565.628	13.71
565.825	13.82
566.022	13.83
566.219	13.85
566.416	14
566.613	14.08
566.81	14.22
567.007	14.23
567.204	14.23
567.401	14.27
567.598	14.32
567.795	14.33
567.991	14.44
568.188	14.54
568.385	14.58
568.582	14.74
568.779	14.84
568.976	14.95
569.172	15.06
569.369	15.1
569.566	15.11
569.763	15.14
569.96	15.18
570.156	15.14
570.353	15.24
570.55	15.28
570.746	15.31
570.943	15.33
571.14	15.38
571.336	15.49
571.533	15.59
571.729	15.65
571.926	15.76
572.123	15.91
572.319	15.92
572.516	15.93
572.712	16.06
572.909	16.06
573.105	16.15
573.302	16.21
573.498	16.24
573.695	16.17
573.891	16.29
574.087	16.23
574.284	16.18
574.48	16.2
574.677	16.25
574.873	16.25
575.069	16.35
575.266	16.46
575.462	16.46
575.658	16.61
575.854	16.62
576.051	16.58
576.247	16.58
576.443	16.53
576.639	16.45
576.835	16.39
577.032	16.37
577.228	16.42
577.424	16.62
577.62	16.6
577.816	16.63
578.012	16.71
578.208	16.69
578.404	16.65
578.6	16.7
578.796	16.77
578.993	16.74
579.189	16.71
579.384	16.67
579.58	16.64
579.776	16.61
579.972	16.61
580.168	16.55
580.364	16.61
580.56	16.58
580.756	16.53
580.952	16.5
581.148	16.51
581.343	16.53
581.539	16.6
581.735	16.65
581.931	16.75
582.127	16.82
582.322	16.72
582.518	16.75
582.714	16.72
582.909	16.67
583.105	16.58
583.301	16.6
583.496	16.56
583.692	16.53
583.888	16.48
584.083	16.53
584.279	16.52
584.474	16.48
584.67	16.49
584.866	16.48
585.061	16.38
585.257	16.43
585.452	16.41
585.648	16.41
585.843	16.46
586.039	16.55
586.234	16.53
586.429	16.52
586.625	16.63
586.82	16.57
587.015	16.57
587.211	16.51
587.406	16.66
587.601	16.59
587.797	16.61
587.992	16.56
588.187	16.67
588.383	16.58
588.578	16.63
588.773	16.7
588.968	16.77
589.163	16.79
589.359	16.77
589.554	16.79
589.749	16.82
589.944	16.89
590.139	16.88
590.334	16.94
590.529	16.93
590.724	16.94
590.919	16.98
591.114	16.98
591.309	17.03
591.504	17.07
591.699	17.14
591.894	17.19
592.089	17.14
592.284	17.15
592.479	17.3
592.674	17.26
592.869	17.34
593.064	17.52
593.259	17.67
593.454	17.67
593.648	17.75
593.843	17.74
594.038	17.78
594.233	17.73
594.428	17.67
594.622	17.74
594.817	17.85
595.012	17.88
595.206	17.93
595.401	18.08
595.596	18.13
595.79	18.18
595.985	18.3
596.18	18.49
596.374	18.63
596.569	18.72
596.763	18.77
596.958	18.9
597.153	18.95
597.347	18.92
597.542	19.03
597.736	19.03
597.931	19.04
598.125	19.08
598.319	19.27
598.514	19.2
598.708	19.3
598.903	19.3
599.097	19.31
599.291	19.28
599.486	19.34
599.68	19.36
599.874	19.51
600.069	19.53
600.263	19.57
600.457	19.71
600.651	19.74
600.846	19.79
601.04	19.79
601.234	19.81
601.428	19.93
601.622	20.05
601.817	20.02
602.011	20.13
602.205	20.22
602.399	20.12
602.593	20.11
602.787	20.18
602.981	20.24
603.175	20.18
603.369	20.21
603.563	20.26
603.757	20.27
603.951	20.23
604.145	20.26
604.339	20.27
604.533	20.16
604.727	20.08
604.921	20.05
605.115	20.08
605.309	20.11
605.502	20.17
605.696	20.19
605.89	20.19
606.084	20.07
606.278	19.96
606.471	19.87
606.665	19.81
606.859	19.69
607.053	19.74
607.246	19.78
607.44	19.69
607.634	19.64
607.827	19.73
608.021	19.61
608.214	19.53
608.408	19.48
608.602	19.43
608.795	19.29
608.989	19.26
609.182	19.17
609.376	19.18
609.569	19.14
609.763	19.01
609.956	18.91
610.15	18.81
610.343	18.74
610.537	18.57
610.73	18.56
610.923	18.58
611.117	18.56
611.31	18.45
611.504	18.5
611.697	18.45
611.89	18.33
612.083	18.31
612.277	18.36
612.47	18.21
612.663	18.22
612.856	18.18
613.05	18.02
613.243	17.96
613.436	17.92
613.629	17.83
613.822	17.75
614.015	17.74
614.209	17.48
614.402	17.48
614.595	17.42
614.788	17.35
614.981	17.24
615.174	17.25
615.367	17.13
615.56	17.05
615.753	17.04
615.946	17.04
616.139	17.04
616.332	17.11
616.525	17.08
616.718	17.04
616.911	17.02
617.103	16.98
617.296	16.9
617.489	16.85
617.682	16.77
617.875	16.74
618.067	16.68
618.26	16.57
618.453	16.53
618.646	16.46
618.838	16.37
619.031	16.39
619.224	16.42
619.417	16.44
619.609	16.47
619.802	16.48
619.994	16.49
620.187	16.43
620.38	16.35
620.572	16.28
620.765	16.3
620.957	16.2
621.15	16.04
621.342	15.96
621.535	16.03
621.727	15.89
621.92	15.84
622.112	15.86
622.305	15.93
622.497	15.82
622.69	15.87
622.882	15.88
623.074	15.91
623.267	15.82
623.459	15.76
623.651	15.66
623.844	15.63
624.036	15.64
624.228	15.63
624.42	15.62
624.613	15.76
624.805	15.74
624.997	15.62
625.189	15.52
625.381	15.53
625.574	15.46
625.766	15.4
625.958	15.43
626.15	15.53
626.342	15.5
626.534	15.45
626.726	15.43
626.918	15.46
627.11	15.37
627.302	15.37
627.494	15.3
627.686	15.32
627.878	15.21
628.07	15.26
628.262	15.19
628.454	15.25
628.646	15.27
628.838	15.31
629.029	15.19
629.221	15.26
629.413	15.06
629.605	14.88
629.797	14.84
629.989	14.88
630.18	14.76
630.372	14.83
630.564	14.87
630.755	14.85
630.947	14.92
631.139	14.86
631.33	14.78
631.522	14.85
631.714	14.83
631.905	14.69
632.097	14.64
632.289	14.69
632.48	14.6
632.672	14.51
632.863	14.39
633.055	14.33
633.246	14.28
633.438	14.21
633.629	14.17
633.821	14.27
634.012	14.31
634.203	14.24
634.395	14.37
634.586	14.41
634.777	14.37
634.969	14.42
635.16	14.5
635.351	14.3
635.543	14.38
635.734	14.37
635.925	14.28
636.117	14.32
636.308	14.33
636.499	14.26
636.69	14.15
636.881	14.12
637.073	14.12
637.264	14.16
637.455	14.12
637.646	14.24
637.837	14.33
638.028	14.24
638.219	14.32
638.41	14.26
638.601	14.07
638.792	14.03
638.983	14.06
639.174	13.89
639.365	14
639.556	14.11
639.747	14.07
639.938	14.03
640.129	14.06
640.32	13.93
640.511	14.02
640.701	14.14
640.892	14.09
641.083	14.13
641.274	14.26
641.465	14.19
641.655	14.03
641.846	14.02
642.037	13.92
642.228	13.73
642.418	13.78
642.609	13.82
642.8	13.86
642.99	13.85
643.181	13.9
643.372	13.87
643.562	13.77
643.753	13.68
643.943	13.64
644.134	13.56
644.324	13.51
644.515	13.58
644.705	13.57
644.896	13.63
645.086	13.63
645.277	13.61
645.467	13.54
645.658	13.61
645.848	13.61
646.038	13.62
646.229	13.55
646.419	13.53
646.61	13.35
646.8	13.25
646.99	13.21
647.18	13.19
647.371	13.18
647.561	13.17
647.751	13.26
647.941	13.22
648.132	13.17
648.322	13.14
648.512	13.26
648.702	13.23
648.892	13.16
649.082	13.21
649.272	13.15
649.462	13.04
649.653	12.91
649.843	12.97
650.033	12.97
650.223	12.97
650.413	12.88
650.603	12.97
650.793	12.95
650.983	12.88
651.172	12.81
651.362	12.85
651.552	12.71
651.742	12.64
651.932	12.62
652.122	12.71
652.312	12.79
652.502	12.82
652.691	12.76
652.881	12.69
653.071	12.56
653.261	12.32
653.45	12.21
653.64	12.19
653.83	11.99
654.019	11.84
654.209	11.89
654.399	11.9
654.588	11.84
654.778	11.79
654.968	11.7
655.157	11.52
655.347	11.36
655.536	11.14
655.726	11.05
655.915	10.92
656.105	10.84
656.294	10.69
656.484	10.54
656.673	10.43
656.863	10.41
657.052	10.22
657.241	10.03
657.431	9.88
657.62	9.82
657.809	9.5
657.999	9.37
658.188	9.32
658.377	9.25
658.567	9.08
658.756	9.07
658.945	8.97
659.134	8.76
659.324	8.66
659.513	8.51
659.702	8.42
659.891	8.29
660.08	8.2
660.269	8.1
660.458	8.05
660.648	7.93
660.837	7.82
661.026	7.85
661.215	7.67
661.404	7.45
661.593	7.34
661.782	7.17
661.971	7.01
662.16	6.97
662.349	6.99
662.538	6.81
662.726	6.84
662.915	6.64
663.104	6.51
663.293	6.44
663.482	6.51
663.671	6.26
663.86	6.16
664.048	6.09
664.237	6.05
664.426	5.8
664.615	5.88
664.803	5.89
664.992	5.79
665.181	5.65
665.369	5.6
665.558	5.49
665.747	5.43
665.935	5.47
666.124	5.47
666.312	5.48
666.501	5.42
666.69	5.32
666.878	5.22
667.067	5.03
667.255	5.06
667.444	5.33
667.632	5.43
667.82	5.42
668.009	5.5
668.197	5.45
668.386	5.21
668.574	5.31
668.762	5.28
668.951	5.23
669.139	5.21
669.327	5.19
669.516	5.21
669.704	5.15
669.892	5.34
670.08	5.34
670.269	5.26
670.457	5.06
670.645	5.02
670.833	5.02
671.021	5.04
671.21	5.18
671.398	5.31
671.586	5.37
671.774	5.25
671.962	5.29
672.15	5.25
672.338	5.23
672.526	5.37
672.714	5.34
672.902	5.35
673.09	5.5
673.278	5.73
673.466	5.75
673.654	6.05
673.842	6.07
674.03	6.03
674.218	5.83
674.405	5.91
674.593	5.71
674.781	5.74
674.969	5.86
675.157	6.02
675.344	6.14
675.532	6.25
675.72	6.41
675.908	6.4
676.095	6.39
676.283	6.36
676.471	6.58
676.658	6.62
676.846	6.58
677.033	6.62
677.221	6.64
677.409	6.51
677.596	6.54
677.784	6.63
677.971	6.72
678.159	6.77
678.346	6.87
678.534	6.9
678.721	7.14
678.909	7.15
679.096	7.21
679.283	7.32
679.471	7.46
679.658	7.39
679.846	7.61
680.033	7.89
680.22	7.99
680.408	8.05
680.595	8.17
680.782	8.03
680.969	7.94
681.157	7.99
681.344	8
681.531	7.99
681.718	8.06
681.905	8.32
682.093	8.43
682.28	8.67
682.467	8.98
682.654	9.18
682.841	9.17
683.028	9.35
683.215	9.47
683.402	9.4
683.589	9.65
683.776	9.88
683.963	9.91
684.15	10.11
684.337	10.43
684.524	10.42
684.711	10.5
684.898	10.57
685.085	10.63
685.271	10.83
685.458	11.25
685.645	11.42
685.832	11.88
686.019	12.19
686.205	12.32
686.392	12.51
686.579	12.8
686.766	13.09
686.952	13.29
687.139	13.76
687.326	14.03
687.512	14.38
687.699	14.52
687.886	14.82
688.072	14.9
688.259	15.25
688.445	15.6
688.632	15.91
688.818	16.55
689.005	17.1
689.191	17.43
689.378	18.06
689.564	18.57
689.751	18.95
689.937	19.39
690.124	19.93
690.31	20.02
690.496	20.53
690.683	20.96
690.869	21.44
691.055	21.82
691.242	22.74
691.428	23.39
691.614	23.79
691.8	24.44
691.987	25.22
692.173	25.75
692.359	26.29
692.545	27.13
692.731	27.63
692.918	28.26
693.104	28.65
693.29	29.3
693.476	29.97
693.662	30.62
693.848	31.19
694.034	31.81
694.22	32.38
694.406	32.88
694.592	33.52
694.778	34.13
694.964	34.82
695.15	35.45
695.336	36.01
695.522	36.8
695.708	37.4
695.894	38.15
696.08	38.8
696.265	39.57
696.451	39.97
696.637	40.7
696.823	41.21
697.009	41.57
697.194	42.03
697.38	42.46
697.566	42.94
697.751	43.44
697.937	44.34
698.123	44.83
698.308	45.77
698.494	46.46
698.68	47.1
698.865	47.54
699.051	48.18
699.236	48.49
699.422	48.75
699.607	49.05
699.793	49.59
699.978	49.95
700.164	50.28
700.349	50.92
700.535	51.58
700.72	51.93
700.906	52.5
701.091	53.16
701.276	53.41
701.462	54.01
701.647	54.71
701.832	55.16
702.018	55.59
702.203	56.22
702.388	56.1
702.573	56.33
702.759	56.87
702.944	57.02
703.129	57.04
703.314	57.7
703.499	57.84
703.684	57.91
703.87	58.8
704.055	59.65
704.24	59.85
704.425	60.45
704.61	60.73
704.795	60.53
704.98	60.21
705.165	60.52
705.35	60.55
705.535	60.95
705.72	61.41
705.905	62.36
706.09	62.91
706.275	63.23
706.459	63.29
706.644	63.58
706.829	63.37
707.014	63.43
707.199	63.77
707.384	64.41
707.568	64.39
707.753	65.2
707.938	65.43
708.123	65.44
708.307	65.3
708.492	65.75
708.677	65.63
708.861	65.56
709.046	65.61
709.231	66.18
709.415	66.26
709.6	66.22
709.784	66.42
709.969	66.93
710.153	66.66
710.338	66.7
710.522	66.95
710.707	67.22
710.891	67.2
711.076	67.58
711.26	67.35
711.445	67.72
711.629	68.06
711.813	68.1
711.998	68.46
712.182	68.99
712.366	69.15
712.551	69.53
712.735	69.75
712.919	69.35
713.103	69.56
713.288	69.17
713.472	68.82
713.656	69.43
713.84	69.76
714.024	69.75
714.208	69.76
714.393	70.2
714.577	69.97
714.761	69.99
714.945	70.19
715.129	70.1
715.313	69.77
715.497	69.72
715.681	70.28
715.865	70
716.049	70.41
716.233	70.47
716.417	70.68
716.601	70.45
716.785	70.63
716.968	70.71
717.152	70.92
717.336	71.08
717.52	70.96
717.704	71.16
717.888	71.65
718.071	72.08
718.255	72.29
718.439	72.33
718.622	72.42
718.806	73.01
718.99	72.56
719.174	71.69
719.357	72.07
719.541	72.08
719.724	71.54
719.908	72.33
720.092	73.15
720.275	73.53
720.459	73.74
720.642	73.51
720.826	72.86
721.009	72.66
721.193	71.6
721.376	71.96
721.559	72.32
721.743	72.8
721.926	73.32
722.11	74.02
722.293	73.14
722.476	72.95
722.66	72.62
722.843	71.93
723.026	71.22
723.21	71.83
723.393	72.23
723.576	72.33
723.759	72.76
723.942	73.26
724.126	73.51
724.309	73.68
724.492	74.13
724.675	73.66
724.858	73.86
725.041	74.41
725.224	74.06
725.407	74.17
725.59	74.8
725.774	74.74
725.957	73.66
726.14	73.52
726.322	73.43
726.505	73.07
726.688	73.34
726.871	73.71
727.054	74.05
727.237	73.58
727.42	74.26
727.603	74.38
727.786	74.65
727.968	74.49
728.151	74.78
728.334	74.79
728.517	75.02
728.699	75.08
728.882	75.2
729.065	75.67
729.248	76.23
729.43	77
729.613	77.61
729.796	78.53
729.978	78.02
730.161	77.33
730.343	76.52
730.526	76.45
730.708	76.06
730.891	76.47
731.073	76.21
731.256	75.96
731.438	75.8
731.621	75.91
731.803	75.81
731.986	76.34
732.168	76.3
732.35	76.28
732.533	76.07
732.715	76.04
732.898	76.51
733.08	76.68
733.262	76.87
733.444	76.2
733.627	76.09
733.809	75.83
733.991	76.93
734.173	76.55
734.355	77.02
734.538	77.8
734.72	77.38
734.902	76.98
735.084	77.41
735.266	77.89
735.448	77.97
735.63	78.37
735.812	78.26
735.994	78.93
736.176	79.11
736.358	78.69
736.54	79.25
736.722	78.8
736.904	77.78
737.086	77.68
737.268	78.45
737.45	78.83
737.632	78.88
737.814	78.62
737.995	78.55
738.177	77.85
738.359	76.4
738.541	76.95
738.723	77.45
738.904	77.67
739.086	78.19
739.268	78.9
739.449	78.97
739.631	79.35
739.813	79.65
739.994	79.75
740.176	79.76
740.358	79.75
740.539	80.26
740.721	79.48
740.902	80.21
741.084	80.31
741.265	79.48
741.447	79.2
741.628	80.2
741.81	78.72
741.991	78.7
742.172	79.97
742.354	80.43
742.535	79.8
742.717	80.58
742.898	80.83
743.079	80.51
743.261	80.38
743.442	80.03
743.623	80.67
743.804	80.36
743.986	81.14
744.167	79.67
744.348	80.11
744.529	80.12
744.71	78.91
744.891	77.89
745.073	78.68
745.254	78.44
745.435	77.27
745.616	77.1
745.797	77.53
745.978	76.79
746.159	76.96
746.34	76.47
746.521	79.42
746.702	78.39
746.883	79.19
747.064	79.48
747.245	80.17
747.426	79.13
747.606	79.71
747.787	79.8
747.968	78.35
748.149	78.57
748.33	78.73
748.51	78.53
748.691	77.49
748.872	78.35
749.053	77.43
749.233	75.42
749.414	74.88
749.595	74.58
749.775	73.42
749.956	73.56
750.137	75.24
750.317	76.64
750.498	78.91
750.678	80.11
750.859	80.71
751.04	80.59
751.22	78.79
751.4	77.45
751.581	76.04
751.761	76.77
751.942	76.35
752.122	77.47
752.303	77.03
752.483	77.95
752.663	76.91
752.844	76.01
753.024	76.69
753.204	77.43
753.385	77.01
753.565	77.59
753.745	78.11
753.925	76.52
754.106	74.93
754.286	75.75
754.466	74.46
754.646	74.65
754.826	75.96
755.006	75.36
755.187	76.83
755.367	78.34
755.547	78.93
755.727	79.03
755.907	80.88
756.087	79.78
756.267	78.72
756.447	78.4
756.627	75.91
756.807	76.52
756.987	76.11
757.167	76.35
757.346	77.16
757.526	77.76
757.706	76.78
757.886	76.99
758.066	77.43
758.246	77.72
758.425	77.37
758.605	76.55
758.785	76.13
758.965	75.06
759.144	72.98
759.324	74.52
759.504	75.97
759.683	75.56
759.863	74.83
760.043	74.04
760.222	73.16
760.402	72.15
760.581	71.61
760.761	73.79
760.94	73.57
761.12	76.09
761.299	77.23
761.479	77.87
761.658	75.96
761.838	76.31
762.017	74.95
762.197	74.82
762.376	75.57
762.555	77.24
762.735	78.58
762.914	76.63
763.093	75.13
763.273	73.41
763.452	72.07
763.631	71.77
763.81	72.66
763.99	72.59
764.169	73.48
764.348	72.92
764.527	70.55
764.706	72.31
764.885	73.6
765.064	73.05
765.243	72.79
765.423	75.45
765.602	73.63
765.781	71.59
765.96	70.49
766.139	70.6
766.318	70.18
766.497	69.16
766.676	69.83
766.854	72.11
767.033	72.16
767.212	71.1
767.391	72.51
767.57	73.76
767.749	73
767.928	75.37
768.106	75.82
768.285	73.85
768.464	73.68
768.643	72.66
768.821	71.47
769	72.71
769.179	73.38
769.357	70.81
769.536	70.48
769.715	71.14
769.893	72.5
770.072	73.14
770.25	74.78
770.429	76.16
770.607	74.81
770.786	71.73
770.964	72.44
771.143	70.71
771.321	71.63
771.5	70.72
771.678	71.21
771.857	68.3
772.035	69.24
772.213	69.28
772.392	67.68
772.57	69.08
772.748	69.63
772.927	68.69
773.105	66.88
773.283	70.35
773.461	70.83
773.64	72.29
773.818	73.52
773.996	73.92
774.174	71.16
774.352	68.35
774.531	65.26
774.709	67.38
774.887	68.55
775.065	69.3
775.243	69.77
775.421	71.75
775.599	72.47
775.777	68.71
775.955	66.3
776.133	64.14
776.311	64.81
776.489	60.85
776.667	62.59
776.844	64.53
777.022	65.86
777.2	66.44
777.378	68.72
777.556	69.09
777.734	73.16
777.911	75.3
778.089	74.9
778.267	74.1
778.445	73.26
778.622	69.56
778.8	69.62
778.978	70.44
779.155	70.42
779.333	68.91
779.511	69.85
779.688	71.34
779.866	66.04
780.043	64.12
780.221	65.98
780.398	64.43
780.576	63.46
780.753	67.53
780.931	67.01
781.108	67.4
781.286	69.54
781.463	67.08
781.64	64.1
781.818	67.67
781.995	66.81
782.172	63.86
782.35	64.62
782.527	68.4
782.704	66.2
782.882	65.87
783.059	67.06
783.236	68.36
783.413	67.97
783.59	68.6
783.768	66.83
783.945	68.37
784.122	66.87
784.299	65.97
784.476	65.32
784.653	64.45
784.83	59.78
785.007	57.58
785.184	57.77
785.361	56.07
785.538	63.52
785.715	70.05
785.892	69.62
786.069	71.79
786.246	74.14
786.423	70.38
786.6	66.04
786.776	69.62
786.953	64.01
787.13	67.43
787.307	68.92
787.484	70.59
787.66	66.92
787.837	69.92
788.014	63.54
788.191	61.05
788.367	57.11
788.544	60.9
788.721	59.38
788.897	62.82
789.074	62.67
789.25	62.14
789.427	61.83
789.603	60.21
789.78	59.69
789.956	59.94
790.133	58.26
790.309	60.28
790.486	65.32
790.662	65.25
790.839	67.99
791.015	72.2
791.192	68.99
791.368	67.41
791.544	62.52
791.721	60.31
791.897	61.66
792.073	60.29
792.249	56.14
792.426	62.78
792.602	67
792.778	63.87
792.954	61.03
793.13	66.37
793.307	56.63
793.483	44.99
793.659	46.35
793.835	52.55
794.011	47.14
794.187	51.52
794.363	53.95
794.539	59.04
794.715	54.17
794.891	55.75
795.067	54.66
795.243	59.26
795.419	52.88
795.595	52.53
795.771	53.37
795.947	58.23
796.122	55.02
796.298	57.78
796.474	61.91
796.65	61.23
796.826	57.96
797.001	59.83
797.177	56.25
797.353	55.42
797.529	56.76
797.704	56.59
797.88	55.73
798.056	55.13
798.231	53.84
798.407	60.1
798.582	59.73
798.758	66.81
798.934	74.18
799.109	69.3
799.285	61.42
799.46	67.99
799.636	64.68
799.811	57.16
799.986	62.09
800.162	62.99
800.337	59.96
800.513	53.29
800.688	57.96
800.863	68.03
801.039	58.29
801.214	53.99
801.389	61.6
801.565	60.22
801.74	41.37
801.915	54.2
802.09	48.54
802.265	53.72
802.441	50.76
802.616	55.37
802.791	54.97
802.966	63.72
803.141	58.05
803.316	54.23
803.491	56.6
803.666	53.31
803.841	42.87
804.016	38.97
804.191	47.27
804.366	46.28
804.541	50.27
804.716	53.82
804.891	51.01
805.066	54.97
805.241	53.36
805.416	47.71
805.591	48.06
805.765	53.54
805.94	49.96
806.115	52.46
806.29	49.85
806.464	50.89
806.639	46.9
806.814	40.69
806.989	30.42
807.163	48.82
807.338	50.5
807.512	50.93
807.687	45.15
807.862	60.7
808.036	53.33
808.211	54.45
808.385	57.45
808.56	66.36
808.734	67.35
808.909	58.33
809.083	53.91
809.258	62.69
809.432	64.34
809.606	42.78
809.781	48.9
809.955	55.71
810.13	51.48
810.304	47.33
810.478	49.55
810.652	53.76
810.827	55.11
811.001	47.93
811.175	43.62
811.349	50.53
811.524	43.51
811.698	30.31
811.872	31.15
812.046	41.8
812.22	39.93
812.394	45.14
812.568	46.56
812.742	48.61
812.916	44.43
813.09	49.54
813.264	48.12
813.438	48.97
813.612	49.53
813.786	45.39
813.96	50.3
814.134	49.52
814.308	59.98
814.482	55.03
814.656	51.11
814.83	53.31
815.003	56.67
815.177	45.61
815.351	46.1
815.525	50.71
815.698	40.91
815.872	27.56
816.046	23.22
816.219	33.66
816.393	44.34
816.567	51.06
816.74	52.54
816.914	63.69
817.088	62.27
817.261	49.5
817.435	38.96
817.608	56.31
817.782	37.91
817.955	32.08
818.129	36.26
818.302	46.23
818.475	49.1
818.649	52.11
818.822	47.59
818.996	59.91
819.169	51.61
819.342	38.96
819.516	61.43
819.689	65.09
819.862	49.22
820.035	47.57
820.209	43.47
820.382	33.12
820.555	33.68
820.728	24.87
820.901	18.55
821.075	22.2
821.248	28.49
821.421	18.97
821.594	34.39
821.767	63.93
821.94	71.75
822.113	49.57
822.286	53.04
822.459	48.65
822.632	33.14
822.805	23.2
822.978	21.21
823.151	13.1
823.324	4.8
823.496	-15.21
823.669	-18.59
823.842	-8.53
824.015	-21.16
824.188	-21.89
824.361	-0.84
824.533	-1.19
824.706	16.18
824.879	21.84
825.051	27.65
825.224	20.24
825.397	5.27
825.569	-22.02
825.742	1.95
825.915	14.6
826.087	17.46
826.26	26
826.432	26.03
826.605	12.27
826.777	1.56
826.95	11.99
827.122	-1.64
827.295	2.15
827.467	19.53
827.64	-1.04
827.812	-13.78
827.984	-2.22
828.157	11.51
828.329	-28.94
828.501	-1.25
828.674	19.31
828.846	20.8
829.018	23.79
829.19	20.63
829.363	36.79
829.535	38.67
829.707	31.64
829.879	14.74
830.051	17.77
830.223	1.17
830.395	-20.71
830.568	-21.88
830.74	-30.66
830.912	-5.33
831.084	-15.76
831.256	-13.74
831.428	-12.05
831.6	-17.19
831.772	-51.6
831.943	-54.09
832.115	-32.8
832.287	0.96
832.459	5.5
832.631	16.99
832.803	40.24
832.975	51.6
833.146	18.81
833.318	21.56
833.49	39.09
833.662	19.2
833.833	6.3
834.005	18.59
834.177	19.18
834.348	1.39
834.52	-6.2
834.692	-19.11
834.863	-69.07
835.035	-53.23
835.206	-90.8
835.378	-81.42
835.549	-79.2
835.721	-43.32
835.892	-36.03
836.064	-18
836.235	-15.71
836.407	1.43
836.578	-17.89
836.749	-12.18
836.921	-46.61
837.092	-50.48
837.264	-45.74
837.435	-51.43
837.606	-17.6
837.777	22.98
837.949	24.34
838.12	12.77
838.291	21.22
838.462	7.76
838.633	-22.9
838.805	-14.16
838.976	10.27
839.147	-54.82
839.318	-60.01
839.489	-115.83
839.66	-57.7
839.831	-23.85
840.002	-2.3
840.173	-9.34
840.344	59.21
840.515	1.62
840.686	-154.4
840.857	-118.05
841.028	-92.34
841.199	-93.28
841.369	-78.62
841.54	-66.87
841.711	-28
841.882	-7.05
842.053	2.94
842.223	-5.63
842.394	18.41
842.565	4.84
842.736	2.58
842.906	-3.94
843.077	18.34
843.248	34.02
843.418	29.8
843.589	-13.31
843.759	24.73
843.93	-35.58
844.101	-37.52
844.271	-2.05
844.442	26.87
844.612	39.39
844.783	17.3
844.953	-4.36
845.123	-24.58
845.294	-29.27
845.464	-258.66
845.635	-78.15
845.805	15.66
845.975	11.24
846.146	-47
846.316	-31.92
846.486	-1.29
846.656	23.79
846.827	17.07
846.997	29.31
847.167	61.58
847.337	5.27
847.507	-47.91
847.677	-34.8
847.848	1.94
848.018	5.52
848.188	24.58
848.358	22.59
848.528	9.37
848.698	-23.38
848.868	-90.14
849.038	-197.16
849.208	-82.05
849.378	-45.38
849.548	-42.36
849.718	-24.51
849.887	-5.4
850.057	-21.8
850.227	-42.01
850.397	-26.27
850.567	-141.36
850.737	-375.43
850.906	-1184.38
851.076	-962.89
851.246	-348.43
851.415	0.08
851.585	12.16
851.755	3.61
851.924	22.64
852.094	-31.44
852.264	-116.04
852.433	-1110.1
852.603	-190.72
852.772	-119.62
852.942	-66.24
853.111	-69.2
853.281	0.76
853.45	37.92
853.62	-30.89
853.789	-27.87
853.959	37.88
854.128	13.84
854.297	-57.7
854.467	-50.58
854.636	-37.34
854.805	-18.94
854.975	-43.16
855.144	-85.34
855.313	8.74
855.482	-393.8
855.652	-245.95
855.821	-207.41
855.99	-33.81
856.159	-23.82
856.328	4.92
856.497	-14.51
856.667	-2.98
856.836	-4.77
857.005	-10.69
857.174	-38.13
857.343	-53.07
857.512	-84.67
857.681	-134.99
857.85	-197.08
858.019	-103.8
858.188	-49.43
858.356	-30.62
858.525	-87.32
858.694	-32.1
858.863	-82.57
859.032	-117.73
859.201	-200.38
859.369	-97.07
859.538	-156.91
859.707	-145.31
859.876	-174.4
860.044	-168
860.213	-44.3
860.382	-42.85
860.55	-33.78
860.719	8.53
860.888	25.59
861.056	-3.75
861.225	-19.75
861.393	11.47
861.562	5.81
861.73	-79.59
861.899	-285.6
862.067	-2346.55
862.236	-126.42
862.404	-411.38
862.572	-283.7
862.741	-98.62
862.909	-88.86
863.078	-193.58
863.246	-94.15
863.414	-78.87
863.582	-71.17
863.751	-113.75
863.919	-112.24
864.087	-77.6
864.255	-76.65
864.424	-492.23
864.592	-100.52
864.76	-174.78
864.928	-390.8
865.096	-265.45
865.264	-154.31
865.432	-1512.5
865.6	-76.25
865.768	-109.3
865.936	-84.52
866.104	-137.53
866.272	-206.09
866.44	-439.17
866.608	717.12
866.776	356.27
866.944	2768.6
867.112	-461.23
867.28	-198.7
867.448	-97.84
867.615	-56.27
867.783	-41.87
867.951	-69.29
868.119	-44.76
868.286	-45.36
868.454	-169.18
868.622	-143.79
868.789	-188.16
868.957	-4710.71
869.125	-3164.47
869.292	-187.84
869.46	-287.66
869.627	-50.22
869.795	-45.74
869.963	-8.8
870.13	12.27
870.298	16.14
870.465	-69.74
870.632	-58.43
870.8	-64.35
870.967	-130.22
871.135	-209.7
871.302	-137.26
871.469	-201.66
871.637	-238.97
871.804	-163.7
871.971	-139.23
872.139	-525.81
872.306	-17.19
872.473	-56.87
872.64	-205.79
872.807	-66.07
872.975	24.77
873.142	-278
873.309	1547.3
873.476	61.66
873.643	102.67
873.81	49.63
873.977	52.34
874.144	16.8
874.311	-198.24
874.478	-178.39
874.645	-189.36
874.812	-170.78
874.979	-77.19
875.146	-89.78
875.313	-126.63
875.48	-39.02
875.647	-28.22
875.813	-74.24
875.98	-32.66
876.147	-46.23
876.314	-109.46
876.481	1058.26
876.647	-1236.52
876.814	495.6
876.981	-58.65
877.147	-25.73
877.314	19.64
877.481	40.3
877.647	50.22
877.814	-3.69
877.98	-41.02
878.147	0.07
878.314	29.4
878.48	-11.7
878.647	17.23
878.813	76.86
878.979	58.01
879.146	18.63
879.312	1.86
879.479	-38.29
879.645	-163.94
879.811	-237.38
879.978	-544.66
880.144	-147.33
880.31	-55.62
880.477	-231.46
880.643	-308.27
880.809	-150.21
880.975	-122.1
881.142	-986.82
881.308	-120.02
881.474	-59.44
881.64	-29.03
881.806	-92.46
881.972	-25.17
882.138	-24.07
882.304	-79.39
882.47	-275.99
882.636	-931.56
882.802	-284.55
882.968	-97.75
883.134	-42.42
883.3	-27.25
883.466	7.01
883.632	25
883.798	-11.56
883.964	-37.81
884.129	-29.3
884.295	-8.42
884.461	-48.12
884.627	-22.63
884.793	-17.65
884.958	-2.64
885.124	-96.65
885.29	-162.19
885.455	-340.53
885.621	-109.93
885.787	-196.53
885.952	-89.28
886.118	-92.33
886.283	-81.22
886.449	-199.24
886.614	-210.45
886.78	-374.81
886.945	1528.69
887.111	-743.64
887.276	-618.47
887.442	-962.27
887.607	-470.99
887.773	-308.44
887.938	-234.07
888.103	-300.77
888.269	-203.16
888.434	-328.92
888.599	-122.16
888.764	-45.02
888.93	-3.77
889.095	-4.59
889.26	-50.17
889.425	-45.45
889.59	-36.59
889.756	-98.48
889.921	-111.24
890.086	-46.88
890.251	0.06
890.416	-150.23
890.581	-1252.42
890.746	59.82
890.911	221.34
891.076	192.76
891.241	-483.21
891.406	20.13
891.571	-42.54
891.736	-259.86
891.901	-583.63
892.065	810.44
892.23	196.57
892.395	245.3
892.56	302.46
892.725	-201.17
892.889	-291.46
893.054	-142.74
893.219	-74.65
893.384	-37.79
893.548	-85.94
893.713	-100.15
893.878	-36.68
