Data from Ofra_1a_PS_2GT38_Reflection_2.txt Node
Date: Tue Jul 20 10:50:08 EDT 2021
User: Adam
Spectrometer: FLMT01687
Trigger mode: 0
Integration Time (sec): 1.004000E0
Scans to average: 2
Electric dark correction enabled: true
Nonlinearity correction enabled: false
Boxcar width: 2
XAxis mode: Wavelengths
Number of Pixels in Spectrum: 3648
>>>>>Begin Spectral Data<<<<<
179.494	-304.06
179.716	-361.07
179.937	897.32
180.158	-1028.66
180.38	117.14
180.601	41.24
180.823	55.52
181.044	-116.99
181.265	-164.44
181.486	180.58
181.708	77.12
181.929	-5390.91
182.15	9.17
182.372	440.89
182.593	476.6
182.814	-235.48
183.035	-14.29
183.257	-7.87
183.478	-1.37
183.699	-11.05
183.92	-41.28
184.141	-40.12
184.363	-42.55
184.584	-75.57
184.805	-34.65
185.026	12.56
185.247	-0.99
185.468	-41.5
185.689	-6.28
185.91	-53.7
186.132	-58.74
186.353	-66.4
186.574	-34.52
186.795	-34.06
187.016	5.57
187.237	10.57
187.458	25.32
187.679	7.41
187.9	30.69
188.121	49.11
188.342	56.8
188.563	101.61
188.784	101.78
189.005	74.48
189.226	59.38
189.447	44.92
189.667	26.5
189.888	16.2
190.109	9.46
190.33	5.04
190.551	0.56
190.772	2.7
190.993	-11.94
191.214	-8.39
191.434	-43.65
191.655	-25.84
191.876	-14.77
192.097	35.78
192.318	41.25
192.538	31.54
192.759	13.12
192.98	34.02
193.201	30.12
193.421	28
193.642	42.26
193.863	68.84
194.083	66.67
194.304	74.15
194.525	70.98
194.745	53.91
194.966	39.63
195.187	30.15
195.407	8.24
195.628	13.67
195.848	14.48
196.069	3.04
196.29	9.95
196.51	19.03
196.731	20.84
196.951	5.62
197.172	8.23
197.392	3.46
197.613	22.58
197.833	9.29
198.054	17.36
198.274	21.22
198.495	10.11
198.715	-15.51
198.936	4.82
199.156	1.72
199.377	0.55
199.597	13
199.817	6.44
200.038	-21.02
200.258	5.12
200.479	16.77
200.699	22.39
200.919	40.65
201.14	38.79
201.36	26.26
201.58	-24.37
201.801	-43.12
202.021	-77.73
202.241	-82.27
202.461	-58.82
202.682	-24.5
202.902	-6.41
203.122	7.99
203.342	6.51
203.563	-2.75
203.783	-17.17
204.003	-33
204.223	-8.94
204.443	23.78
204.663	13.02
204.884	55.27
205.104	50.45
205.324	48.44
205.544	-32.01
205.764	24.17
205.984	10.39
206.204	32.08
206.424	-12.77
206.644	8.54
206.864	-41.04
207.084	-49.15
207.304	-87.8
207.525	-61.84
207.745	-40.93
207.964	-40.11
208.184	-32.15
208.404	-16.99
208.624	7.37
208.844	0.09
209.064	19.92
209.284	-2.19
209.504	1.04
209.724	-8.79
209.944	-10.3
210.164	-24.5
210.384	-25.42
210.604	-66.22
210.823	-92.06
211.043	-66.29
211.263	-98.24
211.483	-33.53
211.703	-16.51
211.922	-18.19
212.142	-8.81
212.362	-2.1
212.582	-7.13
212.801	-6.74
213.021	-7.16
213.241	-33.83
213.461	-22.56
213.68	-5.06
213.9	-4.5
214.12	-10.54
214.339	-9.61
214.559	-17.23
214.779	-28.85
214.998	-20.39
215.218	-2.9
215.438	10.63
215.657	5.26
215.877	6.26
216.096	8.47
216.316	12.29
216.535	-2.86
216.755	6.72
216.974	4.85
217.194	-17.47
217.413	-19.65
217.633	-4.47
217.852	-5.14
218.072	-1.78
218.291	13.72
218.511	8.16
218.73	-21.92
218.95	-55.01
219.169	-47.92
219.389	-40.14
219.608	-18.47
219.827	17.24
220.047	26.49
220.266	-8.93
220.485	-26.25
220.705	-43.71
220.924	-71.7
221.143	-18.68
221.363	13.44
221.582	25.43
221.801	26.64
222.021	8.95
222.24	-9.24
222.459	5.71
222.678	5.38
222.897	-0.89
223.117	17.5
223.336	32.77
223.555	24.74
223.774	31.62
223.993	44.27
224.213	58.63
224.432	31.7
224.651	20.91
224.87	11.33
225.089	8.32
225.308	6.21
225.527	0.44
225.746	4.6
225.965	4.58
226.184	-14.89
226.404	-25.68
226.623	-13.38
226.842	-8.33
227.061	0.95
227.28	30.84
227.499	35.45
227.718	39.2
227.936	33.25
228.155	27.73
228.374	13.65
228.593	19.67
228.812	15.96
229.031	29.37
229.25	12.22
229.469	11.1
229.688	1.99
229.907	1.96
230.125	-12.45
230.344	3.57
230.563	-5.64
230.782	8.31
231.001	4.65
231.22	22.23
231.438	34.83
231.657	46.82
231.876	21.06
232.095	14.54
232.313	-20.36
232.532	-27
232.751	-35.11
232.969	-24.67
233.188	-13.68
233.407	0.74
233.625	-13.41
233.844	-26.31
234.063	-29.34
234.281	-22.1
234.5	-12.86
234.719	-9.55
234.937	-26.2
235.156	-24.2
235.374	-18.49
235.593	-8.21
235.811	21.45
236.03	26.22
236.249	32.76
236.467	31.99
236.686	17.92
236.904	5.22
237.123	8.72
237.341	-2.88
237.559	-17.15
237.778	13.04
237.996	1
238.215	-25.99
238.433	-43.18
238.652	-4.82
238.87	-33.87
239.088	-7.68
239.307	4.73
239.525	-5.17
239.743	-20.31
239.962	-24.86
240.18	-18.7
240.398	-13.61
240.617	-10.2
240.835	6.44
241.053	10.58
241.271	2.14
241.49	0.59
241.708	-0.43
241.926	-18.58
242.144	-26.64
242.363	-38.51
242.581	-50.25
242.799	-79.62
243.017	-48.47
243.235	-26.46
243.453	-42.42
243.672	-35.54
243.89	-13.72
244.108	5.06
244.326	10.89
244.544	28.74
244.762	9.55
244.98	15.25
245.198	10.03
245.416	-1.82
245.634	-3.86
245.852	3.41
246.07	8.5
246.288	6.48
246.506	17.46
246.724	4.15
246.942	16.94
247.16	13.4
247.378	15.57
247.596	28.24
247.814	54.22
248.032	31.89
248.25	39.74
248.468	28.83
248.685	30.35
248.903	18.38
249.121	11.4
249.339	-0.22
249.557	-6.26
249.775	-17.73
249.992	-13.11
250.21	-0.72
250.428	21.64
250.646	26.58
250.863	11.7
251.081	19.56
251.299	28.31
251.517	31.81
251.734	31.66
251.952	36.25
252.17	35.51
252.387	18.97
252.605	-2.21
252.823	-10.83
253.04	16.45
253.258	12.98
253.475	8.53
253.693	18.69
253.911	18.33
254.128	20.43
254.346	36.01
254.563	41.36
254.781	29.65
254.998	17.62
255.216	-11.61
255.433	-44.01
255.651	-25.7
255.868	-23.5
256.086	1.3
256.303	1.73
256.521	18.72
256.738	5.35
256.956	4.4
257.173	-14.06
257.39	-4.08
257.608	-10.56
257.825	-5.06
258.043	-2.3
258.26	1.15
258.477	6.32
258.695	2.62
258.912	-12.66
259.129	-17.66
259.346	-33.9
259.564	-48.87
259.781	-44.41
259.998	3.83
260.216	-8.61
260.433	-0.24
260.65	-1.5
260.867	-10.84
261.084	-39.81
261.302	-38.41
261.519	-39.14
261.736	-40.15
261.953	-29.15
262.17	-12.12
262.387	-0.23
262.604	0.79
262.822	12.09
263.039	18.06
263.256	16.43
263.473	18.71
263.69	21.3
263.907	22.74
264.124	22.68
264.341	29.19
264.558	23.87
264.775	31.97
264.992	23.09
265.209	7.92
265.426	10.31
265.643	23.92
265.86	28.66
266.077	17.53
266.294	32.82
266.51	24.89
266.727	20.51
266.944	19.68
267.161	29.07
267.378	29.58
267.595	19.17
267.812	8.84
268.028	5.29
268.245	6.53
268.462	-6.2
268.679	15.13
268.896	18.41
269.112	2.49
269.329	-8.01
269.546	13.9
269.763	4.99
269.979	4.89
270.196	22.38
270.413	12.99
270.629	-0.91
270.846	-17.88
271.063	-21.19
271.279	-18.58
271.496	-19.75
271.712	11.47
271.929	17.49
272.146	10.62
272.362	8.3
272.579	-1.87
272.795	-31.06
273.012	-35.95
273.228	-20.2
273.445	-24.7
273.661	-20.31
273.878	-21
274.094	-14.23
274.311	-16.25
274.527	-32.06
274.744	-7.97
274.96	-0.26
275.177	9.39
275.393	16.19
275.609	27.9
275.826	18.66
276.042	2.96
276.259	-5.35
276.475	-23.67
276.691	-36.4
276.908	-31.79
277.124	-6.58
277.34	-5.16
277.557	-2.76
277.773	22.16
277.989	21.19
278.205	2.35
278.422	-1.93
278.638	-1.32
278.854	-16.55
279.07	-0.7
279.286	0.54
279.503	8.6
279.719	18.48
279.935	22.54
280.151	8.87
280.367	26.36
280.583	22.41
280.799	13.24
281.016	-7.14
281.232	3.57
281.448	-14.43
281.664	-8.88
281.88	9.11
282.096	16.55
282.312	9.73
282.528	7.08
282.744	4.41
282.96	-14.2
283.176	-6.58
283.392	-31.93
283.608	-27.5
283.824	-50.01
284.04	-74.24
284.256	-59.29
284.471	-30.33
284.687	-23.31
284.903	-13.92
285.119	-8.94
285.335	-0.74
285.551	9.99
285.767	-1.78
285.982	-4.56
286.198	-22.98
286.414	-16.25
286.63	-58.57
286.846	-24.6
287.061	-3.34
287.277	23.22
287.493	2.82
287.709	23.22
287.924	0.5
288.14	8.38
288.356	19.53
288.571	25.86
288.787	20.4
289.003	36.85
289.218	16.51
289.434	-12.9
289.65	0.87
289.865	8.04
290.081	11.3
290.296	34.81
290.512	41.05
290.727	26.38
290.943	14.42
291.159	9.62
291.374	-21.14
291.59	-9.4
291.805	-21.64
292.021	-22.74
292.236	-33.25
292.451	-6.25
292.667	-9.78
292.882	28.41
293.098	34.98
293.313	28.48
293.529	16.03
293.744	13.31
293.959	-0.29
294.175	7.32
294.39	1.62
294.605	20.43
294.821	7.23
295.036	-11.81
295.251	-10.09
295.467	-10.17
295.682	-16.08
295.897	-21.52
296.112	-14.66
296.328	-2.75
296.543	-6.49
296.758	-18.34
296.973	-6.41
297.188	14.17
297.404	-13.84
297.619	-22.37
297.834	-22.63
298.049	2.39
298.264	-12.06
298.479	-0.14
298.694	30.7
298.909	29.88
299.125	24.66
299.34	18.3
299.555	15
299.77	28.52
299.985	29.09
300.2	35.22
300.415	37.56
300.63	39.27
300.845	19.16
301.06	25.68
301.275	13.23
301.49	17.77
301.704	12.56
301.919	8.31
302.134	-0.81
302.349	10.66
302.564	1.19
302.779	-0.69
302.994	18.74
303.209	29.62
303.423	10.6
303.638	35.57
303.853	18.58
304.068	0.78
304.283	-11.74
304.497	-1.14
304.712	4.15
304.927	9.78
305.142	9.8
305.356	15.75
305.571	12.4
305.786	0.82
306	12.78
306.215	12.97
306.43	4.45
306.644	-1.21
306.859	-13.74
307.074	-11.75
307.288	-1.57
307.503	7.97
307.717	18.81
307.932	30.43
308.147	23.17
308.361	25.3
308.576	18.35
308.79	4.44
309.005	-14.17
309.219	-3.93
309.434	7.11
309.648	15.62
309.863	24.6
310.077	15.58
310.292	36.06
310.506	9.23
310.72	3.83
310.935	24.12
311.149	30.62
311.364	17.04
311.578	38.36
311.792	47.5
312.007	30.53
312.221	17.8
312.435	21.85
312.649	37.33
312.864	32.72
313.078	40.49
313.292	45.3
313.507	58.45
313.721	25.24
313.935	22.89
314.149	31.52
314.363	26.01
314.578	23.22
314.792	28.38
315.006	16.88
315.22	10.56
315.434	28.69
315.648	-2.08
315.862	2.61
316.077	6.64
316.291	18.03
316.505	-4.5
316.719	28.56
316.933	33.41
317.147	30.69
317.361	15.81
317.575	24.23
317.789	28
318.003	8.8
318.217	17.64
318.431	6.19
318.645	5.18
318.859	14.07
319.073	30.25
319.287	11.6
319.5	19.72
319.714	11.94
319.928	-0.19
320.142	-1.27
320.356	25.75
320.57	7.97
320.784	21.4
320.997	18.23
321.211	16.13
321.425	-13.1
321.639	4.36
321.853	9.67
322.066	5.91
322.28	-8.4
322.494	0.95
322.707	-9.08
322.921	-31.36
323.135	-28.27
323.349	-13.72
323.562	-1.27
323.776	20.06
323.989	42.47
324.203	26.22
324.417	33.11
324.63	22.45
324.844	-5.36
325.057	-28.42
325.271	-10.94
325.485	-16.97
325.698	1.6
325.912	26.47
326.125	32.38
326.339	40.14
326.552	32.86
326.766	22.48
326.979	10.76
327.193	8.64
327.406	-19.39
327.619	-5.04
327.833	-21.91
328.046	-12.58
328.26	-18.36
328.473	-8.79
328.686	-21.48
328.9	-3.01
329.113	-13.36
329.326	-17.39
329.54	-5.41
329.753	5.05
329.966	3.19
330.179	6.49
330.393	13.07
330.606	9.18
330.819	1.7
331.032	8.01
331.246	17.12
331.459	16.17
331.672	12.02
331.885	19.14
332.098	20.07
332.311	3.93
332.525	11.66
332.738	17.12
332.951	10.99
333.164	8.55
333.377	10.83
333.59	-9.01
333.803	-8.06
334.016	-3.97
334.229	-4.14
334.442	-6.6
334.655	-3.1
334.868	-6.04
335.081	-10.19
335.294	-15.61
335.507	3.98
335.72	16.3
335.933	9.9
336.146	25.03
336.359	25.12
336.572	18.67
336.785	25.81
336.997	25.67
337.21	11.22
337.423	-3.78
337.636	-6.35
337.849	-22.91
338.062	-9.85
338.274	10.69
338.487	12.15
338.7	-6.41
338.913	6.59
339.125	-3.55
339.338	-17.24
339.551	-7.8
339.763	0.07
339.976	9.02
340.189	9.88
340.402	25.16
340.614	13.88
340.827	7.36
341.039	-2.46
341.252	16.01
341.465	-1.17
341.677	0.56
341.89	6.8
342.102	7.41
342.315	-7.49
342.527	-0.73
342.74	-16.54
342.952	-21.23
343.165	-18.17
343.377	0.07
343.59	3.76
343.802	22.13
344.015	34.36
344.227	34.27
344.44	21.15
344.652	22.06
344.864	13.94
345.077	5.86
345.289	11.33
345.502	31.28
345.714	20.51
345.926	33.7
346.139	18.17
346.351	20.6
346.563	19.1
346.775	12.97
346.988	16.06
347.2	19.59
347.412	17.37
347.624	2.67
347.837	20.63
348.049	8.2
348.261	-1.17
348.473	-12.98
348.685	-7.96
348.897	-25.83
349.11	-5.98
349.322	5.8
349.534	9.47
349.746	-0.09
349.958	-12.78
350.17	-38.54
350.382	-35.18
350.594	-30.15
350.806	1.26
351.018	11.88
351.23	29.65
351.442	38.87
351.654	44.68
351.866	35.88
352.078	42.73
352.29	26.44
352.502	18.57
352.714	8.24
352.926	2.35
353.138	-1.45
353.35	3.96
353.561	2.12
353.773	1.34
353.985	14.11
354.197	18.38
354.409	24.8
354.621	23.94
354.832	20.55
355.044	5.46
355.256	8.52
355.468	-8.76
355.679	10.99
355.891	27.57
356.103	26.82
356.314	12.54
356.526	4.43
356.738	-29.22
356.949	-35.81
357.161	-27.62
357.373	-10.32
357.584	3.17
357.796	20.92
358.008	21.25
358.219	17.92
358.431	11.58
358.642	9.46
358.854	14.38
359.065	5.2
359.277	-2.74
359.488	-0.92
359.7	0.3
359.911	-22.64
360.123	-7.63
360.334	-2.59
360.546	-7.34
360.757	-11.47
360.969	4.27
361.18	-6.49
361.391	8.11
361.603	9.21
361.814	7.44
362.025	18.11
362.237	17.52
362.448	14.88
362.659	10.48
362.871	-1.8
363.082	-11.93
363.293	-13.82
363.504	-47.12
363.716	-40.28
363.927	1.1
364.138	-16.99
364.349	-20.42
364.56	-16.97
364.772	-11.69
364.983	-11.66
365.194	2.83
365.405	11.6
365.616	24.02
365.827	15.84
366.038	23.39
366.25	26.26
366.461	27.88
366.672	33.94
366.883	35.32
367.094	15.94
367.305	-8.95
367.516	-14.16
367.727	-27.55
367.938	-24.12
368.149	-12.61
368.36	8.35
368.571	-16.59
368.781	-30.58
368.992	-27.79
369.203	-27.74
369.414	-25.48
369.625	-5.03
369.836	21.89
370.047	22.73
370.258	22.95
370.468	14.28
370.679	16.63
370.89	0.4
371.101	14.18
371.312	6.5
371.522	10.08
371.733	11.48
371.944	9.61
372.155	19.21
372.365	29.74
372.576	24.56
372.787	21.42
372.997	23.8
373.208	18.4
373.419	18
373.629	13.54
373.84	8.84
374.05	3.52
374.261	-14.93
374.472	-20.94
374.682	-16.6
374.893	-25.01
375.103	-14.2
375.314	6.49
375.524	10.08
375.735	19.93
375.945	25.98
376.156	20.05
376.366	12.35
376.577	18.19
376.787	11.03
376.997	17.07
377.208	13.05
377.418	10.64
377.629	10.63
377.839	13.66
378.049	17.57
378.26	15.24
378.47	25.85
378.68	21.29
378.89	14.74
379.101	1.66
379.311	9.32
379.521	-8.43
379.732	-2.18
379.942	-2.43
380.152	-5.41
380.362	-6.78
380.572	13.08
380.783	4.61
380.993	4.35
381.203	7.53
381.413	7.43
381.623	4.98
381.833	7.99
382.043	10.69
382.253	18.4
382.463	21.59
382.674	17.5
382.884	22.34
383.094	22.7
383.304	13.68
383.514	13.89
383.724	12.58
383.934	0.36
384.144	2.79
384.353	7.84
384.563	11.06
384.773	18.63
384.983	23.11
385.193	23.7
385.403	17.8
385.613	16.41
385.823	13.16
386.033	10.26
386.242	5.53
386.452	5.32
386.662	0.81
386.872	2.17
387.082	5.19
387.291	6.11
387.501	8.86
387.711	13.26
387.921	10.15
388.13	8.83
388.34	12.53
388.55	9.66
388.759	2.17
388.969	2.5
389.179	3.74
389.388	0.88
389.598	-1.11
389.807	-3.07
390.017	-1.43
390.227	-3.6
390.436	-2.47
390.646	-0.63
390.855	3.98
391.065	3.5
391.274	5.41
391.484	1.35
391.693	2.75
391.903	3.34
392.112	1.27
392.322	-1
392.531	0.09
392.74	-1.54
392.95	-1.86
393.159	-1.74
393.369	0.33
393.578	1.87
393.787	1.95
393.997	1.92
394.206	2.53
394.415	2.34
394.625	1.5
394.834	-0.02
395.043	0.08
395.252	1.53
395.462	2.3
395.671	2.81
395.88	5.11
396.089	5.79
396.298	4.9
396.508	4.01
396.717	4.09
396.926	3.31
397.135	3.51
397.344	3.05
397.553	3.19
397.762	4.04
397.971	4.1
398.181	3.87
398.39	3.95
398.599	4.14
398.808	3.61
399.017	4.38
399.226	3.94
399.435	4.15
399.644	4.49
399.853	4.54
400.062	4.4
400.27	4.14
400.479	4.22
400.688	3.97
400.897	3.6
401.106	3.88
401.315	4.3
401.524	4.62
401.733	4.47
401.941	4.94
402.15	4.31
402.359	4.46
402.568	4.34
402.777	4.62
402.985	4.1
403.194	4.24
403.403	4
403.612	3.65
403.82	3.37
404.029	3.74
404.238	3.67
404.446	3.86
404.655	4.06
404.864	4.09
405.072	3.99
405.281	3.96
405.489	3.84
405.698	3.91
405.906	4.07
406.115	4.07
406.324	4.18
406.532	4.21
406.741	4.09
406.949	3.96
407.158	4.03
407.366	3.92
407.574	4.03
407.783	4.07
407.991	4.06
408.2	4.13
408.408	4.14
408.617	3.89
408.825	3.82
409.033	3.77
409.242	3.64
409.45	3.63
409.658	3.67
409.867	3.79
410.075	3.89
410.283	3.86
410.491	3.72
410.7	3.66
410.908	3.62
411.116	3.62
411.324	3.6
411.533	3.66
411.741	3.76
411.949	3.74
412.157	3.71
412.365	3.75
412.573	3.8
412.781	3.77
412.99	3.76
413.198	3.7
413.406	3.79
413.614	3.9
413.822	3.94
414.03	3.94
414.238	3.97
414.446	3.85
414.654	3.71
414.862	3.58
415.07	3.52
415.278	3.57
415.486	3.43
415.694	3.54
415.902	3.63
416.109	3.59
416.317	3.58
416.525	3.65
416.733	3.49
416.941	3.48
417.149	3.52
417.357	3.44
417.564	3.56
417.772	3.63
417.98	3.57
418.188	3.52
418.395	3.29
418.603	2.99
418.811	2.89
419.019	2.93
419.226	3.01
419.434	3.31
419.642	3.29
419.849	3.34
420.057	3.32
420.265	3.17
420.472	3.04
420.68	3.19
420.887	3.09
421.095	3.02
421.302	3.07
421.51	2.99
421.717	3.07
421.925	3.25
422.132	3.3
422.34	3.23
422.547	3.31
422.755	3.12
422.962	3.01
423.17	2.83
423.377	2.84
423.585	2.88
423.792	2.91
423.999	3.02
424.207	3.01
424.414	3.05
424.621	2.99
424.829	3.11
425.036	3.07
425.243	3.23
425.451	3.17
425.658	3.16
425.865	3.2
426.072	3.17
426.28	3.23
426.487	3.2
426.694	3.25
426.901	3.16
427.108	3.1
427.315	2.86
427.523	2.75
427.73	2.74
427.937	2.61
428.144	2.63
428.351	2.76
428.558	3.01
428.765	2.94
428.972	3.12
429.179	3.09
429.386	3.31
429.593	3.24
429.8	3.31
430.007	3.25
430.214	3.35
430.421	3.33
430.628	3.33
430.835	3.35
431.042	3.38
431.249	3.41
431.456	3.24
431.662	3.34
431.869	3.42
432.076	3.49
432.283	3.5
432.49	3.48
432.697	3.38
432.903	3.34
433.11	3.43
433.317	3.45
433.524	3.56
433.73	3.53
433.937	3.58
434.144	3.34
434.35	3.15
434.557	3.13
434.764	3.2
434.97	3.1
435.177	3.3
435.384	3.5
435.59	3.51
435.797	3.57
436.003	3.66
436.21	3.52
436.416	3.48
436.623	3.41
436.829	3.43
437.036	3.37
437.242	3.5
437.449	3.55
437.655	3.68
437.862	3.62
438.068	3.67
438.275	3.68
438.481	3.78
438.687	3.71
438.894	3.79
439.1	3.69
439.307	3.74
439.513	3.7
439.719	3.85
439.926	3.81
440.132	3.96
440.338	3.92
440.544	3.88
440.751	3.74
440.957	3.71
441.163	3.62
441.369	3.61
441.575	3.57
441.782	3.63
441.988	3.71
442.194	3.8
442.4	3.76
442.606	4.04
442.812	3.98
443.018	3.98
443.224	4.05
443.431	4.16
443.637	3.87
443.843	3.91
444.049	3.89
444.255	3.81
444.461	3.7
444.667	3.78
444.873	3.8
445.079	3.81
445.284	3.83
445.49	3.87
445.696	3.88
445.902	3.92
446.108	4.01
446.314	4.03
446.52	4.05
446.726	4.08
446.931	3.98
447.137	3.92
447.343	3.94
447.549	3.98
447.755	3.96
447.96	4.05
448.166	4.1
448.372	4.1
448.578	4.04
448.783	4.06
448.989	4.09
449.195	4.08
449.4	4.07
449.606	4.13
449.812	4.13
450.017	4.07
450.223	4.1
450.428	4.06
450.634	4.02
450.84	4.05
451.045	4.09
451.251	4.08
451.456	4.17
451.662	4.3
451.867	4.31
452.073	4.35
452.278	4.28
452.483	4.27
452.689	4.24
452.894	4.33
453.1	4.29
453.305	4.31
453.51	4.36
453.716	4.34
453.921	4.26
454.127	4.27
454.332	4.26
454.537	4.25
454.742	4.22
454.948	4.22
455.153	4.25
455.358	4.26
455.563	4.29
455.769	4.3
455.974	4.31
456.179	4.27
456.384	4.33
456.589	4.32
456.795	4.27
457	4.18
457.205	4.16
457.41	4.09
457.615	4
457.82	4.13
458.025	4.25
458.23	4.36
458.435	4.42
458.64	4.54
458.845	4.52
459.05	4.46
459.255	4.41
459.46	4.36
459.665	4.28
459.87	4.22
460.075	4.31
460.28	4.46
460.485	4.58
460.69	4.57
460.895	4.68
461.099	4.51
461.304	4.33
461.509	4.23
461.714	4.33
461.919	4.2
462.123	4.33
462.328	4.33
462.533	4.32
462.738	4.23
462.942	4.24
463.147	4.2
463.352	4.23
463.556	4.31
463.761	4.31
463.966	4.3
464.17	4.42
464.375	4.49
464.58	4.48
464.784	4.51
464.989	4.61
465.193	4.61
465.398	4.57
465.602	4.73
465.807	4.76
466.011	4.7
466.216	4.58
466.42	4.68
466.625	4.61
466.829	4.6
467.034	4.71
467.238	4.89
467.443	4.86
467.647	4.82
467.851	4.86
468.056	4.87
468.26	4.76
468.464	4.74
468.669	4.75
468.873	4.8
469.077	4.74
469.282	4.73
469.486	4.7
469.69	4.74
469.894	4.73
470.099	4.74
470.303	4.75
470.507	4.77
470.711	4.66
470.915	4.72
471.119	4.8
471.324	4.85
471.528	4.91
471.732	5.03
471.936	5.01
472.14	4.96
472.344	5.06
472.548	5.02
472.752	4.93
472.956	5.02
473.16	5.1
473.364	5.09
473.568	5.09
473.772	5.23
473.976	5.23
474.18	5.19
474.384	5.12
474.588	5.17
474.792	5.12
474.995	5.14
475.199	5.18
475.403	5.26
475.607	5.31
475.811	5.35
476.015	5.23
476.218	5.11
476.422	5.1
476.626	5
476.83	5.06
477.033	5.15
477.237	5.25
477.441	5.2
477.644	5.24
477.848	5.2
478.052	5.18
478.255	5.25
478.459	5.27
478.663	5.43
478.866	5.44
479.07	5.43
479.273	5.39
479.477	5.46
479.681	5.44
479.884	5.43
480.088	5.5
480.291	5.5
480.495	5.49
480.698	5.42
480.901	5.42
481.105	5.4
481.308	5.45
481.512	5.48
481.715	5.57
481.919	5.66
482.122	5.64
482.325	5.64
482.529	5.65
482.732	5.54
482.935	5.49
483.138	5.54
483.342	5.56
483.545	5.62
483.748	5.71
483.952	5.77
484.155	5.84
484.358	5.81
484.561	5.72
484.764	5.68
484.967	5.6
485.171	5.54
485.374	5.51
485.577	5.56
485.78	5.53
485.983	5.57
486.186	5.51
486.389	5.52
486.592	5.47
486.795	5.55
486.998	5.52
487.201	5.61
487.404	5.72
487.607	5.68
487.81	5.67
488.013	5.72
488.216	5.75
488.419	5.63
488.622	5.69
488.825	5.7
489.028	5.63
489.231	5.55
489.433	5.55
489.636	5.5
489.839	5.54
490.042	5.64
490.245	5.62
490.447	5.65
490.65	5.68
490.853	5.69
491.056	5.62
491.258	5.66
491.461	5.7
491.664	5.69
491.866	5.58
492.069	5.61
492.272	5.59
492.474	5.63
492.677	5.69
492.879	5.72
493.082	5.73
493.285	5.81
493.487	5.77
493.69	5.76
493.892	5.8
494.095	5.82
494.297	5.75
494.5	5.73
494.702	5.72
494.905	5.74
495.107	5.74
495.309	5.75
495.512	5.75
495.714	5.84
495.917	5.9
496.119	5.91
496.321	5.93
496.524	5.94
496.726	5.83
496.928	5.72
497.13	5.68
497.333	5.64
497.535	5.63
497.737	5.65
497.939	5.69
498.142	5.73
498.344	5.79
498.546	5.74
498.748	5.85
498.95	5.84
499.152	5.83
499.355	5.79
499.557	5.9
499.759	5.93
499.961	5.95
500.163	5.95
500.365	6.04
500.567	6.01
500.769	5.93
500.971	5.99
501.173	5.94
501.375	5.92
501.577	5.92
501.779	5.94
501.981	5.91
502.183	5.97
502.385	6.06
502.587	6.11
502.788	6.15
502.99	6.21
503.192	6.32
503.394	6.26
503.596	6.26
503.798	6.21
503.999	6.18
504.201	6.11
504.403	6.14
504.605	6.2
504.806	6.25
505.008	6.33
505.21	6.35
505.411	6.34
505.613	6.37
505.815	6.39
506.016	6.42
506.218	6.49
506.42	6.52
506.621	6.49
506.823	6.52
507.024	6.45
507.226	6.44
507.427	6.46
507.629	6.47
507.83	6.44
508.032	6.47
508.233	6.51
508.435	6.57
508.636	6.63
508.838	6.71
509.039	6.73
509.24	6.76
509.442	6.73
509.643	6.65
509.845	6.61
510.046	6.71
510.247	6.75
510.448	6.78
510.65	6.84
510.851	6.9
511.052	6.82
511.254	6.86
511.455	6.87
511.656	6.87
511.857	6.89
512.058	6.92
512.26	6.81
512.461	6.81
512.662	6.87
512.863	6.82
513.064	6.83
513.265	6.89
513.466	6.96
513.667	6.98
513.868	6.98
514.069	7.02
514.27	7.06
514.471	7.04
514.672	7.03
514.873	7.15
515.074	7.21
515.275	7.16
515.476	7.26
515.677	7.28
515.878	7.25
516.079	7.16
516.28	7.21
516.481	7.14
516.682	7.13
516.882	7.11
517.083	7.16
517.284	7.16
517.485	7.13
517.686	7.13
517.886	7.15
518.087	7.14
518.288	7.16
518.488	7.17
518.689	7.2
518.89	7.22
519.091	7.29
519.291	7.24
519.492	7.34
519.692	7.3
519.893	7.34
520.094	7.27
520.294	7.28
520.495	7.22
520.695	7.27
520.896	7.23
521.096	7.31
521.297	7.41
521.497	7.45
521.698	7.47
521.898	7.49
522.099	7.51
522.299	7.48
522.499	7.47
522.7	7.45
522.9	7.49
523.101	7.46
523.301	7.49
523.501	7.51
523.702	7.55
523.902	7.57
524.102	7.67
524.302	7.68
524.503	7.71
524.703	7.71
524.903	7.69
525.103	7.61
525.304	7.57
525.504	7.62
525.704	7.62
525.904	7.58
526.104	7.64
526.304	7.72
526.504	7.66
526.705	7.71
526.905	7.79
527.105	7.74
527.305	7.75
527.505	7.75
527.705	7.72
527.905	7.73
528.105	7.74
528.305	7.75
528.505	7.83
528.705	7.91
528.905	7.93
529.105	7.96
529.304	7.98
529.504	8.03
529.704	8.02
529.904	8.05
530.104	8.09
530.304	8.04
530.503	7.98
530.703	7.97
530.903	8
531.103	8.04
531.303	8.04
531.502	8.14
531.702	8.21
531.902	8.26
532.101	8.25
532.301	8.34
532.501	8.36
532.7	8.39
532.9	8.43
533.1	8.43
533.299	8.42
533.499	8.4
533.698	8.35
533.898	8.32
534.097	8.38
534.297	8.35
534.496	8.34
534.696	8.39
534.895	8.46
535.095	8.46
535.294	8.52
535.494	8.55
535.693	8.62
535.892	8.59
536.092	8.58
536.291	8.66
536.491	8.7
536.69	8.66
536.889	8.66
537.088	8.7
537.288	8.69
537.487	8.7
537.686	8.74
537.886	8.8
538.085	8.83
538.284	8.86
538.483	8.86
538.682	8.93
538.882	8.91
539.081	8.92
539.28	8.92
539.479	8.96
539.678	9
539.877	9.05
540.076	9.12
540.275	9.15
540.474	9.21
540.673	9.26
540.872	9.29
541.071	9.31
541.27	9.43
541.469	9.48
541.668	9.48
541.867	9.53
542.066	9.59
542.265	9.57
542.464	9.56
542.663	9.6
542.862	9.76
543.06	9.8
543.259	9.9
543.458	9.96
543.657	10.02
543.856	10.01
544.054	10.04
544.253	10.05
544.452	10.14
544.651	10.17
544.849	10.15
545.048	10.17
545.247	10.18
545.445	10.17
545.644	10.24
545.843	10.31
546.041	10.36
546.24	10.43
546.438	10.5
546.637	10.53
546.836	10.62
547.034	10.71
547.233	10.85
547.431	10.91
547.63	10.92
547.828	10.93
548.027	10.96
548.225	10.96
548.423	11.06
548.622	11.16
548.82	11.23
549.019	11.28
549.217	11.35
549.415	11.35
549.614	11.48
549.812	11.52
550.01	11.55
550.209	11.64
550.407	11.79
550.605	11.75
550.803	11.85
551.002	11.98
551.2	11.98
551.398	12.05
551.596	12.19
551.794	12.28
551.993	12.32
552.191	12.47
552.389	12.47
552.587	12.6
552.785	12.59
552.983	12.72
553.181	12.74
553.379	12.84
553.577	12.84
553.775	13.05
553.973	13.15
554.171	13.3
554.369	13.41
554.567	13.55
554.765	13.55
554.963	13.61
555.161	13.65
555.359	13.75
555.557	13.85
555.755	14.01
555.952	14.13
556.15	14.25
556.348	14.29
556.546	14.44
556.744	14.39
556.941	14.43
557.139	14.55
557.337	14.62
557.535	14.65
557.732	14.82
557.93	15.01
558.128	15.12
558.325	15.24
558.523	15.39
558.721	15.55
558.918	15.62
559.116	15.7
559.313	15.83
559.511	15.97
559.708	16.01
559.906	16.11
560.104	16.19
560.301	16.3
560.498	16.36
560.696	16.51
560.893	16.61
561.091	16.8
561.288	16.97
561.486	17.03
561.683	17.14
561.88	17.32
562.078	17.4
562.275	17.39
562.473	17.49
562.67	17.52
562.867	17.52
563.064	17.64
563.262	17.77
563.459	17.98
563.656	18.22
563.853	18.29
564.051	18.43
564.248	18.63
564.445	18.7
564.642	18.76
564.839	18.96
565.036	19.12
565.234	19.17
565.431	19.28
565.628	19.35
565.825	19.49
566.022	19.59
566.219	19.71
566.416	19.8
566.613	19.96
566.81	20.01
567.007	20.02
567.204	20
567.401	20.16
567.598	20.29
567.795	20.36
567.991	20.38
568.188	20.5
568.385	20.54
568.582	20.65
568.779	20.74
568.976	20.86
569.172	20.99
569.369	21.09
569.566	21.1
569.763	21.16
569.96	21.33
570.156	21.38
570.353	21.38
570.55	21.47
570.746	21.63
570.943	21.68
571.14	21.75
571.336	21.83
571.533	21.83
571.729	21.79
571.926	21.82
572.123	21.89
572.319	21.94
572.516	22.05
572.712	22.15
572.909	22.09
573.105	22.19
573.302	22.26
573.498	22.23
573.695	22.22
573.891	22.28
574.087	22.12
574.284	22.2
574.48	22.31
574.677	22.42
574.873	22.55
575.069	22.78
575.266	22.84
575.462	22.89
575.658	22.96
575.854	22.9
576.051	22.85
576.247	22.79
576.443	22.74
576.639	22.72
576.835	22.69
577.032	22.71
577.228	22.75
577.424	22.74
577.62	22.7
577.816	22.78
578.012	22.73
578.208	22.69
578.404	22.71
578.6	22.68
578.796	22.73
578.993	22.84
579.189	22.91
579.384	22.99
579.58	23.01
579.776	22.96
579.972	22.89
580.168	22.85
580.364	22.84
580.56	22.76
580.756	22.69
580.952	22.66
581.148	22.7
581.343	22.75
581.539	22.86
581.735	22.9
581.931	22.88
582.127	22.8
582.322	22.68
582.518	22.6
582.714	22.52
582.909	22.5
583.105	22.4
583.301	22.38
583.496	22.34
583.692	22.38
583.888	22.41
584.083	22.44
584.279	22.39
584.474	22.36
584.67	22.34
584.866	22.32
585.061	22.34
585.257	22.35
585.452	22.33
585.648	22.33
585.843	22.34
586.039	22.39
586.234	22.41
586.429	22.43
586.625	22.39
586.82	22.44
587.015	22.41
587.211	22.46
587.406	22.49
587.601	22.49
587.797	22.32
587.992	22.21
588.187	22.19
588.383	22.27
588.578	22.34
588.773	22.4
588.968	22.58
589.163	22.6
589.359	22.47
589.554	22.41
589.749	22.46
589.944	22.45
590.139	22.46
590.334	22.57
590.529	22.63
590.724	22.64
590.919	22.71
591.114	22.73
591.309	22.75
591.504	22.77
591.699	22.85
591.894	22.82
592.089	22.91
592.284	22.98
592.479	23.01
592.674	23.03
592.869	23.01
593.064	22.99
593.259	23.04
593.454	23.11
593.648	23.12
593.843	23.24
594.038	23.35
594.233	23.42
594.428	23.57
594.622	23.74
594.817	23.86
595.012	23.93
595.206	24.01
595.401	24.03
595.596	24.09
595.79	24.1
595.985	24.13
596.18	24.17
596.374	24.28
596.569	24.29
596.763	24.4
596.958	24.5
597.153	24.56
597.347	24.58
597.542	24.73
597.736	24.71
597.931	24.73
598.125	24.93
598.319	24.99
598.514	25.07
598.708	25.26
598.903	25.31
599.097	25.27
599.291	25.43
599.486	25.5
599.68	25.56
599.874	25.81
600.069	25.85
600.263	25.89
600.457	25.94
600.651	25.99
600.846	25.87
601.04	25.9
601.234	25.85
601.428	25.86
601.622	25.92
601.817	25.98
602.011	26.08
602.205	26.15
602.399	26.13
602.593	26.14
602.787	26.08
602.981	26.09
603.175	26.2
603.369	26.24
603.563	26.19
603.757	26.31
603.951	26.27
604.145	26.16
604.339	26.2
604.533	26.22
604.727	26.2
604.921	26.24
605.115	26.21
605.309	26.07
605.502	26.05
605.696	25.99
605.89	26.04
606.084	26.06
606.278	26.1
606.471	26.07
606.665	26.02
606.859	25.9
607.053	25.83
607.246	25.75
607.44	25.67
607.634	25.6
607.827	25.45
608.021	25.32
608.214	25.24
608.408	25.05
608.602	24.91
608.795	24.81
608.989	24.82
609.182	24.75
609.376	24.81
609.569	24.84
609.763	24.83
609.956	24.72
610.15	24.66
610.343	24.54
610.537	24.43
610.73	24.32
610.923	24.31
611.117	24.32
611.31	24.2
611.504	24.17
611.697	24.13
611.89	24.09
612.083	23.92
612.277	23.83
612.47	23.74
612.663	23.66
612.856	23.49
613.05	23.4
613.243	23.35
613.436	23.2
613.629	23.06
613.822	23.01
614.015	22.86
614.209	22.78
614.402	22.74
614.595	22.74
614.788	22.6
614.981	22.58
615.174	22.43
615.367	22.28
615.56	22.15
615.753	22.16
615.946	22.14
616.139	22.13
616.332	22.21
616.525	22.16
616.718	22.12
616.911	22.02
617.103	22.04
617.296	21.89
617.489	21.75
617.682	21.62
617.875	21.59
618.067	21.49
618.26	21.37
618.453	21.43
618.646	21.44
618.838	21.4
619.031	21.32
619.224	21.4
619.417	21.35
619.609	21.27
619.802	21.22
619.994	21.19
620.187	21.08
620.38	21.04
620.572	21.01
620.765	21.03
620.957	20.97
621.15	20.95
621.342	20.85
621.535	20.86
621.727	20.65
621.92	20.63
622.112	20.61
622.305	20.57
622.497	20.39
622.69	20.44
622.882	20.5
623.074	20.49
623.267	20.52
623.459	20.54
623.651	20.55
623.844	20.48
624.036	20.44
624.228	20.35
624.42	20.28
624.613	20.23
624.805	20.18
624.997	20.13
625.189	20.11
625.381	20.17
625.574	20.13
625.766	20.01
625.958	20.05
626.15	20.03
626.342	20.01
626.534	20.02
626.726	20.02
626.918	19.97
627.11	19.91
627.302	19.82
627.494	19.78
627.686	19.75
627.878	19.67
628.07	19.63
628.262	19.64
628.454	19.55
628.646	19.51
628.838	19.54
629.029	19.51
629.221	19.39
629.413	19.39
629.605	19.35
629.797	19.29
629.989	19.26
630.18	19.36
630.372	19.33
630.564	19.31
630.755	19.24
630.947	19.24
631.139	19.1
631.33	18.98
631.522	18.93
631.714	18.9
631.905	18.89
632.097	18.86
632.289	18.92
632.48	18.88
632.672	18.85
632.863	18.72
633.055	18.76
633.246	18.76
633.438	18.77
633.629	18.78
633.821	18.83
634.012	18.82
634.203	18.75
634.395	18.72
634.586	18.64
634.777	18.54
634.969	18.54
635.16	18.55
635.351	18.46
635.543	18.45
635.734	18.59
635.925	18.49
636.117	18.54
636.308	18.63
636.499	18.61
636.69	18.48
636.881	18.43
637.073	18.38
637.264	18.36
637.455	18.33
637.646	18.34
637.837	18.36
638.028	18.35
638.219	18.29
638.41	18.36
638.601	18.41
638.792	18.38
638.983	18.27
639.174	18.2
639.365	18.18
639.556	18.03
639.747	18.03
639.938	18.06
640.129	18.11
640.32	18.06
640.511	18.06
640.701	18.04
640.892	17.98
641.083	17.92
641.274	17.86
641.465	17.84
641.655	17.81
641.846	17.82
642.037	17.73
642.228	17.68
642.418	17.62
642.609	17.63
642.8	17.6
642.99	17.63
643.181	17.56
643.372	17.58
643.562	17.48
643.753	17.41
643.943	17.26
644.134	17.25
644.324	17.3
644.515	17.3
644.705	17.31
644.896	17.45
645.086	17.5
645.277	17.43
645.467	17.4
645.658	17.33
645.848	17.25
646.038	17.2
646.229	17.08
646.419	16.99
646.61	17.1
646.8	17.14
646.99	17.08
647.18	17.13
647.371	17.14
647.561	16.95
647.751	16.83
647.941	16.79
648.132	16.77
648.322	16.73
648.512	16.79
648.702	16.86
648.892	16.89
649.082	16.92
649.272	16.87
649.462	16.87
649.653	16.8
649.843	16.73
650.033	16.7
650.223	16.68
650.413	16.67
650.603	16.62
650.793	16.62
650.983	16.48
651.172	16.55
651.362	16.33
651.552	16.21
651.742	16.1
651.932	16.11
652.122	15.92
652.312	15.98
652.502	15.94
652.691	15.92
652.881	15.87
653.071	15.78
653.261	15.71
653.45	15.69
653.64	15.58
653.83	15.44
654.019	15.38
654.209	15.23
654.399	15.06
654.588	14.92
654.778	14.74
654.968	14.63
655.157	14.58
655.347	14.37
655.536	14.18
655.726	14.02
655.915	13.83
656.105	13.65
656.294	13.54
656.484	13.39
656.673	13.25
656.863	13.13
657.052	12.95
657.241	12.87
657.431	12.73
657.62	12.68
657.809	12.53
657.999	12.4
658.188	12.32
658.377	12.21
658.567	12.02
658.756	11.87
658.945	11.79
659.134	11.65
659.324	11.52
659.513	11.37
659.702	11.21
659.891	11.02
660.08	10.75
660.269	10.52
660.458	10.36
660.648	10.27
660.837	10.18
661.026	10.03
661.215	9.93
661.404	9.79
661.593	9.63
661.782	9.44
661.971	9.19
662.16	9.09
662.349	8.88
662.538	8.67
662.726	8.56
662.915	8.61
663.104	8.45
663.293	8.47
663.482	8.35
663.671	8.19
663.86	8.07
664.048	8.03
664.237	7.93
664.426	7.9
664.615	7.9
664.803	7.81
664.992	7.68
665.181	7.61
665.369	7.52
665.558	7.42
665.747	7.43
665.935	7.49
666.124	7.51
666.312	7.47
666.501	7.5
666.69	7.45
666.878	7.34
667.067	7.17
667.255	7.18
667.444	7.16
667.632	7.19
667.82	7.21
668.009	7.19
668.197	7.15
668.386	7.03
668.574	6.88
668.762	6.81
668.951	6.86
669.139	6.91
669.327	6.95
669.516	7.07
669.704	7.08
669.892	7.1
670.08	7.06
670.269	7.16
670.457	7.13
670.645	7.19
670.833	7.14
671.021	7.3
671.21	7.2
671.398	7.25
671.586	7.22
671.774	7.41
671.962	7.29
672.15	7.37
672.338	7.43
672.526	7.56
672.714	7.58
672.902	7.69
673.09	7.79
673.278	7.94
673.466	8.03
673.654	8.11
673.842	8.22
674.03	8.28
674.218	8.21
674.405	8.23
674.593	8.24
674.781	8.26
674.969	8.36
675.157	8.49
675.344	8.55
675.532	8.55
675.72	8.59
675.908	8.53
676.095	8.54
676.283	8.68
676.471	8.76
676.658	8.95
676.846	9.02
677.033	9.04
677.221	9.01
677.409	9.13
677.596	9.1
677.784	9.23
677.971	9.38
678.159	9.5
678.346	9.56
678.534	9.62
678.721	9.78
678.909	9.93
679.096	9.97
679.283	10.1
679.471	10.28
679.658	10.34
679.846	10.37
680.033	10.66
680.22	10.83
680.408	10.85
680.595	10.82
680.782	10.93
680.969	11.09
681.157	11.18
681.344	11.28
681.531	11.63
681.718	11.83
681.905	11.84
682.093	11.97
682.28	12.26
682.467	12.31
682.654	12.52
682.841	12.72
683.028	12.85
683.215	12.92
683.402	13.01
683.589	13.06
683.776	13.15
683.963	13.49
684.15	13.8
684.337	14.09
684.524	14.3
684.711	14.63
684.898	14.61
685.085	14.68
685.271	15.13
685.458	15.42
685.645	15.66
685.832	16.09
686.019	16.51
686.205	16.68
686.392	17.04
686.579	17.49
686.766	17.89
686.952	18.23
687.139	18.64
687.326	19.08
687.512	19.33
687.699	19.82
687.886	20.27
688.072	20.76
688.259	21.14
688.445	21.76
688.632	22.34
688.818	22.9
689.005	23.31
689.191	24.07
689.378	24.68
689.564	25.03
689.751	25.58
689.937	26.33
690.124	26.91
690.31	27.34
690.496	28.11
690.683	28.9
690.869	29.41
691.055	29.97
691.242	30.75
691.428	31.33
691.614	31.87
691.8	32.72
691.987	33.66
692.173	34.25
692.359	35.03
692.545	36
692.731	36.74
692.918	37.24
693.104	38.07
693.29	38.76
693.476	39.48
693.662	40.34
693.848	41.17
694.034	41.94
694.22	42.79
694.406	43.44
694.592	44.31
694.778	45.08
694.964	46.08
695.15	47
695.336	47.87
695.522	48.34
695.708	49.08
695.894	49.62
696.08	50.24
696.265	50.94
696.451	51.73
696.637	52.66
696.823	53.61
697.009	54.46
697.194	55.22
697.38	55.94
697.566	56.48
697.751	57.03
697.937	58
698.123	58.74
698.308	59.39
698.494	60.27
698.68	61.13
698.865	61.56
699.051	62.3
699.236	63.06
699.422	63.64
699.607	64.39
699.793	65.21
699.978	65.65
700.164	66.24
700.349	66.71
700.535	66.86
700.72	67.25
700.906	67.98
701.091	68.35
701.276	68.89
701.462	69.89
701.647	70.54
701.832	71.17
702.018	72.16
702.203	72.98
702.388	73.13
702.573	73.62
702.759	74.15
702.944	74.15
703.129	74.45
703.314	74.86
703.499	74.88
703.684	75.2
703.87	75.86
704.055	76.15
704.24	77
704.425	77.58
704.61	77.84
704.795	78.49
704.98	78.9
705.165	79.12
705.35	79.59
705.535	79.81
705.72	79.96
705.905	80.45
706.09	80.81
706.275	81.02
706.459	81.51
706.644	81.71
706.829	82.06
707.014	82.24
707.199	83
707.384	83.09
707.568	83.2
707.753	83.56
707.938	84.19
708.123	84.32
708.307	84.68
708.492	85.62
708.677	85.77
708.861	85.49
709.046	85.42
709.231	85.6
709.415	85.67
709.6	85.5
709.784	85.97
709.969	86.32
710.153	86.39
710.338	86.38
710.522	87.17
710.707	87.13
710.891	87.53
711.076	87.75
711.26	88.05
711.445	87.83
711.629	87.73
711.813	87.62
711.998	88.3
712.182	88.23
712.366	88.84
712.551	89.46
712.735	89.49
712.919	89.76
713.103	90.31
713.288	90.14
713.472	90.44
713.656	90.49
713.84	90.33
714.024	90.26
714.208	90.09
714.393	89.88
714.577	90.48
714.761	90.58
714.945	90.52
715.129	90.83
715.313	91.07
715.497	90.85
715.681	90.74
715.865	90.98
716.049	91.41
716.233	91.37
716.417	91.24
716.601	91.84
716.785	92.11
716.968	92.53
717.152	93.09
717.336	93.76
717.52	93.76
717.704	93.78
717.888	93.69
718.071	93.47
718.255	93.6
718.439	93.74
718.622	93.78
718.806	93.3
718.99	93.35
719.174	93.25
719.357	93.47
719.541	93.67
719.724	94.11
719.908	94.37
720.092	94.07
720.275	93.82
720.459	93.94
720.642	93.82
720.826	93.31
721.009	93.72
721.193	93.79
721.376	94.1
721.559	94.27
721.743	95.44
721.926	95.55
722.11	96.23
722.293	96.43
722.476	96.3
722.66	96.26
722.843	96.71
723.026	96.57
723.21	96.31
723.393	96.98
723.576	96.7
723.759	96.95
723.942	96.83
724.126	96.65
724.309	96.61
724.492	96.71
724.675	96.32
724.858	96.26
725.041	96.51
725.224	96.75
725.407	96.95
725.59	96.82
725.774	97.33
725.957	97.76
726.14	97.44
726.322	97.27
726.505	97.82
726.688	97.38
726.871	96.89
727.054	97.02
727.237	96.97
727.42	96.18
727.603	96.01
727.786	96.15
727.968	95.91
728.151	96.13
728.334	97.17
728.517	97.54
728.699	97.83
728.882	97.9
729.065	97.75
729.248	97.39
729.43	97.91
729.613	98.01
729.796	99.25
729.978	99.69
730.161	99.55
730.343	99.51
730.526	99.14
730.708	98.82
730.891	98.21
731.073	98.39
731.256	98.51
731.438	99.41
731.621	99.35
731.803	100.56
731.986	100.81
732.168	100.51
732.35	100.32
732.533	99.81
732.715	99.08
732.898	99
733.08	99.43
733.262	99.06
733.444	99.58
733.627	100.12
733.809	100.62
733.991	100.86
734.173	100.66
734.355	100.88
734.538	100.97
734.72	100.98
734.902	101.37
735.084	102.01
735.266	102.49
735.448	103.05
735.63	103.08
735.812	102.39
735.994	102.09
736.176	102.35
736.358	102.1
736.54	101.97
736.722	101.93
736.904	102.35
737.086	101.02
737.268	101.83
737.45	102.67
737.632	102.52
737.814	103.23
737.995	103.79
738.177	102.6
738.359	102.01
738.541	101.9
738.723	101.24
738.904	100.65
739.086	101.17
739.268	100.86
739.449	100.86
739.631	101.21
739.813	101.95
739.994	101.3
740.176	102.23
740.358	103.02
740.539	102.66
740.721	103.21
740.902	103.92
741.084	103.33
741.265	102.68
741.447	103.13
741.628	103.02
741.81	102.95
741.991	103.7
742.172	103.51
742.354	103.43
742.535	102.82
742.717	101.85
742.898	101.23
743.079	102.19
743.261	101.84
743.442	101.46
743.623	102.21
743.804	102.22
743.986	102.5
744.167	101.57
744.348	101.76
744.529	102.04
744.71	101.09
744.891	100.27
745.073	101.67
745.254	101.6
745.435	101.32
745.616	102.04
745.797	101.44
745.978	101.38
746.159	101.04
746.34	101.23
746.521	100.67
746.702	102.08
746.883	102.13
747.064	103.62
747.245	103.61
747.426	104.43
747.606	103.92
747.787	103.66
747.968	101.68
748.149	100.46
748.33	100.86
748.51	99.62
748.691	99.37
748.872	101.16
749.053	101.32
749.233	100.27
749.414	102.1
749.595	102.54
749.775	101.5
749.956	102.37
750.137	102.02
750.317	101.05
750.498	100.04
750.678	100.39
750.859	100.68
751.04	101.32
751.22	100.64
751.4	101.67
751.581	101.76
751.761	100.86
751.942	101.03
752.122	101.07
752.303	101.12
752.483	100.64
752.663	101.11
752.844	100.51
753.024	101.87
753.204	102.11
753.385	101.62
753.565	101.52
753.745	101.43
753.925	99.55
754.106	98.28
754.286	99.05
754.466	98.42
754.646	98.52
754.826	100.63
755.006	100.47
755.187	101.02
755.367	100.74
755.547	101.23
755.727	99.86
755.907	101.27
756.087	100.57
756.267	100.18
756.447	100.69
756.627	100.87
756.807	101.53
756.987	101.49
757.167	102.71
757.346	101.9
757.526	102.1
757.706	101.08
757.886	101.75
758.066	101.29
758.246	100.59
758.425	100.1
758.605	99.55
758.785	99.37
758.965	100.66
759.144	100.03
759.324	100.06
759.504	100.39
759.683	99.19
759.863	98.16
760.043	99.06
760.222	99.85
760.402	98.89
760.581	99.98
760.761	99.5
760.94	99.45
761.12	97.38
761.299	99.01
761.479	99.81
761.658	99.99
761.838	100.1
762.017	102.33
762.197	100.86
762.376	99.43
762.555	99.3
762.735	98.89
762.914	97.62
763.093	96.8
763.273	96.45
763.452	95.3
763.631	95.65
763.81	97.23
763.99	97.5
764.169	98.37
764.348	99.52
764.527	99.06
764.706	96.54
764.885	97.87
765.064	98.25
765.243	97.8
765.423	97.82
765.602	100.04
765.781	96.73
765.96	95.28
766.139	94.26
766.318	95.22
766.497	93.02
766.676	95.31
766.854	96.34
767.033	98.19
767.212	98.38
767.391	99.61
767.57	101.36
767.749	100
767.928	99.22
768.106	98.33
768.285	97.75
768.464	95.38
768.643	96.08
768.821	95.23
769	95.84
769.179	95.08
769.357	96.5
769.536	95.56
769.715	93.89
769.893	92.28
770.072	91.59
770.25	90.33
770.429	91.44
770.607	94.65
770.786	95.46
770.964	97.3
771.143	97.41
771.321	94.75
771.5	94.62
771.678	94.33
771.857	93.02
772.035	94.11
772.213	95.69
772.392	93.97
772.57	93.41
772.748	92.49
772.927	91.74
773.105	92.91
773.283	93.17
773.461	93.83
773.64	95.7
773.818	95.43
773.996	94.77
774.174	97.42
774.352	97.88
774.531	95.63
774.709	96.06
774.887	92.23
775.065	89.81
775.243	88.44
775.421	89.29
775.599	89.82
775.777	92.06
775.955	93.16
776.133	94.59
776.311	94.39
776.489	92.72
776.667	92.98
776.844	90.82
777.022	90.22
777.2	92.29
777.378	90.94
777.556	91.72
777.734	95.7
777.911	96.96
778.089	99.06
778.267	99.72
778.445	102.21
778.622	100.73
778.8	96.89
778.978	93.85
779.155	97.14
779.333	93.69
779.511	90.98
779.688	93.35
779.866	94.17
780.043	92.32
780.221	94.45
780.398	95.17
780.576	93.58
780.753	93.08
780.931	91.82
781.108	92.07
781.286	92.88
781.463	93.02
781.64	93.48
781.818	97.73
781.995	96.78
782.172	96.57
782.35	97.28
782.527	97.95
782.704	93.54
782.882	91.33
783.059	90.06
783.236	91.23
783.413	88.89
783.59	89.73
783.768	90.92
783.945	94.2
784.122	92.52
784.299	91.61
784.476	88.46
784.653	86.17
784.83	81.27
785.007	80.65
785.184	81.18
785.361	83.62
785.538	84.81
785.715	87.92
785.892	87.05
786.069	89.55
786.246	88.88
786.423	88.32
786.6	87.17
786.776	86.44
786.953	85.24
787.13	86.01
787.307	87.01
787.484	83.19
787.66	85.14
787.837	84.45
788.014	83.87
788.191	82.31
788.367	82.6
788.544	85.47
788.721	84.95
788.897	87.18
789.074	89.53
789.25	90.13
789.427	86.04
789.603	84.85
789.78	81.75
789.956	79.06
790.133	80.18
790.309	80.47
790.486	81.96
790.662	83.17
790.839	83.39
791.015	84.09
791.192	86.78
791.368	88.33
791.544	86.45
791.721	87.96
791.897	86.79
792.073	82.15
792.249	79.36
792.426	80.65
792.602	82.86
792.778	80.39
792.954	81.8
793.13	80.29
793.307	82.85
793.483	77.45
793.659	80.22
793.835	83.35
794.011	87.38
794.187	85.07
794.363	86.42
794.539	86.66
794.715	85.95
794.891	86.95
795.067	84.38
795.243	84.57
795.419	84.64
795.595	86.29
795.771	82.01
795.947	83.99
796.122	83.91
796.298	80.94
796.474	83.83
796.65	85.18
796.826	84.54
797.001	85.62
797.177	82.76
797.353	76.3
797.529	74.27
797.704	73.13
797.88	70.56
798.056	76.39
798.231	78
798.407	79.76
798.582	81.94
798.758	85.14
798.934	84.27
799.109	80.48
799.285	79.43
799.46	76.87
799.636	72.51
799.811	74.51
799.986	76.17
800.162	73.05
800.337	78.77
800.513	86.88
800.688	85.36
800.863	92.8
801.039	94.02
801.214	88.59
801.389	83.07
801.565	82.06
801.74	79.09
801.915	83.8
802.09	85.1
802.265	85.1
802.441	82.25
802.616	79
802.791	78.71
802.966	77.43
803.141	75.81
803.316	81.68
803.491	84.7
803.666	80.9
803.841	76.56
804.016	77.26
804.191	76.06
804.366	69.81
804.541	72.9
804.716	78.66
804.891	84.36
805.066	81.01
805.241	83.64
805.416	83.15
805.591	84.59
805.765	87.54
805.94	90.56
806.115	91.72
806.29	91.43
806.464	88.26
806.639	83.97
806.814	85.04
806.989	90.07
807.163	94.78
807.338	93.21
807.512	96.27
807.687	91.47
807.862	90.31
808.036	91.55
808.211	95.06
808.385	92.72
808.56	90.11
808.734	78.87
808.909	74.31
809.083	77.33
809.258	77.88
809.432	82.99
809.606	90.96
809.781	92.05
809.955	89.16
810.13	79.68
810.304	80.04
810.478	76.75
810.652	75.97
810.827	76.75
811.001	83.51
811.175	83.18
811.349	82.26
811.524	85.98
811.698	80.89
811.872	77.56
812.046	77.52
812.22	81.58
812.394	73.65
812.568	78.85
812.742	76.97
812.916	84.56
813.09	79.87
813.264	80.91
813.438	79.52
813.612	79.84
813.786	68.95
813.96	78.73
814.134	81.2
814.308	82.71
814.482	83.4
814.656	86.21
814.83	82.7
815.003	84.16
815.177	78.05
815.351	81.84
815.525	87.52
815.698	79.43
815.872	70.2
816.046	70.46
816.219	73.87
816.393	69.59
816.567	69.08
816.74	68.73
816.914	69.25
817.088	68.75
817.261	67.79
817.435	71.47
817.608	73.07
817.782	74.05
817.955	68.73
818.129	65.55
818.302	66.77
818.475	80.25
818.649	80.99
818.822	79.22
818.996	89.88
819.169	92.25
819.342	71.5
819.516	74.24
819.689	70.56
819.862	62.58
820.035	65.79
820.209	68.7
820.382	65.26
820.555	69.18
820.728	74.55
820.901	58.38
821.075	70.62
821.248	65.03
821.421	66.84
821.594	54.84
821.767	60.5
821.94	59.83
822.113	67.72
822.286	66.46
822.459	85.92
822.632	82.33
822.805	86.8
822.978	87.23
823.151	96.58
823.324	71.05
823.496	68.46
823.669	66.5
823.842	55.24
824.015	46.07
824.188	46.08
824.361	61.06
824.533	69.13
824.706	75.05
824.879	79.7
825.051	91.56
825.224	87.66
825.397	81.4
825.569	82.66
825.742	77.49
825.915	75.58
826.087	68.13
826.26	55
826.432	48.46
826.605	50.45
826.777	61.71
826.95	62.73
827.122	70.43
827.295	91.02
827.467	98.19
827.64	70.13
827.812	55.11
827.984	68.66
828.157	51.45
828.329	63.15
828.501	62.35
828.674	75.65
828.846	77.75
829.018	62.33
829.19	47.41
829.363	44.7
829.535	45.77
829.707	48.28
829.879	57.54
830.051	54.79
830.223	67.05
830.395	56.67
830.568	49.44
830.74	52.94
830.912	44.77
831.084	38.94
831.256	38.9
831.428	40.22
831.6	38.8
831.772	56.04
831.943	48.06
832.115	83.47
832.287	72.76
832.459	73.71
832.631	68.62
832.803	79.67
832.975	58.81
833.146	61.48
833.318	63.55
833.49	66
833.662	81.87
833.833	78.17
834.005	78.16
834.177	79.52
834.348	70.39
834.52	51.28
834.692	54.48
834.863	49.59
835.035	39.46
835.206	40.13
835.378	40.39
835.549	39.6
835.721	40.11
835.892	40.68
836.064	47.02
836.235	47.93
836.407	57.72
836.578	53.66
836.749	49.29
836.921	41.84
837.092	36.78
837.264	22.92
837.435	27.33
837.606	37.48
837.777	45.67
837.949	53.18
838.12	61.16
838.291	62.5
838.462	70.39
838.633	66.76
838.805	67.44
838.976	64.07
839.147	66.04
839.318	51.68
839.489	44.86
839.66	58.98
839.831	58.15
840.002	60.32
840.173	70.18
840.344	79.74
840.515	51.72
840.686	54.77
840.857	47.14
841.028	52.91
841.199	50.77
841.369	71.7
841.54	82.19
841.711	122.22
841.882	98.94
842.053	72.91
842.223	74.8
842.394	53.43
842.565	34.61
842.736	26.11
842.906	19.35
843.077	28.02
843.248	42.46
843.418	51.8
843.589	45.73
843.759	67.17
843.93	62.26
844.101	62.77
844.271	69.2
844.442	68.15
844.612	61.12
844.783	41.22
844.953	30.66
845.123	19.14
845.294	20.9
845.464	20.64
845.635	50.26
845.805	88.44
845.975	82.24
846.146	74.3
846.316	51.03
846.486	56.85
846.656	62.15
846.827	72.82
846.997	78.79
847.167	75.42
847.337	59.25
847.507	51.39
847.677	44.92
847.848	63.23
848.018	68.82
848.188	77.17
848.358	52.87
848.528	58.12
848.698	21.9
848.868	19.56
849.038	15.01
849.208	32.33
849.378	42.09
849.548	26.98
849.718	29.8
849.887	32.76
850.057	24.39
850.227	20.26
850.397	42.71
850.567	8.53
850.737	30.53
850.906	17.89
851.076	-13.94
851.246	-2.16
851.415	6.41
851.585	-17.54
851.755	17.73
851.924	52.73
852.094	53.46
852.264	47.17
852.433	40.27
852.603	34.84
852.772	21.95
852.942	45.88
853.111	34.93
853.281	38.13
853.45	29.04
853.62	23.78
853.789	9.1
853.959	32.24
854.128	40.99
854.297	42.28
854.467	47.74
854.636	50.4
854.805	34.19
854.975	28.76
855.144	34.09
855.313	22.17
855.482	16.31
855.652	45.83
855.821	14.11
855.99	9.58
856.159	20
856.328	26.8
856.497	23.7
856.667	37.78
856.836	47.06
857.005	48.58
857.174	37.22
857.343	29.57
857.512	33.68
857.681	21.44
857.85	2.89
858.019	-29.16
858.188	-57.25
858.356	-29.33
858.525	-3.24
858.694	26.31
858.863	38.73
859.032	42.14
859.201	21.42
859.369	23.31
859.538	24.79
859.707	35.03
859.876	47.7
860.044	73.45
860.213	80.99
860.382	75.13
860.55	62.8
860.719	70.96
860.888	58.51
861.056	19.12
861.225	2.85
861.393	10.92
861.562	12.6
861.73	25.73
861.899	22.59
862.067	7.5
862.236	1.92
862.404	26.29
862.572	14.07
862.741	30.23
862.909	42.84
863.078	66.35
863.246	29.01
863.414	44.97
863.582	60.44
863.751	87.93
863.919	66.67
864.087	79.93
864.255	82.56
864.424	64.59
864.592	50.82
864.76	48.2
864.928	52.78
865.096	25.65
865.264	17.56
865.432	30.34
865.6	38
865.768	17.4
865.936	30.2
866.104	2.25
866.272	-130.4
866.44	-65.99
866.608	-36.39
866.776	-19.29
866.944	25.91
867.112	47.04
867.28	39.73
867.448	37.64
867.615	38.23
867.783	15.68
867.951	25.27
868.119	46.76
868.286	92.71
868.454	31.39
868.622	39.04
868.789	33.25
868.957	19.78
869.125	4.27
869.292	-8.46
869.46	19.61
869.627	18.32
869.795	7.25
869.963	27.88
870.13	42.62
870.298	69.69
870.465	84.35
870.632	64.82
870.8	51.1
870.967	35.59
871.135	-16.18
871.302	-41.08
871.469	-24.27
871.637	-67.21
871.804	-38.3
871.971	-32.72
872.139	-40.85
872.306	-59.5
872.473	-65.77
872.64	-133.18
872.807	-124.62
872.975	-199.13
873.142	-28.57
873.309	-10.13
873.476	49.84
873.643	83.98
873.81	63.17
873.977	82.06
874.144	101.05
874.311	48.46
874.478	34.64
874.645	-17.57
874.812	-11.04
874.979	-27.78
875.146	-81.3
875.313	-55.2
875.48	17.06
875.647	-2.29
875.813	-23.19
875.98	-0.24
876.147	-77.91
876.314	-45.9
876.481	-33.04
876.647	-0.25
876.814	3.92
876.981	26.89
877.147	23.49
877.314	34.58
877.481	35
877.647	39.62
877.814	34.62
877.98	11.98
878.147	38.44
878.314	60.05
878.48	80.28
878.647	73.71
878.813	108.04
878.979	94.73
879.146	101.87
879.312	70.62
879.479	47.67
879.645	33.25
879.811	-5.37
879.978	1.2
880.144	21.91
880.31	23.01
880.477	41.53
880.643	67.51
880.809	77.97
880.975	76
881.142	38.65
881.308	207.67
881.474	415.2
881.64	-29.02
881.806	-98.62
881.972	-9.11
882.138	20.95
882.304	41.41
882.47	23.39
882.636	24.96
882.802	40.69
882.968	41.16
883.134	19.36
883.3	5.02
883.466	28.88
883.632	-10.49
883.798	-38.33
883.964	-57.41
884.129	-155.02
884.295	97.68
884.461	91.88
884.627	80.48
884.793	88.95
884.958	68.82
885.124	26.53
885.29	8.44
885.455	-82.88
885.621	-50.32
885.787	-72.21
885.952	-52.5
886.118	-26.01
886.283	4.97
886.449	-13.46
886.614	20.77
886.78	-5.04
886.945	18.11
887.111	-20.68
887.276	-41.8
887.442	-103.48
887.607	-32.34
887.773	-15.59
887.938	-29.16
888.103	15.62
888.269	43.57
888.434	55.18
888.599	28.66
888.764	57.96
888.93	56.89
889.095	38.4
889.26	8.18
889.425	25.62
889.59	48.65
889.756	35.07
889.921	25.61
890.086	87.14
890.251	96.64
890.416	33.36
890.581	31.18
890.746	50.87
890.911	40.54
891.076	42.58
891.241	33.35
891.406	18.26
891.571	0.88
891.736	-82.08
891.901	12.75
892.065	27.38
892.23	42.84
892.395	47.23
892.56	26.43
892.725	-14.17
892.889	-5.19
893.054	25.12
893.219	-62.34
893.384	-61.65
893.548	-103.59
893.713	-180.62
893.878	-316.36
