Data from Ofra_1a_PS_2GT10_Reflection_3.txt Node
Date: Tue Jul 20 10:48:36 EDT 2021
User: Adam
Spectrometer: FLMT01687
Trigger mode: 0
Integration Time (sec): 1.004000E0
Scans to average: 2
Electric dark correction enabled: true
Nonlinearity correction enabled: false
Boxcar width: 2
XAxis mode: Wavelengths
Number of Pixels in Spectrum: 3648
>>>>>Begin Spectral Data<<<<<
179.494	-69.04
179.716	-131.3
179.937	391.97
180.158	-272.61
180.38	147.51
180.601	129.83
180.823	112.65
181.044	135.32
181.265	168.02
181.486	112.64
181.708	146.68
181.929	-8000
182.15	80.11
182.372	151.72
182.593	18.94
182.814	-188.79
183.035	-27.18
183.257	-22.31
183.478	-11.57
183.699	-42.24
183.92	-57.06
184.141	-86.08
184.363	-52.13
184.584	-87.53
184.805	-53.27
185.026	-15.73
185.247	-15.48
185.468	-28.01
185.689	-12.2
185.91	-46.04
186.132	-23.84
186.353	-4.81
186.574	-6.7
186.795	-3.18
187.016	23.53
187.237	2.92
187.458	8.49
187.679	3.59
187.9	36.89
188.121	62
188.342	59.06
188.563	62.92
188.784	63.09
189.005	20.89
189.226	8.6
189.447	-0.86
189.667	-11.91
189.888	-27.68
190.109	-32.11
190.33	-23.68
190.551	-8.45
190.772	7.6
190.993	3.2
191.214	14.35
191.434	-7.48
191.655	-52.63
191.876	-35.32
192.097	-8.24
192.318	-9.12
192.538	-40.18
192.759	-25.27
192.98	-19.93
193.201	-3.22
193.421	5.28
193.642	30.32
193.863	46.89
194.083	51.27
194.304	29.54
194.525	20.84
194.745	18.87
194.966	0.79
195.187	-9.37
195.407	-19.59
195.628	-6.38
195.848	-8.33
196.069	-24.36
196.29	7.22
196.51	2.51
196.731	0.61
196.951	-37.09
197.172	-14.2
197.392	-55.83
197.613	-20.08
197.833	-35.49
198.054	-19.82
198.274	-12.34
198.495	14.01
198.715	-5.46
198.936	9.32
199.156	4.56
199.377	-7.93
199.597	5.04
199.817	6.42
200.038	-12.47
200.258	4.89
200.479	21.89
200.699	18.65
200.919	2.35
201.14	5.23
201.36	3.58
201.58	-17.18
201.801	-57.87
202.021	-42.51
202.241	-52.28
202.461	-35.44
202.682	-18.3
202.902	2.38
203.122	5.84
203.342	4.14
203.563	-10.86
203.783	-54.85
204.003	-71.47
204.223	-50.91
204.443	-55.17
204.663	-67.33
204.884	-5.87
205.104	-25.37
205.324	-5.91
205.544	-32.43
205.764	6.5
205.984	-11.74
206.204	23.93
206.424	-24.27
206.644	-11.7
206.864	-78.38
207.084	-21.43
207.304	-40.92
207.525	-3.09
207.745	6.19
207.964	19.45
208.184	18.48
208.404	16.57
208.624	21.77
208.844	11.48
209.064	15.89
209.284	-9.97
209.504	-26.91
209.724	-34.81
209.944	-25.14
210.164	-17.96
210.384	-14.8
210.604	-33.84
210.823	-45.21
211.043	-38.7
211.263	-127.42
211.483	-79.07
211.703	-38.78
211.922	-54.54
212.142	-24.17
212.362	-10.95
212.582	-3.27
212.801	-13.93
213.021	-9.34
213.241	-40.9
213.461	0.78
213.68	13.2
213.9	6.49
214.12	-1.59
214.339	4.91
214.559	-17.04
214.779	-41
214.998	-37.41
215.218	-24.66
215.438	-24.75
215.657	-32.25
215.877	-40.05
216.096	-10.36
216.316	-1.13
216.535	-3.67
216.755	2.03
216.974	7.43
217.194	-12.74
217.413	-11.64
217.633	-13.4
217.852	-5.71
218.072	0.82
218.291	-5.15
218.511	-13.97
218.73	-12.75
218.95	-46.47
219.169	-59.29
219.389	-23.91
219.608	-29.23
219.827	-4.53
220.047	3.84
220.266	4.61
220.485	-10.02
220.705	-4.1
220.924	-19.54
221.143	24.02
221.363	32.23
221.582	35.23
221.801	50.6
222.021	47.6
222.24	23.63
222.459	23.19
222.678	19.65
222.897	3.18
223.117	1.63
223.336	17.06
223.555	24.96
223.774	21.81
223.993	43.1
224.213	52.07
224.432	46.77
224.651	23.98
224.87	12.79
225.089	8.85
225.308	6.56
225.527	-13.5
225.746	-7.02
225.965	0.48
226.184	-30.3
226.404	-60.86
226.623	-46.66
226.842	-51.52
227.061	-56.1
227.28	-23.5
227.499	-2.3
227.718	10.97
227.936	17.2
228.155	20.59
228.374	18.85
228.593	17.7
228.812	6.31
229.031	15.95
229.25	2.32
229.469	-12.07
229.688	-17.88
229.907	-9.72
230.125	-7.46
230.344	0.19
230.563	9.54
230.782	18.16
231.001	20.17
231.22	-1.4
231.438	6.13
231.657	8.21
231.876	7.52
232.095	15.99
232.313	18.47
232.532	2.59
232.751	1.79
232.969	-4.22
233.188	-26.09
233.407	-6.81
233.625	7.76
233.844	0.06
234.063	5.94
234.281	15.95
234.5	12.97
234.719	-2.74
234.937	5.45
235.156	-6.65
235.374	-3.69
235.593	2.84
235.811	23.85
236.03	19.99
236.249	25.78
236.467	16.57
236.686	0.22
236.904	10.52
237.123	-4.11
237.341	-0.72
237.559	-15.77
237.778	22.13
237.996	-21.76
238.215	-56.92
238.433	-107.82
238.652	-10.32
238.87	-60.18
239.088	-27.82
239.307	6.33
239.525	11.54
239.743	-6.09
239.962	-4.5
240.18	-3.76
240.398	-1.5
240.617	-3.67
240.835	12.16
241.053	14.47
241.271	21.26
241.49	32.17
241.708	18.51
241.926	-4.23
242.144	-7.63
242.363	-33.33
242.581	-83.92
242.799	-119.13
243.017	-45.96
243.235	-36.23
243.453	-32.25
243.672	-41.12
243.89	-4.47
244.108	-6.21
244.326	18.2
244.544	19.21
244.762	16.5
244.98	21.38
245.198	29.96
245.416	14.31
245.634	1.31
245.852	-7.5
246.07	-1.97
246.288	-20.67
246.506	-24.75
246.724	-19.75
246.942	-17.84
247.16	-30.2
247.378	-28.77
247.596	-8.14
247.814	-3.79
248.032	2.81
248.25	9.55
248.468	18.62
248.685	14.49
248.903	6.11
249.121	18.2
249.339	18.82
249.557	18.89
249.775	26.43
249.992	47.05
250.21	38.22
250.428	38.29
250.646	26.14
250.863	-1.48
251.081	-11.11
251.299	5.56
251.517	13.45
251.734	14.89
251.952	22.98
252.17	17.25
252.387	-5.9
252.605	-10.05
252.823	-33.5
253.04	-5.82
253.258	-4.46
253.475	-5.97
253.693	-8.72
253.911	0.24
254.128	-12.26
254.346	-5.81
254.563	6.88
254.781	9.67
254.998	7.73
255.216	-7.98
255.433	-29.41
255.651	-23.72
255.868	-44.29
256.086	-26.76
256.303	-10.41
256.521	4.26
256.738	6.42
256.956	13.21
257.173	-4.08
257.39	3.72
257.608	-1.51
257.825	-9.6
258.043	8.91
258.26	8.28
258.477	1.3
258.695	-1.94
258.912	-11.67
259.129	-28.53
259.346	-32.64
259.564	-45.48
259.781	-31.51
259.998	-5.2
260.216	-0.65
260.433	-7.38
260.65	-2.92
260.867	-14.15
261.084	-4.13
261.302	-11.75
261.519	12.18
261.736	8.49
261.953	6.76
262.17	7.23
262.387	2.69
262.604	8.97
262.822	18.8
263.039	36.85
263.256	20.04
263.473	17.97
263.69	10.06
263.907	14.04
264.124	0.6
264.341	24.16
264.558	27.16
264.775	36.79
264.992	44.16
265.209	24.73
265.426	3.95
265.643	1.82
265.86	-21.71
266.077	-61.74
266.294	-35.52
266.51	8.57
266.727	7.85
266.944	19.08
267.161	27.24
267.378	31.72
267.595	19.16
267.812	2.51
268.028	-7.85
268.245	-0.38
268.462	3.01
268.679	9.17
268.896	51.73
269.112	40.91
269.329	13.02
269.546	18.83
269.763	18.82
269.979	-12.57
270.196	-7.65
270.413	4.57
270.629	-4.19
270.846	-25.49
271.063	-8.71
271.279	7.15
271.496	-3.2
271.712	1.9
271.929	6.89
272.146	-23.19
272.362	-45.71
272.579	-33.44
272.795	-51.18
273.012	-50.25
273.228	-17.37
273.445	-4.04
273.661	2.47
273.878	8.64
274.094	-1.36
274.311	-4.07
274.527	0.83
274.744	11.36
274.96	0.72
275.177	15.86
275.393	18.98
275.609	18.41
275.826	2.45
276.042	1.35
276.259	-3.79
276.475	-27.37
276.691	-28.53
276.908	-28.75
277.124	-26.18
277.34	-31.86
277.557	-15.58
277.773	-28.1
277.989	-18.38
278.205	-6.94
278.422	-6.27
278.638	2.49
278.854	3.69
279.07	16.51
279.286	16.98
279.503	23.63
279.719	18.6
279.935	24.49
280.151	15.47
280.367	15.6
280.583	-1.69
280.799	-4.95
281.016	-39.89
281.232	-20.83
281.448	-34.08
281.664	-13.54
281.88	0.56
282.096	9.06
282.312	7.48
282.528	10.71
282.744	17.28
282.96	8.36
283.176	-5.57
283.392	-27.52
283.608	-17.59
283.824	-53.41
284.04	-81.53
284.256	-25.67
284.471	-3.15
284.687	-7.25
284.903	7.53
285.119	27.29
285.335	32.32
285.551	25.38
285.767	31.71
285.982	25.25
286.198	-4.69
286.414	-3.17
286.63	-11.54
286.846	-27.68
287.061	-19.78
287.277	-5.44
287.493	-5.35
287.709	-11.47
287.924	4.84
288.14	4.48
288.356	10.65
288.571	7.74
288.787	8.32
289.003	24.41
289.218	13.66
289.434	-2.65
289.65	6.61
289.865	1.93
290.081	-4.75
290.296	9.22
290.512	8.27
290.727	-5.81
290.943	3.72
291.159	1.93
291.374	-19.91
291.59	-7.76
291.805	-19.02
292.021	-18.29
292.236	-24.93
292.451	-14.25
292.667	-25.64
292.882	-4.36
293.098	-3.33
293.313	3.54
293.529	7.53
293.744	5.32
293.959	3.69
294.175	13.01
294.39	-10.17
294.605	7.3
294.821	8.54
295.036	5.49
295.251	-5.03
295.467	0.58
295.682	-5.61
295.897	-12.93
296.112	-13.86
296.328	-12.31
296.543	-29.78
296.758	-43.21
296.973	-38.48
297.188	-33.53
297.404	-72.25
297.619	-60.33
297.834	-77.43
298.049	-55.68
298.264	-59.42
298.479	-36.41
298.694	6.18
298.909	23.84
299.125	17.18
299.34	19.48
299.555	21.19
299.77	27.93
299.985	16.81
300.2	22.04
300.415	13.8
300.63	14.76
300.845	-7.92
301.06	-8.15
301.275	-14.78
301.49	-2.5
301.704	-2.16
301.919	-18.65
302.134	-23.53
302.349	-18.84
302.564	-23.26
302.779	-21.51
302.994	2.95
303.209	15.86
303.423	15.84
303.638	16.85
303.853	-14.16
304.068	-20.83
304.283	-11.34
304.497	-31.58
304.712	-19.38
304.927	5.6
305.142	11.66
305.356	5.05
305.571	13.68
305.786	6.72
306	8.95
306.215	6.7
306.43	4.07
306.644	-13.56
306.859	-22.11
307.074	-24.66
307.288	-16.82
307.503	0.52
307.717	11.33
307.932	26.43
308.147	26.92
308.361	20.1
308.576	6.41
308.79	0.7
309.005	-31.65
309.219	-23.25
309.434	-8.68
309.648	-0.95
309.863	11.36
310.077	13.2
310.292	24.5
310.506	2.05
310.72	3.22
310.935	2.36
311.149	11.41
311.364	-0.3
311.578	16.12
311.792	3.74
312.007	7.57
312.221	-2.73
312.435	8.54
312.649	8.77
312.864	2.62
313.078	-19.81
313.292	-12.24
313.507	-16.43
313.721	-15.96
313.935	-14.04
314.149	13.22
314.363	13.41
314.578	4.4
314.792	-45.19
315.006	-32.78
315.22	-14.3
315.434	-12.68
315.648	-11.99
315.862	12.94
316.077	5.8
316.291	3.05
316.505	-13.05
316.719	-2.46
316.933	-1.06
317.147	14.1
317.361	8.82
317.575	21.99
317.789	20.84
318.003	17.83
318.217	12.55
318.431	1.4
318.645	-4.39
318.859	6.22
319.073	14.54
319.287	12.06
319.5	18.72
319.714	15
319.928	11.38
320.142	2.03
320.356	9.77
320.57	-5.15
320.784	4.55
320.997	-15.33
321.211	10.35
321.425	-4.4
321.639	16.18
321.853	30.98
322.066	25.44
322.28	19.49
322.494	14.98
322.707	6.69
322.921	-20.44
323.135	-18.35
323.349	-26.65
323.562	-29.74
323.776	-21.99
323.989	11.45
324.203	6.24
324.417	13.1
324.63	8.71
324.844	-8.73
325.057	-52.61
325.271	-30.19
325.485	-23.34
325.698	10.11
325.912	18.33
326.125	20.38
326.339	33.04
326.552	18.62
326.766	-1.49
326.979	3.74
327.193	19.37
327.406	-6.17
327.619	8.79
327.833	11.79
328.046	14.44
328.26	8.77
328.473	10.93
328.686	12.83
328.9	22.26
329.113	13.47
329.326	2.02
329.54	4.67
329.753	15.04
329.966	13.43
330.179	15.28
330.393	16.1
330.606	11.65
330.819	-11.59
331.032	-18.91
331.246	-8.17
331.459	5.85
331.672	3.93
331.885	6.76
332.098	9.97
332.311	2.07
332.525	-8.93
332.738	-1.48
332.951	-1.02
333.164	0.04
333.377	1.09
333.59	-4.1
333.803	-0.62
334.016	-9.57
334.229	-11.47
334.442	0.05
334.655	10.44
334.868	4.52
335.081	-2.55
335.294	-10.45
335.507	-29.82
335.72	-30.9
335.933	-41.88
336.146	-34.34
336.359	-20.28
336.572	-20.83
336.785	-28.98
336.997	-32.47
337.21	-34.86
337.423	-56.12
337.636	-24.14
337.849	-31.54
338.062	-13.83
338.274	-4.85
338.487	0.5
338.7	-31.22
338.913	-11.52
339.125	-29.95
339.338	-41.36
339.551	-41.25
339.763	-25.65
339.976	-31.19
340.189	-30.73
340.402	-9.8
340.614	-6.93
340.827	-12.48
341.039	-18.56
341.252	-14.6
341.465	-26.84
341.677	-36.74
341.89	-28.35
342.102	-15.26
342.315	-10.56
342.527	-7.86
342.74	-4.88
342.952	0.84
343.165	-14.35
343.377	-9.58
343.59	5.68
343.802	8.73
344.015	5.17
344.227	-8.58
344.44	-20.43
344.652	-22.24
344.864	-7.83
345.077	-2.54
345.289	22.3
345.502	31.27
345.714	23.96
345.926	14.01
346.139	0.25
346.351	1
346.563	0.99
346.775	6.41
346.988	24.97
347.2	27.08
347.412	28.42
347.624	15.84
347.837	16.66
348.049	-5.96
348.261	-12.45
348.473	-27.98
348.685	-12.24
348.897	-7.37
349.11	1.49
349.322	12.86
349.534	15.12
349.746	-2.58
349.958	-9.58
350.17	-24.05
350.382	-22.98
350.594	-1.81
350.806	19.42
351.018	18.66
351.23	26.03
351.442	25.74
351.654	14.33
351.866	-1.23
352.078	-2.84
352.29	-2.16
352.502	7.36
352.714	10.88
352.926	14.71
353.138	9.4
353.35	-1.49
353.561	-12.88
353.773	-15.35
353.985	-14.14
354.197	-6.6
354.409	-9.23
354.621	-26.72
354.832	-19.83
355.044	-36.38
355.256	-77.17
355.468	-72.55
355.679	-24.33
355.891	-20.41
356.103	-11.45
356.314	7.06
356.526	-2.43
356.738	-24.07
356.949	-26.93
357.161	-9.12
357.373	-4.61
357.584	4.55
357.796	10.42
358.008	19.88
358.219	5.47
358.431	-3.32
358.642	7.17
358.854	11.61
359.065	-1.17
359.277	1.26
359.488	8.17
359.7	-0.83
359.911	-21.82
360.123	-13.14
360.334	-13.06
360.546	-22.15
360.757	-27.93
360.969	-14.63
361.18	-16.01
361.391	-10.64
361.603	7.37
361.814	17.22
362.025	18.58
362.237	13
362.448	15.63
362.659	-3.52
362.871	-20.72
363.082	-25.64
363.293	-48.13
363.504	-73.32
363.716	-72.3
363.927	-28.29
364.138	-47.21
364.349	-32.17
364.56	-42.76
364.772	-10.1
364.983	-6.95
365.194	9.97
365.405	2.74
365.616	12.96
365.827	-3.74
366.038	-10.37
366.25	-11.38
366.461	3.69
366.672	16.5
366.883	18.5
367.094	10.14
367.305	-1.97
367.516	-15.53
367.727	-35.66
367.938	-42.28
368.149	-42.78
368.36	-47.02
368.571	-53.82
368.781	-45.74
368.992	-39.6
369.203	-35.36
369.414	-35.68
369.625	-24.68
369.836	-7.11
370.047	-0.66
370.258	6.84
370.468	5.57
370.679	-5.38
370.89	-30.68
371.101	-15.76
371.312	-29.38
371.522	-23.01
371.733	-19.73
371.944	-24.7
372.155	-22.41
372.365	-6.61
372.576	-6.84
372.787	2.04
372.997	11.55
373.208	0.76
373.419	2.36
373.629	-2.29
373.84	-10.81
374.05	-18.51
374.261	-32.52
374.472	-42.26
374.682	-29.34
374.893	-38.74
375.103	-28.32
375.314	-11.35
375.524	-13.63
375.735	-10.89
375.945	4.68
376.156	3.37
376.366	8.32
376.577	13.42
376.787	9.91
376.997	8.06
377.208	11.39
377.418	-0.71
377.629	5.07
377.839	3.94
378.049	3.52
378.26	-13.41
378.47	-9.46
378.68	-7.86
378.89	1.36
379.101	6.49
379.311	17.62
379.521	12.03
379.732	17.63
379.942	6.01
380.152	-0.84
380.362	4.51
380.572	19.06
380.783	16.28
380.993	23.61
381.203	19.85
381.413	12.36
381.623	8.68
381.833	7.71
382.043	1.77
382.253	5.81
382.463	17.82
382.674	18.58
382.884	16.98
383.094	22.2
383.304	24.91
383.514	20.66
383.724	18.13
383.934	9.51
384.144	9.27
384.353	10.87
384.563	4.72
384.773	5.68
384.983	10.45
385.193	0.19
385.403	2.24
385.613	4.99
385.823	3.79
386.033	2.51
386.242	1.97
386.452	-8.74
386.662	-5.32
386.872	-2.46
387.082	-4.54
387.291	-6.57
387.501	0.38
387.711	2.24
387.921	-4.99
388.13	-2.25
388.34	3.42
388.55	-0.14
388.759	-9.75
388.969	-5.04
389.179	-5.69
389.388	-5.81
389.598	-4.07
389.807	-5.27
390.017	-5.04
390.227	-8.49
390.436	-8.44
390.646	-12.44
390.855	-7.08
391.065	-8.25
391.274	-4.47
391.484	-5.95
391.693	-5.86
391.903	-6.61
392.112	-6.32
392.322	-5.38
392.531	-5.11
392.74	-3.01
392.95	-2.84
393.159	-1.95
393.369	-1.7
393.578	-1.3
393.787	-1.09
393.997	0.69
394.206	-1.08
394.415	-0.16
394.625	-0.39
394.834	-1.21
395.043	-1.78
395.252	0.77
395.462	-0.57
395.671	-0.87
395.88	0.79
396.089	-0.07
396.298	-0.76
396.508	-0.42
396.717	-0.42
396.926	-0.63
397.135	0.3
397.344	0.01
397.553	0.22
397.762	2.01
397.971	1.35
398.181	1.69
398.39	1.93
398.599	2.19
398.808	1.87
399.017	2.68
399.226	2.81
399.435	2.73
399.644	2.47
399.853	2.13
400.062	2.08
400.27	1.3
400.479	1.57
400.688	1.65
400.897	1.37
401.106	1.12
401.315	1.53
401.524	1.51
401.733	1.37
401.941	1.57
402.15	1.66
402.359	1.56
402.568	1.54
402.777	1.96
402.985	1.83
403.194	1.55
403.403	1.72
403.612	1.72
403.82	1.25
404.029	1.29
404.238	1.51
404.446	1.54
404.655	1.63
404.864	1.78
405.072	1.82
405.281	1.85
405.489	1.67
405.698	1.67
405.906	1.69
406.115	1.65
406.324	1.6
406.532	1.85
406.741	1.84
406.949	1.97
407.158	2.15
407.366	2.07
407.574	1.92
407.783	1.92
407.991	1.74
408.2	1.79
408.408	1.9
408.617	1.88
408.825	1.71
409.033	1.74
409.242	1.63
409.45	1.67
409.658	1.61
409.867	1.76
410.075	1.85
410.283	1.69
410.491	1.49
410.7	1.51
410.908	1.42
411.116	1.5
411.324	1.65
411.533	1.66
411.741	1.73
411.949	1.79
412.157	1.54
412.365	1.58
412.573	1.74
412.781	1.56
412.99	1.54
413.198	1.67
413.406	1.73
413.614	1.73
413.822	1.93
414.03	1.86
414.238	1.84
414.446	1.82
414.654	1.65
414.862	1.52
415.07	1.54
415.278	1.61
415.486	1.41
415.694	1.54
415.902	1.56
416.109	1.51
416.317	1.49
416.525	1.55
416.733	1.49
416.941	1.55
417.149	1.58
417.357	1.57
417.564	1.55
417.772	1.62
417.98	1.49
418.188	1.36
418.395	1.15
418.603	1.08
418.811	1.01
419.019	1.16
419.226	1.31
419.434	1.39
419.642	1.26
419.849	1.17
420.057	1.19
420.265	1.15
420.472	1.26
420.68	1.55
420.887	1.71
421.095	1.64
421.302	1.78
421.51	1.7
421.717	1.69
421.925	1.74
422.132	1.72
422.34	1.49
422.547	1.46
422.755	1.53
422.962	1.47
423.17	1.39
423.377	1.62
423.585	1.65
423.792	1.5
423.999	1.48
424.207	1.39
424.414	1.27
424.621	1.37
424.829	1.47
425.036	1.53
425.243	1.76
425.451	1.7
425.658	1.62
425.865	1.58
426.072	1.54
426.28	1.62
426.487	1.6
426.694	1.53
426.901	1.53
427.108	1.42
427.315	1.28
427.523	1.33
427.73	1.3
427.937	1.21
428.144	1.28
428.351	1.22
428.558	1.31
428.765	1.31
428.972	1.34
429.179	1.22
429.386	1.45
429.593	1.29
429.8	1.36
430.007	1.42
430.214	1.53
430.421	1.51
430.628	1.57
430.835	1.53
431.042	1.4
431.249	1.33
431.456	1.16
431.662	1.27
431.869	1.46
432.076	1.52
432.283	1.62
432.49	1.59
432.697	1.55
432.903	1.35
433.11	1.45
433.317	1.48
433.524	1.62
433.73	1.51
433.937	1.68
434.144	1.46
434.35	1.47
434.557	1.45
434.764	1.56
434.97	1.28
435.177	1.57
435.384	1.63
435.59	1.59
435.797	1.64
436.003	1.78
436.21	1.59
436.416	1.5
436.623	1.57
436.829	1.52
437.036	1.54
437.242	1.62
437.449	1.58
437.655	1.49
437.862	1.49
438.068	1.48
438.275	1.53
438.481	1.61
438.687	1.65
438.894	1.73
439.1	1.68
439.307	1.71
439.513	1.78
439.719	1.82
439.926	1.89
440.132	2.01
440.338	2
440.544	1.88
440.751	1.81
440.957	1.68
441.163	1.58
441.369	1.59
441.575	1.57
441.782	1.71
441.988	1.89
442.194	1.91
442.4	1.89
442.606	2.08
442.812	2.03
443.018	1.92
443.224	2.14
443.431	2.11
443.637	1.97
443.843	2
444.049	1.99
444.255	1.87
444.461	1.85
444.667	1.85
444.873	1.81
445.079	1.77
445.284	1.86
445.49	1.81
445.696	1.75
445.902	1.76
446.108	1.76
446.314	1.68
446.52	1.87
446.726	1.99
446.931	1.98
447.137	2.05
447.343	2.14
447.549	2.2
447.755	2.14
447.96	2.17
448.166	2.22
448.372	2.1
448.578	1.98
448.783	2.04
448.989	2.04
449.195	1.92
449.4	1.96
449.606	1.95
449.812	1.89
450.017	1.94
450.223	1.97
450.428	2
450.634	2.03
450.84	2.01
451.045	1.97
451.251	2.07
451.456	2.14
451.662	2.18
451.867	2.33
452.073	2.32
452.278	2.3
452.483	2.22
452.689	2.18
452.894	2.12
453.1	2.09
453.305	2.09
453.51	2.12
453.716	2.06
453.921	2.08
454.127	2.13
454.332	2.07
454.537	2.07
454.742	2.05
454.948	2.08
455.153	2.07
455.358	2.17
455.563	2.21
455.769	2.24
455.974	2.22
456.179	2.24
456.384	2.12
456.589	2.11
456.795	2.16
457	2.12
457.205	2.07
457.41	2.1
457.615	2.07
457.82	2.12
458.025	2.19
458.23	2.17
458.435	2.2
458.64	2.2
458.845	2.16
459.05	2.09
459.255	2.13
459.46	2.15
459.665	2.15
459.87	2.12
460.075	2.21
460.28	2.24
460.485	2.27
460.69	2.23
460.895	2.29
461.099	2.14
461.304	2.03
461.509	2.08
461.714	2.17
461.919	2.15
462.123	2.22
462.328	2.23
462.533	2.08
462.738	2.07
462.942	2.04
463.147	2.08
463.352	2.16
463.556	2.34
463.761	2.32
463.966	2.35
464.17	2.34
464.375	2.4
464.58	2.18
464.784	2.17
464.989	2.2
465.193	2.21
465.398	2.22
465.602	2.42
465.807	2.45
466.011	2.45
466.216	2.43
466.42	2.46
466.625	2.53
466.829	2.53
467.034	2.59
467.238	2.74
467.443	2.74
467.647	2.64
467.851	2.67
468.056	2.69
468.26	2.66
468.464	2.72
468.669	2.8
468.873	2.83
469.077	2.78
469.282	2.77
469.486	2.74
469.69	2.74
469.894	2.77
470.099	2.79
470.303	2.81
470.507	2.82
470.711	2.72
470.915	2.8
471.119	2.86
471.324	2.92
471.528	2.93
471.732	3.01
471.936	2.96
472.14	2.9
472.344	2.96
472.548	2.97
472.752	2.98
472.956	3.03
473.16	3.06
473.364	2.97
473.568	2.92
473.772	2.9
473.976	2.94
474.18	2.98
474.384	2.98
474.588	3.03
474.792	3.01
474.995	2.92
475.199	2.93
475.403	2.97
475.607	3.03
475.811	3.07
476.015	3
476.218	2.95
476.422	2.98
476.626	2.91
476.83	3
477.033	3.17
477.237	3.2
477.441	3.2
477.644	3.22
477.848	3.17
478.052	3.13
478.255	3.17
478.459	3.11
478.663	3.27
478.866	3.3
479.07	3.26
479.273	3.3
479.477	3.35
479.681	3.28
479.884	3.31
480.088	3.36
480.291	3.29
480.495	3.28
480.698	3.31
480.901	3.31
481.105	3.29
481.308	3.34
481.512	3.32
481.715	3.3
481.919	3.33
482.122	3.36
482.325	3.38
482.529	3.45
482.732	3.48
482.935	3.35
483.138	3.4
483.342	3.44
483.545	3.5
483.748	3.56
483.952	3.66
484.155	3.69
484.358	3.61
484.561	3.6
484.764	3.56
484.967	3.6
485.171	3.54
485.374	3.58
485.577	3.53
485.78	3.55
485.983	3.49
486.186	3.49
486.389	3.53
486.592	3.52
486.795	3.52
486.998	3.5
487.201	3.52
487.404	3.64
487.607	3.62
487.81	3.5
488.013	3.59
488.216	3.61
488.419	3.47
488.622	3.45
488.825	3.55
489.028	3.48
489.231	3.46
489.433	3.49
489.636	3.53
489.839	3.57
490.042	3.59
490.245	3.58
490.447	3.58
490.65	3.63
490.853	3.6
491.056	3.58
491.258	3.62
491.461	3.58
491.664	3.48
491.866	3.42
492.069	3.45
492.272	3.38
492.474	3.45
492.677	3.54
492.879	3.52
493.082	3.51
493.285	3.61
493.487	3.59
493.69	3.62
493.892	3.63
494.095	3.68
494.297	3.65
494.5	3.64
494.702	3.65
494.905	3.69
495.107	3.71
495.309	3.72
495.512	3.73
495.714	3.73
495.917	3.77
496.119	3.78
496.321	3.75
496.524	3.66
496.726	3.62
496.928	3.55
497.13	3.44
497.333	3.44
497.535	3.57
497.737	3.57
497.939	3.63
498.142	3.7
498.344	3.76
498.546	3.71
498.748	3.77
498.95	3.79
499.152	3.82
499.355	3.82
499.557	3.87
499.759	3.91
499.961	3.89
500.163	3.9
500.365	3.95
500.567	3.91
500.769	3.86
500.971	3.92
501.173	3.91
501.375	3.93
501.577	4
501.779	4
501.981	3.98
502.183	3.98
502.385	3.97
502.587	3.93
502.788	3.98
502.99	4.01
503.192	4.07
503.394	4.08
503.596	4.1
503.798	4.08
503.999	4.1
504.201	4.05
504.403	4.05
504.605	4.12
504.806	4.15
505.008	4.1
505.21	4.08
505.411	4.11
505.613	4.08
505.815	4.13
506.016	4.23
506.218	4.34
506.42	4.29
506.621	4.32
506.823	4.24
507.024	4.24
507.226	4.26
507.427	4.37
507.629	4.39
507.83	4.5
508.032	4.51
508.233	4.48
508.435	4.49
508.636	4.59
508.838	4.58
509.039	4.59
509.24	4.66
509.442	4.68
509.643	4.58
509.845	4.54
510.046	4.56
510.247	4.66
510.448	4.65
510.65	4.68
510.851	4.73
511.052	4.71
511.254	4.64
511.455	4.63
511.656	4.63
511.857	4.64
512.058	4.72
512.26	4.69
512.461	4.73
512.662	4.76
512.863	4.72
513.064	4.66
513.265	4.68
513.466	4.68
513.667	4.7
513.868	4.7
514.069	4.69
514.27	4.76
514.471	4.76
514.672	4.81
514.873	4.91
515.074	4.96
515.275	4.91
515.476	4.94
515.677	4.91
515.878	4.92
516.079	4.95
516.28	5.01
516.481	5
516.682	5.05
516.882	4.99
517.083	4.96
517.284	4.99
517.485	4.97
517.686	4.99
517.886	4.99
518.087	5.04
518.288	5.03
518.488	5.03
518.689	4.99
518.89	5.05
519.091	5.1
519.291	5.02
519.492	5.11
519.692	5.13
519.893	5.13
520.094	5.07
520.294	5.13
520.495	5.04
520.695	5.06
520.896	5.11
521.096	5.14
521.297	5.15
521.497	5.19
521.698	5.18
521.898	5.17
522.099	5.18
522.299	5.19
522.499	5.17
522.7	5.22
522.9	5.23
523.101	5.26
523.301	5.27
523.501	5.29
523.702	5.32
523.902	5.31
524.102	5.36
524.302	5.39
524.503	5.43
524.703	5.42
524.903	5.4
525.103	5.31
525.304	5.33
525.504	5.35
525.704	5.33
525.904	5.37
526.104	5.42
526.304	5.46
526.504	5.46
526.705	5.49
526.905	5.53
527.105	5.53
527.305	5.55
527.505	5.52
527.705	5.47
527.905	5.54
528.105	5.56
528.305	5.58
528.505	5.62
528.705	5.72
528.905	5.65
529.105	5.67
529.304	5.65
529.504	5.74
529.704	5.71
529.904	5.74
530.104	5.77
530.304	5.75
530.503	5.7
530.703	5.71
530.903	5.69
531.103	5.69
531.303	5.73
531.502	5.81
531.702	5.86
531.902	5.92
532.101	5.96
532.301	5.99
532.501	6
532.7	5.96
532.9	5.98
533.1	5.98
533.299	5.98
533.499	5.88
533.698	5.87
533.898	5.89
534.097	5.93
534.297	5.92
534.496	6.03
534.696	6.12
534.895	6.13
535.095	6.12
535.294	6.16
535.494	6.15
535.693	6.13
535.892	6.15
536.092	6.13
536.291	6.18
536.491	6.23
536.69	6.28
536.889	6.25
537.088	6.27
537.288	6.22
537.487	6.22
537.686	6.17
537.886	6.24
538.085	6.29
538.284	6.38
538.483	6.38
538.682	6.41
538.882	6.39
539.081	6.47
539.28	6.46
539.479	6.5
539.678	6.57
539.877	6.67
540.076	6.62
540.275	6.71
540.474	6.73
540.673	6.73
540.872	6.73
541.071	6.78
541.27	6.79
541.469	6.8
541.668	6.86
541.867	6.94
542.066	6.98
542.265	7.01
542.464	7.05
542.663	7.08
542.862	7.09
543.06	7.16
543.259	7.22
543.458	7.26
543.657	7.33
543.856	7.39
544.054	7.37
544.253	7.39
544.452	7.46
544.651	7.47
544.849	7.46
545.048	7.56
545.247	7.62
545.445	7.62
545.644	7.63
545.843	7.68
546.041	7.66
546.24	7.62
546.438	7.7
546.637	7.81
546.836	7.87
547.034	7.96
547.233	8.08
547.431	8.15
547.63	8.17
547.828	8.21
548.027	8.21
548.225	8.23
548.423	8.25
548.622	8.32
548.82	8.33
549.019	8.38
549.217	8.44
549.415	8.45
549.614	8.53
549.812	8.63
550.01	8.64
550.209	8.72
550.407	8.83
550.605	8.75
550.803	8.81
551.002	8.93
551.2	8.91
551.398	8.97
551.596	9.17
551.794	9.22
551.993	9.27
552.191	9.42
552.389	9.49
552.587	9.54
552.785	9.57
552.983	9.68
553.181	9.74
553.379	9.78
553.577	9.84
553.775	9.96
553.973	10.05
554.171	10.14
554.369	10.25
554.567	10.33
554.765	10.4
554.963	10.45
555.161	10.5
555.359	10.53
555.557	10.64
555.755	10.73
555.952	10.85
556.15	10.93
556.348	11.09
556.546	11.25
556.744	11.32
556.941	11.3
557.139	11.37
557.337	11.43
557.535	11.39
557.732	11.48
557.93	11.73
558.128	11.84
558.325	11.92
558.523	12.02
558.721	12.19
558.918	12.22
559.116	12.37
559.313	12.49
559.511	12.67
559.708	12.73
559.906	12.77
560.104	12.82
560.301	12.91
560.498	12.93
560.696	13.04
560.893	13.2
561.091	13.32
561.288	13.44
561.486	13.54
561.683	13.63
561.88	13.74
562.078	13.85
562.275	13.99
562.473	14.15
562.67	14.25
562.867	14.35
563.064	14.45
563.262	14.5
563.459	14.66
563.656	14.8
563.853	14.79
564.051	14.93
564.248	15.07
564.445	15.08
564.642	15.17
564.839	15.39
565.036	15.52
565.234	15.59
565.431	15.69
565.628	15.74
565.825	15.8
566.022	15.89
566.219	15.98
566.416	16.12
566.613	16.25
566.81	16.4
567.007	16.4
567.204	16.47
567.401	16.53
567.598	16.67
567.795	16.69
567.991	16.78
568.188	16.85
568.385	16.82
568.582	16.87
568.779	16.96
568.976	17.11
569.172	17.25
569.369	17.44
569.566	17.54
569.763	17.57
569.96	17.61
570.156	17.63
570.353	17.68
570.55	17.72
570.746	17.9
570.943	17.99
571.14	18.03
571.336	18.05
571.533	18.07
571.729	18.13
571.926	18.26
572.123	18.37
572.319	18.53
572.516	18.58
572.712	18.58
572.909	18.49
573.105	18.48
573.302	18.52
573.498	18.58
573.695	18.7
573.891	18.81
574.087	18.9
574.284	18.99
574.48	18.99
574.677	18.87
574.873	18.89
575.069	18.98
575.266	18.98
575.462	19.05
575.658	19.22
575.854	19.23
576.051	19.23
576.247	19.18
576.443	19.23
576.639	19.12
576.835	19.12
577.032	19.13
577.228	19.21
577.424	19.27
577.62	19.38
577.816	19.47
578.012	19.48
578.208	19.45
578.404	19.44
578.6	19.52
578.796	19.56
578.993	19.57
579.189	19.65
579.384	19.61
579.58	19.51
579.776	19.45
579.972	19.51
580.168	19.44
580.364	19.5
580.56	19.47
580.756	19.42
580.952	19.36
581.148	19.38
581.343	19.35
581.539	19.49
581.735	19.54
581.931	19.5
582.127	19.49
582.322	19.47
582.518	19.36
582.714	19.4
582.909	19.39
583.105	19.37
583.301	19.43
583.496	19.39
583.692	19.29
583.888	19.36
584.083	19.32
584.279	19.21
584.474	19.23
584.67	19.28
584.866	19.26
585.061	19.3
585.257	19.37
585.452	19.35
585.648	19.27
585.843	19.2
586.039	19.23
586.234	19.26
586.429	19.25
586.625	19.39
586.82	19.5
587.015	19.47
587.211	19.41
587.406	19.38
587.601	19.33
587.797	19.31
587.992	19.33
588.187	19.31
588.383	19.42
588.578	19.45
588.773	19.52
588.968	19.63
589.163	19.72
589.359	19.68
589.554	19.62
589.749	19.64
589.944	19.59
590.139	19.6
590.334	19.75
590.529	19.84
590.724	19.88
590.919	19.99
591.114	20.08
591.309	20.11
591.504	20.14
591.699	20.11
591.894	20.01
592.089	19.99
592.284	20.01
592.479	20.08
592.674	20.1
592.869	20.2
593.064	20.29
593.259	20.32
593.454	20.44
593.648	20.54
593.843	20.6
594.038	20.68
594.233	20.7
594.428	20.68
594.622	20.82
594.817	20.92
595.012	20.92
595.206	21.06
595.401	21.19
595.596	21.25
595.79	21.3
595.985	21.39
596.18	21.45
596.374	21.58
596.569	21.57
596.763	21.7
596.958	21.77
597.153	21.87
597.347	21.83
597.542	21.96
597.736	22
597.931	22.11
598.125	22.22
598.319	22.32
598.514	22.37
598.708	22.43
598.903	22.6
599.097	22.66
599.291	22.69
599.486	22.79
599.68	22.88
599.874	22.89
600.069	22.96
600.263	23.15
600.457	23.27
600.651	23.37
600.846	23.43
601.04	23.44
601.234	23.34
601.428	23.35
601.622	23.4
601.817	23.48
602.011	23.59
602.205	23.69
602.399	23.71
602.593	23.71
602.787	23.69
602.981	23.58
603.175	23.64
603.369	23.58
603.563	23.6
603.757	23.58
603.951	23.67
604.145	23.63
604.339	23.67
604.533	23.6
604.727	23.64
604.921	23.61
605.115	23.63
605.309	23.59
605.502	23.68
605.696	23.59
605.89	23.64
606.084	23.51
606.278	23.49
606.471	23.4
606.665	23.39
606.859	23.34
607.053	23.33
607.246	23.26
607.44	23.18
607.634	23.14
607.827	23.08
608.021	23.05
608.214	23
608.408	22.92
608.602	22.81
608.795	22.79
608.989	22.78
609.182	22.77
609.376	22.75
609.569	22.66
609.763	22.55
609.956	22.44
610.15	22.29
610.343	22.17
610.537	22.12
610.73	21.98
610.923	21.91
611.117	21.92
611.31	21.84
611.504	21.81
611.697	21.81
611.89	21.74
612.083	21.52
612.277	21.57
612.47	21.42
612.663	21.3
612.856	21.19
613.05	21.18
613.243	21.01
613.436	21.07
613.629	20.97
613.822	20.95
614.015	20.85
614.209	20.85
614.402	20.73
614.595	20.7
614.788	20.59
614.981	20.53
615.174	20.4
615.367	20.25
615.56	20.12
615.753	20.1
615.946	20.06
616.139	20.05
616.332	20.02
616.525	19.96
616.718	19.87
616.911	19.83
617.103	19.81
617.296	19.76
617.489	19.63
617.682	19.65
617.875	19.56
618.067	19.48
618.26	19.41
618.453	19.47
618.646	19.39
618.838	19.39
619.031	19.27
619.224	19.18
619.417	19.14
619.609	19.05
619.802	18.96
619.994	18.96
620.187	18.96
620.38	18.91
620.572	18.91
620.765	18.87
620.957	18.77
621.15	18.77
621.342	18.71
621.535	18.69
621.727	18.64
621.92	18.73
622.112	18.72
622.305	18.74
622.497	18.7
622.69	18.64
622.882	18.58
623.074	18.57
623.267	18.52
623.459	18.41
623.651	18.45
623.844	18.51
624.036	18.51
624.228	18.45
624.42	18.44
624.613	18.47
624.805	18.39
624.997	18.34
625.189	18.36
625.381	18.33
625.574	18.25
625.766	18.15
625.958	18.12
626.15	18.12
626.342	18.18
626.534	18.13
626.726	18.16
626.918	18.08
627.11	17.99
627.302	17.93
627.494	17.92
627.686	17.85
627.878	17.83
628.07	17.84
628.262	17.84
628.454	17.81
628.646	17.83
628.838	17.89
629.029	17.81
629.221	17.78
629.413	17.83
629.605	17.73
629.797	17.62
629.989	17.65
630.18	17.67
630.372	17.61
630.564	17.59
630.755	17.55
630.947	17.51
631.139	17.36
631.33	17.29
631.522	17.21
631.714	17.24
631.905	17.19
632.097	17.2
632.289	17.16
632.48	17.22
632.672	17.13
632.863	17.04
633.055	17
633.246	17.06
633.438	17.08
633.629	17.15
633.821	17.16
634.012	17.13
634.203	17.03
634.395	16.98
634.586	16.91
634.777	16.91
634.969	16.95
635.16	16.92
635.351	16.85
635.543	16.77
635.734	16.74
635.925	16.63
636.117	16.69
636.308	16.79
636.499	16.85
636.69	16.94
636.881	16.94
637.073	16.93
637.264	16.86
637.455	16.83
637.646	16.79
637.837	16.86
638.028	16.78
638.219	16.76
638.41	16.84
638.601	16.76
638.792	16.76
638.983	16.78
639.174	16.72
639.365	16.71
639.556	16.65
639.747	16.6
639.938	16.62
640.129	16.69
640.32	16.66
640.511	16.7
640.701	16.68
640.892	16.59
641.083	16.46
641.274	16.32
641.465	16.37
641.655	16.36
641.846	16.42
642.037	16.38
642.228	16.36
642.418	16.27
642.609	16.18
642.8	16.19
642.99	16.27
643.181	16.31
643.372	16.29
643.562	16.34
643.753	16.29
643.943	16.15
644.134	16.02
644.324	16.06
644.515	15.98
644.705	15.85
644.896	15.92
645.086	16.03
645.277	15.96
645.467	16
645.658	15.93
645.848	15.88
646.038	15.77
646.229	15.76
646.419	15.64
646.61	15.77
646.8	15.79
646.99	15.83
647.18	15.78
647.371	15.79
647.561	15.67
647.751	15.64
647.941	15.58
648.132	15.57
648.322	15.58
648.512	15.61
648.702	15.59
648.892	15.67
649.082	15.64
649.272	15.54
649.462	15.53
649.653	15.47
649.843	15.33
650.033	15.37
650.223	15.41
650.413	15.45
650.603	15.54
650.793	15.59
650.983	15.46
651.172	15.38
651.362	15.22
651.552	15.04
651.742	14.95
651.932	14.99
652.122	14.95
652.312	14.88
652.502	14.8
652.691	14.74
652.881	14.65
653.071	14.59
653.261	14.52
653.45	14.47
653.64	14.4
653.83	14.28
654.019	14
654.209	13.91
654.399	13.81
654.588	13.62
654.778	13.46
654.968	13.52
655.157	13.32
655.347	13.03
655.536	13.03
655.726	12.81
655.915	12.63
656.105	12.53
656.294	12.5
656.484	12.23
656.673	12.17
656.863	12.07
657.052	11.89
657.241	11.74
657.431	11.65
657.62	11.5
657.809	11.23
657.999	11.06
658.188	10.93
658.377	10.74
658.567	10.57
658.756	10.51
658.945	10.48
659.134	10.26
659.324	10.1
659.513	9.92
659.702	9.71
659.891	9.54
660.08	9.46
660.269	9.28
660.458	9.08
660.648	8.98
660.837	8.75
661.026	8.49
661.215	8.45
661.404	8.37
661.593	8.25
661.782	8.11
661.971	7.96
662.16	7.78
662.349	7.63
662.538	7.43
662.726	7.35
662.915	7.33
663.104	7.17
663.293	7.08
663.482	7.01
663.671	6.91
663.86	6.76
664.048	6.71
664.237	6.62
664.426	6.56
664.615	6.4
664.803	6.28
664.992	6.13
665.181	6.06
665.369	5.92
665.558	5.89
665.747	5.95
665.935	6.07
666.124	6.04
666.312	6.04
666.501	5.99
666.69	5.9
666.878	5.7
667.067	5.55
667.255	5.4
667.444	5.48
667.632	5.49
667.82	5.48
668.009	5.54
668.197	5.58
668.386	5.48
668.574	5.38
668.762	5.27
668.951	5.26
669.139	5.21
669.327	5.14
669.516	5.14
669.704	5.12
669.892	5.17
670.08	5.26
670.269	5.28
670.457	5.26
670.645	5.33
670.833	5.23
671.021	5.24
671.21	5.29
671.398	5.31
671.586	5.37
671.774	5.48
671.962	5.45
672.15	5.39
672.338	5.43
672.526	5.49
672.714	5.5
672.902	5.54
673.09	5.69
673.278	5.87
673.466	5.93
673.654	5.94
673.842	6
674.03	6.05
674.218	5.99
674.405	5.91
674.593	5.96
674.781	6.08
674.969	6.18
675.157	6.26
675.344	6.33
675.532	6.42
675.72	6.4
675.908	6.33
676.095	6.28
676.283	6.5
676.471	6.54
676.658	6.62
676.846	6.76
677.033	6.93
677.221	6.92
677.409	6.99
677.596	7.02
677.784	7.08
677.971	7.09
678.159	7.12
678.346	7.11
678.534	7.26
678.721	7.33
678.909	7.37
679.096	7.49
679.283	7.68
679.471	7.81
679.658	7.91
679.846	8.03
680.033	8.21
680.22	8.44
680.408	8.37
680.595	8.47
680.782	8.65
680.969	8.83
681.157	8.79
681.344	8.96
681.531	9.1
681.718	9.16
681.905	9.27
682.093	9.35
682.28	9.53
682.467	9.83
682.654	10.02
682.841	10.17
683.028	10.28
683.215	10.58
683.402	10.66
683.589	10.88
683.776	10.92
683.963	11.24
684.15	11.28
684.337	11.43
684.524	11.71
684.711	12.05
684.898	12.29
685.085	12.6
685.271	12.9
685.458	13.14
685.645	13.41
685.832	13.81
686.019	14.15
686.205	14.49
686.392	14.93
686.579	15.37
686.766	15.73
686.952	16.05
687.139	16.53
687.326	16.75
687.512	17.03
687.699	17.47
687.886	17.95
688.072	18.25
688.259	18.69
688.445	19.26
688.632	19.76
688.818	20.24
689.005	20.82
689.191	21.42
689.378	21.93
689.564	22.41
689.751	23
689.937	23.63
690.124	24.31
690.31	24.76
690.496	25.38
690.683	26.18
690.869	26.72
691.055	27.25
691.242	27.85
691.428	28.49
691.614	28.94
691.8	29.7
691.987	30.57
692.173	31.49
692.359	32.34
692.545	33.22
692.731	33.98
692.918	34.46
693.104	35.15
693.29	35.78
693.476	36.58
693.662	37.14
693.848	37.95
694.034	38.76
694.22	39.52
694.406	39.98
694.592	40.98
694.778	41.67
694.964	42.43
695.15	43.06
695.336	43.93
695.522	44.54
695.708	45.31
695.894	45.82
696.08	46.65
696.265	47.54
696.451	48.17
696.637	49.13
696.823	50.18
697.009	50.95
697.194	51.58
697.38	52.66
697.566	52.95
697.751	53.67
697.937	54.36
698.123	55.16
698.308	55.55
698.494	56.49
698.68	57.13
698.865	57.74
699.051	58.21
699.236	58.76
699.422	59.44
699.607	60.04
699.793	60.67
699.978	61.01
700.164	61.53
700.349	62.05
700.535	62.06
700.72	62.57
700.906	63.5
701.091	64.05
701.276	64.44
701.462	65.17
701.647	65.33
701.832	65.72
702.018	66.37
702.203	66.93
702.388	67.51
702.573	68.57
702.759	68.93
702.944	69.04
703.129	69.02
703.314	69.35
703.499	69.21
703.684	69.63
703.87	70.17
704.055	71.1
704.24	71.44
704.425	71.77
704.61	71.74
704.795	72.13
704.98	72
705.165	72.42
705.35	72.9
705.535	73.67
705.72	73.82
705.905	74.42
706.09	74.84
706.275	75.18
706.459	75.39
706.644	75.82
706.829	75.95
707.014	76.2
707.199	76.6
707.384	76.66
707.568	76.9
707.753	77.34
707.938	77.6
708.123	77.93
708.307	78.36
708.492	78.71
708.677	78.87
708.861	78.8
709.046	78.31
709.231	78.21
709.415	78.16
709.6	78.26
709.784	78.4
709.969	79.14
710.153	79.19
710.338	79.85
710.522	80.06
710.707	80.41
710.891	80.51
711.076	80.83
711.26	80.69
711.445	80.81
711.629	80.57
711.813	80.68
711.998	81.11
712.182	81.13
712.366	81.48
712.551	82.09
712.735	82.49
712.919	82.6
713.103	82.7
713.288	82.58
713.472	82.43
713.656	81.99
713.84	82.14
714.024	82.13
714.208	82.4
714.393	82.51
714.577	83.26
714.761	83.65
714.945	83.82
715.129	83.84
715.313	84.34
715.497	84.2
715.681	83.84
715.865	83.98
716.049	84.17
716.233	84.07
716.417	84.08
716.601	84.35
716.785	84.16
716.968	84.21
717.152	83.9
717.336	83.87
717.52	84.03
717.704	84.5
717.888	84.52
718.071	84.82
718.255	85.14
718.439	85.26
718.622	85.36
718.806	85.23
718.99	85.41
719.174	85.07
719.357	85.04
719.541	85.07
719.724	84.99
719.908	84.96
720.092	85.01
720.275	84.79
720.459	84.72
720.642	85.09
720.826	85.38
721.009	85.61
721.193	85.56
721.376	85.9
721.559	86.05
721.743	86.15
721.926	86.12
722.11	86.64
722.293	87.04
722.476	86.71
722.66	87.2
722.843	87.51
723.026	87.72
723.21	87.32
723.393	87.94
723.576	87.88
723.759	87.96
723.942	87.62
724.126	87.59
724.309	87.21
724.492	86.85
724.675	86.34
724.858	86.7
725.041	86.89
725.224	87.68
725.407	87.41
725.59	87.74
725.774	87.56
725.957	88.31
726.14	87.72
726.322	88.08
726.505	88.45
726.688	88.77
726.871	87.85
727.054	87.97
727.237	88.06
727.42	87.84
727.603	88.16
727.786	88.77
727.968	88.39
728.151	88.55
728.334	89.03
728.517	88.95
728.699	88.69
728.882	88.75
729.065	88.44
729.248	88.27
729.43	88.15
729.613	88.31
729.796	89.58
729.978	89.5
730.161	89.71
730.343	89.54
730.526	89.83
730.708	88.79
730.891	89.75
731.073	89.15
731.256	89.41
731.438	89.46
731.621	90.71
731.803	90.2
731.986	91.33
732.168	91.6
732.35	91.7
732.533	90.88
732.715	91.16
732.898	90.33
733.08	90.23
733.262	89.94
733.444	90.78
733.627	90.94
733.809	91.86
733.991	92.45
734.173	92.2
734.355	91.44
734.538	91.4
734.72	91.38
734.902	91.1
735.084	91.31
735.266	92.14
735.448	92.77
735.63	92.54
735.812	92.12
735.994	92.31
736.176	92.09
736.358	92.22
736.54	92.76
736.722	92.74
736.904	92.29
737.086	91.74
737.268	92.34
737.45	92.26
737.632	92.77
737.814	94.34
737.995	95.04
738.177	94.28
738.359	94.08
738.541	94.05
738.723	93.27
738.904	93.52
739.086	93.77
739.268	93.36
739.449	92.68
739.631	92.73
739.813	91.82
739.994	90.79
740.176	91.73
740.358	92.37
740.539	92.25
740.721	92.82
740.902	93.9
741.084	93.54
741.265	93.1
741.447	93.27
741.628	93.03
741.81	92.62
741.991	92.95
742.172	92.96
742.354	93.11
742.535	93.07
742.717	92.2
742.898	91.22
743.079	92.45
743.261	91.5
743.442	90.98
743.623	91.3
743.804	91.61
743.986	91.32
744.167	91.38
744.348	91.36
744.529	91.96
744.71	91.63
744.891	91.2
745.073	92.18
745.254	92.8
745.435	92.59
745.616	92.86
745.797	92.92
745.978	92.19
746.159	91.72
746.34	92.14
746.521	92.58
746.702	93.03
746.883	93.12
747.064	93.82
747.245	93.45
747.426	93.74
747.606	92.32
747.787	93.78
747.968	93.68
748.149	94.06
748.33	93.02
748.51	93.08
748.691	91.68
748.872	92.98
749.053	92.18
749.233	91.65
749.414	92.72
749.595	93.5
749.775	92.21
749.956	91.48
750.137	92.63
750.317	91.22
750.498	90.44
750.678	90.76
750.859	91.88
751.04	91.26
751.22	91.75
751.4	92.58
751.581	93.42
751.761	93.18
751.942	94.27
752.122	93.78
752.303	93.07
752.483	91.15
752.663	91.31
752.844	90.2
753.024	91.08
753.204	91.58
753.385	92.08
753.565	91.48
753.745	91.45
753.925	90.47
754.106	91.21
754.286	90.57
754.466	90.91
754.646	91.36
754.826	94.33
755.006	92.47
755.187	93.97
755.367	92.82
755.547	93.3
755.727	90.26
755.907	90.18
756.087	88.75
756.267	88.46
756.447	88.97
756.627	89.81
756.807	91.18
756.987	91.43
757.167	93.37
757.346	92.71
757.526	94.04
757.706	92.49
757.886	91.68
758.066	92.1
758.246	90.77
758.425	88.29
758.605	89.24
758.785	91.1
758.965	89.93
759.144	89.77
759.324	91.79
759.504	92.32
759.683	90.12
759.863	90.37
760.043	91.52
760.222	90.05
760.402	88.54
760.581	90.82
760.761	90.88
760.94	90
761.12	90.44
761.299	92.5
761.479	91.71
761.658	91.64
761.838	93.24
762.017	92.26
762.197	88.5
762.376	88.78
762.555	87.74
762.735	86.92
762.914	88.14
763.093	89.98
763.273	88.88
763.452	88.71
763.631	88.4
763.81	88.3
763.99	87.81
764.169	88.33
764.348	87.22
764.527	86.39
764.706	84.89
764.885	86.74
765.064	86.41
765.243	87.91
765.423	88.93
765.602	90.65
765.781	87.42
765.96	87.2
766.139	87.05
766.318	86.46
766.497	86.44
766.676	87.94
766.854	87.42
767.033	89.19
767.212	89.99
767.391	89.89
767.57	92.14
767.749	93.64
767.928	89.69
768.106	88.31
768.285	87.94
768.464	86.47
768.643	85.09
768.821	86.96
769	88.16
769.179	87.48
769.357	86.82
769.536	86.54
769.715	85.45
769.893	85.75
770.072	84.83
770.25	85.05
770.429	85.38
770.607	88.24
770.786	86.57
770.964	87.68
771.143	87.49
771.321	86.85
771.5	86.32
771.678	86.02
771.857	84.48
772.035	85.29
772.213	84.68
772.392	82.1
772.57	81.71
772.748	81.23
772.927	80.44
773.105	81.66
773.283	84.4
773.461	87.2
773.64	88.42
773.818	89.55
773.996	91.14
774.174	90.66
774.352	89.01
774.531	89.88
774.709	87.88
774.887	84.8
775.065	83.58
775.243	83.74
775.421	81.8
775.599	84.21
775.777	86.24
775.955	85.18
776.133	86.08
776.311	86.66
776.489	84.37
776.667	83.38
776.844	84.7
777.022	82.18
777.2	83.61
777.378	81.99
777.556	83.25
777.734	84.34
777.911	86.68
778.089	88.05
778.267	89.85
778.445	91.37
778.622	90.96
778.8	85.53
778.978	83.63
779.155	84.59
779.333	82.27
779.511	79.52
779.688	82.45
779.866	82.2
780.043	82.06
780.221	80.58
780.398	82.49
780.576	83.22
780.753	82.2
780.931	81.64
781.108	84.51
781.286	84.05
781.463	82.86
781.64	83.15
781.818	84.62
781.995	84.47
782.172	84.2
782.35	83.64
782.527	83.96
782.704	82.04
782.882	78.71
783.059	78.39
783.236	79.76
783.413	80.26
783.59	80.06
783.768	82.14
783.945	82.03
784.122	80.27
784.299	82.45
784.476	81.1
784.653	79.41
784.83	78.44
785.007	79.8
785.184	76.42
785.361	77.93
785.538	77.89
785.715	80.63
785.892	80.37
786.069	80.83
786.246	79.74
786.423	77.72
786.6	77.95
786.776	77.04
786.953	74.92
787.13	75.59
787.307	78.76
787.484	74.73
787.66	73.8
787.837	73.92
788.014	75.52
788.191	74.58
788.367	74.75
788.544	75.82
788.721	78.76
788.897	77.49
789.074	77.67
789.25	78.72
789.427	78.4
789.603	76.49
789.78	75.45
789.956	75.61
790.133	74.54
790.309	76.89
790.486	77.74
790.662	77.27
790.839	77.61
791.015	80.85
791.192	79.66
791.368	78.47
791.544	83.1
791.721	80.22
791.897	78.7
792.073	75.87
792.249	74.19
792.426	71.82
792.602	75.96
792.778	76.77
792.954	80.08
793.13	81.59
793.307	78.26
793.483	74.26
793.659	72.82
793.835	76.08
794.011	79.23
794.187	83.92
794.363	87.29
794.539	89.73
794.715	88.69
794.891	87.03
795.067	82.54
795.243	80.16
795.419	79.49
795.595	80.55
795.771	80.06
795.947	80.97
796.122	77.42
796.298	74.35
796.474	79.48
796.65	80.18
796.826	79.8
797.001	80.89
797.177	78.94
797.353	69.36
797.529	70.37
797.704	69.99
797.88	70.07
798.056	72.25
798.231	73.63
798.407	73.99
798.582	72.97
798.758	75.82
798.934	80.43
799.109	79.66
799.285	73.13
799.46	74.35
799.636	72.56
799.811	72.27
799.986	66.63
800.162	64.91
800.337	65.14
800.513	69.75
800.688	60.72
800.863	73.71
801.039	82.07
801.214	82.22
801.389	77.96
801.565	79.26
801.74	73.62
801.915	71.48
802.09	67.66
802.265	71.77
802.441	76.63
802.616	72.91
802.791	75.72
802.966	74.59
803.141	74.43
803.316	70.58
803.491	70.46
803.666	69.51
803.841	72.54
804.016	66.86
804.191	68.86
804.366	71.64
804.541	74.69
804.716	73.35
804.891	75.63
805.066	78.19
805.241	78.68
805.416	72.44
805.591	72.6
805.765	72.89
805.94	66.84
806.115	64.16
806.29	68.87
806.464	65.53
806.639	67.51
806.814	67.82
806.989	69.49
807.163	68.57
807.338	68.79
807.512	64.33
807.687	66.43
807.862	65.93
808.036	64.63
808.211	70.33
808.385	66.44
808.56	62.87
808.734	60.46
808.909	61.08
809.083	62.69
809.258	65.79
809.432	75.06
809.606	82.26
809.781	83.37
809.955	85.5
810.13	74.94
810.304	69.68
810.478	64.66
810.652	61.32
810.827	57.35
811.001	63.27
811.175	65.04
811.349	73.44
811.524	77.75
811.698	76.81
811.872	81.55
812.046	78.6
812.22	71.41
812.394	67.58
812.568	69.69
812.742	58.49
812.916	67.82
813.09	63.67
813.264	59.54
813.438	60.94
813.612	64.14
813.786	56.49
813.96	65.94
814.134	67.32
814.308	66.28
814.482	68.19
814.656	61.83
814.83	52.8
815.003	64.98
815.177	59.36
815.351	67.99
815.525	79.14
815.698	80.74
815.872	66.36
816.046	70.36
816.219	67.62
816.393	60.63
816.567	59.49
816.74	69.35
816.914	68.86
817.088	66.57
817.261	65.91
817.435	69.57
817.608	61.62
817.782	57.55
817.955	54.42
818.129	61.98
818.302	62.71
818.475	77.55
818.649	71.47
818.822	66.5
818.996	75.61
819.169	83.04
819.342	68.45
819.516	80.99
819.689	91.16
819.862	81.75
820.035	76.28
820.209	75.57
820.382	66.94
820.555	56.96
820.728	48.93
820.901	37.89
821.075	32.4
821.248	34.24
821.421	32.37
821.594	35.31
821.767	38.83
821.94	39.5
822.113	48.06
822.286	57.57
822.459	66.41
822.632	67.58
822.805	72.42
822.978	67.13
823.151	57.79
823.324	39.71
823.496	35.44
823.669	41.1
823.842	52.63
824.015	58.92
824.188	57.99
824.361	62.67
824.533	54.12
824.706	45.71
824.879	43.83
825.051	66.93
825.224	63.36
825.397	63.99
825.569	64.39
825.742	68.02
825.915	62.47
826.087	61.57
826.26	56.89
826.432	48.83
826.605	43.24
826.777	40.01
826.95	43.66
827.122	33.43
827.295	35.36
827.467	43.13
827.64	27.81
827.812	16.74
827.984	15.55
828.157	26.14
828.329	35.18
828.501	40.12
828.674	41.24
828.846	52.85
829.018	53.84
829.19	48.83
829.363	51.21
829.535	54.01
829.707	55.55
829.879	42.11
830.051	39.75
830.223	40.11
830.395	36.26
830.568	40.09
830.74	48.37
830.912	45.16
831.084	46.34
831.256	47.45
831.428	47.99
831.6	38.63
831.772	32.82
831.943	22.22
832.115	30.06
832.287	29.21
832.459	37.4
832.631	47.8
832.803	57.29
832.975	53.8
833.146	45.88
833.318	41.41
833.49	41.12
833.662	47.69
833.833	52.91
834.005	56.1
834.177	63.28
834.348	64.36
834.52	57.12
834.692	49.73
834.863	49.84
835.035	49.69
835.206	40.53
835.378	37.52
835.549	45.11
835.721	46.13
835.892	46.03
836.064	48.69
836.235	47.51
836.407	36.95
836.578	37.35
836.749	19.54
836.921	13.92
837.092	5.13
837.264	13.76
837.435	-6.84
837.606	12.62
837.777	13.44
837.949	30.92
838.12	31.58
838.291	32.23
838.462	36.76
838.633	40.06
838.805	23.73
838.976	16.99
839.147	37.39
839.318	49.69
839.489	48.38
839.66	62.44
839.831	69.02
840.002	59.77
840.173	53.24
840.344	55.31
840.515	38.86
840.686	38.07
840.857	45.28
841.028	44.05
841.199	46.01
841.369	70.23
841.54	71.7
841.711	83.08
841.882	79.62
842.053	72.44
842.223	48.36
842.394	45.61
842.565	23.37
842.736	28.51
842.906	16.06
843.077	35.23
843.248	35.84
843.418	43.24
843.589	40.17
843.759	68.1
843.93	58.04
844.101	60.37
844.271	91.13
844.442	70.34
844.612	49.26
844.783	42.65
844.953	50.92
845.123	32.97
845.294	36.6
845.464	15.29
845.635	9.89
845.805	-32.11
845.975	-9.59
846.146	-14.27
846.316	6.5
846.486	33.69
846.656	33.17
846.827	37.17
846.997	44.19
847.167	32.32
847.337	21.03
847.507	34.18
847.677	20.59
847.848	29.09
848.018	34.6
848.188	36.37
848.358	15.8
848.528	32.04
848.698	6.53
848.868	14.21
849.038	7.53
849.208	27.57
849.378	36.94
849.548	42.46
849.718	33.32
849.887	39.05
850.057	22.09
850.227	18.08
850.397	33.85
850.567	25.62
850.737	40.82
850.906	14.08
851.076	-4.39
851.246	-22.25
851.415	-40.09
851.585	-47.94
851.755	11.46
851.924	11.17
852.094	23.71
852.264	35.45
852.433	26.86
852.603	2.86
852.772	44.73
852.942	70.62
853.111	64.42
853.281	57.72
853.45	47.5
853.62	29.26
853.789	17.11
853.959	16.66
854.128	32.1
854.297	50.16
854.467	49.88
854.636	40.7
854.805	36.12
854.975	17
855.144	12.24
855.313	-0.53
855.482	-11.55
855.652	-4.34
855.821	-5.26
855.99	-23.06
856.159	-2.3
856.328	2.11
856.497	10.03
856.667	26.92
856.836	35
857.005	22.05
857.174	32.28
857.343	21.05
857.512	13.11
857.681	10.6
857.85	-12.4
858.019	-73.8
858.188	-55.1
858.356	-8.83
858.525	-0.81
858.694	36.18
858.863	50.57
859.032	48.07
859.201	13.96
859.369	39.08
859.538	24.53
859.707	23.76
859.876	47.44
860.044	66.93
860.213	54.13
860.382	54.01
860.55	41.07
860.719	37.21
860.888	28.01
861.056	18.07
861.225	-15.48
861.393	-3.48
861.562	-14.41
861.73	-25.25
861.899	-12.29
862.067	-10.15
862.236	-13.67
862.404	-22.84
862.572	-5.74
862.741	-10.41
862.909	16.54
863.078	38.79
863.246	48.24
863.414	64.25
863.582	52.54
863.751	44.43
863.919	35.08
864.087	44.6
864.255	27.07
864.424	14.19
864.592	44.25
864.76	26.78
864.928	37.71
865.096	30.49
865.264	42.53
865.432	37.26
865.6	56.29
865.768	14.57
865.936	28.52
866.104	36.64
866.272	30.29
866.44	53.84
866.608	56.97
866.776	46.98
866.944	87.37
867.112	63.85
867.28	50.17
867.448	38.69
867.615	44.64
867.783	-3.28
867.951	12.43
868.119	1.63
868.286	-8.29
868.454	-11.97
868.622	0.37
868.789	-24.97
868.957	2.76
869.125	22.49
869.292	-15.18
869.46	24.77
869.627	21.32
869.795	-31.35
869.963	-38.92
870.13	-31.52
870.298	-66.92
870.465	-52.55
870.632	-64.17
870.8	-30.93
870.967	-5.4
871.135	-15.04
871.302	3.43
871.469	25.09
871.637	1.96
871.804	52.9
871.971	39.62
872.139	48.43
872.306	11.2
872.473	-5.32
872.64	-146.52
872.807	-189.34
872.975	-416.89
873.142	-61.93
873.309	-36.75
873.476	21.4
873.643	69.57
873.81	48.95
873.977	20.05
874.144	49.91
874.311	-83.29
874.478	-77.92
874.645	-91.72
874.812	17.66
874.979	-12.33
875.146	61.52
875.313	3.75
875.48	51.94
875.647	6.69
875.813	-33.61
875.98	-31.39
876.147	-49
876.314	-30.57
876.481	32.23
876.647	55.82
876.814	57.14
876.981	66.65
877.147	56.16
877.314	43.78
877.481	46.08
877.647	42.1
877.814	38.04
877.98	72.79
878.147	72.3
878.314	73.28
878.48	96.42
878.647	93.04
878.813	65.17
878.979	54.78
879.146	60.9
879.312	54.55
879.479	24.83
879.645	45.41
879.811	26.66
879.978	25.29
880.144	28.27
880.31	32.26
880.477	34.71
880.643	31
880.809	-24.8
880.975	-72.43
881.142	-168.77
881.308	656.8
881.474	757.17
881.64	-78.26
881.806	-86.78
881.972	15.98
882.138	33.42
882.304	36.54
882.47	9.07
882.636	-23.2
882.802	-29.59
882.968	-22.68
883.134	-16.96
883.3	-14.1
883.466	24.16
883.632	33.74
883.798	75.02
883.964	28.75
884.129	132.75
884.295	55.9
884.461	-69.42
884.627	-27.88
884.793	-18.85
884.958	-16.57
885.124	-30.08
885.29	-40.28
885.455	-117.88
885.621	-115.63
885.787	-40.95
885.952	-52.98
886.118	11.65
886.283	9.14
886.449	18.48
886.614	15.5
886.78	16.51
886.945	-15.87
887.111	-14.15
887.276	-48.32
887.442	-161.73
887.607	-93.59
887.773	-32.47
887.938	-36.43
888.103	15.33
888.269	62.63
888.434	39.88
888.599	20.71
888.764	44.57
888.93	34.66
889.095	8.28
889.26	0.84
889.425	8.6
889.59	-31.62
889.756	-29.56
889.921	-21.34
890.086	-9.35
890.251	47.06
890.416	17.2
890.581	5.55
890.746	30.84
890.911	23.31
891.076	10.57
891.241	29.17
891.406	22.25
891.571	15.83
891.736	-7.24
891.901	49.9
892.065	21.14
892.23	33.18
892.395	21.41
892.56	4.05
892.725	-19.88
892.889	-142.82
893.054	-82.88
893.219	-75.82
893.384	-34.6
893.548	-74.9
893.713	-50.94
893.878	-63.94
