Data from Ofra_1a_PS_8HS21_Reflection_2.txt Node
Date: Tue Jul 20 11:01:57 EDT 2021
User: Adam
Spectrometer: FLMT01687
Trigger mode: 0
Integration Time (sec): 1.004000E0
Scans to average: 2
Electric dark correction enabled: true
Nonlinearity correction enabled: false
Boxcar width: 2
XAxis mode: Wavelengths
Number of Pixels in Spectrum: 3648
>>>>>Begin Spectral Data<<<<<
179.494	-132.49
179.716	-93.89
179.937	283.95
180.158	261.78
180.38	-8.49
180.601	-9.43
180.823	-44.39
181.044	-105.96
181.265	171.12
181.486	32.37
181.708	77.96
181.929	3790.91
182.15	-6.35
182.372	-397.54
182.593	209.75
182.814	-191
183.035	0.14
183.257	5.19
183.478	-5.01
183.699	18.89
183.92	-15.66
184.141	-15.1
184.363	-14.55
184.584	-12.22
184.805	6.27
185.026	37.68
185.247	36.33
185.468	17.36
185.689	18.24
185.91	-25.46
186.132	-21.61
186.353	-27.84
186.574	-20.52
186.795	-16.01
187.016	-3.23
187.237	-10.94
187.458	-4.69
187.679	-12.26
187.9	21.45
188.121	48.37
188.342	53.05
188.563	72.87
188.784	81.88
189.005	44.51
189.226	34.91
189.447	26.88
189.667	15.44
189.888	2.7
190.109	1.1
190.33	8.06
190.551	5.13
190.772	17.68
190.993	0.08
191.214	-7.38
191.434	-4.46
191.655	-16.39
191.876	-8.44
192.097	17.9
192.318	43.15
192.538	4.93
192.759	16.8
192.98	29.14
193.201	39.07
193.421	26.35
193.642	45.9
193.863	61.75
194.083	41.4
194.304	48.71
194.525	50.94
194.745	29.29
194.966	12.2
195.187	24.17
195.407	-4.55
195.628	-3.71
195.848	-2.55
196.069	-20.96
196.29	-26.53
196.51	-13.77
196.731	-40.35
196.951	-49.23
197.172	-23.83
197.392	-39.1
197.613	-14.11
197.833	1.93
198.054	23.08
198.274	25.98
198.495	43.4
198.715	54.21
198.936	59.61
199.156	37.39
199.377	40.32
199.597	31.65
199.817	35.42
200.038	22.35
200.258	40.53
200.479	43.92
200.699	48.86
200.919	21.97
201.14	16.82
201.36	14.31
201.58	-26.99
201.801	-23.74
202.021	-40.61
202.241	-30.9
202.461	-25.93
202.682	36.07
202.902	30.03
203.122	65.43
203.342	72.63
203.563	54.29
203.783	18.21
204.003	15.21
204.223	-0.34
204.443	1.26
204.663	9.57
204.884	24.33
205.104	4.98
205.324	3.87
205.544	0.48
205.764	22.79
205.984	20.11
206.204	33.12
206.424	12.11
206.644	-17.06
206.864	-45.32
207.084	-4.03
207.304	-16.28
207.525	12.5
207.745	19.03
207.964	28.82
208.184	25.39
208.404	25.56
208.624	16.83
208.844	13.95
209.064	8.28
209.284	0.62
209.504	-12.61
209.724	-15.17
209.944	-28.92
210.164	-29.66
210.384	-41.68
210.604	-88.55
210.823	-128.16
211.043	-97.92
211.263	-237.46
211.483	-141.8
211.703	-93.52
211.922	-70.23
212.142	-29.62
212.362	24.32
212.582	28.74
212.801	49.91
213.021	33.21
213.241	20.95
213.461	15.48
213.68	12.81
213.9	7.49
214.12	3.71
214.339	3.15
214.559	1.29
214.779	-13.55
214.998	-7.44
215.218	-1.65
215.438	2.08
215.657	-21.71
215.877	-26.69
216.096	-9.87
216.316	-13.2
216.535	-12.72
216.755	-1.21
216.974	-7.3
217.194	-35.56
217.413	-34.43
217.633	-53.2
217.852	-36.26
218.072	-15.6
218.291	-2.83
218.511	-3.22
218.73	-4.43
218.95	-45.92
219.169	-60.21
219.389	-38.68
219.608	-27.68
219.827	-8.94
220.047	30.04
220.266	14.69
220.485	-12.19
220.705	-17.04
220.924	-63.73
221.143	-39.24
221.363	-5.63
221.582	-12.95
221.801	12.69
222.021	30.23
222.24	24.72
222.459	46.71
222.678	59.17
222.897	59.3
223.117	58.36
223.336	71.65
223.555	63.9
223.774	65.5
223.993	49.06
224.213	71.93
224.432	67.5
224.651	56.12
224.87	52.25
225.089	51.69
225.308	42.28
225.527	16.5
225.746	15.32
225.965	-2.61
226.184	3.43
226.404	-6.29
226.623	16.41
226.842	11.58
227.061	24.16
227.28	27.83
227.499	35.98
227.718	39.86
227.936	40.4
228.155	41.97
228.374	29.89
228.593	23.08
228.812	7.54
229.031	15.93
229.25	5.71
229.469	15.3
229.688	15.2
229.907	27
230.125	21.57
230.344	29.15
230.563	25.81
230.782	23.3
231.001	17.23
231.22	18.17
231.438	15.81
231.657	16.01
231.876	21.34
232.095	24.27
232.313	27.48
232.532	30.16
232.751	21.2
232.969	19.93
233.188	16.71
233.407	16.62
233.625	11.43
233.844	28.61
234.063	27.77
234.281	19.3
234.5	17.57
234.719	12.6
234.937	-8.02
235.156	-12.31
235.374	18.88
235.593	23.88
235.811	52.06
236.03	47.84
236.249	56.46
236.467	38.55
236.686	31.61
236.904	15.37
237.123	2.6
237.341	-22.87
237.559	-20.45
237.778	1.67
237.996	-20.62
238.215	-30.78
238.433	-18.74
238.652	24.45
238.87	25.49
239.088	44.51
239.307	49.13
239.525	44.8
239.743	18.32
239.962	-5.35
240.18	-4.28
240.398	-16.39
240.617	-33.66
240.835	-27.8
241.053	-4.06
241.271	-3.65
241.49	12.89
241.708	7.76
241.926	-0.33
242.144	-0.42
242.363	-5.68
242.581	-63.88
242.799	-45.37
243.017	-32.79
243.235	-20.07
243.453	-25.06
243.672	-4.84
243.89	-0.94
244.108	25.32
244.326	34.91
244.544	44.93
244.762	36.74
244.98	45.36
245.198	30.36
245.416	17.12
245.634	9.16
245.852	3.73
246.07	8.98
246.288	19.45
246.506	14.72
246.724	19.12
246.942	26.72
247.16	21.92
247.378	-5.09
247.596	18.53
247.814	-0.98
248.032	-7.01
248.25	16.43
248.468	45.69
248.685	43.37
248.903	42.75
249.121	48.2
249.339	47.18
249.557	34.04
249.775	36.28
249.992	31.62
250.21	24.33
250.428	33.52
250.646	28.54
250.863	13.67
251.081	30.38
251.299	40.71
251.517	11.71
251.734	25.52
251.952	25.93
252.17	13.73
252.387	-4.12
252.605	11.5
252.823	7.36
253.04	32.74
253.258	34.9
253.475	42.5
253.693	26.63
253.911	22.91
254.128	17.01
254.346	24.6
254.563	26.22
254.781	33.5
254.998	37.34
255.216	23.5
255.433	-12.2
255.651	-7.96
255.868	8.93
256.086	-2.59
256.303	13.49
256.521	29.62
256.738	21.86
256.956	18.06
257.173	30.73
257.39	27.31
257.608	15.82
257.825	12.02
258.043	15.68
258.26	16.49
258.477	20.23
258.695	21.62
258.912	16.96
259.129	5.69
259.346	-13.49
259.564	-20.72
259.781	-22.91
259.998	23.35
260.216	31.42
260.433	30.05
260.65	27.54
260.867	25.52
261.084	6.97
261.302	2.38
261.519	7.23
261.736	16.07
261.953	31.14
262.17	40.1
262.387	24.12
262.604	26.2
262.822	32.35
263.039	34.95
263.256	31.83
263.473	42.22
263.69	36.74
263.907	35.82
264.124	35.12
264.341	25.77
264.558	17.89
264.775	25.85
264.992	17.44
265.209	10.56
265.426	9.71
265.643	18.67
265.86	6.78
266.077	8.44
266.294	16.95
266.51	41.52
266.727	35.45
266.944	40
267.161	36.43
267.378	40.16
267.595	22.65
267.812	3.73
268.028	-10.78
268.245	-0.4
268.462	3.78
268.679	21.43
268.896	54.18
269.112	34.87
269.329	-1.16
269.546	-8.4
269.763	-23.08
269.979	-32.51
270.196	-15.05
270.413	1.13
270.629	-5.34
270.846	2.08
271.063	-2.19
271.279	3.59
271.496	-0.77
271.712	2.99
271.929	9.97
272.146	18.73
272.362	13.6
272.579	19.94
272.795	20.16
273.012	24.01
273.228	5.53
273.445	9.49
273.661	8.45
273.878	-9.61
274.094	-23.05
274.311	-2.12
274.527	-0.93
274.744	7.66
274.96	20.64
275.177	28.16
275.393	38.18
275.609	42.76
275.826	37.24
276.042	26.59
276.259	24.21
276.475	4.22
276.691	-14.17
276.908	-8.94
277.124	13.17
277.34	29.25
277.557	29.92
277.773	44.66
277.989	41.59
278.205	29.59
278.422	9.36
278.638	3.52
278.854	-3.28
279.07	-4.84
279.286	-16.26
279.503	-6.19
279.719	10.01
279.935	5.06
280.151	3.56
280.367	26.76
280.583	21.91
280.799	10.34
281.016	2.66
281.232	-1.18
281.448	-9.15
281.664	-11.9
281.88	-8.83
282.096	-1.13
282.312	-1.58
282.528	-2.83
282.744	10.83
282.96	7
283.176	9.57
283.392	11.69
283.608	0.08
283.824	-45.36
284.04	-106.74
284.256	-46.57
284.471	-16
284.687	-8.4
284.903	3.14
285.119	30.7
285.335	34.15
285.551	39.88
285.767	34.12
285.982	32.45
286.198	-9.5
286.414	3.36
286.63	-9.24
286.846	8.56
287.061	27.15
287.277	56.33
287.493	33.39
287.709	39.75
287.924	46.1
288.14	43.85
288.356	36.27
288.571	24.56
288.787	5.5
289.003	0.39
289.218	-22.87
289.434	-30.76
289.65	4.52
289.865	16.87
290.081	13.2
290.296	24.51
290.512	31.13
290.727	23.04
290.943	20.93
291.159	29
291.374	16.14
291.59	10.25
291.805	-6.04
292.021	-10.08
292.236	-23.84
292.451	-8.11
292.667	4.44
292.882	22.4
293.098	24.95
293.313	14.01
293.529	19.73
293.744	13.96
293.959	20.91
294.175	23.7
294.39	6.42
294.605	12.69
294.821	16.14
295.036	10.51
295.251	4.71
295.467	16.72
295.682	13.14
295.897	0.2
296.112	-20.99
296.328	-2.35
296.543	-11.11
296.758	-15.05
296.973	-3.61
297.188	8.7
297.404	-7.05
297.619	-5.71
297.834	-24.33
298.049	1.37
298.264	-3.9
298.479	0.79
298.694	39.49
298.909	54.85
299.125	36.93
299.34	45.47
299.555	49.03
299.77	32.55
299.985	11.29
300.2	20.85
300.415	26.7
300.63	26.76
300.845	28.15
301.06	36.2
301.275	41.7
301.49	31.14
301.704	19.15
301.919	11.13
302.134	13.77
302.349	26.3
302.564	25.44
302.779	15.07
302.994	37.07
303.209	47.12
303.423	24.32
303.638	28.29
303.853	53.29
304.068	21.19
304.283	8.97
304.497	11.53
304.712	17.64
304.927	11.7
305.142	18.59
305.356	28.64
305.571	29.44
305.786	29.58
306	40.33
306.215	33.05
306.43	17.16
306.644	3.54
306.859	-22.85
307.074	-25.31
307.288	-6.74
307.503	12.6
307.717	15.58
307.932	26.3
308.147	27.72
308.361	30.19
308.576	13.7
308.79	6.68
309.005	-8.78
309.219	-3.05
309.434	-9.65
309.648	-2.3
309.863	7.33
310.077	20.48
310.292	13.96
310.506	-4.12
310.72	-13.56
310.935	-22.53
311.149	-12.76
311.364	4.79
311.578	19.53
311.792	18.98
312.007	48.12
312.221	21.6
312.435	-15.17
312.649	-15.51
312.864	-4.24
313.078	-14.93
313.292	-5.13
313.507	10.82
313.721	15.17
313.935	22.86
314.149	30.98
314.363	24.29
314.578	19.93
314.792	9.49
315.006	-14.83
315.22	-6.94
315.434	3.53
315.648	-20.46
315.862	-10.13
316.077	-8.17
316.291	-16.15
316.505	-45.45
316.719	-9.23
316.933	-20.62
317.147	-4.53
317.361	-6.22
317.575	8.15
317.789	11.47
318.003	24.22
318.217	10.68
318.431	-2.81
318.645	-1.77
318.859	-7.49
319.073	0.57
319.287	7.89
319.5	17.07
319.714	9.33
319.928	6.74
320.142	-2.75
320.356	3.52
320.57	5.92
320.784	0.21
320.997	-11.13
321.211	9.64
321.425	-18.51
321.639	-11.28
321.853	-2.36
322.066	-7.38
322.28	-39.99
322.494	-14.02
322.707	-17.55
322.921	-24.46
323.135	-3.54
323.349	6.71
323.562	8.59
323.776	11.38
323.989	28.49
324.203	18.11
324.417	27.81
324.63	30.43
324.844	16.65
325.057	-6.15
325.271	-8.97
325.485	-14.17
325.698	-11.88
325.912	7.38
326.125	12.02
326.339	20.87
326.552	11.36
326.766	-1.68
326.979	4.47
327.193	12.98
327.406	8.74
327.619	21.62
327.833	35.57
328.046	22.85
328.26	14.1
328.473	23.02
328.686	14.3
328.9	24.81
329.113	22.21
329.326	22.65
329.54	29.2
329.753	34.91
329.966	22.22
330.179	15.15
330.393	13.3
330.606	0.68
330.819	-19.81
331.032	-10.51
331.246	6.19
331.459	26.74
331.672	32.87
331.885	32.68
332.098	30.51
332.311	22.52
332.525	20.74
332.738	10.32
332.951	8.57
333.164	4.66
333.377	10.54
333.59	-6.58
333.803	4.28
334.016	8.73
334.229	10.47
334.442	4.43
334.655	9.37
334.868	9.92
335.081	11.57
335.294	4.11
335.507	7.85
335.72	17.49
335.933	5.2
336.146	15.73
336.359	21.85
336.572	26.97
336.785	12.54
336.997	19.59
337.21	16.21
337.423	6.8
337.636	10.5
337.849	3.69
338.062	12.92
338.274	24.22
338.487	16.2
338.7	-4.33
338.913	11.16
339.125	1.77
339.338	-16.3
339.551	-7.34
339.763	5.56
339.976	12.37
340.189	4.44
340.402	28.89
340.614	40.77
340.827	40.55
341.039	28.07
341.252	40.94
341.465	22.45
341.677	5.32
341.89	-10.79
342.102	-0.74
342.315	-1.25
342.527	9.53
342.74	11.88
342.952	14.39
343.165	24.31
343.377	12.4
343.59	16.12
343.802	16.63
344.015	27.26
344.227	19.79
344.44	14.15
344.652	9.32
344.864	25.4
345.077	39.51
345.289	36.01
345.502	44.38
345.714	47.4
345.926	50.48
346.139	26.9
346.351	24.15
346.563	36.05
346.775	15.79
346.988	6.55
347.2	14.49
347.412	14.78
347.624	11.98
347.837	29.73
348.049	27.27
348.261	14.03
348.473	3.79
348.685	-1.43
348.897	-30.38
349.11	-22.73
349.322	-3.35
349.534	-0.61
349.746	1.12
349.958	7.22
350.17	-13.48
350.382	-13.37
350.594	1.4
350.806	18.05
351.018	25.85
351.23	36.85
351.442	39.39
351.654	37.41
351.866	23.54
352.078	26.81
352.29	23.65
352.502	5.33
352.714	-8.87
352.926	-5.98
353.138	0.64
353.35	-4.43
353.561	5.72
353.773	11.66
353.985	24.46
354.197	9.36
354.409	17.8
354.621	10.89
354.832	8.84
355.044	-14.17
355.256	-9.86
355.468	-20.52
355.679	-2.34
355.891	15.81
356.103	11.17
356.314	15.77
356.526	0.91
356.738	-4.21
356.949	-17.74
357.161	15.23
357.373	17.05
357.584	29.77
357.796	35.99
358.008	37.44
358.219	19.83
358.431	10.91
358.642	17.77
358.854	10.54
359.065	-5.52
359.277	-3.42
359.488	-3.12
359.7	-10.05
359.911	-9.99
360.123	8.87
360.334	8.87
360.546	4.52
360.757	3.45
360.969	-5.13
361.18	-5.86
361.391	2.23
361.603	6.13
361.814	15.85
362.025	29.72
362.237	19.19
362.448	27.98
362.659	18.49
362.871	5.77
363.082	-5.81
363.293	-9.52
363.504	-34.79
363.716	-24.21
363.927	-0.85
364.138	-9.52
364.349	-10.37
364.56	-9.64
364.772	12.52
364.983	20.88
365.194	22.08
365.405	32.42
365.616	34.61
365.827	22.65
366.038	12.01
366.25	15.49
366.461	13.13
366.672	7.6
366.883	2.43
367.094	-13.02
367.305	-22.2
367.516	-12.82
367.727	-17.89
367.938	-5.12
368.149	-1.77
368.36	8.32
368.571	-5.14
368.781	2.42
368.992	-23.54
369.203	-22.6
369.414	-37.57
369.625	-32.64
369.836	-8.14
370.047	8.2
370.258	25.74
370.468	34.7
370.679	24.68
370.89	3.51
371.101	4.23
371.312	-5.09
371.522	-2.54
371.733	-1.78
371.944	-9.37
372.155	0.51
372.365	6.39
372.576	-4.71
372.787	1.74
372.997	8.15
373.208	-0.82
373.419	-8.94
373.629	-6.57
373.84	-6.21
374.05	-8.55
374.261	-21.09
374.472	-11.22
374.682	0.8
374.893	-8.32
375.103	3.38
375.314	17.19
375.524	3.42
375.735	13.2
375.945	23.7
376.156	25.43
376.366	23.17
376.577	29.78
376.787	10.79
376.997	8.59
377.208	8.66
377.418	4.95
377.629	4.81
377.839	21.27
378.049	22.92
378.26	15.33
378.47	8.55
378.68	6.37
378.89	-1.74
379.101	0.78
379.311	7.28
379.521	12.83
379.732	26.64
379.942	18.58
380.152	10.73
380.362	11.22
380.572	20.31
380.783	14.61
380.993	15.71
381.203	15.97
381.413	17.1
381.623	14.76
381.833	22.35
382.043	23.16
382.253	21.22
382.463	22.81
382.674	21.2
382.884	20.84
383.094	20.17
383.304	25.99
383.514	21.44
383.724	23.61
383.934	13.38
384.144	19.7
384.353	14.04
384.563	18.41
384.773	19.66
384.983	15.03
385.193	6.47
385.403	11.15
385.613	10.87
385.823	9.6
386.033	15.65
386.242	16.95
386.452	13.27
386.662	5.15
386.872	5.05
387.082	-5.15
387.291	-9.21
387.501	-6.73
387.711	-1.24
387.921	-2.69
388.13	6.12
388.34	11.86
388.55	7.05
388.759	1.06
388.969	-1.09
389.179	-4.67
389.388	-4.09
389.598	-7.04
389.807	-7.23
390.017	-5.26
390.227	-7.26
390.436	-7.73
390.646	-1.44
390.855	2.85
391.065	1.42
391.274	5.02
391.484	2.46
391.693	-1.22
391.903	-3.2
392.112	-2.53
392.322	-5.46
392.531	-4.62
392.74	-4.43
392.95	-2.13
393.159	-0.9
393.369	0.41
393.578	-0.11
393.787	1.89
393.997	1.66
394.206	-0.4
394.415	0.14
394.625	0.96
394.834	-0.04
395.043	0
395.252	4.46
395.462	5.05
395.671	5.75
395.88	6.9
396.089	6.63
396.298	4.35
396.508	4.57
396.717	4.08
396.926	3.13
397.135	3.62
397.344	2.84
397.553	2.16
397.762	3.41
397.971	3.69
398.181	3.19
398.39	3.03
398.599	2.96
398.808	1.56
399.017	2.28
399.226	2.02
399.435	2.86
399.644	2.99
399.853	3.61
400.062	3.21
400.27	3.1
400.479	2.73
400.688	2.69
400.897	2.35
401.106	2.43
401.315	2.49
401.524	2.75
401.733	2.54
401.941	2.91
402.15	2.76
402.359	3.1
402.568	3.34
402.777	3.75
402.985	3.31
403.194	3.2
403.403	3.28
403.612	2.91
403.82	2.57
404.029	2.92
404.238	2.86
404.446	2.83
404.655	2.91
404.864	2.94
405.072	2.76
405.281	2.96
405.489	2.74
405.698	2.8
405.906	2.94
406.115	2.88
406.324	2.84
406.532	2.84
406.741	2.76
406.949	2.76
407.158	2.91
407.366	2.73
407.574	2.91
407.783	3.02
407.991	2.92
408.2	2.98
408.408	3.16
408.617	2.96
408.825	2.75
409.033	2.75
409.242	2.71
409.45	2.55
409.658	2.64
409.867	2.81
410.075	2.87
410.283	2.7
410.491	2.69
410.7	2.57
410.908	2.6
411.116	2.73
411.324	2.8
411.533	2.84
411.741	2.85
411.949	2.79
412.157	2.56
412.365	2.53
412.573	2.7
412.781	2.69
412.99	2.74
413.198	2.82
413.406	2.9
413.614	2.84
413.822	3.06
414.03	2.91
414.238	3
414.446	2.95
414.654	2.83
414.862	2.67
415.07	2.66
415.278	2.62
415.486	2.6
415.694	2.68
415.902	2.63
416.109	2.63
416.317	2.57
416.525	2.46
416.733	2.27
416.941	2.4
417.149	2.37
417.357	2.44
417.564	2.55
417.772	2.65
417.98	2.65
418.188	2.61
418.395	2.36
418.603	2.3
418.811	2.35
419.019	2.28
419.226	2.23
419.434	2.36
419.642	2.23
419.849	2.13
420.057	2.08
420.265	2.1
420.472	2.09
420.68	2.3
420.887	2.31
421.095	2.36
421.302	2.52
421.51	2.58
421.717	2.53
421.925	2.56
422.132	2.48
422.34	2.17
422.547	2.02
422.755	2.13
422.962	2.19
423.17	2.02
423.377	2.25
423.585	2.47
423.792	2.32
423.999	2.28
424.207	2.33
424.414	2.1
424.621	2.03
424.829	2.11
425.036	2.03
425.243	2.24
425.451	2.39
425.658	2.31
425.865	2.23
426.072	2.26
426.28	2.3
426.487	2.29
426.694	2.24
426.901	2.26
427.108	2.27
427.315	2.18
427.523	2.07
427.73	2.02
427.937	1.85
428.144	1.88
428.351	1.81
428.558	2
428.765	2.06
428.972	2.29
429.179	2.16
429.386	2.18
429.593	1.98
429.8	2.16
430.007	2.22
430.214	2.36
430.421	2.51
430.628	2.58
430.835	2.4
431.042	2.29
431.249	2.31
431.456	2.05
431.662	2.16
431.869	2.27
432.076	2.19
432.283	2.27
432.49	2.4
432.697	2.44
432.903	2.43
433.11	2.58
433.317	2.59
433.524	2.63
433.73	2.48
433.937	2.65
434.144	2.47
434.35	2.32
434.557	2.3
434.764	2.34
434.97	2.14
435.177	2.35
435.384	2.48
435.59	2.53
435.797	2.69
436.003	2.73
436.21	2.65
436.416	2.7
436.623	2.62
436.829	2.51
437.036	2.57
437.242	2.53
437.449	2.49
437.655	2.61
437.862	2.55
438.068	2.58
438.275	2.7
438.481	2.72
438.687	2.63
438.894	2.94
439.1	2.83
439.307	2.86
439.513	2.79
439.719	2.96
439.926	2.83
440.132	2.84
440.338	2.78
440.544	2.78
440.751	2.67
440.957	2.64
441.163	2.65
441.369	2.77
441.575	2.71
441.782	2.76
441.988	2.76
442.194	2.81
442.4	2.71
442.606	2.94
442.812	2.91
443.018	2.93
443.224	3
443.431	2.94
443.637	2.76
443.843	2.81
444.049	2.92
444.255	2.86
444.461	2.81
444.667	2.79
444.873	2.77
445.079	2.7
445.284	2.71
445.49	2.78
445.696	2.86
445.902	2.94
446.108	2.93
446.314	2.99
446.52	3.05
446.726	3.05
446.931	2.95
447.137	2.87
447.343	2.96
447.549	2.99
447.755	3.03
447.96	3.09
448.166	3.21
448.372	3.09
448.578	3.01
448.783	3.01
448.989	3.01
449.195	2.96
449.4	3.07
449.606	3.12
449.812	3.13
450.017	3.19
450.223	3.2
450.428	3.12
450.634	3.11
450.84	3.06
451.045	2.98
451.251	2.99
451.456	3.05
451.662	3.19
451.867	3.22
452.073	3.3
452.278	3.34
452.483	3.37
452.689	3.31
452.894	3.44
453.1	3.45
453.305	3.44
453.51	3.42
453.716	3.39
453.921	3.35
454.127	3.28
454.332	3.21
454.537	3.18
454.742	3.25
454.948	3.2
455.153	3.2
455.358	3.28
455.563	3.39
455.769	3.35
455.974	3.26
456.179	3.28
456.384	3.22
456.589	3.1
456.795	3.03
457	3.1
457.205	3.08
457.41	3.06
457.615	3.06
457.82	3.17
458.025	3.19
458.23	3.24
458.435	3.29
458.64	3.31
458.845	3.32
459.05	3.32
459.255	3.32
459.46	3.35
459.665	3.35
459.87	3.27
460.075	3.34
460.28	3.4
460.485	3.46
460.69	3.44
460.895	3.57
461.099	3.4
461.304	3.32
461.509	3.25
461.714	3.33
461.919	3.27
462.123	3.36
462.328	3.34
462.533	3.27
462.738	3.18
462.942	3.1
463.147	3.06
463.352	3.12
463.556	3.27
463.761	3.3
463.966	3.39
464.17	3.5
464.375	3.55
464.58	3.47
464.784	3.57
464.989	3.53
465.193	3.48
465.398	3.41
465.602	3.53
465.807	3.5
466.011	3.53
466.216	3.48
466.42	3.58
466.625	3.57
466.829	3.55
467.034	3.61
467.238	3.75
467.443	3.72
467.647	3.68
467.851	3.74
468.056	3.78
468.26	3.76
468.464	3.8
468.669	3.88
468.873	3.83
469.077	3.79
469.282	3.83
469.486	3.79
469.69	3.78
469.894	3.86
470.099	3.9
470.303	3.89
470.507	4.03
470.711	4.02
470.915	4.02
471.119	4.01
471.324	4.07
471.528	3.97
471.732	3.98
471.936	4.02
472.14	4
472.344	4.01
472.548	4.1
472.752	4.13
472.956	4.07
473.16	4.14
473.364	4.12
473.568	4.03
473.772	4.03
473.976	4.16
474.18	4.19
474.384	4.19
474.588	4.32
474.792	4.25
474.995	4.22
475.199	4.18
475.403	4.23
475.607	4.17
475.811	4.26
476.015	4.19
476.218	4.22
476.422	4.24
476.626	4.26
476.83	4.31
477.033	4.42
477.237	4.45
477.441	4.41
477.644	4.46
477.848	4.45
478.052	4.47
478.255	4.49
478.459	4.52
478.663	4.57
478.866	4.57
479.07	4.45
479.273	4.52
479.477	4.57
479.681	4.57
479.884	4.63
480.088	4.72
480.291	4.68
480.495	4.68
480.698	4.67
480.901	4.7
481.105	4.71
481.308	4.76
481.512	4.79
481.715	4.9
481.919	4.89
482.122	4.93
482.325	4.95
482.529	4.95
482.732	4.9
482.935	4.91
483.138	4.88
483.342	4.88
483.545	4.98
483.748	5.05
483.952	5.09
484.155	5.17
484.358	5.18
484.561	5.16
484.764	5.15
484.967	5.12
485.171	5.15
485.374	5.15
485.577	5.17
485.78	5.16
485.983	5.2
486.186	5.13
486.389	5.12
486.592	5.06
486.795	5.05
486.998	5.09
487.201	5.14
487.404	5.24
487.607	5.29
487.81	5.31
488.013	5.23
488.216	5.22
488.419	5.09
488.622	5.02
488.825	5.02
489.028	5.06
489.231	5.07
489.433	5.08
489.636	5.09
489.839	5.1
490.042	5.13
490.245	5.12
490.447	5.19
490.65	5.24
490.853	5.25
491.056	5.21
491.258	5.23
491.461	5.21
491.664	5.24
491.866	5.15
492.069	5.2
492.272	5.18
492.474	5.17
492.677	5.16
492.879	5.18
493.082	5.19
493.285	5.23
493.487	5.27
493.69	5.26
493.892	5.33
494.095	5.3
494.297	5.32
494.5	5.31
494.702	5.32
494.905	5.32
495.107	5.34
495.309	5.35
495.512	5.37
495.714	5.41
495.917	5.47
496.119	5.51
496.321	5.55
496.524	5.49
496.726	5.42
496.928	5.43
497.13	5.43
497.333	5.38
497.535	5.44
497.737	5.51
497.939	5.45
498.142	5.45
498.344	5.5
498.546	5.45
498.748	5.49
498.95	5.56
499.152	5.56
499.355	5.49
499.557	5.58
499.759	5.61
499.961	5.61
500.163	5.66
500.365	5.78
500.567	5.78
500.769	5.75
500.971	5.73
501.173	5.64
501.375	5.66
501.577	5.71
501.779	5.71
501.981	5.76
502.183	5.79
502.385	5.8
502.587	5.8
502.788	5.87
502.99	5.86
503.192	5.93
503.394	5.93
503.596	5.92
503.798	5.86
503.999	5.94
504.201	5.97
504.403	5.97
504.605	6.04
504.806	6.13
505.008	6.06
505.21	6.03
505.411	6.05
505.613	6.04
505.815	6.04
506.016	6.14
506.218	6.21
506.42	6.26
506.621	6.32
506.823	6.33
507.024	6.32
507.226	6.34
507.427	6.35
507.629	6.32
507.83	6.3
508.032	6.31
508.233	6.32
508.435	6.35
508.636	6.44
508.838	6.48
509.039	6.48
509.24	6.48
509.442	6.49
509.643	6.42
509.845	6.42
510.046	6.5
510.247	6.59
510.448	6.55
510.65	6.63
510.851	6.71
511.052	6.68
511.254	6.72
511.455	6.75
511.656	6.76
511.857	6.72
512.058	6.75
512.26	6.71
512.461	6.77
512.662	6.77
512.863	6.72
513.064	6.76
513.265	6.76
513.466	6.75
513.667	6.77
513.868	6.81
514.069	6.81
514.27	6.85
514.471	6.78
514.672	6.81
514.873	6.82
515.074	6.91
515.275	6.89
515.476	7.03
515.677	7.04
515.878	7.09
516.079	7.01
516.28	7.02
516.481	6.98
516.682	7.03
516.882	7.01
517.083	6.99
517.284	7.08
517.485	7.01
517.686	6.99
517.886	7.03
518.087	7.04
518.288	6.98
518.488	7.02
518.689	7.02
518.89	7.02
519.091	7.11
519.291	7.08
519.492	7.12
519.692	7.16
519.893	7.22
520.094	7.23
520.294	7.32
520.495	7.35
520.695	7.36
520.896	7.32
521.096	7.31
521.297	7.35
521.497	7.36
521.698	7.37
521.898	7.38
522.099	7.43
522.299	7.39
522.499	7.42
522.7	7.49
522.9	7.52
523.101	7.52
523.301	7.54
523.501	7.56
523.702	7.5
523.902	7.55
524.102	7.62
524.302	7.68
524.503	7.68
524.703	7.63
524.903	7.63
525.103	7.53
525.304	7.46
525.504	7.55
525.704	7.65
525.904	7.65
526.104	7.74
526.304	7.77
526.504	7.73
526.705	7.72
526.905	7.76
527.105	7.76
527.305	7.76
527.505	7.76
527.705	7.74
527.905	7.81
528.105	7.75
528.305	7.76
528.505	7.81
528.705	7.92
528.905	7.89
529.105	7.97
529.304	7.95
529.504	8.01
529.704	7.92
529.904	7.92
530.104	7.86
530.304	7.91
530.503	7.88
530.703	7.88
530.903	7.89
531.103	7.96
531.303	7.98
531.502	8.04
531.702	8.11
531.902	8.15
532.101	8.14
532.301	8.22
532.501	8.32
532.7	8.42
532.9	8.47
533.1	8.54
533.299	8.58
533.499	8.48
533.698	8.41
533.898	8.39
534.097	8.39
534.297	8.29
534.496	8.31
534.696	8.35
534.895	8.41
535.095	8.43
535.294	8.51
535.494	8.52
535.693	8.58
535.892	8.55
536.092	8.59
536.291	8.62
536.491	8.69
536.69	8.68
536.889	8.65
537.088	8.65
537.288	8.61
537.487	8.62
537.686	8.59
537.886	8.66
538.085	8.65
538.284	8.76
538.483	8.77
538.682	8.86
538.882	8.88
539.081	8.97
539.28	9
539.479	9.01
539.678	9.01
539.877	9.08
540.076	9.06
540.275	9.06
540.474	9.09
540.673	9.2
540.872	9.15
541.071	9.2
541.27	9.23
541.469	9.31
541.668	9.33
541.867	9.44
542.066	9.5
542.265	9.56
542.464	9.51
542.663	9.49
542.862	9.57
543.06	9.61
543.259	9.65
543.458	9.72
543.657	9.81
543.856	9.82
544.054	9.85
544.253	9.86
544.452	9.94
544.651	9.94
544.849	9.91
545.048	9.96
545.247	10.03
545.445	10.08
545.644	10.13
545.843	10.22
546.041	10.27
546.24	10.32
546.438	10.36
546.637	10.4
546.836	10.44
547.034	10.49
547.233	10.58
547.431	10.57
547.63	10.61
547.828	10.68
548.027	10.76
548.225	10.78
548.423	10.84
548.622	10.91
548.82	10.95
549.019	10.96
549.217	11.02
549.415	11.11
549.614	11.26
549.812	11.32
550.01	11.35
550.209	11.44
550.407	11.53
550.605	11.43
550.803	11.5
551.002	11.66
551.2	11.68
551.398	11.78
551.596	11.95
551.794	12.14
551.993	12.14
552.191	12.25
552.389	12.35
552.587	12.39
552.785	12.36
552.983	12.52
553.181	12.57
553.379	12.57
553.577	12.67
553.775	12.79
553.973	12.82
554.171	12.94
554.369	12.99
554.567	13.08
554.765	13.07
554.963	13.09
555.161	13.12
555.359	13.29
555.557	13.32
555.755	13.52
555.952	13.76
556.15	13.91
556.348	13.94
556.546	14.13
556.744	14.16
556.941	14.12
557.139	14.25
557.337	14.38
557.535	14.35
557.732	14.45
557.93	14.62
558.128	14.68
558.325	14.81
558.523	14.95
558.721	15.07
558.918	15.16
559.116	15.24
559.313	15.36
559.511	15.47
559.708	15.56
559.906	15.7
560.104	15.81
560.301	15.92
560.498	16.14
560.696	16.31
560.893	16.41
561.091	16.54
561.288	16.61
561.486	16.58
561.683	16.66
561.88	16.78
562.078	16.89
562.275	16.99
562.473	17.2
562.67	17.31
562.867	17.3
563.064	17.44
563.262	17.58
563.459	17.73
563.656	17.89
563.853	18.05
564.051	18.24
564.248	18.35
564.445	18.39
564.642	18.41
564.839	18.61
565.036	18.73
565.234	18.88
565.431	19.02
565.628	19.16
565.825	19.16
566.022	19.22
566.219	19.27
566.416	19.35
566.613	19.52
566.81	19.74
567.007	19.71
567.204	19.79
567.401	19.88
567.598	19.97
567.795	19.94
567.991	20.09
568.188	20.22
568.385	20.32
568.582	20.39
568.779	20.54
568.976	20.69
569.172	20.78
569.369	20.81
569.566	20.93
569.763	20.91
569.96	21.05
570.156	21.17
570.353	21.23
570.55	21.2
570.746	21.36
570.943	21.39
571.14	21.37
571.336	21.49
571.533	21.67
571.729	21.76
571.926	21.89
572.123	22.02
572.319	22.08
572.516	22.09
572.712	22.18
572.909	22.12
573.105	22.24
573.302	22.3
573.498	22.31
573.695	22.35
573.891	22.47
574.087	22.39
574.284	22.41
574.48	22.5
574.677	22.5
574.873	22.45
575.069	22.6
575.266	22.71
575.462	22.72
575.658	22.79
575.854	22.9
576.051	22.86
576.247	22.79
576.443	22.78
576.639	22.69
576.835	22.69
577.032	22.67
577.228	22.82
577.424	22.87
577.62	22.93
577.816	22.92
578.012	22.98
578.208	22.83
578.404	22.89
578.6	22.97
578.796	23.05
578.993	23.05
579.189	23.2
579.384	23.31
579.58	23.31
579.776	23.24
579.972	23.31
580.168	23.31
580.364	23.4
580.56	23.36
580.756	23.37
580.952	23.38
581.148	23.43
581.343	23.29
581.539	23.24
581.735	23.27
581.931	23.14
582.127	23.04
582.322	22.94
582.518	23.01
582.714	22.94
582.909	22.97
583.105	22.94
583.301	23.09
583.496	23.11
583.692	23.1
583.888	23.15
584.083	23.21
584.279	23
584.474	22.89
584.67	22.93
584.866	22.85
585.061	22.81
585.257	22.9
585.452	22.98
585.648	23
585.843	23.08
586.039	23.12
586.234	23.19
586.429	23.24
586.625	23.3
586.82	23.27
587.015	23.23
587.211	23.23
587.406	23.12
587.601	23.13
587.797	23.27
587.992	23.32
588.187	23.25
588.383	23.43
588.578	23.48
588.773	23.43
588.968	23.49
589.163	23.62
589.359	23.57
589.554	23.56
589.749	23.62
589.944	23.68
590.139	23.69
590.334	23.76
590.529	23.79
590.724	23.85
590.919	23.77
591.114	23.78
591.309	23.8
591.504	23.86
591.699	23.83
591.894	23.88
592.089	23.92
592.284	24.04
592.479	24.04
592.674	24.09
592.869	24.19
593.064	24.21
593.259	24.25
593.454	24.31
593.648	24.34
593.843	24.36
594.038	24.52
594.233	24.53
594.428	24.63
594.622	24.83
594.817	25
595.012	25.06
595.206	25.18
595.401	25.29
595.596	25.32
595.79	25.34
595.985	25.34
596.18	25.51
596.374	25.62
596.569	25.66
596.763	25.78
596.958	25.91
597.153	25.85
597.347	25.82
597.542	25.89
597.736	25.95
597.931	26.04
598.125	26.18
598.319	26.28
598.514	26.32
598.708	26.41
598.903	26.54
599.097	26.57
599.291	26.61
599.486	26.84
599.68	26.85
599.874	26.87
600.069	26.9
600.263	27.04
600.457	26.99
600.651	27.06
600.846	27.12
601.04	27.16
601.234	27.16
601.428	27.24
601.622	27.32
601.817	27.37
602.011	27.44
602.205	27.59
602.399	27.49
602.593	27.59
602.787	27.55
602.981	27.55
603.175	27.52
603.369	27.59
603.563	27.58
603.757	27.63
603.951	27.6
604.145	27.54
604.339	27.63
604.533	27.47
604.727	27.49
604.921	27.47
605.115	27.53
605.309	27.47
605.502	27.56
605.696	27.56
605.89	27.68
606.084	27.62
606.278	27.6
606.471	27.52
606.665	27.36
606.859	27.24
607.053	27.16
607.246	27.08
607.44	27.05
607.634	27.06
607.827	27
608.021	26.9
608.214	26.87
608.408	26.86
608.602	26.75
608.795	26.78
608.989	26.65
609.182	26.62
609.376	26.47
609.569	26.4
609.763	26.28
609.956	26.32
610.15	26.17
610.343	26.12
610.537	26.11
610.73	25.96
610.923	25.87
611.117	25.92
611.31	25.82
611.504	25.62
611.697	25.63
611.89	25.62
612.083	25.39
612.277	25.33
612.47	25.21
612.663	25.09
612.856	24.97
613.05	24.95
613.243	24.81
613.436	24.86
613.629	24.62
613.822	24.55
614.015	24.45
614.209	24.4
614.402	24.35
614.595	24.44
614.788	24.35
614.981	24.2
615.174	24.1
615.367	23.99
615.56	23.91
615.753	23.98
615.946	24.03
616.139	24.08
616.332	24.05
616.525	23.93
616.718	23.76
616.911	23.7
617.103	23.63
617.296	23.57
617.489	23.51
617.682	23.5
617.875	23.5
618.067	23.38
618.26	23.33
618.453	23.38
618.646	23.34
618.838	23.24
619.031	23.28
619.224	23.24
619.417	23.18
619.609	23.12
619.802	23
619.994	22.95
620.187	22.89
620.38	22.79
620.572	22.69
620.765	22.74
620.957	22.61
621.15	22.56
621.342	22.62
621.535	22.66
621.727	22.56
621.92	22.6
622.112	22.64
622.305	22.58
622.497	22.51
622.69	22.54
622.882	22.56
623.074	22.48
623.267	22.46
623.459	22.47
623.651	22.42
623.844	22.41
624.036	22.51
624.228	22.42
624.42	22.35
624.613	22.32
624.805	22.19
624.997	22.08
625.189	22.08
625.381	22.03
625.574	21.98
625.766	22
625.958	22.03
626.15	22.02
626.342	22.06
626.534	22.04
626.726	22
626.918	21.91
627.11	21.86
627.302	21.81
627.494	21.8
627.686	21.78
627.878	21.75
628.07	21.74
628.262	21.74
628.454	21.73
628.646	21.72
628.838	21.75
629.029	21.65
629.221	21.58
629.413	21.48
629.605	21.43
629.797	21.27
629.989	21.32
630.18	21.38
630.372	21.36
630.564	21.31
630.755	21.4
630.947	21.29
631.139	21.05
631.33	21.04
631.522	20.98
631.714	20.86
631.905	20.92
632.097	20.97
632.289	21.03
632.48	21.01
632.672	21.01
632.863	20.82
633.055	20.79
633.246	20.68
633.438	20.61
633.629	20.59
633.821	20.71
634.012	20.74
634.203	20.73
634.395	20.75
634.586	20.73
634.777	20.66
634.969	20.64
635.16	20.61
635.351	20.59
635.543	20.52
635.734	20.49
635.925	20.51
636.117	20.51
636.308	20.54
636.499	20.57
636.69	20.63
636.881	20.57
637.073	20.64
637.264	20.59
637.455	20.55
637.646	20.48
637.837	20.49
638.028	20.42
638.219	20.48
638.41	20.52
638.601	20.52
638.792	20.58
638.983	20.51
639.174	20.46
639.365	20.42
639.556	20.41
639.747	20.32
639.938	20.38
640.129	20.37
640.32	20.37
640.511	20.4
640.701	20.45
640.892	20.41
641.083	20.4
641.274	20.33
641.465	20.26
641.655	20.2
641.846	20.24
642.037	20.16
642.228	20.1
642.418	20.01
642.609	19.97
642.8	19.9
642.99	19.85
643.181	19.96
643.372	20.01
643.562	19.93
643.753	19.86
643.943	19.82
644.134	19.68
644.324	19.66
644.515	19.68
644.705	19.69
644.896	19.77
645.086	19.81
645.277	19.78
645.467	19.78
645.658	19.67
645.848	19.53
646.038	19.48
646.229	19.48
646.419	19.35
646.61	19.43
646.8	19.57
646.99	19.52
647.18	19.43
647.371	19.42
647.561	19.35
647.751	19.32
647.941	19.35
648.132	19.3
648.322	19.26
648.512	19.34
648.702	19.34
648.892	19.32
649.082	19.41
649.272	19.41
649.462	19.35
649.653	19.23
649.843	19.19
650.033	19.17
650.223	19.08
650.413	19.04
650.603	19.08
650.793	18.96
650.983	18.88
651.172	18.96
651.362	18.78
651.552	18.61
651.742	18.63
651.932	18.51
652.122	18.5
652.312	18.53
652.502	18.47
652.691	18.4
652.881	18.36
653.071	18.2
653.261	18.1
653.45	17.97
653.64	17.84
653.83	17.73
654.019	17.66
654.209	17.66
654.399	17.53
654.588	17.38
654.778	17.27
654.968	17.24
655.157	16.94
655.347	16.86
655.536	16.74
655.726	16.49
655.915	16.2
656.105	16.14
656.294	15.95
656.484	15.81
656.673	15.79
656.863	15.71
657.052	15.6
657.241	15.51
657.431	15.38
657.62	15.18
657.809	14.91
657.999	14.71
658.188	14.51
658.377	14.3
658.567	14.14
658.756	14.08
658.945	13.82
659.134	13.61
659.324	13.41
659.513	13.21
659.702	12.92
659.891	12.77
660.08	12.64
660.269	12.52
660.458	12.31
660.648	12.18
660.837	12.12
661.026	11.94
661.215	11.76
661.404	11.61
661.593	11.52
661.782	11.3
661.971	11.05
662.16	10.95
662.349	10.8
662.538	10.58
662.726	10.5
662.915	10.5
663.104	10.28
663.293	10.2
663.482	10.1
663.671	9.93
663.86	9.83
664.048	9.8
664.237	9.75
664.426	9.62
664.615	9.52
664.803	9.31
664.992	9.06
665.181	8.89
665.369	8.72
665.558	8.62
665.747	8.73
665.935	8.83
666.124	8.85
666.312	8.87
666.501	8.84
666.69	8.68
666.878	8.58
667.067	8.49
667.255	8.4
667.444	8.36
667.632	8.41
667.82	8.32
668.009	8.28
668.197	8.31
668.386	8.22
668.574	8.13
668.762	8.16
668.951	8.12
669.139	8.09
669.327	8.11
669.516	8.12
669.704	8.1
669.892	8.12
670.08	8.12
670.269	8.16
670.457	8.12
670.645	8.04
670.833	8.14
671.021	8.25
671.21	8.18
671.398	8.26
671.586	8.32
671.774	8.32
671.962	8.23
672.15	8.37
672.338	8.41
672.526	8.58
672.714	8.56
672.902	8.67
673.09	8.76
673.278	8.81
673.466	8.87
673.654	8.94
673.842	8.98
674.03	9
674.218	9.05
674.405	9.01
674.593	9.03
674.781	9.09
674.969	9.26
675.157	9.36
675.344	9.47
675.532	9.5
675.72	9.59
675.908	9.55
676.095	9.53
676.283	9.69
676.471	9.81
676.658	10.02
676.846	10.07
677.033	10.19
677.221	10.18
677.409	10.3
677.596	10.26
677.784	10.44
677.971	10.5
678.159	10.67
678.346	10.77
678.534	10.88
678.721	10.95
678.909	11.13
679.096	11.14
679.283	11.24
679.471	11.35
679.658	11.4
679.846	11.41
680.033	11.7
680.22	11.95
680.408	12.07
680.595	12.27
680.782	12.55
680.969	12.69
681.157	12.82
681.344	12.99
681.531	13.22
681.718	13.31
681.905	13.37
682.093	13.51
682.28	13.77
682.467	13.93
682.654	14.12
682.841	14.24
683.028	14.36
683.215	14.56
683.402	14.55
683.589	14.82
683.776	15.11
683.963	15.35
684.15	15.6
684.337	15.98
684.524	16.24
684.711	16.61
684.898	16.89
685.085	17
685.271	17.44
685.458	17.64
685.645	17.79
685.832	18.08
686.019	18.45
686.205	18.78
686.392	19.24
686.579	19.71
686.766	20.08
686.952	20.6
687.139	20.94
687.326	21.43
687.512	21.71
687.699	22.16
687.886	22.47
688.072	22.77
688.259	23.2
688.445	23.86
688.632	24.31
688.818	25
689.005	25.74
689.191	26.24
689.378	26.87
689.564	27.44
689.751	27.95
689.937	28.55
690.124	29.3
690.31	29.67
690.496	30.46
690.683	31.2
690.869	31.7
691.055	32.25
691.242	33.01
691.428	33.72
691.614	34.39
691.8	35.16
691.987	35.86
692.173	36.68
692.359	37.37
692.545	38.06
692.731	38.85
692.918	39.53
693.104	40.14
693.29	40.65
693.476	41.41
693.662	41.85
693.848	42.49
694.034	43.19
694.22	44.06
694.406	44.7
694.592	45.52
694.778	46.24
694.964	47.03
695.15	47.61
695.336	48.29
695.522	48.99
695.708	49.7
695.894	50.35
696.08	51
696.265	51.76
696.451	52.38
696.637	53.26
696.823	54.14
697.009	54.98
697.194	55.49
697.38	56.25
697.566	56.9
697.751	57.18
697.937	57.93
698.123	58.44
698.308	58.79
698.494	59.36
698.68	60.39
698.865	60.62
699.051	61.13
699.236	61.97
699.422	62.55
699.607	63.03
699.793	63.81
699.978	64.24
700.164	64.42
700.349	64.93
700.535	65.04
700.72	65.42
700.906	66.27
701.091	67.19
701.276	67.32
701.462	68.06
701.647	68.53
701.832	68.86
702.018	69.33
702.203	69.89
702.388	69.86
702.573	70.19
702.759	70.78
702.944	70.7
703.129	71.09
703.314	71.43
703.499	71.77
703.684	72.19
703.87	72.56
704.055	72.85
704.24	73.43
704.425	73.97
704.61	73.97
704.795	74.55
704.98	74.5
705.165	75.05
705.35	75.07
705.535	75.56
705.72	75.6
705.905	76.45
706.09	76.53
706.275	76.72
706.459	76.85
706.644	77.26
706.829	77.31
707.014	77.52
707.199	77.89
707.384	78.21
707.568	78.24
707.753	78.59
707.938	79.03
708.123	79.55
708.307	79.88
708.492	80.97
708.677	81.1
708.861	81.16
709.046	81.07
709.231	80.78
709.415	80.27
709.6	80.25
709.784	80.32
709.969	80.53
710.153	80.7
710.338	81.13
710.522	81.61
710.707	81.5
710.891	81.49
711.076	81.79
711.26	81.94
711.445	81.73
711.629	82.08
711.813	82.6
711.998	82.8
712.182	82.35
712.366	83.37
712.551	83.95
712.735	83.69
712.919	84
713.103	84.72
713.288	84.29
713.472	84.55
713.656	84.5
713.84	84.39
714.024	84.48
714.208	84.47
714.393	84.15
714.577	84.68
714.761	85.23
714.945	85.24
715.129	85.35
715.313	85.37
715.497	85.5
715.681	85.22
715.865	85.08
716.049	85.26
716.233	85.35
716.417	85.3
716.601	85.87
716.785	86.48
716.968	86.49
717.152	86.44
717.336	86.93
717.52	86.6
717.704	86.77
717.888	87.13
718.071	87.33
718.255	87.27
718.439	87.3
718.622	86.82
718.806	86.45
718.99	86.29
719.174	86.28
719.357	86.51
719.541	86.97
719.724	87.1
719.908	87.35
720.092	87.05
720.275	87.21
720.459	86.95
720.642	87.21
720.826	86.79
721.009	86.68
721.193	86.23
721.376	86.26
721.559	85.72
721.743	86.47
721.926	87.17
722.11	87.66
722.293	88.05
722.476	88.44
722.66	88.64
722.843	88.28
723.026	88.45
723.21	88.11
723.393	88.83
723.576	88.85
723.759	89.51
723.942	89.88
724.126	90.2
724.309	89.65
724.492	89.69
724.675	89.32
724.858	89.47
725.041	89.43
725.224	90.1
725.407	89.99
725.59	89.81
725.774	88.86
725.957	89.2
726.14	88.96
726.322	89.35
726.505	89.7
726.688	90.63
726.871	90.5
727.054	90.48
727.237	90.2
727.42	90.25
727.603	90.55
727.786	90.45
727.968	90.28
728.151	90.11
728.334	90.16
728.517	89.3
728.699	89.42
728.882	89.32
729.065	90.08
729.248	90.46
729.43	91.08
729.613	91.13
729.796	91.95
729.978	91.09
730.161	90.68
730.343	90.43
730.526	90.83
730.708	90.35
730.891	91.17
731.073	91.28
731.256	91.64
731.438	91.91
731.621	92.19
731.803	92.29
731.986	92.63
732.168	92.63
732.35	92.93
732.533	93.36
732.715	92.65
732.898	92.41
733.08	92.09
733.262	91.39
733.444	90.98
733.627	91.55
733.809	91.59
733.991	92.06
734.173	92.31
734.355	92.58
734.538	93.33
734.72	94.02
734.902	94.28
735.084	94.42
735.266	94.8
735.448	94.54
735.63	93.96
735.812	93.48
735.994	93.87
736.176	94.2
736.358	94.08
736.54	95.48
736.722	95.81
736.904	94.83
737.086	93.89
737.268	94.51
737.45	93.81
737.632	93.59
737.814	94.67
737.995	95.69
738.177	95.28
738.359	94.95
738.541	95.36
738.723	95.26
738.904	94.73
739.086	94.6
739.268	94.23
739.449	93.94
739.631	93.47
739.813	93.21
739.994	93.35
740.176	93.97
740.358	93.78
740.539	94.06
740.721	94.78
740.902	94.86
741.084	95.17
741.265	95.43
741.447	94.99
741.628	94.8
741.81	95.47
741.991	95.74
742.172	95.78
742.354	96.6
742.535	96.78
742.717	94.65
742.898	94.12
743.079	95.18
743.261	94.92
743.442	92.95
743.623	94.15
743.804	94.05
743.986	93.12
744.167	92.63
744.348	94.26
744.529	94.01
744.71	94.38
744.891	93.66
745.073	94.21
745.254	94.65
745.435	95.08
745.616	95.24
745.797	95.24
745.978	95.52
746.159	94.37
746.34	93.54
746.521	92.68
746.702	94.17
746.883	93.3
747.064	94.12
747.245	94.55
747.426	94.46
747.606	93.44
747.787	93.03
747.968	92.55
748.149	93.85
748.33	93.78
748.51	92.2
748.691	92.6
748.872	94.39
749.053	92.4
749.233	92.81
749.414	94.82
749.595	95.48
749.775	93
749.956	93.18
750.137	92.97
750.317	92.08
750.498	92.12
750.678	93.04
750.859	94.89
751.04	94.21
751.22	93.48
751.4	93.63
751.581	94.41
751.761	93.8
751.942	95.08
752.122	95.75
752.303	95.49
752.483	94.66
752.663	93.72
752.844	93.03
753.024	93.93
753.204	93.55
753.385	92.4
753.565	92.79
753.745	92.82
753.925	91.22
754.106	91.22
754.286	90.72
754.466	90.28
754.646	90.01
754.826	91.28
755.006	91.12
755.187	92.56
755.367	92.51
755.547	93.56
755.727	94.67
755.907	94.14
756.087	93.7
756.267	93.68
756.447	93.28
756.627	91.68
756.807	93.16
756.987	93.09
757.167	93.32
757.346	92.33
757.526	92.79
757.706	92.52
757.886	92.28
758.066	93.51
758.246	93.53
758.425	92.39
758.605	90.68
758.785	91.5
758.965	91.18
759.144	90.51
759.324	92.73
759.504	93.78
759.683	92.6
759.863	92.88
760.043	94
760.222	92.29
760.402	90.94
760.581	91.86
760.761	91.37
760.94	90.93
761.12	91.4
761.299	93.72
761.479	95.27
761.658	93.37
761.838	93.55
762.017	93.16
762.197	90.51
762.376	88.44
762.555	88.58
762.735	89.08
762.914	87.97
763.093	89.13
763.273	89.41
763.452	90
763.631	88.15
763.81	90.19
763.99	89.69
764.169	89.95
764.348	89.45
764.527	90.53
764.706	89.44
764.885	91.34
765.064	91.54
765.243	90.87
765.423	91.34
765.602	92.3
765.781	89.56
765.96	89.96
766.139	89.91
766.318	89.91
766.497	88.85
766.676	89.26
766.854	87.62
767.033	89.86
767.212	90.48
767.391	91.81
767.57	93.98
767.749	94.83
767.928	94.4
768.106	91.87
768.285	89.71
768.464	88.88
768.643	87.43
768.821	87.55
769	87.54
769.179	87.78
769.357	87.44
769.536	87.95
769.715	86.78
769.893	87.34
770.072	86.28
770.25	84.64
770.429	84.44
770.607	84.61
770.786	85.05
770.964	87.73
771.143	88.43
771.321	88.3
771.5	88.75
771.678	88.65
771.857	85.75
772.035	86.71
772.213	86.72
772.392	85.28
772.57	84.87
772.748	85.72
772.927	84.23
773.105	85.3
773.283	86.39
773.461	87.49
773.64	87.69
773.818	89.51
773.996	90.42
774.174	91.95
774.352	91.65
774.531	91.83
774.709	93.18
774.887	89.18
775.065	88.08
775.243	88.49
775.421	88.64
775.599	85.8
775.777	85.99
775.955	84.46
776.133	84.43
776.311	82.72
776.489	83.71
776.667	85.1
776.844	85.48
777.022	84.49
777.2	85.43
777.378	82.67
777.556	84.83
777.734	86.02
777.911	87.31
778.089	89.34
778.267	91.92
778.445	92.46
778.622	91.91
778.8	87.2
778.978	86.13
779.155	87
779.333	84.65
779.511	82.95
779.688	83.71
779.866	82.27
780.043	83.22
780.221	84.25
780.398	85.46
780.576	87.39
780.753	87.14
780.931	85.42
781.108	87.12
781.286	87.15
781.463	86.99
781.64	88.3
781.818	90
781.995	88.86
782.172	86.89
782.35	86.87
782.527	85.22
782.704	82.45
782.882	79.22
783.059	82.34
783.236	81.98
783.413	81.43
783.59	80.96
783.768	85.12
783.945	84.12
784.122	84.4
784.299	86.21
784.476	86.07
784.653	81.53
784.83	78.1
785.007	77.8
785.184	76.69
785.361	79.38
785.538	80.29
785.715	83.85
785.892	83.91
786.069	86.08
786.246	85.71
786.423	85.69
786.6	84.97
786.776	84.78
786.953	81.4
787.13	81.6
787.307	82.45
787.484	80.87
787.66	81.19
787.837	82.11
788.014	80.95
788.191	79.37
788.367	77.41
788.544	77.15
788.721	72.92
788.897	73.23
789.074	75.88
789.25	79.18
789.427	80.35
789.603	82.1
789.78	80.91
789.956	78.15
790.133	76.4
790.309	76.69
790.486	79.98
790.662	81.31
790.839	81.14
791.015	84.15
791.192	84.66
791.368	81.79
791.544	82.08
791.721	84.79
791.897	81.61
792.073	77.04
792.249	80.44
792.426	78.23
792.602	75.84
792.778	76.17
792.954	80.96
793.13	79.57
793.307	81.74
793.483	81.54
793.659	79.52
793.835	79.57
794.011	81.6
794.187	77.61
794.363	75.4
794.539	77.67
794.715	76.87
794.891	75.56
795.067	77.84
795.243	79.3
795.419	77.72
795.595	79.51
795.771	77.95
795.947	74.96
796.122	69.16
796.298	70.46
796.474	73.4
796.65	76.5
796.826	78.26
797.001	84.22
797.177	79.4
797.353	69.84
797.529	68.68
797.704	70.63
797.88	71.09
798.056	77.42
798.231	79.69
798.407	84.54
798.582	80.63
798.758	81.13
798.934	84.16
799.109	86.62
799.285	79.78
799.46	82.72
799.636	86.42
799.811	83.19
799.986	84.81
800.162	83.4
800.337	85.5
800.513	82.04
800.688	79.31
800.863	84.76
801.039	87.14
801.214	80.42
801.389	76.61
801.565	80.35
801.74	74.47
801.915	72.26
802.09	73.82
802.265	74.71
802.441	73.31
802.616	71.47
802.791	74.36
802.966	74.81
803.141	73.91
803.316	73.09
803.491	71.85
803.666	73.16
803.841	71.26
804.016	71.75
804.191	64.82
804.366	65.62
804.541	63.47
804.716	65.25
804.891	66.51
805.066	74.93
805.241	71.25
805.416	76.82
805.591	80.56
805.765	91.12
805.94	85.77
806.115	87.26
806.29	76.19
806.464	74.7
806.639	63.69
806.814	67.62
806.989	67.87
807.163	81.35
807.338	78.71
807.512	84.7
807.687	82.22
807.862	85.51
808.036	79.04
808.211	89.16
808.385	86.16
808.56	88.95
808.734	82.44
808.909	83.49
809.083	78.33
809.258	75.25
809.432	74.98
809.606	75.4
809.781	72.85
809.955	80.68
810.13	79.66
810.304	73.41
810.478	71.89
810.652	68.46
810.827	67.47
811.001	68.87
811.175	70.08
811.349	75.12
811.524	77.36
811.698	71.25
811.872	79.54
812.046	77.29
812.22	75.54
812.394	74.4
812.568	72.32
812.742	65.83
812.916	76.43
813.09	69.39
813.264	66.14
813.438	66.21
813.612	63.42
813.786	53.9
813.96	60.98
814.134	59.7
814.308	64.63
814.482	63.94
814.656	61.13
814.83	61.76
815.003	63.49
815.177	59.69
815.351	66.92
815.525	81.86
815.698	71.09
815.872	64.93
816.046	66.02
816.219	66.6
816.393	59.91
816.567	61.33
816.74	67.62
816.914	73.98
817.088	78.31
817.261	75.56
817.435	93.4
817.608	90.99
817.782	77.2
817.955	69.95
818.129	63.7
818.302	63.1
818.475	70.15
818.649	70.37
818.822	64.37
818.996	84
819.169	81.9
819.342	73.45
819.516	84.56
819.689	81.39
819.862	70.02
820.035	70.5
820.209	74.77
820.382	66.51
820.555	67.52
820.728	63.01
820.901	57.17
821.075	54.42
821.248	68.15
821.421	72.45
821.594	70.8
821.767	74.96
821.94	76.4
822.113	66.33
822.286	75.74
822.459	86.55
822.632	84.15
822.805	85.88
822.978	90.57
823.151	77.35
823.324	63.76
823.496	53.37
823.669	52.36
823.842	46.91
824.015	43.26
824.188	31.53
824.361	45.55
824.533	45.03
824.706	47.72
824.879	51.14
825.051	80.47
825.224	78.21
825.397	69.29
825.569	64.05
825.742	69.53
825.915	52.43
826.087	47.23
826.26	47.23
826.432	52.12
826.605	54.43
826.777	57.33
826.95	69.69
827.122	79.8
827.295	101.77
827.467	111.45
827.64	104.62
827.812	111.68
827.984	131.7
828.157	95.13
828.329	93.04
828.501	90.43
828.674	80.02
828.846	72.56
829.018	75.47
829.19	61.37
829.363	65.82
829.535	81.14
829.707	78.79
829.879	70.84
830.051	85.5
830.223	86.24
830.395	71.65
830.568	68.63
830.74	77.54
830.912	71.13
831.084	72.11
831.256	62.44
831.428	65.8
831.6	57.2
831.772	56.52
831.943	45.76
832.115	62.24
832.287	62.58
832.459	62.83
832.631	56.08
832.803	66.53
832.975	73.03
833.146	70.67
833.318	78.77
833.49	86.33
833.662	95.95
833.833	75.79
834.005	71.15
834.177	73.67
834.348	67.87
834.52	64.26
834.692	50.69
834.863	43.47
835.035	53.8
835.206	50.1
835.378	44.64
835.549	58.76
835.721	59.62
835.892	51.17
836.064	62.1
836.235	66.1
836.407	75.74
836.578	87.18
836.749	78.66
836.921	69.11
837.092	56.5
837.264	43.8
837.435	34.59
837.606	43.45
837.777	62.36
837.949	68.19
838.12	71.15
838.291	70.22
838.462	101.63
838.633	96.27
838.805	89.6
838.976	77.39
839.147	83.41
839.318	39.47
839.489	18.74
839.66	48.03
839.831	53.23
840.002	55.81
840.173	56.56
840.344	64.29
840.515	46.04
840.686	45.18
840.857	42.09
841.028	43.9
841.199	44.25
841.369	55.49
841.54	59.56
841.711	71.15
841.882	82.18
842.053	60.18
842.223	59.27
842.394	64.1
842.565	54.09
842.736	49.71
842.906	56.58
843.077	62.78
843.248	66.82
843.418	58.89
843.589	48.84
843.759	60.38
843.93	59.92
844.101	52.54
844.271	72.95
844.442	70.32
844.612	47.23
844.783	52.56
844.953	36.93
845.123	34.57
845.294	37.17
845.464	30.73
845.635	1.56
845.805	43.23
845.975	39.77
846.146	34.39
846.316	59.82
846.486	79.39
846.656	60.51
846.827	47.84
846.997	65.23
847.167	57.48
847.337	52.23
847.507	58.14
847.677	60.76
847.848	63.95
848.018	61.36
848.188	60.14
848.358	36.48
848.528	56.46
848.698	33.58
848.868	55.18
849.038	45.03
849.208	78.4
849.378	70.25
849.548	80.11
849.718	40.07
849.887	80.17
850.057	37.96
850.227	68.03
850.397	77.98
850.567	74.23
850.737	80.74
850.906	79.31
851.076	25.22
851.246	37.9
851.415	62.97
851.585	35.96
851.755	56.31
851.924	93.4
852.094	89.26
852.264	75.32
852.433	86.66
852.603	89.75
852.772	80.26
852.942	63.6
853.111	54.93
853.281	55.31
853.45	55.72
853.62	46.46
853.789	39.96
853.959	54.81
854.128	49.18
854.297	39.49
854.467	46.56
854.636	52.08
854.805	42.15
854.975	32.12
855.144	33.31
855.313	30.74
855.482	30.75
855.652	54.99
855.821	46.49
855.99	50.67
856.159	53.9
856.328	41.41
856.497	36.86
856.667	37.98
856.836	45.62
857.005	26.07
857.174	30.7
857.343	19.9
857.512	38.65
857.681	5.65
857.85	13.96
858.019	-16.01
858.188	-41.98
858.356	-33.85
858.525	4.72
858.694	11.03
858.863	38.69
859.032	46.27
859.201	36.56
859.369	26.55
859.538	37.1
859.707	37.05
859.876	39.53
860.044	66.5
860.213	77.44
860.382	82.34
860.55	52.24
860.719	70.68
860.888	43.37
861.056	28.55
861.225	-1.27
861.393	27.2
861.562	-7.87
861.73	14.39
861.899	13.9
862.067	18.34
862.236	1.57
862.404	31.24
862.572	31.58
862.741	30.17
862.909	27.09
863.078	74.82
863.246	42.27
863.414	54.47
863.582	67.61
863.751	58.32
863.919	34.27
864.087	26.18
864.255	29.78
864.424	-2.25
864.592	40.1
864.76	54.31
864.928	82.19
865.096	47.48
865.264	28.55
865.432	22.65
865.6	27.18
865.768	20.11
865.936	33.01
866.104	73.52
866.272	82.64
866.44	40.38
866.608	33.3
866.776	62.22
866.944	62.95
867.112	68.16
867.28	54.29
867.448	44.9
867.615	27.56
867.783	9.89
867.951	9.85
868.119	55.34
868.286	80.69
868.454	55.79
868.622	45.72
868.789	50.2
868.957	41.21
869.125	48.4
869.292	31.6
869.46	55.36
869.627	31.73
869.795	-39.26
869.963	-21.8
870.13	16.31
870.298	1.34
870.465	26.6
870.632	74.05
870.8	87.97
870.967	74.98
871.135	61.94
871.302	59.76
871.469	58.8
871.637	29.97
871.804	38.89
871.971	55.29
872.139	55.73
872.306	4.45
872.473	-7.88
872.64	-95.84
872.807	-154.13
872.975	-408.07
873.142	-88.22
873.309	-52.73
873.476	20.59
873.643	69.89
873.81	53.75
873.977	57.11
874.144	77.66
874.311	29.54
874.478	0.68
874.645	-12.49
874.812	47.47
874.979	43.61
875.146	41.24
875.313	48.74
875.48	80.58
875.647	53.36
875.813	25.21
875.98	19.6
876.147	-50.51
876.314	-15.79
876.481	21.07
876.647	79.4
876.814	57.39
876.981	62.81
877.147	37.14
877.314	36.07
877.481	33.09
877.647	58.68
877.814	59.72
877.98	73.75
878.147	76.72
878.314	83.05
878.48	80.21
878.647	95.36
878.813	113.07
878.979	99.34
879.146	73.79
879.312	91.21
879.479	59.77
879.645	40
879.811	41.8
879.978	43.42
880.144	21.34
880.31	32.82
880.477	31.13
880.643	27.08
880.809	-13.19
880.975	-10.4
881.142	-26.44
881.308	308.08
881.474	377.09
881.64	-26.77
881.806	33.23
881.972	-58.3
882.138	-4.39
882.304	4.55
882.47	-8.37
882.636	-26.2
882.802	6.66
882.968	49.58
883.134	38.51
883.3	34.91
883.466	52.75
883.632	57.09
883.798	20.03
883.964	-11.31
884.129	-19.65
884.295	95.8
884.461	77.47
884.627	54.06
884.793	-1.83
884.958	23.46
885.124	-23.86
885.29	-68.13
885.455	-108.85
885.621	-29.25
885.787	-41.92
885.952	-25.55
886.118	34.72
886.283	41.04
886.449	35.45
886.614	40.29
886.78	26.21
886.945	33.6
887.111	20.17
887.276	10.93
887.442	-45.39
887.607	-8.84
887.773	-13.46
887.938	-20.25
888.103	8.62
888.269	43.05
888.434	49.82
888.599	37.46
888.764	62.51
888.93	65.45
889.095	42.36
889.26	20.26
889.425	20.99
889.59	-32.94
889.756	-26.01
889.921	12.39
890.086	68.59
890.251	106.57
890.416	53.55
890.581	16.81
890.746	28.94
890.911	21.37
891.076	14.04
891.241	1.68
891.406	5.12
891.571	36.39
891.736	116.47
891.901	123.79
892.065	99.71
892.23	117.22
892.395	60.72
892.56	15.78
892.725	-0.6
892.889	130.64
893.054	138.51
893.219	153.82
893.384	208.59
893.548	131.46
893.713	130.31
893.878	121.56
