Data from Ofra_1a_PS_2HS17_Reflection_3.txt Node
Date: Tue Jul 20 10:53:07 EDT 2021
User: Adam
Spectrometer: FLMT01687
Trigger mode: 0
Integration Time (sec): 1.004000E0
Scans to average: 2
Electric dark correction enabled: true
Nonlinearity correction enabled: false
Boxcar width: 2
XAxis mode: Wavelengths
Number of Pixels in Spectrum: 3648
>>>>>Begin Spectral Data<<<<<
179.494	-16.24
179.716	-29.01
179.937	374.58
180.158	-529.94
180.38	117.83
180.601	81.08
180.823	68.16
181.044	-101.34
181.265	-288.31
181.486	124.15
181.708	27.92
181.929	690.91
182.15	-66.57
182.372	510.34
182.593	201.67
182.814	-133.11
183.035	-53.79
183.257	-11.15
183.478	-26.14
183.699	-22.45
183.92	-46.68
184.141	-9.66
184.363	0.5
184.584	20.39
184.805	15.81
185.026	47.12
185.247	22.17
185.468	-27.38
185.689	-23.91
185.91	-40.4
186.132	-35.58
186.353	-33.09
186.574	5.49
186.795	18.76
187.016	16.59
187.237	-0.66
187.458	12.23
187.679	-6.43
187.9	-13.51
188.121	1.93
188.342	41.49
188.563	46.41
188.784	48.64
189.005	32.89
189.226	29.34
189.447	1.23
189.667	-12.61
189.888	-35.37
190.109	-37.48
190.33	-25.49
190.551	-20.35
190.772	-5.78
190.993	12.59
191.214	-26.8
191.434	-69.53
191.655	-63.24
191.876	-12.96
192.097	-10.66
192.318	34.05
192.538	15.33
192.759	12.94
192.98	20.13
193.201	15.14
193.421	7.15
193.642	9.43
193.863	11.46
194.083	-1.52
194.304	10.45
194.525	8.02
194.745	20.1
194.966	28.07
195.187	23.74
195.407	2.65
195.628	19.62
195.848	26.13
196.069	11.41
196.29	0.41
196.51	13.02
196.731	-6.65
196.951	-37.27
197.172	-13.87
197.392	-2.15
197.613	9.56
197.833	7.67
198.054	26.77
198.274	2.98
198.495	6.9
198.715	-5.62
198.936	9.39
199.156	-3.54
199.377	-12.43
199.597	-17.76
199.817	-16.85
200.038	-57.22
200.258	-12.32
200.479	-4.25
200.699	4.95
200.919	-15.7
201.14	-1.79
201.36	-4.52
201.58	-16.58
201.801	-28.62
202.021	-16.13
202.241	-10.01
202.461	-27.84
202.682	6.91
202.902	11.25
203.122	19.8
203.342	20.27
203.563	25.03
203.783	7.1
204.003	-5.44
204.223	10.91
204.443	16.42
204.663	8.36
204.884	25.8
205.104	44.65
205.324	54.57
205.544	22.47
205.764	56.58
205.984	33.07
206.204	26.46
206.424	-1.21
206.644	28.83
206.864	-30.04
207.084	-3.3
207.304	-21.8
207.525	-16.42
207.745	-10.47
207.964	2.58
208.184	8.44
208.404	9.32
208.624	24.21
208.844	15.7
209.064	12.59
209.284	-3.66
209.504	3.21
209.724	-16.98
209.944	-23.52
210.164	-17.28
210.384	-12.05
210.604	-45.82
210.823	-34.23
211.043	-23.46
211.263	-66.47
211.483	-19.47
211.703	-14.15
211.922	-5.78
212.142	-5.22
212.362	21.97
212.582	12.83
212.801	19
213.021	-2.52
213.241	-0.35
213.461	-4.75
213.68	2.22
213.9	4
214.12	0.31
214.339	0.71
214.559	-10.38
214.779	-32.01
214.998	-20.08
215.218	-1.99
215.438	8.27
215.657	7.69
215.877	-2.54
216.096	-0.22
216.316	-5.15
216.535	-16.57
216.755	-8.86
216.974	-3.53
217.194	-2.69
217.413	-4.63
217.633	-13.11
217.852	-12.91
218.072	1.33
218.291	-11.91
218.511	-15.64
218.73	-23.36
218.95	-37.23
219.169	-65.75
219.389	-41.57
219.608	-17.62
219.827	9.13
220.047	16.73
220.266	17.99
220.485	19.52
220.705	-11.21
220.924	-55.54
221.143	3.32
221.363	30.12
221.582	20.47
221.801	38.04
222.021	49.17
222.24	-3.63
222.459	1.18
222.678	12.57
222.897	0.32
223.117	13.24
223.336	50.24
223.555	55.78
223.774	80
223.993	103.87
224.213	105.28
224.432	87.88
224.651	68.37
224.87	60.63
225.089	51.03
225.308	41.45
225.527	26.34
225.746	11.97
225.965	12.61
226.184	-17.16
226.404	-24.19
226.623	-5.15
226.842	-1.4
227.061	0.65
227.28	22.36
227.499	21.85
227.718	9.36
227.936	19.08
228.155	27.05
228.374	19.53
228.593	23.47
228.812	12.97
229.031	11.37
229.25	-8.32
229.469	-6.86
229.688	-2.5
229.907	10.45
230.125	-0.39
230.344	6.28
230.563	8.23
230.782	15.27
231.001	26.08
231.22	32.17
231.438	40.33
231.657	38.87
231.876	22.03
232.095	26.61
232.313	25.35
232.532	18.22
232.751	1.09
232.969	10.26
233.188	3.04
233.407	2.96
233.625	-4.44
233.844	2.46
234.063	8.51
234.281	5.76
234.5	8.72
234.719	15.3
234.937	10.07
235.156	10.12
235.374	11.92
235.593	33.11
235.811	32.99
236.03	35.45
236.249	25.42
236.467	32.02
236.686	13.17
236.904	11.45
237.123	19.82
237.341	16.53
237.559	8.31
237.778	18.76
237.996	-3.01
238.215	-78.23
238.433	-112.38
238.652	-54.05
238.87	-55.22
239.088	-30.42
239.307	7.61
239.525	21.56
239.743	16.99
239.962	11.16
240.18	23.86
240.398	25.57
240.617	5.31
240.835	-2.97
241.053	-11.59
241.271	-27.43
241.49	-11.34
241.708	-16.16
241.926	-23.75
242.144	-10.2
242.363	-24.2
242.581	-74.43
242.799	3.29
243.017	23.5
243.235	15.9
243.453	25.04
243.672	12.17
243.89	10.78
244.108	26.69
244.326	36.09
244.544	47.4
244.762	46.79
244.98	34.09
245.198	30.7
245.416	25.18
245.634	16.61
245.852	14.88
246.07	32.65
246.288	26.09
246.506	24.94
246.724	14.75
246.942	13.54
247.16	13.96
247.378	-11.94
247.596	-9.18
247.814	-5.1
248.032	-19.03
248.25	7.33
248.468	22.93
248.685	21.55
248.903	13.16
249.121	18.87
249.339	9.27
249.557	8.78
249.775	21.46
249.992	28.99
250.21	29.75
250.428	29.11
250.646	31.86
250.863	8.98
251.081	4.19
251.299	6.51
251.517	10.64
251.734	9.36
251.952	20.54
252.17	27.31
252.387	5.3
252.605	-0.83
252.823	-29.25
253.04	-29.66
253.258	-25.58
253.475	2.75
253.693	-5.18
253.911	6.15
254.128	4.4
254.346	10.08
254.563	17.02
254.781	19.34
254.998	16.06
255.216	-1.91
255.433	-34.28
255.651	-29.65
255.868	-30.59
256.086	-16.73
256.303	6.75
256.521	19.61
256.738	15.39
256.956	20.48
257.173	7.7
257.39	4.73
257.608	-1.61
257.825	-0.34
258.043	10.34
258.26	10.38
258.477	4.97
258.695	11.03
258.912	2.79
259.129	-10.51
259.346	-1.62
259.564	12.44
259.781	-4.98
259.998	16.19
260.216	29.72
260.433	4.41
260.65	-2.24
260.867	12.59
261.084	5.59
261.302	-15.85
261.519	18.98
261.736	14.51
261.953	4.78
262.17	19.47
262.387	16.4
262.604	7.41
262.822	18.08
263.039	23.1
263.256	12.73
263.473	9.35
263.69	16.02
263.907	16.15
264.124	15.85
264.341	34.08
264.558	47.71
264.775	43.3
264.992	44.93
265.209	28.42
265.426	5.42
265.643	-8.27
265.86	-8.21
266.077	-5.46
266.294	20.49
266.51	42.69
266.727	43.12
266.944	52.07
267.161	39.2
267.378	41.16
267.595	17.78
267.812	17.48
268.028	22.22
268.245	26.13
268.462	8.77
268.679	22.9
268.896	28.68
269.112	10.29
269.329	-0.27
269.546	28.79
269.763	16.88
269.979	-1.38
270.196	6.69
270.413	8.51
270.629	-19.3
270.846	-13.39
271.063	8.71
271.279	15.79
271.496	25.29
271.712	32.65
271.929	32.35
272.146	21.6
272.362	2.81
272.579	-12.51
272.795	-10.51
273.012	5.64
273.228	16.36
273.445	16.16
273.661	25.33
273.878	0.15
274.094	-10.5
274.311	-7.74
274.527	-32.74
274.744	-6.3
274.96	21.87
275.177	12.26
275.393	15.66
275.609	31.41
275.826	30.84
276.042	17.8
276.259	20.15
276.475	18.84
276.691	6.45
276.908	-10.06
277.124	-5.61
277.34	-13.09
277.557	-18.97
277.773	-12.82
277.989	7.84
278.205	20.58
278.422	10.09
278.638	24.94
278.854	5.33
279.07	8.48
279.286	0.9
279.503	10.37
279.719	0.37
279.935	9.31
280.151	-2.54
280.367	7.59
280.583	13.57
280.799	7.37
281.016	-9.7
281.232	3
281.448	-16.63
281.664	-19.46
281.88	-5.58
282.096	15.93
282.312	14.6
282.528	17.12
282.744	29.57
282.96	20.4
283.176	-9.08
283.392	-54.71
283.608	-39.53
283.824	-58.35
284.04	-103.15
284.256	-27.45
284.471	0.11
284.687	7.57
284.903	4.9
285.119	32.27
285.335	29.07
285.551	33.72
285.767	27.87
285.982	35.58
286.198	-4.6
286.414	-3.71
286.63	2.98
286.846	-18.75
287.061	1.34
287.277	7.7
287.493	-9.96
287.709	-39.77
287.924	-5.25
288.14	8.07
288.356	24.47
288.571	34.56
288.787	42.58
289.003	42.25
289.218	23.05
289.434	12.92
289.65	15.46
289.865	8.37
290.081	4.89
290.296	7.18
290.512	5.48
290.727	-6.16
290.943	-1.94
291.159	-9.49
291.374	-31.78
291.59	-29.33
291.805	-38.87
292.021	-24.24
292.236	-20.98
292.451	6.1
292.667	10.5
292.882	29.55
293.098	30.31
293.313	26.77
293.529	19.64
293.744	13.18
293.959	6.84
294.175	0.12
294.39	-13.19
294.605	7.36
294.821	7.71
295.036	2.47
295.251	12.9
295.467	9.91
295.682	-2.39
295.897	-13.69
296.112	-21.9
296.328	-12.26
296.543	-13
296.758	-10
296.973	-7.7
297.188	0.54
297.404	-50.51
297.619	-44.79
297.834	-72.7
298.049	-32.03
298.264	-29.18
298.479	-0.32
298.694	16.24
298.909	28.41
299.125	18.1
299.34	25.66
299.555	26.79
299.77	31.74
299.985	27.11
300.2	37.96
300.415	35.89
300.63	35.18
300.845	25.66
301.06	21.62
301.275	8.11
301.49	7.12
301.704	-3.73
301.919	-11.14
302.134	-21.71
302.349	-3.28
302.564	-5.04
302.779	-13.55
302.994	17.5
303.209	32.41
303.423	27.44
303.638	38.67
303.853	48.5
304.068	14.24
304.283	10.92
304.497	-8.56
304.712	2.35
304.927	13.42
305.142	26.79
305.356	33.84
305.571	34.96
305.786	21.92
306	22.44
306.215	22.2
306.43	4.49
306.644	-1.72
306.859	-3.9
307.074	-5.99
307.288	-5.01
307.503	3.82
307.717	15.19
307.932	15.7
308.147	9.63
308.361	6.97
308.576	-10.06
308.79	-10.26
309.005	-11.31
309.219	7.77
309.434	11.34
309.648	18.67
309.863	10.47
310.077	6.33
310.292	3.51
310.506	-12.79
310.72	-16.63
310.935	-0.38
311.149	-6.77
311.364	-12.29
311.578	7.81
311.792	11.15
312.007	17.31
312.221	18.12
312.435	23.05
312.649	18.23
312.864	33.19
313.078	18.08
313.292	29.56
313.507	29.07
313.721	28.77
313.935	17.93
314.149	27.8
314.363	30.76
314.578	29.59
314.792	6.98
315.006	7.25
315.22	6.73
315.434	8.14
315.648	3
315.862	23.33
316.077	13.9
316.291	22.47
316.505	-0.29
316.719	0.14
316.933	-6.95
317.147	4.85
317.361	0.48
317.575	14.89
317.789	17.72
318.003	8.22
318.217	12.1
318.431	-9.22
318.645	-17.02
318.859	-16.31
319.073	7.47
319.287	-2.06
319.5	12.2
319.714	13.27
319.928	18.37
320.142	2.07
320.356	16.21
320.57	-0.56
320.784	16.61
320.997	-5.34
321.211	13.73
321.425	-9.02
321.639	9.72
321.853	7.16
322.066	8.23
322.28	-6.87
322.494	6.73
322.707	4.94
322.921	1.18
323.135	8.09
323.349	6.77
323.562	11.45
323.776	0.58
323.989	10.16
324.203	1.98
324.417	6.2
324.63	-11.16
324.844	-17.62
325.057	-43.66
325.271	-24.11
325.485	-22.39
325.698	9.99
325.912	38.38
326.125	29.08
326.339	24.55
326.552	20.12
326.766	0.98
326.979	-3.01
327.193	11.05
327.406	7.12
327.619	8.02
327.833	14.32
328.046	1.7
328.26	-2.3
328.473	3.49
328.686	17.48
328.9	24.48
329.113	26.04
329.326	29.38
329.54	35.57
329.753	38.37
329.966	32.53
330.179	38.37
330.393	52.04
330.606	53.93
330.819	49.2
331.032	41.38
331.246	36.8
331.459	40.88
331.672	30.58
331.885	8.53
332.098	24.23
332.311	15.55
332.525	-0.31
332.738	5.57
332.951	3.29
333.164	0.08
333.377	6.26
333.59	7.33
333.803	13.67
334.016	30.38
334.229	28.29
334.442	18.97
334.655	19.83
334.868	13.23
335.081	10.33
335.294	0.89
335.507	13.18
335.72	-4.15
335.933	-5.38
336.146	-11.11
336.359	4.7
336.572	-6.96
336.785	-3
336.997	-23.1
337.21	-14.48
337.423	-19.77
337.636	-1.85
337.849	0.51
338.062	13.83
338.274	10.89
338.487	-18.48
338.7	-19.5
338.913	-10.43
339.125	-29.89
339.338	-16.56
339.551	14.37
339.763	6.73
339.976	13.46
340.189	25.32
340.402	27.71
340.614	28.78
340.827	27.74
341.039	16.21
341.252	11.86
341.465	0.26
341.677	-1.04
341.89	-8.43
342.102	5.57
342.315	-2.14
342.527	1.37
342.74	-2.36
342.952	-3.36
343.165	-11.19
343.377	-3.26
343.59	9.11
343.802	6.65
344.015	31.7
344.227	30.19
344.44	26.2
344.652	0.24
344.864	13.57
345.077	11.53
345.289	16.28
345.502	31.92
345.714	45.51
345.926	38.4
346.139	6.03
346.351	18.01
346.563	13.56
346.775	15.88
346.988	22.8
347.2	34.45
347.412	30.07
347.624	30.17
347.837	30.47
348.049	15.98
348.261	-0.32
348.473	-11.89
348.685	-22.02
348.897	-29.95
349.11	-22.5
349.322	7.02
349.534	1.89
349.746	-3.62
349.958	-9.38
350.17	-19.67
350.382	-37.13
350.594	-16.35
350.806	25.47
351.018	30.52
351.23	43.04
351.442	42.91
351.654	37.86
351.866	6.69
352.078	21.73
352.29	17.22
352.502	16.43
352.714	7.53
352.926	12
353.138	7.34
353.35	-1.44
353.561	7.06
353.773	9.13
353.985	13.31
354.197	1.42
354.409	0.84
354.621	-22.19
354.832	-24.33
355.044	-38.61
355.256	-35.47
355.468	-44.51
355.679	-6.1
355.891	5.01
356.103	13.94
356.314	7.5
356.526	1.85
356.738	-13.1
356.949	-18.77
357.161	-7.17
357.373	-5.89
357.584	10.49
357.796	15.41
358.008	21.96
358.219	17.95
358.431	15.37
358.642	8.02
358.854	13.36
359.065	-4.65
359.277	-1.71
359.488	1.29
359.7	6.18
359.911	-8.68
360.123	11.99
360.334	5.84
360.546	4.31
360.757	4.26
360.969	12.18
361.18	3.72
361.391	4.05
361.603	10.01
361.814	24.04
362.025	32.2
362.237	29.61
362.448	36.74
362.659	33.67
362.871	8.83
363.082	-7.74
363.293	-14.14
363.504	-45.22
363.716	-35.84
363.927	-2.57
364.138	-17.88
364.349	-14.6
364.56	-6.46
364.772	-2.73
364.983	2.23
365.194	23.16
365.405	25.54
365.616	38.97
365.827	21.8
366.038	23.27
366.25	26.3
366.461	16.71
366.672	8.13
366.883	10.2
367.094	1.43
367.305	-10.94
367.516	2.22
367.727	-12.11
367.938	-0.05
368.149	-9.85
368.36	-16.45
368.571	-28.76
368.781	-22.32
368.992	-30.99
369.203	-21.02
369.414	-22.62
369.625	-18.34
369.836	16.3
370.047	27.7
370.258	43.96
370.468	47.6
370.679	41.45
370.89	16.47
371.101	3.73
371.312	-9.71
371.522	-4.75
371.733	1.21
371.944	-7.28
372.155	-15.56
372.365	0.9
372.576	-19.34
372.787	-11.44
372.997	-12.29
373.208	1.24
373.419	-13.51
373.629	-7.2
373.84	-16.86
374.05	-14.73
374.261	-18.6
374.472	-21.36
374.682	-13.53
374.893	-18.35
375.103	5.87
375.314	8.4
375.524	22.61
375.735	22.56
375.945	20.35
376.156	6.51
376.366	3.61
376.577	-9.77
376.787	-10.36
376.997	-3.57
377.208	1.91
377.418	8.69
377.629	12.88
377.839	17.68
378.049	22.12
378.26	18.06
378.47	10.33
378.68	9.42
378.89	1.62
379.101	0.07
379.311	0.28
379.521	1.08
379.732	12.77
379.942	11.1
380.152	8.48
380.362	3.48
380.572	10.88
380.783	9.99
380.993	13.18
381.203	12.48
381.413	19.88
381.623	15.24
381.833	10.82
382.043	13.58
382.253	18.63
382.463	27.23
382.674	31.73
382.884	25.98
383.094	21.34
383.304	22.91
383.514	10.25
383.724	3.71
383.934	-1.51
384.144	3.7
384.353	1.95
384.563	10.22
384.773	14.19
384.983	15.8
385.193	11.69
385.403	6.24
385.613	1.89
385.823	0.34
386.033	-0.52
386.242	-4.69
386.452	-6.4
386.662	-4.08
386.872	3.91
387.082	2.82
387.291	4.37
387.501	6.91
387.711	6.69
387.921	2.74
388.13	6.03
388.34	8.12
388.55	5.8
388.759	-0.02
388.969	-3.76
389.179	-0.58
389.388	-1.38
389.598	-0.71
389.807	-3.38
390.017	-1.42
390.227	-4.39
390.436	-2.46
390.646	-3.38
390.855	3.23
391.065	0.59
391.274	0.77
391.484	-2.43
391.693	-0.41
391.903	-2.08
392.112	1.3
392.322	2.04
392.531	3.17
392.74	0.88
392.95	2.49
393.159	0.85
393.369	-0.29
393.578	-0.14
393.787	1.26
393.997	0.01
394.206	-0.58
394.415	0.24
394.625	0.71
394.834	-0.14
395.043	1.37
395.252	4.25
395.462	5.67
395.671	6.09
395.88	7.24
396.089	5.9
396.298	4.81
396.508	3.92
396.717	3.42
396.926	2.72
397.135	3.25
397.344	2.63
397.553	2.42
397.762	3.39
397.971	3.46
398.181	3.9
398.39	4.12
398.599	4.36
398.808	4.08
399.017	4.6
399.226	4.74
399.435	4.55
399.644	4.95
399.853	4.64
400.062	4.72
400.27	4.22
400.479	4.49
400.688	4.4
400.897	4.51
401.106	4.45
401.315	4.41
401.524	4.55
401.733	4.28
401.941	4.68
402.15	4.47
402.359	4.6
402.568	4.73
402.777	5.02
402.985	4.62
403.194	4.57
403.403	4.64
403.612	4.32
403.82	4.04
404.029	4.09
404.238	4.21
404.446	4.25
404.655	4.29
404.864	4.37
405.072	4.4
405.281	4.39
405.489	4.22
405.698	4.27
405.906	4.4
406.115	4.32
406.324	4.34
406.532	4.49
406.741	4.62
406.949	4.64
407.158	4.73
407.366	4.7
407.574	4.74
407.783	4.57
407.991	4.49
408.2	4.53
408.408	4.57
408.617	4.5
408.825	4.46
409.033	4.4
409.242	4.46
409.45	4.42
409.658	4.3
409.867	4.4
410.075	4.46
410.283	4.26
410.491	4.22
410.7	4.15
410.908	4.3
411.116	4.34
411.324	4.41
411.533	4.3
411.741	4.44
411.949	4.31
412.157	4.19
412.365	4.3
412.573	4.33
412.781	4.39
412.99	4.35
413.198	4.36
413.406	4.42
413.614	4.59
413.822	4.55
414.03	4.5
414.238	4.55
414.446	4.39
414.654	4.15
414.862	4.16
415.07	4.21
415.278	4.25
415.486	4.07
415.694	4.25
415.902	4.17
416.109	4.08
416.317	3.96
416.525	4.03
416.733	3.81
416.941	3.88
417.149	3.76
417.357	3.79
417.564	3.77
417.772	4.1
417.98	4.09
418.188	4.18
418.395	4.09
418.603	4
418.811	3.81
419.019	3.8
419.226	3.91
419.434	3.91
419.642	3.92
419.849	3.84
420.057	3.82
420.265	3.76
420.472	3.8
420.68	3.96
420.887	3.95
421.095	4
421.302	3.95
421.51	3.93
421.717	3.89
421.925	3.88
422.132	3.82
422.34	3.66
422.547	3.73
422.755	3.85
422.962	3.9
423.17	3.77
423.377	3.92
423.585	4
423.792	3.82
423.999	3.89
424.207	3.76
424.414	3.73
424.621	3.62
424.829	3.7
425.036	3.67
425.243	3.82
425.451	3.91
425.658	3.84
425.865	3.72
426.072	3.75
426.28	3.87
426.487	3.76
426.694	3.72
426.901	3.78
427.108	3.71
427.315	3.62
427.523	3.54
427.73	3.6
427.937	3.4
428.144	3.32
428.351	3.34
428.558	3.47
428.765	3.39
428.972	3.58
429.179	3.43
429.386	3.47
429.593	3.34
429.8	3.3
430.007	3.33
430.214	3.58
430.421	3.55
430.628	3.56
430.835	3.58
431.042	3.58
431.249	3.46
431.456	3.39
431.662	3.5
431.869	3.7
432.076	3.65
432.283	3.74
432.49	3.84
432.697	3.8
432.903	3.64
433.11	3.74
433.317	3.73
433.524	3.74
433.73	3.67
433.937	3.86
434.144	3.79
434.35	3.71
434.557	3.69
434.764	3.73
434.97	3.5
435.177	3.65
435.384	3.74
435.59	3.77
435.797	3.84
436.003	3.9
436.21	3.71
436.416	3.75
436.623	3.67
436.829	3.56
437.036	3.59
437.242	3.62
437.449	3.56
437.655	3.63
437.862	3.74
438.068	3.82
438.275	3.83
438.481	3.83
438.687	3.8
438.894	3.88
439.1	3.73
439.307	3.84
439.513	3.88
439.719	3.98
439.926	3.94
440.132	4.07
440.338	3.98
440.544	3.98
440.751	3.84
440.957	3.9
441.163	3.81
441.369	3.77
441.575	3.71
441.782	3.82
441.988	3.75
442.194	3.71
442.4	3.75
442.606	3.83
442.812	3.81
443.018	3.84
443.224	4.03
443.431	4.13
443.637	4.05
443.843	4.09
444.049	4.14
444.255	4.15
444.461	4.04
444.667	4.07
444.873	4.07
445.079	3.98
445.284	3.92
445.49	3.88
445.696	3.86
445.902	3.75
446.108	3.85
446.314	3.77
446.52	3.94
446.726	4.01
446.931	4.01
447.137	3.92
447.343	4.01
447.549	3.97
447.755	3.94
447.96	4.03
448.166	4.1
448.372	4.04
448.578	3.95
448.783	3.89
448.989	3.89
449.195	3.94
449.4	4.05
449.606	4.15
449.812	4.14
450.017	4.15
450.223	4.05
450.428	3.96
450.634	3.91
450.84	3.93
451.045	3.97
451.251	4.11
451.456	4.15
451.662	4.2
451.867	4.28
452.073	4.24
452.278	4.14
452.483	4.05
452.689	3.93
452.894	3.98
453.1	3.92
453.305	3.91
453.51	4.02
453.716	4.09
453.921	4.14
454.127	4.14
454.332	4.16
454.537	4.05
454.742	4.04
454.948	3.92
455.153	3.99
455.358	3.96
455.563	4.01
455.769	4.09
455.974	4.06
456.179	3.99
456.384	3.93
456.589	3.92
456.795	3.81
457	3.87
457.205	3.86
457.41	3.89
457.615	3.81
457.82	3.89
458.025	3.83
458.23	3.85
458.435	3.9
458.64	3.96
458.845	3.96
459.05	4.01
459.255	3.99
459.46	3.96
459.665	4
459.87	3.9
460.075	3.91
460.28	3.95
460.485	4
460.69	3.96
460.895	4.06
461.099	3.92
461.304	3.82
461.509	3.83
461.714	3.92
461.919	3.82
462.123	3.95
462.328	3.93
462.533	3.82
462.738	3.72
462.942	3.77
463.147	3.8
463.352	3.93
463.556	4
463.761	4.02
463.966	3.98
464.17	4.08
464.375	4.08
464.58	4.02
464.784	4.03
464.989	4.08
465.193	3.9
465.398	3.87
465.602	4.02
465.807	4.04
466.011	4.08
466.216	4.05
466.42	4.1
466.625	4.12
466.829	4.12
467.034	4.15
467.238	4.26
467.443	4.21
467.647	4.07
467.851	4.13
468.056	4.09
468.26	4
468.464	4.03
468.669	4.17
468.873	4.15
469.077	4.12
469.282	4.15
469.486	4.17
469.69	4.08
469.894	4.11
470.099	4.18
470.303	4.16
470.507	4.16
470.711	4.2
470.915	4.17
471.119	4.17
471.324	4.29
471.528	4.4
471.732	4.47
471.936	4.54
472.14	4.55
472.344	4.61
472.548	4.59
472.752	4.5
472.956	4.51
473.16	4.51
473.364	4.44
473.568	4.36
473.772	4.44
473.976	4.45
474.18	4.5
474.384	4.47
474.588	4.56
474.792	4.49
474.995	4.48
475.199	4.44
475.403	4.49
475.607	4.52
475.811	4.57
476.015	4.52
476.218	4.52
476.422	4.54
476.626	4.53
476.83	4.63
477.033	4.72
477.237	4.72
477.441	4.75
477.644	4.73
477.848	4.7
478.052	4.69
478.255	4.71
478.459	4.65
478.663	4.74
478.866	4.77
479.07	4.73
479.273	4.82
479.477	4.84
479.681	4.81
479.884	4.75
480.088	4.77
480.291	4.73
480.495	4.76
480.698	4.78
480.901	4.83
481.105	4.85
481.308	4.88
481.512	4.92
481.715	4.98
481.919	5.04
482.122	5.1
482.325	5.16
482.529	5.14
482.732	5.05
482.935	4.96
483.138	4.92
483.342	4.88
483.545	4.97
483.748	5.11
483.952	5.14
484.155	5.16
484.358	5.05
484.561	4.98
484.764	4.89
484.967	4.91
485.171	4.88
485.374	4.93
485.577	5
485.78	5.03
485.983	4.99
486.186	4.99
486.389	5.04
486.592	4.96
486.795	4.99
486.998	4.97
487.201	5.05
487.404	5.2
487.607	5.28
487.81	5.24
488.013	5.25
488.216	5.25
488.419	5.08
488.622	4.96
488.825	4.96
489.028	5.03
489.231	5.01
489.433	5.11
489.636	5.18
489.839	5.23
490.042	5.2
490.245	5.17
490.447	5.06
490.65	5.03
490.853	5.05
491.056	5.05
491.258	5.1
491.461	5.12
491.664	5.13
491.866	5.03
492.069	5.06
492.272	4.98
492.474	4.99
492.677	4.99
492.879	5.04
493.082	5.05
493.285	5.21
493.487	5.24
493.69	5.21
493.892	5.18
494.095	5.14
494.297	5.1
494.5	5.09
494.702	5.18
494.905	5.2
495.107	5.24
495.309	5.26
495.512	5.27
495.714	5.25
495.917	5.29
496.119	5.33
496.321	5.32
496.524	5.25
496.726	5.19
496.928	5.15
497.13	5.09
497.333	5.1
497.535	5.21
497.737	5.29
497.939	5.33
498.142	5.33
498.344	5.34
498.546	5.36
498.748	5.46
498.95	5.54
499.152	5.56
499.355	5.58
499.557	5.54
499.759	5.52
499.961	5.53
500.163	5.6
500.365	5.61
500.567	5.63
500.769	5.64
500.971	5.6
501.173	5.58
501.375	5.68
501.577	5.71
501.779	5.68
501.981	5.75
502.183	5.74
502.385	5.68
502.587	5.65
502.788	5.73
502.99	5.72
503.192	5.74
503.394	5.78
503.596	5.81
503.798	5.75
503.999	5.75
504.201	5.83
504.403	5.88
504.605	5.93
504.806	6.04
505.008	6.09
505.21	6.1
505.411	6.12
505.613	6.17
505.815	6.19
506.016	6.25
506.218	6.27
506.42	6.28
506.621	6.34
506.823	6.36
507.024	6.31
507.226	6.33
507.427	6.35
507.629	6.28
507.83	6.31
508.032	6.29
508.233	6.31
508.435	6.3
508.636	6.44
508.838	6.46
509.039	6.54
509.24	6.64
509.442	6.69
509.643	6.63
509.845	6.67
510.046	6.68
510.247	6.67
510.448	6.74
510.65	6.8
510.851	6.78
511.052	6.82
511.254	6.84
511.455	6.82
511.656	6.78
511.857	6.78
512.058	6.83
512.26	6.8
512.461	6.76
512.662	6.8
512.863	6.73
513.064	6.71
513.265	6.7
513.466	6.79
513.667	6.87
513.868	6.94
514.069	6.93
514.27	6.99
514.471	6.92
514.672	6.99
514.873	7.12
515.074	7.15
515.275	7.12
515.476	7.21
515.677	7.11
515.878	7.08
516.079	7.1
516.28	7.17
516.481	7.18
516.682	7.19
516.882	7.23
517.083	7.21
517.284	7.22
517.485	7.16
517.686	7.21
517.886	7.15
518.087	7.11
518.288	7.18
518.488	7.22
518.689	7.2
518.89	7.21
519.091	7.32
519.291	7.31
519.492	7.28
519.692	7.32
519.893	7.35
520.094	7.3
520.294	7.3
520.495	7.34
520.695	7.36
520.896	7.36
521.096	7.42
521.297	7.44
521.497	7.44
521.698	7.39
521.898	7.39
522.099	7.41
522.299	7.41
522.499	7.46
522.7	7.5
522.9	7.59
523.101	7.55
523.301	7.58
523.501	7.57
523.702	7.59
523.902	7.56
524.102	7.64
524.302	7.66
524.503	7.7
524.703	7.73
524.903	7.71
525.103	7.66
525.304	7.63
525.504	7.63
525.704	7.6
525.904	7.58
526.104	7.6
526.304	7.61
526.504	7.62
526.705	7.65
526.905	7.69
527.105	7.73
527.305	7.75
527.505	7.74
527.705	7.78
527.905	7.9
528.105	7.84
528.305	7.85
528.505	7.85
528.705	7.91
528.905	7.85
529.105	7.92
529.304	7.98
529.504	8.02
529.704	8.01
529.904	8
530.104	8.01
530.304	8.01
530.503	8.06
530.703	8.02
530.903	8.04
531.103	8.13
531.303	8.12
531.502	8.18
531.702	8.23
531.902	8.36
532.101	8.3
532.301	8.31
532.501	8.34
532.7	8.38
532.9	8.35
533.1	8.36
533.299	8.39
533.499	8.3
533.698	8.27
533.898	8.27
534.097	8.32
534.297	8.32
534.496	8.35
534.696	8.41
534.895	8.42
535.095	8.44
535.294	8.5
535.494	8.53
535.693	8.54
535.892	8.55
536.092	8.56
536.291	8.56
536.491	8.55
536.69	8.6
536.889	8.59
537.088	8.57
537.288	8.53
537.487	8.57
537.686	8.54
537.886	8.59
538.085	8.67
538.284	8.78
538.483	8.83
538.682	8.85
538.882	8.95
539.081	8.98
539.28	8.98
539.479	8.98
539.678	9.03
539.877	8.96
540.076	8.96
540.275	9.02
540.474	8.98
540.673	9.07
540.872	9.05
541.071	9.1
541.27	9.13
541.469	9.22
541.668	9.21
541.867	9.35
542.066	9.34
542.265	9.4
542.464	9.45
542.663	9.53
542.862	9.61
543.06	9.73
543.259	9.82
543.458	9.9
543.657	9.96
543.856	9.99
544.054	9.98
544.253	10
544.452	9.99
544.651	10.02
544.849	10.02
545.048	10.1
545.247	10.13
545.445	10.24
545.644	10.23
545.843	10.28
546.041	10.29
546.24	10.3
546.438	10.3
546.637	10.38
546.836	10.47
547.034	10.49
547.233	10.57
547.431	10.6
547.63	10.59
547.828	10.56
548.027	10.64
548.225	10.64
548.423	10.68
548.622	10.76
548.82	10.82
549.019	10.83
549.217	10.92
549.415	11
549.614	11.1
549.812	11.21
550.01	11.25
550.209	11.27
550.407	11.35
550.605	11.29
550.803	11.33
551.002	11.45
551.2	11.48
551.398	11.56
551.596	11.67
551.794	11.7
551.993	11.69
552.191	11.78
552.389	11.78
552.587	11.85
552.785	11.91
552.983	12.08
553.181	12.17
553.379	12.26
553.577	12.32
553.775	12.44
553.973	12.47
554.171	12.55
554.369	12.59
554.567	12.7
554.765	12.68
554.963	12.75
555.161	12.79
555.359	12.91
555.557	12.94
555.755	13.07
555.952	13.12
556.15	13.24
556.348	13.3
556.546	13.44
556.744	13.51
556.941	13.56
557.139	13.64
557.337	13.7
557.535	13.73
557.732	13.83
557.93	13.93
558.128	13.96
558.325	14.05
558.523	14.16
558.721	14.26
558.918	14.41
559.116	14.54
559.313	14.64
559.511	14.73
559.708	14.76
559.906	14.86
560.104	14.9
560.301	15.01
560.498	15.08
560.696	15.19
560.893	15.25
561.091	15.37
561.288	15.47
561.486	15.49
561.683	15.55
561.88	15.68
562.078	15.77
562.275	15.84
562.473	16
562.67	16.11
562.867	16.18
563.064	16.25
563.262	16.27
563.459	16.38
563.656	16.48
563.853	16.51
564.051	16.61
564.248	16.7
564.445	16.77
564.642	16.82
564.839	16.97
565.036	17.06
565.234	17.22
565.431	17.29
565.628	17.38
565.825	17.46
566.022	17.6
566.219	17.66
566.416	17.85
566.613	17.98
566.81	18.04
567.007	18.03
567.204	18.03
567.401	18.08
567.598	18.15
567.795	18.18
567.991	18.23
568.188	18.36
568.385	18.35
568.582	18.39
568.779	18.44
568.976	18.52
569.172	18.61
569.369	18.65
569.566	18.7
569.763	18.68
569.96	18.8
570.156	18.86
570.353	18.88
570.55	18.94
570.746	19.05
570.943	19.1
571.14	19.05
571.336	19.15
571.533	19.2
571.729	19.22
571.926	19.17
572.123	19.27
572.319	19.29
572.516	19.4
572.712	19.46
572.909	19.45
573.105	19.42
573.302	19.47
573.498	19.32
573.695	19.35
573.891	19.38
574.087	19.39
574.284	19.4
574.48	19.42
574.677	19.46
574.873	19.56
575.069	19.66
575.266	19.73
575.462	19.79
575.658	19.84
575.854	19.85
576.051	19.83
576.247	19.77
576.443	19.76
576.639	19.68
576.835	19.6
577.032	19.56
577.228	19.56
577.424	19.63
577.62	19.66
577.816	19.67
578.012	19.64
578.208	19.65
578.404	19.58
578.6	19.61
578.796	19.66
578.993	19.71
579.189	19.68
579.384	19.71
579.58	19.66
579.776	19.63
579.972	19.7
580.168	19.69
580.364	19.64
580.56	19.6
580.756	19.53
580.952	19.45
581.148	19.41
581.343	19.42
581.539	19.41
581.735	19.42
581.931	19.33
582.127	19.3
582.322	19.25
582.518	19.24
582.714	19.28
582.909	19.26
583.105	19.25
583.301	19.28
583.496	19.24
583.692	19.1
583.888	19.15
584.083	19.15
584.279	19.06
584.474	19.04
584.67	19.09
584.866	19.04
585.061	19
585.257	19
585.452	18.98
585.648	18.86
585.843	18.88
586.039	18.93
586.234	18.97
586.429	18.94
586.625	19.1
586.82	19.15
587.015	19.13
587.211	19.07
587.406	19.08
587.601	19.04
587.797	18.96
587.992	18.9
588.187	18.85
588.383	18.94
588.578	18.9
588.773	18.95
588.968	19.02
589.163	19.09
589.359	19.04
589.554	19.01
589.749	18.97
589.944	19.01
590.139	18.95
590.334	18.94
590.529	18.99
590.724	19.01
590.919	19.03
591.114	19.12
591.309	19.17
591.504	19.15
591.699	19.05
591.894	18.96
592.089	18.97
592.284	18.94
592.479	18.99
592.674	19.17
592.869	19.29
593.064	19.38
593.259	19.49
593.454	19.51
593.648	19.47
593.843	19.41
594.038	19.4
594.233	19.36
594.428	19.42
594.622	19.49
594.817	19.67
595.012	19.72
595.206	19.84
595.401	19.93
595.596	19.93
595.79	19.9
595.985	19.86
596.18	19.89
596.374	20.03
596.569	20.15
596.763	20.19
596.958	20.28
597.153	20.32
597.347	20.22
597.542	20.25
597.736	20.3
597.931	20.4
598.125	20.5
598.319	20.64
598.514	20.68
598.708	20.81
598.903	20.8
599.097	20.81
599.291	20.8
599.486	20.84
599.68	20.85
599.874	20.99
600.069	21.08
600.263	21.14
600.457	21.24
600.651	21.31
600.846	21.32
601.04	21.32
601.234	21.34
601.428	21.39
601.622	21.39
601.817	21.42
602.011	21.49
602.205	21.55
602.399	21.42
602.593	21.39
602.787	21.3
602.981	21.27
603.175	21.28
603.369	21.4
603.563	21.39
603.757	21.45
603.951	21.44
604.145	21.34
604.339	21.3
604.533	21.34
604.727	21.35
604.921	21.3
605.115	21.29
605.309	21.24
605.502	21.29
605.696	21.22
605.89	21.21
606.084	21.22
606.278	21.23
606.471	21.07
606.665	20.99
606.859	20.94
607.053	20.84
607.246	20.82
607.44	20.8
607.634	20.73
607.827	20.69
608.021	20.64
608.214	20.52
608.408	20.38
608.602	20.3
608.795	20.28
608.989	20.26
609.182	20.21
609.376	20.18
609.569	20.15
609.763	20.04
609.956	19.99
610.15	19.92
610.343	19.84
610.537	19.79
610.73	19.61
610.923	19.5
611.117	19.46
611.31	19.44
611.504	19.44
611.697	19.51
611.89	19.5
612.083	19.29
612.277	19.26
612.47	19.1
612.663	18.98
612.856	18.88
613.05	18.88
613.243	18.73
613.436	18.72
613.629	18.66
613.822	18.56
614.015	18.5
614.209	18.43
614.402	18.31
614.595	18.29
614.788	18.22
614.981	18.14
615.174	18.08
615.367	18.01
615.56	17.84
615.753	17.93
615.946	17.94
616.139	17.89
616.332	17.9
616.525	17.98
616.718	17.77
616.911	17.68
617.103	17.67
617.296	17.59
617.489	17.45
617.682	17.46
617.875	17.45
618.067	17.34
618.26	17.29
618.453	17.24
618.646	17.23
618.838	17.2
619.031	17.13
619.224	17.08
619.417	17.03
619.609	17.05
619.802	17.04
619.994	17.2
620.187	17.1
620.38	17.03
620.572	16.88
620.765	16.77
620.957	16.69
621.15	16.72
621.342	16.82
621.535	16.83
621.727	16.81
621.92	16.71
622.112	16.71
622.305	16.67
622.497	16.57
622.69	16.59
622.882	16.57
623.074	16.61
623.267	16.5
623.459	16.47
623.651	16.4
623.844	16.37
624.036	16.37
624.228	16.38
624.42	16.39
624.613	16.36
624.805	16.35
624.997	16.29
625.189	16.28
625.381	16.27
625.574	16.18
625.766	16.13
625.958	16.1
626.15	16.1
626.342	16.1
626.534	16.14
626.726	16.07
626.918	16.02
627.11	15.98
627.302	15.93
627.494	15.94
627.686	15.95
627.878	15.92
628.07	15.88
628.262	15.87
628.454	15.81
628.646	15.8
628.838	15.74
629.029	15.68
629.221	15.65
629.413	15.61
629.605	15.5
629.797	15.54
629.989	15.57
630.18	15.57
630.372	15.56
630.564	15.58
630.755	15.5
630.947	15.45
631.139	15.41
631.33	15.38
631.522	15.37
631.714	15.4
631.905	15.34
632.097	15.26
632.289	15.18
632.48	15.13
632.672	15.15
632.863	15.1
633.055	15.1
633.246	15.13
633.438	15.11
633.629	15.07
633.821	15.1
634.012	15.07
634.203	15.05
634.395	15.03
634.586	15.01
634.777	14.95
634.969	14.99
635.16	14.98
635.351	14.99
635.543	14.95
635.734	14.98
635.925	14.95
636.117	14.96
636.308	15
636.499	14.94
636.69	14.91
636.881	14.82
637.073	14.84
637.264	14.81
637.455	14.82
637.646	14.81
637.837	14.91
638.028	14.88
638.219	14.88
638.41	14.92
638.601	14.92
638.792	14.9
638.983	14.84
639.174	14.74
639.365	14.75
639.556	14.66
639.747	14.52
639.938	14.55
640.129	14.61
640.32	14.57
640.511	14.53
640.701	14.63
640.892	14.6
641.083	14.54
641.274	14.45
641.465	14.46
641.655	14.44
641.846	14.46
642.037	14.42
642.228	14.32
642.418	14.31
642.609	14.21
642.8	14.14
642.99	14.13
643.181	14.19
643.372	14.19
643.562	14.24
643.753	14.19
643.943	14.12
644.134	14.04
644.324	14.07
644.515	13.99
644.705	14.04
644.896	14.11
645.086	14.05
645.277	13.98
645.467	13.99
645.658	13.85
645.848	13.85
646.038	13.9
646.229	13.89
646.419	13.85
646.61	13.94
646.8	13.86
646.99	13.86
647.18	13.78
647.371	13.75
647.561	13.66
647.751	13.65
647.941	13.65
648.132	13.62
648.322	13.6
648.512	13.61
648.702	13.64
648.892	13.64
649.082	13.7
649.272	13.67
649.462	13.7
649.653	13.65
649.843	13.58
650.033	13.46
650.223	13.38
650.413	13.36
650.603	13.38
650.793	13.42
650.983	13.39
651.172	13.4
651.362	13.29
651.552	13.16
651.742	13.01
651.932	13.02
652.122	13.02
652.312	12.96
652.502	12.89
652.691	12.89
652.881	12.87
653.071	12.79
653.261	12.76
653.45	12.72
653.64	12.65
653.83	12.61
654.019	12.48
654.209	12.41
654.399	12.31
654.588	12.29
654.778	12.12
654.968	12.11
655.157	12.02
655.347	11.9
655.536	11.67
655.726	11.51
655.915	11.38
656.105	11.27
656.294	11.12
656.484	11.06
656.673	11.08
656.863	11
657.052	10.86
657.241	10.8
657.431	10.69
657.62	10.55
657.809	10.33
657.999	10.23
658.188	10.15
658.377	10.06
658.567	10
658.756	9.95
658.945	9.78
659.134	9.67
659.324	9.55
659.513	9.36
659.702	9.18
659.891	9.22
660.08	9.04
660.269	8.94
660.458	8.84
660.648	8.8
660.837	8.58
661.026	8.51
661.215	8.43
661.404	8.35
661.593	8.3
661.782	8.22
661.971	8.03
662.16	7.94
662.349	7.74
662.538	7.51
662.726	7.41
662.915	7.44
663.104	7.36
663.293	7.37
663.482	7.29
663.671	7.22
663.86	7.1
664.048	6.94
664.237	6.85
664.426	6.9
664.615	6.87
664.803	6.79
664.992	6.82
665.181	6.78
665.369	6.66
665.558	6.59
665.747	6.63
665.935	6.54
666.124	6.53
666.312	6.51
666.501	6.53
666.69	6.48
666.878	6.39
667.067	6.26
667.255	6.14
667.444	6.14
667.632	6.11
667.82	6.09
668.009	6.06
668.197	6.11
668.386	6.07
668.574	6
668.762	5.98
668.951	5.98
669.139	5.93
669.327	5.82
669.516	5.88
669.704	5.96
669.892	6
670.08	6.06
670.269	6.13
670.457	6.06
670.645	6.01
670.833	5.98
671.021	6.06
671.21	6.05
671.398	6.13
671.586	6.14
671.774	6.27
671.962	6.22
672.15	6.29
672.338	6.31
672.526	6.36
672.714	6.35
672.902	6.35
673.09	6.48
673.278	6.47
673.466	6.5
673.654	6.5
673.842	6.7
674.03	6.67
674.218	6.8
674.405	6.91
674.593	7
674.781	6.97
674.969	7.01
675.157	7.04
675.344	7.06
675.532	7.1
675.72	7.08
675.908	7.01
676.095	7.11
676.283	7.21
676.471	7.25
676.658	7.37
676.846	7.49
677.033	7.39
677.221	7.44
677.409	7.47
677.596	7.42
677.784	7.57
677.971	7.66
678.159	7.71
678.346	7.74
678.534	7.97
678.721	7.89
678.909	8.15
679.096	8.28
679.283	8.4
679.471	8.4
679.658	8.53
679.846	8.41
680.033	8.57
680.22	8.68
680.408	8.72
680.595	8.85
680.782	9.05
680.969	9.18
681.157	9.24
681.344	9.22
681.531	9.36
681.718	9.5
681.905	9.49
682.093	9.65
682.28	9.84
682.467	10.02
682.654	9.94
682.841	10.1
683.028	10.2
683.215	10.42
683.402	10.42
683.589	10.67
683.776	10.77
683.963	10.96
684.15	11.13
684.337	11.4
684.524	11.65
684.711	11.86
684.898	11.83
685.085	12.07
685.271	12.25
685.458	12.4
685.645	12.41
685.832	12.75
686.019	12.83
686.205	13.03
686.392	13.27
686.579	13.73
686.766	14.02
686.952	14.29
687.139	14.6
687.326	14.84
687.512	14.97
687.699	15.18
687.886	15.5
688.072	15.72
688.259	16.07
688.445	16.6
688.632	17.02
688.818	17.48
689.005	17.82
689.191	18.27
689.378	18.64
689.564	19.13
689.751	19.44
689.937	19.95
690.124	20.36
690.31	20.55
690.496	20.98
690.683	21.65
690.869	22.19
691.055	22.65
691.242	23.4
691.428	23.73
691.614	24.13
691.8	24.64
691.987	25.25
692.173	25.72
692.359	26.39
692.545	27.05
692.731	27.54
692.918	28.02
693.104	28.66
693.29	29.08
693.476	29.58
693.662	30.17
693.848	30.7
694.034	31.27
694.22	32.05
694.406	32.59
694.592	33.11
694.778	33.83
694.964	34.52
695.15	35.15
695.336	35.85
695.522	36.58
695.708	37.31
695.894	37.96
696.08	38.64
696.265	39.31
696.451	39.88
696.637	40.56
696.823	40.92
697.009	41.58
697.194	42.13
697.38	42.7
697.566	43.06
697.751	43.84
697.937	44.47
698.123	45.17
698.308	45.93
698.494	46.67
698.68	47.31
698.865	47.66
699.051	48.26
699.236	48.7
699.422	49.13
699.607	49.66
699.793	50.46
699.978	50.77
700.164	51.16
700.349	51.53
700.535	52.03
700.72	52.07
700.906	52.74
701.091	53.3
701.276	53.71
701.462	54.17
701.647	54.96
701.832	55.26
702.018	55.68
702.203	56.27
702.388	56.52
702.573	56.75
702.759	57.29
702.944	57.75
703.129	58.28
703.314	58.84
703.499	59.44
703.684	59.49
703.87	59.86
704.055	60.41
704.24	60.95
704.425	61.04
704.61	61.8
704.795	62.49
704.98	62.53
705.165	62.55
705.35	63.07
705.535	63.07
705.72	62.74
705.905	63.31
706.09	63.65
706.275	63.97
706.459	64.33
706.644	64.86
706.829	65.04
707.014	65.33
707.199	65.86
707.384	66.16
707.568	66.42
707.753	66.88
707.938	67.19
708.123	67.32
708.307	67.78
708.492	68.41
708.677	68.56
708.861	68.52
709.046	68.11
709.231	67.8
709.415	67.86
709.6	68.08
709.784	68.49
709.969	69.07
710.153	69.45
710.338	69.46
710.522	69.43
710.707	69.63
710.891	69.64
711.076	69.68
711.26	70.02
711.445	70.16
711.629	70.13
711.813	70.66
711.998	71.02
712.182	71.19
712.366	71.74
712.551	72.04
712.735	71.91
712.919	72.45
713.103	72.57
713.288	72.12
713.472	72.65
713.656	72.78
713.84	72.56
714.024	72.82
714.208	72.78
714.393	72.38
714.577	72.44
714.761	72.64
714.945	72.69
715.129	73
715.313	73.33
715.497	73.62
715.681	73.64
715.865	73.46
716.049	73.54
716.233	73.64
716.417	73.74
716.601	74.11
716.785	74.29
716.968	74.27
717.152	74.43
717.336	74.74
717.52	74.86
717.704	74.91
717.888	75.42
718.071	74.92
718.255	74.84
718.439	74.81
718.622	74.71
718.806	74.39
718.99	74.68
719.174	74.5
719.357	74.41
719.541	74.79
719.724	74.8
719.908	74.5
720.092	74.43
720.275	74.73
720.459	74.88
720.642	75.41
720.826	75.6
721.009	75.93
721.193	75.63
721.376	75.12
721.559	75.38
721.743	76.28
721.926	76.09
722.11	76.51
722.293	77.06
722.476	76.5
722.66	76.62
722.843	77.08
723.026	77.41
723.21	77.66
723.393	78.14
723.576	78.14
723.759	78.37
723.942	78.32
724.126	78.31
724.309	78.21
724.492	78.07
724.675	77.38
724.858	77.26
725.041	76.96
725.224	77.34
725.407	77.33
725.59	77.59
725.774	77.45
725.957	78.06
726.14	78.18
726.322	78.59
726.505	79.04
726.688	79.84
726.871	79.13
727.054	79.21
727.237	78.87
727.42	78.53
727.603	77.97
727.786	78.61
727.968	78.38
728.151	78.54
728.334	79.28
728.517	79.72
728.699	79.63
728.882	79.53
729.065	79.45
729.248	79.34
729.43	79.36
729.613	79.62
729.796	80.47
729.978	80.57
730.161	80.82
730.343	80.58
730.526	80.73
730.708	80.4
730.891	80.86
731.073	80.71
731.256	80.81
731.438	81.04
731.621	81.42
731.803	81.43
731.986	82
732.168	82.48
732.35	82.42
732.533	82.11
732.715	81.42
732.898	80.36
733.08	80.43
733.262	80.13
733.444	80.71
733.627	81.56
733.809	82.56
733.991	82.67
734.173	82.65
734.355	81.85
734.538	81.56
734.72	81.85
734.902	82.39
735.084	82.69
735.266	83.56
735.448	84.11
735.63	84.1
735.812	83.31
735.994	83.26
736.176	82.64
736.358	82.75
736.54	82.66
736.722	82.2
736.904	82.34
737.086	81.67
737.268	82.08
737.45	82.06
737.632	82.67
737.814	82.51
737.995	83.2
738.177	83.07
738.359	83.03
738.541	83.2
738.723	83.73
738.904	83.9
739.086	83.02
739.268	82.53
739.449	82.06
739.631	81.86
739.813	80.98
739.994	80.95
740.176	81.69
740.358	82.35
740.539	82.19
740.721	83.7
740.902	83.73
741.084	84.15
741.265	83.65
741.447	84.08
741.628	83.37
741.81	84.04
741.991	83.13
742.172	82.78
742.354	82.95
742.535	82.28
742.717	81.46
742.898	81.66
743.079	83.06
743.261	82.45
743.442	82
743.623	82.78
743.804	82.65
743.986	81.49
744.167	81.52
744.348	81.29
744.529	80.88
744.71	80.42
744.891	80.54
745.073	81.25
745.254	83.37
745.435	83.39
745.616	83.97
745.797	83.35
745.978	82.76
746.159	82.63
746.34	83.38
746.521	84.17
746.702	85.66
746.883	86.19
747.064	86.29
747.245	86.63
747.426	86.27
747.606	85.82
747.787	85.99
747.968	85.69
748.149	84.61
748.33	83.66
748.51	83
748.691	82.46
748.872	83.6
749.053	82.85
749.233	83.38
749.414	84.11
749.595	84.02
749.775	82.49
749.956	84.7
750.137	84.9
750.317	83.11
750.498	83.31
750.678	83.56
750.859	82.84
751.04	83
751.22	83.89
751.4	83.44
751.581	84
751.761	83.78
751.942	83.44
752.122	83.18
752.303	83.36
752.483	81.78
752.663	81.4
752.844	81.13
753.024	82.51
753.204	82.64
753.385	82.88
753.565	82.47
753.745	82.68
753.925	81.49
754.106	81.28
754.286	80.82
754.466	81.93
754.646	82.41
754.826	84.25
755.006	84.86
755.187	87.45
755.367	85.88
755.547	84.21
755.727	82.92
755.907	82.6
756.087	79.75
756.267	79.36
756.447	81.32
756.627	81.31
756.807	81.36
756.987	82.61
757.167	83.41
757.346	82.09
757.526	82.84
757.706	82.46
757.886	82.17
758.066	83.12
758.246	82.72
758.425	81.92
758.605	81.07
758.785	81.37
758.965	81.11
759.144	81.01
759.324	81.83
759.504	82.65
759.683	81.81
759.863	81.77
760.043	81.76
760.222	81.24
760.402	79.85
760.581	80.19
760.761	80.5
760.94	80.37
761.12	79.78
761.299	81.73
761.479	82.63
761.658	80.42
761.838	81.43
762.017	80.37
762.197	79.12
762.376	78.33
762.555	79.61
762.735	78.25
762.914	77.66
763.093	76.98
763.273	77.52
763.452	76.2
763.631	77.32
763.81	78.44
763.99	78.42
764.169	76.68
764.348	76.86
764.527	77.3
764.706	77.51
764.885	78.24
765.064	79.64
765.243	81
765.423	79.74
765.602	80.03
765.781	79.65
765.96	78.83
766.139	76.99
766.318	78.04
766.497	77.52
766.676	77.45
766.854	77.86
767.033	79.99
767.212	79.96
767.391	79.79
767.57	81.69
767.749	81.13
767.928	81.8
768.106	79.68
768.285	80.09
768.464	79.64
768.643	79.02
768.821	77.85
769	78.31
769.179	77.99
769.357	76.94
769.536	77.21
769.715	76.19
769.893	77
770.072	75.9
770.25	74.67
770.429	75.04
770.607	75.7
770.786	75.51
770.964	76.98
771.143	78.68
771.321	77.37
771.5	78.15
771.678	78.32
771.857	76.8
772.035	77.32
772.213	78.53
772.392	75.59
772.57	74.86
772.748	76.99
772.927	75.82
773.105	76.34
773.283	78.24
773.461	80.57
773.64	78.27
773.818	78.22
773.996	78.92
774.174	79
774.352	76.19
774.531	77.11
774.709	77.58
774.887	75.65
775.065	74.89
775.243	74.43
775.421	73.31
775.599	73.59
775.777	73.49
775.955	74.41
776.133	75.28
776.311	74.96
776.489	74.71
776.667	75.23
776.844	74.74
777.022	74.95
777.2	74.98
777.378	72.51
777.556	73.99
777.734	74.73
777.911	75.39
778.089	77.85
778.267	78.95
778.445	80
778.622	80.24
778.8	77.96
778.978	75.75
779.155	77.26
779.333	75.01
779.511	74.29
779.688	74.77
779.866	74.24
780.043	73.85
780.221	73.37
780.398	71.96
780.576	73.21
780.753	75.27
780.931	75.4
781.108	77.39
781.286	77.86
781.463	76.3
781.64	75.71
781.818	76.43
781.995	73.82
782.172	74.39
782.35	76.26
782.527	76.57
782.704	73.8
782.882	72.33
783.059	70.82
783.236	68.88
783.413	69.2
783.59	71.07
783.768	71.32
783.945	73.87
784.122	75.27
784.299	74.36
784.476	71.05
784.653	71.45
784.83	68.63
785.007	67.17
785.184	69.4
785.361	70.55
785.538	69.2
785.715	71.28
785.892	71.39
786.069	69
786.246	70.53
786.423	73.8
786.6	73.02
786.776	76.02
786.953	76.24
787.13	76.76
787.307	73.32
787.484	71.85
787.66	69.8
787.837	69.07
788.014	68.73
788.191	70.56
788.367	70.04
788.544	66.95
788.721	67
788.897	67.21
789.074	70.29
789.25	71.27
789.427	73.83
789.603	72.29
789.78	71.4
789.956	66.8
790.133	64.01
790.309	63.7
790.486	65.2
790.662	62.2
790.839	63.79
791.015	69.71
791.192	69.37
791.368	69.61
791.544	72.82
791.721	71.83
791.897	68.33
792.073	65.32
792.249	63.74
792.426	63.9
792.602	66.91
792.778	68.44
792.954	74.27
793.13	74.91
793.307	77.82
793.483	75.54
793.659	73.42
793.835	72.6
794.011	72.74
794.187	69.27
794.363	68.45
794.539	70.81
794.715	69.36
794.891	68.55
795.067	66.24
795.243	64.73
795.419	64.22
795.595	69.4
795.771	71.45
795.947	72.09
796.122	70.54
796.298	68.47
796.474	65.81
796.65	68.75
796.826	70.51
797.001	73.19
797.177	69.7
797.353	69.02
797.529	64.98
797.704	63.45
797.88	64.06
798.056	69.78
798.231	65.94
798.407	68.11
798.582	68.66
798.758	70.24
798.934	68.53
799.109	69.75
799.285	68.44
799.46	63.66
799.636	60.24
799.811	62.43
799.986	60.37
800.162	56.27
800.337	63.56
800.513	65.4
800.688	59.49
800.863	67.09
801.039	67.32
801.214	62.22
801.389	62
801.565	69.69
801.74	65.11
801.915	66.51
802.09	63.98
802.265	64.87
802.441	64.09
802.616	65.36
802.791	67.1
802.966	71.02
803.141	72.81
803.316	71.72
803.491	74.66
803.666	70.98
803.841	72.24
804.016	67.43
804.191	65.9
804.366	54.82
804.541	58.8
804.716	56.03
804.891	56.46
805.066	58.26
805.241	57.9
805.416	66.02
805.591	71.54
805.765	80.97
805.94	79.14
806.115	84.37
806.29	76.5
806.464	70.87
806.639	64.92
806.814	66.79
806.989	66.75
807.163	66.36
807.338	68.74
807.512	71.07
807.687	67.15
807.862	70.05
808.036	72.29
808.211	67.72
808.385	67.73
808.56	68.93
808.734	62.1
808.909	57.73
809.083	61.94
809.258	62.03
809.432	59.7
809.606	57.01
809.781	65.08
809.955	61.79
810.13	48.68
810.304	48.86
810.478	52.92
810.652	52.59
810.827	60.16
811.001	64.84
811.175	63.47
811.349	68.66
811.524	72.85
811.698	68.07
811.872	75.78
812.046	77.97
812.22	79.19
812.394	71.6
812.568	71.03
812.742	67.68
812.916	72.29
813.09	63.06
813.264	64.26
813.438	63.77
813.612	62.1
813.786	57.22
813.96	64.22
814.134	60.72
814.308	61.87
814.482	60.32
814.656	65.89
814.83	67.16
815.003	73.46
815.177	73.63
815.351	80.09
815.525	81.05
815.698	65.04
815.872	51.79
816.046	42.81
816.219	44.69
816.393	41.15
816.567	50.01
816.74	59.31
816.914	59.79
817.088	57.03
817.261	61.54
817.435	57
817.608	55.47
817.782	59.5
817.955	59.87
818.129	60.8
818.302	72.81
818.475	75.98
818.649	77.75
818.822	79.06
818.996	78.96
819.169	78.05
819.342	76.62
819.516	77.64
819.689	76.55
819.862	62.69
820.035	60.42
820.209	60.67
820.382	53.34
820.555	47.29
820.728	55.1
820.901	49.84
821.075	49.46
821.248	55.08
821.421	52.96
821.594	62.28
821.767	74.64
821.94	64.32
822.113	63.71
822.286	70.01
822.459	66.34
822.632	62.91
822.805	72.68
822.978	78.02
823.151	80.62
823.324	62.53
823.496	51.39
823.669	63.03
823.842	61.64
824.015	56.32
824.188	70.74
824.361	82.42
824.533	56
824.706	51.97
824.879	46.73
825.051	52.13
825.224	48.78
825.397	45.72
825.569	47.92
825.742	60.24
825.915	51.95
826.087	43.06
826.26	53.12
826.432	57.64
826.605	46.48
826.777	57.66
826.95	64.51
827.122	58.76
827.295	58.19
827.467	73.9
827.64	70.18
827.812	61.33
827.984	76.1
828.157	75.61
828.329	72.87
828.501	58.35
828.674	67.41
828.846	63.22
829.018	47.61
829.19	38.18
829.363	47.86
829.535	42.16
829.707	41.18
829.879	41.56
830.051	45.04
830.223	40.5
830.395	31.43
830.568	35.95
830.74	49.03
830.912	53.78
831.084	40.97
831.256	37.26
831.428	36.87
831.6	25.14
831.772	0.8
831.943	0.29
832.115	9.13
832.287	19.31
832.459	21.38
832.631	43.22
832.803	57.68
832.975	54.8
833.146	41.14
833.318	50.45
833.49	47.69
833.662	49.63
833.833	45.22
834.005	60.34
834.177	57.51
834.348	44.44
834.52	37.14
834.692	42.12
834.863	45.25
835.035	45.04
835.206	46.51
835.378	58.06
835.549	53.96
835.721	50.52
835.892	45.96
836.064	57
836.235	48.65
836.407	58.84
836.578	50.41
836.749	40.62
836.921	37.68
837.092	23.19
837.264	15.76
837.435	27.76
837.606	38.4
837.777	45.71
837.949	57
838.12	60.49
838.291	57.86
838.462	58.02
838.633	46.71
838.805	42.49
838.976	37.4
839.147	50.26
839.318	55.85
839.489	47.2
839.66	61.82
839.831	52.06
840.002	43.08
840.173	48.75
840.344	57.53
840.515	44.17
840.686	48.85
840.857	47.97
841.028	43
841.199	40.67
841.369	33.39
841.54	25.52
841.711	24.03
841.882	44.56
842.053	36
842.223	42.74
842.394	44.76
842.565	51.4
842.736	46.56
842.906	54.29
843.077	67.8
843.248	87.26
843.418	68.93
843.589	60.74
843.759	65.53
843.93	65.46
844.101	49.16
844.271	72.25
844.442	73.61
844.612	76.02
844.783	78.63
844.953	67.94
845.123	51.55
845.294	50.81
845.464	55.9
845.635	28.08
845.805	72.82
845.975	72.61
846.146	46.28
846.316	20.62
846.486	29.1
846.656	21.99
846.827	34.1
846.997	43.38
847.167	51.53
847.337	59.45
847.507	54.25
847.677	47.68
847.848	59.82
848.018	78.28
848.188	71.84
848.358	67.83
848.528	71.81
848.698	64.77
848.868	33.02
849.038	26.71
849.208	29.72
849.378	45.29
849.548	39.23
849.718	36.98
849.887	38.3
850.057	39.63
850.227	13.96
850.397	15.66
850.567	1.4
850.737	33.24
850.906	10.06
851.076	28.93
851.246	56.78
851.415	79.92
851.585	64.82
851.755	68.92
851.924	49.2
852.094	36.05
852.264	24.11
852.433	20.94
852.603	-6.99
852.772	23.37
852.942	51.78
853.111	51.71
853.281	50.39
853.45	55.15
853.62	31.73
853.789	-14.92
853.959	-2.97
854.128	-0.72
854.297	5.06
854.467	21.96
854.636	37.52
854.805	45.54
854.975	32
855.144	47.05
855.313	91.56
855.482	84.54
855.652	83.36
855.821	80.83
855.99	76.71
856.159	24.04
856.328	23.22
856.497	31.17
856.667	17.4
856.836	18.81
857.005	-1.35
857.174	-5.89
857.343	-38.33
857.512	-17.12
857.681	-25.02
857.85	-4.54
858.019	6.88
858.188	24.84
858.356	45.13
858.525	47.03
858.694	59.79
858.863	49.21
859.032	60.84
859.201	64.4
859.369	64.93
859.538	72.79
859.707	53.73
859.876	42.97
860.044	56.43
860.213	59
860.382	35.32
860.55	40.27
860.719	58.65
860.888	38.93
861.056	28.69
861.225	38.18
861.393	60.66
861.562	56.27
861.73	37.64
861.899	31.88
862.067	25.53
862.236	5.59
862.404	-24.5
862.572	6.1
862.741	-5.21
862.909	-2.68
863.078	5.79
863.246	-1.23
863.414	0.16
863.582	14.56
863.751	34.39
863.919	28.06
864.087	31.35
864.255	31.11
864.424	-18.48
864.592	-11
864.76	-8.6
864.928	9.61
865.096	8.1
865.264	57.45
865.432	31.82
865.6	45.67
865.768	27.28
865.936	12.2
866.104	9.82
866.272	10.25
866.44	-25.14
866.608	17.26
866.776	57.85
866.944	49.01
867.112	60.62
867.28	74.64
867.448	76.1
867.615	63.38
867.783	36.6
867.951	43.04
868.119	62.26
868.286	60.01
868.454	44.16
868.622	64.32
868.789	53.49
868.957	26.1
869.125	26.95
869.292	-12.2
869.46	11.03
869.627	-8.19
869.795	-42.24
869.963	-10.34
870.13	16.08
870.298	30.31
870.465	50.76
870.632	60.45
870.8	20.15
870.967	12.13
871.135	-20.36
871.302	-31.61
871.469	-6.12
871.637	9.8
871.804	41.13
871.971	41.17
872.139	58.54
872.306	32.27
872.473	-4.76
872.64	-103.32
872.807	-153.83
872.975	-283.73
873.142	-8.25
873.309	34.27
873.476	90.68
873.643	171.41
873.81	144.19
873.977	139.62
874.144	146.88
874.311	59.19
874.478	0.91
874.645	-33.51
874.812	50.98
874.979	37.82
875.146	110.17
875.313	70.09
875.48	74.12
875.647	37.56
875.813	-3.61
875.98	-47.42
876.147	-147.25
876.314	-104.53
876.481	-106.7
876.647	-30.09
876.814	8.06
876.981	46.84
877.147	56.89
877.314	75.26
877.481	49.58
877.647	43.14
877.814	22.29
877.98	22.58
878.147	32.4
878.314	59.26
878.48	72.65
878.647	64.4
878.813	93.2
878.979	68.56
879.146	83.45
879.312	63.13
879.479	32.56
879.645	22
879.811	6.43
879.978	7.5
880.144	15.6
880.31	29.46
880.477	12.92
880.643	20.24
880.809	-53.49
880.975	-54.22
881.142	-124.36
881.308	354.24
881.474	509.64
881.64	-12.95
881.806	-54.39
881.972	-11.3
882.138	-11.7
882.304	-17.59
882.47	-42.99
882.636	-36.78
882.802	-0.13
882.968	47.67
883.134	42.22
883.3	25.34
883.466	78.71
883.632	54.19
883.798	27.61
883.964	51.18
884.129	490.83
884.295	79.65
884.461	61.86
884.627	68.87
884.793	52.5
884.958	59.24
885.124	48.83
885.29	8.98
885.455	-8.62
885.621	7.45
885.787	-3.43
885.952	-3.75
886.118	56.12
886.283	50.85
886.449	45.11
886.614	28.55
886.78	29.68
886.945	10.22
887.111	12.61
887.276	-17.02
887.442	-78.02
887.607	-43.99
887.773	-10.38
887.938	-26.66
888.103	1.25
888.269	41.7
888.434	38.34
888.599	20.56
888.764	38.25
888.93	57.15
889.095	33.82
889.26	18.6
889.425	5.77
889.59	-2.76
889.756	-64.76
889.921	-46.18
890.086	-81.81
890.251	0.61
890.416	-38.85
890.581	-51.96
890.746	24.49
890.911	35.15
891.076	23.83
891.241	44.29
891.406	51.89
891.571	47.27
891.736	-7.96
891.901	54.24
892.065	31.94
892.23	54.23
892.395	34.68
892.56	28.49
892.725	-43.79
892.889	54.52
893.054	21.32
893.219	43.75
893.384	122.92
893.548	157.21
893.713	137.19
893.878	224.54
