Data from Ofra_2a_PS_2GT31_Reflection_2.txt Node
Date: Tue Jul 20 09:41:32 EDT 2021
User: Adam
Spectrometer: FLMT01687
Trigger mode: 0
Integration Time (sec): 9.450000E-1
Scans to average: 3
Electric dark correction enabled: true
Nonlinearity correction enabled: false
Boxcar width: 3
XAxis mode: Wavelengths
Number of Pixels in Spectrum: 3648
>>>>>Begin Spectral Data<<<<<
179.494	880.47
179.716	572.27
179.937	577.47
180.158	2049.61
180.38	-848.55
180.601	-57.16
180.823	25.27
181.044	145.52
181.265	173.33
181.486	88.84
181.708	-694.57
181.929	-85.47
182.15	-1338.07
182.372	188.72
182.593	171.83
182.814	62.43
183.035	90.19
183.257	102.39
183.478	71.24
183.699	83.38
183.92	72.62
184.141	63.17
184.363	48.78
184.584	39.68
184.805	31.13
185.026	14.3
185.247	-1.88
185.468	-7.19
185.689	-2.97
185.91	-13.21
186.132	-14.25
186.353	-31.26
186.574	-17.76
186.795	-27.18
187.016	-29.5
187.237	-24.71
187.458	-21.52
187.679	-17.55
187.9	8.31
188.121	15.54
188.342	40.01
188.563	42.18
188.784	42.17
189.005	53.98
189.226	58.67
189.447	54.93
189.667	58.1
189.888	56.37
190.109	62.54
190.33	53.36
190.551	41.1
190.772	23.47
190.993	35.29
191.214	30.08
191.434	22.24
191.655	22.14
191.876	35.8
192.097	30.5
192.318	42.53
192.538	40.2
192.759	42
192.98	40.56
193.201	50.58
193.421	38.35
193.642	43.73
193.863	42.06
194.083	35.34
194.304	24.72
194.525	33.96
194.745	2.8
194.966	10.94
195.187	11.68
195.407	-1.76
195.628	-2.13
195.848	8.24
196.069	-1.87
196.29	-2.7
196.51	-2.6
196.731	6.07
196.951	20.09
197.172	26.28
197.392	22.5
197.613	19.78
197.833	36.21
198.054	29.72
198.274	16.68
198.495	20.32
198.715	15.68
198.936	-5.21
199.156	16.36
199.377	6.35
199.597	-4.77
199.817	4.08
200.038	0.09
200.258	-1.16
200.479	8.97
200.699	7.8
200.919	-5.34
201.14	13.5
201.36	25.54
201.58	36
201.801	26.36
202.021	32.67
202.241	27.46
202.461	38.7
202.682	35.77
202.902	25.24
203.122	18.88
203.342	39.7
203.563	27.68
203.783	32.41
204.003	33.11
204.223	37.42
204.443	37.56
204.663	42.79
204.884	39.47
205.104	50.88
205.324	51
205.544	50.05
205.764	47.26
205.984	58.48
206.204	61.08
206.424	46.51
206.644	32.47
206.864	32.15
207.084	45.23
207.304	43.68
207.525	28.82
207.745	26.13
207.964	39.83
208.184	47.1
208.404	40.24
208.624	26.8
208.844	16.28
209.064	35.24
209.284	47.5
209.504	33.16
209.724	18.53
209.944	9.52
210.164	9.28
210.384	22.89
210.604	-8.51
210.823	-26.8
211.043	-24.12
211.263	-0.89
211.483	13.95
211.703	19.21
211.922	11.62
212.142	23.89
212.362	29.35
212.582	34.1
212.801	20.8
213.021	16.85
213.241	13.09
213.461	18.49
213.68	9.71
213.9	7.12
214.12	-5.09
214.339	11
214.559	15.55
214.779	14.9
214.998	18.42
215.218	30.74
215.438	39.89
215.657	46.22
215.877	44.04
216.096	40.72
216.316	28.03
216.535	30.55
216.755	10.06
216.974	0.68
217.194	1
217.413	21.04
217.633	10.69
217.852	15.1
218.072	1.96
218.291	30.29
218.511	24.67
218.73	31.39
218.95	12.41
219.169	19.32
219.389	31.24
219.608	39.93
219.827	25.46
220.047	41.21
220.266	21.64
220.485	28.75
220.705	23.7
220.924	21.67
221.143	12.65
221.363	5.66
221.582	-1.91
221.801	15.56
222.021	17.77
222.24	28.97
222.459	28.43
222.678	23.67
222.897	28.18
223.117	38.86
223.336	21.78
223.555	3.2
223.774	-1.95
223.993	0.32
224.213	6.68
224.432	5.81
224.651	-8.19
224.87	2.6
225.089	27.06
225.308	31.54
225.527	29.13
225.746	32.41
225.965	26.95
226.184	26.61
226.404	8.78
226.623	5.99
226.842	1.69
227.061	14.86
227.28	48.05
227.499	57.24
227.718	50.4
227.936	48.5
228.155	41.79
228.374	50.67
228.593	41.08
228.812	22.16
229.031	14.63
229.25	31.92
229.469	45.9
229.688	55.57
229.907	40.62
230.125	47.46
230.344	50.94
230.563	45.21
230.782	36.12
231.001	29.52
231.22	17.24
231.438	27.94
231.657	25.82
231.876	22.69
232.095	25.32
232.313	31.18
232.532	35.12
232.751	44.36
232.969	47.32
233.188	43.4
233.407	37.44
233.625	32.56
233.844	26.49
234.063	33.08
234.281	26.81
234.5	24.59
234.719	31.74
234.937	35.87
235.156	45.29
235.374	49.45
235.593	39.23
235.811	29.26
236.03	15.83
236.249	11.58
236.467	14.17
236.686	15.65
236.904	14.64
237.123	19.17
237.341	25.48
237.559	27.31
237.778	29.46
237.996	26.75
238.215	14.78
238.433	28.1
238.652	25.29
238.87	23.43
239.088	21.84
239.307	17.4
239.525	18.68
239.743	19.3
239.962	9.58
240.18	24.46
240.398	31.16
240.617	36.46
240.835	40.8
241.053	46.61
241.271	56.71
241.49	53.34
241.708	39.71
241.926	22.01
242.144	21.15
242.363	23.41
242.581	14.47
242.799	6.84
243.017	9.83
243.235	10.78
243.453	30.56
243.672	26.32
243.89	28
244.108	36.39
244.326	33.93
244.544	40.29
244.762	32.44
244.98	28.05
245.198	21.26
245.416	18.4
245.634	15.92
245.852	15.56
246.07	13.39
246.288	11.17
246.506	10.27
246.724	28.98
246.942	27.75
247.16	19.19
247.378	10.45
247.596	13.57
247.814	9.87
248.032	7.75
248.25	-1.88
248.468	-0.12
248.685	14.39
248.903	14.75
249.121	17.91
249.339	24.72
249.557	28.01
249.775	13.25
249.992	7.04
250.21	-10.29
250.428	-6.17
250.646	-7.87
250.863	-11.71
251.081	-10.92
251.299	13.26
251.517	35.56
251.734	35.07
251.952	39.9
252.17	39.54
252.387	35.61
252.605	35.75
252.823	29.41
253.04	40.11
253.258	54.9
253.475	44.9
253.693	37.1
253.911	38.44
254.128	31.23
254.346	24.45
254.563	13.76
254.781	15.84
254.998	16.71
255.216	20.42
255.433	29.64
255.651	25.97
255.868	35.79
256.086	31.03
256.303	27.03
256.521	22.94
256.738	18.13
256.956	-4.02
257.173	9.34
257.39	15.63
257.608	15.77
257.825	12.73
258.043	20.2
258.26	21.61
258.477	31.58
258.695	35.44
258.912	24.14
259.129	23.36
259.346	23.59
259.564	27.67
259.781	34.29
259.998	36.39
260.216	31.54
260.433	39.81
260.65	43.89
260.867	37.71
261.084	35.61
261.302	30.96
261.519	22.4
261.736	23.75
261.953	19.15
262.17	18.8
262.387	24.51
262.604	6.8
262.822	19.69
263.039	25.24
263.256	17.06
263.473	16.61
263.69	11.52
263.907	11.36
264.124	15.35
264.341	3.37
264.558	10.72
264.775	15.48
264.992	21.25
265.209	28.77
265.426	26.88
265.643	34.54
265.86	34.83
266.077	31.15
266.294	35.96
266.51	31.69
266.727	18.05
266.944	19.06
267.161	16.03
267.378	17.37
267.595	8.41
267.812	11.07
268.028	14.34
268.245	27.05
268.462	22
268.679	6.97
268.896	0.97
269.112	16.93
269.329	13.77
269.546	9.43
269.763	17.28
269.979	22.44
270.196	31.58
270.413	34.89
270.629	28.36
270.846	29.6
271.063	33.05
271.279	26.98
271.496	22.03
271.712	20.15
271.929	23.97
272.146	22.11
272.362	5.84
272.579	-3.46
272.795	-11
273.012	-3.03
273.228	-4.31
273.445	-3.78
273.661	-1.53
273.878	7.11
274.094	15.93
274.311	24.77
274.527	25.61
274.744	26.78
274.96	28.2
275.177	33.38
275.393	29
275.609	26.6
275.826	16.34
276.042	32.5
276.259	38.02
276.475	25.49
276.691	29.17
276.908	32.37
277.124	29.14
277.34	29.21
277.557	21.76
277.773	18.68
277.989	13.31
278.205	0.15
278.422	15.32
278.638	23.72
278.854	30.9
279.07	14.5
279.286	17.31
279.503	21.09
279.719	35.92
279.935	14.64
280.151	22.96
280.367	20.35
280.583	28.83
280.799	32.72
281.016	42.51
281.232	33.52
281.448	37.53
281.664	20.35
281.88	17.45
282.096	24.43
282.312	14.32
282.528	10.9
282.744	14.35
282.96	19
283.176	25.61
283.392	34.15
283.608	31.51
283.824	27.81
284.04	34.09
284.256	38.73
284.471	44.03
284.687	48.21
284.903	46.05
285.119	29.12
285.335	31
285.551	28.51
285.767	23.5
285.982	16.47
286.198	6.57
286.414	16.26
286.63	31.99
286.846	31.89
287.061	41.58
287.277	39.78
287.493	45.12
287.709	41.46
287.924	48.21
288.14	44.28
288.356	56.27
288.571	41.09
288.787	45.01
289.003	39.87
289.218	39.54
289.434	27.24
289.65	32.55
289.865	35.72
290.081	29.84
290.296	32.77
290.512	39.46
290.727	50.98
290.943	53.95
291.159	47.01
291.374	39.92
291.59	43.2
291.805	42.64
292.021	30.74
292.236	22.38
292.451	16.92
292.667	22.15
292.882	13.81
293.098	12.79
293.313	5.52
293.529	11.98
293.744	13.99
293.959	23.92
294.175	25.14
294.39	27.8
294.605	25.92
294.821	30.53
295.036	35.71
295.251	28.71
295.467	20.73
295.682	24.92
295.897	32.82
296.112	38.14
296.328	35.05
296.543	19.88
296.758	23.33
296.973	21.3
297.188	12.05
297.404	9.75
297.619	12.98
297.834	23.49
298.049	25.05
298.264	18.31
298.479	13.06
298.694	16.77
298.909	10.77
299.125	8.77
299.34	4.15
299.555	9.19
299.77	9.68
299.985	9.21
300.2	13.07
300.415	15.26
300.63	9.59
300.845	9.41
301.06	10.86
301.275	18.7
301.49	25.51
301.704	18.9
301.919	13.85
302.134	12.59
302.349	8.62
302.564	6.91
302.779	0.25
302.994	-6.47
303.209	-11.39
303.423	10.54
303.638	22.22
303.853	19.03
304.068	19.93
304.283	18.4
304.497	18.26
304.712	26.49
304.927	12.57
305.142	13.78
305.356	14.24
305.571	15.42
305.786	17.09
306	23.47
306.215	22.73
306.43	41.88
306.644	41.87
306.859	40.62
307.074	40.88
307.288	39.85
307.503	36.96
307.717	33.55
307.932	22.2
308.147	18.71
308.361	23.57
308.576	23.55
308.79	24.15
309.005	26.83
309.219	31.97
309.434	32.79
309.648	34.09
309.863	33.55
310.077	31.72
310.292	26.09
310.506	32.38
310.72	29.59
310.935	27.57
311.149	29.04
311.364	33.35
311.578	34.8
311.792	37.39
312.007	27.22
312.221	32.12
312.435	38.04
312.649	52.46
312.864	36.06
313.078	30.3
313.292	37.86
313.507	44.53
313.721	47.94
313.935	52.26
314.149	39.35
314.363	44.97
314.578	67.06
314.792	69.83
315.006	68.8
315.22	63.71
315.434	52.22
315.648	52.59
315.862	52.16
316.077	34.27
316.291	28.55
316.505	31.87
316.719	17.56
316.933	20.35
317.147	14.17
317.361	18.74
317.575	20.44
317.789	17.98
318.003	17.98
318.217	28.48
318.431	33.05
318.645	37.2
318.859	28.84
319.073	31.18
319.287	35.76
319.5	29.86
319.714	26.75
319.928	27.26
320.142	24.83
320.356	29
320.57	21.32
320.784	15.86
320.997	23.18
321.211	25.82
321.425	13.53
321.639	19.33
321.853	13.28
322.066	18.41
322.28	16.04
322.494	10.94
322.707	11
322.921	16.72
323.135	16.37
323.349	15.44
323.562	15.25
323.776	17.75
323.989	15.04
324.203	17.01
324.417	11.23
324.63	4
324.844	7.13
325.057	3.27
325.271	-6.09
325.485	2.94
325.698	-12.31
325.912	7.66
326.125	11.34
326.339	9.77
326.552	20.95
326.766	37.33
326.979	40.29
327.193	46.75
327.406	38.5
327.619	27.45
327.833	30.42
328.046	18.67
328.26	9.91
328.473	2.68
328.686	5.68
328.9	1.03
329.113	19.97
329.326	26.84
329.54	17.87
329.753	23.51
329.966	23
330.179	27.54
330.393	30.34
330.606	24.17
330.819	25.73
331.032	37.04
331.246	33.67
331.459	33.4
331.672	30.27
331.885	28.07
332.098	40.05
332.311	33.59
332.525	32.64
332.738	31.43
332.951	33.6
333.164	35.35
333.377	31.29
333.59	25.19
333.803	26.69
334.016	19.9
334.229	25.49
334.442	30.7
334.655	31.73
334.868	37.19
335.081	36.19
335.294	31.65
335.507	41.38
335.72	28.75
335.933	30.23
336.146	31.03
336.359	29.01
336.572	24.64
336.785	30.25
336.997	25.65
337.21	35.7
337.423	26.75
337.636	23.26
337.849	23.62
338.062	25.84
338.274	19.61
338.487	11.28
338.7	8.26
338.913	8.15
339.125	6.51
339.338	17.44
339.551	24.29
339.763	24.75
339.976	24.31
340.189	16.84
340.402	13.55
340.614	16.92
340.827	4.53
341.039	-2.58
341.252	0.3
341.465	-2.02
341.677	1.57
341.89	6.44
342.102	5.92
342.315	21.06
342.527	19.43
342.74	16.56
342.952	21.71
343.165	33.68
343.377	40.55
343.59	45.53
343.802	39.52
344.015	41.72
344.227	42.17
344.44	43.36
344.652	32.35
344.864	36.77
345.077	31.95
345.289	29.55
345.502	33.68
345.714	27.83
345.926	20.94
346.139	25.74
346.351	5.83
346.563	14.64
346.775	12.93
346.988	6.61
347.2	17.75
347.412	20.34
347.624	22.03
347.837	28.78
348.049	20.41
348.261	18.74
348.473	13.12
348.685	12.56
348.897	18.86
349.11	18.13
349.322	12.37
349.534	18.38
349.746	24.68
349.958	33.3
350.17	30.74
350.382	17.78
350.594	8.29
350.806	18.07
351.018	20.2
351.23	20.38
351.442	20.99
351.654	27.56
351.866	33.33
352.078	38.44
352.29	38.84
352.502	37.67
352.714	40.09
352.926	37.14
353.138	34.18
353.35	31.11
353.561	28.66
353.773	23.94
353.985	24.55
354.197	19.82
354.409	22.08
354.621	18.41
354.832	16.09
355.044	25.07
355.256	21.71
355.468	14.06
355.679	14.18
355.891	13.41
356.103	5.43
356.314	5.18
356.526	-5.02
356.738	-5.92
356.949	0.05
357.161	-0.35
357.373	-1.82
357.584	9.92
357.796	12.41
358.008	22.71
358.219	30.46
358.431	37.05
358.642	41.2
358.854	43.95
359.065	38.74
359.277	35
359.488	26.9
359.7	19.95
359.911	7.63
360.123	7.77
360.334	-0.14
360.546	-6.7
360.757	10.67
360.969	21.55
361.18	16.48
361.391	25.2
361.603	31.18
361.814	39.97
362.025	44.08
362.237	34.19
362.448	27.84
362.659	26.92
362.871	30.04
363.082	22.27
363.293	24.49
363.504	28.03
363.716	26.5
363.927	28.4
364.138	37.24
364.349	36.48
364.56	33.1
364.772	32.24
364.983	26.39
365.194	29.6
365.405	24.4
365.616	9.29
365.827	4.84
366.038	21.42
366.25	21.78
366.461	25.08
366.672	21.97
366.883	29.91
367.094	38.15
367.305	38.72
367.516	31.49
367.727	27.68
367.938	27.34
368.149	31.42
368.36	23.93
368.571	24.47
368.781	23.93
368.992	18.92
369.203	17.06
369.414	17.5
369.625	13.9
369.836	17.3
370.047	15.98
370.258	7.2
370.468	14.8
370.679	10.53
370.89	17.48
371.101	19.53
371.312	18.99
371.522	15.82
371.733	17.48
371.944	13.12
372.155	9.1
372.365	4.8
372.576	1.67
372.787	-0.08
372.997	2.58
373.208	13.6
373.419	10.48
373.629	21.01
373.84	15.52
374.05	19.6
374.261	13.53
374.472	10.35
374.682	-5.74
374.893	-3.9
375.103	-1.28
375.314	-1.44
375.524	-0.3
375.735	3.91
375.945	6.87
376.156	19.82
376.366	21.33
376.577	18.6
376.787	21.29
376.997	20.68
377.208	20.79
377.418	21.79
377.629	17.84
377.839	21.95
378.049	25.29
378.26	24.86
378.47	24.86
378.68	24.29
378.89	16.81
379.101	13.57
379.311	11.5
379.521	7.09
379.732	1.67
379.942	0.39
380.152	3.36
380.362	11.35
380.572	15.62
380.783	15.4
380.993	16.19
381.203	20.74
381.413	26.04
381.623	24.79
381.833	22.74
382.043	14.8
382.253	13.11
382.463	12.68
382.674	14.82
382.884	10.61
383.094	9.99
383.304	6.13
383.514	14.5
383.724	15.95
383.934	14.97
384.144	14.03
384.353	10.4
384.563	11.47
384.773	16.26
384.983	13.1
385.193	13.27
385.403	13.82
385.613	12.05
385.823	14.25
386.033	14.63
386.242	12.63
386.452	13.19
386.662	12.74
386.872	12.64
387.082	9.95
387.291	10.15
387.501	8.84
387.711	8.67
387.921	7.54
388.13	7.78
388.34	8.54
388.55	11.14
388.759	10.26
388.969	8.48
389.179	13.07
389.388	12.57
389.598	10.33
389.807	8.91
390.017	8.75
390.227	8.5
390.436	9.08
390.646	5.73
390.855	7.11
391.065	9.02
391.274	8.55
391.484	9.14
391.693	9.36
391.903	9.05
392.112	9.42
392.322	10.66
392.531	9.75
392.74	8.81
392.95	8.85
393.159	8.87
393.369	9.5
393.578	9.94
393.787	9.27
393.997	10.22
394.206	11.57
394.415	11.15
394.625	9.9
394.834	8.75
395.043	8.95
395.252	8.56
395.462	8.16
395.671	7.94
395.88	7.63
396.089	8.32
396.298	8.57
396.508	7.79
396.717	7.56
396.926	7.15
397.135	6.95
397.344	7.31
397.553	7.63
397.762	7.75
397.971	7.76
398.181	7.53
398.39	7.82
398.599	7.79
398.808	7.59
399.017	7.63
399.226	7.76
399.435	8.01
399.644	7.9
399.853	7.75
400.062	7.67
400.27	7.78
400.479	7.62
400.688	7.59
400.897	7.71
401.106	7.99
401.315	7.91
401.524	7.87
401.733	8
401.941	7.94
402.15	7.76
402.359	7.5
402.568	7.32
402.777	7.42
402.985	7.42
403.194	7.22
403.403	7.02
403.612	7.06
403.82	7.17
404.029	7.15
404.238	7.12
404.446	7.11
404.655	6.93
404.864	7.05
405.072	7.05
405.281	6.91
405.489	6.95
405.698	6.94
405.906	6.94
406.115	7.09
406.324	7.03
406.532	7.04
406.741	7.08
406.949	6.96
407.158	7
407.366	7.07
407.574	7.02
407.783	6.9
407.991	6.77
408.2	6.74
408.408	6.76
408.617	6.67
408.825	6.54
409.033	6.43
409.242	6.52
409.45	6.55
409.658	6.54
409.867	6.51
410.075	6.48
410.283	6.45
410.491	6.46
410.7	6.49
410.908	6.48
411.116	6.46
411.324	6.51
411.533	6.43
411.741	6.42
411.949	6.43
412.157	6.38
412.365	6.35
412.573	6.26
412.781	6.25
412.99	6.36
413.198	6.35
413.406	6.33
413.614	6.28
413.822	6.31
414.03	6.27
414.238	6.26
414.446	6.08
414.654	6.08
414.862	6.03
415.07	6.04
415.278	5.87
415.486	5.98
415.694	5.85
415.902	5.89
416.109	5.96
416.317	5.96
416.525	6.02
416.733	6.15
416.941	5.98
417.149	6.18
417.357	6.16
417.564	6.06
417.772	6.05
417.98	5.96
418.188	5.79
418.395	5.89
418.603	5.69
418.811	5.58
419.019	5.56
419.226	5.59
419.434	5.51
419.642	5.58
419.849	5.57
420.057	5.6
420.265	5.69
420.472	5.67
420.68	5.59
420.887	5.62
421.095	5.57
421.302	5.49
421.51	5.55
421.717	5.57
421.925	5.49
422.132	5.41
422.34	5.39
422.547	5.38
422.755	5.38
422.962	5.24
423.17	5.15
423.377	5.26
423.585	5.35
423.792	5.3
423.999	5.32
424.207	5.28
424.414	5.35
424.621	5.48
424.829	5.42
425.036	5.35
425.243	5.49
425.451	5.52
425.658	5.58
425.865	5.53
426.072	5.46
426.28	5.39
426.487	5.38
426.694	5.3
426.901	5.28
427.108	5.32
427.315	5.37
427.523	5.39
427.73	5.46
427.937	5.5
428.144	5.5
428.351	5.58
428.558	5.54
428.765	5.41
428.972	5.34
429.179	5.34
429.386	5.38
429.593	5.42
429.8	5.4
430.007	5.51
430.214	5.59
430.421	5.67
430.628	5.56
430.835	5.52
431.042	5.53
431.249	5.49
431.456	5.49
431.662	5.54
431.869	5.6
432.076	5.74
432.283	5.78
432.49	5.74
432.697	5.79
432.903	5.83
433.11	5.81
433.317	5.88
433.524	5.82
433.73	5.88
433.937	5.87
434.144	5.89
434.35	5.9
434.557	5.9
434.764	5.86
434.97	5.93
435.177	5.9
435.384	5.93
435.59	5.91
435.797	5.9
436.003	5.93
436.21	5.83
436.416	5.75
436.623	5.76
436.829	5.79
437.036	5.83
437.242	5.88
437.449	5.89
437.655	6.03
437.862	6.16
438.068	6.29
438.275	6.31
438.481	6.39
438.687	6.42
438.894	6.44
439.1	6.43
439.307	6.38
439.513	6.31
439.719	6.42
439.926	6.43
440.132	6.45
440.338	6.47
440.544	6.44
440.751	6.47
440.957	6.46
441.163	6.45
441.369	6.44
441.575	6.41
441.782	6.42
441.988	6.48
442.194	6.56
442.4	6.63
442.606	6.65
442.812	6.7
443.018	6.75
443.224	6.75
443.431	6.75
443.637	6.71
443.843	6.73
444.049	6.72
444.255	6.68
444.461	6.67
444.667	6.72
444.873	6.8
445.079	6.84
445.284	6.82
445.49	6.85
445.696	6.95
445.902	7
446.108	7
446.314	7.07
446.52	7.07
446.726	7.13
446.931	7.12
447.137	7.03
447.343	7.07
447.549	7.08
447.755	6.98
447.96	6.99
448.166	7
448.372	6.98
448.578	7.06
448.783	6.99
448.989	7.04
449.195	7.07
449.4	7.1
449.606	7.07
449.812	7.18
450.017	7.17
450.223	7.23
450.428	7.22
450.634	7.26
450.84	7.24
451.045	7.29
451.251	7.29
451.456	7.24
451.662	7.27
451.867	7.3
452.073	7.29
452.278	7.33
452.483	7.36
452.689	7.37
452.894	7.42
453.1	7.37
453.305	7.41
453.51	7.47
453.716	7.48
453.921	7.46
454.127	7.47
454.332	7.5
454.537	7.63
454.742	7.61
454.948	7.56
455.153	7.56
455.358	7.63
455.563	7.6
455.769	7.63
455.974	7.56
456.179	7.55
456.384	7.67
456.589	7.68
456.795	7.63
457	7.66
457.205	7.59
457.41	7.63
457.615	7.69
457.82	7.71
458.025	7.77
458.23	7.84
458.435	7.82
458.64	7.88
458.845	7.86
459.05	7.85
459.255	7.81
459.46	7.79
459.665	7.77
459.87	7.8
460.075	7.81
460.28	7.86
460.485	7.9
460.69	7.9
460.895	8.01
461.099	8.02
461.304	8.05
461.509	8.01
461.714	8.02
461.919	8.01
462.123	8.06
462.328	7.97
462.533	7.97
462.738	7.99
462.942	8.08
463.147	8.06
463.352	8.11
463.556	8.11
463.761	8.15
463.966	8.24
464.17	8.29
464.375	8.25
464.58	8.32
464.784	8.3
464.989	8.33
465.193	8.35
465.398	8.37
465.602	8.37
465.807	8.43
466.011	8.47
466.216	8.54
466.42	8.61
466.625	8.63
466.829	8.64
467.034	8.7
467.238	8.77
467.443	8.81
467.647	8.85
467.851	8.86
468.056	8.89
468.26	8.87
468.464	8.86
468.669	8.85
468.873	8.82
469.077	8.84
469.282	8.84
469.486	8.89
469.69	8.96
469.894	9.03
470.099	9.08
470.303	9.12
470.507	9.15
470.711	9.18
470.915	9.23
471.119	9.24
471.324	9.2
471.528	9.27
471.732	9.31
471.936	9.35
472.14	9.34
472.344	9.37
472.548	9.46
472.752	9.56
472.956	9.6
473.16	9.63
473.364	9.64
473.568	9.69
473.772	9.73
473.976	9.77
474.18	9.76
474.384	9.75
474.588	9.75
474.792	9.74
474.995	9.79
475.199	9.79
475.403	9.77
475.607	9.83
475.811	9.85
476.015	9.93
476.218	9.99
476.422	10.05
476.626	10.06
476.83	10.07
477.033	10.07
477.237	10.1
477.441	10.13
477.644	10.18
477.848	10.19
478.052	10.25
478.255	10.27
478.459	10.34
478.663	10.36
478.866	10.36
479.07	10.38
479.273	10.41
479.477	10.45
479.681	10.48
479.884	10.41
480.088	10.45
480.291	10.49
480.495	10.52
480.698	10.49
480.901	10.5
481.105	10.54
481.308	10.59
481.512	10.59
481.715	10.59
481.919	10.61
482.122	10.61
482.325	10.62
482.529	10.64
482.732	10.7
482.935	10.7
483.138	10.72
483.342	10.77
483.545	10.83
483.748	10.86
483.952	10.86
484.155	10.89
484.358	10.91
484.561	10.94
484.764	10.91
484.967	10.88
485.171	10.88
485.374	10.9
485.577	10.89
485.78	10.92
485.983	10.95
486.186	10.9
486.389	10.86
486.592	10.84
486.795	10.81
486.998	10.82
487.201	10.82
487.404	10.81
487.607	10.84
487.81	10.9
488.013	10.97
488.216	10.99
488.419	10.98
488.622	10.95
488.825	10.94
489.028	10.93
489.231	10.97
489.433	10.92
489.636	10.9
489.839	10.91
490.042	10.95
490.245	10.97
490.447	10.97
490.65	10.99
490.853	11.01
491.056	11.06
491.258	11.07
491.461	11.06
491.664	11.02
491.866	11.05
492.069	11.06
492.272	11.05
492.474	11.04
492.677	11.05
492.879	11.1
493.082	11.15
493.285	11.15
493.487	11.16
493.69	11.15
493.892	11.2
494.095	11.21
494.297	11.21
494.5	11.23
494.702	11.25
494.905	11.27
495.107	11.32
495.309	11.26
495.512	11.28
495.714	11.3
495.917	11.3
496.119	11.33
496.321	11.36
496.524	11.34
496.726	11.41
496.928	11.43
497.13	11.5
497.333	11.54
497.535	11.53
497.737	11.52
497.939	11.6
498.142	11.58
498.344	11.58
498.546	11.56
498.748	11.55
498.95	11.6
499.152	11.61
499.355	11.62
499.557	11.69
499.759	11.8
499.961	11.85
500.163	11.94
500.365	11.95
500.567	12
500.769	12.04
500.971	12.03
501.173	12.01
501.375	12
501.577	11.96
501.779	12.01
501.981	12.04
502.183	12.04
502.385	12.07
502.587	12.1
502.788	12.1
502.99	12.12
503.192	12.14
503.394	12.15
503.596	12.15
503.798	12.24
503.999	12.26
504.201	12.31
504.403	12.4
504.605	12.43
504.806	12.48
505.008	12.53
505.21	12.52
505.411	12.55
505.613	12.57
505.815	12.59
506.016	12.64
506.218	12.67
506.42	12.73
506.621	12.77
506.823	12.84
507.024	12.88
507.226	12.9
507.427	12.88
507.629	12.92
507.83	12.93
508.032	13
508.233	13.03
508.435	13.06
508.636	13.1
508.838	13.2
509.039	13.23
509.24	13.3
509.442	13.26
509.643	13.27
509.845	13.35
510.046	13.37
510.247	13.41
510.448	13.44
510.65	13.46
510.851	13.53
511.052	13.58
511.254	13.56
511.455	13.57
511.656	13.56
511.857	13.59
512.058	13.66
512.26	13.68
512.461	13.67
512.662	13.7
512.863	13.77
513.064	13.79
513.265	13.8
513.466	13.81
513.667	13.82
513.868	13.82
514.069	13.87
514.27	13.89
514.471	13.97
514.672	14.01
514.873	14.02
515.074	14.07
515.275	14.11
515.476	14.12
515.677	14.16
515.878	14.18
516.079	14.19
516.28	14.2
516.481	14.18
516.682	14.22
516.882	14.26
517.083	14.25
517.284	14.23
517.485	14.25
517.686	14.28
517.886	14.33
518.087	14.36
518.288	14.39
518.488	14.41
518.689	14.45
518.89	14.5
519.091	14.53
519.291	14.57
519.492	14.53
519.692	14.56
519.893	14.57
520.094	14.56
520.294	14.56
520.495	14.58
520.695	14.59
520.896	14.61
521.096	14.63
521.297	14.66
521.497	14.69
521.698	14.71
521.898	14.76
522.099	14.8
522.299	14.87
522.499	14.89
522.7	14.92
522.9	14.92
523.101	14.93
523.301	14.92
523.501	14.93
523.702	14.9
523.902	14.9
524.102	14.93
524.302	14.98
524.503	15.01
524.703	15.06
524.903	15.11
525.103	15.12
525.304	15.13
525.504	15.08
525.704	15.08
525.904	15.09
526.104	15.11
526.304	15.11
526.504	15.12
526.705	15.15
526.905	15.2
527.105	15.23
527.305	15.22
527.505	15.24
527.705	15.23
527.905	15.26
528.105	15.31
528.305	15.33
528.505	15.36
528.705	15.43
528.905	15.42
529.105	15.46
529.304	15.5
529.504	15.53
529.704	15.55
529.904	15.63
530.104	15.58
530.304	15.61
530.503	15.61
530.703	15.65
530.903	15.63
531.103	15.61
531.303	15.57
531.502	15.6
531.702	15.61
531.902	15.62
532.101	15.63
532.301	15.67
532.501	15.74
532.7	15.78
532.9	15.86
533.1	15.88
533.299	15.9
533.499	15.93
533.698	15.96
533.898	15.96
534.097	15.93
534.297	15.88
534.496	15.91
534.696	15.96
534.895	16.01
535.095	16.04
535.294	16.05
535.494	16.11
535.693	16.21
535.892	16.27
536.092	16.29
536.291	16.31
536.491	16.33
536.69	16.36
536.889	16.38
537.088	16.35
537.288	16.38
537.487	16.41
537.686	16.39
537.886	16.41
538.085	16.45
538.284	16.54
538.483	16.59
538.682	16.59
538.882	16.62
539.081	16.71
539.28	16.74
539.479	16.79
539.678	16.82
539.877	16.88
540.076	16.94
540.275	16.98
540.474	16.97
540.673	17.02
540.872	17.07
541.071	17.09
541.27	17.1
541.469	17.13
541.668	17.2
541.867	17.28
542.066	17.33
542.265	17.39
542.464	17.49
542.663	17.6
542.862	17.69
543.06	17.78
543.259	17.88
543.458	17.94
543.657	18.02
543.856	18.04
544.054	18.07
544.253	18.09
544.452	18.03
544.651	18.04
544.849	18.09
545.048	18.08
545.247	18.1
545.445	18.08
545.644	18.14
545.843	18.24
546.041	18.25
546.24	18.3
546.438	18.37
546.637	18.47
546.836	18.6
547.034	18.66
547.233	18.74
547.431	18.82
547.63	18.86
547.828	18.93
548.027	18.93
548.225	19.01
548.423	19.04
548.622	19.08
548.82	19.17
549.019	19.23
549.217	19.35
549.415	19.46
549.614	19.49
549.812	19.57
550.01	19.66
550.209	19.73
550.407	19.86
550.605	19.92
550.803	19.99
551.002	20.07
551.2	20.18
551.398	20.24
551.596	20.32
551.794	20.39
551.993	20.44
552.191	20.53
552.389	20.63
552.587	20.69
552.785	20.8
552.983	20.89
553.181	20.96
553.379	21.09
553.577	21.19
553.775	21.28
553.973	21.41
554.171	21.52
554.369	21.62
554.567	21.74
554.765	21.76
554.963	21.82
555.161	21.94
555.359	22.02
555.557	22.12
555.755	22.21
555.952	22.29
556.15	22.44
556.348	22.56
556.546	22.68
556.744	22.81
556.941	22.92
557.139	23.04
557.337	23.17
557.535	23.29
557.732	23.39
557.93	23.45
558.128	23.49
558.325	23.59
558.523	23.69
558.721	23.77
558.918	23.87
559.116	23.95
559.313	24.1
559.511	24.19
559.708	24.29
559.906	24.36
560.104	24.5
560.301	24.58
560.498	24.71
560.696	24.8
560.893	24.96
561.091	25.06
561.288	25.2
561.486	25.28
561.683	25.42
561.88	25.48
562.078	25.57
562.275	25.65
562.473	25.76
562.67	25.83
562.867	25.9
563.064	26.03
563.262	26.22
563.459	26.34
563.656	26.42
563.853	26.5
564.051	26.62
564.248	26.76
564.445	26.85
564.642	26.93
564.839	27.07
565.036	27.16
565.234	27.29
565.431	27.38
565.628	27.47
565.825	27.54
566.022	27.61
566.219	27.69
566.416	27.82
566.613	27.93
566.81	27.99
567.007	28.04
567.204	28.09
567.401	28.21
567.598	28.23
567.795	28.31
567.991	28.4
568.188	28.59
568.385	28.75
568.582	28.87
568.779	28.92
568.976	29.03
569.172	29.17
569.369	29.15
569.566	29.14
569.763	29.2
569.96	29.26
570.156	29.3
570.353	29.33
570.55	29.38
570.746	29.46
570.943	29.59
571.14	29.61
571.336	29.63
571.533	29.73
571.729	29.8
571.926	29.82
572.123	29.85
572.319	29.9
572.516	30
572.712	30.08
572.909	30.09
573.105	30.15
573.302	30.16
573.498	30.2
573.695	30.21
573.891	30.2
574.087	30.23
574.284	30.25
574.48	30.24
574.677	30.3
574.873	30.36
575.069	30.34
575.266	30.35
575.462	30.33
575.658	30.44
575.854	30.46
576.051	30.41
576.247	30.43
576.443	30.52
576.639	30.53
576.835	30.59
577.032	30.51
577.228	30.56
577.424	30.63
577.62	30.66
577.816	30.63
578.012	30.64
578.208	30.66
578.404	30.69
578.6	30.66
578.796	30.69
578.993	30.67
579.189	30.62
579.384	30.59
579.58	30.54
579.776	30.54
579.972	30.53
580.168	30.47
580.364	30.49
580.56	30.56
580.756	30.58
580.952	30.55
581.148	30.56
581.343	30.59
581.539	30.56
581.735	30.54
581.931	30.59
582.127	30.57
582.322	30.59
582.518	30.59
582.714	30.54
582.909	30.57
583.105	30.55
583.301	30.45
583.496	30.41
583.692	30.4
583.888	30.37
584.083	30.45
584.279	30.46
584.474	30.4
584.67	30.4
584.866	30.48
585.061	30.53
585.257	30.58
585.452	30.49
585.648	30.49
585.843	30.6
586.039	30.62
586.234	30.56
586.429	30.54
586.625	30.49
586.82	30.52
587.015	30.48
587.211	30.47
587.406	30.43
587.601	30.41
587.797	30.38
587.992	30.43
588.187	30.42
588.383	30.45
588.578	30.41
588.773	30.49
588.968	30.61
589.163	30.66
589.359	30.66
589.554	30.66
589.749	30.72
589.944	30.79
590.139	30.77
590.334	30.77
590.529	30.88
590.724	30.9
590.919	31.02
591.114	31.01
591.309	31.01
591.504	31.04
591.699	31.03
591.894	30.99
592.089	31.05
592.284	31.05
592.479	31.1
592.674	31.19
592.869	31.29
593.064	31.41
593.259	31.44
593.454	31.45
593.648	31.52
593.843	31.6
594.038	31.64
594.233	31.73
594.428	31.78
594.622	31.83
594.817	31.97
595.012	32.06
595.206	32.11
595.401	32.2
595.596	32.25
595.79	32.28
595.985	32.41
596.18	32.45
596.374	32.49
596.569	32.6
596.763	32.68
596.958	32.72
597.153	32.79
597.347	32.82
597.542	32.93
597.736	33.06
597.931	33.1
598.125	33.15
598.319	33.25
598.514	33.37
598.708	33.39
598.903	33.41
599.097	33.43
599.291	33.48
599.486	33.55
599.68	33.59
599.874	33.66
600.069	33.76
600.263	33.74
600.457	33.84
600.651	33.92
600.846	33.98
601.04	34.06
601.234	34.02
601.428	34.03
601.622	34.12
601.817	34.15
602.011	34.19
602.205	34.2
602.399	34.17
602.593	34.22
602.787	34.29
602.981	34.27
603.175	34.23
603.369	34.17
603.563	34.15
603.757	34.09
603.951	34.05
604.145	33.96
604.339	34.02
604.533	34.01
604.727	34.04
604.921	34.06
605.115	34.11
605.309	34.17
605.502	34.21
605.696	34.16
605.89	34.18
606.084	34.1
606.278	34.05
606.471	33.99
606.665	33.95
606.859	33.9
607.053	33.85
607.246	33.74
607.44	33.73
607.634	33.69
607.827	33.59
608.021	33.48
608.214	33.42
608.408	33.41
608.602	33.39
608.795	33.29
608.989	33.25
609.182	33.29
609.376	33.26
609.569	33.13
609.763	33.08
609.956	32.94
610.15	32.93
610.343	32.85
610.537	32.72
610.73	32.67
610.923	32.66
611.117	32.5
611.31	32.41
611.504	32.32
611.697	32.3
611.89	32.23
612.083	32.18
612.277	32.04
612.47	32
612.663	31.97
612.856	31.82
613.05	31.69
613.243	31.68
613.436	31.51
613.629	31.58
613.822	31.46
614.015	31.39
614.209	31.35
614.402	31.28
614.595	31.13
614.788	31.08
614.981	30.94
615.174	30.92
615.367	30.84
615.56	30.77
615.753	30.69
615.946	30.64
616.139	30.61
616.332	30.56
616.525	30.56
616.718	30.47
616.911	30.47
617.103	30.41
617.296	30.37
617.489	30.33
617.682	30.31
617.875	30.18
618.067	30.16
618.26	30.09
618.453	30.01
618.646	30.05
618.838	29.97
619.031	29.84
619.224	29.83
619.417	29.79
619.609	29.76
619.802	29.76
619.994	29.64
620.187	29.62
620.38	29.6
620.572	29.62
620.765	29.57
620.957	29.49
621.15	29.43
621.342	29.44
621.535	29.33
621.727	29.31
621.92	29.25
622.112	29.28
622.305	29.29
622.497	29.31
622.69	29.24
622.882	29.32
623.074	29.27
623.267	29.19
623.459	29.08
623.651	29.12
623.844	29.11
624.036	29.12
624.228	29.06
624.42	29.08
624.613	29.08
624.805	29.12
624.997	29.08
625.189	29
625.381	28.89
625.574	28.87
625.766	28.78
625.958	28.73
626.15	28.73
626.342	28.68
626.534	28.65
626.726	28.71
626.918	28.62
627.11	28.64
627.302	28.63
627.494	28.56
627.686	28.51
627.878	28.43
628.07	28.37
628.262	28.39
628.454	28.38
628.646	28.33
628.838	28.26
629.029	28.16
629.221	28.16
629.413	28.09
629.605	28
629.797	27.92
629.989	27.93
630.18	27.86
630.372	27.93
630.564	27.92
630.755	27.87
630.947	27.82
631.139	27.77
631.33	27.71
631.522	27.7
631.714	27.68
631.905	27.65
632.097	27.68
632.289	27.67
632.48	27.61
632.672	27.53
632.863	27.5
633.055	27.39
633.246	27.36
633.438	27.3
633.629	27.3
633.821	27.32
634.012	27.35
634.203	27.4
634.395	27.46
634.586	27.4
634.777	27.39
634.969	27.38
635.16	27.34
635.351	27.32
635.543	27.25
635.734	27.18
635.925	27.2
636.117	27.21
636.308	27.17
636.499	27.2
636.69	27.26
636.881	27.3
637.073	27.27
637.264	27.24
637.455	27.29
637.646	27.28
637.837	27.26
638.028	27.24
638.219	27.23
638.41	27.21
638.601	27.25
638.792	27.12
638.983	27.07
639.174	27.06
639.365	26.92
639.556	26.87
639.747	26.9
639.938	26.82
640.129	26.79
640.32	26.77
640.511	26.75
640.701	26.72
640.892	26.7
641.083	26.65
641.274	26.65
641.465	26.7
641.655	26.73
641.846	26.65
642.037	26.62
642.228	26.55
642.418	26.5
642.609	26.5
642.8	26.42
642.99	26.39
643.181	26.43
643.372	26.47
643.562	26.46
643.753	26.45
643.943	26.36
644.134	26.31
644.324	26.26
644.515	26.21
644.705	26.17
644.896	26.11
645.086	26.04
645.277	26.08
645.467	26.08
645.658	26.07
645.848	26.05
646.038	26.02
646.229	26.01
646.419	26.07
646.61	25.96
646.8	25.92
646.99	25.89
647.18	25.84
647.371	25.8
647.561	25.81
647.751	25.75
647.941	25.74
648.132	25.78
648.322	25.71
648.512	25.73
648.702	25.67
648.892	25.66
649.082	25.58
649.272	25.52
649.462	25.41
649.653	25.39
649.843	25.27
650.033	25.28
650.223	25.21
650.413	25.27
650.603	25.27
650.793	25.25
650.983	25.26
651.172	25.25
651.362	25.15
651.552	25.08
651.742	24.97
651.932	24.95
652.122	24.84
652.312	24.75
652.502	24.73
652.691	24.72
652.881	24.66
653.071	24.56
653.261	24.46
653.45	24.37
653.64	24.3
653.83	24.17
654.019	24.05
654.209	23.92
654.399	23.81
654.588	23.7
654.778	23.62
654.968	23.46
655.157	23.28
655.347	23.04
655.536	22.85
655.726	22.81
655.915	22.63
656.105	22.51
656.294	22.31
656.484	22.2
656.673	22.13
656.863	22.03
657.052	21.73
657.241	21.56
657.431	21.3
657.62	21.12
657.809	20.96
657.999	20.76
658.188	20.56
658.377	20.46
658.567	20.25
658.756	20.09
658.945	19.95
659.134	19.73
659.324	19.59
659.513	19.38
659.702	19.12
659.891	18.95
660.08	18.8
660.269	18.6
660.458	18.39
660.648	18.16
660.837	17.98
661.026	17.79
661.215	17.61
661.404	17.35
661.593	17.11
661.782	16.93
661.971	16.74
662.16	16.54
662.349	16.39
662.538	16.26
662.726	16.11
662.915	16.02
663.104	15.79
663.293	15.65
663.482	15.49
663.671	15.31
663.86	15.11
664.048	14.98
664.237	14.79
664.426	14.75
664.615	14.57
664.803	14.44
664.992	14.38
665.181	14.24
665.369	14.1
665.558	14.08
665.747	13.99
665.935	13.95
666.124	13.89
666.312	13.72
666.501	13.66
666.69	13.62
666.878	13.42
667.067	13.3
667.255	13.23
667.444	13.17
667.632	13.12
667.82	13.03
668.009	13.01
668.197	13.04
668.386	13
668.574	12.9
668.762	12.84
668.951	12.81
669.139	12.79
669.327	12.71
669.516	12.64
669.704	12.62
669.892	12.57
670.08	12.5
670.269	12.46
670.457	12.4
670.645	12.42
670.833	12.37
671.021	12.31
671.21	12.41
671.398	12.44
671.586	12.46
671.774	12.49
671.962	12.45
672.15	12.49
672.338	12.56
672.526	12.52
672.714	12.59
672.902	12.59
673.09	12.67
673.278	12.69
673.466	12.85
673.654	12.87
673.842	12.91
674.03	12.95
674.218	13.02
674.405	13.11
674.593	13.2
674.781	13.18
674.969	13.24
675.157	13.35
675.344	13.44
675.532	13.54
675.72	13.57
675.908	13.63
676.095	13.79
676.283	13.87
676.471	13.87
676.658	13.94
676.846	14.05
677.033	14.17
677.221	14.27
677.409	14.29
677.596	14.44
677.784	14.64
677.971	14.7
678.159	14.78
678.346	14.92
678.534	14.97
678.721	15.07
678.909	15.06
679.096	15.12
679.283	15.31
679.471	15.52
679.658	15.63
679.846	15.88
680.033	16.07
680.22	16.18
680.408	16.32
680.595	16.47
680.782	16.53
680.969	16.64
681.157	16.8
681.344	17
681.531	17.33
681.718	17.6
681.905	17.76
682.093	18.05
682.28	18.37
682.467	18.49
682.654	18.63
682.841	18.82
683.028	19.08
683.215	19.31
683.402	19.32
683.589	19.46
683.776	19.78
683.963	20.02
684.15	20.27
684.337	20.47
684.524	20.76
684.711	21.2
684.898	21.48
685.085	21.8
685.271	22.12
685.458	22.54
685.645	22.82
685.832	23.17
686.019	23.52
686.205	23.94
686.392	24.33
686.579	24.69
686.766	25.04
686.952	25.62
687.139	26.01
687.326	26.49
687.512	26.91
687.699	27.3
687.886	27.75
688.072	28.25
688.259	28.65
688.445	29.18
688.632	29.72
688.818	30.22
689.005	30.91
689.191	31.54
689.378	32
689.564	32.53
689.751	33.12
689.937	33.5
690.124	34
690.31	34.4
690.496	34.92
690.683	35.53
690.869	36.14
691.055	36.74
691.242	37.3
691.428	38.03
691.614	38.84
691.8	39.36
691.987	40
692.173	40.51
692.359	41.05
692.545	41.77
692.731	42.38
692.918	42.78
693.104	43.41
693.29	44.06
693.476	44.78
693.662	45.32
693.848	45.91
694.034	46.35
694.22	47.06
694.406	47.66
694.592	48.17
694.778	48.59
694.964	49.08
695.15	49.63
695.336	50.3
695.522	50.91
695.708	51.51
695.894	52.03
696.08	52.7
696.265	53.31
696.451	54.06
696.637	54.44
696.823	54.68
697.009	55.14
697.194	55.66
697.38	56.04
697.566	56.61
697.751	56.95
697.937	57.58
698.123	58.16
698.308	58.55
698.494	58.93
698.68	59.41
698.865	59.87
699.051	60.32
699.236	60.63
699.422	61.05
699.607	61.42
699.793	61.91
699.978	62.24
700.164	62.46
700.349	62.71
700.535	63.08
700.72	63.47
700.906	63.84
701.091	64
701.276	64.36
701.462	64.64
701.647	64.91
701.832	65.32
702.018	65.45
702.203	65.54
702.388	65.83
702.573	66.18
702.759	66.53
702.944	66.84
703.129	66.93
703.314	67.43
703.499	68.03
703.684	68.57
703.87	68.9
704.055	69.15
704.24	69.35
704.425	69.81
704.61	69.88
704.795	69.94
704.98	69.9
705.165	69.99
705.35	70.17
705.535	70.53
705.72	70.51
705.905	70.54
706.09	70.71
706.275	70.8
706.459	71
706.644	71.25
706.829	71.42
707.014	71.42
707.199	71.61
707.384	71.94
707.568	72.24
707.753	72.55
707.938	72.58
708.123	72.47
708.307	72.83
708.492	72.9
708.677	73.12
708.861	73.25
709.046	72.99
709.231	73.17
709.415	73.35
709.6	73.38
709.784	73.86
709.969	73.97
710.153	74.27
710.338	74.56
710.522	74.58
710.707	74.52
710.891	74.83
711.076	74.55
711.26	74.46
711.445	74.35
711.629	74.51
711.813	74.46
711.998	74.71
712.182	74.86
712.366	75.05
712.551	75.23
712.735	75.35
712.919	75.5
713.103	75.84
713.288	76.12
713.472	75.96
713.656	76.07
713.84	75.96
714.024	76
714.208	75.94
714.393	75.98
714.577	76
714.761	76.24
714.945	76.29
715.129	76.44
715.313	76.57
715.497	76.85
715.681	77.19
715.865	77.08
716.049	77.09
716.233	77.56
716.417	77.8
716.601	77.92
716.785	77.85
716.968	77.43
717.152	77.48
717.336	77.39
717.52	77.34
717.704	77.33
717.888	77.46
718.071	77.51
718.255	77.71
718.439	77.75
718.622	78.13
718.806	77.81
718.99	78.02
719.174	77.94
719.357	78.1
719.541	78.33
719.724	78.67
719.908	78.5
720.092	78.79
720.275	78.78
720.459	78.79
720.642	78.67
720.826	78.69
721.009	78.62
721.193	78.67
721.376	78.43
721.559	78.28
721.743	78.11
721.926	78.11
722.11	78.04
722.293	78.01
722.476	78.11
722.66	78.32
722.843	78.43
723.026	78.95
723.21	79.21
723.393	79.41
723.576	79.42
723.759	79.54
723.942	79.72
724.126	79.76
724.309	79.72
724.492	79.46
724.675	79.73
724.858	79.96
725.041	79.89
725.224	80.01
725.407	80.01
725.59	79.7
725.774	80.02
725.957	80.01
726.14	79.69
726.322	79.49
726.505	79.85
726.688	80
726.871	80.51
727.054	80.54
727.237	80.18
727.42	80.88
727.603	81.44
727.786	81.21
727.968	81.41
728.151	81.37
728.334	81.44
728.517	81.88
728.699	82
728.882	82.07
729.065	81.89
729.248	81.53
729.43	81.47
729.613	81.47
729.796	81.33
729.978	80.97
730.161	81.01
730.343	81.33
730.526	81.66
730.708	81.74
730.891	82.04
731.073	81.88
731.256	82.14
731.438	82.37
731.621	82.92
731.803	83.37
731.986	83.69
732.168	83.48
732.35	83.93
732.533	83.79
732.715	83.7
732.898	83.48
733.08	83.52
733.262	83.44
733.444	83.58
733.627	83.74
733.809	84.08
733.991	83.96
734.173	83.5
734.355	83.58
734.538	83.4
734.72	83.74
734.902	83.43
735.084	83.27
735.266	83.31
735.448	83.92
735.63	83.8
735.812	84.19
735.994	83.68
736.176	83.99
736.358	84.38
736.54	84.48
736.722	84.24
736.904	84.29
737.086	84.26
737.268	84.87
737.45	84.98
737.632	84.44
737.814	84.09
737.995	84.15
738.177	84.23
738.359	84.47
738.541	84.12
738.723	84.24
738.904	84.21
739.086	84.72
739.268	84.92
739.449	84.62
739.631	84.61
739.813	84.47
739.994	84.65
740.176	85.24
740.358	85.34
740.539	85.1
740.721	85.13
740.902	84.68
741.084	85.11
741.265	84.74
741.447	84.31
741.628	83.6
741.81	83.97
741.991	84.78
742.172	85.12
742.354	84.9
742.535	85.19
742.717	85.08
742.898	85.72
743.079	85.17
743.261	84.67
743.442	84.61
743.623	85.24
743.804	84.7
743.986	84.86
744.167	84.64
744.348	85.36
744.529	85.15
744.71	84.97
744.891	84.24
745.073	84.7
745.254	84.66
745.435	84.76
745.616	84.17
745.797	83.58
745.978	84.01
746.159	83.82
746.34	83.92
746.521	84.15
746.702	83.99
746.883	84.19
747.064	84.74
747.245	85.23
747.426	85.31
747.606	85.18
747.787	85.54
747.968	85.93
748.149	85.94
748.33	86.31
748.51	85.86
748.691	87.07
748.872	86.94
749.053	86.63
749.233	86.23
749.414	85.77
749.595	85.48
749.775	85.11
749.956	83.35
750.137	82.76
750.317	83.09
750.498	83.44
750.678	83.99
750.859	84.46
751.04	84.48
751.22	84.84
751.4	85.55
751.581	85.28
751.761	85.74
751.942	85.68
752.122	84.97
752.303	85.28
752.483	86.34
752.663	86.78
752.844	86.04
753.024	85.5
753.204	85.57
753.385	85.35
753.565	84.55
753.745	84
753.925	82.73
754.106	83.49
754.286	83.41
754.466	83.3
754.646	82.87
754.826	83.85
755.006	83.47
755.187	84.35
755.367	84.28
755.547	84.12
755.727	83.42
755.907	84.75
756.087	83.53
756.267	83.56
756.447	83.06
756.627	83.2
756.807	83.72
756.987	84.34
757.167	83.52
757.346	83.8
757.526	83.94
757.706	84.51
757.886	83.88
758.066	83.3
758.246	83.46
758.425	83.94
758.605	84.13
758.785	83.92
758.965	82.92
759.144	82.75
759.324	83.58
759.504	83.7
759.683	83.03
759.863	82.92
760.043	82.69
760.222	82.72
760.402	83.1
760.581	82.33
760.761	81.44
760.94	81.42
761.12	81.61
761.299	81.66
761.479	82.68
761.658	82.05
761.838	82.03
762.017	82.08
762.197	82.42
762.376	82.03
762.555	82.7
762.735	81.07
762.914	81.69
763.093	81.73
763.273	81.81
763.452	81.69
763.631	81.34
763.81	81.19
763.99	81.67
764.169	81.49
764.348	82.03
764.527	82.05
764.706	82.2
764.885	82.65
765.064	82.02
765.243	81.63
765.423	81.26
765.602	80.16
765.781	80.08
765.96	79.47
766.139	79.26
766.318	80.14
766.497	80.39
766.676	81.48
766.854	81.88
767.033	81.58
767.212	81.49
767.391	81.07
767.57	80.75
767.749	80.73
767.928	79.25
768.106	78.94
768.285	79.06
768.464	80.14
768.643	80.82
768.821	80.3
769	80.91
769.179	80.33
769.357	79.42
769.536	78.96
769.715	77.59
769.893	76.85
770.072	76.35
770.25	76.25
770.429	77.73
770.607	78.53
770.786	79.31
770.964	79.67
771.143	80.18
771.321	80.37
771.5	79.29
771.678	79.32
771.857	78.5
772.035	77.64
772.213	78.45
772.392	78.31
772.57	77.98
772.748	78.76
772.927	78.34
773.105	79.83
773.283	79.73
773.461	78.3
773.64	77.51
773.818	77.25
773.996	77.88
774.174	78.08
774.352	77.92
774.531	77.4
774.709	78.17
774.887	77.62
775.065	78.04
775.243	77.9
775.421	77.22
775.599	76.46
775.777	77.41
775.955	76.57
776.133	77.27
776.311	77.18
776.489	76.15
776.667	75.99
776.844	75.62
777.022	75.69
777.2	75.49
777.378	75.38
777.556	75.2
777.734	75.06
777.911	76.06
778.089	75.58
778.267	75.17
778.445	75.29
778.622	74.89
778.8	76.14
778.978	76.9
779.155	75.79
779.333	75.39
779.511	75.3
779.688	75.26
779.866	75.07
780.043	74.31
780.221	74.3
780.398	73.86
780.576	73.88
780.753	73.17
780.931	74.08
781.108	76.14
781.286	75.19
781.463	75.33
781.64	76.12
781.818	77.39
781.995	79.73
782.172	79.52
782.35	77.9
782.527	79.66
782.704	77.45
782.882	78.35
783.059	77.4
783.236	76.12
783.413	76.85
783.59	76.09
783.768	74.99
783.945	76.73
784.122	76.05
784.299	75.79
784.476	74.7
784.653	73.54
784.83	72.92
785.007	72.61
785.184	72.34
785.361	71.24
785.538	72.33
785.715	72.2
785.892	72.49
786.069	74.62
786.246	73.16
786.423	72.99
786.6	73.92
786.776	73.15
786.953	72.96
787.13	72.4
787.307	72.05
787.484	73.65
787.66	72.78
787.837	72.58
788.014	72.08
788.191	73.37
788.367	73.16
788.544	73.87
788.721	73.2
788.897	75.52
789.074	75.24
789.25	78.12
789.427	77.94
789.603	79.62
789.78	80.45
789.956	79.85
790.133	78.23
790.309	77.4
790.486	76.28
790.662	77.11
790.839	77.79
791.015	75.02
791.192	76.75
791.368	77.35
791.544	77.93
791.721	76.02
791.897	74.15
792.073	72.33
792.249	73.28
792.426	74.57
792.602	72.55
792.778	73.08
792.954	75.32
793.13	77.71
793.307	75.38
793.483	74.17
793.659	73.87
793.835	74.02
794.011	71.27
794.187	68.66
794.363	66.64
794.539	67.29
794.715	67.12
794.891	62.93
795.067	64.89
795.243	66.41
795.419	68.44
795.595	67.26
795.771	69.25
795.947	69.77
796.122	72.9
796.298	72.67
796.474	75.24
796.65	73.93
796.826	77.57
797.001	77.68
797.177	78.2
797.353	80.95
797.529	81.97
797.704	80.62
797.88	80.43
798.056	79.64
798.231	76.48
798.407	78.41
798.582	77.45
798.758	78.76
798.934	77.95
799.109	76.21
799.285	75.09
799.46	77.13
799.636	75.05
799.811	74.65
799.986	71.62
800.162	72.25
800.337	72.39
800.513	71.7
800.688	74.12
800.863	75.13
801.039	70.47
801.214	68.83
801.389	65.27
801.565	68.58
801.74	69.32
801.915	66.81
802.09	64.1
802.265	65.37
802.441	66.79
802.616	70.37
802.791	70.6
802.966	72.87
803.141	69.89
803.316	72.03
803.491	74.44
803.666	74.24
803.841	71.74
804.016	71.89
804.191	68.36
804.366	70.97
804.541	72.31
804.716	67.29
804.891	69.73
805.066	68.93
805.241	64.92
805.416	64.55
805.591	66.33
805.765	66.04
805.94	73.5
806.115	70.63
806.29	75.59
806.464	75.19
806.639	76.93
806.814	72.46
806.989	69.47
807.163	65.6
807.338	63.23
807.512	59.56
807.687	59.33
807.862	60.66
808.036	62.94
808.211	63.83
808.385	60.33
808.56	61.91
808.734	61.49
808.909	60.59
809.083	58.97
809.258	64.45
809.432	63.43
809.606	65.82
809.781	63.61
809.955	68.2
810.13	74.2
810.304	72.21
810.478	68.13
810.652	72.69
810.827	73.87
811.001	77.48
811.175	73.55
811.349	68.75
811.524	69.54
811.698	70.73
811.872	68.86
812.046	66.24
812.22	68.46
812.394	67.81
812.568	72.69
812.742	73.4
812.916	76.57
813.09	74.37
813.264	77.97
813.438	78.35
813.612	80.33
813.786	80.25
813.96	82.4
814.134	77.74
814.308	76.52
814.482	79.16
814.656	77.17
814.83	79.1
815.003	80.4
815.177	80.03
815.351	79.35
815.525	79.83
815.698	71.56
815.872	72.54
816.046	69.58
816.219	65.42
816.393	60.1
816.567	58.27
816.74	59.64
816.914	63.92
817.088	59.88
817.261	62.07
817.435	59.67
817.608	64.38
817.782	69.21
817.955	67.77
818.129	72.17
818.302	76.39
818.475	77.28
818.649	79.17
818.822	81.7
818.996	81.63
819.169	79.97
819.342	72.43
819.516	68.34
819.689	65.98
819.862	60.05
820.035	56.98
820.209	52.19
820.382	54.26
820.555	56.15
820.728	56.36
820.901	52.16
821.075	60.9
821.248	61.11
821.421	60.72
821.594	63.3
821.767	68.59
821.94	62.29
822.113	70.12
822.286	70.87
822.459	71.01
822.632	73.85
822.805	68.2
822.978	66.47
823.151	74.41
823.324	66.28
823.496	58.05
823.669	61.33
823.842	64.93
824.015	65.55
824.188	64.15
824.361	58.86
824.533	68.94
824.706	84.89
824.879	78.45
825.051	75.75
825.224	79.68
825.397	75.47
825.569	84.88
825.742	75.78
825.915	70.14
826.087	65.69
826.26	68.51
826.432	68.84
826.605	66.51
826.777	65.58
826.95	63.48
827.122	57.14
827.295	56.39
827.467	42.64
827.64	36.08
827.812	39.66
827.984	38.12
828.157	46.68
828.329	53.43
828.501	60.5
828.674	66.83
828.846	70.82
829.018	66.13
829.19	60
829.363	57.75
829.535	59.58
829.707	58.26
829.879	59.11
830.051	55.89
830.223	56.05
830.395	54.47
830.568	54
830.74	51.5
830.912	49.74
831.084	49.82
831.256	48.21
831.428	49.99
831.6	54.67
831.772	52.96
831.943	56.52
832.115	57.98
832.287	58.23
832.459	67.59
832.631	72.21
832.803	76.86
832.975	81.29
833.146	72.17
833.318	75.4
833.49	78.75
833.662	67.73
833.833	67.6
834.005	69.12
834.177	65.72
834.348	67.12
834.52	64.16
834.692	66.25
834.863	73.54
835.035	59.16
835.206	53.06
835.378	49.91
835.549	57.72
835.721	65.03
835.892	63.44
836.064	65.98
836.235	76.67
836.407	77.18
836.578	86.32
836.749	83.01
836.921	74.98
837.092	84.08
837.264	79.12
837.435	66.54
837.606	71.13
837.777	56.09
837.949	48.15
838.12	51.73
838.291	55.92
838.462	60.15
838.633	69.67
838.805	64.33
838.976	73.08
839.147	74.96
839.318	76.69
839.489	54.43
839.66	54.58
839.831	46.42
840.002	48.7
840.173	54.79
840.344	66.43
840.515	69.82
840.686	77.31
840.857	64.57
841.028	76.12
841.199	76.4
841.369	68.63
841.54	72.53
841.711	75.57
841.882	79.32
842.053	79.31
842.223	79.32
842.394	68.16
842.565	65.64
842.736	53.71
842.906	46.3
843.077	51.21
843.248	61.72
843.418	50.96
843.589	59.29
843.759	63.08
843.93	74.95
844.101	75.38
844.271	75.67
844.442	79.19
844.612	82.51
844.783	60.78
844.953	50.89
845.123	44.52
845.294	33.83
845.464	38.49
845.635	42.78
845.805	44.7
845.975	54.45
846.146	55.31
846.316	65.03
846.486	63.36
846.656	68.05
846.827	58.78
846.997	69.25
847.167	68.12
847.337	70.64
847.507	60.98
847.677	69.9
847.848	72.98
848.018	69.44
848.188	55.46
848.358	62.92
848.528	64.5
848.698	59.33
848.868	46.24
849.038	39.58
849.208	44.75
849.378	57.46
849.548	60.6
849.718	56.69
849.887	53.05
850.057	55.12
850.227	50.98
850.397	51.92
850.567	56.35
850.737	52.49
850.906	43.58
851.076	42.91
851.246	52.04
851.415	58.98
851.585	58.07
851.755	56.57
851.924	64.08
852.094	73.52
852.264	88.83
852.433	92.15
852.603	104.3
852.772	93.31
852.942	73.37
853.111	68.27
853.281	65.13
853.45	57.94
853.62	41.93
853.789	24.42
853.959	18.17
854.128	13.29
854.297	5.49
854.467	7.53
854.636	7.07
854.805	22.88
854.975	35.31
855.144	54.41
855.313	74.46
855.482	80.77
855.652	76.98
855.821	69.37
855.99	86.37
856.159	84.56
856.328	70.42
856.497	58.53
856.667	44.74
856.836	42.65
857.005	45.24
857.174	38.35
857.343	36.2
857.512	20.65
857.681	19.66
857.85	17.4
858.019	27.5
858.188	16.46
858.356	1.88
858.525	16.64
858.694	33.63
858.863	41.47
859.032	47.57
859.201	38.08
859.369	55.29
859.538	54.38
859.707	60.1
859.876	55.02
860.044	48.5
860.213	46.92
860.382	48.62
860.55	63.31
860.719	86.57
860.888	77.87
861.056	90.26
861.225	108.44
861.393	119.71
861.562	110.02
861.73	86.58
861.899	57.11
862.067	53.82
862.236	53.86
862.404	42.96
862.572	33.8
862.741	32.13
862.909	37.01
863.078	45.9
863.246	48.38
863.414	41.95
863.582	35.09
863.751	47.06
863.919	62.9
864.087	49.2
864.255	35.4
864.424	34.45
864.592	41.37
864.76	57.36
864.928	50.2
865.096	35.5
865.264	44.66
865.432	38.5
865.6	25.88
865.768	8
865.936	-7.73
866.104	-15.66
866.272	8.91
866.44	-12.28
866.608	15.81
866.776	52.65
866.944	58.88
867.112	36.76
867.28	20.06
867.448	26.72
867.615	35.1
867.783	14.61
867.951	5.81
868.119	54.65
868.286	53.18
868.454	58.05
868.622	58.27
868.789	62.44
868.957	80.61
869.125	70.18
869.292	61.02
869.46	59.67
869.627	72.41
869.795	55.31
869.963	62.88
870.13	60.87
870.298	49.81
870.465	15.52
870.632	20.05
870.8	-8.8
870.967	21.15
871.135	6.38
871.302	9.77
871.469	14.21
871.637	22.07
871.804	31.12
871.971	36.12
872.139	25.82
872.306	25.68
872.473	2.79
872.64	-0.52
872.807	-3.07
872.975	6.5
873.142	2.06
873.309	7.27
873.476	27.88
873.643	117.02
873.81	178.08
873.977	108.25
874.144	87.28
874.311	49.73
874.478	12.75
874.645	10.76
874.812	5.38
874.979	-30.12
875.146	-36.97
875.313	-97.99
875.48	-64.51
875.647	-139.56
875.813	-130.31
875.98	-106.17
876.147	-29.26
876.314	-10.17
876.481	23.79
876.647	30.95
876.814	48.31
876.981	40.23
877.147	21.34
877.314	7.52
877.481	17.12
877.647	24.92
877.814	23.86
877.98	24.91
878.147	36.9
878.314	70.12
878.48	85.67
878.647	103.03
878.813	88.37
878.979	105.45
879.146	65.18
879.312	90.81
879.479	70.68
879.645	49.35
879.811	33.75
879.978	27.2
880.144	31.32
880.31	18.34
880.477	-22.97
880.643	-129.84
880.809	-32.73
880.975	-82.82
881.142	-15.76
881.308	-31.18
881.474	34.78
881.64	0.28
881.806	43.28
881.972	62.88
882.138	105.93
882.304	83.98
882.47	59.15
882.636	6.78
882.802	23.44
882.968	-48.72
883.134	-159.43
883.3	-72.57
883.466	-8.14
883.632	4.41
883.798	32.22
883.964	37.86
884.129	62.27
884.295	56.93
884.461	47.9
884.627	42.05
884.793	41.9
884.958	24.72
885.124	-3.75
885.29	2.43
885.455	9.53
885.621	14.25
885.787	4.91
885.952	-15.61
886.118	-15.79
886.283	12.21
886.449	-15.26
886.614	-26.31
886.78	10.52
886.945	2.7
887.111	29.6
887.276	38.45
887.442	40.88
887.607	55.64
887.773	45.99
887.938	35.05
888.103	67.49
888.269	72.46
888.434	87.41
888.599	84.36
888.764	91.13
888.93	96.94
889.095	104.5
889.26	118.96
889.425	119.37
889.59	95.77
889.756	103.02
889.921	64.46
890.086	87.78
890.251	78.51
890.416	36.49
890.581	-1.14
890.746	-14.82
890.911	-57.01
891.076	-51.47
891.241	-117.71
891.406	6.24
891.571	40.88
891.736	49.75
891.901	71.02
892.065	87.76
892.23	60.82
892.395	25.76
892.56	1.72
892.725	-17.77
892.889	-62.86
893.054	-115.26
893.219	-178.6
893.384	-184.95
893.548	-312.5
893.713	584.41
893.878	262.5
