Data from Ofra_2a_PS_2H517_Reflection_1.txt Node
Date: Tue Jul 20 09:45:24 EDT 2021
User: Adam
Spectrometer: FLMT01687
Trigger mode: 0
Integration Time (sec): 9.450000E-1
Scans to average: 3
Electric dark correction enabled: true
Nonlinearity correction enabled: false
Boxcar width: 3
XAxis mode: Wavelengths
Number of Pixels in Spectrum: 3648
>>>>>Begin Spectral Data<<<<<
179.494	852.07
179.716	424.38
179.937	479.67
180.158	1965.23
180.38	-820.64
180.601	-125.19
180.823	-14.18
181.044	159.86
181.265	124.52
181.486	111.97
181.708	844.57
181.929	121.05
182.15	427.84
182.372	20.85
182.593	90.67
182.814	-23.8
183.035	77.79
183.257	56.31
183.478	38.9
183.699	42.33
183.92	40.76
184.141	49.56
184.363	35.02
184.584	23.52
184.805	31.95
185.026	12.89
185.247	7.11
185.468	6.03
185.689	16.39
185.91	11.17
186.132	14.81
186.353	-1.88
186.574	16.86
186.795	5.21
187.016	19.81
187.237	9.21
187.458	10.86
187.679	1.52
187.9	35.97
188.121	28.05
188.342	37.57
188.563	36.02
188.784	36.28
189.005	42.88
189.226	50.24
189.447	31.88
189.667	21.48
189.888	34.95
190.109	32.23
190.33	32.75
190.551	38.25
190.772	19.98
190.993	28.88
191.214	32.69
191.434	21.18
191.655	27.43
191.876	26.59
192.097	25.83
192.318	32.88
192.538	37.97
192.759	48.21
192.98	45.7
193.201	60.78
193.421	67.57
193.642	65.77
193.863	80.34
194.083	68.53
194.304	49.04
194.525	65.91
194.745	36.78
194.966	30.26
195.187	34.74
195.407	33.06
195.628	27.25
195.848	24.36
196.069	9.9
196.29	12.29
196.51	11.65
196.731	13.12
196.951	15.02
197.172	24.25
197.392	41.69
197.613	35.13
197.833	30.08
198.054	24.05
198.274	5.46
198.495	6.07
198.715	-2.3
198.936	-16.56
199.156	10.89
199.377	18.62
199.597	11.96
199.817	36.3
200.038	18.09
200.258	24.2
200.479	26.98
200.699	17.75
200.919	3.5
201.14	22.92
201.36	19.86
201.58	43.8
201.801	39.78
202.021	35.96
202.241	40.28
202.461	52.05
202.682	58.67
202.902	58.52
203.122	51.39
203.342	68.65
203.563	66.86
203.783	55.34
204.003	54.52
204.223	44.33
204.443	37.07
204.663	39.27
204.884	10.4
205.104	12.41
205.324	31.78
205.544	34.77
205.764	32.19
205.984	40.03
206.204	35.41
206.424	49.31
206.644	35.12
206.864	26.05
207.084	38.95
207.304	37.75
207.525	37.18
207.745	37.86
207.964	41.02
208.184	53.23
208.404	56.91
208.624	42.26
208.844	28.32
209.064	17.72
209.284	29.81
209.504	35.41
209.724	12.2
209.944	10.48
210.164	2.26
210.384	6.46
210.604	7.73
210.823	-9.98
211.043	-26.73
211.263	-5.16
211.483	-12.68
211.703	7.51
211.922	19.05
212.142	18.83
212.362	21.21
212.582	23.44
212.801	23.45
213.021	19.35
213.241	-0.75
213.461	-6.85
213.68	10.64
213.9	16.08
214.12	16.14
214.339	23.73
214.559	41.22
214.779	49.31
214.998	42.17
215.218	39.08
215.438	45.36
215.657	41.78
215.877	35.58
216.096	29.23
216.316	19.31
216.535	22.45
216.755	9.19
216.974	8.6
217.194	5.38
217.413	19.89
217.633	21.42
217.852	34.09
218.072	41.39
218.291	55.46
218.511	52.63
218.73	53.83
218.95	43.89
219.169	47.96
219.389	34.41
219.608	41.92
219.827	16.16
220.047	13.01
220.266	27.2
220.485	29.28
220.705	25.26
220.924	33.94
221.143	7.31
221.363	17.73
221.582	14.79
221.801	16.38
222.021	9.46
222.24	7.84
222.459	-1.44
222.678	6.9
222.897	-2.29
223.117	-3.33
223.336	0.89
223.555	-4.01
223.774	6.37
223.993	14.5
224.213	20.88
224.432	36.51
224.651	35.49
224.87	31.95
225.089	51.82
225.308	50.1
225.527	58.97
225.746	61.38
225.965	39.48
226.184	38.48
226.404	32.57
226.623	30.09
226.842	24.18
227.061	22.42
227.28	36.69
227.499	53.05
227.718	50.31
227.936	35.44
228.155	30.15
228.374	31.53
228.593	26.73
228.812	15.38
229.031	10.44
229.25	19.75
229.469	39.77
229.688	47.74
229.907	36.54
230.125	34.98
230.344	41.4
230.563	39.25
230.782	27.8
231.001	31.14
231.22	11.32
231.438	23.87
231.657	34.2
231.876	37.42
232.095	36.08
232.313	41.61
232.532	39.46
232.751	49.71
232.969	42.39
233.188	30.32
233.407	25.18
233.625	16.51
233.844	16.76
234.063	14.96
234.281	20.35
234.5	26.64
234.719	26.27
234.937	25.01
235.156	36.05
235.374	39.93
235.593	35.87
235.811	30.1
236.03	29.41
236.249	29.86
236.467	37.64
236.686	30.74
236.904	17.68
237.123	21.49
237.341	19.15
237.559	23.36
237.778	42.03
237.996	34.99
238.215	31.41
238.433	48.43
238.652	40.91
238.87	43.34
239.088	26.89
239.307	14.58
239.525	14.02
239.743	14.52
239.962	11.08
240.18	22.73
240.398	27.64
240.617	44.31
240.835	52.02
241.053	55.43
241.271	54.9
241.49	41.62
241.708	36.21
241.926	21.64
242.144	18.18
242.363	12.94
242.581	14.09
242.799	13.3
243.017	22.94
243.235	27.97
243.453	46.27
243.672	40.96
243.89	42.25
244.108	35.78
244.326	35.54
244.544	33.39
244.762	26.28
244.98	18.07
245.198	16.01
245.416	12.2
245.634	24.58
245.852	41
246.07	38.49
246.288	35.37
246.506	36.26
246.724	52.21
246.942	68.82
247.16	57.12
247.378	29.67
247.596	27.75
247.814	22.26
248.032	26.9
248.25	26.32
248.468	24.55
248.685	32.08
248.903	36.06
249.121	40.82
249.339	50.53
249.557	39.74
249.775	14.8
249.992	-2.54
250.21	-10.63
250.428	-7.97
250.646	-1.45
250.863	1.45
251.081	-0.13
251.299	36.44
251.517	50.49
251.734	51.46
251.952	66.36
252.17	50.05
252.387	41.3
252.605	56.73
252.823	35.77
253.04	43.55
253.258	36
253.475	25.39
253.693	40.2
253.911	37.06
254.128	23.6
254.346	21.57
254.563	10.61
254.781	10.24
254.998	3.04
255.216	-9.22
255.433	-3.68
255.651	0.81
255.868	9.73
256.086	21.41
256.303	21.91
256.521	21.78
256.738	31.99
256.956	27.82
257.173	21.91
257.39	20.51
257.608	16.96
257.825	13.22
258.043	23.51
258.26	18.69
258.477	17.42
258.695	26.19
258.912	31.33
259.129	23.08
259.346	36.94
259.564	33.25
259.781	47.54
259.998	55.98
260.216	54.88
260.433	54.33
260.65	68.76
260.867	59.37
261.084	57.67
261.302	52.7
261.519	28.4
261.736	20.83
261.953	19.38
262.17	16.16
262.387	17.19
262.604	5.09
262.822	15.33
263.039	28.58
263.256	22.49
263.473	16.78
263.69	15.4
263.907	25.17
264.124	22.42
264.341	9.13
264.558	13.01
264.775	18.42
264.992	24.09
265.209	27.76
265.426	23.89
265.643	22.5
265.86	20.33
266.077	23.71
266.294	23.08
266.51	19.99
266.727	6.87
266.944	-4.85
267.161	7.89
267.378	20.63
267.595	11.15
267.812	-0.14
268.028	-2.32
268.245	10.86
268.462	10.63
268.679	7.39
268.896	3.18
269.112	13.3
269.329	19.06
269.546	23.88
269.763	23.81
269.979	24.25
270.196	26.42
270.413	21.81
270.629	14.6
270.846	23.72
271.063	19.85
271.279	14.95
271.496	10.21
271.712	5.27
271.929	18.27
272.146	22.6
272.362	5.47
272.579	0.91
272.795	1.84
273.012	5.06
273.228	3.01
273.445	-4.03
273.661	-12.6
273.878	-8.83
274.094	-0.09
274.311	2.51
274.527	1.68
274.744	5.12
274.96	9.75
275.177	16.38
275.393	31.01
275.609	27.96
275.826	30.87
276.042	49.38
276.259	53.3
276.475	48.75
276.691	54.6
276.908	45.94
277.124	44.59
277.34	43.79
277.557	40.63
277.773	29.44
277.989	29.17
278.205	18.04
278.422	17.96
278.638	24.36
278.854	19.23
279.07	6.99
279.286	19.33
279.503	23.76
279.719	33.05
279.935	25.27
280.151	27.69
280.367	28.66
280.583	33.85
280.799	28.16
281.016	20.76
281.232	11.84
281.448	5.12
281.664	-4.82
281.88	5.4
282.096	1.87
282.312	-1.01
282.528	-1.83
282.744	1.13
282.96	24.01
283.176	34.16
283.392	42.17
283.608	50.09
283.824	43.78
284.04	45.71
284.256	47.5
284.471	41.75
284.687	38.01
284.903	24.67
285.119	7.65
285.335	9.02
285.551	14.06
285.767	14.24
285.982	14.68
286.198	12.27
286.414	23.43
286.63	36.14
286.846	33.85
287.061	31.54
287.277	38.94
287.493	32.53
287.709	33.3
287.924	35.78
288.14	38.2
288.356	51.11
288.571	42.53
288.787	39.14
289.003	38.85
289.218	34.81
289.434	28.98
289.65	27.27
289.865	33.59
290.081	30.74
290.296	21.32
290.512	32.18
290.727	35.92
290.943	32.63
291.159	23.24
291.374	15.74
291.59	21.85
291.805	30.87
292.021	22.46
292.236	14.79
292.451	15.46
292.667	18.54
292.882	17.37
293.098	15
293.313	7.01
293.529	4.49
293.744	11.78
293.959	14.21
294.175	28.02
294.39	33.21
294.605	37.96
294.821	34.9
295.036	40.45
295.251	39.2
295.467	33.8
295.682	25.01
295.897	13.51
296.112	5.06
296.328	17.25
296.543	7.37
296.758	3.71
296.973	6.14
297.188	2.79
297.404	15.6
297.619	22.49
297.834	24.26
298.049	32.94
298.264	35.34
298.479	33.3
298.694	36.13
298.909	26.58
299.125	23.24
299.34	14.58
299.555	19.55
299.77	17.31
299.985	17.75
300.2	14.99
300.415	20.65
300.63	18.21
300.845	20.42
301.06	10.8
301.275	14.19
301.49	23.14
301.704	24.53
301.919	23.22
302.134	20.54
302.349	16.07
302.564	18.96
302.779	11.75
302.994	-2.58
303.209	-13.09
303.423	-7.5
303.638	-5.07
303.853	7.12
304.068	11.01
304.283	11.12
304.497	9.73
304.712	20.76
304.927	13.52
305.142	16.66
305.356	13.75
305.571	17.56
305.786	22.89
306	27.16
306.215	23.14
306.43	40.33
306.644	38.16
306.859	36.77
307.074	31.37
307.288	33.01
307.503	30.7
307.717	26.12
307.932	20.62
308.147	22.27
308.361	18.41
308.576	22.18
308.79	17.96
309.005	22.8
309.219	30.06
309.434	22.04
309.648	15.12
309.863	23.68
310.077	15.72
310.292	17.18
310.506	22.68
310.72	8.93
310.935	19.03
311.149	21.28
311.364	18.97
311.578	18.05
311.792	21.08
312.007	10.76
312.221	25.04
312.435	22.9
312.649	-2.97
312.864	-9.96
313.078	9.03
313.292	-4.5
313.507	13.71
313.721	6.34
313.935	11.46
314.149	40.49
314.363	40.74
314.578	50.26
314.792	50.35
315.006	45.18
315.22	52.39
315.434	47.84
315.648	45.75
315.862	46.61
316.077	42.28
316.291	51.86
316.505	43.31
316.719	23.98
316.933	22.95
317.147	24.27
317.361	26.93
317.575	17.4
317.789	18.32
318.003	29.64
318.217	38.8
318.431	41.93
318.645	45.86
318.859	32.53
319.073	20.94
319.287	20.17
319.5	16.67
319.714	13.63
319.928	14.95
320.142	5.98
320.356	26.24
320.57	32.8
320.784	29.91
320.997	31
321.211	32.5
321.425	26.47
321.639	30.68
321.853	19.7
322.066	29.04
322.28	31.42
322.494	27.28
322.707	26.75
322.921	28.83
323.135	26.63
323.349	28.4
323.562	19.76
323.776	11.43
323.989	15.85
324.203	18.14
324.417	12.11
324.63	10.76
324.844	11.2
325.057	12.08
325.271	15.13
325.485	15.85
325.698	11.22
325.912	21.96
326.125	23.02
326.339	22.54
326.552	26.1
326.766	32.52
326.979	30.65
327.193	35.41
327.406	24.88
327.619	4
327.833	0.07
328.046	-6.34
328.26	-22.17
328.473	-15.5
328.686	-15.8
328.9	-21.01
329.113	-2.12
329.326	5.31
329.54	11.04
329.753	24.93
329.966	19.09
330.179	22.28
330.393	30.63
330.606	27.09
330.819	28.8
331.032	29.41
331.246	31.44
331.459	30.19
331.672	22.08
331.885	20.93
332.098	25.69
332.311	7.76
332.525	11.36
332.738	4.91
332.951	7.56
333.164	10.92
333.377	0.15
333.59	-3.24
333.803	10.94
334.016	2.71
334.229	4.92
334.442	21.35
334.655	27.97
334.868	41.78
335.081	54.34
335.294	51.91
335.507	52.07
335.72	48.58
335.933	39.36
336.146	35.06
336.359	23.99
336.572	16.28
336.785	27.16
336.997	23.62
337.21	21.63
337.423	18.96
337.636	23.84
337.849	25.08
338.062	27.83
338.274	20.1
338.487	21.95
338.7	28.13
338.913	26.04
339.125	14.55
339.338	21.54
339.551	21.56
339.763	21.93
339.976	20.16
340.189	18.73
340.402	19.54
340.614	29.1
340.827	16.44
341.039	14.73
341.252	15.62
341.465	12.87
341.677	4.8
341.89	9.75
342.102	11.58
342.315	21.58
342.527	13.97
342.74	10.2
342.952	10.38
343.165	25.12
343.377	20.12
343.59	17.77
343.802	24.29
344.015	31.14
344.227	36.93
344.44	36.73
344.652	27.67
344.864	26.64
345.077	32.11
345.289	21.13
345.502	30.85
345.714	16.11
345.926	27.06
346.139	29.89
346.351	20.2
346.563	20.35
346.775	26.14
346.988	14.45
347.2	25.11
347.412	25.37
347.624	28.4
347.837	31.89
348.049	19.65
348.261	20.12
348.473	19.85
348.685	17.82
348.897	11.9
349.11	5.73
349.322	6.1
349.534	8.67
349.746	6.95
349.958	8.62
350.17	17.21
350.382	4.99
350.594	10.05
350.806	19.8
351.018	27.84
351.23	24.71
351.442	20.67
351.654	16.1
351.866	25.14
352.078	25.66
352.29	21.58
352.502	19.32
352.714	25.96
352.926	28.45
353.138	25.01
353.35	23.04
353.561	15.28
353.773	16.66
353.985	19.69
354.197	12.9
354.409	17.71
354.621	19.1
354.832	17.52
355.044	25.53
355.256	19.56
355.468	11.2
355.679	18.45
355.891	16.8
356.103	21.06
356.314	18.64
356.526	17.01
356.738	17.34
356.949	21.58
357.161	20.19
357.373	18.82
357.584	20.54
357.796	13.53
358.008	21.64
358.219	28.67
358.431	28.55
358.642	28.94
358.854	32.73
359.065	28.38
359.277	36.99
359.488	24.76
359.7	22.58
359.911	21.7
360.123	27.63
360.334	20.67
360.546	12.03
360.757	9.9
360.969	21.25
361.18	25.53
361.391	25.2
361.603	19.57
361.814	23.99
362.025	30.95
362.237	35.3
362.448	32.39
362.659	26.03
362.871	29.06
363.082	34.2
363.293	38.63
363.504	35.91
363.716	34.36
363.927	35.56
364.138	36.44
364.349	33.96
364.56	26.27
364.772	23.66
364.983	20.19
365.194	20.19
365.405	9.76
365.616	5.14
365.827	6.86
366.038	18.07
366.25	17.26
366.461	23.14
366.672	23.37
366.883	29.04
367.094	28.79
367.305	30.28
367.516	26.11
367.727	23.79
367.938	26.33
368.149	21.29
368.36	15.16
368.571	17.68
368.781	9.15
368.992	8.06
369.203	9.55
369.414	2.77
369.625	5.85
369.836	10.91
370.047	9.64
370.258	13.71
370.468	11.42
370.679	7.43
370.89	12.44
371.101	8.19
371.312	6.01
371.522	5.57
371.733	10.75
371.944	9.88
372.155	1.83
372.365	-2.26
372.576	-3.55
372.787	-3.62
372.997	-5.15
373.208	-6.64
373.419	-2.85
373.629	6.45
373.84	1.93
374.05	11.4
374.261	11.01
374.472	10.61
374.682	3.2
374.893	3.04
375.103	9.61
375.314	16.69
375.524	15.64
375.735	18.81
375.945	21.81
376.156	27.67
376.366	29.02
376.577	25.06
376.787	28.52
376.997	32.38
377.208	27.27
377.418	30.29
377.629	26.56
377.839	29.57
378.049	33.23
378.26	31.12
378.47	29.67
378.68	31.36
378.89	19.84
379.101	17.63
379.311	7.19
379.521	3.82
379.732	-6.29
379.942	-10.07
380.152	-5.64
380.362	5.13
380.572	15.07
380.783	23.47
380.993	25.17
381.203	32.64
381.413	35.52
381.623	31.2
381.833	26.77
382.043	14.06
382.253	13.47
382.463	13.03
382.674	12.97
382.884	3.55
383.094	10.09
383.304	6.71
383.514	17.38
383.724	10.25
383.934	8.98
384.144	7.16
384.353	14.25
384.563	9.05
384.773	13.29
384.983	11.53
385.193	19.32
385.403	22.44
385.613	19.88
385.823	16.99
386.033	18.49
386.242	20.63
386.452	16.67
386.662	10.96
386.872	4.87
387.082	4.58
387.291	7.88
387.501	5.53
387.711	2.21
387.921	3.02
388.13	1.69
388.34	2.12
388.55	5.72
388.759	1.86
388.969	2.22
389.179	5.57
389.388	6.59
389.598	5.32
389.807	7
390.017	4.56
390.227	4.06
390.436	4.22
390.646	3.52
390.855	2.47
391.065	4.6
391.274	3.47
391.484	4.26
391.693	6.1
391.903	5.27
392.112	4.97
392.322	6.59
392.531	5.53
392.74	4.21
392.95	3.26
393.159	3.1
393.369	3.1
393.578	3.26
393.787	2.73
393.997	3.53
394.206	3.82
394.415	4.36
394.625	3.95
394.834	3.23
395.043	3.43
395.252	3.38
395.462	2.98
395.671	3.92
395.88	4.31
396.089	4.12
396.298	4.34
396.508	3.36
396.717	2.72
396.926	2.72
397.135	2.1
397.344	2.04
397.553	2.46
397.762	2.97
397.971	3.15
398.181	2.81
398.39	2.82
398.599	3.02
398.808	2.88
399.017	3.1
399.226	3.22
399.435	3.14
399.644	3.32
399.853	3.18
400.062	2.92
400.27	2.99
400.479	2.65
400.688	2.36
400.897	2.73
401.106	2.88
401.315	2.91
401.524	3.07
401.733	3.01
401.941	2.92
402.15	2.82
402.359	2.6
402.568	2.51
402.777	2.34
402.985	2.3
403.194	2.18
403.403	2.16
403.612	2.24
403.82	2.27
404.029	2.23
404.238	2.4
404.446	2.32
404.655	2.26
404.864	2.2
405.072	2.17
405.281	2.11
405.489	2.12
405.698	2.07
405.906	2.09
406.115	2.24
406.324	2.23
406.532	2.22
406.741	2.26
406.949	2.25
407.158	2.25
407.366	2.3
407.574	2.18
407.783	2.12
407.991	2.07
408.2	1.97
408.408	1.94
408.617	1.92
408.825	1.88
409.033	1.84
409.242	1.84
409.45	1.8
409.658	1.81
409.867	1.83
410.075	1.81
410.283	1.73
410.491	1.78
410.7	1.84
410.908	1.92
411.116	1.88
411.324	1.94
411.533	1.82
411.741	1.87
411.949	1.87
412.157	1.89
412.365	1.85
412.573	1.91
412.781	1.86
412.99	1.97
413.198	2.02
413.406	2.04
413.614	2.04
413.822	2.04
414.03	1.95
414.238	1.99
414.446	1.93
414.654	1.9
414.862	1.79
415.07	1.86
415.278	1.83
415.486	1.94
415.694	1.8
415.902	1.78
416.109	1.78
416.317	1.79
416.525	1.75
416.733	1.79
416.941	1.69
417.149	1.83
417.357	1.91
417.564	1.83
417.772	1.81
417.98	1.72
418.188	1.59
418.395	1.65
418.603	1.5
418.811	1.44
419.019	1.47
419.226	1.58
419.434	1.57
419.642	1.69
419.849	1.71
420.057	1.8
420.265	1.87
420.472	1.9
420.68	1.8
420.887	1.82
421.095	1.81
421.302	1.84
421.51	1.94
421.717	1.88
421.925	1.78
422.132	1.72
422.34	1.73
422.547	1.67
422.755	1.56
422.962	1.36
423.17	1.21
423.377	1.39
423.585	1.44
423.792	1.47
423.999	1.48
424.207	1.45
424.414	1.57
424.621	1.83
424.829	1.75
425.036	1.76
425.243	1.74
425.451	1.83
425.658	1.98
425.865	1.88
426.072	1.81
426.28	1.81
426.487	1.88
426.694	1.88
426.901	1.69
427.108	1.58
427.315	1.68
427.523	1.66
427.73	1.64
427.937	1.57
428.144	1.58
428.351	1.74
428.558	1.73
428.765	1.59
428.972	1.6
429.179	1.57
429.386	1.64
429.593	1.61
429.8	1.61
430.007	1.62
430.214	1.68
430.421	1.62
430.628	1.55
430.835	1.55
431.042	1.58
431.249	1.53
431.456	1.55
431.662	1.56
431.869	1.63
432.076	1.69
432.283	1.61
432.49	1.63
432.697	1.66
432.903	1.64
433.11	1.7
433.317	1.69
433.524	1.65
433.73	1.71
433.937	1.65
434.144	1.68
434.35	1.77
434.557	1.66
434.764	1.64
434.97	1.7
435.177	1.66
435.384	1.77
435.59	1.73
435.797	1.66
436.003	1.69
436.21	1.66
436.416	1.65
436.623	1.7
436.829	1.61
437.036	1.59
437.242	1.57
437.449	1.6
437.655	1.66
437.862	1.66
438.068	1.72
438.275	1.71
438.481	1.85
438.687	1.9
438.894	1.88
439.1	1.9
439.307	1.91
439.513	1.85
439.719	1.93
439.926	1.87
440.132	1.85
440.338	1.87
440.544	1.83
440.751	1.83
440.957	1.82
441.163	1.75
441.369	1.71
441.575	1.73
441.782	1.75
441.988	1.75
442.194	1.82
442.4	1.88
442.606	1.96
442.812	1.98
443.018	1.98
443.224	2
443.431	2
443.637	1.96
443.843	1.95
444.049	1.85
444.255	1.83
444.461	1.79
444.667	1.81
444.873	1.82
445.079	1.84
445.284	1.79
445.49	1.85
445.696	1.93
445.902	2.01
446.108	1.97
446.314	2.02
446.52	2
446.726	2.03
446.931	2.05
447.137	2.02
447.343	2.01
447.549	1.98
447.755	1.96
447.96	2.01
448.166	2.05
448.372	2.07
448.578	2.04
448.783	2.02
448.989	2.09
449.195	2.05
449.4	2.03
449.606	1.96
449.812	1.96
450.017	1.98
450.223	1.98
450.428	1.94
450.634	2.02
450.84	2
451.045	2.02
451.251	2.04
451.456	2.02
451.662	2.02
451.867	2.01
452.073	1.9
452.278	1.88
452.483	1.93
452.689	1.92
452.894	1.93
453.1	1.88
453.305	1.88
453.51	1.93
453.716	1.96
453.921	1.97
454.127	1.94
454.332	1.95
454.537	2.11
454.742	2.11
454.948	2.12
455.153	2.14
455.358	2.14
455.563	2.12
455.769	2.16
455.974	2.03
456.179	2
456.384	2.04
456.589	2.04
456.795	1.97
457	1.99
457.205	1.96
457.41	2.03
457.615	2.11
457.82	2.14
458.025	2.14
458.23	2.18
458.435	2.17
458.64	2.2
458.845	2.14
459.05	2.12
459.255	2.04
459.46	2.04
459.665	2.11
459.87	2.12
460.075	2.15
460.28	2.19
460.485	2.22
460.69	2.19
460.895	2.2
461.099	2.15
461.304	2.15
461.509	2.07
461.714	2.1
461.919	2.04
462.123	2.12
462.328	2.1
462.533	2.1
462.738	2.11
462.942	2.19
463.147	2.16
463.352	2.22
463.556	2.21
463.761	2.24
463.966	2.28
464.17	2.31
464.375	2.23
464.58	2.2
464.784	2.22
464.989	2.22
465.193	2.22
465.398	2.19
465.602	2.2
465.807	2.27
466.011	2.33
466.216	2.31
466.42	2.32
466.625	2.35
466.829	2.36
467.034	2.38
467.238	2.39
467.443	2.42
467.647	2.43
467.851	2.45
468.056	2.39
468.26	2.34
468.464	2.31
468.669	2.34
468.873	2.27
469.077	2.31
469.282	2.33
469.486	2.4
469.69	2.45
469.894	2.51
470.099	2.54
470.303	2.57
470.507	2.51
470.711	2.47
470.915	2.49
471.119	2.52
471.324	2.47
471.528	2.45
471.732	2.45
471.936	2.52
472.14	2.51
472.344	2.5
472.548	2.56
472.752	2.64
472.956	2.66
473.16	2.71
473.364	2.66
473.568	2.71
473.772	2.74
473.976	2.68
474.18	2.63
474.384	2.6
474.588	2.6
474.792	2.63
474.995	2.63
475.199	2.66
475.403	2.68
475.607	2.71
475.811	2.73
476.015	2.75
476.218	2.75
476.422	2.78
476.626	2.76
476.83	2.73
477.033	2.72
477.237	2.73
477.441	2.72
477.644	2.75
477.848	2.75
478.052	2.76
478.255	2.79
478.459	2.82
478.663	2.81
478.866	2.84
479.07	2.86
479.273	2.84
479.477	2.87
479.681	2.87
479.884	2.84
480.088	2.86
480.291	2.89
480.495	2.89
480.698	2.85
480.901	2.84
481.105	2.88
481.308	2.88
481.512	2.88
481.715	2.86
481.919	2.85
482.122	2.94
482.325	2.96
482.529	2.98
482.732	3.03
482.935	3.05
483.138	3.06
483.342	3.07
483.545	3.06
483.748	3.08
483.952	3.03
484.155	3.04
484.358	3.04
484.561	3.06
484.764	3.08
484.967	3.09
485.171	3.06
485.374	3.1
485.577	3.11
485.78	3.16
485.983	3.14
486.186	3.11
486.389	3.08
486.592	3.11
486.795	3.09
486.998	3.09
487.201	3.07
487.404	3.11
487.607	3.11
487.81	3.17
488.013	3.15
488.216	3.16
488.419	3.15
488.622	3.13
488.825	3.08
489.028	3.11
489.231	3.08
489.433	3.08
489.636	3.08
489.839	3.09
490.042	3.13
490.245	3.15
490.447	3.14
490.65	3.14
490.853	3.19
491.056	3.17
491.258	3.18
491.461	3.14
491.664	3.09
491.866	3.13
492.069	3.14
492.272	3.09
492.474	3.1
492.677	3.06
492.879	3.09
493.082	3.18
493.285	3.17
493.487	3.16
493.69	3.18
493.892	3.24
494.095	3.24
494.297	3.27
494.5	3.28
494.702	3.27
494.905	3.28
495.107	3.29
495.309	3.23
495.512	3.27
495.714	3.28
495.917	3.23
496.119	3.28
496.321	3.31
496.524	3.32
496.726	3.36
496.928	3.38
497.13	3.37
497.333	3.4
497.535	3.4
497.737	3.39
497.939	3.38
498.142	3.4
498.344	3.36
498.546	3.4
498.748	3.42
498.95	3.37
499.152	3.38
499.355	3.4
499.557	3.41
499.759	3.49
499.961	3.47
500.163	3.51
500.365	3.54
500.567	3.55
500.769	3.61
500.971	3.57
501.173	3.56
501.375	3.55
501.577	3.53
501.779	3.58
501.981	3.58
502.183	3.52
502.385	3.57
502.587	3.57
502.788	3.57
502.99	3.59
503.192	3.57
503.394	3.6
503.596	3.66
503.798	3.7
503.999	3.72
504.201	3.76
504.403	3.8
504.605	3.83
504.806	3.85
505.008	3.86
505.21	3.82
505.411	3.86
505.613	3.9
505.815	3.9
506.016	3.91
506.218	3.93
506.42	3.95
506.621	3.99
506.823	4
507.024	3.96
507.226	3.97
507.427	3.92
507.629	3.94
507.83	3.91
508.032	3.96
508.233	3.99
508.435	4.02
508.636	4.05
508.838	4.15
509.039	4.18
509.24	4.21
509.442	4.17
509.643	4.14
509.845	4.16
510.046	4.14
510.247	4.15
510.448	4.14
510.65	4.2
510.851	4.24
511.052	4.29
511.254	4.29
511.455	4.31
511.656	4.29
511.857	4.33
512.058	4.31
512.26	4.32
512.461	4.34
512.662	4.35
512.863	4.36
513.064	4.35
513.265	4.37
513.466	4.42
513.667	4.43
513.868	4.44
514.069	4.49
514.27	4.5
514.471	4.56
514.672	4.57
514.873	4.56
515.074	4.59
515.275	4.59
515.476	4.58
515.677	4.62
515.878	4.67
516.079	4.65
516.28	4.63
516.481	4.63
516.682	4.66
516.882	4.66
517.083	4.64
517.284	4.59
517.485	4.62
517.686	4.66
517.886	4.67
518.087	4.7
518.288	4.71
518.488	4.75
518.689	4.77
518.89	4.82
519.091	4.84
519.291	4.84
519.492	4.85
519.692	4.9
519.893	4.9
520.094	4.93
520.294	4.9
520.495	4.91
520.695	4.92
520.896	4.9
521.096	4.89
521.297	4.91
521.497	4.91
521.698	4.92
521.898	4.95
522.099	4.96
522.299	4.98
522.499	5.01
522.7	5.04
522.9	5.05
523.101	5.08
523.301	5.08
523.501	5.13
523.702	5.16
523.902	5.18
524.102	5.16
524.302	5.2
524.503	5.2
524.703	5.22
524.903	5.23
525.103	5.26
525.304	5.27
525.504	5.29
525.704	5.29
525.904	5.3
526.104	5.29
526.304	5.31
526.504	5.28
526.705	5.28
526.905	5.3
527.105	5.31
527.305	5.32
527.505	5.34
527.705	5.32
527.905	5.32
528.105	5.34
528.305	5.36
528.505	5.35
528.705	5.4
528.905	5.42
529.105	5.46
529.304	5.52
529.504	5.52
529.704	5.53
529.904	5.57
530.104	5.56
530.304	5.56
530.503	5.56
530.703	5.56
530.903	5.58
531.103	5.6
531.303	5.62
531.502	5.63
531.702	5.63
531.902	5.65
532.101	5.67
532.301	5.65
532.501	5.67
532.7	5.64
532.9	5.68
533.1	5.68
533.299	5.69
533.499	5.69
533.698	5.74
533.898	5.75
534.097	5.8
534.297	5.81
534.496	5.84
534.696	5.88
534.895	5.93
535.095	5.95
535.294	5.97
535.494	5.96
535.693	5.94
535.892	5.96
536.092	5.98
536.291	5.97
536.491	5.99
536.69	6
536.889	6.01
537.088	6.04
537.288	6.09
537.487	6.1
537.686	6.16
537.886	6.17
538.085	6.23
538.284	6.28
538.483	6.31
538.682	6.33
538.882	6.36
539.081	6.37
539.28	6.37
539.479	6.38
539.678	6.44
539.877	6.48
540.076	6.51
540.275	6.55
540.474	6.57
540.673	6.6
540.872	6.65
541.071	6.67
541.27	6.69
541.469	6.73
541.668	6.78
541.867	6.82
542.066	6.85
542.265	6.87
542.464	6.9
542.663	6.93
542.862	6.96
543.06	6.97
543.259	7.01
543.458	7.05
543.657	7.07
543.856	7.09
544.054	7.14
544.253	7.16
544.452	7.16
544.651	7.18
544.849	7.23
545.048	7.27
545.247	7.34
545.445	7.33
545.644	7.39
545.843	7.46
546.041	7.52
546.24	7.55
546.438	7.63
546.637	7.68
546.836	7.74
547.034	7.75
547.233	7.81
547.431	7.82
547.63	7.9
547.828	7.89
548.027	7.9
548.225	7.99
548.423	8.07
548.622	8.08
548.82	8.18
549.019	8.2
549.217	8.27
549.415	8.37
549.614	8.37
549.812	8.43
550.01	8.54
550.209	8.6
550.407	8.7
550.605	8.75
550.803	8.8
551.002	8.85
551.2	8.94
551.398	8.98
551.596	9.04
551.794	9.09
551.993	9.16
552.191	9.23
552.389	9.36
552.587	9.34
552.785	9.44
552.983	9.48
553.181	9.53
553.379	9.63
553.577	9.75
553.775	9.82
553.973	9.96
554.171	10.01
554.369	10.07
554.567	10.18
554.765	10.25
554.963	10.25
555.161	10.32
555.359	10.38
555.557	10.45
555.755	10.54
555.952	10.66
556.15	10.74
556.348	10.86
556.546	10.93
556.744	11.02
556.941	11.15
557.139	11.26
557.337	11.32
557.535	11.4
557.732	11.53
557.93	11.62
558.128	11.71
558.325	11.77
558.523	11.86
558.721	11.95
558.918	12.05
559.116	12.09
559.313	12.2
559.511	12.3
559.708	12.39
559.906	12.5
560.104	12.59
560.301	12.63
560.498	12.78
560.696	12.86
560.893	12.93
561.091	13.06
561.288	13.16
561.486	13.21
561.683	13.35
561.88	13.43
562.078	13.55
562.275	13.67
562.473	13.74
562.67	13.8
562.867	13.9
563.064	14.02
563.262	14.13
563.459	14.21
563.656	14.35
563.853	14.43
564.051	14.51
564.248	14.63
564.445	14.68
564.642	14.76
564.839	14.89
565.036	14.94
565.234	15.05
565.431	15.19
565.628	15.31
565.825	15.43
566.022	15.51
566.219	15.53
566.416	15.64
566.613	15.7
566.81	15.75
567.007	15.79
567.204	15.87
567.401	15.94
567.598	16.02
567.795	16.07
567.991	16.16
568.188	16.29
568.385	16.39
568.582	16.43
568.779	16.54
568.976	16.66
569.172	16.73
569.369	16.76
569.566	16.75
569.763	16.8
569.96	16.85
570.156	16.89
570.353	16.93
570.55	16.95
570.746	17
570.943	17.1
571.14	17.17
571.336	17.19
571.533	17.23
571.729	17.28
571.926	17.33
572.123	17.33
572.319	17.35
572.516	17.37
572.712	17.41
572.909	17.43
573.105	17.49
573.302	17.5
573.498	17.56
573.695	17.64
573.891	17.68
574.087	17.71
574.284	17.74
574.48	17.7
574.677	17.76
574.873	17.8
575.069	17.83
575.266	17.8
575.462	17.83
575.658	17.87
575.854	17.93
576.051	17.93
576.247	17.93
576.443	17.95
576.639	17.94
576.835	17.9
577.032	17.9
577.228	17.89
577.424	17.9
577.62	17.93
577.816	17.86
578.012	17.91
578.208	17.94
578.404	17.94
578.6	17.92
578.796	17.96
578.993	17.91
579.189	17.88
579.384	17.86
579.58	17.83
579.776	17.79
579.972	17.75
580.168	17.69
580.364	17.71
580.56	17.76
580.756	17.72
580.952	17.73
581.148	17.71
581.343	17.67
581.539	17.68
581.735	17.63
581.931	17.62
582.127	17.6
582.322	17.62
582.518	17.61
582.714	17.66
582.909	17.59
583.105	17.56
583.301	17.51
583.496	17.48
583.692	17.38
583.888	17.37
584.083	17.4
584.279	17.46
584.474	17.47
584.67	17.45
584.866	17.48
585.061	17.51
585.257	17.52
585.452	17.43
585.648	17.35
585.843	17.34
586.039	17.3
586.234	17.3
586.429	17.31
586.625	17.3
586.82	17.3
587.015	17.34
587.211	17.34
587.406	17.47
587.601	17.46
587.797	17.42
587.992	17.39
588.187	17.43
588.383	17.44
588.578	17.44
588.773	17.4
588.968	17.42
589.163	17.5
589.359	17.5
589.554	17.5
589.749	17.5
589.944	17.53
590.139	17.54
590.334	17.53
590.529	17.55
590.724	17.63
590.919	17.68
591.114	17.69
591.309	17.75
591.504	17.73
591.699	17.77
591.894	17.82
592.089	17.82
592.284	17.83
592.479	17.87
592.674	17.87
592.869	17.94
593.064	18.07
593.259	18.07
593.454	18.12
593.648	18.14
593.843	18.21
594.038	18.27
594.233	18.36
594.428	18.41
594.622	18.46
594.817	18.57
595.012	18.67
595.206	18.75
595.401	18.79
595.596	18.89
595.79	18.93
595.985	19.07
596.18	19.14
596.374	19.22
596.569	19.3
596.763	19.46
596.958	19.5
597.153	19.54
597.347	19.6
597.542	19.69
597.736	19.81
597.931	19.88
598.125	19.93
598.319	19.98
598.514	20.06
598.708	20.14
598.903	20.21
599.097	20.2
599.291	20.28
599.486	20.36
599.68	20.42
599.874	20.49
600.069	20.49
600.263	20.49
600.457	20.56
600.651	20.61
600.846	20.61
601.04	20.65
601.234	20.73
601.428	20.77
601.622	20.79
601.817	20.89
602.011	20.9
602.205	20.97
602.399	20.96
602.593	20.94
602.787	20.99
602.981	21.02
603.175	20.95
603.369	20.96
603.563	20.97
603.757	20.98
603.951	20.98
604.145	20.97
604.339	20.98
604.533	20.99
604.727	20.9
604.921	20.84
605.115	20.79
605.309	20.78
605.502	20.76
605.696	20.71
605.89	20.7
606.084	20.72
606.278	20.73
606.471	20.71
606.665	20.65
606.859	20.62
607.053	20.58
607.246	20.52
607.44	20.43
607.634	20.32
607.827	20.23
608.021	20.16
608.214	20.1
608.408	20.03
608.602	19.94
608.795	19.89
608.989	19.88
609.182	19.87
609.376	19.8
609.569	19.73
609.763	19.73
609.956	19.65
610.15	19.61
610.343	19.52
610.537	19.4
610.73	19.37
610.923	19.3
611.117	19.17
611.31	19.1
611.504	19.07
611.697	19
611.89	18.92
612.083	18.77
612.277	18.66
612.47	18.6
612.663	18.53
612.856	18.39
613.05	18.29
613.243	18.23
613.436	18.2
613.629	18.18
613.822	18.07
614.015	17.99
614.209	17.98
614.402	17.96
614.595	17.87
614.788	17.8
614.981	17.67
615.174	17.61
615.367	17.55
615.56	17.49
615.753	17.34
615.946	17.31
616.139	17.22
616.332	17.17
616.525	17.13
616.718	17.09
616.911	17.01
617.103	17.01
617.296	16.93
617.489	16.93
617.682	16.9
617.875	16.8
618.067	16.69
618.26	16.65
618.453	16.53
618.646	16.51
618.838	16.49
619.031	16.42
619.224	16.45
619.417	16.43
619.609	16.4
619.802	16.43
619.994	16.41
620.187	16.4
620.38	16.39
620.572	16.38
620.765	16.33
620.957	16.23
621.15	16.12
621.342	16.11
621.535	16.03
621.727	16.01
621.92	15.91
622.112	15.91
622.305	15.92
622.497	15.93
622.69	15.89
622.882	15.85
623.074	15.81
623.267	15.77
623.459	15.7
623.651	15.67
623.844	15.67
624.036	15.66
624.228	15.63
624.42	15.59
624.613	15.62
624.805	15.66
624.997	15.64
625.189	15.62
625.381	15.53
625.574	15.52
625.766	15.51
625.958	15.5
626.15	15.48
626.342	15.5
626.534	15.46
626.726	15.47
626.918	15.42
627.11	15.39
627.302	15.34
627.494	15.31
627.686	15.2
627.878	15.18
628.07	15.17
628.262	15.18
628.454	15.18
628.646	15.16
628.838	15.07
629.029	15.04
629.221	15
629.413	14.92
629.605	14.86
629.797	14.82
629.989	14.77
630.18	14.76
630.372	14.79
630.564	14.76
630.755	14.71
630.947	14.66
631.139	14.59
631.33	14.58
631.522	14.55
631.714	14.52
631.905	14.48
632.097	14.5
632.289	14.49
632.48	14.44
632.672	14.39
632.863	14.36
633.055	14.32
633.246	14.29
633.438	14.22
633.629	14.26
633.821	14.31
634.012	14.31
634.203	14.3
634.395	14.35
634.586	14.35
634.777	14.37
634.969	14.31
635.16	14.25
635.351	14.23
635.543	14.21
635.734	14.13
635.925	14.18
636.117	14.14
636.308	14.09
636.499	14.08
636.69	14.08
636.881	14.1
637.073	14.11
637.264	14.04
637.455	14.06
637.646	14.07
637.837	14.07
638.028	14.13
638.219	14.11
638.41	14.1
638.601	14.05
638.792	14.01
638.983	13.97
639.174	14
639.365	13.91
639.556	13.86
639.747	13.86
639.938	13.88
640.129	13.91
640.32	13.91
640.511	13.87
640.701	13.82
640.892	13.8
641.083	13.76
641.274	13.76
641.465	13.67
641.655	13.68
641.846	13.63
642.037	13.63
642.228	13.61
642.418	13.56
642.609	13.53
642.8	13.54
642.99	13.5
643.181	13.49
643.372	13.44
643.562	13.41
643.753	13.39
643.943	13.34
644.134	13.31
644.324	13.28
644.515	13.26
644.705	13.28
644.896	13.23
645.086	13.2
645.277	13.24
645.467	13.21
645.658	13.21
645.848	13.16
646.038	13.13
646.229	13.12
646.419	13.16
646.61	13.1
646.8	13.08
646.99	13.02
647.18	13
647.371	12.97
647.561	12.96
647.751	12.82
647.941	12.8
648.132	12.78
648.322	12.82
648.512	12.83
648.702	12.82
648.892	12.81
649.082	12.86
649.272	12.78
649.462	12.8
649.653	12.75
649.843	12.7
650.033	12.68
650.223	12.63
650.413	12.63
650.603	12.68
650.793	12.62
650.983	12.55
651.172	12.51
651.362	12.43
651.552	12.4
651.742	12.33
651.932	12.29
652.122	12.23
652.312	12.15
652.502	12.16
652.691	12.15
652.881	12.1
653.071	11.99
653.261	11.91
653.45	11.86
653.64	11.87
653.83	11.76
654.019	11.6
654.209	11.52
654.399	11.48
654.588	11.35
654.778	11.27
654.968	11.1
655.157	10.98
655.347	10.88
655.536	10.72
655.726	10.63
655.915	10.57
656.105	10.48
656.294	10.38
656.484	10.26
656.673	10.18
656.863	10.1
657.052	9.94
657.241	9.76
657.431	9.59
657.62	9.4
657.809	9.25
657.999	9.13
658.188	8.97
658.377	8.91
658.567	8.77
658.756	8.64
658.945	8.53
659.134	8.41
659.324	8.26
659.513	8.15
659.702	7.95
659.891	7.8
660.08	7.75
660.269	7.66
660.458	7.51
660.648	7.4
660.837	7.3
661.026	7.23
661.215	7.17
661.404	7.02
661.593	6.92
661.782	6.85
661.971	6.73
662.16	6.61
662.349	6.45
662.538	6.39
662.726	6.29
662.915	6.2
663.104	6.09
663.293	6.02
663.482	5.95
663.671	5.9
663.86	5.79
664.048	5.71
664.237	5.66
664.426	5.61
664.615	5.57
664.803	5.48
664.992	5.43
665.181	5.38
665.369	5.34
665.558	5.28
665.747	5.32
665.935	5.34
666.124	5.36
666.312	5.32
666.501	5.29
666.69	5.25
666.878	5.24
667.067	5.18
667.255	5.15
667.444	5.16
667.632	5.14
667.82	5.11
668.009	5.17
668.197	5.12
668.386	5.06
668.574	5.04
668.762	5.02
668.951	5.05
669.139	5.1
669.327	5.06
669.516	5.12
669.704	5.19
669.892	5.18
670.08	5.17
670.269	5.22
670.457	5.24
670.645	5.26
670.833	5.27
671.021	5.28
671.21	5.37
671.398	5.39
671.586	5.39
671.774	5.42
671.962	5.46
672.15	5.46
672.338	5.52
672.526	5.52
672.714	5.57
672.902	5.58
673.09	5.63
673.278	5.63
673.466	5.77
673.654	5.78
673.842	5.8
674.03	5.87
674.218	5.91
674.405	6
674.593	6.11
674.781	6.17
674.969	6.23
675.157	6.37
675.344	6.45
675.532	6.56
675.72	6.52
675.908	6.59
676.095	6.73
676.283	6.77
676.471	6.77
676.658	6.86
676.846	6.95
677.033	7.11
677.221	7.16
677.409	7.21
677.596	7.37
677.784	7.51
677.971	7.59
678.159	7.72
678.346	7.73
678.534	7.83
678.721	7.81
678.909	7.84
679.096	7.82
679.283	7.89
679.471	7.96
679.658	8.12
679.846	8.22
680.033	8.34
680.22	8.41
680.408	8.58
680.595	8.65
680.782	8.72
680.969	8.78
681.157	8.81
681.344	8.97
681.531	9.1
681.718	9.23
681.905	9.38
682.093	9.55
682.28	9.77
682.467	9.93
682.654	9.97
682.841	10.09
683.028	10.22
683.215	10.39
683.402	10.41
683.589	10.51
683.776	10.69
683.963	10.81
684.15	10.98
684.337	11.09
684.524	11.22
684.711	11.39
684.898	11.51
685.085	11.75
685.271	12.05
685.458	12.36
685.645	12.56
685.832	12.81
686.019	13.19
686.205	13.52
686.392	13.75
686.579	13.93
686.766	14.18
686.952	14.63
687.139	14.94
687.326	15.32
687.512	15.6
687.699	15.93
687.886	16.33
688.072	16.67
688.259	16.97
688.445	17.4
688.632	17.8
688.818	18.28
689.005	18.82
689.191	19.36
689.378	19.85
689.564	20.26
689.751	20.79
689.937	21.13
690.124	21.68
690.31	22.14
690.496	22.61
690.683	23.25
690.869	23.97
691.055	24.51
691.242	25.12
691.428	25.69
691.614	26.3
691.8	26.95
691.987	27.61
692.173	28.29
692.359	28.97
692.545	29.71
692.731	30.38
692.918	31.1
693.104	31.76
693.29	32.43
693.476	33.02
693.662	33.66
693.848	34.27
694.034	35.08
694.22	35.84
694.406	36.6
694.592	37.31
694.778	38.17
694.964	38.86
695.15	39.72
695.336	40.48
695.522	41.24
695.708	41.97
695.894	42.72
696.08	43.19
696.265	43.94
696.451	44.61
696.637	45.32
696.823	45.99
697.009	46.76
697.194	47.51
697.38	48.34
697.566	49.08
697.751	49.86
697.937	50.49
698.123	51.17
698.308	51.66
698.494	52.17
698.68	52.95
698.865	53.73
699.051	54.45
699.236	55.09
699.422	55.73
699.607	56.37
699.793	57.16
699.978	57.63
700.164	58.16
700.349	58.64
700.535	59.32
700.72	59.83
700.906	60.48
701.091	60.84
701.276	61.33
701.462	61.9
701.647	62.32
701.832	62.77
702.018	63.18
702.203	63.77
702.388	64.32
702.573	65.09
702.759	65.42
702.944	65.94
703.129	66.38
703.314	67.07
703.499	67.49
703.684	67.96
703.87	68.37
704.055	68.9
704.24	69.6
704.425	70.12
704.61	70.44
704.795	70.81
704.98	71.07
705.165	71.3
705.35	71.6
705.535	71.9
705.72	72.14
705.905	72.29
706.09	72.67
706.275	73.14
706.459	73.49
706.644	73.87
706.829	74.13
707.014	74.44
707.199	74.76
707.384	75.03
707.568	75.48
707.753	75.95
707.938	76.17
708.123	76.21
708.307	76.69
708.492	77.13
708.677	77.56
708.861	77.75
709.046	77.63
709.231	78.03
709.415	78.44
709.6	78.54
709.784	78.87
709.969	78.99
710.153	79.38
710.338	79.89
710.522	80.09
710.707	79.97
710.891	80.28
711.076	80.36
711.26	80.65
711.445	80.53
711.629	80.82
711.813	80.88
711.998	81.11
712.182	81.47
712.366	81.88
712.551	81.94
712.735	82.11
712.919	82.26
713.103	82.47
713.288	83.05
713.472	82.77
713.656	82.52
713.84	82.7
714.024	83.06
714.208	83.09
714.393	83.42
714.577	83.37
714.761	83.89
714.945	84.23
715.129	84.31
715.313	84.41
715.497	84.67
715.681	84.78
715.865	84.85
716.049	84.87
716.233	84.95
716.417	85.38
716.601	85.61
716.785	85.81
716.968	85.81
717.152	86.25
717.336	86.2
717.52	86.39
717.704	86.3
717.888	86.39
718.071	86.45
718.255	86.53
718.439	86.29
718.622	86.47
718.806	86.42
718.99	86.58
719.174	86.54
719.357	86.52
719.541	86.85
719.724	87.43
719.908	87.59
720.092	87.94
720.275	88.07
720.459	88.1
720.642	88.03
720.826	87.99
721.009	87.58
721.193	87.89
721.376	88
721.559	88.23
721.743	88.25
721.926	88.21
722.11	88.19
722.293	88.17
722.476	88.07
722.66	87.83
722.843	87.89
723.026	88.49
723.21	88.58
723.393	89.14
723.576	89.36
723.759	89.63
723.942	89.94
724.126	89.93
724.309	89.7
724.492	90.09
724.675	89.86
724.858	90.36
725.041	90.18
725.224	90.38
725.407	90.26
725.59	90.18
725.774	90.3
725.957	90.46
726.14	90.22
726.322	90.27
726.505	90.33
726.688	90.56
726.871	90.95
727.054	91.08
727.237	90.89
727.42	91.4
727.603	91.41
727.786	91.49
727.968	91.8
728.151	92.3
728.334	92.52
728.517	93
728.699	93.14
728.882	93.76
729.065	93.91
729.248	93.48
729.43	93.11
729.613	93.07
729.796	92.7
729.978	92.76
730.161	92.66
730.343	92.98
730.526	93.58
730.708	93.89
730.891	94.06
731.073	94.57
731.256	94.45
731.438	94.79
731.621	95.01
731.803	95.11
731.986	95.17
732.168	95.22
732.35	95.35
732.533	95.16
732.715	94.78
732.898	94.66
733.08	94.93
733.262	95.03
733.444	95.01
733.627	95.33
733.809	95.78
733.991	96.06
734.173	95.55
734.355	96.07
734.538	96
734.72	96.6
734.902	96.22
735.084	96.42
735.266	96.37
735.448	96.82
735.63	95.92
735.812	96.09
735.994	95.4
736.176	95.67
736.358	95.45
736.54	95.58
736.722	95.76
736.904	95.92
737.086	95.9
737.268	96.28
737.45	96.04
737.632	95.75
737.814	95.88
737.995	95.97
738.177	96.43
738.359	96.68
738.541	96.22
738.723	96.5
738.904	96.59
739.086	97.06
739.268	97.26
739.449	97
739.631	96.96
739.813	97.18
739.994	97.42
740.176	97.96
740.358	97.88
740.539	97.18
740.721	97.26
740.902	97
741.084	97.37
741.265	96.99
741.447	96.58
741.628	96.16
741.81	96.75
741.991	97.24
742.172	97.6
742.354	98.08
742.535	98.45
742.717	98.33
742.898	98.63
743.079	98.48
743.261	98.49
743.442	98.27
743.623	97.96
743.804	97.85
743.986	97.97
744.167	97.74
744.348	98.16
744.529	97.3
744.71	97.58
744.891	97.49
745.073	97.36
745.254	97.56
745.435	97.42
745.616	97.2
745.797	97.35
745.978	97.48
746.159	97.11
746.34	97.21
746.521	97.34
746.702	96.91
746.883	96.59
747.064	96.61
747.245	96.41
747.426	97.21
747.606	97.47
747.787	97.6
747.968	98.66
748.149	98.5
748.33	98.93
748.51	98.84
748.691	98.79
748.872	98.66
749.053	98.13
749.233	97.38
749.414	97.31
749.595	96.39
749.775	96.33
749.956	95.65
750.137	95.51
750.317	96.01
750.498	96.48
750.678	96.47
750.859	97.01
751.04	96.68
751.22	96.2
751.4	96.22
751.581	95.91
751.761	95.81
751.942	96.12
752.122	96
752.303	96.62
752.483	97.4
752.663	97.92
752.844	97.64
753.024	97.85
753.204	97.75
753.385	97.12
753.565	96.27
753.745	95.71
753.925	95.07
754.106	94.98
754.286	94.52
754.466	94.77
754.646	95.43
754.826	95.41
755.006	95.69
755.187	96.09
755.367	96.28
755.547	96.44
755.727	96.63
755.907	97.16
756.087	98.01
756.267	97.49
756.447	97.23
756.627	97.04
756.807	97.66
756.987	97.63
757.167	96.67
757.346	95.25
757.526	95.5
757.706	95.32
757.886	95.27
758.066	94.66
758.246	94.24
758.425	94.09
758.605	94.49
758.785	94.04
758.965	92.99
759.144	93.47
759.324	93.23
759.504	92.91
759.683	92.87
759.863	93.47
760.043	93.9
760.222	94.13
760.402	94.79
760.581	94.54
760.761	94.25
760.94	93.88
761.12	93.14
761.299	92.91
761.479	93.65
761.658	92.2
761.838	92.21
762.017	93.03
762.197	94.3
762.376	94.17
762.555	94.78
762.735	93.43
762.914	94.09
763.093	94.2
763.273	93.54
763.452	92.86
763.631	92.32
763.81	92.4
763.99	93.28
764.169	92.95
764.348	93.73
764.527	93.66
764.706	94.44
764.885	95.3
765.064	94.04
765.243	94.05
765.423	94.38
765.602	93.37
765.781	93.68
765.96	92.81
766.139	92.15
766.318	93.04
766.497	93.28
766.676	93.7
766.854	92.47
767.033	92.41
767.212	92.34
767.391	92.62
767.57	91.94
767.749	91.8
767.928	90.34
768.106	92.09
768.285	91.37
768.464	91.29
768.643	92.43
768.821	93.39
769	93.4
769.179	93.15
769.357	92.21
769.536	92.75
769.715	93.03
769.893	92.05
770.072	91.3
770.25	90.98
770.429	91.63
770.607	92.82
770.786	92.3
770.964	92.35
771.143	91.82
771.321	91.78
771.5	90.64
771.678	89.84
771.857	88.16
772.035	88.46
772.213	88.29
772.392	87.52
772.57	87.67
772.748	87.93
772.927	88.38
773.105	89.52
773.283	89.25
773.461	88.42
773.64	89
773.818	87.84
773.996	88.13
774.174	89.29
774.352	88.95
774.531	89.14
774.709	90.58
774.887	89.93
775.065	90.68
775.243	92.21
775.421	91.06
775.599	89.59
775.777	89.37
775.955	87.77
776.133	88.23
776.311	88.24
776.489	86.67
776.667	86.53
776.844	87.71
777.022	87.82
777.2	88.19
777.378	88.77
777.556	89.47
777.734	89.74
777.911	91.16
778.089	89.81
778.267	89.1
778.445	89.29
778.622	89.26
778.8	87.72
778.978	87.17
779.155	84.67
779.333	84.52
779.511	85.82
779.688	84.88
779.866	82.99
780.043	84.41
780.221	84.85
780.398	87.17
780.576	87.46
780.753	85.5
780.931	87.24
781.108	89.77
781.286	87.83
781.463	88.42
781.64	87.61
781.818	87.53
781.995	88.5
782.172	86.8
782.35	84.87
782.527	86.19
782.704	84.42
782.882	84.52
783.059	84.35
783.236	84.01
783.413	84.49
783.59	84.18
783.768	84.17
783.945	85.24
784.122	85.54
784.299	86.57
784.476	86.96
784.653	85.58
784.83	85.52
785.007	86.11
785.184	87.11
785.361	87.68
785.538	88.53
785.715	87.71
785.892	87.67
786.069	88.4
786.246	87.32
786.423	87.83
786.6	85.84
786.776	83.2
786.953	84.38
787.13	86.81
787.307	88.14
787.484	87.94
787.66	84.92
787.837	86.14
788.014	86.03
788.191	84.58
788.367	82.76
788.544	81.34
788.721	81.96
788.897	83.53
789.074	82.21
789.25	85.18
789.427	84.95
789.603	87.13
789.78	88.29
789.956	86.37
790.133	86.97
790.309	86.87
790.486	87.02
790.662	88.77
790.839	89.42
791.015	88.58
791.192	89.4
791.368	89.11
791.544	88.38
791.721	86.34
791.897	85.58
792.073	83.35
792.249	84.83
792.426	85.58
792.602	84.1
792.778	83.77
792.954	83.64
793.13	84.32
793.307	83.34
793.483	82.75
793.659	83.05
793.835	82.65
794.011	83.39
794.187	81.03
794.363	80.59
794.539	82.72
794.715	80.55
794.891	76.58
795.067	78.22
795.243	77.05
795.419	80.25
795.595	78.44
795.771	76.86
795.947	78.33
796.122	81.7
796.298	82.22
796.474	84.32
796.65	84.45
796.826	88.12
797.001	88.74
797.177	89.4
797.353	92.14
797.529	91.76
797.704	90.65
797.88	89
798.056	89.45
798.231	88.66
798.407	87.61
798.582	85.46
798.758	85.06
798.934	85.77
799.109	84.49
799.285	82.33
799.46	82.1
799.636	83.83
799.811	84.05
799.986	86.14
800.162	86.11
800.337	87.7
800.513	87.55
800.688	90.1
800.863	89.92
801.039	88.87
801.214	85.71
801.389	84.99
801.565	86.45
801.74	83.25
801.915	81.57
802.09	78.77
802.265	80.41
802.441	81.35
802.616	82.17
802.791	80.71
802.966	83.12
803.141	78.5
803.316	82
803.491	81.86
803.666	79.12
803.841	80.66
804.016	79.65
804.191	80.63
804.366	84.62
804.541	84.21
804.716	78.24
804.891	84.47
805.066	81.31
805.241	83.86
805.416	79.04
805.591	82.18
805.765	80.22
805.94	84.7
806.115	77.94
806.29	76.39
806.464	72.35
806.639	75.5
806.814	68.87
806.989	65.92
807.163	64.28
807.338	67.12
807.512	66.46
807.687	68.34
807.862	69.51
808.036	72.49
808.211	77.72
808.385	77.75
808.56	82.13
808.734	84.22
808.909	85.53
809.083	83.68
809.258	87.59
809.432	84.75
809.606	82.81
809.781	77.63
809.955	80.07
810.13	81.46
810.304	80.11
810.478	78.29
810.652	79.84
810.827	85.65
811.001	87.45
811.175	81.06
811.349	79.18
811.524	80.97
811.698	80.16
811.872	80.69
812.046	74.61
812.22	73.16
812.394	75.99
812.568	78.2
812.742	75.86
812.916	78.84
813.09	74.77
813.264	75.93
813.438	80.67
813.612	80.59
813.786	83.45
813.96	92.19
814.134	88.33
814.308	92.12
814.482	95.47
814.656	96.46
814.83	100.66
815.003	96.27
815.177	92.73
815.351	94.51
815.525	92.62
815.698	88.96
815.872	80.87
816.046	75.63
816.219	72.4
816.393	63.64
816.567	57.88
816.74	61.45
816.914	67
817.088	66.1
817.261	70.46
817.435	73.06
817.608	78.2
817.782	82.73
817.955	76.44
818.129	76.45
818.302	83.08
818.475	81.78
818.649	78.67
818.822	81.9
818.996	85.34
819.169	85.59
819.342	78.45
819.516	75.16
819.689	74.47
819.862	75.35
820.035	77.45
820.209	72.55
820.382	70.6
820.555	73.83
820.728	71.14
820.901	71.06
821.075	74.53
821.248	68.55
821.421	68.45
821.594	73.31
821.767	76.95
821.94	74.43
822.113	71.73
822.286	77.92
822.459	89.81
822.632	91.92
822.805	88.57
822.978	79.18
823.151	87.37
823.324	87.84
823.496	73.02
823.669	66.89
823.842	66.95
824.015	67.76
824.188	74.09
824.361	74.5
824.533	76.67
824.706	96.82
824.879	89.6
825.051	92.03
825.224	83.29
825.397	79.25
825.569	83
825.742	86.57
825.915	75.89
826.087	73.16
826.26	79.07
826.432	92.08
826.605	91.62
826.777	85.22
826.95	76.52
827.122	83.13
827.295	81.8
827.467	64.23
827.64	50.05
827.812	51.03
827.984	55.02
828.157	59.54
828.329	51.22
828.501	55.21
828.674	61.82
828.846	67.21
829.018	66.69
829.19	64.98
829.363	65.71
829.535	65.57
829.707	65.55
829.879	67.17
830.051	71.69
830.223	63.07
830.395	51.53
830.568	51.93
830.74	58.65
830.912	60.24
831.084	57.44
831.256	52.25
831.428	57.93
831.6	61.69
831.772	54.45
831.943	61.19
832.115	62.83
832.287	66.28
832.459	76.62
832.631	74.67
832.803	83.5
832.975	93.11
833.146	80.33
833.318	78.98
833.49	87.4
833.662	81.43
833.833	90
834.005	82.9
834.177	83.17
834.348	78.01
834.52	81.14
834.692	74.83
834.863	70.96
835.035	65.87
835.206	70.28
835.378	68.61
835.549	78.14
835.721	72.78
835.892	69.76
836.064	79
836.235	82.86
836.407	84.46
836.578	86.06
836.749	91.04
836.921	97
837.092	103.04
837.264	86.17
837.435	62.39
837.606	65.39
837.777	57.83
837.949	47.52
838.12	42.43
838.291	50.42
838.462	52.7
838.633	66.55
838.805	57.34
838.976	60.49
839.147	57.18
839.318	56.64
839.489	45.31
839.66	53.17
839.831	43.51
840.002	46.7
840.173	43.54
840.344	45.6
840.515	40.62
840.686	43.36
840.857	38.52
841.028	48.9
841.199	46.81
841.369	42.4
841.54	45.71
841.711	54.8
841.882	51.21
842.053	52.99
842.223	55.08
842.394	45.13
842.565	54.53
842.736	42.19
842.906	35.59
843.077	51.82
843.248	55.83
843.418	53.36
843.589	66.22
843.759	65.54
843.93	80.18
844.101	78.31
844.271	80.2
844.442	73.18
844.612	77.56
844.783	61.33
844.953	58.3
845.123	51.17
845.294	55.85
845.464	53.01
845.635	59.72
845.805	56.39
845.975	48.33
846.146	42.52
846.316	55.82
846.486	61.63
846.656	64.45
846.827	65.6
846.997	84.79
847.167	93.13
847.337	104.19
847.507	93.22
847.677	92.95
847.848	101.48
848.018	94.99
848.188	80.75
848.358	90.74
848.528	77.89
848.698	66.8
848.868	61.37
849.038	74.93
849.208	92.72
849.378	78.53
849.548	75.6
849.718	87.61
849.887	104.95
850.057	90.52
850.227	83.5
850.397	69.76
850.567	82.1
850.737	80.79
850.906	70.15
851.076	63.79
851.246	75.14
851.415	69.47
851.585	71.07
851.755	79.66
851.924	91.95
852.094	91.98
852.264	92.22
852.433	99.26
852.603	112.25
852.772	92.23
852.942	76.02
853.111	75.08
853.281	67.89
853.45	64.06
853.62	55.01
853.789	39.8
853.959	54.68
854.128	43.9
854.297	25.78
854.467	31.07
854.636	43.61
854.805	54.08
854.975	59.02
855.144	55.15
855.313	67.19
855.482	78.63
855.652	74.6
855.821	63.92
855.99	71.04
856.159	69.66
856.328	80.4
856.497	72.46
856.667	64.99
856.836	65.15
857.005	64.45
857.174	65.31
857.343	66.6
857.512	48.21
857.681	49.82
857.85	53.34
858.019	64.58
858.188	85.81
858.356	44.37
858.525	50.93
858.694	64.45
858.863	61.57
859.032	51.83
859.201	45.71
859.369	37.7
859.538	46.38
859.707	33.53
859.876	33.66
860.044	32.82
860.213	31.27
860.382	33.08
860.55	48.15
860.719	57.14
860.888	63.93
861.056	68.85
861.225	71.65
861.393	86.83
861.562	77.19
861.73	71.56
861.899	48.32
862.067	55.22
862.236	48.63
862.404	51.61
862.572	46.96
862.741	54
862.909	41.04
863.078	42.65
863.246	27.95
863.414	23.78
863.582	25.54
863.751	27.51
863.919	26.17
864.087	32.39
864.255	36.02
864.424	50.72
864.592	59.42
864.76	53.51
864.928	60.51
865.096	62.15
865.264	64.45
865.432	78.01
865.6	67.01
865.768	57.29
865.936	64.15
866.104	64.09
866.272	83.22
866.44	55.83
866.608	41.91
866.776	52.03
866.944	51.48
867.112	10.75
867.28	4.62
867.448	-3.35
867.615	13.13
867.783	-2.43
867.951	5.81
868.119	21.65
868.286	47.64
868.454	41.37
868.622	32.91
868.789	56.48
868.957	79.31
869.125	60.24
869.292	67.5
869.46	71.1
869.627	64.2
869.795	56.22
869.963	53.68
870.13	58
870.298	64.51
870.465	30.63
870.632	35.65
870.8	46.94
870.967	64.29
871.135	52.92
871.302	44.61
871.469	53.52
871.637	50.05
871.804	51.69
871.971	56.9
872.139	48.89
872.306	43.93
872.473	32.37
872.64	39.03
872.807	40.22
872.975	47.29
873.142	30.28
873.309	61.01
873.476	126.29
873.643	198.59
873.81	107.95
873.977	114.23
874.144	121.3
874.311	78.14
874.478	0.24
874.645	-16.98
874.812	-12.84
874.979	-15.74
875.146	-50.67
875.313	-92.53
875.48	11.11
875.647	12.46
875.813	22.19
875.98	6.63
876.147	32.09
876.314	39.11
876.481	43.8
876.647	27.2
876.814	39
876.981	34.32
877.147	23.57
877.314	28.71
877.481	53.63
877.647	54.93
877.814	53.43
877.98	78.31
878.147	86.35
878.314	100.83
878.48	91.19
878.647	91.35
878.813	87.53
878.979	93.81
879.146	60.55
879.312	84.11
879.479	69.94
879.645	32.36
879.811	21.79
879.978	23.46
880.144	14.27
880.31	4.53
880.477	-47.63
880.643	-109.48
880.809	79.08
880.975	1.09
881.142	13.9
881.308	51.11
881.474	122.47
881.64	85.62
881.806	65.06
881.972	64.58
882.138	71.09
882.304	46.37
882.47	15.05
882.636	-50.91
882.802	-33.61
882.968	-43.19
883.134	-135.51
883.3	-27.84
883.466	45.79
883.632	26.51
883.798	56.56
883.964	44.34
884.129	54.23
884.295	43.04
884.461	42.52
884.627	33.4
884.793	67.7
884.958	46.17
885.124	23.8
885.29	5.12
885.455	10.65
885.621	15.18
885.787	10.82
885.952	2.72
886.118	-3.23
886.283	35.67
886.449	27.17
886.614	46.19
886.78	51.84
886.945	30.82
887.111	38.43
887.276	20.95
887.442	0.54
887.607	-12.96
887.773	-20.31
887.938	-41.38
888.103	17.1
888.269	27.84
888.434	59.24
888.599	82.96
888.764	80.4
888.93	90.14
889.095	93.9
889.26	83.89
889.425	84.91
889.59	61.25
889.756	38.09
889.921	27.84
890.086	20.82
890.251	14.89
890.416	-13.26
890.581	-30.93
890.746	-26.67
890.911	-57.66
891.076	-63.99
891.241	-41.78
891.406	0.5
891.571	32.29
891.736	25.99
891.901	23.71
892.065	13.96
892.23	12.86
892.395	-0.23
892.56	-7.14
892.725	-15.27
892.889	-49.98
893.054	-70.45
893.219	-60.2
893.384	-93.15
893.548	-255.83
893.713	308.17
893.878	283.7
