Data from Ofra_PS_T2_2A_6CX18_Reflection_3.txt Node
Date: Wed Jul 21 17:15:48 EDT 2021
User: Adam
Spectrometer: FLMT01687
Trigger mode: 0
Integration Time (sec): 1.100000E0
Scans to average: 2
Electric dark correction enabled: true
Nonlinearity correction enabled: false
Boxcar width: 2
XAxis mode: Wavelengths
Number of Pixels in Spectrum: 3648
>>>>>Begin Spectral Data<<<<<
179.494	661
179.716	677.41
179.937	637.55
180.158	612.06
180.38	883.28
180.601	213.95
180.823	95.2
181.044	-86.61
181.265	84.01
181.486	27.41
181.708	73.5
181.929	465.82
182.15	-439.79
182.372	152.96
182.593	2
182.814	37.13
183.035	70.39
183.257	55.7
183.478	-33.24
183.699	50.82
183.92	-17.02
184.141	-1.2
184.363	-50.8
184.584	35.26
184.805	51.41
185.026	87.45
185.247	95.24
185.468	78.35
185.689	53.2
185.91	48.16
186.132	58.71
186.353	33.9
186.574	94.98
186.795	89.98
187.016	44.83
187.237	-2.55
187.458	-20.39
187.679	-38.37
187.9	-32.01
188.121	-19.49
188.342	29.97
188.563	77.33
188.784	120.92
189.005	122.43
189.226	152.3
189.447	107.79
189.667	20.27
189.888	-204.06
190.109	-837.99
190.33	-408.55
190.551	-775.44
190.772	-160.59
190.993	-109.61
191.214	-83.24
191.434	-31.59
191.655	29.79
191.876	-22.42
192.097	-74.52
192.318	-125.46
192.538	-221.77
192.759	-182.54
192.98	-75.3
193.201	-26.68
193.421	-9.74
193.642	0.84
193.863	15.51
194.083	-0.02
194.304	-7.4
194.525	-5.92
194.745	-14.65
194.966	-22.87
195.187	-34.3
195.407	-31.23
195.628	-93.09
195.848	-86.71
196.069	-72.05
196.29	-16.12
196.51	-59.43
196.731	-51.43
196.951	-72.75
197.172	-90.62
197.392	-135.96
197.613	-121.32
197.833	-140.13
198.054	-120.02
198.274	-73.28
198.495	-74.96
198.715	-43.76
198.936	-56.55
199.156	-37.12
199.377	-128.22
199.597	-121.18
199.817	-120.17
200.038	-30.25
200.258	-70.36
200.479	11.23
200.699	38.65
200.919	28.19
201.14	2.74
201.36	-21.43
201.58	20.71
201.801	36.93
202.021	19.92
202.241	5.4
202.461	20.04
202.682	-60.03
202.902	-101.36
203.122	-49.92
203.342	-41.21
203.563	2.11
203.783	40.05
204.003	16.91
204.223	23.32
204.443	73.65
204.663	58.34
204.884	33.25
205.104	89.64
205.324	109.24
205.544	77.59
205.764	55.45
205.984	55.72
206.204	44.48
206.424	25.62
206.644	3.46
206.864	18.2
207.084	-21.85
207.304	-28.59
207.525	-105.08
207.745	-73.78
207.964	-34.52
208.184	-76.74
208.404	-87.86
208.624	-91.12
208.844	-41.15
209.064	-232.32
209.284	-213.8
209.504	-97.42
209.724	6.15
209.944	-24.98
210.164	16.07
210.384	30.91
210.604	27.59
210.823	-5.77
211.043	-22.83
211.263	-19.73
211.483	-25.37
211.703	-67.26
211.922	-42.92
212.142	15.81
212.362	20.18
212.582	17.72
212.801	20.67
213.021	-11.99
213.241	-26.18
213.461	-79.94
213.68	-113.81
213.9	-76.87
214.12	-29.61
214.339	-86.23
214.559	-51.87
214.779	12.21
214.998	6.71
215.218	-43.39
215.438	-7.55
215.657	-1.96
215.877	4.17
216.096	19.6
216.316	31.75
216.535	14.51
216.755	8.85
216.974	-91.91
217.194	-148.84
217.413	-134.57
217.633	-122.15
217.852	-195.25
218.072	-75.1
218.291	-28.9
218.511	15.52
218.73	-8.73
218.95	-13.69
219.169	-18.36
219.389	-55.45
219.608	-51.41
219.827	-50.05
220.047	-26.89
220.266	-16.92
220.485	-19.56
220.705	-20.38
220.924	-18.4
221.143	23.4
221.363	6.17
221.582	23.13
221.801	38.42
222.021	57.43
222.24	-28.11
222.459	4.6
222.678	-19.53
222.897	-84.53
223.117	-141.61
223.336	-100.67
223.555	-61.39
223.774	-26.04
223.993	-35
224.213	19.27
224.432	-2.45
224.651	32.88
224.87	12.14
225.089	29.04
225.308	16.63
225.527	48.15
225.746	47.98
225.965	46.71
226.184	42.17
226.404	51.96
226.623	24.47
226.842	25.34
227.061	29.96
227.28	34.17
227.499	22.01
227.718	19.61
227.936	2.06
228.155	7.23
228.374	-11.16
228.593	9.13
228.812	26.14
229.031	7.09
229.25	-27.8
229.469	1.87
229.688	5.99
229.907	11.63
230.125	41.95
230.344	46.53
230.563	45.56
230.782	43.23
231.001	-14.66
231.22	6.75
231.438	24.67
231.657	11.65
231.876	3.18
232.095	47.14
232.313	34.98
232.532	20.16
232.751	-4.05
232.969	-33.69
233.188	-116.24
233.407	-37.7
233.625	-14.96
233.844	-17.72
234.063	-0.26
234.281	24.07
234.5	2.4
234.719	13.23
234.937	32.65
235.156	45.99
235.374	34.16
235.593	27.05
235.811	17.1
236.03	-5.04
236.249	-30.06
236.467	-4.67
236.686	8.23
236.904	15.68
237.123	-4.76
237.341	-9.68
237.559	-6.42
237.778	-13.98
237.996	-45.72
238.215	2.08
238.433	18.67
238.652	24.01
238.87	-4.89
239.088	21.92
239.307	29.24
239.525	29.8
239.743	-18.25
239.962	9.03
240.18	-27.29
240.398	-78.07
240.617	-91.34
240.835	-61.31
241.053	-30.05
241.271	19.57
241.49	18.91
241.708	-8.42
241.926	-28.92
242.144	-17.81
242.363	-71.73
242.581	-99.11
242.799	-21.66
243.017	20.64
243.235	-14.03
243.453	9.69
243.672	15.46
243.89	7
244.108	-6.33
244.326	18.38
244.544	9.54
244.762	18.91
244.98	19.87
245.198	28.01
245.416	19.1
245.634	17.49
245.852	1.9
246.07	-8.07
246.288	-24.21
246.506	-61.34
246.724	-42.75
246.942	-22.67
247.16	15.67
247.378	35.56
247.596	61.07
247.814	81.76
248.032	53.26
248.25	41.68
248.468	24.91
248.685	25.68
248.903	27.53
249.121	33.93
249.339	13.68
249.557	4.77
249.775	8.41
249.992	-43.68
250.21	-39.77
250.428	-29.11
250.646	-46.66
250.863	-52.91
251.081	-16.25
251.299	3.64
251.517	3.63
251.734	6.62
251.952	-8.34
252.17	-14.69
252.387	0.69
252.605	1.36
252.823	14.26
253.04	31.14
253.258	50.01
253.475	34.45
253.693	55.08
253.911	50.64
254.128	59.21
254.346	69.39
254.563	47.9
254.781	9.78
254.998	-3.69
255.216	-4.21
255.433	-11.17
255.651	39.4
255.868	87.17
256.086	95.68
256.303	58.65
256.521	46.92
256.738	21.38
256.956	-8.13
257.173	-27.21
257.39	-32.15
257.608	-56.92
257.825	22.5
258.043	52.78
258.26	37.74
258.477	83.12
258.695	80.54
258.912	6.21
259.129	13.79
259.346	-6.77
259.564	-60.8
259.781	-76.18
259.998	-20.12
260.216	-11.5
260.433	23.15
260.65	35.19
260.867	58.97
261.084	28.03
261.302	-4.5
261.519	-5.32
261.736	-38.32
261.953	-54.35
262.17	-13.01
262.387	-22.71
262.604	-52.52
262.822	-52.45
263.039	-44.65
263.256	-85.34
263.473	-32.18
263.69	-14.46
263.907	28.24
264.124	30.38
264.341	30.96
264.558	13.24
264.775	23.4
264.992	-1.44
265.209	6.41
265.426	37.25
265.643	49.85
265.86	50.57
266.077	73.34
266.294	68.93
266.51	21.87
266.727	-5.34
266.944	-1.93
267.161	-37.44
267.378	-32.22
267.595	4.6
267.812	-14.76
268.028	-33.8
268.245	8.77
268.462	-10.91
268.679	-15.84
268.896	35.24
269.112	41.55
269.329	30.3
269.546	45.21
269.763	26.64
269.979	0.55
270.196	-4.11
270.413	-23.85
270.629	-59.98
270.846	-63.38
271.063	-44.31
271.279	-72.6
271.496	-58.18
271.712	-29.83
271.929	-15.96
272.146	-27.97
272.362	9.52
272.579	35.67
272.795	52.16
273.012	49.15
273.228	37.34
273.445	4.22
273.661	-46
273.878	-86.57
274.094	-74.08
274.311	-71.62
274.527	12.52
274.744	8.16
274.96	9.13
275.177	17.82
275.393	34.46
275.609	12.84
275.826	45.88
276.042	45.9
276.259	20.19
276.475	21.72
276.691	18.63
276.908	-10.49
277.124	2.27
277.34	13.98
277.557	0.75
277.773	4.41
277.989	8.76
278.205	2.45
278.422	13.28
278.638	12.78
278.854	25
279.07	38.22
279.286	32.5
279.503	13.66
279.719	1.35
279.935	-29.09
280.151	-57.77
280.367	-24.09
280.583	-46.96
280.799	-14.68
281.016	-33.45
281.232	-9.67
281.448	-22.27
281.664	8.93
281.88	-32.41
282.096	-10.04
282.312	28.22
282.528	50.51
282.744	51.57
282.96	47.21
283.176	28.31
283.392	14.48
283.608	12.35
283.824	1.79
284.04	7.38
284.256	21.66
284.471	5.3
284.687	-5.57
284.903	35.42
285.119	60.76
285.335	35.16
285.551	62.64
285.767	54.25
285.982	15.78
286.198	-28.27
286.414	30.31
286.63	25.96
286.846	43.84
287.061	26.58
287.277	59.47
287.493	34.78
287.709	40.13
287.924	19.36
288.14	53.7
288.356	41.99
288.571	50.74
288.787	31.09
289.003	27.31
289.218	6.35
289.434	-40.5
289.65	-30.78
289.865	-29.16
290.081	-0.25
290.296	9
290.512	44.64
290.727	15.59
290.943	5
291.159	-6.25
291.374	-5.63
291.59	-22.74
291.805	-6.04
292.021	18.92
292.236	17.69
292.451	26.59
292.667	30.03
292.882	30.42
293.098	10.87
293.313	-6.52
293.529	-25.21
293.744	-42.31
293.959	-34.57
294.175	-19.06
294.39	12.27
294.605	30.61
294.821	57.45
295.036	55.58
295.251	55
295.467	38.91
295.682	32.1
295.897	-25.43
296.112	-35.29
296.328	-28.1
296.543	-42.43
296.758	-32.83
296.973	20.5
297.188	45.63
297.404	21.66
297.619	5.09
297.834	-20.06
298.049	-44.72
298.264	-70.89
298.479	1.19
298.694	10.92
298.909	45.19
299.125	52.38
299.34	66.95
299.555	27.85
299.77	56.11
299.985	-11.96
300.2	-49.26
300.415	-70.85
300.63	-34.06
300.845	-46.1
301.06	-40.12
301.275	-21.03
301.49	-4.39
301.704	-13.96
301.919	-32.28
302.134	-32.84
302.349	-34.96
302.564	-96.79
302.779	-99.05
302.994	-79.51
303.209	-45.47
303.423	15.51
303.638	71.55
303.853	26.59
304.068	20
304.283	34.05
304.497	18.63
304.712	3.04
304.927	14.26
305.142	11.41
305.356	14.39
305.571	9.38
305.786	2.81
306	-12.23
306.215	-8.67
306.43	-45.02
306.644	-36.45
306.859	9.8
307.074	29.39
307.288	2.85
307.503	10.7
307.717	-9.13
307.932	-15.98
308.147	-38.74
308.361	-8.87
308.576	-5.46
308.79	-35.25
309.005	-37.21
309.219	-18.92
309.434	-46.05
309.648	-56.3
309.863	-29.12
310.077	-18.86
310.292	-7.95
310.506	14.5
310.72	34.9
310.935	49.61
311.149	46.15
311.364	47.08
311.578	51.87
311.792	33.29
312.007	39.58
312.221	15.66
312.435	30.89
312.649	8.28
312.864	22.44
313.078	22.8
313.292	89.89
313.507	38.6
313.721	51.66
313.935	49.46
314.149	30.08
314.363	15.04
314.578	24.61
314.792	38.76
315.006	14.67
315.22	39.93
315.434	48.45
315.648	51.69
315.862	42.18
316.077	61.28
316.291	30.21
316.505	41.18
316.719	38.98
316.933	11.9
317.147	-0.57
317.361	-27.01
317.575	-45.24
317.789	-74.04
318.003	-87.93
318.217	-71.96
318.431	2.5
318.645	22.48
318.859	27.98
319.073	47.86
319.287	27.35
319.5	-9.7
319.714	-56.15
319.928	-96.68
320.142	-125.61
320.356	-49.4
320.57	-10.94
320.784	-12.15
320.997	-16.03
321.211	-21.63
321.425	-97.41
321.639	-120.6
321.853	-45.98
322.066	-18.03
322.28	-16.09
322.494	18.8
322.707	45.42
322.921	30.72
323.135	24.84
323.349	37.51
323.562	7.32
323.776	-19.83
323.989	-25.77
324.203	-48.96
324.417	-55.84
324.63	-59.77
324.844	-42.44
325.057	-38.75
325.271	-12.82
325.485	12.74
325.698	35.3
325.912	45.17
326.125	25
326.339	21.78
326.552	-5.38
326.766	-11.55
326.979	-11.05
327.193	39.52
327.406	37.72
327.619	31.15
327.833	46.45
328.046	28.24
328.26	-17.92
328.473	1.42
328.686	-18.13
328.9	-30.85
329.113	-5.22
329.326	-13.93
329.54	-27.27
329.753	-37.52
329.966	-58.05
330.179	-60.13
330.393	-30.25
330.606	-10.57
330.819	14.98
331.032	30.75
331.246	32.87
331.459	53.22
331.672	44.87
331.885	36.38
332.098	12.91
332.311	10.07
332.525	-33
332.738	-18.02
332.951	3.03
333.164	41.59
333.377	44.3
333.59	51.55
333.803	42.61
334.016	43.23
334.229	16.88
334.442	27.19
334.655	54.29
334.868	71.08
335.081	54.96
335.294	48.11
335.507	39.27
335.72	27.37
335.933	5.28
336.146	-5.34
336.359	15.39
336.572	-11.61
336.785	-61.78
336.997	-37.59
337.21	-6.51
337.423	-19.89
337.636	-14.96
337.849	20.2
338.062	1.12
338.274	6.82
338.487	-10.15
338.7	-23.17
338.913	-64.27
339.125	-82.62
339.338	-145.67
339.551	-100.68
339.763	-43.32
339.976	-13.46
340.189	11.77
340.402	18.59
340.614	1.37
340.827	-11.36
341.039	-36.57
341.252	-27
341.465	-6.76
341.677	-3.98
341.89	-38.62
342.102	-2.62
342.315	-33.87
342.527	-67.53
342.74	-68.64
342.952	-9.46
343.165	-17.76
343.377	20.62
343.59	23.51
343.802	44.32
344.015	22.11
344.227	46.05
344.44	27.95
344.652	25.15
344.864	12.09
345.077	41.07
345.289	36.62
345.502	36.25
345.714	30.18
345.926	42.78
346.139	32.55
346.351	43.85
346.563	56.48
346.775	56.17
346.988	36.52
347.2	20.22
347.412	-18.5
347.624	-46.47
347.837	-42.17
348.049	4.5
348.261	41.4
348.473	42.84
348.685	49.34
348.897	36.83
349.11	3.58
349.322	-13.85
349.534	-12.87
349.746	-19.51
349.958	-7.58
350.17	-4.36
350.382	21.97
350.594	19.58
350.806	33.4
351.018	33.34
351.23	28.63
351.442	-40.34
351.654	-32.58
351.866	-30.86
352.078	-28.38
352.29	-5
352.502	31.04
352.714	35.6
352.926	22.99
353.138	29.19
353.35	14.23
353.561	8.05
353.773	-16.31
353.985	1.41
354.197	-11.85
354.409	-4.21
354.621	-12.99
354.832	4.3
355.044	-9
355.256	-3.46
355.468	14.6
355.679	10.87
355.891	14.32
356.103	-2.22
356.314	-5.46
356.526	-18.5
356.738	-1.64
356.949	-13.83
357.161	25.04
357.373	19.16
357.584	6.88
357.796	8.28
358.008	9.16
358.219	25.14
358.431	24.26
358.642	32.97
358.854	29.86
359.065	21.99
359.277	-9.22
359.488	-13.76
359.7	-31.72
359.911	-49.58
360.123	-20.86
360.334	-36.63
360.546	-47.42
360.757	-52.49
360.969	-27.88
361.18	-27
361.391	-11.78
361.603	-10.43
361.814	7.88
362.025	3.42
362.237	0.67
362.448	24.44
362.659	33.34
362.871	30.18
363.082	25.07
363.293	16.1
363.504	-9.87
363.716	-28.58
363.927	-51.29
364.138	-63.57
364.349	-60.53
364.56	-50.67
364.772	-38.64
364.983	-13.08
365.194	-15.18
365.405	-6.63
365.616	24.35
365.827	19.94
366.038	5.94
366.25	14.63
366.461	-12.68
366.672	-27.5
366.883	-6
367.094	5.43
367.305	-9.93
367.516	-3.02
367.727	-22.32
367.938	-35.53
368.149	-39.21
368.36	-8.12
368.571	-1.7
368.781	-8.38
368.992	-18.18
369.203	-26.77
369.414	-51.88
369.625	-55.42
369.836	-57.14
370.047	-78.38
370.258	-56
370.468	-41.1
370.679	-53.44
370.89	-37.13
371.101	-15.71
371.312	-29.02
371.522	-36.42
371.733	-21.67
371.944	-12.73
372.155	-9.35
372.365	-11.01
372.576	-10
372.787	-10.81
372.997	-38.05
373.208	-22.49
373.419	6.47
373.629	-25.93
373.84	-30
374.05	-31.9
374.261	-45.14
374.472	-57.24
374.682	12.76
374.893	7.67
375.103	42.7
375.314	38.62
375.524	33.38
375.735	22.77
375.945	42.17
376.156	8.33
376.366	15.92
376.577	10.27
376.787	-1.4
376.997	-10.2
377.208	0.57
377.418	-14.1
377.629	7.68
377.839	-3.39
378.049	4.72
378.26	17.91
378.47	23.77
378.68	9.15
378.89	10.94
379.101	6.51
379.311	-25.32
379.521	-48.46
379.732	-50.83
379.942	-41.24
380.152	-66.46
380.362	-29.82
380.572	-24.24
380.783	-0.88
380.993	4.2
381.203	19.01
381.413	25.03
381.623	35.13
381.833	27.13
382.043	20.67
382.253	16.89
382.463	16.43
382.674	15.06
382.884	-3.24
383.094	-2.67
383.304	-2.12
383.514	-3.55
383.724	9.85
383.934	6.96
384.144	-3.52
384.353	-9.2
384.563	-16.75
384.773	-21.57
384.983	-29.01
385.193	-3.69
385.403	2.07
385.613	8.72
385.823	-1.58
386.033	9.71
386.242	-1.84
386.452	-5.76
386.662	-9.46
386.872	2.45
387.082	-5.51
387.291	-9.96
387.501	-10.15
387.711	-4.17
387.921	-11.14
388.13	-5.86
388.34	7.73
388.55	2.29
388.759	-3.03
388.969	6.27
389.179	3.91
389.388	-1.17
389.598	8.61
389.807	3.8
390.017	-3.27
390.227	-2.98
390.436	-3.49
390.646	-5.34
390.855	-0.04
391.065	0.32
391.274	-0.91
391.484	-5.28
391.693	-2.83
391.903	-1.96
392.112	5.49
392.322	12.71
392.531	17.44
392.74	16.9
392.95	12.61
393.159	9.23
393.369	6.59
393.578	5.63
393.787	3.8
393.997	6.32
394.206	4.39
394.415	4.15
394.625	5.11
394.834	4.13
395.043	5.99
395.252	8.41
395.462	10.91
395.671	11.03
395.88	12.42
396.089	12.72
396.298	10.98
396.508	9.07
396.717	8.23
396.926	8.43
397.135	7.33
397.344	6.66
397.553	7.04
397.762	8.82
397.971	8.98
398.181	9.14
398.39	9.25
398.599	8.88
398.808	7.85
399.017	8.63
399.226	9.65
399.435	11.37
399.644	12.13
399.853	11.89
400.062	10.83
400.27	10.33
400.479	9.52
400.688	8.62
400.897	8.52
401.106	8.64
401.315	8.51
401.524	8.86
401.733	9.36
401.941	10.08
402.15	10.31
402.359	9.91
402.568	9.7
402.777	9.81
402.985	9.5
403.194	9.41
403.403	9.89
403.612	9.71
403.82	9.36
404.029	9.58
404.238	9.46
404.446	9.47
404.655	9.14
404.864	9.25
405.072	8.84
405.281	9.07
405.489	8.8
405.698	8.96
405.906	8.95
406.115	9.01
406.324	8.82
406.532	8.92
406.741	9.17
406.949	9.07
407.158	9.04
407.366	9.1
407.574	9.09
407.783	8.95
407.991	8.85
408.2	9.07
408.408	8.98
408.617	8.84
408.825	8.73
409.033	8.79
409.242	8.84
409.45	9.07
409.658	9
409.867	9.22
410.075	9.15
410.283	8.93
410.491	8.65
410.7	8.57
410.908	8.47
411.116	8.74
411.324	8.63
411.533	8.54
411.741	8.85
411.949	8.74
412.157	8.29
412.365	8.4
412.573	8.43
412.781	8.28
412.99	8.28
413.198	8.56
413.406	8.49
413.614	8.65
413.822	8.52
414.03	8.43
414.238	8.17
414.446	8.27
414.654	8
414.862	8.2
415.07	8.24
415.278	8.41
415.486	8.14
415.694	8.29
415.902	7.93
416.109	7.72
416.317	7.64
416.525	7.6
416.733	7.49
416.941	7.66
417.149	7.68
417.357	7.73
417.564	7.88
417.772	8.05
417.98	7.99
418.188	8.01
418.395	7.98
418.603	8
418.811	7.62
419.019	7.56
419.226	7.7
419.434	7.86
419.642	7.75
419.849	7.8
420.057	7.82
420.265	7.77
420.472	7.51
420.68	7.5
420.887	7.54
421.095	7.8
421.302	7.73
421.51	7.95
421.717	7.98
421.925	8.07
422.132	7.8
422.34	7.58
422.547	7.54
422.755	7.33
422.962	7.29
423.17	7.18
423.377	7.35
423.585	7.27
423.792	7.4
423.999	7.34
424.207	7.3
424.414	7.4
424.621	7.23
424.829	7.28
425.036	7.43
425.243	7.59
425.451	7.55
425.658	7.52
425.865	7.72
426.072	7.65
426.28	7.99
426.487	7.75
426.694	7.89
426.901	7.66
427.108	7.63
427.315	7.33
427.523	7.73
427.73	7.59
427.937	7.41
428.144	7.18
428.351	7.14
428.558	7.28
428.765	7.3
428.972	7.39
429.179	7.64
429.386	7.88
429.593	7.42
429.8	7.41
430.007	7.62
430.214	7.66
430.421	7.44
430.628	7.38
430.835	7.33
431.042	7.44
431.249	7.61
431.456	7.62
431.662	7.93
431.869	8.2
432.076	8.18
432.283	8.15
432.49	8.3
432.697	8.35
432.903	8.14
433.11	7.97
433.317	8.06
433.524	8.33
433.73	8.21
433.937	8.5
434.144	8.55
434.35	8.43
434.557	8.12
434.764	8.3
434.97	8.14
435.177	8.37
435.384	8.29
435.59	8.5
435.797	8.65
436.003	8.8
436.21	8.65
436.416	8.88
436.623	8.75
436.829	8.63
437.036	8.71
437.242	8.79
437.449	8.71
437.655	8.79
437.862	8.91
438.068	8.81
438.275	8.88
438.481	9.05
438.687	9.03
438.894	8.98
439.1	8.99
439.307	9.1
439.513	9.02
439.719	9.1
439.926	9.21
440.132	9.2
440.338	9.03
440.544	9.15
440.751	9.13
440.957	9.23
441.163	9.27
441.369	9.45
441.575	9.26
441.782	9.27
441.988	9.08
442.194	9.02
442.4	8.92
442.606	9.28
442.812	9.27
443.018	9.5
443.224	9.67
443.431	9.77
443.637	9.43
443.843	9.37
444.049	9.24
444.255	9.11
444.461	9.2
444.667	9.29
444.873	9.48
445.079	9.49
445.284	9.61
445.49	9.37
445.696	9.17
445.902	8.99
446.108	8.93
446.314	8.86
446.52	8.99
446.726	9.36
446.931	9.43
447.137	9.56
447.343	9.68
447.549	9.63
447.755	9.49
447.96	9.59
448.166	9.46
448.372	9.41
448.578	9.51
448.783	9.53
448.989	9.62
449.195	9.86
449.4	9.76
449.606	9.73
449.812	9.64
450.017	9.71
450.223	9.51
450.428	9.53
450.634	9.57
450.84	9.79
451.045	9.67
451.251	9.6
451.456	9.85
451.662	9.95
451.867	9.98
452.073	9.96
452.278	10.15
452.483	10.25
452.689	10.15
452.894	10.19
453.1	10.27
453.305	10.19
453.51	10.11
453.716	10.04
453.921	10.03
454.127	9.92
454.332	9.95
454.537	9.87
454.742	9.95
454.948	9.88
455.153	9.95
455.358	10.08
455.563	10.26
455.769	10.4
455.974	10.38
456.179	10.33
456.384	10.27
456.589	10.19
456.795	9.95
457	9.94
457.205	10.24
457.41	10.26
457.615	10.27
457.82	10.4
458.025	10.5
458.23	10.37
458.435	10.37
458.64	10.27
458.845	10.46
459.05	10.42
459.255	10.48
459.46	10.57
459.665	10.62
459.87	10.59
460.075	10.58
460.28	10.41
460.485	10.48
460.69	10.55
460.895	10.48
461.099	10.48
461.304	10.72
461.509	10.8
461.714	10.72
461.919	10.81
462.123	10.78
462.328	10.77
462.533	10.55
462.738	10.76
462.942	10.58
463.147	10.74
463.352	10.77
463.556	10.93
463.761	10.86
463.966	10.97
464.17	10.84
464.375	10.67
464.58	10.6
464.784	10.6
464.989	10.55
465.193	10.67
465.398	10.83
465.602	10.95
465.807	10.95
466.011	11.09
466.216	11.09
466.42	11.13
466.625	11.13
466.829	11.25
467.034	11.37
467.238	11.55
467.443	11.49
467.647	11.39
467.851	11.42
468.056	11.35
468.26	11.3
468.464	11.31
468.669	11.52
468.873	11.67
469.077	11.71
469.282	11.73
469.486	11.8
469.69	11.76
469.894	11.56
470.099	11.58
470.303	11.66
470.507	11.52
470.711	11.51
470.915	11.56
471.119	11.48
471.324	11.33
471.528	11.45
471.732	11.47
471.936	11.44
472.14	11.57
472.344	11.71
472.548	11.76
472.752	11.95
472.956	12.19
473.16	12.07
473.364	11.96
473.568	11.95
473.772	11.92
473.976	11.81
474.18	11.92
474.384	12.06
474.588	12.06
474.792	11.95
474.995	11.94
475.199	12
475.403	12.11
475.607	12.16
475.811	12.12
476.015	12.27
476.218	12.36
476.422	12.2
476.626	12.27
476.83	12.43
477.033	12.36
477.237	12.2
477.441	12.31
477.644	12.32
477.848	12.2
478.052	12.1
478.255	12.07
478.459	12
478.663	12.12
478.866	12.23
479.07	12.31
479.273	12.52
479.477	12.54
479.681	12.47
479.884	12.43
480.088	12.33
480.291	12.27
480.495	12.32
480.698	12.3
480.901	12.31
481.105	12.46
481.308	12.4
481.512	12.38
481.715	12.43
481.919	12.47
482.122	12.47
482.325	12.5
482.529	12.51
482.732	12.47
482.935	12.38
483.138	12.38
483.342	12.48
483.545	12.51
483.748	12.51
483.952	12.56
484.155	12.69
484.358	12.6
484.561	12.61
484.764	12.59
484.967	12.66
485.171	12.69
485.374	12.71
485.577	12.8
485.78	12.94
485.983	12.92
486.186	12.75
486.389	12.71
486.592	12.55
486.795	12.47
486.998	12.43
487.201	12.46
487.404	12.59
487.607	12.7
487.81	12.7
488.013	12.82
488.216	12.78
488.419	12.75
488.622	12.67
488.825	12.65
489.028	12.66
489.231	12.67
489.433	12.6
489.636	12.56
489.839	12.58
490.042	12.38
490.245	12.31
490.447	12.38
490.65	12.45
490.853	12.4
491.056	12.48
491.258	12.57
491.461	12.6
491.664	12.55
491.866	12.47
492.069	12.58
492.272	12.5
492.474	12.53
492.677	12.6
492.879	12.72
493.082	12.74
493.285	12.91
493.487	12.83
493.69	12.7
493.892	12.62
494.095	12.53
494.297	12.41
494.5	12.4
494.702	12.41
494.905	12.43
495.107	12.37
495.309	12.33
495.512	12.42
495.714	12.53
495.917	12.59
496.119	12.57
496.321	12.6
496.524	12.54
496.726	12.46
496.928	12.45
497.13	12.51
497.333	12.53
497.535	12.56
497.737	12.63
497.939	12.58
498.142	12.55
498.344	12.45
498.546	12.29
498.748	12.25
498.95	12.35
499.152	12.3
499.355	12.37
499.557	12.54
499.759	12.62
499.961	12.59
500.163	12.67
500.365	12.72
500.567	12.74
500.769	12.66
500.971	12.6
501.173	12.52
501.375	12.45
501.577	12.37
501.779	12.31
501.981	12.34
502.183	12.38
502.385	12.41
502.587	12.32
502.788	12.37
502.99	12.38
503.192	12.37
503.394	12.32
503.596	12.37
503.798	12.4
503.999	12.48
504.201	12.45
504.403	12.55
504.605	12.56
504.806	12.43
505.008	12.34
505.21	12.41
505.411	12.3
505.613	12.32
505.815	12.42
506.016	12.49
506.218	12.52
506.42	12.52
506.621	12.48
506.823	12.47
507.024	12.43
507.226	12.38
507.427	12.4
507.629	12.49
507.83	12.6
508.032	12.57
508.233	12.63
508.435	12.7
508.636	12.68
508.838	12.55
509.039	12.48
509.24	12.43
509.442	12.39
509.643	12.3
509.845	12.33
510.046	12.49
510.247	12.51
510.448	12.48
510.65	12.54
510.851	12.65
511.052	12.61
511.254	12.59
511.455	12.68
511.656	12.73
511.857	12.69
512.058	12.69
512.26	12.7
512.461	12.68
512.662	12.67
512.863	12.55
513.064	12.53
513.265	12.5
513.466	12.52
513.667	12.52
513.868	12.56
514.069	12.61
514.27	12.75
514.471	12.64
514.672	12.63
514.873	12.6
515.074	12.63
515.275	12.48
515.476	12.55
515.677	12.55
515.878	12.67
516.079	12.59
516.28	12.56
516.481	12.71
516.682	12.68
516.882	12.6
517.083	12.63
517.284	12.61
517.485	12.46
517.686	12.43
517.886	12.4
518.087	12.37
518.288	12.44
518.488	12.45
518.689	12.47
518.89	12.47
519.091	12.54
519.291	12.53
519.492	12.52
519.692	12.55
519.893	12.64
520.094	12.63
520.294	12.52
520.495	12.54
520.695	12.56
520.896	12.51
521.096	12.52
521.297	12.65
521.497	12.63
521.698	12.58
521.898	12.54
522.099	12.57
522.299	12.6
522.499	12.66
522.7	12.65
522.9	12.65
523.101	12.68
523.301	12.67
523.501	12.55
523.702	12.57
523.902	12.67
524.102	12.7
524.302	12.64
524.503	12.76
524.703	12.78
524.903	12.78
525.103	12.63
525.304	12.71
525.504	12.76
525.704	12.78
525.904	12.74
526.104	12.78
526.304	12.73
526.504	12.71
526.705	12.63
526.905	12.72
527.105	12.73
527.305	12.7
527.505	12.62
527.705	12.6
527.905	12.58
528.105	12.59
528.305	12.54
528.505	12.61
528.705	12.7
528.905	12.62
529.105	12.59
529.304	12.67
529.504	12.74
529.704	12.65
529.904	12.67
530.104	12.71
530.304	12.79
530.503	12.72
530.703	12.68
530.903	12.66
531.103	12.69
531.303	12.62
531.502	12.63
531.702	12.73
531.902	12.79
532.101	12.75
532.301	12.78
532.501	12.83
532.7	12.81
532.9	12.83
533.1	12.81
533.299	12.79
533.499	12.77
533.698	12.77
533.898	12.72
534.097	12.73
534.297	12.86
534.496	12.81
534.696	12.82
534.895	12.92
535.095	13.03
535.294	12.88
535.494	12.88
535.693	12.9
535.892	12.88
536.092	12.78
536.291	12.78
536.491	12.87
536.69	12.86
536.889	12.77
537.088	12.71
537.288	12.78
537.487	12.78
537.686	12.77
537.886	12.86
538.085	12.96
538.284	13.05
538.483	12.98
538.682	13.05
538.882	13.06
539.081	13.06
539.28	12.93
539.479	12.93
539.678	12.87
539.877	12.91
540.076	12.93
540.275	12.97
540.474	13.07
540.673	13.11
540.872	13.06
541.071	13.1
541.27	13.17
541.469	13.18
541.668	13.23
541.867	13.26
542.066	13.27
542.265	13.25
542.464	13.21
542.663	13.2
542.862	13.29
543.06	13.41
543.259	13.49
543.458	13.61
543.657	13.65
543.856	13.7
544.054	13.63
544.253	13.63
544.452	13.56
544.651	13.62
544.849	13.52
545.048	13.53
545.247	13.48
545.445	13.55
545.644	13.53
545.843	13.53
546.041	13.59
546.24	13.69
546.438	13.69
546.637	13.73
546.836	13.85
547.034	13.85
547.233	13.9
547.431	13.91
547.63	13.96
547.828	13.94
548.027	14
548.225	13.97
548.423	13.97
548.622	14
548.82	13.99
549.019	14.01
549.217	14.09
549.415	14.14
549.614	14.19
549.812	14.23
550.01	14.21
550.209	14.21
550.407	14.25
550.605	14.24
550.803	14.35
551.002	14.43
551.2	14.46
551.398	14.55
551.596	14.68
551.794	14.72
551.993	14.75
552.191	14.82
552.389	14.93
552.587	14.91
552.785	14.9
552.983	15.04
553.181	15.09
553.379	15.12
553.577	15.16
553.775	15.23
553.973	15.22
554.171	15.27
554.369	15.27
554.567	15.29
554.765	15.34
554.963	15.4
555.161	15.41
555.359	15.48
555.557	15.61
555.755	15.73
555.952	15.84
556.15	15.89
556.348	15.93
556.546	16.01
556.744	16.06
556.941	16.05
557.139	16.17
557.337	16.22
557.535	16.25
557.732	16.27
557.93	16.44
558.128	16.5
558.325	16.66
558.523	16.68
558.721	16.79
558.918	16.75
559.116	16.81
559.313	16.74
559.511	16.86
559.708	16.85
559.906	16.92
560.104	16.93
560.301	17.07
560.498	17.08
560.696	17.14
560.893	17.21
561.091	17.37
561.288	17.48
561.486	17.68
561.683	17.84
561.88	18
562.078	18.12
562.275	18.09
562.473	18.09
562.67	18.21
562.867	18.27
563.064	18.25
563.262	18.32
563.459	18.45
563.656	18.54
563.853	18.57
564.051	18.69
564.248	18.83
564.445	18.89
564.642	18.87
564.839	19
565.036	19.18
565.234	19.34
565.431	19.37
565.628	19.43
565.825	19.53
566.022	19.53
566.219	19.54
566.416	19.65
566.613	19.85
566.81	19.89
567.007	19.88
567.204	19.83
567.401	19.83
567.598	19.77
567.795	19.81
567.991	19.91
568.188	20.1
568.385	20.3
568.582	20.43
568.779	20.47
568.976	20.54
569.172	20.71
569.369	20.65
569.566	20.67
569.763	20.75
569.96	20.76
570.156	20.64
570.353	20.66
570.55	20.67
570.746	20.7
570.943	20.82
571.14	20.94
571.336	21.04
571.533	21.17
571.729	21.14
571.926	21.19
572.123	21.27
572.319	21.28
572.516	21.24
572.712	21.37
572.909	21.32
573.105	21.38
573.302	21.41
573.498	21.61
573.695	21.62
573.891	21.71
574.087	21.65
574.284	21.66
574.48	21.53
574.677	21.57
574.873	21.6
575.069	21.68
575.266	21.79
575.462	21.8
575.658	21.89
575.854	22.01
576.051	21.95
576.247	21.85
576.443	21.87
576.639	21.75
576.835	21.66
577.032	21.6
577.228	21.74
577.424	21.81
577.62	21.79
577.816	21.72
578.012	21.86
578.208	21.83
578.404	21.89
578.6	21.97
578.796	22.03
578.993	21.99
579.189	21.88
579.384	21.73
579.58	21.58
579.776	21.51
579.972	21.41
580.168	21.4
580.364	21.46
580.56	21.47
580.756	21.52
580.952	21.57
581.148	21.56
581.343	21.62
581.539	21.68
581.735	21.65
581.931	21.65
582.127	21.75
582.322	21.58
582.518	21.57
582.714	21.49
582.909	21.47
583.105	21.33
583.301	21.34
583.496	21.45
583.692	21.43
583.888	21.43
584.083	21.57
584.279	21.65
584.474	21.54
584.67	21.6
584.866	21.6
585.061	21.4
585.257	21.44
585.452	21.48
585.648	21.38
585.843	21.38
586.039	21.4
586.234	21.3
586.429	21.2
586.625	21.38
586.82	21.36
587.015	21.46
587.211	21.39
587.406	21.41
587.601	21.35
587.797	21.37
587.992	21.33
588.187	21.47
588.383	21.53
588.578	21.56
588.773	21.57
588.968	21.53
589.163	21.58
589.359	21.6
589.554	21.55
589.749	21.6
589.944	21.73
590.139	21.62
590.334	21.59
590.529	21.63
590.724	21.67
590.919	21.64
591.114	21.66
591.309	21.7
591.504	21.76
591.699	21.71
591.894	21.86
592.089	21.89
592.284	21.94
592.479	22.06
592.674	22.06
592.869	22.15
593.064	22.2
593.259	22.24
593.454	22.28
593.648	22.33
593.843	22.25
594.038	22.33
594.233	22.36
594.428	22.32
594.622	22.41
594.817	22.53
595.012	22.59
595.206	22.68
595.401	22.77
595.596	22.78
595.79	22.88
595.985	22.9
596.18	22.93
596.374	23.06
596.569	23.21
596.763	23.16
596.958	23.29
597.153	23.35
597.347	23.31
597.542	23.35
597.736	23.36
597.931	23.36
598.125	23.41
598.319	23.53
598.514	23.5
598.708	23.62
598.903	23.63
599.097	23.68
599.291	23.69
599.486	23.76
599.68	23.78
599.874	23.88
600.069	23.92
600.263	23.95
600.457	24.05
600.651	24.06
600.846	24.1
601.04	24.13
601.234	24.19
601.428	24.21
601.622	24.29
601.817	24.26
602.011	24.31
602.205	24.31
602.399	24.24
602.593	24.26
602.787	24.33
602.981	24.26
603.175	24.29
603.369	24.3
603.563	24.33
603.757	24.48
603.951	24.57
604.145	24.6
604.339	24.7
604.533	24.53
604.727	24.4
604.921	24.28
605.115	24.24
605.309	24.28
605.502	24.37
605.696	24.32
605.89	24.36
606.084	24.27
606.278	24.18
606.471	24.11
606.665	24.04
606.859	23.95
607.053	23.89
607.246	23.87
607.44	23.89
607.634	23.89
607.827	23.88
608.021	23.79
608.214	23.65
608.408	23.56
608.602	23.5
608.795	23.44
608.989	23.42
609.182	23.44
609.376	23.42
609.569	23.26
609.763	23.18
609.956	23.22
610.15	23.05
610.343	22.91
610.537	22.9
610.73	22.87
610.923	22.76
611.117	22.76
611.31	22.73
611.504	22.76
611.697	22.58
611.89	22.51
612.083	22.42
612.277	22.38
612.47	22.17
612.663	22.21
612.856	22.1
613.05	22.07
613.243	22.02
613.436	21.95
613.629	21.89
613.822	21.84
614.015	21.76
614.209	21.63
614.402	21.68
614.595	21.63
614.788	21.59
614.981	21.44
615.174	21.32
615.367	21.16
615.56	21.02
615.753	20.97
615.946	20.93
616.139	21.02
616.332	21.23
616.525	21.19
616.718	21.25
616.911	21.3
617.103	21.23
617.296	21.06
617.489	21.05
617.682	20.94
617.875	20.89
618.067	20.73
618.26	20.61
618.453	20.68
618.646	20.67
618.838	20.64
619.031	20.83
619.224	20.86
619.417	20.81
619.609	20.78
619.802	20.75
619.994	20.59
620.187	20.58
620.38	20.45
620.572	20.37
620.765	20.43
620.957	20.43
621.15	20.32
621.342	20.32
621.535	20.28
621.727	20.13
621.92	20.04
622.112	20.09
622.305	20.24
622.497	20.17
622.69	20.2
622.882	20.23
623.074	20.24
623.267	20.12
623.459	20.09
623.651	20.01
623.844	20.04
624.036	20
624.228	19.92
624.42	19.94
624.613	20.06
624.805	20
624.997	19.96
625.189	19.92
625.381	19.88
625.574	19.69
625.766	19.57
625.958	19.54
626.15	19.65
626.342	19.68
626.534	19.78
626.726	19.84
626.918	19.83
627.11	19.72
627.302	19.65
627.494	19.63
627.686	19.65
627.878	19.56
628.07	19.5
628.262	19.43
628.454	19.35
628.646	19.37
628.838	19.45
629.029	19.42
629.221	19.49
629.413	19.44
629.605	19.3
629.797	19.23
629.989	19.29
630.18	19.23
630.372	19.17
630.564	19.19
630.755	19.22
630.947	19.21
631.139	19.13
631.33	19.03
631.522	19.05
631.714	18.99
631.905	18.89
632.097	18.88
632.289	18.93
632.48	18.82
632.672	18.67
632.863	18.55
633.055	18.57
633.246	18.67
633.438	18.63
633.629	18.73
633.821	18.82
634.012	18.76
634.203	18.61
634.395	18.58
634.586	18.58
634.777	18.56
634.969	18.55
635.16	18.61
635.351	18.61
635.543	18.5
635.734	18.5
635.925	18.53
636.117	18.51
636.308	18.53
636.499	18.54
636.69	18.45
636.881	18.35
637.073	18.42
637.264	18.4
637.455	18.48
637.646	18.56
637.837	18.6
638.028	18.46
638.219	18.52
638.41	18.37
638.601	18.29
638.792	18.27
638.983	18.23
639.174	18.16
639.365	18.21
639.556	18.16
639.747	18.13
639.938	18.22
640.129	18.13
640.32	18.09
640.511	18.15
640.701	18.31
640.892	18.3
641.083	18.45
641.274	18.54
641.465	18.49
641.655	18.33
641.846	18.22
642.037	18.12
642.228	18.01
642.418	18.09
642.609	18.18
642.8	18.22
642.99	18.2
643.181	18.32
643.372	18.32
643.562	18.26
643.753	18.2
643.943	18.13
644.134	18.02
644.324	17.88
644.515	17.87
644.705	17.96
644.896	17.98
645.086	17.99
645.277	18.04
645.467	18.05
645.658	18.01
645.848	17.98
646.038	17.99
646.229	18
646.419	17.87
646.61	17.83
646.8	17.8
646.99	17.73
647.18	17.65
647.371	17.69
647.561	17.6
647.751	17.67
647.941	17.62
648.132	17.6
648.322	17.58
648.512	17.66
648.702	17.63
648.892	17.67
649.082	17.71
649.272	17.6
649.462	17.5
649.653	17.4
649.843	17.26
650.033	17.18
650.223	17.22
650.413	17.18
650.603	17.24
650.793	17.31
650.983	17.28
651.172	17.24
651.362	17.24
651.552	17.19
651.742	17.11
651.932	17.07
652.122	17.11
652.312	17.08
652.502	17.09
652.691	17.14
652.881	17.02
653.071	16.88
653.261	16.78
653.45	16.53
653.64	16.43
653.83	16.42
654.019	16.34
654.209	16.32
654.399	16.35
654.588	16.21
654.778	16.08
654.968	16.06
655.157	15.94
655.347	15.94
655.536	15.87
655.726	15.76
655.915	15.65
656.105	15.63
656.294	15.43
656.484	15.29
656.673	15.27
656.863	15.21
657.052	15.07
657.241	14.93
657.431	14.75
657.62	14.61
657.809	14.38
657.999	14.17
658.188	14.1
658.377	14.03
658.567	13.9
658.756	13.74
658.945	13.6
659.134	13.45
659.324	13.35
659.513	13.19
659.702	13.1
659.891	13.08
660.08	12.94
660.269	12.95
660.458	12.96
660.648	12.92
660.837	12.84
661.026	12.83
661.215	12.61
661.404	12.42
661.593	12.33
661.782	12.13
661.971	12.11
662.16	12.03
662.349	11.99
662.538	11.87
662.726	11.85
662.915	11.74
663.104	11.57
663.293	11.56
663.482	11.71
663.671	11.69
663.86	11.49
664.048	11.55
664.237	11.54
664.426	11.2
664.615	11.17
664.803	11.18
664.992	11.21
665.181	11.12
665.369	11.14
665.558	11.06
665.747	11.06
665.935	11.07
666.124	11.1
666.312	11.12
666.501	11.03
666.69	10.9
666.878	10.81
667.067	10.58
667.255	10.66
667.444	11.05
667.632	11.08
667.82	11.08
668.009	11.09
668.197	11.07
668.386	10.73
668.574	10.83
668.762	10.82
668.951	10.83
669.139	10.75
669.327	10.65
669.516	10.74
669.704	10.67
669.892	10.8
670.08	10.8
670.269	10.78
670.457	10.62
670.645	10.57
670.833	10.61
671.021	10.58
671.21	10.71
671.398	10.9
671.586	10.91
671.774	10.84
671.962	10.86
672.15	10.89
672.338	10.75
672.526	10.86
672.714	10.83
672.902	10.88
673.09	11.13
673.278	11.33
673.466	11.39
673.654	11.6
673.842	11.67
674.03	11.55
674.218	11.37
674.405	11.37
674.593	11.26
674.781	11.3
674.969	11.34
675.157	11.65
675.344	11.76
675.532	11.91
675.72	12.07
675.908	12.15
676.095	11.97
676.283	11.95
676.471	12.11
676.658	11.99
676.846	11.96
677.033	12.07
677.221	12.2
677.409	11.94
677.596	12.01
677.784	12.1
677.971	12.17
678.159	12.16
678.346	12.32
678.534	12.45
678.721	12.59
678.909	12.68
679.096	12.67
679.283	12.92
679.471	12.98
679.658	12.92
679.846	13.09
680.033	13.36
680.22	13.4
680.408	13.27
680.595	13.39
680.782	13.24
680.969	13.32
681.157	13.27
681.344	13.5
681.531	13.51
681.718	13.65
681.905	13.65
682.093	13.82
682.28	13.93
682.467	14.12
682.654	14.23
682.841	14.39
683.028	14.45
683.215	14.71
683.402	14.6
683.589	14.87
683.776	15.02
683.963	15.12
684.15	15.26
684.337	15.56
684.524	15.53
684.711	15.73
684.898	15.78
685.085	15.84
685.271	16.06
685.458	16.35
685.645	16.46
685.832	16.76
686.019	16.98
686.205	17.09
686.392	17.25
686.579	17.39
686.766	17.71
686.952	17.87
687.139	18.34
687.326	18.48
687.512	18.89
687.699	19
687.886	19.15
688.072	19.15
688.259	19.47
688.445	19.82
688.632	19.96
688.818	20.64
689.005	21.04
689.191	21.45
689.378	21.82
689.564	22.49
689.751	22.65
689.937	22.91
690.124	23.33
690.31	23.41
690.496	23.66
690.683	24.05
690.869	24.54
691.055	24.92
691.242	25.74
691.428	26.41
691.614	26.97
691.8	27.6
691.987	28.04
692.173	28.33
692.359	28.88
692.545	29.52
692.731	29.98
692.918	30.54
693.104	31.04
693.29	31.35
693.476	31.88
693.662	32.52
693.848	33.13
694.034	33.7
694.22	34.33
694.406	34.92
694.592	35.51
694.778	36.07
694.964	36.62
695.15	37.15
695.336	37.54
695.522	38.14
695.708	38.74
695.894	39.49
696.08	40.22
696.265	40.97
696.451	41.48
696.637	42.28
696.823	42.84
697.009	43.31
697.194	43.79
697.38	44.1
697.566	44.5
697.751	44.96
697.937	45.82
698.123	46.28
698.308	47.19
698.494	47.66
698.68	48.22
698.865	48.57
699.051	49.11
699.236	49.3
699.422	49.62
699.607	49.88
699.793	50.03
699.978	50.23
700.164	50.65
700.349	51.55
700.535	51.87
700.72	52.58
700.906	53.35
701.091	53.83
701.276	53.94
701.462	54.66
701.647	55.23
701.832	55.72
702.018	56.19
702.203	56.75
702.388	57.23
702.573	57.7
702.759	58.3
702.944	58.7
703.129	58.96
703.314	59.45
703.499	59.38
703.684	59.28
703.87	60.26
704.055	60.86
704.24	61.05
704.425	61.82
704.61	62.43
704.795	62.24
704.98	62.49
705.165	62.75
705.35	63.02
705.535	63.27
705.72	63.71
705.905	64.29
706.09	64.72
706.275	64.73
706.459	64.55
706.644	64.58
706.829	64.56
707.014	64.44
707.199	65.03
707.384	65.54
707.568	65.91
707.753	66.22
707.938	66.48
708.123	66.5
708.307	66.51
708.492	66.52
708.677	66.4
708.861	66.33
709.046	66.46
709.231	67.49
709.415	67.94
709.6	68.26
709.784	68.72
709.969	68.74
710.153	68.32
710.338	68.3
710.522	68.44
710.707	69.02
710.891	69.11
711.076	69.35
711.26	69.51
711.445	70.02
711.629	69.98
711.813	70.72
711.998	70.99
712.182	71.01
712.366	71.38
712.551	71.92
712.735	71.77
712.919	71.71
713.103	72.22
713.288	71.62
713.472	71.37
713.656	71.73
713.84	72.17
714.024	72.12
714.208	72.35
714.393	72.68
714.577	72.86
714.761	72.9
714.945	73.14
715.129	73.32
715.313	73.38
715.497	72.97
715.681	73.37
715.865	73.19
716.049	73.43
716.233	73.04
716.417	73.58
716.601	73.26
716.785	73.28
716.968	73.27
717.152	73.92
717.336	73.65
717.52	73.69
717.704	73.93
717.888	74.5
718.071	74.41
718.255	74.75
718.439	74.78
718.622	75.33
718.806	74.94
718.99	75.02
719.174	74.69
719.357	74.83
719.541	74.82
719.724	74.81
719.908	75.48
720.092	76.26
720.275	76.48
720.459	76.62
720.642	76.75
720.826	75.95
721.009	75.35
721.193	74.89
721.376	74.95
721.559	74.91
721.743	75.45
721.926	75.95
722.11	76.34
722.293	75.38
722.476	75.2
722.66	75.28
722.843	74.76
723.026	74.34
723.21	74.92
723.393	75.68
723.576	75.01
723.759	75
723.942	75.26
724.126	75.13
724.309	75.06
724.492	75.5
724.675	75.9
724.858	76.49
725.041	77.21
725.224	77.12
725.407	77.26
725.59	77.52
725.774	77.27
725.957	76.82
726.14	76.83
726.322	77.11
726.505	76.65
726.688	77.63
726.871	77.66
727.054	77.65
727.237	77.66
727.42	78.07
727.603	77.64
727.786	77.81
727.968	78.25
728.151	78.2
728.334	78.04
728.517	77.85
728.699	78.46
728.882	78.13
729.065	78.25
729.248	79.06
729.43	79.27
729.613	79.66
729.796	80.27
729.978	79.61
730.161	79.21
730.343	78.83
730.526	78.87
730.708	78.21
730.891	79.15
731.073	78.28
731.256	78.41
731.438	77.89
731.621	78.85
731.803	78.74
731.986	79.92
732.168	79.76
732.35	79.9
732.533	79.6
732.715	79.55
732.898	80.28
733.08	80.11
733.262	80.59
733.444	79.95
733.627	79.74
733.809	79.22
733.991	80.5
734.173	79.82
734.355	80.13
734.538	80.45
734.72	79.72
734.902	79.76
735.084	79.94
735.266	80.14
735.448	80.91
735.63	81.35
735.812	81.49
735.994	82.54
736.176	82.67
736.358	81.98
736.54	83.17
736.722	81.78
736.904	80.79
737.086	80.95
737.268	82.43
737.45	81.91
737.632	82.62
737.814	82.18
737.995	82.04
738.177	81.33
738.359	80.89
738.541	81.35
738.723	82.04
738.904	83.3
739.086	83.49
739.268	84.08
739.449	84.47
739.631	84.43
739.813	83.82
739.994	83.74
740.176	83.66
740.358	83
740.539	83.82
740.721	84.16
740.902	84.53
741.084	84.6
741.265	84.68
741.447	84.74
741.628	84.04
741.81	83.14
741.991	83.54
742.172	84.62
742.354	84.46
742.535	85.39
742.717	86.3
742.898	85.78
743.079	85.38
743.261	85.51
743.442	84.2
743.623	85.01
743.804	85.44
743.986	85.63
744.167	83.09
744.348	83.49
744.529	81.57
744.71	80.35
744.891	80.21
745.073	81.56
745.254	81.35
745.435	82.15
745.616	81.98
745.797	81.94
745.978	82.2
746.159	82.54
746.34	81.12
746.521	83.5
746.702	82.43
746.883	82.3
747.064	81.23
747.245	82.29
747.426	80.17
747.606	80.54
747.787	81.01
747.968	81.6
748.149	81.63
748.33	82.23
748.51	82.68
748.691	82.9
748.872	84.22
749.053	83.99
749.233	83.12
749.414	83.39
749.595	82.22
749.775	79.39
749.956	79.49
750.137	80.07
750.317	80.08
750.498	82.04
750.678	83.79
750.859	84.8
751.04	85.03
751.22	83.72
751.4	82.29
751.581	81.99
751.761	80.51
751.942	82.03
752.122	82.76
752.303	82.35
752.483	82.42
752.663	82.99
752.844	81.21
753.024	82.11
753.204	83.63
753.385	82.68
753.565	81.99
753.745	82.08
753.925	80.06
754.106	78.84
754.286	79.04
754.466	79.48
754.646	79.94
754.826	80.61
755.006	80.12
755.187	82
755.367	82.53
755.547	82.45
755.727	83.65
755.907	84.74
756.087	85.25
756.267	83.74
756.447	83.55
756.627	82.33
756.807	82.59
756.987	81.47
757.167	82.5
757.346	82.85
757.526	82.43
757.706	82.18
757.886	82.61
758.066	82.74
758.246	84.92
758.425	84.97
758.605	84.19
758.785	83.25
758.965	84.17
759.144	80.43
759.324	81.66
759.504	81.86
759.683	82.18
759.863	79.61
760.043	79.73
760.222	77.86
760.402	76.39
760.581	77.25
760.761	80.34
760.94	79.37
761.12	81.56
761.299	82.63
761.479	82.72
761.658	80.21
761.838	80.92
762.017	80.4
762.197	81.19
762.376	79.72
762.555	81.42
762.735	83.85
762.914	82.71
763.093	82.56
763.273	82.5
763.452	81.79
763.631	79.82
763.81	79.83
763.99	78.98
764.169	78.56
764.348	76.67
764.527	75.69
764.706	77.98
764.885	80.45
765.064	78.94
765.243	81.02
765.423	82.97
765.602	81.09
765.781	78.23
765.96	78.83
766.139	77.97
766.318	78.29
766.497	78.14
766.676	78
766.854	80.19
767.033	79.19
767.212	78.9
767.391	78.44
767.57	80.02
767.749	80
767.928	81.27
768.106	79.53
768.285	78.12
768.464	77.45
768.643	76.34
768.821	76.38
769	78.04
769.179	79.15
769.357	77.26
769.536	76.72
769.715	77.24
769.893	77.32
770.072	77.67
770.25	80.04
770.429	80.49
770.607	79.48
770.786	78.68
770.964	78.51
771.143	76.35
771.321	76.92
771.5	78.28
771.678	76.56
771.857	75.28
772.035	76.67
772.213	75.5
772.392	72.85
772.57	77.03
772.748	77.47
772.927	76.41
773.105	77.47
773.283	79.3
773.461	77.89
773.64	79.87
773.818	80.53
773.996	79.53
774.174	78.52
774.352	75.31
774.531	71.93
774.709	73.8
774.887	73.03
775.065	71.53
775.243	72.85
775.421	75.5
775.599	74.44
775.777	74.44
775.955	74.27
776.133	74.22
776.311	73.5
776.489	72.3
776.667	71.71
776.844	72.55
777.022	70.75
777.2	70.54
777.378	70.6
777.556	70.94
777.734	73.28
777.911	76.55
778.089	75.62
778.267	74.29
778.445	74.18
778.622	71.91
778.8	70.8
778.978	73.88
779.155	74.17
779.333	73.89
779.511	72.57
779.688	73.6
779.866	68.43
780.043	67.37
780.221	68.59
780.398	69.19
780.576	69.85
780.753	74.11
780.931	74.83
781.108	73.51
781.286	76.39
781.463	73.89
781.64	69.09
781.818	71.55
781.995	73.66
782.172	72.75
782.35	74.74
782.527	79.99
782.704	77.14
782.882	77.56
783.059	75.89
783.236	76.54
783.413	75.37
783.59	77.78
783.768	75.79
783.945	79.57
784.122	77.9
784.299	78
784.476	75.4
784.653	72.7
784.83	67.84
785.007	64.22
785.184	65.03
785.361	63.51
785.538	70.83
785.715	75.11
785.892	77.11
786.069	78.07
786.246	79.54
786.423	75.4
786.6	71.24
786.776	74.94
786.953	70.51
787.13	74.03
787.307	73.65
787.484	75.59
787.66	72.96
787.837	74.29
788.014	68.7
788.191	69.33
788.367	66.26
788.544	64.87
788.721	63.98
788.897	69.25
789.074	68.61
789.25	67.5
789.427	68.99
789.603	70.75
789.78	69.79
789.956	69.12
790.133	68.98
790.309	69.33
790.486	71.99
790.662	68.17
790.839	66.81
791.015	70.44
791.192	67.62
791.368	65.78
791.544	65.85
791.721	66.21
791.897	65.92
792.073	63.78
792.249	58.78
792.426	62.84
792.602	68.08
792.778	64.59
792.954	67.33
793.13	67.79
793.307	58.19
793.483	45.93
793.659	46.95
793.835	48.98
794.011	46.67
794.187	49.9
794.363	53.41
794.539	60.53
794.715	57.67
794.891	63.62
795.067	64.07
795.243	70.32
795.419	64.79
795.595	62.3
795.771	60.7
795.947	61.65
796.122	56.15
796.298	58.51
796.474	63.5
796.65	63.69
796.826	60.96
797.001	63.59
797.177	59.65
797.353	63.9
797.529	62.62
797.704	65.3
797.88	62.72
798.056	57.5
798.231	50.34
798.407	53.45
798.582	55.05
798.758	67.49
798.934	79.74
799.109	77
799.285	71.07
799.46	74.27
799.636	66.17
799.811	60.4
799.986	65.01
800.162	72.06
800.337	68.71
800.513	63.73
800.688	65.38
800.863	70.1
801.039	61.85
801.214	59.81
801.389	65.29
801.565	67.11
801.74	53.62
801.915	63.41
802.09	63.05
802.265	67.85
802.441	60.55
802.616	64.4
802.791	57.48
802.966	62.3
803.141	55.71
803.316	60.37
803.491	66.36
803.666	70.66
803.841	63.87
804.016	61.57
804.191	57.76
804.366	51.34
804.541	49.12
804.716	52.75
804.891	47.55
805.066	53.58
805.241	50.13
805.416	48.76
805.591	42.75
805.765	50.57
805.94	49.13
806.115	52.57
806.29	51.12
806.464	62.91
806.639	62.03
806.814	59.12
806.989	56.01
807.163	61.95
807.338	58.28
807.512	56.89
807.687	46.75
807.862	58.62
808.036	61.42
808.211	61.58
808.385	70.33
808.56	77.9
808.734	90.53
808.909	84.61
809.083	73.96
809.258	74.01
809.432	77.25
809.606	51.19
809.781	51.85
809.955	59.76
810.13	56.3
810.304	49.37
810.478	49.53
810.652	55.61
810.827	61.57
811.001	53.71
811.175	54.42
811.349	56.49
811.524	49.23
811.698	37.77
811.872	51.15
812.046	63.2
812.22	71.58
812.394	71.23
812.568	79.12
812.742	77.46
812.916	67.39
813.09	60.35
813.264	58.44
813.438	59.57
813.612	51.71
813.786	46.12
813.96	51.87
814.134	53.64
814.308	61.08
814.482	69.01
814.656	69.33
814.83	74.73
815.003	69.16
815.177	52.66
815.351	47.9
815.525	53.28
815.698	44.21
815.872	39.33
816.046	31.67
816.219	35.16
816.393	40.52
816.567	42.84
816.74	49.66
816.914	60.14
817.088	64.1
817.261	64.59
817.435	45.66
817.608	49.95
817.782	43.85
817.955	43.38
818.129	35.72
818.302	52.37
818.475	58.33
818.649	64.82
818.822	57.14
818.996	68.59
819.169	65.36
819.342	50.13
819.516	57.81
819.689	52.82
819.862	48.17
820.035	38.27
820.209	39.93
820.382	37.73
820.555	43.19
820.728	30.36
820.901	34.66
821.075	39.72
821.248	41.65
821.421	29.11
821.594	39.79
821.767	70.55
821.94	76.56
822.113	50.96
822.286	58.81
822.459	67.57
822.632	53.5
822.805	42.24
822.978	41.52
823.151	38.11
823.324	27.45
823.496	1.96
823.669	1.33
823.842	18.14
824.015	-4.5
824.188	-8.5
824.361	13.34
824.533	6.68
824.706	4.52
824.879	18.24
825.051	24.26
825.224	13.77
825.397	11.48
825.569	6.01
825.742	17.8
825.915	23.16
826.087	42.15
826.26	32.53
826.432	48.45
826.605	48.25
826.777	37.27
826.95	33.91
827.122	29.72
827.295	21.13
827.467	22.58
827.64	-4.66
827.812	-14.67
827.984	-0.53
828.157	-17.73
828.329	-61.63
828.501	-23.64
828.674	18.44
828.846	-0.22
829.018	29.32
829.19	26.7
829.363	43.89
829.535	33.9
829.707	47.24
829.879	32.31
830.051	35.45
830.223	20.72
830.395	1.71
830.568	-22.14
830.74	-45.04
830.912	-3.9
831.084	-26.27
831.256	-33.59
831.428	-37.4
831.6	-40.41
831.772	-71.71
831.943	-72.92
832.115	-43.21
832.287	-0.58
832.459	10.27
832.631	18.35
832.803	47.32
832.975	67.31
833.146	53.22
833.318	67.88
833.49	81.86
833.662	43.26
833.833	25.6
834.005	17.45
834.177	21.12
834.348	-4.48
834.52	-10.94
834.692	-24.28
834.863	-33.06
835.035	-37.78
835.206	-79.65
835.378	-23.1
835.549	-35.01
835.721	-27.21
835.892	-21.21
836.064	-2.99
836.235	-13.92
836.407	4.14
836.578	-20.8
836.749	-37.48
836.921	-50.11
837.092	-63.27
837.264	-48.93
837.435	-45.33
837.606	-3.04
837.777	36.84
837.949	54.04
838.12	55.07
838.291	54.85
838.462	49.68
838.633	14.92
838.805	-5.51
838.976	-4.89
839.147	-50.46
839.318	-76.1
839.489	-140.94
839.66	-87.19
839.831	-29.55
840.002	-3.14
840.173	10.02
840.344	82.15
840.515	89.4
840.686	-76.19
840.857	-57.38
841.028	-43.93
841.199	-47.91
841.369	-58.24
841.54	-11.18
841.711	12.97
841.882	48.25
842.053	23.67
842.223	10.13
842.394	11.22
842.565	13.66
842.736	8.48
842.906	34.3
843.077	51.03
843.248	85.43
843.418	64.76
843.589	39.33
843.759	30.06
843.93	19.89
844.101	-12.63
844.271	1.03
844.442	21.07
844.612	34.76
844.783	11.36
844.953	2.83
845.123	2.66
845.294	-6.09
845.464	-110.22
845.635	6.12
845.805	61.2
845.975	70.14
846.146	23.05
846.316	5.53
846.486	25.8
846.656	44.6
846.827	11.58
846.997	12.2
847.167	40.31
847.337	10.9
847.507	-43.52
847.677	4.16
847.848	53.54
848.018	43.39
848.188	49.38
848.358	32.97
848.528	9.15
848.698	-26.4
848.868	-115.48
849.038	-237.66
849.208	-44.69
849.378	27.7
849.548	23.42
849.718	36.58
849.887	57.85
850.057	13.86
850.227	-39.15
850.397	-73.82
850.567	-170.38
850.737	-388.8
850.906	-1024.06
851.076	-764.26
851.246	-325.26
851.415	-30.13
851.585	-29.85
851.755	-34.11
851.924	23.71
852.094	-12.55
852.264	-100.28
852.433	-753.13
852.603	-165.66
852.772	-86.09
852.942	-47.41
853.111	-44.07
853.281	-8.46
853.45	44.02
853.62	-60.41
853.789	-49.37
853.959	-38.98
854.128	-31.84
854.297	-80.13
854.467	-77.56
854.636	-5.55
854.805	38.28
854.975	16.29
855.144	36.92
855.313	379.55
855.482	-212.59
855.652	-193.4
855.821	-115.19
855.99	39.8
856.159	52.58
856.328	64.33
856.497	56.39
856.667	45.18
856.836	19.26
857.005	-26.72
857.174	-50.26
857.343	-80.42
857.512	-26.76
857.681	-48.28
857.85	-85.38
858.019	-28.63
858.188	-12.82
858.356	-29.67
858.525	-93.07
858.694	-80.42
858.863	-187.32
859.032	-155.75
859.201	-256.34
859.369	-142.41
859.538	-105.37
859.707	-75.73
859.876	-95.28
860.044	-55.71
860.213	2.46
860.382	-3.73
860.55	6.58
860.719	47.49
860.888	40.78
861.056	11.1
861.225	33.52
861.393	94.21
861.562	112.02
861.73	74.95
861.899	68.98
862.067	-1345.69
862.236	-63.33
862.404	-279.32
862.572	-165.65
862.741	-44.33
862.909	-44.8
863.078	-228.64
863.246	-154.17
863.414	-147.11
863.582	-93.04
863.751	-94.89
863.919	-35.37
864.087	42.94
864.255	13.74
864.424	-235.56
864.592	-14.34
864.76	-57.04
864.928	-180.2
865.096	-48.81
865.264	-47.78
865.432	-1309.66
865.6	-64.63
865.768	-139.76
865.936	-172.65
866.104	-179.79
866.272	-181.95
866.44	-394.59
866.608	719.16
866.776	357.29
866.944	3140.12
867.112	-635.7
867.28	-265.09
867.448	-100.52
867.615	-8.2
867.783	6.25
867.951	-7.85
868.119	46.6
868.286	53.28
868.454	-55.75
868.622	-63.07
868.789	-17.01
868.957	-1244.64
869.125	-1903.29
869.292	-132.74
869.46	-201.64
869.627	-9.14
869.795	-29.71
869.963	13.25
870.13	41.49
870.298	66.53
870.465	6.2
870.632	-34.48
870.8	-25.06
870.967	-94.17
871.135	-168.92
871.302	-125
871.469	-104.92
871.637	-118.59
871.804	-71.53
871.971	-141.75
872.139	-597.33
872.306	-94.28
872.473	-118.62
872.64	-354.18
872.807	-154.95
872.975	17.8
873.142	-256.45
873.309	1687.16
873.476	-2.29
873.643	113.19
873.81	83.62
873.977	121.19
874.144	96.74
874.311	0.65
874.478	-107.33
874.645	-131.88
874.812	-33.44
874.979	-17.73
875.146	-32.88
875.313	-42.95
875.48	28.07
875.647	-28.7
875.813	-78.48
875.98	-38.02
876.147	-61.1
876.314	-162.33
876.481	996.9
876.647	-1075.56
876.814	385.62
876.981	70.29
877.147	18.03
877.314	10.38
877.481	25
877.647	19.09
877.814	-33.4
877.98	-67.6
878.147	7.09
878.314	79.72
878.48	79.99
878.647	40.02
878.813	94.1
878.979	63.51
879.146	-24
879.312	-55.67
879.479	-83.76
879.645	-206.22
879.811	-442.98
879.978	-801.72
880.144	-210.74
880.31	-89.9
880.477	-331.08
880.643	-320.16
880.809	-167.49
880.975	-136.73
881.142	-1022.95
881.308	-109.62
881.474	-51.33
881.64	-47.23
881.806	-107.95
881.972	-15.91
882.138	-5.94
882.304	50.94
882.47	-106.7
882.636	-344.47
882.802	-95.62
882.968	29.31
883.134	2.1
883.3	4.35
883.466	41.36
883.632	90.39
883.798	33.58
883.964	17.94
884.129	27.45
884.295	60.32
884.461	-37.67
884.627	-44.99
884.793	-59.42
884.958	-7.78
885.124	-83.92
885.29	-173.41
885.455	-145.75
885.621	45.5
885.787	0.71
885.952	1.69
886.118	1.07
886.283	-29.1
886.449	-139.87
886.614	-135.58
886.78	-347.4
886.945	1313.52
887.111	-650.43
887.276	-332.53
887.442	-589.32
887.607	-175.59
887.773	-163.46
887.938	-115.99
888.103	-221.13
888.269	-216.94
888.434	-465.54
888.599	-202.67
888.764	-116.65
888.93	-79.06
889.095	-72.62
889.26	-113.31
889.425	-101.75
889.59	-23.04
889.756	-25.76
889.921	-0.43
890.086	79.33
890.251	107.33
890.416	-80.38
890.581	-939.11
890.746	68.66
890.911	172.13
891.076	139.33
891.241	-87.5
891.406	63.4
891.571	17
891.736	-162.5
891.901	-204.65
892.065	385.99
892.23	80.81
892.395	177.94
892.56	294
892.725	-473.63
892.889	-1449.39
893.054	-248.97
893.219	-108.7
893.384	-50.51
893.548	-105.82
893.713	-118.02
893.878	-83.29
