Data from Ofra_PS_T2_2A_1GT36_Reflection_3.txt Node
Date: Wed Jul 21 16:53:54 EDT 2021
User: Adam
Spectrometer: FLMT01687
Trigger mode: 0
Integration Time (sec): 1.100000E0
Scans to average: 2
Electric dark correction enabled: true
Nonlinearity correction enabled: false
Boxcar width: 2
XAxis mode: Wavelengths
Number of Pixels in Spectrum: 3648
>>>>>Begin Spectral Data<<<<<
179.494	352.8
179.716	373.41
179.937	368.95
180.158	320.25
180.38	350.62
180.601	149.17
180.823	74.42
181.044	-126.54
181.265	-30.88
181.486	53.89
181.708	60.28
181.929	183.67
182.15	-507.04
182.372	-5.07
182.593	-64.81
182.814	8.78
183.035	20.35
183.257	54.86
183.478	-0.64
183.699	63.32
183.92	44.85
184.141	58.21
184.363	53.05
184.584	97.83
184.805	83.47
185.026	93.78
185.247	82.48
185.468	49.51
185.689	42.28
185.91	20.86
186.132	16.54
186.353	15.01
186.574	70.15
186.795	54.31
187.016	23.73
187.237	10.65
187.458	-13.03
187.679	-32.31
187.9	-5.76
188.121	22.8
188.342	51.08
188.563	77.36
188.784	98.29
189.005	79.28
189.226	106.08
189.447	67.09
189.667	-117.96
189.888	-271.92
190.109	-829.87
190.33	-530.32
190.551	-722.12
190.772	-145.28
190.993	-98.09
191.214	-111.35
191.434	-62.2
191.655	-6.63
191.876	-18.65
192.097	-69.23
192.318	-78.69
192.538	-109.09
192.759	-110.75
192.98	-27.77
193.201	0.85
193.421	23.48
193.642	32.95
193.863	34.88
194.083	14.24
194.304	9.91
194.525	2.44
194.745	-24.7
194.966	-24.35
195.187	-24.41
195.407	-41.35
195.628	-93.5
195.848	-101.25
196.069	-102.27
196.29	-57.1
196.51	-69.74
196.731	-52
196.951	-24.85
197.172	-44.01
197.392	-82.22
197.613	-89.92
197.833	-121.03
198.054	-115.54
198.274	-56.26
198.495	-52.97
198.715	0.92
198.936	-0.55
199.156	9.07
199.377	-38.31
199.597	-41.74
199.817	-68.35
200.038	-29.37
200.258	-67.55
200.479	-22.52
200.699	3.18
200.919	38.66
201.14	51.62
201.36	48.33
201.58	62.39
201.801	65.64
202.021	46.52
202.241	36.9
202.461	42.03
202.682	-24.14
202.902	-66.22
203.122	-8.47
203.342	3.91
203.563	24.9
203.783	45.82
204.003	37.2
204.223	34.86
204.443	58.15
204.663	61.3
204.884	63.22
205.104	74.72
205.324	94.11
205.544	92.19
205.764	83.43
205.984	77.48
206.204	69.28
206.424	33.9
206.644	0.8
206.864	-8.71
207.084	-34.27
207.304	-21.04
207.525	12.19
207.745	45.03
207.964	65.64
208.184	2.81
208.404	-21.89
208.624	-37.68
208.844	-42.72
209.064	-225.35
209.284	-175.65
209.504	-98.5
209.724	4.88
209.944	-9.12
210.164	3.09
210.384	9.41
210.604	12.72
210.823	-11.24
211.043	-3.29
211.263	-1.52
211.483	3.14
211.703	-7.44
211.922	-8.25
212.142	20.71
212.362	30.75
212.582	9.38
212.801	14.68
213.021	17.96
213.241	29.09
213.461	12.2
213.68	12.26
213.9	-6.29
214.12	9.26
214.339	-35
214.559	-34.66
214.779	-0.89
214.998	30.74
215.218	0.59
215.438	3.76
215.657	12.48
215.877	8.39
216.096	2.65
216.316	7.56
216.535	7.5
216.755	12.96
216.974	-30.91
217.194	-81.38
217.413	-98.58
217.633	-94.44
217.852	-214.2
218.072	-95.93
218.291	-54.13
218.511	-10.15
218.73	-16.57
218.95	-10.34
219.169	-14.36
219.389	-16.71
219.608	-9.05
219.827	-10.15
220.047	12.45
220.266	25.06
220.485	18.95
220.705	21.02
220.924	19.55
221.143	41.24
221.363	28.4
221.582	34.54
221.801	50.97
222.021	57.45
222.24	22.63
222.459	76.94
222.678	39.44
222.897	-32.75
223.117	-69.51
223.336	-36.55
223.555	-38.04
223.774	22.45
223.993	47.28
224.213	52.34
224.432	29.42
224.651	47.39
224.87	5.76
225.089	13.93
225.308	12.62
225.527	27.8
225.746	28.43
225.965	24.59
226.184	9.32
226.404	28.78
226.623	1.91
226.842	-5.92
227.061	16.85
227.28	21.25
227.499	7.98
227.718	23.17
227.936	16.04
228.155	31.81
228.374	17.7
228.593	26.92
228.812	21.37
229.031	15.46
229.25	-42.92
229.469	-43.44
229.688	-60.42
229.907	-33.36
230.125	-21.21
230.344	-13.94
230.563	-12.99
230.782	8.06
231.001	-49.91
231.22	-46.19
231.438	-7.12
231.657	6.58
231.876	-1.6
232.095	43.1
232.313	50.13
232.532	68.97
232.751	71.28
232.969	36.35
233.188	20.03
233.407	46.05
233.625	17.66
233.844	12.94
234.063	28.36
234.281	40.51
234.5	28.85
234.719	29.51
234.937	17.8
235.156	14.88
235.374	-1.59
235.593	-21.74
235.811	-37.86
236.03	-34.36
236.249	-40.04
236.467	-23.79
236.686	15.98
236.904	23.68
237.123	24.24
237.341	10.69
237.559	8.68
237.778	-13.07
237.996	-33.77
238.215	-9.17
238.433	5.52
238.652	-4.81
238.87	-8.39
239.088	-12.87
239.307	-36.15
239.525	-44.14
239.743	-50.8
239.962	-39.31
240.18	-32.39
240.398	-35.69
240.617	-46.95
240.835	-10.51
241.053	-20.02
241.271	-8.14
241.49	20.01
241.708	0.31
241.926	-36.97
242.144	-27.14
242.363	-46.46
242.581	-77.68
242.799	-43.01
243.017	-19.05
243.235	-2.17
243.453	6.28
243.672	-2.99
243.89	-2.59
244.108	-10.47
244.326	-7.75
244.544	-1.98
244.762	12.01
244.98	13.26
245.198	19.72
245.416	-4.05
245.634	-22.31
245.852	-33.36
246.07	-21.75
246.288	-15.92
246.506	-50.36
246.724	-32.2
246.942	-28.6
247.16	-17.45
247.378	-22.91
247.596	0.63
247.814	13.89
248.032	-2.69
248.25	-6.31
248.468	1.03
248.685	13.79
248.903	28.35
249.121	48.33
249.339	43.7
249.557	58.8
249.775	50.89
249.992	12.97
250.21	-9.01
250.428	-2.55
250.646	-32.05
250.863	-31.1
251.081	6.78
251.299	19.34
251.517	3.94
251.734	10.99
251.952	11.95
252.17	2.67
252.387	7.77
252.605	16.42
252.823	35.97
253.04	36.69
253.258	50.86
253.475	69.83
253.693	60.77
253.911	54.56
254.128	64.75
254.346	76.33
254.563	49.39
254.781	27.52
254.998	0.24
255.216	-22.27
255.433	-22.29
255.651	20.41
255.868	60.8
256.086	86.7
256.303	93.17
256.521	73.32
256.738	50.2
256.956	34.36
257.173	10.03
257.39	-11.65
257.608	-8.02
257.825	27.29
258.043	50.16
258.26	55.09
258.477	88.21
258.695	68.27
258.912	13.37
259.129	22.41
259.346	-11.52
259.564	-41.01
259.781	-68.65
259.998	-17.23
260.216	-17.9
260.433	-2
260.65	-3.64
260.867	21.06
261.084	-11.9
261.302	-40.07
261.519	-24.36
261.736	-39.44
261.953	-48.76
262.17	-1.73
262.387	-7.21
262.604	-27.16
262.822	-13.74
263.039	-10.83
263.256	-45.02
263.473	-3.63
263.69	10.94
263.907	24.09
264.124	25.95
264.341	23.86
264.558	25.13
264.775	20.96
264.992	14.64
265.209	10.14
265.426	17.37
265.643	5.75
265.86	4.84
266.077	5.58
266.294	4.31
266.51	-13.81
266.727	-38.92
266.944	-35.27
267.161	-43.42
267.378	-45.64
267.595	-17.05
267.812	-9.06
268.028	-11.42
268.245	20.17
268.462	0.62
268.679	10.05
268.896	48.91
269.112	35.61
269.329	15.93
269.546	29.74
269.763	9.35
269.979	-23.18
270.196	-18.58
270.413	-31.12
270.629	-64.18
270.846	-52.7
271.063	-41.01
271.279	-43.5
271.496	-23.31
271.712	26.55
271.929	28.7
272.146	22.36
272.362	42.82
272.579	31.7
272.795	22.36
273.012	40.07
273.228	49.81
273.445	37.44
273.661	56.16
273.878	12.72
274.094	-19.69
274.311	-33.03
274.527	12.15
274.744	17.12
274.96	15.32
275.177	38.64
275.393	38.46
275.609	35.03
275.826	40.34
276.042	49.51
276.259	29.82
276.475	47.31
276.691	46.2
276.908	12.98
277.124	24.52
277.34	17.57
277.557	-4.76
277.773	-15.17
277.989	-16.03
278.205	-26.66
278.422	-5.97
278.638	11.92
278.854	21.42
279.07	33.16
279.286	37.35
279.503	18.23
279.719	-17.29
279.935	-25.96
280.151	-35.97
280.367	-11.93
280.583	-19.54
280.799	-7.05
281.016	-23.14
281.232	5.38
281.448	-0.18
281.664	23.21
281.88	15.34
282.096	38.06
282.312	52.41
282.528	61.38
282.744	68.87
282.96	67.61
283.176	35.87
283.392	29.46
283.608	28.65
283.824	15.77
284.04	17.88
284.256	28.27
284.471	17.59
284.687	10.76
284.903	25.96
285.119	35.06
285.335	22.33
285.551	35.12
285.767	25.79
285.982	21.07
286.198	-3.65
286.414	37.8
286.63	20.48
286.846	24.25
287.061	8.96
287.277	26.57
287.493	2.45
287.709	18.99
287.924	12.19
288.14	51.75
288.356	48
288.571	51.62
288.787	36.67
289.003	33.59
289.218	14.21
289.434	-2.64
289.65	5.79
289.865	5.1
290.081	38.24
290.296	47.24
290.512	49.93
290.727	13.46
290.943	11.06
291.159	0.87
291.374	-12.02
291.59	-24.56
291.805	-13.69
292.021	-9.31
292.236	-17.54
292.451	-3.42
292.667	2.41
292.882	27.24
293.098	30.98
293.313	23.45
293.529	4.67
293.744	2.35
293.959	-19.26
294.175	-23.21
294.39	-3.58
294.605	7.24
294.821	18.84
295.036	12.35
295.251	12.76
295.467	16.28
295.682	3.71
295.897	-17.99
296.112	-9.7
296.328	-14.15
296.543	-63.38
296.758	-51.09
296.973	-27.75
297.188	0
297.404	-6.67
297.619	4.12
297.834	-16.07
298.049	-14.62
298.264	-20.52
298.479	8.88
298.694	10.1
298.909	33.48
299.125	37.42
299.34	24.82
299.555	-0.53
299.77	12.77
299.985	-27.47
300.2	-67.24
300.415	-55.33
300.63	-33.48
300.845	-45.6
301.06	-30.37
301.275	4.31
301.49	17.83
301.704	23.03
301.919	17.51
302.134	1.06
302.349	-4.08
302.564	-48.5
302.779	-44.74
302.994	-35.74
303.209	-1.48
303.423	3.8
303.638	42.43
303.853	-4.05
304.068	12.97
304.283	27.78
304.497	20.97
304.712	9.33
304.927	27.82
305.142	15.14
305.356	13.78
305.571	6.8
305.786	18.28
306	6.4
306.215	0
306.43	-18.28
306.644	4.15
306.859	-14.74
307.074	2.72
307.288	0.22
307.503	-24.51
307.717	-30.57
307.932	-31.76
308.147	-33.82
308.361	-21.31
308.576	-14.69
308.79	-41.07
309.005	-16.74
309.219	-2.04
309.434	-2.2
309.648	-1.29
309.863	12.9
310.077	7.4
310.292	-14.6
310.506	-13.48
310.72	1.47
310.935	1.93
311.149	3.79
311.364	20.62
311.578	32.59
311.792	23.38
312.007	21.8
312.221	3.13
312.435	-3.88
312.649	-17.94
312.864	9.81
313.078	23.27
313.292	81.94
313.507	80.47
313.721	114.79
313.935	42.19
314.149	37.19
314.363	21.17
314.578	31.21
314.792	30.99
315.006	21.88
315.22	30.8
315.434	39.22
315.648	42.67
315.862	40.31
316.077	40.41
316.291	31.86
316.505	41.44
316.719	51.35
316.933	44.92
317.147	36.72
317.361	-12.84
317.575	-59.06
317.789	-98.97
318.003	-208.66
318.217	-147.51
318.431	-55.71
318.645	-3.88
318.859	1.24
319.073	30.94
319.287	13.98
319.5	7.58
319.714	-24.97
319.928	-49.01
320.142	-60.1
320.356	8.81
320.57	29.64
320.784	43.21
320.997	65.04
321.211	63.59
321.425	5.68
321.639	-30.47
321.853	12.12
322.066	14.52
322.28	14.27
322.494	13.03
322.707	27.05
322.921	16.76
323.135	21.71
323.349	9.87
323.562	5.96
323.776	-1.93
323.989	-12.05
324.203	-35.47
324.417	-27.6
324.63	-38.02
324.844	-38.83
325.057	-35.17
325.271	-17.26
325.485	3.15
325.698	8.75
325.912	18.95
326.125	4.46
326.339	6.81
326.552	-14.49
326.766	5.47
326.979	11.81
327.193	42.27
327.406	47.43
327.619	45.29
327.833	40.08
328.046	27.33
328.26	3.69
328.473	19.79
328.686	20.49
328.9	7.35
329.113	18.81
329.326	7.2
329.54	1.6
329.753	-7.31
329.966	0.29
330.179	-5.98
330.393	5.85
330.606	-4.15
330.819	4.04
331.032	15.87
331.246	13.89
331.459	29.37
331.672	34.46
331.885	26.58
332.098	15.21
332.311	18.26
332.525	-17.4
332.738	-30.63
332.951	14.39
333.164	35.81
333.377	46.06
333.59	54.08
333.803	55.03
334.016	43.54
334.229	33.23
334.442	31.48
334.655	42.77
334.868	60.62
335.081	46.04
335.294	42.31
335.507	39.48
335.72	35.26
335.933	26.29
336.146	23.59
336.359	7.4
336.572	-10.78
336.785	-43.13
336.997	-49.04
337.21	-24.32
337.423	-13.07
337.636	-4.92
337.849	21.71
338.062	23.22
338.274	13.49
338.487	9.76
338.7	-3.22
338.913	-32.69
339.125	-38.39
339.338	-36.56
339.551	-26.01
339.763	16.56
339.976	32.22
340.189	34.55
340.402	31.33
340.614	30.24
340.827	14.38
341.039	4.15
341.252	8.81
341.465	1.25
341.677	-10.52
341.89	-46.57
342.102	-12.33
342.315	-20.95
342.527	-36.59
342.74	-21.24
342.952	21.52
343.165	-5.07
343.377	16.91
343.59	16.58
343.802	19.76
344.015	11.58
344.227	33.75
344.44	24.19
344.652	19.74
344.864	18.54
345.077	34.06
345.289	28
345.502	30.89
345.714	39.77
345.926	38.38
346.139	24.95
346.351	38.05
346.563	33.87
346.775	28.6
346.988	25.88
347.2	21.02
347.412	-13.25
347.624	-28.04
347.837	-40.8
348.049	-33.99
348.261	-1.64
348.473	7.45
348.685	7.13
348.897	9.95
349.11	3.08
349.322	-21.91
349.534	-8.95
349.746	-11.17
349.958	-18.01
350.17	-25.13
350.382	-9.35
350.594	-7.63
350.806	9.67
351.018	23.95
351.23	28.85
351.442	5.59
351.654	2.69
351.866	-26.79
352.078	-26.69
352.29	-20.31
352.502	-1.66
352.714	2.82
352.926	9.66
353.138	-1.12
353.35	1.22
353.561	7.53
353.773	-10.34
353.985	-5.67
354.197	7.08
354.409	3.22
354.621	-14.42
354.832	4.31
355.044	1.72
355.256	-3.17
355.468	9.7
355.679	16.19
355.891	18.68
356.103	16.39
356.314	30.58
356.526	30.63
356.738	34.86
356.949	40.61
357.161	48.7
357.373	42.86
357.584	38.67
357.796	45.19
358.008	35.08
358.219	35.42
358.431	10.92
358.642	8.76
358.854	-2.11
359.065	-15.04
359.277	-41.93
359.488	-35.03
359.7	-41.25
359.911	-52.95
360.123	-34.85
360.334	-30.25
360.546	-35.25
360.757	-42.32
360.969	-30.22
361.18	-22.1
361.391	-20.24
361.603	-23.35
361.814	-16.71
362.025	-16.99
362.237	-25.74
362.448	-3.59
362.659	10.35
362.871	13.86
363.082	9.98
363.293	14.98
363.504	3.04
363.716	-10.24
363.927	-12.42
364.138	-25.42
364.349	-17.84
364.56	-15.09
364.772	-5.7
364.983	6.77
365.194	15.42
365.405	24.14
365.616	30.39
365.827	21.47
366.038	6.58
366.25	5.53
366.461	-32.88
366.672	-19.12
366.883	4.94
367.094	14
367.305	5.2
367.516	16.21
367.727	0.41
367.938	-7.4
368.149	-12.97
368.36	12.37
368.571	15.85
368.781	5.1
368.992	-9.08
369.203	-7.75
369.414	-35.57
369.625	-52
369.836	-26.99
370.047	-43.77
370.258	-41.08
370.468	-37.07
370.679	-44.55
370.89	-42
371.101	-23.07
371.312	-16.13
371.522	15.72
371.733	21.79
371.944	28.53
372.155	40.42
372.365	22.65
372.576	8.55
372.787	1.89
372.997	-8.81
373.208	-6.67
373.419	4.09
373.629	-28.04
373.84	-18.44
374.05	-30.53
374.261	-35.66
374.472	-26.53
374.682	15.19
374.893	11.89
375.103	42.08
375.314	41.14
375.524	32.77
375.735	24.16
375.945	42.77
376.156	17.63
376.366	18.11
376.577	17.7
376.787	16.27
376.997	3.52
377.208	9.93
377.418	3.65
377.629	8.99
377.839	3.38
378.049	1.34
378.26	8.91
378.47	11.01
378.68	11.54
378.89	9.22
379.101	5.25
379.311	-14.17
379.521	-26.8
379.732	-37.24
379.942	-30.68
380.152	-42.15
380.362	-17.34
380.572	-11.78
380.783	-4.05
380.993	3.1
381.203	20.4
381.413	36.81
381.623	35.66
381.833	35.67
382.043	28.92
382.253	20.45
382.463	4.16
382.674	0.2
382.884	-15.72
383.094	-8.89
383.304	-5.29
383.514	-2.93
383.724	-0.43
383.934	2.62
384.144	-6.05
384.353	-12.74
384.563	-15.76
384.773	-2.07
384.983	-7.63
385.193	3.27
385.403	11.37
385.613	12.37
385.823	-0.31
386.033	8.63
386.242	6.48
386.452	1.49
386.662	-1.38
386.872	7.92
387.082	0.71
387.291	-3.05
387.501	-6.77
387.711	-4.02
387.921	-13.25
388.13	-14.97
388.34	-5.83
388.55	-6.33
388.759	-6
388.969	-2.18
389.179	-2.33
389.388	-3.09
389.598	5.12
389.807	1.59
390.017	-1.09
390.227	0.93
390.436	-5.17
390.646	-4.15
390.855	-3.16
391.065	-1.35
391.274	-0.49
391.484	0.75
391.693	-2.14
391.903	0.82
392.112	3.24
392.322	5.01
392.531	8.05
392.74	8.59
392.95	5.64
393.159	4.55
393.369	3.09
393.578	2.23
393.787	1.32
393.997	1.91
394.206	2.05
394.415	3.94
394.625	1.76
394.834	0.69
395.043	2.22
395.252	3.13
395.462	3.41
395.671	5.18
395.88	6.53
396.089	6.36
396.298	4.12
396.508	3.7
396.717	2.43
396.926	2.38
397.135	1.57
397.344	2.55
397.553	3.07
397.762	4.67
397.971	4.91
398.181	5.46
398.39	4.8
398.599	4.24
398.808	4.25
399.017	4.71
399.226	5.03
399.435	6.06
399.644	6.5
399.853	5.46
400.062	5.18
400.27	4.84
400.479	4.38
400.688	3.72
400.897	4.06
401.106	4.13
401.315	4.09
401.524	4.05
401.733	4.4
401.941	4.83
402.15	4.74
402.359	4.55
402.568	4.8
402.777	4.94
402.985	4.32
403.194	3.96
403.403	3.88
403.612	3.66
403.82	3.48
404.029	3.94
404.238	3.94
404.446	4.21
404.655	4.18
404.864	4.04
405.072	3.73
405.281	3.92
405.489	3.83
405.698	3.81
405.906	3.86
406.115	3.96
406.324	3.86
406.532	3.89
406.741	4.09
406.949	4.19
407.158	4.08
407.366	4.09
407.574	4.12
407.783	3.99
407.991	3.68
408.2	3.84
408.408	3.79
408.617	3.62
408.825	3.52
409.033	3.87
409.242	3.81
409.45	3.93
409.658	3.99
409.867	4.03
410.075	3.75
410.283	3.67
410.491	3.57
410.7	3.51
410.908	3.53
411.116	3.7
411.324	3.76
411.533	3.7
411.741	3.75
411.949	3.69
412.157	3.49
412.365	3.41
412.573	3.41
412.781	3.49
412.99	3.46
413.198	3.69
413.406	3.69
413.614	3.73
413.822	3.58
414.03	3.52
414.238	3.26
414.446	3.35
414.654	3.11
414.862	3.16
415.07	3.26
415.278	3.4
415.486	3.27
415.694	3.47
415.902	3.37
416.109	3.19
416.317	3.16
416.525	3
416.733	2.89
416.941	3.09
417.149	3.23
417.357	3.27
417.564	3.37
417.772	3.67
417.98	3.41
418.188	3.29
418.395	3.3
418.603	3.57
418.811	3.14
419.019	3.29
419.226	3.42
419.434	3.48
419.642	3.19
419.849	3.42
420.057	3.31
420.265	3.3
420.472	3.1
420.68	3.12
420.887	3.08
421.095	3.14
421.302	3.11
421.51	3.25
421.717	3.3
421.925	3.28
422.132	3.16
422.34	2.97
422.547	3.05
422.755	2.94
422.962	2.85
423.17	2.84
423.377	2.96
423.585	2.88
423.792	2.75
423.999	2.85
424.207	2.85
424.414	2.77
424.621	2.63
424.829	2.86
425.036	2.75
425.243	2.89
425.451	2.97
425.658	2.91
425.865	3
426.072	3.11
426.28	3.28
426.487	3.24
426.694	3.26
426.901	3.05
427.108	3.08
427.315	2.93
427.523	3.13
427.73	3.12
427.937	3.14
428.144	2.95
428.351	2.87
428.558	2.91
428.765	2.91
428.972	2.9
429.179	3.15
429.386	3.34
429.593	3.09
429.8	3.09
430.007	3.2
430.214	3.22
430.421	3.11
430.628	3.07
430.835	2.95
431.042	3.03
431.249	3.04
431.456	3.02
431.662	3.11
431.869	3.42
432.076	3.34
432.283	3.46
432.49	3.55
432.697	3.65
432.903	3.48
433.11	3.48
433.317	3.49
433.524	3.52
433.73	3.46
433.937	3.65
434.144	3.68
434.35	3.45
434.557	3.29
434.764	3.41
434.97	3.33
435.177	3.42
435.384	3.59
435.59	3.84
435.797	3.94
436.003	3.97
436.21	4
436.416	4.01
436.623	3.9
436.829	3.9
437.036	4.14
437.242	4.12
437.449	4.1
437.655	4.23
437.862	4.13
438.068	3.99
438.275	4.23
438.481	4.35
438.687	4.24
438.894	4.25
439.1	4.24
439.307	4.32
439.513	4.34
439.719	4.35
439.926	4.5
440.132	4.53
440.338	4.26
440.544	4.29
440.751	4.31
440.957	4.36
441.163	4.27
441.369	4.42
441.575	4.3
441.782	4.33
441.988	4.23
442.194	4.32
442.4	4.3
442.606	4.47
442.812	4.57
443.018	4.62
443.224	4.64
443.431	4.77
443.637	4.6
443.843	4.52
444.049	4.5
444.255	4.41
444.461	4.43
444.667	4.5
444.873	4.65
445.079	4.71
445.284	4.87
445.49	4.64
445.696	4.6
445.902	4.49
446.108	4.47
446.314	4.43
446.52	4.52
446.726	4.66
446.931	4.71
447.137	4.81
447.343	4.81
447.549	4.84
447.755	4.77
447.96	4.77
448.166	4.72
448.372	4.69
448.578	4.77
448.783	4.77
448.989	4.9
449.195	4.99
449.4	4.98
449.606	4.89
449.812	4.92
450.017	4.85
450.223	4.83
450.428	4.88
450.634	4.96
450.84	5.05
451.045	5.05
451.251	4.97
451.456	5.16
451.662	5.21
451.867	5.26
452.073	5.31
452.278	5.48
452.483	5.43
452.689	5.35
452.894	5.29
453.1	5.28
453.305	5.16
453.51	5.09
453.716	5.11
453.921	5.16
454.127	5.16
454.332	5.2
454.537	5.27
454.742	5.22
454.948	5.11
455.153	5.07
455.358	5.14
455.563	5.24
455.769	5.44
455.974	5.51
456.179	5.46
456.384	5.3
456.589	5.22
456.795	5.02
457	4.99
457.205	5.21
457.41	5.32
457.615	5.33
457.82	5.43
458.025	5.43
458.23	5.3
458.435	5.32
458.64	5.12
458.845	5.21
459.05	5.19
459.255	5.2
459.46	5.21
459.665	5.37
459.87	5.34
460.075	5.35
460.28	5.52
460.485	5.54
460.69	5.55
460.895	5.47
461.099	5.49
461.304	5.48
461.509	5.52
461.714	5.52
461.919	5.65
462.123	5.6
462.328	5.58
462.533	5.51
462.738	5.62
462.942	5.52
463.147	5.66
463.352	5.68
463.556	5.75
463.761	5.68
463.966	5.75
464.17	5.71
464.375	5.64
464.58	5.67
464.784	5.68
464.989	5.66
465.193	5.73
465.398	5.76
465.602	5.8
465.807	5.8
466.011	5.91
466.216	5.95
466.42	6.08
466.625	6.09
466.829	6.22
467.034	6.19
467.238	6.31
467.443	6.26
467.647	6.17
467.851	6.17
468.056	6.21
468.26	6.1
468.464	6.09
468.669	6.25
468.873	6.34
469.077	6.4
469.282	6.51
469.486	6.65
469.69	6.72
469.894	6.57
470.099	6.57
470.303	6.59
470.507	6.48
470.711	6.38
470.915	6.45
471.119	6.38
471.324	6.33
471.528	6.34
471.732	6.43
471.936	6.47
472.14	6.59
472.344	6.75
472.548	6.84
472.752	6.94
472.956	7.04
473.16	7.02
473.364	6.87
473.568	6.9
473.772	6.86
473.976	6.79
474.18	6.8
474.384	6.91
474.588	6.9
474.792	6.92
474.995	7.03
475.199	7.12
475.403	7.14
475.607	7.18
475.811	7.15
476.015	7.19
476.218	7.27
476.422	7.25
476.626	7.33
476.83	7.47
477.033	7.42
477.237	7.28
477.441	7.32
477.644	7.32
477.848	7.25
478.052	7.26
478.255	7.35
478.459	7.39
478.663	7.49
478.866	7.46
479.07	7.48
479.273	7.6
479.477	7.64
479.681	7.62
479.884	7.7
480.088	7.75
480.291	7.76
480.495	7.8
480.698	7.79
480.901	7.82
481.105	7.87
481.308	7.78
481.512	7.78
481.715	7.84
481.919	7.88
482.122	7.98
482.325	8.05
482.529	8.08
482.732	8.09
482.935	8.07
483.138	7.99
483.342	8.06
483.545	8.13
483.748	8.21
483.952	8.22
484.155	8.33
484.358	8.24
484.561	8.21
484.764	8.12
484.967	8.24
485.171	8.22
485.374	8.24
485.577	8.31
485.78	8.37
485.983	8.32
486.186	8.23
486.389	8.2
486.592	8.14
486.795	8.2
486.998	8.18
487.201	8.24
487.404	8.42
487.607	8.51
487.81	8.43
488.013	8.52
488.216	8.53
488.419	8.48
488.622	8.4
488.825	8.41
489.028	8.36
489.231	8.34
489.433	8.26
489.636	8.25
489.839	8.31
490.042	8.29
490.245	8.34
490.447	8.43
490.65	8.46
490.853	8.37
491.056	8.47
491.258	8.51
491.461	8.46
491.664	8.55
491.866	8.64
492.069	8.69
492.272	8.59
492.474	8.68
492.677	8.68
492.879	8.77
493.082	8.8
493.285	8.97
493.487	8.94
493.69	8.9
493.892	8.8
494.095	8.71
494.297	8.65
494.5	8.71
494.702	8.76
494.905	8.81
495.107	8.81
495.309	8.82
495.512	8.82
495.714	8.87
495.917	8.9
496.119	8.9
496.321	9
496.524	9.02
496.726	9.04
496.928	9.07
497.13	9.19
497.333	9.17
497.535	9.28
497.737	9.26
497.939	9.27
498.142	9.33
498.344	9.37
498.546	9.26
498.748	9.34
498.95	9.45
499.152	9.41
499.355	9.44
499.557	9.55
499.759	9.61
499.961	9.54
500.163	9.61
500.365	9.65
500.567	9.68
500.769	9.64
500.971	9.71
501.173	9.72
501.375	9.75
501.577	9.74
501.779	9.68
501.981	9.78
502.183	9.79
502.385	9.75
502.587	9.76
502.788	9.91
502.99	9.96
503.192	9.98
503.394	10.03
503.596	10.06
503.798	10.1
503.999	10.02
504.201	10.01
504.403	10.12
504.605	10.21
504.806	10.13
505.008	10.23
505.21	10.36
505.411	10.36
505.613	10.33
505.815	10.41
506.016	10.44
506.218	10.49
506.42	10.4
506.621	10.45
506.823	10.53
507.024	10.42
507.226	10.34
507.427	10.45
507.629	10.5
507.83	10.53
508.032	10.58
508.233	10.71
508.435	10.78
508.636	10.81
508.838	10.78
509.039	10.87
509.24	10.92
509.442	10.87
509.643	10.83
509.845	10.91
510.046	10.95
510.247	10.93
510.448	11.02
510.65	11.14
510.851	11.24
511.052	11.29
511.254	11.29
511.455	11.32
511.656	11.31
511.857	11.34
512.058	11.32
512.26	11.37
512.461	11.42
512.662	11.46
512.863	11.43
513.064	11.51
513.265	11.59
513.466	11.6
513.667	11.6
513.868	11.62
514.069	11.66
514.27	11.7
514.471	11.71
514.672	11.75
514.873	11.78
515.074	11.82
515.275	11.79
515.476	11.8
515.677	11.82
515.878	11.93
516.079	11.94
516.28	11.93
516.481	12
516.682	12
516.882	11.92
517.083	11.92
517.284	11.97
517.485	11.99
517.686	12.08
517.886	12.11
518.087	12.17
518.288	12.27
518.488	12.32
518.689	12.3
518.89	12.37
519.091	12.4
519.291	12.35
519.492	12.35
519.692	12.37
519.893	12.45
520.094	12.44
520.294	12.5
520.495	12.5
520.695	12.58
520.896	12.57
521.096	12.68
521.297	12.69
521.497	12.76
521.698	12.73
521.898	12.74
522.099	12.73
522.299	12.83
522.499	12.85
522.7	12.89
522.9	12.91
523.101	13
523.301	12.98
523.501	13
523.702	13.06
523.902	13.13
524.102	13.16
524.302	13.13
524.503	13.19
524.703	13.23
524.903	13.25
525.103	13.19
525.304	13.31
525.504	13.35
525.704	13.41
525.904	13.42
526.104	13.42
526.304	13.4
526.504	13.47
526.705	13.42
526.905	13.48
527.105	13.58
527.305	13.55
527.505	13.43
527.705	13.48
527.905	13.47
528.105	13.44
528.305	13.46
528.505	13.56
528.705	13.62
528.905	13.62
529.105	13.7
529.304	13.73
529.504	13.89
529.704	13.83
529.904	13.89
530.104	13.88
530.304	13.95
530.503	13.84
530.703	13.93
530.903	13.9
531.103	13.95
531.303	13.99
531.502	14.05
531.702	14.13
531.902	14.15
532.101	14.16
532.301	14.21
532.501	14.23
532.7	14.16
532.9	14.21
533.1	14.25
533.299	14.29
533.499	14.32
533.698	14.37
533.898	14.37
534.097	14.4
534.297	14.45
534.496	14.47
534.696	14.59
534.895	14.74
535.095	14.84
535.294	14.83
535.494	14.83
535.693	14.75
535.892	14.74
536.092	14.61
536.291	14.62
536.491	14.74
536.69	14.86
536.889	14.88
537.088	14.94
537.288	14.99
537.487	15
537.686	14.94
537.886	14.97
538.085	15.05
538.284	15.1
538.483	15.12
538.682	15.29
538.882	15.34
539.081	15.38
539.28	15.41
539.479	15.39
539.678	15.32
539.877	15.38
540.076	15.47
540.275	15.51
540.474	15.63
540.673	15.67
540.872	15.69
541.071	15.73
541.27	15.76
541.469	15.8
541.668	15.83
541.867	15.85
542.066	15.9
542.265	15.96
542.464	15.96
542.663	16.03
542.862	16.22
543.06	16.34
543.259	16.46
543.458	16.62
543.657	16.73
543.856	16.72
544.054	16.68
544.253	16.69
544.452	16.73
544.651	16.78
544.849	16.78
545.048	16.81
545.247	16.86
545.445	16.86
545.644	16.86
545.843	16.87
546.041	16.95
546.24	17.01
546.438	17.08
546.637	17.15
546.836	17.35
547.034	17.44
547.233	17.45
547.431	17.5
547.63	17.5
547.828	17.44
548.027	17.49
548.225	17.54
548.423	17.58
548.622	17.71
548.82	17.77
549.019	17.83
549.217	17.93
549.415	17.97
549.614	18.1
549.812	18.19
550.01	18.2
550.209	18.32
550.407	18.43
550.605	18.43
550.803	18.54
551.002	18.72
551.2	18.72
551.398	18.87
551.596	19.03
551.794	19.05
551.993	19.07
552.191	19.2
552.389	19.25
552.587	19.3
552.785	19.41
552.983	19.45
553.181	19.57
553.379	19.61
553.577	19.65
553.775	19.76
553.973	19.89
554.171	19.95
554.369	19.99
554.567	20.13
554.765	20.21
554.963	20.35
555.161	20.35
555.359	20.53
555.557	20.64
555.755	20.65
555.952	20.74
556.15	20.84
556.348	20.87
556.546	21
556.744	21.15
556.941	21.12
557.139	21.25
557.337	21.37
557.535	21.36
557.732	21.45
557.93	21.65
558.128	21.73
558.325	21.83
558.523	21.92
558.721	21.96
558.918	21.99
559.116	22.11
559.313	22.16
559.511	22.33
559.708	22.5
559.906	22.55
560.104	22.7
560.301	22.84
560.498	22.87
560.696	22.94
560.893	23.09
561.091	23.17
561.288	23.27
561.486	23.32
561.683	23.4
561.88	23.5
562.078	23.6
562.275	23.63
562.473	23.77
562.67	23.84
562.867	23.89
563.064	23.99
563.262	24.14
563.459	24.3
563.656	24.44
563.853	24.54
564.051	24.61
564.248	24.67
564.445	24.7
564.642	24.79
564.839	25
565.036	25.18
565.234	25.43
565.431	25.51
565.628	25.6
565.825	25.62
566.022	25.68
566.219	25.71
566.416	25.87
566.613	25.96
566.81	26.06
567.007	26.04
567.204	26.06
567.401	26
567.598	26.02
567.795	26.08
567.991	26.22
568.188	26.34
568.385	26.57
568.582	26.73
568.779	26.84
568.976	26.87
569.172	27.01
569.369	26.97
569.566	27.02
569.763	27.18
569.96	27.25
570.156	27.21
570.353	27.27
570.55	27.34
570.746	27.24
570.943	27.35
571.14	27.44
571.336	27.42
571.533	27.5
571.729	27.6
571.926	27.62
572.123	27.63
572.319	27.76
572.516	27.7
572.712	27.8
572.909	27.79
573.105	27.92
573.302	28.05
573.498	28.21
573.695	28.2
573.891	28.31
574.087	28.33
574.284	28.32
574.48	28.25
574.677	28.26
574.873	28.29
575.069	28.32
575.266	28.44
575.462	28.54
575.658	28.69
575.854	28.87
576.051	28.89
576.247	28.86
576.443	28.84
576.639	28.75
576.835	28.56
577.032	28.57
577.228	28.69
577.424	28.76
577.62	28.76
577.816	28.95
578.012	29.02
578.208	28.94
578.404	29.02
578.6	29.12
578.796	29.04
578.993	29.1
579.189	29.16
579.384	29.12
579.58	29.14
579.776	29.27
579.972	29.25
580.168	29.21
580.364	29.29
580.56	29.2
580.756	29.04
580.952	28.99
581.148	28.9
581.343	28.96
581.539	29.18
581.735	29.27
581.931	29.34
582.127	29.47
582.322	29.35
582.518	29.22
582.714	29.23
582.909	29.27
583.105	29.31
583.301	29.37
583.496	29.39
583.692	29.38
583.888	29.25
584.083	29.27
584.279	29.29
584.474	29.25
584.67	29.29
584.866	29.42
585.061	29.33
585.257	29.36
585.452	29.47
585.648	29.45
585.843	29.4
586.039	29.42
586.234	29.43
586.429	29.36
586.625	29.5
586.82	29.53
587.015	29.58
587.211	29.53
587.406	29.61
587.601	29.53
587.797	29.5
587.992	29.47
588.187	29.5
588.383	29.5
588.578	29.61
588.773	29.74
588.968	29.74
589.163	29.9
589.359	29.93
589.554	29.91
589.749	29.85
589.944	29.94
590.139	29.88
590.334	29.91
590.529	29.91
590.724	30.09
590.919	30.21
591.114	30.25
591.309	30.38
591.504	30.47
591.699	30.44
591.894	30.41
592.089	30.41
592.284	30.34
592.479	30.35
592.674	30.39
592.869	30.46
593.064	30.55
593.259	30.68
593.454	30.79
593.648	30.83
593.843	30.87
594.038	30.86
594.233	30.82
594.428	30.85
594.622	31
594.817	31.16
595.012	31.23
595.206	31.37
595.401	31.36
595.596	31.26
595.79	31.33
595.985	31.53
596.18	31.6
596.374	31.84
596.569	32.04
596.763	31.98
596.958	32.03
597.153	32.15
597.347	32.04
597.542	32.09
597.736	32.12
597.931	32.14
598.125	32.11
598.319	32.37
598.514	32.33
598.708	32.41
598.903	32.44
599.097	32.51
599.291	32.46
599.486	32.48
599.68	32.61
599.874	32.7
600.069	32.64
600.263	32.59
600.457	32.73
600.651	32.68
600.846	32.8
601.04	32.93
601.234	33.02
601.428	33.09
601.622	33.26
601.817	33.12
602.011	33.14
602.205	33.17
602.399	33.18
602.593	33.11
602.787	33.3
602.981	33.34
603.175	33.45
603.369	33.36
603.563	33.35
603.757	33.29
603.951	33.36
604.145	33.31
604.339	33.39
604.533	33.34
604.727	33.28
604.921	33.14
605.115	33.09
605.309	33.11
605.502	33.18
605.696	33.09
605.89	33.1
606.084	33.05
606.278	33.08
606.471	33.05
606.665	33.11
606.859	33.03
607.053	32.96
607.246	32.78
607.44	32.74
607.634	32.76
607.827	32.73
608.021	32.72
608.214	32.64
608.408	32.65
608.602	32.56
608.795	32.6
608.989	32.51
609.182	32.58
609.376	32.48
609.569	32.35
609.763	32.3
609.956	32.27
610.15	32.22
610.343	32.17
610.537	32.09
610.73	31.97
610.923	32.02
611.117	31.94
611.31	31.94
611.504	31.84
611.697	31.73
611.89	31.55
612.083	31.46
612.277	31.35
612.47	31.36
612.663	31.33
612.856	31.27
613.05	31.19
613.243	31.12
613.436	31.08
613.629	30.97
613.822	30.86
614.015	30.78
614.209	30.7
614.402	30.63
614.595	30.69
614.788	30.71
614.981	30.6
615.174	30.42
615.367	30.4
615.56	30.25
615.753	30.11
615.946	30.09
616.139	30.2
616.332	30.18
616.525	30.2
616.718	30.3
616.911	30.21
617.103	30.15
617.296	30.04
617.489	29.95
617.682	29.9
617.875	29.98
618.067	30
618.26	29.92
618.453	29.98
618.646	29.9
618.838	29.88
619.031	29.85
619.224	29.88
619.417	29.8
619.609	29.76
619.802	29.56
619.994	29.44
620.187	29.38
620.38	29.33
620.572	29.35
620.765	29.56
620.957	29.55
621.15	29.42
621.342	29.31
621.535	29.25
621.727	29.11
621.92	29.01
622.112	29.02
622.305	29.13
622.497	29.07
622.69	29.01
622.882	28.96
623.074	29.1
623.267	29.01
623.459	29.01
623.651	29.06
623.844	29.2
624.036	29.18
624.228	29.11
624.42	29.09
624.613	29.09
624.805	28.99
624.997	28.93
625.189	28.94
625.381	28.97
625.574	28.91
625.766	28.91
625.958	28.84
626.15	28.83
626.342	28.8
626.534	28.87
626.726	28.9
626.918	28.97
627.11	28.9
627.302	28.89
627.494	28.85
627.686	28.78
627.878	28.71
628.07	28.81
628.262	28.79
628.454	28.74
628.646	28.76
628.838	28.74
629.029	28.64
629.221	28.57
629.413	28.51
629.605	28.36
629.797	28.22
629.989	28.23
630.18	28.27
630.372	28.23
630.564	28.26
630.755	28.44
630.947	28.47
631.139	28.33
631.33	28.23
631.522	28.32
631.714	28.13
631.905	27.99
632.097	28.02
632.289	28.06
632.48	27.9
632.672	27.91
632.863	27.89
633.055	27.81
633.246	27.74
633.438	27.61
633.629	27.66
633.821	27.65
634.012	27.58
634.203	27.52
634.395	27.57
634.586	27.43
634.777	27.4
634.969	27.45
635.16	27.5
635.351	27.44
635.543	27.47
635.734	27.49
635.925	27.43
636.117	27.39
636.308	27.48
636.499	27.47
636.69	27.34
636.881	27.43
637.073	27.5
637.264	27.37
637.455	27.33
637.646	27.48
637.837	27.44
638.028	27.29
638.219	27.38
638.41	27.35
638.601	27.21
638.792	27.27
638.983	27.39
639.174	27.33
639.365	27.36
639.556	27.29
639.747	27.14
639.938	27.01
640.129	26.97
640.32	26.89
640.511	26.93
640.701	26.98
640.892	26.9
641.083	26.89
641.274	26.92
641.465	26.86
641.655	26.63
641.846	26.62
642.037	26.54
642.228	26.46
642.418	26.44
642.609	26.62
642.8	26.73
642.99	26.7
643.181	26.7
643.372	26.78
643.562	26.65
643.753	26.55
643.943	26.56
644.134	26.5
644.324	26.43
644.515	26.46
644.705	26.43
644.896	26.31
645.086	26.24
645.277	26.2
645.467	26.12
645.658	26.06
645.848	26.05
646.038	26.05
646.229	25.97
646.419	25.95
646.61	25.93
646.8	25.96
646.99	25.88
647.18	25.88
647.371	25.77
647.561	25.75
647.751	25.64
647.941	25.66
648.132	25.62
648.322	25.7
648.512	25.73
648.702	25.76
648.892	25.81
649.082	25.76
649.272	25.52
649.462	25.34
649.653	25.2
649.843	25.17
650.033	25.13
650.223	25.22
650.413	25.35
650.603	25.45
650.793	25.42
650.983	25.37
651.172	25.31
651.362	25.11
651.552	25.02
651.742	24.83
651.932	24.79
652.122	24.8
652.312	24.88
652.502	24.8
652.691	24.76
652.881	24.74
653.071	24.66
653.261	24.49
653.45	24.37
653.64	24.47
653.83	24.22
654.019	24.07
654.209	24.06
654.399	23.88
654.588	23.6
654.778	23.58
654.968	23.51
655.157	23.31
655.347	23.3
655.536	23.14
655.726	23.03
655.915	22.78
656.105	22.58
656.294	22.36
656.484	22.23
656.673	22.11
656.863	22.04
657.052	21.85
657.241	21.61
657.431	21.39
657.62	21.14
657.809	20.85
657.999	20.7
658.188	20.57
658.377	20.46
658.567	20.35
658.756	20.23
658.945	20.12
659.134	19.9
659.324	19.65
659.513	19.43
659.702	19.24
659.891	19.05
660.08	18.98
660.269	18.87
660.458	18.67
660.648	18.46
660.837	18.25
661.026	18.08
661.215	17.91
661.404	17.69
661.593	17.52
661.782	17.28
661.971	17.03
662.16	16.84
662.349	16.62
662.538	16.41
662.726	16.34
662.915	16.14
663.104	15.88
663.293	15.79
663.482	15.74
663.671	15.6
663.86	15.42
664.048	15.28
664.237	15.16
664.426	14.94
664.615	14.78
664.803	14.7
664.992	14.51
665.181	14.36
665.369	14.21
665.558	14.05
665.747	13.88
665.935	13.86
666.124	13.83
666.312	13.73
666.501	13.61
666.69	13.41
666.878	13.3
667.067	13.05
667.255	13.09
667.444	13.17
667.632	13.25
667.82	13.17
668.009	13.11
668.197	12.94
668.386	12.79
668.574	12.76
668.762	12.71
668.951	12.62
669.139	12.53
669.327	12.39
669.516	12.37
669.704	12.31
669.892	12.36
670.08	12.34
670.269	12.29
670.457	12.09
670.645	11.92
670.833	11.93
671.021	11.87
671.21	12.02
671.398	12.26
671.586	12.43
671.774	12.34
671.962	12.36
672.15	12.26
672.338	12.06
672.526	12.08
672.714	12
672.902	12.03
673.09	12.12
673.278	12.3
673.466	12.32
673.654	12.48
673.842	12.49
674.03	12.43
674.218	12.34
674.405	12.28
674.593	12.25
674.781	12.3
674.969	12.34
675.157	12.43
675.344	12.69
675.532	12.76
675.72	12.84
675.908	12.9
676.095	12.74
676.283	12.67
676.471	12.91
676.658	13.02
676.846	13.11
677.033	13.42
677.221	13.53
677.409	13.46
677.596	13.52
677.784	13.55
677.971	13.6
678.159	13.69
678.346	13.78
678.534	13.95
678.721	14.23
678.909	14.35
679.096	14.5
679.283	14.79
679.471	14.99
679.658	14.98
679.846	15.16
680.033	15.31
680.22	15.29
680.408	15.2
680.595	15.41
680.782	15.45
680.969	15.62
681.157	15.85
681.344	16.06
681.531	16.11
681.718	16.36
681.905	16.59
682.093	16.83
682.28	17
682.467	17.43
682.654	17.59
682.841	17.71
683.028	17.8
683.215	18.2
683.402	18.3
683.589	18.53
683.776	18.95
683.963	19.27
684.15	19.5
684.337	19.78
684.524	20.01
684.711	20.34
684.898	20.64
685.085	20.93
685.271	21.38
685.458	21.88
685.645	21.99
685.832	22.39
686.019	22.8
686.205	23.12
686.392	23.49
686.579	24.1
686.766	24.55
686.952	24.88
687.139	25.36
687.326	25.71
687.512	26.03
687.699	26.47
687.886	26.97
688.072	27.35
688.259	27.82
688.445	28.53
688.632	28.83
688.818	29.47
689.005	30.08
689.191	30.61
689.378	30.95
689.564	31.63
689.751	32.03
689.937	32.45
690.124	32.97
690.31	33.35
690.496	33.77
690.683	34.41
690.869	34.89
691.055	35.24
691.242	35.83
691.428	36.54
691.614	36.89
691.8	37.72
691.987	38.49
692.173	39.17
692.359	39.71
692.545	40.45
692.731	40.86
692.918	41.56
693.104	42.3
693.29	42.72
693.476	43.31
693.662	43.83
693.848	44.4
694.034	44.53
694.22	45.08
694.406	45.82
694.592	46.47
694.778	47.04
694.964	47.85
695.15	48.55
695.336	48.64
695.522	49.31
695.708	49.69
695.894	50.1
696.08	50.55
696.265	51.17
696.451	51.6
696.637	52.06
696.823	52.56
697.009	52.92
697.194	53.35
697.38	53.7
697.566	54.25
697.751	54.97
697.937	55.85
698.123	56.56
698.308	57.11
698.494	57.67
698.68	57.99
698.865	58.38
699.051	58.86
699.236	59.07
699.422	59.32
699.607	59.55
699.793	59.72
699.978	59.86
700.164	60.28
700.349	60.67
700.535	60.97
700.72	61.25
700.906	61.77
701.091	62.12
701.276	62.55
701.462	63.22
701.647	63.73
701.832	63.82
702.018	64.23
702.203	64.45
702.388	64.31
702.573	64.46
702.759	64.93
702.944	65.01
703.129	65
703.314	65.58
703.499	65.67
703.684	65.64
703.87	66.35
704.055	66.9
704.24	66.92
704.425	67.72
704.61	68.37
704.795	68.31
704.98	68.36
705.165	68.5
705.35	68.61
705.535	69.01
705.72	69.42
705.905	69.99
706.09	70.58
706.275	70.62
706.459	70.08
706.644	70.2
706.829	70.04
707.014	69.84
707.199	69.78
707.384	70.56
707.568	70.38
707.753	70.96
707.938	71.37
708.123	71.72
708.307	71.67
708.492	72.26
708.677	72.36
708.861	72.52
709.046	72.46
709.231	72.87
709.415	72.89
709.6	72.63
709.784	72.56
709.969	72.9
710.153	72.81
710.338	72.75
710.522	73
710.707	73.4
710.891	73.33
711.076	73.2
711.26	73.07
711.445	73.35
711.629	73.21
711.813	73.51
711.998	74.09
712.182	74.22
712.366	74.58
712.551	75.38
712.735	75.46
712.919	75.2
713.103	75.7
713.288	75.25
713.472	74.7
713.656	75.18
713.84	75.49
714.024	76.07
714.208	76.17
714.393	76.63
714.577	76.64
714.761	76.62
714.945	76.05
715.129	76.13
715.313	75.71
715.497	75.66
715.681	76.12
715.865	76.2
716.049	76.28
716.233	76.53
716.417	76.47
716.601	76.19
716.785	76.13
716.968	76.43
717.152	76.82
717.336	77.23
717.52	76.96
717.704	77.63
717.888	77.8
718.071	78.09
718.255	77.72
718.439	77.98
718.622	77.86
718.806	78.48
718.99	77.87
719.174	77.79
719.357	77.91
719.541	77.86
719.724	77.34
719.908	78.29
720.092	78.87
720.275	79.36
720.459	79.28
720.642	79.15
720.826	78.3
721.009	78.17
721.193	77.82
721.376	78.24
721.559	78.69
721.743	79.24
721.926	79.32
722.11	79.71
722.293	78.88
722.476	78.85
722.66	78.64
722.843	78.7
723.026	78.19
723.21	78.84
723.393	79.13
723.576	79.29
723.759	78.57
723.942	78.97
724.126	78.98
724.309	78.72
724.492	78.51
724.675	79.47
724.858	79.63
725.041	80.18
725.224	80.36
725.407	80.67
725.59	80.73
725.774	80.32
725.957	79.42
726.14	79.54
726.322	80.11
726.505	79.67
726.688	80.57
726.871	80.95
727.054	81.03
727.237	80.52
727.42	80.91
727.603	80.88
727.786	81.09
727.968	81.09
728.151	81.48
728.334	81.57
728.517	81.09
728.699	81.44
728.882	81.45
729.065	81.8
729.248	82.13
729.43	82.63
729.613	82.94
729.796	83.25
729.978	82.79
730.161	82.31
730.343	82.41
730.526	82.65
730.708	82.03
730.891	82.17
731.073	82.42
731.256	82.14
731.438	81.76
731.621	82.6
731.803	82.24
731.986	82.36
732.168	81.95
732.35	82.35
732.533	82.57
732.715	83.04
732.898	82.91
733.08	83.53
733.262	83.23
733.444	82.68
733.627	82.82
733.809	83.27
733.991	84.11
734.173	83.57
734.355	83.49
734.538	84.05
734.72	84
734.902	83.89
735.084	85
735.266	85.3
735.448	84.93
735.63	85.18
735.812	85.2
735.994	85.13
736.176	85.63
736.358	85.49
736.54	85.79
736.722	85.16
736.904	84.85
737.086	84
737.268	84.69
737.45	84.77
737.632	84.97
737.814	84.98
737.995	86.27
738.177	85.99
738.359	85.2
738.541	85.57
738.723	86
738.904	85.54
739.086	85.58
739.268	85.68
739.449	85.4
739.631	84.89
739.813	84.92
739.994	85.2
740.176	85.95
740.358	86.05
740.539	86.61
740.721	86.71
740.902	87.57
741.084	86.76
741.265	86.12
741.447	86.54
741.628	86.91
741.81	85.49
741.991	86.42
742.172	87.78
742.354	88.06
742.535	87.2
742.717	87.45
742.898	87.52
743.079	87.63
743.261	87.92
743.442	88.33
743.623	88.92
743.804	88.99
743.986	88.87
744.167	87.44
744.348	87.18
744.529	87.48
744.71	86.63
744.891	85.34
745.073	85.27
745.254	85.09
745.435	84.37
745.616	83.69
745.797	84.56
745.978	84.69
746.159	84.51
746.34	84.51
746.521	87.38
746.702	86.55
746.883	86.03
747.064	86.88
747.245	87.34
747.426	85.68
747.606	86.52
747.787	87.8
747.968	87.72
748.149	87.9
748.33	88.28
748.51	88.18
748.691	88.19
748.872	88.07
749.053	86.84
749.233	85.79
749.414	85.72
749.595	84.53
749.775	84.08
749.956	85.05
750.137	86.12
750.317	86.67
750.498	87.47
750.678	87.49
750.859	87.19
751.04	85.92
751.22	85.34
751.4	84.83
751.581	84.82
751.761	85.19
751.942	86.69
752.122	86.61
752.303	86.67
752.483	86.8
752.663	86.49
752.844	84.65
753.024	85.11
753.204	84.82
753.385	83.71
753.565	83.15
753.745	84.58
753.925	84.39
754.106	84.3
754.286	85.28
754.466	85.54
754.646	85.42
754.826	84.88
755.006	84.36
755.187	85.06
755.367	85.7
755.547	84.76
755.727	85.61
755.907	86.08
756.087	86.06
756.267	85.89
756.447	87.06
756.627	84.89
756.807	86.38
756.987	85.62
757.167	85.55
757.346	84.75
757.526	85.05
757.706	85.28
757.886	86.29
758.066	86
758.246	86.69
758.425	87.63
758.605	85.48
758.785	85.23
758.965	86.22
759.144	84.89
759.324	86
759.504	86.92
759.683	87.11
759.863	85.25
760.043	84.38
760.222	84.62
760.402	84.85
760.581	84.71
760.761	86.14
760.94	87.11
761.12	85.97
761.299	86.3
761.479	85.91
761.658	84.57
761.838	85.16
762.017	85.69
762.197	86.01
762.376	85.5
762.555	86.27
762.735	85.82
762.914	85.15
763.093	84.4
763.273	84.4
763.452	85.1
763.631	85.5
763.81	85.19
763.99	84.75
764.169	85.26
764.348	83.2
764.527	81.81
764.706	82.37
764.885	83.56
765.064	82.25
765.243	83.28
765.423	85.35
765.602	85.13
765.781	83.57
765.96	83.96
766.139	83.18
766.318	82.74
766.497	81.8
766.676	82.41
766.854	82.43
767.033	82.36
767.212	81.61
767.391	83.52
767.57	83.85
767.749	83.84
767.928	84.42
768.106	83.63
768.285	81.37
768.464	81.72
768.643	81.21
768.821	80.95
769	82.21
769.179	82.12
769.357	79.63
769.536	79.24
769.715	78.01
769.893	78.06
770.072	78.24
770.25	78.96
770.429	81.81
770.607	83.18
770.786	82.8
770.964	84.03
771.143	84.85
771.321	84.51
771.5	85.51
771.678	85.29
771.857	85.4
772.035	84.42
772.213	83.35
772.392	82.02
772.57	82.03
772.748	81.55
772.927	81.61
773.105	80.17
773.283	79.69
773.461	80.83
773.64	83.36
773.818	83.2
773.996	85.94
774.174	85.23
774.352	82.34
774.531	77.79
774.709	79.22
774.887	77.27
775.065	77.94
775.243	80.32
775.421	82.09
775.599	83.66
775.777	81.48
775.955	79.77
776.133	79.05
776.311	78.93
776.489	76.85
776.667	77.77
776.844	79.19
777.022	79.6
777.2	78.57
777.378	78.68
777.556	79.31
777.734	82.27
777.911	82.89
778.089	82.88
778.267	82.7
778.445	81.45
778.622	79.11
778.8	76.25
778.978	77.48
779.155	75.59
779.333	77.36
779.511	77.5
779.688	80.09
779.866	75.99
780.043	74.66
780.221	74.34
780.398	72.96
780.576	71.63
780.753	75.07
780.931	77.52
781.108	77.39
781.286	77.69
781.463	76.46
781.64	74.21
781.818	73.24
781.995	73.02
782.172	74.49
782.35	75.9
782.527	78.28
782.704	79.91
782.882	80.58
783.059	79.58
783.236	83.24
783.413	82.27
783.59	82.96
783.768	82.68
783.945	83.87
784.122	80.29
784.299	80.67
784.476	78.52
784.653	77.4
784.83	76.6
785.007	72.97
785.184	73.79
785.361	73.41
785.538	76.88
785.715	76.77
785.892	79.57
786.069	81.77
786.246	81.86
786.423	80.27
786.6	81.7
786.776	82.78
786.953	79.36
787.13	82.18
787.307	81.65
787.484	80.27
787.66	78.33
787.837	79.18
788.014	77.19
788.191	75.72
788.367	71.98
788.544	73.56
788.721	72.15
788.897	71.64
789.074	73.64
789.25	76.36
789.427	75
789.603	76.87
789.78	76.56
789.956	72.08
790.133	70.72
790.309	72.36
790.486	72.64
790.662	73.31
790.839	74.65
791.015	76.08
791.192	75.2
791.368	76.39
791.544	74.03
791.721	76.46
791.897	76.97
792.073	75.06
792.249	68.91
792.426	70.79
792.602	71.55
792.778	70.51
792.954	72.08
793.13	71.99
793.307	66.55
793.483	61.44
793.659	67.1
793.835	68.96
794.011	69.46
794.187	76.06
794.363	77.61
794.539	73.24
794.715	68.85
794.891	72.33
795.067	73
795.243	76.44
795.419	75.56
795.595	73.02
795.771	70.38
795.947	71.07
796.122	67.26
796.298	69.15
796.474	71.29
796.65	70.4
796.826	69.39
797.001	67.46
797.177	60.18
797.353	63.67
797.529	67.15
797.704	64.86
797.88	67.65
798.056	66.58
798.231	61.59
798.407	63.07
798.582	64.87
798.758	69.05
798.934	75.83
799.109	76.9
799.285	72.94
799.46	72.36
799.636	69.23
799.811	66.9
799.986	67.06
800.162	66.94
800.337	67.33
800.513	63.57
800.688	67.32
800.863	73.42
801.039	69.52
801.214	65.94
801.389	76.43
801.565	77.15
801.74	71.32
801.915	79.99
802.09	80.97
802.265	76.78
802.441	67.29
802.616	69.96
802.791	68.85
802.966	70.24
803.141	72.32
803.316	72.8
803.491	72.87
803.666	74.64
803.841	73.48
804.016	64.52
804.191	74.18
804.366	73.08
804.541	72.12
804.716	73.03
804.891	67.68
805.066	65.6
805.241	64.59
805.416	61.03
805.591	62.8
805.765	73.96
805.94	75.8
806.115	71.9
806.29	72.23
806.464	69.3
806.639	65.12
806.814	62.35
806.989	64.99
807.163	75.11
807.338	79.71
807.512	81.09
807.687	65.38
807.862	73.88
808.036	64.66
808.211	65.81
808.385	67.58
808.56	79.86
808.734	71.02
808.909	70.65
809.083	61.27
809.258	67.4
809.432	68.07
809.606	69.47
809.781	70.64
809.955	76.09
810.13	72.95
810.304	68.32
810.478	58.91
810.652	64.63
810.827	64.81
811.001	59.84
811.175	59.88
811.349	65.03
811.524	58.88
811.698	54.92
811.872	56.94
812.046	60.23
812.22	65.27
812.394	60.09
812.568	65.49
812.742	73.11
812.916	76.88
813.09	75
813.264	86.7
813.438	83.92
813.612	67.21
813.786	63.62
813.96	66.92
814.134	64.55
814.308	66.11
814.482	73.75
814.656	65.45
814.83	66.66
815.003	64.09
815.177	56.76
815.351	50.96
815.525	51.35
815.698	43.62
815.872	43.04
816.046	30.62
816.219	37.15
816.393	51.25
816.567	54.65
816.74	50.95
816.914	64.12
817.088	71.34
817.261	71.13
817.435	77.34
817.608	72.18
817.782	67.34
817.955	70.17
818.129	58.92
818.302	59.69
818.475	73.52
818.649	79.63
818.822	67.1
818.996	89.2
819.169	93.62
819.342	76.82
819.516	86.55
819.689	88.35
819.862	66.66
820.035	57.91
820.209	59.14
820.382	48.77
820.555	48.06
820.728	42.95
820.901	43.74
821.075	41.65
821.248	47.38
821.421	46.54
821.594	54.53
821.767	69.52
821.94	81.29
822.113	58.67
822.286	50.29
822.459	60.3
822.632	55.47
822.805	45.08
822.978	55.71
823.151	56.77
823.324	40.73
823.496	20.35
823.669	28.29
823.842	34.24
824.015	20.26
824.188	12.2
824.361	21.33
824.533	25.39
824.706	32.74
824.879	54.21
825.051	66.25
825.224	71.29
825.397	63.21
825.569	53.52
825.742	55.88
825.915	52.66
826.087	51.91
826.26	51.38
826.432	53.72
826.605	50.23
826.777	49.83
826.95	54.15
827.122	52.25
827.295	52.51
827.467	51.64
827.64	32.7
827.812	24.2
827.984	39.99
828.157	38.05
828.329	16.56
828.501	28.78
828.674	48.8
828.846	31.35
829.018	39.95
829.19	32.65
829.363	50.88
829.535	52.47
829.707	60.1
829.879	54.22
830.051	61.23
830.223	52.5
830.395	32.85
830.568	15.09
830.74	3.89
830.912	24.97
831.084	18.07
831.256	23.67
831.428	40.21
831.6	50.44
831.772	27.52
831.943	18.11
832.115	25.41
832.287	35.66
832.459	41.65
832.631	49.64
832.803	74.72
832.975	86.97
833.146	83.98
833.318	68.57
833.49	86.76
833.662	52.52
833.833	40.36
834.005	29.89
834.177	45.7
834.348	40.92
834.52	54.16
834.692	55.4
834.863	43.59
835.035	31.55
835.206	-8.59
835.378	-3.61
835.549	-10.81
835.721	7.27
835.892	-3.61
836.064	12.68
836.235	29.42
836.407	61.83
836.578	39.98
836.749	80.1
836.921	49.22
837.092	13.67
837.264	-16.16
837.435	-10.56
837.606	9.61
837.777	28.61
837.949	35.93
838.12	39.26
838.291	46.78
838.462	34.23
838.633	26.93
838.805	22.53
838.976	37.74
839.147	-11.5
839.318	-10.87
839.489	-33.94
839.66	1.05
839.831	26.43
840.002	66.55
840.173	56.7
840.344	103.09
840.515	94.55
840.686	32.41
840.857	-22.01
841.028	-10.33
841.199	-39.89
841.369	-32.94
841.54	0.84
841.711	23.71
841.882	34.91
842.053	26.59
842.223	17.94
842.394	-1.08
842.565	-12
842.736	14.1
842.906	22.4
843.077	36.46
843.248	70.03
843.418	70.62
843.589	53.5
843.759	115.51
843.93	93.36
844.101	49.16
844.271	52.86
844.442	44.47
844.612	41.5
844.783	25.7
844.953	-2.33
845.123	-3.47
845.294	37.73
845.464	-17.91
845.635	39.13
845.805	89.79
845.975	62.9
846.146	22.48
846.316	7.99
846.486	26.19
846.656	41.22
846.827	33.58
846.997	38.98
847.167	49.46
847.337	15.69
847.507	-18.77
847.677	-6.69
847.848	31.45
848.018	38.33
848.188	41.2
848.358	18.98
848.528	-1.08
848.698	-47.58
848.868	-124.97
849.038	-215.55
849.208	-56.54
849.378	-14.63
849.548	12.64
849.718	16.08
849.887	39.16
850.057	29.8
850.227	21.56
850.397	7.62
850.567	-35.95
850.737	-93.91
850.906	-626.25
851.076	-567.19
851.246	-276.44
851.415	-6.58
851.585	-8.86
851.755	-17.4
851.924	12.58
852.094	8.2
852.264	-70.35
852.433	-568.27
852.603	-66.83
852.772	-32.76
852.942	-46.02
853.111	-36.89
853.281	-16.86
853.45	5.46
853.62	-29.04
853.789	-0.36
853.959	42.94
854.128	35.13
854.297	3.85
854.467	9.74
854.636	42.39
854.805	42.17
854.975	47.65
855.144	48.49
855.313	172.03
855.482	54.74
855.652	0
855.821	-49.71
855.99	21.96
856.159	20.7
856.328	21.08
856.497	1.04
856.667	27.33
856.836	22.68
857.005	15.67
857.174	-18.92
857.343	21.08
857.512	39.55
857.681	7.35
857.85	-34.98
858.019	-3.06
858.188	-14.22
858.356	-20.02
858.525	-37.15
858.694	-4.75
858.863	-10.02
859.032	-21.28
859.201	-58.04
859.369	20.66
859.538	45.32
859.707	6.46
859.876	30.28
860.044	34.51
860.213	41.87
860.382	22.24
860.55	33.82
860.719	49.58
860.888	60.13
861.056	27.67
861.225	22.82
861.393	66.2
861.562	36.18
861.73	-62.11
861.899	-119.37
862.067	-31.03
862.236	-12.8
862.404	-28.53
862.572	89.4
862.741	87.15
862.909	49.89
863.078	23.12
863.246	3.94
863.414	-4.06
863.582	-40.37
863.751	-52.5
863.919	-54.58
864.087	24.05
864.255	5.97
864.424	-123.11
864.592	38.45
864.76	12.45
864.928	31.2
865.096	-16.24
865.264	64.69
865.432	238.64
865.6	352.5
865.768	5.96
865.936	-28.2
866.104	-24.72
866.272	-150
866.44	-302.36
866.608	327.72
866.776	163.49
866.944	1534.88
867.112	-252.97
867.28	-120.52
867.448	-53.57
867.615	0
867.783	10.55
867.951	14.03
868.119	46.99
868.286	63.52
868.454	10.4
868.622	60.14
868.789	131.95
868.957	1735.71
869.125	-631.58
869.292	36.86
869.46	-72.19
869.627	24.71
869.795	8.21
869.963	31.24
870.13	30.05
870.298	55.28
870.465	-4.16
870.632	-18.66
870.8	-3.34
870.967	-43.12
871.135	-104.37
871.302	-70.74
871.469	-100.88
871.637	-176.16
871.804	-83.3
871.971	-74.7
872.139	-318.14
872.306	7.89
872.473	-8.64
872.64	-47.64
872.807	50.65
872.975	77.29
873.142	-21.82
873.309	1175.68
873.476	0
873.643	40.32
873.81	30.28
873.977	75.55
874.144	98.77
874.311	77.65
874.478	-16.27
874.645	-1.56
874.812	-7.24
874.979	17.7
875.146	-4.35
875.313	-3.27
875.48	19.7
875.647	-1.73
875.813	-52.39
875.98	-30.49
876.147	-51.12
876.314	-113.11
876.481	758.68
876.647	-482.02
876.814	85.49
876.981	222.69
877.147	93.46
877.314	64.29
877.481	71.03
877.647	48.85
877.814	-17.37
877.98	-62.83
878.147	-49.44
878.314	-24.86
878.48	-58.43
878.647	-4.5
878.813	20.78
878.979	35.64
879.146	2.4
879.312	7.56
879.479	-49.34
879.645	-120.64
879.811	-230.91
879.978	-471.76
880.144	-77.53
880.31	-43.53
880.477	-118.54
880.643	-212.32
880.809	-26.64
880.975	-63.13
881.142	-450
881.308	-5.27
881.474	47.9
881.64	28.54
881.806	32.02
881.972	66.35
882.138	81.34
882.304	44.09
882.47	-106.63
882.636	-619.67
882.802	-161.46
882.968	-70.34
883.134	-23.05
883.3	-44.83
883.466	-3.82
883.632	-0.22
883.798	-20.06
883.964	-18.29
884.129	42.16
884.295	58.57
884.461	17.69
884.627	-13.8
884.793	-42.54
884.958	-34.72
885.124	-96.72
885.29	-217.62
885.455	-330.58
885.621	-119.16
885.787	-205.91
885.952	-92.81
886.118	-71.78
886.283	-75.33
886.449	-130.17
886.614	-110.89
886.78	-242.31
886.945	786.89
887.111	-305.2
887.276	-363.07
887.442	-578.18
887.607	-274.53
887.773	-186.31
887.938	-208.36
888.103	-228.48
888.269	-223.19
888.434	-345.41
888.599	-196.21
888.764	-100.2
888.93	-55.24
889.095	-44.42
889.26	-94.92
889.425	-51.85
889.59	-50.36
889.756	-51.96
889.921	-25.13
890.086	30.33
890.251	30.46
890.416	-49.43
890.581	-851.61
890.746	208.93
890.911	433.76
891.076	184.96
891.241	-344.78
891.406	47.87
891.571	45.5
891.736	-77.06
891.901	-116.81
892.065	115.38
892.23	101.34
892.395	149.12
892.56	176.01
892.725	-243.75
892.889	-1119.51
893.054	-165.62
893.219	-66.78
893.384	-31.75
893.548	-62.58
893.713	-81.98
893.878	-56.07
