Data from Ofra_PS_T2_2A_0GT01_Reflection_1.txt Node
Date: Wed Jul 21 16:50:36 EDT 2021
User: Adam
Spectrometer: FLMT01687
Trigger mode: 0
Integration Time (sec): 1.100000E0
Scans to average: 2
Electric dark correction enabled: true
Nonlinearity correction enabled: false
Boxcar width: 2
XAxis mode: Wavelengths
Number of Pixels in Spectrum: 3648
>>>>>Begin Spectral Data<<<<<
179.494	441
179.716	491.29
179.937	454.08
180.158	419.06
180.38	580.78
180.601	220.03
180.823	97.25
181.044	33.77
181.265	228.86
181.486	77.01
181.708	83.66
181.929	-123.98
182.15	30.63
182.372	151.27
182.593	23.26
182.814	33.69
183.035	55.43
183.257	42.78
183.478	12.29
183.699	47.36
183.92	29.28
184.141	9.02
184.363	-25.95
184.584	-18.7
184.805	-8.86
185.026	24.47
185.247	23.45
185.468	15.01
185.689	9.74
185.91	6.02
186.132	-9.58
186.353	9.24
186.574	64.44
186.795	74.55
187.016	62.16
187.237	33.71
187.458	12.31
187.679	-3.46
187.9	-11.11
188.121	8.97
188.342	14.7
188.563	45.26
188.784	57.46
189.005	52.2
189.226	56.97
189.447	77.76
189.667	-25.85
189.888	-141.5
190.109	-708.12
190.33	-394.35
190.551	-617.92
190.772	-87.71
190.993	-17
191.214	51.91
191.434	46.3
191.655	46.84
191.876	21.45
192.097	-47.6
192.318	-127.72
192.538	-157.26
192.759	-109.19
192.98	-35.72
193.201	-0.5
193.421	38
193.642	37.78
193.863	35.47
194.083	14.68
194.304	9.57
194.525	2.08
194.745	-38.27
194.966	-39.6
195.187	-32.84
195.407	-55.41
195.628	-95.16
195.848	-64.17
196.069	-16.09
196.29	0.9
196.51	-17.6
196.731	-15.26
196.951	-6.49
197.172	-38.42
197.392	-42.66
197.613	-39.96
197.833	-53.45
198.054	-67.35
198.274	-34.66
198.495	-53.4
198.715	-19.18
198.936	-47.63
199.156	-14.88
199.377	-65.14
199.597	-48.44
199.817	-57.57
200.038	12.05
200.258	-47.19
200.479	-53.38
200.699	-58.17
200.919	-28.9
201.14	-59.84
201.36	-47.9
201.58	18.59
201.801	41.58
202.021	35.36
202.241	26.12
202.461	18.94
202.682	-44.29
202.902	-142.72
203.122	-86.22
203.342	-54.93
203.563	-5.4
203.783	20.6
204.003	43.32
204.223	15.43
204.443	40.37
204.663	27.8
204.884	26.13
205.104	29.39
205.324	49.97
205.544	46.33
205.764	34.23
205.984	28.76
206.204	27.3
206.424	19.56
206.644	-25.36
206.864	-21.85
207.084	-57.31
207.304	-39.94
207.525	-58.83
207.745	14.77
207.964	62.02
208.184	26.9
208.404	15.54
208.624	-18.21
208.844	-31.8
209.064	-218.95
209.284	-259.39
209.504	-177.72
209.724	-45.42
209.944	-31.14
210.164	0.28
210.384	13.49
210.604	-3.4
210.823	-30.25
211.043	-14.89
211.263	-27.24
211.483	-23.95
211.703	-22.01
211.922	-28.8
212.142	10.07
212.362	48.92
212.582	36.8
212.801	16.18
213.021	19.51
213.241	-24.22
213.461	-60.68
213.68	-58.1
213.9	-61.19
214.12	-59.37
214.339	-67.62
214.559	-57.88
214.779	-19.96
214.998	10.15
215.218	5.42
215.438	19.13
215.657	18.09
215.877	13.21
216.096	18.13
216.316	13.67
216.535	-11.43
216.755	-17.91
216.974	-134
217.194	-170.35
217.413	-116.66
217.633	-96.78
217.852	-146.69
218.072	-23.16
218.291	-1.08
218.511	6.89
218.73	-16.31
218.95	-10.3
219.169	-21.98
219.389	-44.17
219.608	-25.98
219.827	-13.19
220.047	7.27
220.266	32.69
220.485	30.44
220.705	32.68
220.924	27.15
221.143	39.89
221.363	3.38
221.582	11.78
221.801	7.36
222.021	15.72
222.24	-45.57
222.459	31.11
222.678	18.28
222.897	35.25
223.117	18.02
223.336	6.76
223.555	-17.49
223.774	17.9
223.993	-2.68
224.213	6.62
224.432	-0.53
224.651	29.28
224.87	3.04
225.089	1.25
225.308	-10.65
225.527	13.12
225.746	10.02
225.965	12.53
226.184	17.97
226.404	33.06
226.623	4.45
226.842	-5.2
227.061	-5.03
227.28	-4.07
227.499	-32.56
227.718	-12.51
227.936	-18.07
228.155	-17.06
228.374	-8.9
228.593	17.82
228.812	25.13
229.031	21.99
229.25	-6.27
229.469	-14.5
229.688	-21.57
229.907	-15.71
230.125	-13.78
230.344	25.07
230.563	14.59
230.782	18.56
231.001	-17.44
231.22	-25.37
231.438	-28.19
231.657	-17.26
231.876	-34.9
232.095	17.62
232.313	39.96
232.532	36.8
232.751	36.03
232.969	43.27
233.188	-12.9
233.407	7.76
233.625	18.17
233.844	31.76
234.063	38.42
234.281	41.3
234.5	31.32
234.719	21.42
234.937	2.12
235.156	-0.64
235.374	10.97
235.593	14.2
235.811	5.12
236.03	27.15
236.249	26.56
236.467	2.1
236.686	-0.63
236.904	15.87
237.123	-1.11
237.341	-10.22
237.559	1.37
237.778	-9.62
237.996	-29.99
238.215	2.72
238.433	24.24
238.652	20.11
238.87	15.85
239.088	17.99
239.307	17.75
239.525	2.37
239.743	-27.51
239.962	-16.75
240.18	-29.4
240.398	-44.9
240.617	-33.21
240.835	1.24
241.053	-11.65
241.271	27.81
241.49	33.56
241.708	23.39
241.926	5.49
242.144	27.81
242.363	-14.56
242.581	-35.47
242.799	-26.71
243.017	-6.77
243.235	-18.31
243.453	-7.75
243.672	-13.5
243.89	-5.76
244.108	-3.12
244.326	7.3
244.544	18.8
244.762	24.06
244.98	28.49
245.198	17.49
245.416	11.75
245.634	-8.5
245.852	-15.3
246.07	-10.35
246.288	1.3
246.506	-16.19
246.724	6.46
246.942	25.7
247.16	35.84
247.378	44.76
247.596	51.13
247.814	54.5
248.032	42.15
248.25	27.1
248.468	4.34
248.685	6.95
248.903	21.55
249.121	10.06
249.339	-9.67
249.557	-5.33
249.775	-11.65
249.992	-75.59
250.21	-59.09
250.428	-33.65
250.646	-72.28
250.863	-80.13
251.081	-38.78
251.299	-52.72
251.517	-43.51
251.734	0.06
251.952	13.71
252.17	2.54
252.387	6.96
252.605	-3.66
252.823	9.5
253.04	10.97
253.258	32.51
253.475	48.31
253.693	61.23
253.911	41.81
254.128	52.47
254.346	45.48
254.563	19.14
254.781	2.97
254.998	6.67
255.216	-4.65
255.433	1.96
255.651	58.5
255.868	57.72
256.086	54.94
256.303	60.33
256.521	40.25
256.738	19.58
256.956	23.08
257.173	15.43
257.39	-5.77
257.608	-6.14
257.825	27.35
258.043	7.02
258.26	7.07
258.477	39.73
258.695	21.31
258.912	-27.15
259.129	17.8
259.346	-5.71
259.564	-51.93
259.781	-48.39
259.998	8.45
260.216	-15.55
260.433	10.44
260.65	18.99
260.867	53.06
261.084	26.19
261.302	42.59
261.519	46.67
261.736	27.87
261.953	-5.98
262.17	11.97
262.387	-12.21
262.604	-34.85
262.822	-38.06
263.039	-22.12
263.256	-60.05
263.473	-49.14
263.69	-18.11
263.907	18.88
264.124	28.84
264.341	30.13
264.558	30.65
264.775	41.14
264.992	28.32
265.209	12.55
265.426	38.48
265.643	44.47
265.86	37.43
266.077	13.8
266.294	7.24
266.51	-22.61
266.727	-37.17
266.944	-33.06
267.161	-3.26
267.378	-8.05
267.595	6.67
267.812	3.84
268.028	-2.42
268.245	20.24
268.462	27.17
268.679	27.64
268.896	39.44
269.112	28.88
269.329	20.61
269.546	23.12
269.763	17.18
269.979	28.5
270.196	39.25
270.413	10.1
270.629	-9.87
270.846	-6.1
271.063	-21.68
271.279	-29.24
271.496	-3.58
271.712	25.99
271.929	25.33
272.146	18.43
272.362	0.61
272.579	10.05
272.795	-6.04
273.012	2.44
273.228	2.32
273.445	21.49
273.661	7.06
273.878	0.35
274.094	-3.69
274.311	-13.8
274.527	13.74
274.744	20.59
274.96	6.61
275.177	8.13
275.393	18.12
275.609	13.84
275.826	20.84
276.042	38.59
276.259	42.23
276.475	44.31
276.691	51.18
276.908	33.18
277.124	34
277.34	26.88
277.557	22.54
277.773	8.1
277.989	12.53
278.205	12.22
278.422	18.7
278.638	10.94
278.854	14.61
279.07	10
279.286	-4.98
279.503	-23.39
279.719	-21.32
279.935	-35.45
280.151	-43.5
280.367	-29.88
280.583	-47.6
280.799	-40.24
281.016	-60.16
281.232	-19.27
281.448	-16.88
281.664	5.03
281.88	-17.96
282.096	5.37
282.312	-8.98
282.528	0.55
282.744	2.9
282.96	21.27
283.176	15.46
283.392	18.79
283.608	14.43
283.824	13.32
284.04	27.67
284.256	33.16
284.471	23.11
284.687	22.64
284.903	33.78
285.119	35.45
285.335	16.22
285.551	41.14
285.767	18.21
285.982	9.37
286.198	-11.38
286.414	24.71
286.63	9.36
286.846	22.11
287.061	11.35
287.277	30.83
287.493	4.22
287.709	23.51
287.924	27.1
288.14	52.12
288.356	47.87
288.571	72.83
288.787	51.97
289.003	48.71
289.218	37.48
289.434	18.81
289.65	7.1
289.865	9.83
290.081	24.33
290.296	28.19
290.512	45.72
290.727	35.16
290.943	25.96
291.159	7.87
291.374	0.35
291.59	-3.8
291.805	9.66
292.021	20.24
292.236	31.16
292.451	49.05
292.667	38.3
292.882	40.67
293.098	26.14
293.313	28.85
293.529	-4.14
293.744	-6.75
293.959	-20.53
294.175	1.16
294.39	16.28
294.605	37.65
294.821	52.72
295.036	59.93
295.251	60.33
295.467	53.02
295.682	37.73
295.897	6.13
296.112	3.14
296.328	-5.98
296.543	-44.02
296.758	-35.57
296.973	-16.76
297.188	6.44
297.404	-3.96
297.619	4.37
297.834	-9.35
298.049	-23.35
298.264	-36.55
298.479	-11.1
298.694	-10.07
298.909	1.99
299.125	17.49
299.34	13.46
299.555	5.65
299.77	16.5
299.985	-8.52
300.2	-48.8
300.415	-53.52
300.63	-39.68
300.845	-41.62
301.06	-36.55
301.275	-8.22
301.49	10.47
301.704	13.18
301.919	3.99
302.134	-12.66
302.349	-25.5
302.564	-76.12
302.779	-97.46
302.994	-84.05
303.209	-42.03
303.423	-14.07
303.638	39.91
303.853	12
304.068	13.94
304.283	26.34
304.497	28.43
304.712	15.98
304.927	22.32
305.142	14.07
305.356	13.05
305.571	-2.06
305.786	-17.08
306	-40.68
306.215	-39.89
306.43	-58.77
306.644	-40.5
306.859	19.11
307.074	20.57
307.288	-1.93
307.503	-18.83
307.717	-15.33
307.932	-40.05
308.147	-27.82
308.361	-4.83
308.576	-1.28
308.79	-35.81
309.005	-17.62
309.219	-7.18
309.434	-18.96
309.648	3.36
309.863	12.78
310.077	11.67
310.292	4.37
310.506	1.25
310.72	4.14
310.935	1.49
311.149	-0.25
311.364	-0.1
311.578	13.69
311.792	8.82
312.007	19.03
312.221	14.14
312.435	25.25
312.649	19.74
312.864	44.31
313.078	53.37
313.292	89.71
313.507	73.79
313.721	62.79
313.935	30.48
314.149	19.41
314.363	20.27
314.578	27.64
314.792	30.74
315.006	17.6
315.22	32.84
315.434	35.85
315.648	37.29
315.862	52.67
316.077	52.47
316.291	61.11
316.505	69.85
316.719	92.06
316.933	46.65
317.147	37.6
317.361	-22.73
317.575	-62.95
317.789	-98.06
318.003	-156.21
318.217	-107.32
318.431	-27.67
318.645	14.59
318.859	17.36
319.073	30.05
319.287	25.2
319.5	12.63
319.714	-9.61
319.928	-28.67
320.142	-53.66
320.356	-50.91
320.57	-30.87
320.784	-33.19
320.997	-40.78
321.211	-27.61
321.425	-49.17
321.639	-66.92
321.853	-31.28
322.066	-7.65
322.28	-8.32
322.494	6.56
322.707	6.76
322.921	8.6
323.135	7.28
323.349	20.12
323.562	11.95
323.776	16.96
323.989	-2.27
324.203	-20.16
324.417	-25.93
324.63	-44.45
324.844	-32.57
325.057	-15.86
325.271	-2.08
325.485	20.39
325.698	31.88
325.912	29.68
326.125	10.4
326.339	11.69
326.552	-14.84
326.766	-1.51
326.979	12.05
327.193	44.13
327.406	48.86
327.619	42.85
327.833	48.83
328.046	24.74
328.26	-20.49
328.473	-20.86
328.686	-27.55
328.9	-31.4
329.113	-3.35
329.326	8.75
329.54	27.77
329.753	16.62
329.966	15.16
330.179	-2.92
330.393	18.97
330.606	19.6
330.819	26.99
331.032	35.64
331.246	34.19
331.459	41.21
331.672	39.51
331.885	35.06
332.098	21.63
332.311	5.75
332.525	-17.35
332.738	-9.76
332.951	10.3
333.164	17.42
333.377	45.46
333.59	53.83
333.803	45.2
334.016	38.95
334.229	50.17
334.442	30.55
334.655	38.33
334.868	47.31
335.081	51.22
335.294	35.82
335.507	45.78
335.72	28.86
335.933	16.78
336.146	-1.09
336.359	-8.96
336.572	-33.71
336.785	-34.07
336.997	-31
337.21	-12.02
337.423	-14.6
337.636	-19.83
337.849	-20.5
338.062	-33.56
338.274	-28.69
338.487	-24.17
338.7	-6.19
338.913	-25.47
339.125	-7.93
339.338	-42.29
339.551	-35.84
339.763	-32.12
339.976	-13.18
340.189	-21.92
340.402	6.5
340.614	15.08
340.827	10.27
341.039	8.34
341.252	30.03
341.465	23.72
341.677	25.92
341.89	14.11
342.102	32.53
342.315	18
342.527	9.03
342.74	6.18
342.952	22.96
343.165	10.86
343.377	24.08
343.59	22.14
343.802	22.27
344.015	21.56
344.227	21.47
344.44	15.9
344.652	24.45
344.864	22.25
345.077	38.96
345.289	44.36
345.502	35.44
345.714	23.69
345.926	23.08
346.139	0.69
346.351	2.53
346.563	10.1
346.775	17.48
346.988	6.68
347.2	10.95
347.412	-27.02
347.624	-36.17
347.837	-54.94
348.049	-29.18
348.261	-16.15
348.473	7.13
348.685	5.83
348.897	5.46
349.11	-12.81
349.322	-24.15
349.534	-36.67
349.746	-23.81
349.958	-38.86
350.17	-26.68
350.382	3.16
350.594	13.57
350.806	21.32
351.018	29.8
351.23	0.05
351.442	-41.96
351.654	-45.13
351.866	-39.36
352.078	-35.44
352.29	20.17
352.502	22.53
352.714	14.89
352.926	-0.78
353.138	2.02
353.35	-8.37
353.561	0.56
353.773	-3.54
353.985	14.08
354.197	21.95
354.409	3.67
354.621	-9.77
354.832	6.07
355.044	-9.61
355.256	-14.45
355.468	1.75
355.679	7.87
355.891	8.72
356.103	9.18
356.314	20.32
356.526	28.32
356.738	21.36
356.949	4.03
357.161	20.13
357.373	14.7
357.584	9.59
357.796	18.41
358.008	17.44
358.219	8.69
358.431	0.98
358.642	9.89
358.854	12.86
359.065	7.16
359.277	3.28
359.488	3.39
359.7	-9.69
359.911	-25.77
360.123	-9.14
360.334	-12.55
360.546	-33.37
360.757	-45.85
360.969	-40.37
361.18	-44.99
361.391	-29.64
361.603	-24.57
361.814	-12.26
362.025	-2.19
362.237	-5.07
362.448	-10.56
362.659	10.39
362.871	8.13
363.082	-7.09
363.293	-14.8
363.504	-19.83
363.716	-36.28
363.927	-43.07
364.138	-47.71
364.349	-36.37
364.56	-15.21
364.772	-2.61
364.983	18.56
365.194	18.78
365.405	26.64
365.616	32.31
365.827	21.92
366.038	2.86
366.25	-0.12
366.461	-24.25
366.672	-15.15
366.883	7.68
367.094	24.78
367.305	33.3
367.516	33.26
367.727	14.54
367.938	-0.41
368.149	-17.94
368.36	-18.11
368.571	-18.94
368.781	-22.46
368.992	-26.82
369.203	-41.78
369.414	-59.89
369.625	-49.45
369.836	-37.11
370.047	-55.31
370.258	-42.53
370.468	-38.52
370.679	-52.5
370.89	-47.13
371.101	-25.63
371.312	-16.8
371.522	-3.38
371.733	9.9
371.944	20.12
372.155	9.9
372.365	7.15
372.576	8.45
372.787	9.35
372.997	-0.58
373.208	15.55
373.419	14.41
373.629	-6.03
373.84	-10.06
374.05	-19.63
374.261	-16.18
374.472	-18.16
374.682	11.06
374.893	13.52
375.103	33.21
375.314	30.91
375.524	37.25
375.735	31.11
375.945	32.08
376.156	24.56
376.366	16.07
376.577	9.51
376.787	7.23
376.997	8.71
377.208	-0.2
377.418	6.7
377.629	12.45
377.839	6.2
378.049	4.04
378.26	7.23
378.47	7.95
378.68	-2.62
378.89	1.56
379.101	-4.84
379.311	-14.75
379.521	-44.54
379.732	-28.05
379.942	-31.06
380.152	-37.46
380.362	-15.19
380.572	4.59
380.783	2.76
380.993	8.11
381.203	14.58
381.413	16.56
381.623	11.7
381.833	14.06
382.043	11.62
382.253	13.38
382.463	13.05
382.674	1.83
382.884	-3.74
383.094	5.85
383.304	8.39
383.514	2.44
383.724	12.71
383.934	8.88
384.144	-7.09
384.353	-16.36
384.563	-18.98
384.773	-16.29
384.983	-19.19
385.193	-4.72
385.403	-1.59
385.613	5.56
385.823	-3.44
386.033	4.44
386.242	-4.35
386.452	-8.09
386.662	-13.88
386.872	-4.97
387.082	-11.71
387.291	-12.54
387.501	-9.72
387.711	-8.32
387.921	-10.34
388.13	-6.59
388.34	0.53
388.55	-3.41
388.759	-1.27
388.969	4.57
389.179	4.91
389.388	4.77
389.598	15.22
389.807	10.27
390.017	7.18
390.227	6.77
390.436	6.59
390.646	4.6
390.855	7.99
391.065	8.31
391.274	7.3
391.484	3.74
391.693	3.56
391.903	4.99
392.112	7.87
392.322	8.48
392.531	9.85
392.74	9.06
392.95	6.02
393.159	4.12
393.369	5.6
393.578	5.61
393.787	5.59
393.997	5.18
394.206	5.47
394.415	4.41
394.625	3.79
394.834	2.67
395.043	4.3
395.252	5.59
395.462	7.18
395.671	8.43
395.88	8.93
396.089	9.7
396.298	7.69
396.508	6.91
396.717	5.75
396.926	6.21
397.135	5.05
397.344	5.55
397.553	5.15
397.762	6.9
397.971	6.3
398.181	6.8
398.39	6.75
398.599	6.87
398.808	6.27
399.017	6.57
399.226	6.78
399.435	7.26
399.644	7.18
399.853	6.19
400.062	6.08
400.27	5.79
400.479	5.48
400.688	5.01
400.897	5.7
401.106	5.74
401.315	5.91
401.524	5.74
401.733	6.18
401.941	6.19
402.15	6.57
402.359	6.27
402.568	6.57
402.777	6.49
402.985	6.26
403.194	5.87
403.403	5.99
403.612	5.68
403.82	5.43
404.029	5.74
404.238	5.88
404.446	5.99
404.655	5.88
404.864	5.98
405.072	5.67
405.281	5.42
405.489	5.23
405.698	5.37
405.906	5.29
406.115	5.4
406.324	5.47
406.532	5.49
406.741	5.58
406.949	5.69
407.158	5.62
407.366	5.72
407.574	5.7
407.783	5.57
407.991	5.36
408.2	5.35
408.408	5.17
408.617	5.05
408.825	4.97
409.033	5.09
409.242	5.09
409.45	5.27
409.658	5.29
409.867	5.35
410.075	5.2
410.283	5.22
410.491	5.04
410.7	4.99
410.908	4.92
411.116	5.25
411.324	5.18
411.533	5.16
411.741	5.35
411.949	5.33
412.157	5.11
412.365	5.21
412.573	5.31
412.781	5.3
412.99	5.28
413.198	5.42
413.406	5.38
413.614	5.23
413.822	5.07
414.03	5.04
414.238	4.85
414.446	4.89
414.654	4.8
414.862	4.91
415.07	4.92
415.278	5.06
415.486	4.88
415.694	4.96
415.902	4.77
416.109	4.8
416.317	4.77
416.525	4.55
416.733	4.61
416.941	4.7
417.149	4.69
417.357	4.58
417.564	4.76
417.772	4.83
417.98	4.85
418.188	4.79
418.395	4.79
418.603	5
418.811	4.76
419.019	4.66
419.226	4.63
419.434	4.69
419.642	4.3
419.849	4.45
420.057	4.42
420.265	4.47
420.472	4.42
420.68	4.53
420.887	4.35
421.095	4.4
421.302	4.46
421.51	4.36
421.717	4.49
421.925	4.66
422.132	4.64
422.34	4.39
422.547	4.48
422.755	4.5
422.962	4.41
423.17	4.31
423.377	4.36
423.585	4.24
423.792	3.98
423.999	3.94
424.207	3.95
424.414	4.08
424.621	4.21
424.829	4.43
425.036	4.51
425.243	4.52
425.451	4.3
425.658	4.08
425.865	4.08
426.072	4.11
426.28	4.17
426.487	4.3
426.694	4.48
426.901	4.27
427.108	4.18
427.315	4.27
427.523	4.41
427.73	4.33
427.937	4.43
428.144	4.33
428.351	4.23
428.558	4.23
428.765	4.25
428.972	4.21
429.179	4.36
429.386	4.42
429.593	4.33
429.8	4.36
430.007	4.52
430.214	4.61
430.421	4.55
430.628	4.51
430.835	4.48
431.042	4.48
431.249	4.64
431.456	4.71
431.662	4.79
431.869	4.84
432.076	4.86
432.283	4.75
432.49	4.73
432.697	4.72
432.903	4.56
433.11	4.56
433.317	4.56
433.524	4.66
433.73	4.64
433.937	4.82
434.144	4.77
434.35	4.82
434.557	4.73
434.764	4.75
434.97	4.68
435.177	4.8
435.384	4.78
435.59	4.76
435.797	4.98
436.003	4.95
436.21	4.91
436.416	4.91
436.623	5.05
436.829	5
437.036	5.26
437.242	5.27
437.449	5.28
437.655	5.28
437.862	5.32
438.068	5.2
438.275	5.4
438.481	5.6
438.687	5.53
438.894	5.48
439.1	5.57
439.307	5.5
439.513	5.32
439.719	5.43
439.926	5.62
440.132	5.66
440.338	5.6
440.544	5.78
440.751	5.79
440.957	5.66
441.163	5.62
441.369	5.8
441.575	5.68
441.782	5.71
441.988	5.68
442.194	5.66
442.4	5.58
442.606	5.79
442.812	5.8
443.018	5.81
443.224	5.86
443.431	5.87
443.637	5.75
443.843	5.73
444.049	5.74
444.255	5.71
444.461	5.74
444.667	5.72
444.873	5.75
445.079	5.86
445.284	5.98
445.49	5.87
445.696	5.82
445.902	5.81
446.108	5.84
446.314	5.8
446.52	5.87
446.726	6
446.931	6.04
447.137	6
447.343	6.03
447.549	5.99
447.755	5.91
447.96	5.92
448.166	5.9
448.372	5.82
448.578	5.95
448.783	5.98
448.989	6
449.195	6.17
449.4	6.3
449.606	6.27
449.812	6.27
450.017	6.35
450.223	6.28
450.428	6.2
450.634	6.28
450.84	6.33
451.045	6.22
451.251	6.22
451.456	6.38
451.662	6.41
451.867	6.54
452.073	6.64
452.278	6.75
452.483	6.75
452.689	6.71
452.894	6.65
453.1	6.57
453.305	6.49
453.51	6.49
453.716	6.47
453.921	6.5
454.127	6.53
454.332	6.49
454.537	6.44
454.742	6.43
454.948	6.36
455.153	6.41
455.358	6.44
455.563	6.58
455.769	6.65
455.974	6.64
456.179	6.54
456.384	6.48
456.589	6.39
456.795	6.26
457	6.3
457.205	6.48
457.41	6.52
457.615	6.48
457.82	6.64
458.025	6.64
458.23	6.57
458.435	6.64
458.64	6.67
458.845	6.79
459.05	6.77
459.255	6.7
459.46	6.63
459.665	6.66
459.87	6.6
460.075	6.65
460.28	6.79
460.485	6.9
460.69	6.88
460.895	6.73
461.099	6.74
461.304	6.78
461.509	6.82
461.714	6.81
461.919	6.91
462.123	6.83
462.328	6.83
462.533	6.71
462.738	6.81
462.942	6.83
463.147	6.93
463.352	6.93
463.556	6.98
463.761	6.98
463.966	7.02
464.17	7.03
464.375	7.03
464.58	7.14
464.784	7.08
464.989	7.02
465.193	7.04
465.398	7.08
465.602	7.11
465.807	7.1
466.011	7.25
466.216	7.28
466.42	7.37
466.625	7.38
466.829	7.49
467.034	7.48
467.238	7.7
467.443	7.73
467.647	7.71
467.851	7.71
468.056	7.66
468.26	7.53
468.464	7.53
468.669	7.62
468.873	7.74
469.077	7.76
469.282	7.83
469.486	7.72
469.69	7.72
469.894	7.61
470.099	7.66
470.303	7.65
470.507	7.67
470.711	7.61
470.915	7.72
471.119	7.65
471.324	7.59
471.528	7.66
471.732	7.73
471.936	7.67
472.14	7.79
472.344	7.89
472.548	7.98
472.752	8.04
472.956	8.21
473.16	8.2
473.364	8.12
473.568	8.09
473.772	8.12
473.976	8.11
474.18	8.2
474.384	8.25
474.588	8.25
474.792	8.19
474.995	8.2
475.199	8.22
475.403	8.28
475.607	8.25
475.811	8.29
476.015	8.23
476.218	8.31
476.422	8.27
476.626	8.32
476.83	8.42
477.033	8.43
477.237	8.25
477.441	8.37
477.644	8.41
477.848	8.34
478.052	8.28
478.255	8.4
478.459	8.3
478.663	8.36
478.866	8.41
479.07	8.49
479.273	8.61
479.477	8.69
479.681	8.69
479.884	8.71
480.088	8.7
480.291	8.59
480.495	8.63
480.698	8.68
480.901	8.73
481.105	8.78
481.308	8.8
481.512	8.77
481.715	8.8
481.919	8.78
482.122	8.78
482.325	8.85
482.529	8.91
482.732	8.86
482.935	8.81
483.138	8.77
483.342	8.77
483.545	8.73
483.748	8.83
483.952	8.95
484.155	9.05
484.358	9.1
484.561	9.13
484.764	9.05
484.967	9.04
485.171	9.1
485.374	9.04
485.577	9.03
485.78	9.07
485.983	9.05
486.186	8.93
486.389	9
486.592	9.01
486.795	9.03
486.998	9.02
487.201	9.1
487.404	9.11
487.607	9.18
487.81	9.25
488.013	9.35
488.216	9.32
488.419	9.28
488.622	9.25
488.825	9.16
489.028	9.09
489.231	9.07
489.433	9.13
489.636	9.13
489.839	9.17
490.042	9.2
490.245	9.28
490.447	9.28
490.65	9.31
490.853	9.32
491.056	9.36
491.258	9.33
491.461	9.28
491.664	9.29
491.866	9.25
492.069	9.32
492.272	9.26
492.474	9.34
492.677	9.34
492.879	9.43
493.082	9.49
493.285	9.58
493.487	9.6
493.69	9.59
493.892	9.56
494.095	9.46
494.297	9.49
494.5	9.5
494.702	9.56
494.905	9.57
495.107	9.61
495.309	9.63
495.512	9.66
495.714	9.67
495.917	9.71
496.119	9.74
496.321	9.77
496.524	9.83
496.726	9.87
496.928	9.94
497.13	9.96
497.333	9.97
497.535	9.93
497.737	9.94
497.939	9.95
498.142	9.94
498.344	9.99
498.546	9.95
498.748	9.89
498.95	9.91
499.152	9.99
499.355	10.01
499.557	10.15
499.759	10.3
499.961	10.27
500.163	10.33
500.365	10.3
500.567	10.33
500.769	10.28
500.971	10.35
501.173	10.23
501.375	10.24
501.577	10.23
501.779	10.26
501.981	10.25
502.183	10.29
502.385	10.31
502.587	10.25
502.788	10.32
502.99	10.32
503.192	10.39
503.394	10.43
503.596	10.5
503.798	10.54
503.999	10.69
504.201	10.71
504.403	10.77
504.605	10.82
504.806	10.78
505.008	10.75
505.21	10.78
505.411	10.82
505.613	10.83
505.815	10.89
506.016	10.92
506.218	10.98
506.42	10.94
506.621	11
506.823	11.01
507.024	11
507.226	10.97
507.427	11.01
507.629	11.11
507.83	11.2
508.032	11.22
508.233	11.36
508.435	11.48
508.636	11.39
508.838	11.35
509.039	11.44
509.24	11.43
509.442	11.43
509.643	11.5
509.845	11.54
510.046	11.61
510.247	11.61
510.448	11.6
510.65	11.65
510.851	11.74
511.052	11.7
511.254	11.79
511.455	11.9
511.656	11.99
511.857	12
512.058	12.13
512.26	12.09
512.461	12.12
512.662	12.07
512.863	12.1
513.064	12.03
513.265	12.13
513.466	12.17
513.667	12.25
513.868	12.29
514.069	12.33
514.27	12.42
514.471	12.37
514.672	12.4
514.873	12.37
515.074	12.46
515.275	12.32
515.476	12.32
515.677	12.33
515.878	12.47
516.079	12.46
516.28	12.56
516.481	12.69
516.682	12.72
516.882	12.67
517.083	12.68
517.284	12.66
517.485	12.66
517.686	12.59
517.886	12.59
518.087	12.64
518.288	12.74
518.488	12.75
518.689	12.8
518.89	12.82
519.091	12.84
519.291	12.81
519.492	12.83
519.692	12.94
519.893	12.93
520.094	12.97
520.294	12.98
520.495	12.98
520.695	13
520.896	13.12
521.096	13.11
521.297	13.16
521.497	13.23
521.698	13.24
521.898	13.24
522.099	13.23
522.299	13.29
522.499	13.31
522.7	13.29
522.9	13.28
523.101	13.31
523.301	13.34
523.501	13.34
523.702	13.39
523.902	13.46
524.102	13.59
524.302	13.57
524.503	13.66
524.703	13.73
524.903	13.72
525.103	13.67
525.304	13.71
525.504	13.68
525.704	13.64
525.904	13.72
526.104	13.77
526.304	13.73
526.504	13.72
526.705	13.7
526.905	13.75
527.105	13.73
527.305	13.85
527.505	13.88
527.705	13.88
527.905	13.87
528.105	13.91
528.305	13.86
528.505	13.92
528.705	14.04
528.905	14
529.105	14.02
529.304	14.07
529.504	14.13
529.704	14.15
529.904	14.16
530.104	14.26
530.304	14.28
530.503	14.25
530.703	14.18
530.903	14.22
531.103	14.23
531.303	14.28
531.502	14.3
531.702	14.44
531.902	14.49
532.101	14.41
532.301	14.46
532.501	14.44
532.7	14.46
532.9	14.48
533.1	14.51
533.299	14.55
533.499	14.6
533.698	14.61
533.898	14.64
534.097	14.72
534.297	14.72
534.496	14.76
534.696	14.75
534.895	14.82
535.095	14.88
535.294	14.92
535.494	14.9
535.693	14.92
535.892	14.82
536.092	14.81
536.291	14.79
536.491	14.87
536.69	14.93
536.889	15.04
537.088	15.03
537.288	15.09
537.487	15.12
537.686	15.13
537.886	15.16
538.085	15.17
538.284	15.21
538.483	15.2
538.682	15.27
538.882	15.35
539.081	15.42
539.28	15.42
539.479	15.48
539.678	15.53
539.877	15.52
540.076	15.62
540.275	15.69
540.474	15.77
540.673	15.78
540.872	15.8
541.071	15.78
541.27	15.78
541.469	15.85
541.668	15.89
541.867	15.96
542.066	16
542.265	16.04
542.464	15.98
542.663	16.04
542.862	16.12
543.06	16.25
543.259	16.35
543.458	16.41
543.657	16.4
543.856	16.49
544.054	16.46
544.253	16.45
544.452	16.57
544.651	16.66
544.849	16.62
545.048	16.7
545.247	16.79
545.445	16.83
545.644	16.89
545.843	16.95
546.041	17
546.24	17.05
546.438	17.13
546.637	17.17
546.836	17.26
547.034	17.28
547.233	17.3
547.431	17.29
547.63	17.34
547.828	17.47
548.027	17.57
548.225	17.66
548.423	17.65
548.622	17.77
548.82	17.75
549.019	17.78
549.217	17.8
549.415	17.91
549.614	17.97
549.812	18.09
550.01	18.16
550.209	18.35
550.407	18.44
550.605	18.45
550.803	18.5
551.002	18.62
551.2	18.63
551.398	18.75
551.596	18.91
551.794	19.02
551.993	19.01
552.191	19.14
552.389	19.19
552.587	19.28
552.785	19.34
552.983	19.43
553.181	19.48
553.379	19.56
553.577	19.56
553.775	19.65
553.973	19.77
554.171	19.86
554.369	19.92
554.567	20.08
554.765	20.21
554.963	20.21
555.161	20.3
555.359	20.42
555.557	20.54
555.755	20.59
555.952	20.83
556.15	20.95
556.348	21.06
556.546	21.17
556.744	21.23
556.941	21.23
557.139	21.28
557.337	21.28
557.535	21.26
557.732	21.33
557.93	21.46
558.128	21.53
558.325	21.66
558.523	21.79
558.721	21.9
558.918	21.95
559.116	22.06
559.313	22.13
559.511	22.32
559.708	22.35
559.906	22.42
560.104	22.53
560.301	22.62
560.498	22.55
560.696	22.73
560.893	22.95
561.091	23.06
561.288	23.24
561.486	23.37
561.683	23.53
561.88	23.51
562.078	23.65
562.275	23.62
562.473	23.79
562.67	23.85
562.867	23.99
563.064	24.01
563.262	24.22
563.459	24.26
563.656	24.42
563.853	24.56
564.051	24.64
564.248	24.66
564.445	24.83
564.642	24.88
564.839	24.98
565.036	25.14
565.234	25.34
565.431	25.34
565.628	25.46
565.825	25.56
566.022	25.69
566.219	25.69
566.416	25.89
566.613	25.87
566.81	25.9
567.007	25.91
567.204	26
567.401	26.03
567.598	26.17
567.795	26.19
567.991	26.29
568.188	26.42
568.385	26.49
568.582	26.56
568.779	26.79
568.976	26.79
569.172	26.92
569.369	26.89
569.566	26.97
569.763	26.99
569.96	27.07
570.156	27
570.353	27.16
570.55	27.25
570.746	27.26
570.943	27.36
571.14	27.39
571.336	27.36
571.533	27.36
571.729	27.36
571.926	27.35
572.123	27.46
572.319	27.54
572.516	27.52
572.712	27.71
572.909	27.75
573.105	27.77
573.302	27.83
573.498	27.96
573.695	27.84
573.891	27.83
574.087	27.9
574.284	27.84
574.48	27.74
574.677	27.8
574.873	27.87
575.069	27.91
575.266	28.03
575.462	28.1
575.658	28.16
575.854	28.24
576.051	28.26
576.247	28.26
576.443	28.25
576.639	28.23
576.835	28.18
577.032	28.02
577.228	28.06
577.424	28.14
577.62	28.11
577.816	28.1
578.012	28.21
578.208	28.17
578.404	28.21
578.6	28.25
578.796	28.3
578.993	28.33
579.189	28.31
579.384	28.2
579.58	28.21
579.776	28.19
579.972	28.16
580.168	28.11
580.364	28.24
580.56	28.15
580.756	28.15
580.952	28.2
581.148	28.24
581.343	28.17
581.539	28.23
581.735	28.24
581.931	28.18
582.127	28.28
582.322	28.23
582.518	28.27
582.714	28.23
582.909	28.26
583.105	28.14
583.301	28.16
583.496	28.11
583.692	28.21
583.888	28.15
584.083	28.2
584.279	28.14
584.474	28.14
584.67	28.04
584.866	28.09
585.061	27.96
585.257	27.96
585.452	28.02
585.648	28.03
585.843	28.11
586.039	28.11
586.234	28.24
586.429	28.19
586.625	28.21
586.82	28.12
587.015	28.27
587.211	28.1
587.406	28.2
587.601	28.27
587.797	28.27
587.992	28.12
588.187	28.27
588.383	28.19
588.578	28.19
588.773	28.23
588.968	28.32
589.163	28.32
589.359	28.27
589.554	28.26
589.749	28.23
589.944	28.28
590.139	28.33
590.334	28.47
590.529	28.43
590.724	28.54
590.919	28.66
591.114	28.7
591.309	28.76
591.504	28.87
591.699	28.91
591.894	28.91
592.089	28.9
592.284	28.89
592.479	29.03
592.674	28.97
592.869	29.02
593.064	29.03
593.259	29.14
593.454	29.08
593.648	29.24
593.843	29.32
594.038	29.36
594.233	29.39
594.428	29.47
594.622	29.49
594.817	29.6
595.012	29.68
595.206	29.68
595.401	29.72
595.596	29.8
595.79	29.87
595.985	30.03
596.18	30.18
596.374	30.32
596.569	30.36
596.763	30.37
596.958	30.49
597.153	30.47
597.347	30.38
597.542	30.49
597.736	30.54
597.931	30.53
598.125	30.56
598.319	30.77
598.514	30.75
598.708	30.82
598.903	30.87
599.097	30.95
599.291	30.84
599.486	30.89
599.68	30.86
599.874	30.83
600.069	30.86
600.263	30.93
600.457	31.07
600.651	31.1
600.846	31.17
601.04	31.19
601.234	31.27
601.428	31.3
601.622	31.41
601.817	31.4
602.011	31.6
602.205	31.64
602.399	31.58
602.593	31.49
602.787	31.59
602.981	31.5
603.175	31.54
603.369	31.57
603.563	31.64
603.757	31.66
603.951	31.62
604.145	31.64
604.339	31.63
604.533	31.57
604.727	31.45
604.921	31.43
605.115	31.28
605.309	31.36
605.502	31.49
605.696	31.48
605.89	31.45
606.084	31.49
606.278	31.34
606.471	31.18
606.665	31.12
606.859	31.09
607.053	31.03
607.246	30.94
607.44	30.92
607.634	30.83
607.827	30.82
608.021	30.72
608.214	30.76
608.408	30.68
608.602	30.73
608.795	30.63
608.989	30.55
609.182	30.47
609.376	30.41
609.569	30.24
609.763	30.1
609.956	30
610.15	29.93
610.343	29.88
610.537	29.93
610.73	29.98
610.923	29.94
611.117	29.95
611.31	29.87
611.504	29.79
611.697	29.69
611.89	29.71
612.083	29.56
612.277	29.53
612.47	29.41
612.663	29.39
612.856	29.29
613.05	29.17
613.243	29.17
613.436	29.08
613.629	28.97
613.822	28.89
614.015	28.9
614.209	28.73
614.402	28.79
614.595	28.8
614.788	28.75
614.981	28.61
615.174	28.51
615.367	28.3
615.56	28.18
615.753	28.12
615.946	28.09
616.139	28.15
616.332	28.22
616.525	28.15
616.718	28.16
616.911	28.15
617.103	28.09
617.296	28.07
617.489	27.98
617.682	27.95
617.875	27.99
618.067	27.91
618.26	27.84
618.453	27.85
618.646	27.82
618.838	27.72
619.031	27.7
619.224	27.64
619.417	27.75
619.609	27.72
619.802	27.67
619.994	27.6
620.187	27.52
620.38	27.37
620.572	27.33
620.765	27.45
620.957	27.37
621.15	27.41
621.342	27.42
621.535	27.37
621.727	27.16
621.92	27.13
622.112	27.03
622.305	27.02
622.497	27
622.69	26.97
622.882	27.03
623.074	27.1
623.267	27.05
623.459	26.94
623.651	26.97
623.844	27.02
624.036	27.04
624.228	27.07
624.42	27.1
624.613	27.13
624.805	27.09
624.997	27.01
625.189	26.94
625.381	26.9
625.574	26.78
625.766	26.66
625.958	26.62
626.15	26.59
626.342	26.58
626.534	26.65
626.726	26.59
626.918	26.58
627.11	26.44
627.302	26.46
627.494	26.39
627.686	26.5
627.878	26.48
628.07	26.54
628.262	26.48
628.454	26.47
628.646	26.37
628.838	26.41
629.029	26.38
629.221	26.41
629.413	26.34
629.605	26.31
629.797	26.18
629.989	26.1
630.18	26.05
630.372	26.07
630.564	26.02
630.755	26.11
630.947	26.23
631.139	26.09
631.33	26.01
631.522	26.12
631.714	26.05
631.905	25.97
632.097	25.95
632.289	25.99
632.48	25.86
632.672	25.79
632.863	25.66
633.055	25.68
633.246	25.54
633.438	25.49
633.629	25.49
633.821	25.52
634.012	25.45
634.203	25.48
634.395	25.5
634.586	25.43
634.777	25.4
634.969	25.45
635.16	25.52
635.351	25.4
635.543	25.5
635.734	25.46
635.925	25.35
636.117	25.27
636.308	25.33
636.499	25.26
636.69	25.21
636.881	25.2
637.073	25.19
637.264	25.09
637.455	25.16
637.646	25.26
637.837	25.36
638.028	25.33
638.219	25.43
638.41	25.25
638.601	25.06
638.792	25.05
638.983	24.98
639.174	24.9
639.365	24.96
639.556	24.99
639.747	24.89
639.938	24.91
640.129	24.82
640.32	24.71
640.511	24.7
640.701	24.74
640.892	24.64
641.083	24.73
641.274	24.77
641.465	24.71
641.655	24.63
641.846	24.61
642.037	24.43
642.228	24.3
642.418	24.24
642.609	24.25
642.8	24.24
642.99	24.18
643.181	24.22
643.372	24.25
643.562	24.13
643.753	24.04
643.943	24
644.134	23.86
644.324	23.81
644.515	23.81
644.705	23.85
644.896	23.87
645.086	23.85
645.277	23.83
645.467	23.72
645.658	23.63
645.848	23.6
646.038	23.53
646.229	23.39
646.419	23.31
646.61	23.26
646.8	23.15
646.99	23.13
647.18	23.13
647.371	23.09
647.561	22.98
647.751	23.01
647.941	22.93
648.132	22.87
648.322	22.82
648.512	22.87
648.702	22.82
648.892	22.77
649.082	22.72
649.272	22.59
649.462	22.47
649.653	22.3
649.843	22.2
650.033	22.18
650.223	22.11
650.413	22.02
650.603	22.05
650.793	22.03
650.983	21.86
651.172	21.77
651.362	21.69
651.552	21.52
651.742	21.36
651.932	21.36
652.122	21.38
652.312	21.32
652.502	21.25
652.691	21.2
652.881	21.16
653.071	21.02
653.261	20.9
653.45	20.66
653.64	20.61
653.83	20.34
654.019	20.28
654.209	20.19
654.399	20.33
654.588	20.19
654.778	20.17
654.968	20.07
655.157	19.97
655.347	19.75
655.536	19.61
655.726	19.35
655.915	19.17
656.105	18.97
656.294	18.82
656.484	18.7
656.673	18.67
656.863	18.57
657.052	18.49
657.241	18.32
657.431	18.08
657.62	17.92
657.809	17.6
657.999	17.42
658.188	17.37
658.377	17.33
658.567	17.14
658.756	17.06
658.945	16.87
659.134	16.69
659.324	16.52
659.513	16.33
659.702	16.22
659.891	16.06
660.08	15.87
660.269	15.68
660.458	15.58
660.648	15.37
660.837	15.38
661.026	15.2
661.215	15.03
661.404	14.88
661.593	14.84
661.782	14.51
661.971	14.4
662.16	14.37
662.349	14.23
662.538	14.06
662.726	14.02
662.915	13.83
663.104	13.66
663.293	13.56
663.482	13.56
663.671	13.45
663.86	13.33
664.048	13.18
664.237	13.2
664.426	12.9
664.615	12.8
664.803	12.7
664.992	12.57
665.181	12.36
665.369	12.36
665.558	12.27
665.747	12.21
665.935	12.26
666.124	12.22
666.312	12.15
666.501	12.12
666.69	12.05
666.878	11.94
667.067	11.78
667.255	11.8
667.444	11.8
667.632	11.8
667.82	11.87
668.009	11.95
668.197	11.89
668.386	11.84
668.574	11.95
668.762	11.89
668.951	11.88
669.139	11.9
669.327	11.78
669.516	11.72
669.704	11.58
669.892	11.61
670.08	11.61
670.269	11.56
670.457	11.4
670.645	11.39
670.833	11.43
671.021	11.39
671.21	11.55
671.398	11.74
671.586	11.77
671.774	11.65
671.962	11.71
672.15	11.66
672.338	11.65
672.526	11.77
672.714	11.67
672.902	11.62
673.09	11.77
673.278	11.95
673.466	12.01
673.654	12.19
673.842	12.27
674.03	12.23
674.218	12.12
674.405	12.07
674.593	12.02
674.781	12.04
674.969	12.05
675.157	12.14
675.344	12.25
675.532	12.42
675.72	12.53
675.908	12.59
676.095	12.53
676.283	12.6
676.471	12.73
676.658	12.7
676.846	12.72
677.033	12.75
677.221	12.72
677.409	12.56
677.596	12.59
677.784	12.72
677.971	12.92
678.159	13.02
678.346	13.19
678.534	13.34
678.721	13.51
678.909	13.41
679.096	13.51
679.283	13.7
679.471	13.88
679.658	13.91
679.846	14.16
680.033	14.29
680.22	14.36
680.408	14.4
680.595	14.4
680.782	14.42
680.969	14.61
681.157	14.77
681.344	14.86
681.531	15.05
681.718	15.16
681.905	15.26
682.093	15.47
682.28	15.64
682.467	15.97
682.654	16.3
682.841	16.55
683.028	16.63
683.215	16.92
683.402	16.94
683.589	17.07
683.776	17.26
683.963	17.48
684.15	17.76
684.337	18.17
684.524	18.46
684.711	18.63
684.898	18.87
685.085	19.18
685.271	19.65
685.458	19.85
685.645	20.26
685.832	20.73
686.019	20.97
686.205	21.05
686.392	21.51
686.579	21.91
686.766	22.27
686.952	22.63
687.139	23.13
687.326	23.35
687.512	23.67
687.699	24.04
687.886	24.34
688.072	24.57
688.259	25.25
688.445	25.85
688.632	26.23
688.818	27.13
689.005	27.85
689.191	28.28
689.378	28.88
689.564	29.56
689.751	30.03
689.937	30.43
690.124	30.93
690.31	31.16
690.496	31.67
690.683	32.13
690.869	32.77
691.055	33.3
691.242	34.24
691.428	34.95
691.614	35.45
691.8	36.16
691.987	36.95
692.173	37.43
692.359	37.94
692.545	38.55
692.731	38.93
692.918	39.43
693.104	40.04
693.29	40.57
693.476	41.3
693.662	42
693.848	42.73
694.034	43.19
694.22	43.78
694.406	44.57
694.592	45.35
694.778	45.98
694.964	46.64
695.15	47.39
695.336	47.81
695.522	48.67
695.708	49.44
695.894	50.22
696.08	50.83
696.265	51.42
696.451	51.94
696.637	52.31
696.823	52.86
697.009	53.26
697.194	53.88
697.38	54.25
697.566	54.88
697.751	55.61
697.937	56.74
698.123	57.38
698.308	57.99
698.494	58.62
698.68	58.91
698.865	59.07
699.051	59.69
699.236	60.18
699.422	60.84
699.607	61.37
699.793	62.07
699.978	62.31
700.164	62.8
700.349	63.12
700.535	63.45
700.72	63.75
700.906	64.55
701.091	64.68
701.276	65.28
701.462	66.25
701.647	66.76
701.832	67.03
702.018	67.78
702.203	67.98
702.388	68.21
702.573	68.71
702.759	69.33
702.944	69.57
703.129	69.95
703.314	70.09
703.499	70.29
703.684	70.56
703.87	71.46
704.055	72.06
704.24	72.53
704.425	73.09
704.61	73.53
704.795	73.58
704.98	73.79
705.165	74.13
705.35	74.2
705.535	74.61
705.72	74.93
705.905	75.26
706.09	75.91
706.275	76.21
706.459	76.2
706.644	76.42
706.829	76.49
707.014	76.42
707.199	76.78
707.384	77.09
707.568	77.17
707.753	77.94
707.938	78.41
708.123	78.57
708.307	78.67
708.492	79.36
708.677	79.39
708.861	79.55
709.046	79.72
709.231	80.3
709.415	80.47
709.6	80.69
709.784	80.65
709.969	80.96
710.153	80.47
710.338	80.5
710.522	80.71
710.707	81.27
710.891	81.57
711.076	82.26
711.26	82.06
711.445	82.24
711.629	82.26
711.813	82.43
711.998	82.83
712.182	83.15
712.366	83.6
712.551	84.03
712.735	84.32
712.919	83.96
713.103	84.26
713.288	84.26
713.472	83.93
713.656	84.23
713.84	84.66
714.024	85.03
714.208	84.79
714.393	85.57
714.577	85.53
714.761	85.51
714.945	85.71
715.129	86.37
715.313	86.26
715.497	86.3
715.681	86.99
715.865	86.88
716.049	87.05
716.233	86.82
716.417	87.07
716.601	86.61
716.785	86.57
716.968	86.42
717.152	86.66
717.336	86.81
717.52	87.18
717.704	87.54
717.888	87.79
718.071	88.2
718.255	88.06
718.439	87.92
718.622	87.7
718.806	87.95
718.99	87.64
719.174	87.67
719.357	87.89
719.541	88.38
719.724	88.1
719.908	88.57
720.092	88.67
720.275	88.36
720.459	87.9
720.642	87.66
720.826	87.3
721.009	87.5
721.193	87.97
721.376	88.67
721.559	88.79
721.743	89.22
721.926	89.69
722.11	90.09
722.293	89.43
722.476	89.75
722.66	89.5
722.843	89.54
723.026	88.9
723.21	89.61
723.393	89.67
723.576	89.92
723.759	89.58
723.942	89.56
724.126	89.04
724.309	89.61
724.492	89.95
724.675	89.68
724.858	90.73
725.041	91.48
725.224	91.62
725.407	91.72
725.59	92.62
725.774	92.36
725.957	91.59
726.14	91.07
726.322	91.02
726.505	90.46
726.688	91.08
726.871	91.59
727.054	91.75
727.237	91.68
727.42	92.15
727.603	91.58
727.786	91.71
727.968	91.46
728.151	91.93
728.334	91.67
728.517	92.23
728.699	92.47
728.882	92.83
729.065	93.02
729.248	93.53
729.43	93.18
729.613	93.44
729.796	94.09
729.978	93.37
730.161	93.25
730.343	93.32
730.526	93.74
730.708	93.27
730.891	93.54
731.073	93.21
731.256	93.08
731.438	92.55
731.621	93.04
731.803	93.39
731.986	94.08
732.168	94.17
732.35	94.74
732.533	94.65
732.715	94.54
732.898	94.38
733.08	94.33
733.262	94.27
733.444	93.87
733.627	94.38
733.809	94.21
733.991	94.78
734.173	94.92
734.355	95.17
734.538	95.09
734.72	95.13
734.902	95.21
735.084	95.18
735.266	94.6
735.448	95.48
735.63	95.75
735.812	95.58
735.994	96.07
736.176	97.08
736.358	96.48
736.54	97.06
736.722	97.1
736.904	95.91
737.086	96.02
737.268	96.41
737.45	96.11
737.632	96.14
737.814	96.67
737.995	96.81
738.177	95.67
738.359	94.97
738.541	95.51
738.723	96.72
738.904	97.26
739.086	98.01
739.268	98.54
739.449	98.47
739.631	97.23
739.813	96.95
739.994	96.93
740.176	97.43
740.358	97.36
740.539	98.22
740.721	99.02
740.902	99.46
741.084	99.35
741.265	99.17
741.447	99.37
741.628	98.49
741.81	97.59
741.991	98.37
742.172	98.68
742.354	98.86
742.535	98.28
742.717	99
742.898	98.75
743.079	98.78
743.261	97.75
743.442	97.54
743.623	97.72
743.804	97.18
743.986	97.5
744.167	96.96
744.348	96.82
744.529	96.81
744.71	95.67
744.891	95.06
745.073	95.13
745.254	95
745.435	94.99
745.616	95.48
745.797	95.7
745.978	96.11
746.159	97.3
746.34	96.23
746.521	97.64
746.702	96.59
746.883	96.75
747.064	96.61
747.245	97.84
747.426	97.53
747.606	98.98
747.787	99.66
747.968	99.54
748.149	99.47
748.33	100.46
748.51	100.79
748.691	100.85
748.872	100.36
749.053	100.23
749.233	98.78
749.414	97.66
749.595	96.68
749.775	97.59
749.956	96.88
750.137	97.3
750.317	97.81
750.498	99.2
750.678	99.05
750.859	100.01
751.04	99.68
751.22	99.26
751.4	97.7
751.581	95.37
751.761	95.73
751.942	95.68
752.122	95.18
752.303	95.02
752.483	96.21
752.663	94.93
752.844	94.22
753.024	95.82
753.204	96.65
753.385	96.8
753.565	98
753.745	98.73
753.925	97.15
754.106	95.47
754.286	95.08
754.466	94.68
754.646	94.82
754.826	95.79
755.006	95.96
755.187	96.65
755.367	97.13
755.547	97.38
755.727	98.16
755.907	99.83
756.087	99.7
756.267	99.62
756.447	99.37
756.627	96.54
756.807	96.36
756.987	96.72
757.167	95.94
757.346	95.59
757.526	96.09
757.706	96.81
757.886	97.54
758.066	97.49
758.246	98.3
758.425	98.42
758.605	97.83
758.785	97.57
758.965	97.35
759.144	94.87
759.324	96.99
759.504	96.85
759.683	96.77
759.863	96
760.043	96.88
760.222	94.6
760.402	93.9
760.581	93.04
760.761	94.77
760.94	95.23
761.12	97.83
761.299	99.07
761.479	99.37
761.658	98.91
761.838	98.71
762.017	97.23
762.197	97.61
762.376	97.63
762.555	96.74
762.735	96.96
762.914	95.82
763.093	94.76
763.273	94.36
763.452	95.58
763.631	96.43
763.81	97.77
763.99	97.69
764.169	98.14
764.348	96.31
764.527	95.06
764.706	95.01
764.885	96.5
765.064	94.42
765.243	94.66
765.423	96.74
765.602	96
765.781	93.74
765.96	92.64
766.139	92.44
766.318	90.34
766.497	90.42
766.676	91.15
766.854	95.3
767.033	96.64
767.212	96.71
767.391	97.12
767.57	97.13
767.749	95.77
767.928	96.09
768.106	95.84
768.285	93.4
768.464	93.47
768.643	93.5
768.821	93.88
769	94.47
769.179	94.6
769.357	93.28
769.536	93.6
769.715	92.32
769.893	94
770.072	94.17
770.25	96.44
770.429	95.96
770.607	95.41
770.786	93.81
770.964	95.8
771.143	93.35
771.321	94.29
771.5	94.36
771.678	94.79
771.857	94.82
772.035	95.3
772.213	94.18
772.392	93.97
772.57	95.57
772.748	96.18
772.927	95.81
773.105	94.07
773.283	95.13
773.461	92.93
773.64	92.89
773.818	92.37
773.996	93.72
774.174	90.56
774.352	89.94
774.531	87.46
774.709	90.1
774.887	89.9
775.065	91.69
775.243	93.12
775.421	93.61
775.599	91.63
775.777	89.91
775.955	89.02
776.133	87.71
776.311	89.52
776.489	89.1
776.667	92.09
776.844	92.6
777.022	93.22
777.2	92.12
777.378	93.96
777.556	91.85
777.734	95.28
777.911	97.24
778.089	95.92
778.267	95.94
778.445	97.62
778.622	94.92
778.8	91.27
778.978	93.81
779.155	91.89
779.333	93.51
779.511	92.82
779.688	94.69
779.866	90.46
780.043	89.9
780.221	87.85
780.398	86.26
780.576	87.58
780.753	89.82
780.931	89.37
781.108	91.31
781.286	93.61
781.463	90.67
781.64	89.78
781.818	92.42
781.995	90.11
782.172	89.97
782.35	92.47
782.527	93.38
782.704	92.23
782.882	93.82
783.059	93.74
783.236	94.88
783.413	96.95
783.59	97.11
783.768	94.6
783.945	95.89
784.122	94.21
784.299	94.7
784.476	94.63
784.653	94.28
784.83	91.31
785.007	87.15
785.184	84.02
785.361	82.1
785.538	86.48
785.715	92.02
785.892	93.5
786.069	95.33
786.246	95.74
786.423	94.51
786.6	91.58
786.776	91.12
786.953	88.98
787.13	91.9
787.307	90.45
787.484	86.7
787.66	87.32
787.837	91.78
788.014	88.61
788.191	85.93
788.367	86.44
788.544	86.51
788.721	82.81
788.897	84.54
789.074	86.95
789.25	86.65
789.427	88.67
789.603	88.4
789.78	87.75
789.956	86.14
790.133	88.1
790.309	90.71
790.486	91.85
790.662	93.22
790.839	93.17
791.015	88.4
791.192	85.92
791.368	86.76
791.544	85.09
791.721	87.32
791.897	90.03
792.073	87.54
792.249	81.93
792.426	85.45
792.602	85.08
792.778	90.97
792.954	88.88
793.13	91.59
793.307	86.79
793.483	80
793.659	77.35
793.835	82.85
794.011	81.19
794.187	85.43
794.363	90.18
794.539	87.75
794.715	82.39
794.891	83.12
795.067	82.39
795.243	81.58
795.419	82.37
795.595	82.49
795.771	80.8
795.947	77.33
796.122	73.98
796.298	76.87
796.474	80.4
796.65	77.82
796.826	79.41
797.001	82.14
797.177	77.93
797.353	79
797.529	83.1
797.704	83.46
797.88	83.67
798.056	77.9
798.231	77.12
798.407	77.3
798.582	76.71
798.758	80.62
798.934	89.71
799.109	88.66
799.285	87.78
799.46	86.6
799.636	88.16
799.811	90.51
799.986	85.15
800.162	92.53
800.337	95.05
800.513	89.19
800.688	83.77
800.863	97.88
801.039	88.68
801.214	83.99
801.389	90.6
801.565	86.48
801.74	75.49
801.915	83.15
802.09	84.32
802.265	80.72
802.441	84.75
802.616	84.29
802.791	83.8
802.966	84.79
803.141	87.16
803.316	83.45
803.491	86.21
803.666	86.49
803.841	84.66
804.016	76.39
804.191	82.43
804.366	80.19
804.541	76.61
804.716	78.29
804.891	78.14
805.066	73.21
805.241	66.55
805.416	70.35
805.591	69.73
805.765	71.55
805.94	79.2
806.115	83.12
806.29	71.43
806.464	69.78
806.639	71.3
806.814	67.44
806.989	66.22
807.163	83.38
807.338	91.3
807.512	84.06
807.687	73.05
807.862	79.42
808.036	71.28
808.211	70.83
808.385	82.07
808.56	92.31
808.734	88.71
808.909	90.71
809.083	92.4
809.258	95.5
809.432	97.77
809.606	93.17
809.781	87.44
809.955	82.46
810.13	77.65
810.304	64.14
810.478	66.73
810.652	68.95
810.827	71.53
811.001	67.83
811.175	75.1
811.349	72.78
811.524	66.48
811.698	57.36
811.872	60.16
812.046	59.84
812.22	63.71
812.394	73.32
812.568	77.92
812.742	83.88
812.916	83.91
813.09	77.86
813.264	70.69
813.438	73.32
813.612	63.6
813.786	63.41
813.96	71.38
814.134	78.59
814.308	80.75
814.482	87.41
814.656	81
814.83	78.2
815.003	75.02
815.177	67.94
815.351	64.7
815.525	63.5
815.698	63.75
815.872	60.62
816.046	59.81
816.219	64.97
816.393	72.63
816.567	74.98
816.74	80.52
816.914	80.43
817.088	81.99
817.261	86.4
817.435	86.61
817.608	87.75
817.782	89.18
817.955	91.32
818.129	81.11
818.302	84.94
818.475	78.95
818.649	78.52
818.822	61.1
818.996	82.75
819.169	79.41
819.342	76.49
819.516	92.4
819.689	94.55
819.862	73.72
820.035	72.63
820.209	69.34
820.382	61.52
820.555	59.15
820.728	52.44
820.901	44.46
821.075	48.63
821.248	54.66
821.421	56.33
821.594	56.16
821.767	60.68
821.94	63.3
822.113	50.64
822.286	54.25
822.459	57.67
822.632	54.81
822.805	47.23
822.978	40.45
823.151	35.93
823.324	33.07
823.496	29.05
823.669	36.36
823.842	55.82
824.015	50.14
824.188	53.26
824.361	59.35
824.533	62.53
824.706	44.39
824.879	52.18
825.051	55.15
825.224	61.74
825.397	65.11
825.569	55.07
825.742	62.38
825.915	73.42
826.087	73.31
826.26	42.57
826.432	66.69
826.605	58.85
826.777	58.32
826.95	54.8
827.122	58.81
827.295	47.01
827.467	59.25
827.64	47.39
827.812	45.21
827.984	47.3
828.157	50.39
828.329	27.58
828.501	35.27
828.674	55.83
828.846	53.62
829.018	61.77
829.19	56.45
829.363	65.03
829.535	64.67
829.707	76.65
829.879	72.05
830.051	76.4
830.223	67.96
830.395	50.41
830.568	54.84
830.74	39.55
830.912	52.39
831.084	38.47
831.256	52.76
831.428	37.43
831.6	32.86
831.772	16.48
831.943	10.44
832.115	11.38
832.287	36.45
832.459	59.11
832.631	58.39
832.803	76.5
832.975	82.52
833.146	91.04
833.318	73.28
833.49	95.47
833.662	84.8
833.833	58.28
834.005	39.37
834.177	43.03
834.348	33.79
834.52	34.83
834.692	48.06
834.863	41.29
835.035	38.6
835.206	-3.55
835.378	3.96
835.549	7.01
835.721	14.82
835.892	23.95
836.064	42.06
836.235	45.23
836.407	75.21
836.578	73.74
836.749	69.44
836.921	52.72
837.092	19.47
837.264	3.87
837.435	2.91
837.606	23.9
837.777	49.18
837.949	61.68
838.12	71.52
838.291	78.74
838.462	79.03
838.633	56.5
838.805	53.44
838.976	64.59
839.147	50.9
839.318	22.95
839.489	33
839.66	56.8
839.831	45.9
840.002	45.82
840.173	32.8
840.344	62.82
840.515	30.79
840.686	-23.18
840.857	-29.39
841.028	0.13
841.199	-6.68
841.369	8.72
841.54	-9.69
841.711	17.61
841.882	48.07
842.053	48.41
842.223	30.27
842.394	54.3
842.565	57.42
842.736	46.08
842.906	41.23
843.077	49.73
843.248	51.55
843.418	50.95
843.589	30.29
843.759	55.98
843.93	13.24
844.101	12.92
844.271	1.31
844.442	8.48
844.612	10.05
844.783	9.07
844.953	-13.94
845.123	-35.33
845.294	-74.88
845.464	-236.19
845.635	-88.39
845.805	-53.33
845.975	-3.86
846.146	-6.22
846.316	-5.05
846.486	-11.07
846.656	13.78
846.827	8.57
846.997	20.6
847.167	19.21
847.337	15.07
847.507	-0.22
847.677	19.59
847.848	44.65
848.018	53.02
848.188	62.83
848.358	39.87
848.528	29.51
848.698	18.3
848.868	-22.66
849.038	-121.48
849.208	11.61
849.378	18.2
849.548	4.28
849.718	9.57
849.887	30.51
850.057	6.43
850.227	17.1
850.397	-0.61
850.567	-27.55
850.737	-105.33
850.906	-314.06
851.076	-500.98
851.246	-148.82
851.415	9.05
851.585	8.34
851.755	-2.4
851.924	16.94
852.094	-29.24
852.264	-62.22
852.433	-538.7
852.603	-94.12
852.772	-13.05
852.942	24.47
853.111	10.63
853.281	39.08
853.45	60.16
853.62	13.47
853.789	1.54
853.959	8.73
854.128	-1.78
854.297	-24.94
854.467	-29.12
854.636	-7.57
854.805	2.98
854.975	-29.89
855.144	12.53
855.313	126.4
855.482	-152.74
855.652	-65.23
855.821	-13.74
855.99	-17.4
856.159	8.83
856.328	29.57
856.497	4.48
856.667	-0.59
856.836	27.58
857.005	5.29
857.174	-30.53
857.343	-28.44
857.512	25.3
857.681	-30.21
857.85	-60.82
858.019	12
858.188	8.6
858.356	-13.11
858.525	-48.73
858.694	-17.08
858.863	-95.67
859.032	2.72
859.201	33.35
859.369	83.61
859.538	65.27
859.707	44.88
859.876	12.25
860.044	21.85
860.213	49.61
860.382	44.81
860.55	25.37
860.719	31.04
860.888	30.12
861.056	7.66
861.225	23.99
861.393	83.89
861.562	103.35
861.73	99.76
861.899	276.83
862.067	778.45
862.236	116.05
862.404	61.6
862.572	72.75
862.741	60.23
862.909	41.98
863.078	-50.21
863.246	-8.18
863.414	13.2
863.582	18.7
863.751	11.14
863.919	46.04
864.087	50.16
864.255	25.38
864.424	-170.62
864.592	38.11
864.76	-10.32
864.928	-417
865.096	-216.64
865.264	-135.65
865.432	-2009.66
865.6	-313.13
865.768	-45.89
865.936	-49.96
866.104	-35.24
866.272	-35.39
866.44	-44.59
866.608	188.72
866.776	20.23
866.944	137.79
867.112	-42.9
867.28	-63
867.448	2.31
867.615	5.33
867.783	-9.62
867.951	-8.57
868.119	26.11
868.286	-21.21
868.454	-88.18
868.622	-86.46
868.789	-33.55
868.957	-3466.07
869.125	-1584.87
869.292	-61.73
869.46	-41.95
869.627	-11.16
869.795	32.92
869.963	42.93
870.13	27.31
870.298	33.61
870.465	-16.1
870.632	-37.23
870.8	-21.94
870.967	-30.49
871.135	-79.59
871.302	-70.09
871.469	-96.07
871.637	-153.47
871.804	-96.67
871.971	-103.01
872.139	-338.72
872.306	-6.29
872.473	-5.4
872.64	-31.87
872.807	89.85
872.975	76.94
873.142	-103.36
873.309	962.84
873.476	54.99
873.643	84.34
873.81	87.66
873.977	115.63
874.144	67.72
874.311	-62.65
874.478	-74.62
874.645	-80.32
874.812	-38.82
874.979	28.6
875.146	40.86
875.313	9.91
875.48	44
875.647	18.82
875.813	-7.49
875.98	-3.7
876.147	-15
876.314	-61.59
876.481	616.74
876.647	-666.57
876.814	204.79
876.981	79.9
877.147	23.88
877.314	44.46
877.481	60.96
877.647	45.46
877.814	15.75
877.98	12.4
878.147	21.89
878.314	50.83
878.48	48.73
878.647	58.55
878.813	90.74
878.979	83.14
879.146	67.81
879.312	72.05
879.479	77.37
879.645	2.07
879.811	-23.42
879.978	-281.11
880.144	-79
880.31	-23.28
880.477	-125.61
880.643	-287.06
880.809	-62
880.975	-43.29
881.142	-591.14
881.308	-84.81
881.474	15.12
881.64	-27.82
881.806	-71.52
881.972	15.98
882.138	62.03
882.304	82.35
882.47	-27.65
882.636	-232.99
882.802	-103.9
882.968	-29.7
883.134	-8.72
883.3	-17.11
883.466	24.57
883.632	26.59
883.798	24.96
883.964	13.88
884.129	56.18
884.295	55.55
884.461	62.58
884.627	21.03
884.793	17.39
884.958	2.44
885.124	-64.94
885.29	-132.02
885.455	-206.43
885.621	-79.73
885.787	-57.65
885.952	3.56
886.118	-8.01
886.283	-7.19
886.449	-62.92
886.614	-63.62
886.78	-205.1
886.945	1011.89
887.111	-368.93
887.276	-366.05
887.442	-833.86
887.607	-342.1
887.773	-226.19
887.938	-212.08
888.103	-175.31
888.269	-119.05
888.434	-296.35
888.599	-95.79
888.764	-49.66
888.93	-13.71
889.095	-6.88
889.26	17.41
889.425	32.55
889.59	76.78
889.756	34.42
889.921	24.43
890.086	-7.38
890.251	-23.89
890.416	-160.47
890.581	-1421.37
890.746	278.3
890.911	383.6
891.076	120.54
891.241	-127.05
891.406	68.04
891.571	-0.53
891.736	-28.56
891.901	-240.93
892.065	638.74
892.23	167.43
892.395	171.87
892.56	264.23
892.725	-182.23
892.889	-268.9
893.054	4.02
893.219	19.74
893.384	31.04
893.548	-14.43
893.713	-13.28
893.878	-16.47
