Data from Ofra_2a_PS_2H59_Reflection_1.txt Node
Date: Tue Jul 20 09:48:17 EDT 2021
User: Adam
Spectrometer: FLMT01687
Trigger mode: 0
Integration Time (sec): 9.450000E-1
Scans to average: 3
Electric dark correction enabled: true
Nonlinearity correction enabled: false
Boxcar width: 3
XAxis mode: Wavelengths
Number of Pixels in Spectrum: 3648
>>>>>Begin Spectral Data<<<<<
179.494	837.87
179.716	464.26
179.937	447.25
180.158	1722.66
180.38	-354.07
180.601	-1.67
180.823	58.77
181.044	46.02
181.265	-147.13
181.486	-71.14
181.708	-1963.04
181.929	-193.26
182.15	-1046.59
182.372	41.7
182.593	48.8
182.814	467.96
183.035	373.76
183.257	122.49
183.478	50.04
183.699	51.37
183.92	44.62
184.141	45.51
184.363	27.32
184.584	15.85
184.805	30.4
185.026	21.53
185.247	16.98
185.468	5.45
185.689	24.72
185.91	7.05
186.132	11.04
186.353	-13.84
186.574	-3.56
186.795	-18.16
187.016	-10.39
187.237	-18.02
187.458	-2.52
187.679	-22.9
187.9	9.93
188.121	17.61
188.342	49.59
188.563	49.8
188.784	45.14
189.005	52.05
189.226	63.87
189.447	51.48
189.667	55.98
189.888	56.46
190.109	58.87
190.33	43.87
190.551	27.03
190.772	12.62
190.993	36.85
191.214	28.59
191.434	18.44
191.655	24.41
191.876	42.29
192.097	37.34
192.318	52.82
192.538	46.98
192.759	56.96
192.98	43.7
193.201	43.89
193.421	33.26
193.642	40.28
193.863	25.7
194.083	13.17
194.304	3.71
194.525	42.65
194.745	14.9
194.966	17.23
195.187	22.29
195.407	26
195.628	25.21
195.848	26.71
196.069	13.67
196.29	20.16
196.51	32.57
196.731	26.1
196.951	17.22
197.172	19.15
197.392	26.79
197.613	16.6
197.833	27.5
198.054	27.34
198.274	34.12
198.495	51.11
198.715	42.09
198.936	55.81
199.156	63.36
199.377	55.41
199.597	19.18
199.817	-4.05
200.038	1.9
200.258	-3.68
200.479	-7.57
200.699	-8.29
200.919	-20.76
201.14	4.71
201.36	37.45
201.58	35.03
201.801	50.19
202.021	40.97
202.241	46.04
202.461	61.45
202.682	63.2
202.902	48.74
203.122	49.82
203.342	47.08
203.563	53.93
203.783	45.54
204.003	36.11
204.223	31.37
204.443	28.46
204.663	24.45
204.884	18.31
205.104	16.99
205.324	26.13
205.544	23.45
205.764	23.71
205.984	25.63
206.204	27.66
206.424	36.01
206.644	28.09
206.864	22.89
207.084	40.99
207.304	35.24
207.525	21.22
207.745	34.39
207.964	35.8
208.184	35.05
208.404	36.24
208.624	12.01
208.844	11.84
209.064	30.33
209.284	18.61
209.504	-5.39
209.724	-31.31
209.944	-39.91
210.164	-17.55
210.384	-2.72
210.604	-27.39
210.823	-21.09
211.043	-0.07
211.263	26.32
211.483	27.89
211.703	16.94
211.922	17.37
212.142	26.84
212.362	22.47
212.582	17.69
212.801	11.59
213.021	5.28
213.241	10.31
213.461	-4.94
213.68	-3.88
213.9	9.24
214.12	5.12
214.339	-1.85
214.559	6.12
214.779	6.93
214.998	13.81
215.218	18.31
215.438	28.84
215.657	35.34
215.877	46.31
216.096	32.78
216.316	36.55
216.535	37.11
216.755	15.74
216.974	8.22
217.194	10.89
217.413	25.65
217.633	24.47
217.852	14.43
218.072	5.91
218.291	51.62
218.511	46.78
218.73	37.75
218.95	28.62
219.169	47.67
219.389	49.67
219.608	55.35
219.827	35.7
220.047	40.43
220.266	38.77
220.485	42.74
220.705	25.42
220.924	33.33
221.143	23.1
221.363	19.53
221.582	13.73
221.801	23.79
222.021	13.99
222.24	28.49
222.459	13.09
222.678	21.61
222.897	18.37
223.117	23.74
223.336	36.6
223.555	38.71
223.774	42.85
223.993	52.74
224.213	41.56
224.432	47.57
224.651	41.74
224.87	30.43
225.089	41.91
225.308	40.58
225.527	38.47
225.746	44.02
225.965	27.64
226.184	20.04
226.404	6.09
226.623	3.99
226.842	-3.87
227.061	-0.06
227.28	9.05
227.499	28.24
227.718	24
227.936	16.31
228.155	9.12
228.374	5.33
228.593	2.31
228.812	-0.77
229.031	-5.14
229.25	12.21
229.469	26.36
229.688	29.73
229.907	40.6
230.125	41.7
230.344	43.68
230.563	35.09
230.782	27.15
231.001	31.2
231.22	31.61
231.438	23.37
231.657	22.37
231.876	22.75
232.095	26.45
232.313	29.82
232.532	23.04
232.751	32.25
232.969	34.94
233.188	31.62
233.407	30.04
233.625	26.12
233.844	28.45
234.063	26.8
234.281	19.41
234.5	14.82
234.719	8.4
234.937	14.55
235.156	22.61
235.374	16.84
235.593	16.37
235.811	9.94
236.03	5.93
236.249	15.25
236.467	18.05
236.686	27.98
236.904	32.42
237.123	44.93
237.341	51.92
237.559	60.04
237.778	72.19
237.996	69.54
238.215	51.84
238.433	53.44
238.652	42.31
238.87	43.18
239.088	32.94
239.307	28.89
239.525	18.26
239.743	14.5
239.962	8.31
240.18	28.08
240.398	15.36
240.617	30.24
240.835	30.85
241.053	33.41
241.271	45.77
241.49	35.48
241.708	28.53
241.926	23.56
242.144	22.21
242.363	10.62
242.581	15.68
242.799	-2.31
243.017	8.4
243.235	4.09
243.453	23.38
243.672	14.08
243.89	17.34
244.108	26.19
244.326	32.79
244.544	36.92
244.762	31.88
244.98	16.53
245.198	16.16
245.416	27.86
245.634	30.94
245.852	36.09
246.07	29.8
246.288	19.44
246.506	35.88
246.724	40.52
246.942	37.61
247.16	23.52
247.378	17.8
247.596	29.19
247.814	29.63
248.032	15.89
248.25	9.62
248.468	14.79
248.685	21.25
248.903	17.99
249.121	16.02
249.339	17.61
249.557	26.37
249.775	20.03
249.992	8.4
250.21	3.96
250.428	1.75
250.646	3.97
250.863	4.46
251.081	-0.37
251.299	17.46
251.517	20.59
251.734	34.3
251.952	44.58
252.17	31.99
252.387	30
252.605	48.77
252.823	43.85
253.04	39.32
253.258	25.01
253.475	22.85
253.693	30.81
253.911	30.78
254.128	13.06
254.346	13.56
254.563	13.67
254.781	18.43
254.998	21.14
255.216	23.3
255.433	26.97
255.651	29.79
255.868	33.41
256.086	41.27
256.303	35.1
256.521	22.6
256.738	10.41
256.956	6.4
257.173	9.67
257.39	7.49
257.608	6.92
257.825	9.02
258.043	19.41
258.26	17.57
258.477	24.81
258.695	29.48
258.912	28.88
259.129	18.75
259.346	20.56
259.564	16.28
259.781	33.27
259.998	28.48
260.216	32.79
260.433	36.07
260.65	45.93
260.867	23.17
261.084	26.95
261.302	12.93
261.519	1.17
261.736	-16.88
261.953	-16.9
262.17	-17.27
262.387	-10.51
262.604	-23.73
262.822	2.13
263.039	12.53
263.256	17.84
263.473	10.69
263.69	11.11
263.907	20.2
264.124	13.87
264.341	-5.38
264.558	0.41
264.775	-0.12
264.992	2.88
265.209	13.85
265.426	17.23
265.643	26.58
265.86	25.43
266.077	26.55
266.294	29.2
266.51	28.95
266.727	22.07
266.944	16.22
267.161	8.84
267.378	24.47
267.595	8.84
267.812	-5.21
268.028	5.46
268.245	9.54
268.462	17.34
268.679	12.57
268.896	-9.49
269.112	2.8
269.329	14.7
269.546	4.64
269.763	7.27
269.979	3.21
270.196	12.01
270.413	28.61
270.629	22.39
270.846	26.07
271.063	37.5
271.279	35.5
271.496	30.66
271.712	25.76
271.929	21.56
272.146	28.09
272.362	7.9
272.579	-6.18
272.795	-10.04
273.012	0.39
273.228	-0.97
273.445	3.15
273.661	-5.3
273.878	5.62
274.094	9.56
274.311	15.79
274.527	13.31
274.744	7.75
274.96	5.93
275.177	10.61
275.393	14.33
275.609	19.61
275.826	23.75
276.042	34.5
276.259	40.63
276.475	34.97
276.691	40.06
276.908	32.35
277.124	22.09
277.34	12.68
277.557	11.27
277.773	8.67
277.989	12.1
278.205	-5.48
278.422	10.61
278.638	21.3
278.854	29.39
279.07	22.82
279.286	22.34
279.503	25.16
279.719	40.52
279.935	27.74
280.151	33.12
280.367	30.8
280.583	35.7
280.799	41.39
281.016	37.35
281.232	34.93
281.448	33.55
281.664	21.16
281.88	17.35
282.096	14.2
282.312	12.23
282.528	-4.11
282.744	-6.04
282.96	4.96
283.176	16.36
283.392	15.89
283.608	24.25
283.824	12.57
284.04	26.42
284.256	29.3
284.471	21.08
284.687	16.94
284.903	12.82
285.119	-0.38
285.335	6.15
285.551	12.35
285.767	12.74
285.982	20.84
286.198	9.39
286.414	18.18
286.63	27.44
286.846	23.87
287.061	21.48
287.277	22.53
287.493	19.68
287.709	29.23
287.924	25.32
288.14	23.14
288.356	38.26
288.571	36.92
288.787	38.13
289.003	47.79
289.218	45.16
289.434	44.77
289.65	41.06
289.865	31.12
290.081	24.69
290.296	17.12
290.512	14.54
290.727	25.79
290.943	24.03
291.159	20.11
291.374	27.51
291.59	27.38
291.805	31.24
292.021	17.34
292.236	2.99
292.451	3.14
292.667	6.23
292.882	-0.95
293.098	-1.1
293.313	-5.32
293.529	3.96
293.744	3.69
293.959	8.13
294.175	2.47
294.39	-5.05
294.605	6.91
294.821	4.6
295.036	5.54
295.251	-2.3
295.467	1.3
295.682	10.05
295.897	17.76
296.112	12.38
296.328	19.94
296.543	13.82
296.758	12.63
296.973	12.38
297.188	8.49
297.404	7.81
297.619	6.84
297.834	19.36
298.049	25.27
298.264	28.58
298.479	23.81
298.694	30.42
298.909	32
299.125	24.39
299.34	9.91
299.555	16.06
299.77	16.05
299.985	17.39
300.2	15.11
300.415	19.32
300.63	23.03
300.845	28.31
301.06	19.68
301.275	26.19
301.49	27.55
301.704	24.51
301.919	17.34
302.134	16.2
302.349	11.77
302.564	17.38
302.779	17.52
302.994	9.52
303.209	2.39
303.423	13.6
303.638	16.49
303.853	26.87
304.068	24.23
304.283	19
304.497	28.89
304.712	28.97
304.927	16.88
305.142	16.38
305.356	11.29
305.571	16.79
305.786	21.44
306	22.53
306.215	29.13
306.43	44.5
306.644	41.93
306.859	51.31
307.074	44.82
307.288	32.43
307.503	22.13
307.717	18.27
307.932	14.27
308.147	13.28
308.361	3.69
308.576	0.95
308.79	9.31
309.005	18.04
309.219	21.29
309.434	24.95
309.648	23.09
309.863	24.41
310.077	37.01
310.292	41.63
310.506	44.48
310.72	35.25
310.935	27.14
311.149	28.13
311.364	30.78
311.578	24.68
311.792	12.97
312.007	2.26
312.221	14.47
312.435	13.83
312.649	21.62
312.864	14.1
313.078	11.64
313.292	31.98
313.507	42.42
313.721	47.46
313.935	62.88
314.149	43.92
314.363	47.48
314.578	64.42
314.792	52.92
315.006	44.15
315.22	44.1
315.434	28.05
315.648	24.62
315.862	26.12
316.077	14.09
316.291	17.48
316.505	22.42
316.719	11.86
316.933	23.53
317.147	27.61
317.361	29.12
317.575	34.34
317.789	36.55
318.003	39.28
318.217	45.45
318.431	36.38
318.645	31.67
318.859	16.14
319.073	13.05
319.287	13.74
319.5	11.12
319.714	6.91
319.928	8.91
320.142	12.53
320.356	27.83
320.57	24.5
320.784	23.04
320.997	28.55
321.211	25.51
321.425	19.51
321.639	21.83
321.853	14.24
322.066	13.42
322.28	14.37
322.494	5.98
322.707	3.28
322.921	12.01
323.135	13.22
323.349	18.39
323.562	24.11
323.776	23.13
323.989	20.85
324.203	29.07
324.417	12.46
324.63	4.2
324.844	-4.78
325.057	1.08
325.271	-8.13
325.485	-5.28
325.698	-11.63
325.912	5.6
326.125	15.89
326.339	22.9
326.552	18.09
326.766	28.03
326.979	35.91
327.193	40.1
327.406	39.48
327.619	23.88
327.833	24.01
328.046	18.31
328.26	5.82
328.473	0.89
328.686	0.54
328.9	-0.13
329.113	3.28
329.326	7.45
329.54	6.27
329.753	12.47
329.966	10.6
330.179	14.86
330.393	15.93
330.606	30.62
330.819	25.12
331.032	23.06
331.246	25.98
331.459	23.38
331.672	26.45
331.885	24.76
332.098	14.95
332.311	4.29
332.525	17.1
332.738	13.08
332.951	14.85
333.164	-0.18
333.377	-15.65
333.59	-5.41
333.803	13.84
334.016	-0.9
334.229	7.21
334.442	12.35
334.655	28.22
334.868	44.74
335.081	43.79
335.294	31.63
335.507	38.59
335.72	24.15
335.933	28.67
336.146	24.83
336.359	17.44
336.572	13.55
336.785	20.51
336.997	12.56
337.21	23.73
337.423	14.2
337.636	17.2
337.849	16.35
338.062	18.43
338.274	18.62
338.487	14.16
338.7	17
338.913	17.36
339.125	15.11
339.338	27.11
339.551	28.95
339.763	26.11
339.976	34.29
340.189	30.1
340.402	30.25
340.614	32.47
340.827	20.91
341.039	15.39
341.252	17.24
341.465	5.55
341.677	4.12
341.89	3.41
342.102	6.04
342.315	11.73
342.527	5.06
342.74	-4.13
342.952	3.41
343.165	11.76
343.377	15.53
343.59	13.78
343.802	12.12
344.015	19.19
344.227	17.96
344.44	17.81
344.652	8.92
344.864	10.03
345.077	7.79
345.289	8.45
345.502	9.47
345.714	12.43
345.926	19.26
346.139	32.5
346.351	32.17
346.563	37.37
346.775	33.91
346.988	38.05
347.2	35.85
347.412	26.69
347.624	21.43
347.837	20.46
348.049	17.34
348.261	16.78
348.473	3.11
348.685	14.87
348.897	17.51
349.11	20.1
349.322	14.02
349.534	13.08
349.746	20.62
349.958	30.19
350.17	23.6
350.382	17.09
350.594	18.5
350.806	25.97
351.018	24.97
351.23	23
351.442	24.52
351.654	22.71
351.866	29.9
352.078	22.05
352.29	22.4
352.502	20.7
352.714	21.85
352.926	22.27
353.138	20.44
353.35	19.28
353.561	19.46
353.773	21.6
353.985	26.54
354.197	17.45
354.409	14.06
354.621	15.57
354.832	8.87
355.044	20.13
355.256	8.5
355.468	0.94
355.679	14.96
355.891	12.89
356.103	13.72
356.314	15.16
356.526	13.45
356.738	18.48
356.949	22.58
357.161	20.76
357.373	16.2
357.584	22.59
357.796	26.62
358.008	24.57
358.219	35.99
358.431	30.38
358.642	26.81
358.854	32.85
359.065	26.49
359.277	25.42
359.488	14.53
359.7	6.85
359.911	6.72
360.123	9.84
360.334	9.12
360.546	3.61
360.757	5.28
360.969	21.12
361.18	18.06
361.391	21.43
361.603	26.43
361.814	28.41
362.025	32.63
362.237	33.43
362.448	28.76
362.659	21.46
362.871	23.88
363.082	20.45
363.293	19.47
363.504	18.46
363.716	18.46
363.927	13.26
364.138	17.88
364.349	13.39
364.56	13.51
364.772	18.77
364.983	15.44
365.194	10.17
365.405	11.55
365.616	7.31
365.827	8.63
366.038	16.04
366.25	11.56
366.461	22.33
366.672	30.19
366.883	24.2
367.094	28.64
367.305	31.09
367.516	19.49
367.727	17.44
367.938	14.67
368.149	16.85
368.36	22.24
368.571	21.96
368.781	18.59
368.992	22.02
369.203	23.2
369.414	13.96
369.625	13.22
369.836	12.31
370.047	14.13
370.258	14.4
370.468	10.76
370.679	5.99
370.89	19.07
371.101	11.54
371.312	9.15
371.522	10.34
371.733	3.33
371.944	6.28
372.155	-2.43
372.365	-11.92
372.576	-3.93
372.787	-7.62
372.997	-8.7
373.208	1.06
373.419	4.22
373.629	16.68
373.84	14.69
374.05	11.96
374.261	11.75
374.472	10.53
374.682	3.64
374.893	-5.32
375.103	-7.69
375.314	-1.46
375.524	4.45
375.735	7.14
375.945	11.2
376.156	14.43
376.366	23.32
376.577	26.91
376.787	24.69
376.997	19.52
377.208	17.87
377.418	15.27
377.629	19.56
377.839	18.41
378.049	16.84
378.26	20.5
378.47	23.42
378.68	23.38
378.89	16.39
379.101	5.43
379.311	3.04
379.521	8.3
379.732	-3.39
379.942	-4.39
380.152	7.96
380.362	15.82
380.572	20.88
380.783	20.22
380.993	17.68
381.203	26.26
381.413	30.9
381.623	23.27
381.833	21.08
382.043	17.74
382.253	13.76
382.463	12.67
382.674	9.69
382.884	6.54
383.094	6
383.304	5.13
383.514	13.42
383.724	17.02
383.934	16.1
384.144	20.41
384.353	19.77
384.563	17.23
384.773	17.25
384.983	14.02
385.193	13.79
385.403	14.38
385.613	10.75
385.823	5.39
386.033	5.74
386.242	6.13
386.452	5.6
386.662	4.19
386.872	1.46
387.082	-3.02
387.291	1.27
387.501	1.5
387.711	0.18
387.921	0.41
388.13	0.01
388.34	-0.34
388.55	5.31
388.759	4.61
388.969	3.24
389.179	6
389.388	6.87
389.598	6.23
389.807	6.59
390.017	5.39
390.227	5.04
390.436	5.77
390.646	5.32
390.855	6.06
391.065	5.7
391.274	5.8
391.484	6.3
391.693	7.68
391.903	7.84
392.112	6.98
392.322	6.37
392.531	7.04
392.74	5.94
392.95	6.49
393.159	6.4
393.369	5.69
393.578	6.13
393.787	6.53
393.997	7.28
394.206	8.02
394.415	6.97
394.625	4.71
394.834	4.53
395.043	4.27
395.252	4.02
395.462	3.59
395.671	3.62
395.88	4.02
396.089	4.8
396.298	5.04
396.508	4.67
396.717	4.47
396.926	3.7
397.135	3.46
397.344	3.38
397.553	3.85
397.762	3.74
397.971	3.85
398.181	3.46
398.39	4.01
398.599	4.43
398.808	4.36
399.017	4.34
399.226	4.82
399.435	4.89
399.644	5.11
399.853	5.13
400.062	4.84
400.27	4.89
400.479	4.57
400.688	4.5
400.897	4.69
401.106	4.71
401.315	4.55
401.524	4.57
401.733	4.65
401.941	4.63
402.15	4.39
402.359	4.19
402.568	4.11
402.777	4.21
402.985	4.16
403.194	4.02
403.403	3.92
403.612	3.92
403.82	3.88
404.029	3.93
404.238	3.93
404.446	3.97
404.655	3.87
404.864	4.03
405.072	4.03
405.281	3.96
405.489	3.88
405.698	3.72
405.906	3.69
406.115	3.85
406.324	3.78
406.532	3.76
406.741	3.83
406.949	3.83
407.158	3.97
407.366	4.08
407.574	4.01
407.783	4.01
407.991	3.95
408.2	3.88
408.408	3.88
408.617	3.78
408.825	3.69
409.033	3.57
409.242	3.57
409.45	3.59
409.658	3.6
409.867	3.57
410.075	3.52
410.283	3.4
410.491	3.42
410.7	3.4
410.908	3.41
411.116	3.33
411.324	3.37
411.533	3.33
411.741	3.37
411.949	3.39
412.157	3.43
412.365	3.42
412.573	3.52
412.781	3.53
412.99	3.6
413.198	3.59
413.406	3.52
413.614	3.52
413.822	3.5
414.03	3.41
414.238	3.39
414.446	3.32
414.654	3.35
414.862	3.37
415.07	3.43
415.278	3.39
415.486	3.47
415.694	3.33
415.902	3.34
416.109	3.35
416.317	3.28
416.525	3.22
416.733	3.29
416.941	3.2
417.149	3.41
417.357	3.48
417.564	3.36
417.772	3.48
417.98	3.4
418.188	3.26
418.395	3.3
418.603	3.06
418.811	2.91
419.019	3.01
419.226	3.02
419.434	2.93
419.642	3
419.849	3.05
420.057	3.13
420.265	3.23
420.472	3.12
420.68	3.03
420.887	3.13
421.095	3.15
421.302	3.09
421.51	3.17
421.717	3.12
421.925	3.05
422.132	3.05
422.34	3.06
422.547	2.9
422.755	2.91
422.962	2.82
423.17	2.86
423.377	3.08
423.585	3.11
423.792	3
423.999	3.08
424.207	2.99
424.414	3.05
424.621	3.05
424.829	2.87
425.036	2.81
425.243	2.99
425.451	2.96
425.658	3.05
425.865	3.05
426.072	3.14
426.28	3.28
426.487	3.38
426.694	3.2
426.901	3.17
427.108	3.18
427.315	3.14
427.523	3.05
427.73	3.01
427.937	2.96
428.144	3.01
428.351	3.21
428.558	3.12
428.765	3.08
428.972	3.08
429.179	3.05
429.386	3.12
429.593	3.12
429.8	3.12
430.007	3.13
430.214	3.18
430.421	3.18
430.628	3.08
430.835	3.03
431.042	3.03
431.249	2.97
431.456	3.09
431.662	3.1
431.869	3.2
432.076	3.28
432.283	3.26
432.49	3.27
432.697	3.26
432.903	3.25
433.11	3.26
433.317	3.21
433.524	3.15
433.73	3.16
433.937	3.09
434.144	3.13
434.35	3.06
434.557	3.05
434.764	3.05
434.97	3.17
435.177	3.22
435.384	3.4
435.59	3.38
435.797	3.42
436.003	3.43
436.21	3.43
436.416	3.39
436.623	3.41
436.829	3.38
437.036	3.38
437.242	3.35
437.449	3.39
437.655	3.39
437.862	3.43
438.068	3.44
438.275	3.4
438.481	3.48
438.687	3.62
438.894	3.57
439.1	3.66
439.307	3.65
439.513	3.66
439.719	3.74
439.926	3.76
440.132	3.7
440.338	3.73
440.544	3.66
440.751	3.69
440.957	3.66
441.163	3.6
441.369	3.55
441.575	3.56
441.782	3.57
441.988	3.56
442.194	3.57
442.4	3.54
442.606	3.59
442.812	3.6
443.018	3.59
443.224	3.61
443.431	3.68
443.637	3.64
443.843	3.67
444.049	3.63
444.255	3.62
444.461	3.59
444.667	3.59
444.873	3.57
445.079	3.62
445.284	3.62
445.49	3.63
445.696	3.68
445.902	3.74
446.108	3.72
446.314	3.73
446.52	3.75
446.726	3.81
446.931	3.85
447.137	3.84
447.343	3.83
447.549	3.84
447.755	3.87
447.96	3.8
448.166	3.82
448.372	3.8
448.578	3.82
448.783	3.83
448.989	3.85
449.195	3.85
449.4	3.9
449.606	3.86
449.812	3.89
450.017	3.86
450.223	3.89
450.428	3.94
450.634	4
450.84	4.03
451.045	4.03
451.251	4.05
451.456	4.02
451.662	4.01
451.867	3.98
452.073	3.92
452.278	3.92
452.483	3.89
452.689	3.87
452.894	3.9
453.1	3.85
453.305	3.82
453.51	3.86
453.716	3.87
453.921	3.9
454.127	3.89
454.332	3.9
454.537	3.96
454.742	3.98
454.948	3.93
455.153	3.95
455.358	4.05
455.563	4.03
455.769	4.03
455.974	4.01
456.179	4.02
456.384	4.02
456.589	4.06
456.795	3.96
457	4.01
457.205	4
457.41	4.02
457.615	4.07
457.82	4.12
458.025	4.06
458.23	4.11
458.435	4.07
458.64	4.1
458.845	4.08
459.05	4.04
459.255	3.99
459.46	3.95
459.665	3.98
459.87	4.01
460.075	4.02
460.28	4.09
460.485	4.09
460.69	4.05
460.895	4.09
461.099	4.11
461.304	4.12
461.509	4.08
461.714	4.05
461.919	4.05
462.123	4.14
462.328	4.14
462.533	4.09
462.738	4.06
462.942	4.14
463.147	4.12
463.352	4.15
463.556	4.2
463.761	4.23
463.966	4.31
464.17	4.4
464.375	4.33
464.58	4.35
464.784	4.39
464.989	4.32
465.193	4.35
465.398	4.38
465.602	4.32
465.807	4.35
466.011	4.4
466.216	4.39
466.42	4.43
466.625	4.44
466.829	4.42
467.034	4.54
467.238	4.62
467.443	4.64
467.647	4.66
467.851	4.67
468.056	4.63
468.26	4.61
468.464	4.57
468.669	4.54
468.873	4.53
469.077	4.56
469.282	4.61
469.486	4.65
469.69	4.66
469.894	4.71
470.099	4.74
470.303	4.72
470.507	4.7
470.711	4.66
470.915	4.7
471.119	4.78
471.324	4.72
471.528	4.73
471.732	4.74
471.936	4.82
472.14	4.87
472.344	4.9
472.548	4.9
472.752	5
472.956	5.05
473.16	5.09
473.364	5.07
473.568	5.06
473.772	5.08
473.976	5.08
474.18	5.03
474.384	5.01
474.588	5.01
474.792	4.99
474.995	5.02
475.199	5.01
475.403	5.05
475.607	5.1
475.811	5.1
476.015	5.14
476.218	5.19
476.422	5.17
476.626	5.14
476.83	5.12
477.033	5.13
477.237	5.17
477.441	5.16
477.644	5.17
477.848	5.2
478.052	5.25
478.255	5.26
478.459	5.28
478.663	5.29
478.866	5.31
479.07	5.35
479.273	5.34
479.477	5.39
479.681	5.41
479.884	5.35
480.088	5.36
480.291	5.38
480.495	5.41
480.698	5.43
480.901	5.4
481.105	5.44
481.308	5.48
481.512	5.49
481.715	5.5
481.919	5.48
482.122	5.53
482.325	5.55
482.529	5.6
482.732	5.66
482.935	5.68
483.138	5.69
483.342	5.77
483.545	5.79
483.748	5.81
483.952	5.78
484.155	5.79
484.358	5.75
484.561	5.77
484.764	5.75
484.967	5.79
485.171	5.78
485.374	5.78
485.577	5.84
485.78	5.88
485.983	5.91
486.186	5.89
486.389	5.84
486.592	5.84
486.795	5.84
486.998	5.77
487.201	5.76
487.404	5.75
487.607	5.78
487.81	5.81
488.013	5.83
488.216	5.84
488.419	5.86
488.622	5.86
488.825	5.84
489.028	5.83
489.231	5.8
489.433	5.78
489.636	5.75
489.839	5.79
490.042	5.8
490.245	5.82
490.447	5.8
490.65	5.84
490.853	5.84
491.056	5.88
491.258	5.9
491.461	5.87
491.664	5.87
491.866	5.91
492.069	5.92
492.272	5.93
492.474	5.94
492.677	5.91
492.879	5.94
493.082	5.98
493.285	5.97
493.487	5.94
493.69	5.94
493.892	5.96
494.095	5.96
494.297	5.98
494.5	6.01
494.702	6.02
494.905	6.05
495.107	6.08
495.309	6.07
495.512	6.12
495.714	6.15
495.917	6.15
496.119	6.19
496.321	6.23
496.524	6.23
496.726	6.25
496.928	6.26
497.13	6.27
497.333	6.3
497.535	6.29
497.737	6.28
497.939	6.26
498.142	6.27
498.344	6.28
498.546	6.32
498.748	6.28
498.95	6.25
499.152	6.29
499.355	6.33
499.557	6.38
499.759	6.39
499.961	6.4
500.163	6.44
500.365	6.49
500.567	6.45
500.769	6.51
500.971	6.48
501.173	6.5
501.375	6.49
501.577	6.54
501.779	6.57
501.981	6.6
502.183	6.56
502.385	6.58
502.587	6.57
502.788	6.53
502.99	6.49
503.192	6.5
503.394	6.54
503.596	6.6
503.798	6.67
503.999	6.7
504.201	6.74
504.403	6.78
504.605	6.81
504.806	6.78
505.008	6.76
505.21	6.73
505.411	6.75
505.613	6.77
505.815	6.81
506.016	6.81
506.218	6.84
506.42	6.86
506.621	6.91
506.823	6.9
507.024	6.92
507.226	6.9
507.427	6.88
507.629	6.89
507.83	6.85
508.032	6.83
508.233	6.86
508.435	6.85
508.636	6.85
508.838	6.87
509.039	6.91
509.24	6.95
509.442	6.92
509.643	6.91
509.845	6.91
510.046	6.95
510.247	7.01
510.448	7.03
510.65	7.05
510.851	7.11
511.052	7.12
511.254	7.11
511.455	7.11
511.656	7.05
511.857	7.04
512.058	7.04
512.26	7.02
512.461	7.04
512.662	7.05
512.863	7.02
513.064	7.01
513.265	7.01
513.466	7.06
513.667	7.09
513.868	7.07
514.069	7.1
514.27	7.14
514.471	7.17
514.672	7.19
514.873	7.2
515.074	7.22
515.275	7.22
515.476	7.24
515.677	7.27
515.878	7.29
516.079	7.31
516.28	7.27
516.481	7.25
516.682	7.3
516.882	7.29
517.083	7.26
517.284	7.23
517.485	7.24
517.686	7.25
517.886	7.28
518.087	7.28
518.288	7.29
518.488	7.3
518.689	7.3
518.89	7.33
519.091	7.34
519.291	7.3
519.492	7.29
519.692	7.33
519.893	7.35
520.094	7.36
520.294	7.31
520.495	7.32
520.695	7.32
520.896	7.32
521.096	7.31
521.297	7.3
521.497	7.32
521.698	7.36
521.898	7.36
522.099	7.42
522.299	7.43
522.499	7.44
522.7	7.46
522.9	7.46
523.101	7.45
523.301	7.46
523.501	7.47
523.702	7.46
523.902	7.49
524.102	7.49
524.302	7.52
524.503	7.55
524.703	7.57
524.903	7.59
525.103	7.61
525.304	7.59
525.504	7.59
525.704	7.56
525.904	7.57
526.104	7.58
526.304	7.55
526.504	7.54
526.705	7.55
526.905	7.55
527.105	7.59
527.305	7.58
527.505	7.59
527.705	7.58
527.905	7.59
528.105	7.59
528.305	7.6
528.505	7.63
528.705	7.65
528.905	7.62
529.105	7.67
529.304	7.69
529.504	7.69
529.704	7.7
529.904	7.71
530.104	7.73
530.304	7.78
530.503	7.75
530.703	7.77
530.903	7.79
531.103	7.83
531.303	7.86
531.502	7.85
531.702	7.82
531.902	7.85
532.101	7.84
532.301	7.83
532.501	7.83
532.7	7.81
532.9	7.86
533.1	7.85
533.299	7.87
533.499	7.9
533.698	7.95
533.898	7.93
534.097	7.93
534.297	7.91
534.496	7.95
534.696	7.95
534.895	7.97
535.095	7.98
535.294	7.97
535.494	8
535.693	8.06
535.892	8.05
536.092	8.05
536.291	8.05
536.491	8.01
536.69	8.04
536.889	8.04
537.088	8.03
537.288	8.1
537.487	8.13
537.686	8.14
537.886	8.19
538.085	8.24
538.284	8.26
538.483	8.29
538.682	8.27
538.882	8.26
539.081	8.28
539.28	8.28
539.479	8.29
539.678	8.36
539.877	8.36
540.076	8.39
540.275	8.43
540.474	8.42
540.673	8.46
540.872	8.47
541.071	8.46
541.27	8.48
541.469	8.48
541.668	8.5
541.867	8.57
542.066	8.57
542.265	8.58
542.464	8.62
542.663	8.66
542.862	8.74
543.06	8.8
543.259	8.79
543.458	8.83
543.657	8.86
543.856	8.85
544.054	8.88
544.253	8.86
544.452	8.83
544.651	8.86
544.849	8.9
545.048	8.92
545.247	8.95
545.445	8.93
545.644	8.94
545.843	8.97
546.041	9.01
546.24	9.03
546.438	9.09
546.637	9.14
546.836	9.19
547.034	9.22
547.233	9.3
547.431	9.34
547.63	9.4
547.828	9.41
548.027	9.41
548.225	9.48
548.423	9.53
548.622	9.54
548.82	9.57
549.019	9.57
549.217	9.64
549.415	9.75
549.614	9.75
549.812	9.81
550.01	9.83
550.209	9.88
550.407	9.95
550.605	10.01
550.803	9.99
551.002	10.02
551.2	10.07
551.398	10.13
551.596	10.15
551.794	10.22
551.993	10.22
552.191	10.3
552.389	10.37
552.587	10.41
552.785	10.52
552.983	10.59
553.181	10.58
553.379	10.67
553.577	10.73
553.775	10.77
553.973	10.86
554.171	10.88
554.369	10.95
554.567	11.03
554.765	11.04
554.963	11.08
555.161	11.18
555.359	11.22
555.557	11.29
555.755	11.35
555.952	11.46
556.15	11.54
556.348	11.61
556.546	11.66
556.744	11.73
556.941	11.77
557.139	11.85
557.337	11.87
557.535	11.94
557.732	12.02
557.93	12.12
558.128	12.18
558.325	12.29
558.523	12.31
558.721	12.38
558.918	12.46
559.116	12.52
559.313	12.59
559.511	12.64
559.708	12.7
559.906	12.8
560.104	12.92
560.301	12.98
560.498	13.04
560.696	13.09
560.893	13.18
561.091	13.22
561.288	13.3
561.486	13.33
561.683	13.41
561.88	13.46
562.078	13.52
562.275	13.64
562.473	13.73
562.67	13.79
562.867	13.88
563.064	13.99
563.262	14.14
563.459	14.26
563.656	14.31
563.853	14.41
564.051	14.49
564.248	14.61
564.445	14.66
564.642	14.72
564.839	14.79
565.036	14.9
565.234	15
565.431	15.07
565.628	15.11
565.825	15.2
566.022	15.27
566.219	15.32
566.416	15.39
566.613	15.5
566.81	15.59
567.007	15.65
567.204	15.72
567.401	15.82
567.598	15.89
567.795	15.95
567.991	16
568.188	16.11
568.385	16.2
568.582	16.29
568.779	16.37
568.976	16.5
569.172	16.55
569.369	16.64
569.566	16.65
569.763	16.72
569.96	16.78
570.156	16.83
570.353	16.82
570.55	16.93
570.746	16.96
570.943	17.07
571.14	17.11
571.336	17.13
571.533	17.19
571.729	17.27
571.926	17.31
572.123	17.36
572.319	17.4
572.516	17.42
572.712	17.51
572.909	17.55
573.105	17.65
573.302	17.65
573.498	17.72
573.695	17.76
573.891	17.89
574.087	17.9
574.284	17.91
574.48	17.84
574.677	17.91
574.873	17.94
575.069	18.02
575.266	18.03
575.462	18.09
575.658	18.17
575.854	18.24
576.051	18.27
576.247	18.28
576.443	18.29
576.639	18.3
576.835	18.32
577.032	18.35
577.228	18.41
577.424	18.44
577.62	18.46
577.816	18.45
578.012	18.49
578.208	18.48
578.404	18.47
578.6	18.47
578.796	18.5
578.993	18.5
579.189	18.5
579.384	18.47
579.58	18.48
579.776	18.46
579.972	18.42
580.168	18.41
580.364	18.42
580.56	18.45
580.756	18.47
580.952	18.47
581.148	18.5
581.343	18.56
581.539	18.56
581.735	18.57
581.931	18.56
582.127	18.56
582.322	18.59
582.518	18.55
582.714	18.51
582.909	18.46
583.105	18.44
583.301	18.39
583.496	18.36
583.692	18.36
583.888	18.36
584.083	18.4
584.279	18.47
584.474	18.46
584.67	18.48
584.866	18.48
585.061	18.46
585.257	18.47
585.452	18.4
585.648	18.39
585.843	18.42
586.039	18.39
586.234	18.42
586.429	18.45
586.625	18.44
586.82	18.45
587.015	18.4
587.211	18.41
587.406	18.47
587.601	18.46
587.797	18.44
587.992	18.45
588.187	18.5
588.383	18.56
588.578	18.54
588.773	18.53
588.968	18.65
589.163	18.71
589.359	18.71
589.554	18.72
589.749	18.75
589.944	18.8
590.139	18.87
590.334	18.79
590.529	18.85
590.724	18.9
590.919	18.99
591.114	19.02
591.309	19.05
591.504	18.99
591.699	19.02
591.894	19.04
592.089	19.07
592.284	19.05
592.479	19.11
592.674	19.15
592.869	19.27
593.064	19.37
593.259	19.38
593.454	19.43
593.648	19.49
593.843	19.51
594.038	19.51
594.233	19.56
594.428	19.56
594.622	19.59
594.817	19.64
595.012	19.72
595.206	19.8
595.401	19.89
595.596	19.93
595.79	20
595.985	20.11
596.18	20.18
596.374	20.22
596.569	20.26
596.763	20.35
596.958	20.38
597.153	20.45
597.347	20.5
597.542	20.56
597.736	20.62
597.931	20.68
598.125	20.7
598.319	20.77
598.514	20.85
598.708	20.86
598.903	20.95
599.097	21.02
599.291	21.06
599.486	21.1
599.68	21.14
599.874	21.18
600.069	21.28
600.263	21.26
600.457	21.31
600.651	21.35
600.846	21.4
601.04	21.47
601.234	21.53
601.428	21.51
601.622	21.55
601.817	21.57
602.011	21.59
602.205	21.62
602.399	21.67
602.593	21.66
602.787	21.76
602.981	21.78
603.175	21.77
603.369	21.78
603.563	21.8
603.757	21.76
603.951	21.75
604.145	21.7
604.339	21.68
604.533	21.7
604.727	21.73
604.921	21.71
605.115	21.7
605.309	21.69
605.502	21.72
605.696	21.71
605.89	21.71
606.084	21.66
606.278	21.67
606.471	21.66
606.665	21.63
606.859	21.56
607.053	21.5
607.246	21.45
607.44	21.44
607.634	21.39
607.827	21.3
608.021	21.25
608.214	21.23
608.408	21.25
608.602	21.24
608.795	21.16
608.989	21.13
609.182	21.18
609.376	21.12
609.569	21.03
609.763	21
609.956	20.91
610.15	20.84
610.343	20.78
610.537	20.7
610.73	20.67
610.923	20.65
611.117	20.56
611.31	20.49
611.504	20.5
611.697	20.47
611.89	20.44
612.083	20.32
612.277	20.23
612.47	20.2
612.663	20.17
612.856	20.12
613.05	20.02
613.243	19.93
613.436	19.92
613.629	19.92
613.822	19.84
614.015	19.8
614.209	19.76
614.402	19.71
614.595	19.63
614.788	19.54
614.981	19.43
615.174	19.37
615.367	19.34
615.56	19.23
615.753	19.19
615.946	19.2
616.139	19.19
616.332	19.17
616.525	19.16
616.718	19.09
616.911	19.08
617.103	19.08
617.296	19.01
617.489	18.99
617.682	19
617.875	18.92
618.067	18.9
618.26	18.84
618.453	18.75
618.646	18.7
618.838	18.65
619.031	18.58
619.224	18.62
619.417	18.58
619.609	18.61
619.802	18.57
619.994	18.6
620.187	18.57
620.38	18.59
620.572	18.54
620.765	18.51
620.957	18.37
621.15	18.35
621.342	18.31
621.535	18.29
621.727	18.2
621.92	18.18
622.112	18.16
622.305	18.14
622.497	18.13
622.69	18.09
622.882	18.09
623.074	18.1
623.267	18.06
623.459	18.06
623.651	18.12
623.844	18.14
624.036	18.13
624.228	18.08
624.42	18.02
624.613	18
624.805	17.99
624.997	17.97
625.189	17.96
625.381	17.95
625.574	17.92
625.766	17.94
625.958	17.92
626.15	17.89
626.342	17.87
626.534	17.81
626.726	17.81
626.918	17.8
627.11	17.76
627.302	17.73
627.494	17.74
627.686	17.68
627.878	17.62
628.07	17.55
628.262	17.49
628.454	17.45
628.646	17.39
628.838	17.29
629.029	17.26
629.221	17.23
629.413	17.2
629.605	17.19
629.797	17.21
629.989	17.21
630.18	17.19
630.372	17.22
630.564	17.25
630.755	17.24
630.947	17.22
631.139	17.14
631.33	17.13
631.522	17.11
631.714	17.03
631.905	16.92
632.097	16.92
632.289	16.83
632.48	16.81
632.672	16.76
632.863	16.75
633.055	16.75
633.246	16.81
633.438	16.74
633.629	16.81
633.821	16.83
634.012	16.81
634.203	16.79
634.395	16.76
634.586	16.7
634.777	16.67
634.969	16.63
635.16	16.55
635.351	16.56
635.543	16.52
635.734	16.49
635.925	16.58
636.117	16.62
636.308	16.6
636.499	16.6
636.69	16.59
636.881	16.62
637.073	16.59
637.264	16.5
637.455	16.51
637.646	16.48
637.837	16.54
638.028	16.56
638.219	16.55
638.41	16.52
638.601	16.54
638.792	16.48
638.983	16.45
639.174	16.45
639.365	16.4
639.556	16.31
639.747	16.37
639.938	16.29
640.129	16.27
640.32	16.29
640.511	16.28
640.701	16.2
640.892	16.24
641.083	16.16
641.274	16.17
641.465	16.16
641.655	16.13
641.846	16.02
642.037	16.03
642.228	16.01
642.418	16.02
642.609	15.99
642.8	15.96
642.99	15.97
643.181	16.01
643.372	16
643.562	15.99
643.753	15.94
643.943	15.9
644.134	15.89
644.324	15.81
644.515	15.79
644.705	15.77
644.896	15.75
645.086	15.73
645.277	15.75
645.467	15.73
645.658	15.71
645.848	15.7
646.038	15.68
646.229	15.67
646.419	15.7
646.61	15.66
646.8	15.66
646.99	15.68
647.18	15.61
647.371	15.61
647.561	15.54
647.751	15.46
647.941	15.41
648.132	15.39
648.322	15.4
648.512	15.41
648.702	15.4
648.892	15.43
649.082	15.44
649.272	15.4
649.462	15.37
649.653	15.36
649.843	15.3
650.033	15.27
650.223	15.24
650.413	15.29
650.603	15.29
650.793	15.24
650.983	15.21
651.172	15.19
651.362	15.17
651.552	15.08
651.742	14.97
651.932	14.93
652.122	14.9
652.312	14.77
652.502	14.71
652.691	14.66
652.881	14.67
653.071	14.6
653.261	14.54
653.45	14.5
653.64	14.51
653.83	14.48
654.019	14.37
654.209	14.29
654.399	14.21
654.588	14.17
654.778	14.08
654.968	13.97
655.157	13.85
655.347	13.72
655.536	13.53
655.726	13.48
655.915	13.31
656.105	13.2
656.294	13.05
656.484	12.95
656.673	12.91
656.863	12.86
657.052	12.72
657.241	12.61
657.431	12.47
657.62	12.37
657.809	12.25
657.999	12.06
658.188	11.88
658.377	11.82
658.567	11.69
658.756	11.6
658.945	11.46
659.134	11.33
659.324	11.26
659.513	11.14
659.702	11
659.891	10.87
660.08	10.73
660.269	10.63
660.458	10.54
660.648	10.43
660.837	10.37
661.026	10.23
661.215	10.1
661.404	10
661.593	9.87
661.782	9.75
661.971	9.65
662.16	9.51
662.349	9.38
662.538	9.35
662.726	9.23
662.915	9.15
663.104	9.02
663.293	8.9
663.482	8.82
663.671	8.8
663.86	8.67
664.048	8.62
664.237	8.59
664.426	8.55
664.615	8.5
664.803	8.39
664.992	8.33
665.181	8.25
665.369	8.17
665.558	8.12
665.747	8.08
665.935	8.1
666.124	8.1
666.312	8
666.501	8.01
666.69	8.01
666.878	7.92
667.067	7.88
667.255	7.84
667.444	7.86
667.632	7.83
667.82	7.81
668.009	7.78
668.197	7.77
668.386	7.76
668.574	7.7
668.762	7.65
668.951	7.63
669.139	7.68
669.327	7.68
669.516	7.69
669.704	7.72
669.892	7.76
670.08	7.73
670.269	7.78
670.457	7.75
670.645	7.77
670.833	7.78
671.021	7.71
671.21	7.73
671.398	7.79
671.586	7.84
671.774	7.81
671.962	7.84
672.15	7.88
672.338	8.01
672.526	8.01
672.714	8.08
672.902	8.15
673.09	8.3
673.278	8.38
673.466	8.55
673.654	8.6
673.842	8.65
674.03	8.7
674.218	8.7
674.405	8.74
674.593	8.69
674.781	8.64
674.969	8.66
675.157	8.68
675.344	8.74
675.532	8.84
675.72	8.87
675.908	9.03
676.095	9.18
676.283	9.27
676.471	9.46
676.658	9.55
676.846	9.62
677.033	9.71
677.221	9.8
677.409	9.82
677.596	9.92
677.784	9.92
677.971	9.95
678.159	10.05
678.346	10.15
678.534	10.23
678.721	10.36
678.909	10.41
679.096	10.5
679.283	10.57
679.471	10.65
679.658	10.71
679.846	10.76
680.033	10.83
680.22	10.92
680.408	11.03
680.595	11.16
680.782	11.25
680.969	11.38
681.157	11.53
681.344	11.69
681.531	11.85
681.718	11.99
681.905	12.17
682.093	12.36
682.28	12.49
682.467	12.58
682.654	12.69
682.841	12.84
683.028	13.06
683.215	13.21
683.402	13.32
683.589	13.54
683.776	13.72
683.963	13.86
684.15	14.05
684.337	14.21
684.524	14.42
684.711	14.62
684.898	14.75
685.085	15.06
685.271	15.28
685.458	15.46
685.645	15.68
685.832	15.93
686.019	16.2
686.205	16.48
686.392	16.75
686.579	17.06
686.766	17.43
686.952	17.82
687.139	18.11
687.326	18.48
687.512	18.82
687.699	19.08
687.886	19.38
688.072	19.85
688.259	20.15
688.445	20.45
688.632	20.91
688.818	21.3
689.005	21.77
689.191	22.28
689.378	22.61
689.564	22.97
689.751	23.55
689.937	23.84
690.124	24.27
690.31	24.7
690.496	25.16
690.683	25.7
690.869	26.22
691.055	26.8
691.242	27.37
691.428	28
691.614	28.64
691.8	29.22
691.987	29.75
692.173	30.43
692.359	30.85
692.545	31.54
692.731	32.14
692.918	32.7
693.104	33.28
693.29	33.83
693.476	34.4
693.662	35.09
693.848	35.48
694.034	35.88
694.22	36.45
694.406	37
694.592	37.61
694.778	38.09
694.964	38.52
695.15	39.13
695.336	39.88
695.522	40.39
695.708	41.03
695.894	41.62
696.08	42.18
696.265	42.76
696.451	43.41
696.637	43.95
696.823	44.42
697.009	44.99
697.194	45.46
697.38	45.96
697.566	46.48
697.751	46.91
697.937	47.32
698.123	47.83
698.308	48.2
698.494	48.75
698.68	49.37
698.865	50.04
699.051	50.49
699.236	50.95
699.422	51.53
699.607	51.95
699.793	52.29
699.978	52.55
700.164	52.73
700.349	53.34
700.535	53.69
700.72	54.12
700.906	54.65
701.091	54.97
701.276	55.55
701.462	56.07
701.647	56.21
701.832	56.63
702.018	56.95
702.203	57.1
702.388	57.37
702.573	57.68
702.759	57.98
702.944	58.46
703.129	58.77
703.314	58.95
703.499	59.43
703.684	60.09
703.87	60.36
704.055	60.62
704.24	60.8
704.425	61.3
704.61	61.71
704.795	61.96
704.98	62.11
705.165	62.43
705.35	62.54
705.535	62.92
705.72	62.83
705.905	62.9
706.09	63
706.275	63.16
706.459	63.38
706.644	63.84
706.829	64.08
707.014	64.3
707.199	64.51
707.384	64.84
707.568	65.12
707.753	65.27
707.938	65.26
708.123	65.2
708.307	65.78
708.492	66.01
708.677	66.22
708.861	66.28
709.046	66.31
709.231	66.6
709.415	66.82
709.6	66.66
709.784	66.93
709.969	66.92
710.153	67.42
710.338	67.54
710.522	67.84
710.707	67.78
710.891	67.98
711.076	67.97
711.26	68.31
711.445	68.09
711.629	68.53
711.813	68.34
711.998	68.58
712.182	68.76
712.366	69.18
712.551	69.12
712.735	69.35
712.919	69.35
713.103	69.58
713.288	69.84
713.472	69.75
713.656	69.34
713.84	69.47
714.024	69.69
714.208	69.74
714.393	70.2
714.577	70.28
714.761	70.69
714.945	71.03
715.129	71.25
715.313	71.17
715.497	71.36
715.681	71.18
715.865	71.28
716.049	71.35
716.233	71.59
716.417	71.93
716.601	72.31
716.785	72.34
716.968	72.37
717.152	72.43
717.336	72.31
717.52	72.44
717.704	72.31
717.888	72.12
718.071	72.38
718.255	72.39
718.439	72.48
718.622	72.71
718.806	72.46
718.99	72.49
719.174	72.51
719.357	72.24
719.541	72.6
719.724	72.73
719.908	72.94
720.092	73.33
720.275	73.56
720.459	73.7
720.642	74.04
720.826	73.89
721.009	74.03
721.193	73.96
721.376	73.78
721.559	73.64
721.743	73.69
721.926	73.67
722.11	73.94
722.293	73.5
722.476	73.64
722.66	73.94
722.843	74.27
723.026	74.3
723.21	74.23
723.393	74.15
723.576	74.57
723.759	74.69
723.942	74.57
724.126	74.51
724.309	74.66
724.492	74.92
724.675	75.16
724.858	75.57
725.041	75.73
725.224	76.05
725.407	75.97
725.59	76.14
725.774	76.11
725.957	76
726.14	76.1
726.322	75.78
726.505	76.33
726.688	76.63
726.871	76.61
727.054	76.89
727.237	76.9
727.42	77.06
727.603	77.38
727.786	77.22
727.968	77.45
728.151	77.72
728.334	77.61
728.517	78.08
728.699	78.26
728.882	78.79
729.065	78.76
729.248	78.89
729.43	78.92
729.613	79.4
729.796	78.87
729.978	78.66
730.161	78.37
730.343	78.39
730.526	78.49
730.708	78.6
730.891	78.91
731.073	79.5
731.256	79.65
731.438	79.9
731.621	80.42
731.803	80.33
731.986	80.4
732.168	79.93
732.35	80.04
732.533	80.31
732.715	80.68
732.898	80.54
733.08	81
733.262	80.97
733.444	81.26
733.627	81.28
733.809	81.35
733.991	81.31
734.173	81.04
734.355	81.15
734.538	81.08
734.72	81.13
734.902	81.28
735.084	81.31
735.266	81.2
735.448	81.63
735.63	81.55
735.812	81.94
735.994	81.57
736.176	81.71
736.358	82.09
736.54	81.69
736.722	81.51
736.904	81.15
737.086	81.28
737.268	81.95
737.45	82.06
737.632	81.52
737.814	82.08
737.995	82.54
738.177	83.28
738.359	83.42
738.541	83
738.723	83.12
738.904	83.45
739.086	83.76
739.268	83.66
739.449	83.24
739.631	83.22
739.813	83.77
739.994	84.28
740.176	84.15
740.358	83.71
740.539	83.33
740.721	83.63
740.902	83.44
741.084	83.57
741.265	82.98
741.447	82.68
741.628	82.95
741.81	83.58
741.991	83.76
742.172	83.75
742.354	83.93
742.535	84.12
742.717	84.54
742.898	84.73
743.079	84.62
743.261	84.67
743.442	85.56
743.623	85.12
743.804	84.93
743.986	84.52
744.167	84.01
744.348	84.15
744.529	83.67
744.71	82.71
744.891	82.85
745.073	83.15
745.254	83.91
745.435	84.17
745.616	83.72
745.797	83.86
745.978	84.73
746.159	84.36
746.34	84.17
746.521	83.83
746.702	83.65
746.883	84.11
747.064	83.71
747.245	83.63
747.426	83.95
747.606	83.91
747.787	84.64
747.968	85.46
748.149	85.12
748.33	85.61
748.51	85.18
748.691	85.25
748.872	85.3
749.053	84.24
749.233	83.39
749.414	83.22
749.595	82.49
749.775	82.8
749.956	82.44
750.137	82.34
750.317	82.65
750.498	83.55
750.678	83.39
750.859	83.67
751.04	83.12
751.22	82.92
751.4	83.24
751.581	83.39
751.761	83.16
751.942	83.06
752.122	83.43
752.303	83.8
752.483	84.88
752.663	84.9
752.844	84.45
753.024	84.44
753.204	84.62
753.385	84.07
753.565	83.6
753.745	83
753.925	82.48
754.106	82.37
754.286	81.88
754.466	82.45
754.646	82.35
754.826	82.53
755.006	82.28
755.187	82.85
755.367	82.67
755.547	82.89
755.727	83.02
755.907	84.21
756.087	84.26
756.267	84.26
756.447	83.76
756.627	84.12
756.807	84.91
756.987	84.73
757.167	84.05
757.346	83.34
757.526	83.43
757.706	83.41
757.886	83.04
758.066	81.7
758.246	81.2
758.425	81.39
758.605	81.76
758.785	82.14
758.965	81.79
759.144	82.39
759.324	82.69
759.504	82.96
759.683	82.57
759.863	82.64
760.043	82.09
760.222	82.41
760.402	82.34
760.581	81.99
760.761	81.11
760.94	80.47
761.12	80.2
761.299	80.14
761.479	80.81
761.658	80.35
761.838	80.57
762.017	81.55
762.197	82.65
762.376	82.73
762.555	83.5
762.735	81.83
762.914	82.45
763.093	82.32
763.273	81.92
763.452	81.25
763.631	80.83
763.81	80.61
763.99	81.64
764.169	80.89
764.348	81.45
764.527	82.02
764.706	82.61
764.885	83.13
765.064	82.91
765.243	82.81
765.423	84.11
765.602	83.07
765.781	82.06
765.96	81.45
766.139	80.74
766.318	80.49
766.497	80.25
766.676	79.57
766.854	79.63
767.033	79.31
767.212	78.67
767.391	79.8
767.57	79.66
767.749	78.94
767.928	77.85
768.106	78.53
768.285	78.8
768.464	79.56
768.643	79.37
768.821	79.31
769	80.54
769.179	80.57
769.357	79.63
769.536	79.67
769.715	80.01
769.893	78.98
770.072	78.58
770.25	77.64
770.429	79.09
770.607	80.05
770.786	80.87
770.964	80.39
771.143	80.84
771.321	80.71
771.5	79.73
771.678	78.73
771.857	78.37
772.035	77.39
772.213	77.55
772.392	78.38
772.57	79.72
772.748	80
772.927	80.42
773.105	81.26
773.283	81.24
773.461	80.43
773.64	78.82
773.818	76.79
773.996	77.73
774.174	77
774.352	75.48
774.531	74.75
774.709	76.14
774.887	76.32
775.065	76.68
775.243	77.27
775.421	77.84
775.599	76.72
775.777	77.2
775.955	76.99
776.133	77.17
776.311	77.12
776.489	77.05
776.667	77.56
776.844	79.1
777.022	78.7
777.2	77.33
777.378	77.83
777.556	78.75
777.734	77.65
777.911	77.58
778.089	76.71
778.267	77.95
778.445	77.7
778.622	76.77
778.8	76.55
778.978	76.66
779.155	74.29
779.333	73.95
779.511	73.55
779.688	72.48
779.866	72.2
780.043	71.77
780.221	71.85
780.398	73.17
780.576	73.67
780.753	73.12
780.931	75.58
781.108	77.32
781.286	75.88
781.463	75.93
781.64	75.81
781.818	76.42
781.995	76.51
782.172	76.17
782.35	74.46
782.527	77.51
782.704	78.15
782.882	79.71
783.059	79.44
783.236	79.92
783.413	80.94
783.59	79.9
783.768	78.16
783.945	77.72
784.122	76.11
784.299	75.42
784.476	75.36
784.653	72.2
784.83	73.27
785.007	74.08
785.184	74.78
785.361	75.55
785.538	76.56
785.715	75.62
785.892	76.9
786.069	78.49
786.246	77.16
786.423	79.01
786.6	79.62
786.776	78.03
786.953	78.69
787.13	80.44
787.307	79.45
787.484	80.37
787.66	77.07
787.837	75.96
788.014	75.84
788.191	74.52
788.367	73.35
788.544	74.56
788.721	74.97
788.897	76.79
789.074	74.99
789.25	75.6
789.427	75.79
789.603	75.68
789.78	74.28
789.956	73.57
790.133	72.45
790.309	75.96
790.486	77.91
790.662	79.08
790.839	80.15
791.015	80.58
791.192	79.59
791.368	80.65
791.544	78.39
791.721	75.46
791.897	76.1
792.073	73.92
792.249	74.42
792.426	76.27
792.602	74.16
792.778	73.29
792.954	75.34
793.13	75.42
793.307	73.43
793.483	71.59
793.659	71.73
793.835	72.05
794.011	73.52
794.187	70.49
794.363	70.11
794.539	72.42
794.715	72.08
794.891	68.87
795.067	69.8
795.243	71
795.419	73.03
795.595	72.74
795.771	73.29
795.947	74.72
796.122	77.98
796.298	75.51
796.474	73.28
796.65	71.98
796.826	71.87
797.001	71.82
797.177	68.82
797.353	65.48
797.529	67.5
797.704	66.58
797.88	67.26
798.056	67.72
798.231	67.51
798.407	71.12
798.582	76.07
798.758	78.35
798.934	79.74
799.109	80.45
799.285	79.58
799.46	80.85
799.636	79.54
799.811	77.47
799.986	75.03
800.162	75.14
800.337	75.07
800.513	75.32
800.688	75.92
800.863	75.55
801.039	73.95
801.214	72.85
801.389	70.84
801.565	72.61
801.74	71.22
801.915	70.01
802.09	71.14
802.265	70.14
802.441	69.51
802.616	69.68
802.791	69.62
802.966	70.75
803.141	67.07
803.316	67.52
803.491	66.36
803.666	68.52
803.841	69.97
804.016	68.43
804.191	70.42
804.366	73.75
804.541	73.33
804.716	73.63
804.891	76.99
805.066	78.11
805.241	76.72
805.416	74.62
805.591	75.93
805.765	75.69
805.94	79.16
806.115	72.47
806.29	71.32
806.464	72.58
806.639	71.11
806.814	66.66
806.989	65.82
807.163	63.46
807.338	65.62
807.512	61.16
807.687	59.26
807.862	62.24
808.036	63.65
808.211	65.71
808.385	64.26
808.56	63.09
808.734	69.46
808.909	68.85
809.083	66.5
809.258	71.23
809.432	65.77
809.606	66.11
809.781	70.04
809.955	69.65
810.13	74.77
810.304	75.03
810.478	70.63
810.652	75.53
810.827	76.45
811.001	73.44
811.175	71.25
811.349	68.39
811.524	68.28
811.698	68.79
811.872	69.53
812.046	69.2
812.22	68.65
812.394	69.31
812.568	72.75
812.742	69.93
812.916	68.99
813.09	66.58
813.264	67.54
813.438	71.26
813.612	70.24
813.786	70.33
813.96	78.25
814.134	78.76
814.308	76.39
814.482	74.74
814.656	73.62
814.83	75.35
815.003	74.49
815.177	75.31
815.351	76.9
815.525	75.44
815.698	74.55
815.872	72.72
816.046	70.48
816.219	71.82
816.393	64.63
816.567	60.29
816.74	62.04
816.914	64.95
817.088	65.06
817.261	66.08
817.435	60.12
817.608	61.08
817.782	65.97
817.955	65.65
818.129	61.6
818.302	63.96
818.475	65.65
818.649	66.97
818.822	70.1
818.996	75.01
819.169	76.98
819.342	79.06
819.516	78.89
819.689	76.19
819.862	76.74
820.035	74.63
820.209	66.8
820.382	63.77
820.555	61.93
820.728	55.61
820.901	54.45
821.075	52.76
821.248	53.35
821.421	51.04
821.594	54.81
821.767	58.5
821.94	58.69
822.113	56.61
822.286	62.33
822.459	72.12
822.632	78.83
822.805	78.94
822.978	72.73
823.151	75.41
823.324	73.49
823.496	59.51
823.669	55.43
823.842	52.62
824.015	48.82
824.188	49.28
824.361	49.24
824.533	57.78
824.706	76.81
824.879	76.7
825.051	78.73
825.224	74.16
825.397	70.62
825.569	72.61
825.742	68.72
825.915	68.62
826.087	63.32
826.26	64.88
826.432	68.76
826.605	65.83
826.777	63.5
826.95	66.63
827.122	63.71
827.295	68.76
827.467	59.41
827.64	55.92
827.812	59.76
827.984	63.48
828.157	64.83
828.329	62.74
828.501	59.19
828.674	64.15
828.846	64.94
829.018	63.56
829.19	58.38
829.363	64.49
829.535	65.68
829.707	58.84
829.879	56.99
830.051	57.45
830.223	51.27
830.395	50.35
830.568	47.7
830.74	45.06
830.912	47.99
831.084	44.61
831.256	39.87
831.428	48.39
831.6	49.43
831.772	40.44
831.943	47.11
832.115	56.01
832.287	54.92
832.459	69.21
832.631	65.88
832.803	67.37
832.975	79.12
833.146	66.56
833.318	59.1
833.49	74.11
833.662	62.32
833.833	60.46
834.005	64.12
834.177	60.09
834.348	60.69
834.52	68.09
834.692	61.83
834.863	58.82
835.035	53.13
835.206	42.35
835.378	37.53
835.549	45.85
835.721	43.49
835.892	50.33
836.064	58.16
836.235	65.32
836.407	72.28
836.578	85.14
836.749	82.52
836.921	89.36
837.092	90.72
837.264	86.24
837.435	78.52
837.606	77.11
837.777	70.62
837.949	64.39
838.12	58.5
838.291	63.51
838.462	67.35
838.633	75.04
838.805	71.94
838.976	63.56
839.147	61.41
839.318	54.61
839.489	44.41
839.66	43.03
839.831	39.09
840.002	36
840.173	41.96
840.344	49.56
840.515	50.69
840.686	52.3
840.857	45.27
841.028	54.74
841.199	50.91
841.369	45.78
841.54	46.8
841.711	56.29
841.882	45.46
842.053	50.4
842.223	43.93
842.394	50.21
842.565	72.76
842.736	67.35
842.906	55.03
843.077	68.47
843.248	71.2
843.418	66.64
843.589	73.6
843.759	55.15
843.93	64.38
844.101	71.62
844.271	69.19
844.442	60.48
844.612	55.19
844.783	30.73
844.953	34.14
845.123	42.45
845.294	27.1
845.464	42.48
845.635	51.34
845.805	58.38
845.975	65.95
846.146	47.27
846.316	33.47
846.486	49.15
846.656	47.62
846.827	36.53
846.997	45.5
847.167	48.11
847.337	67.4
847.507	62.09
847.677	67.9
847.848	60.07
848.018	61.51
848.188	61.01
848.358	67.1
848.528	57.14
848.698	46.84
848.868	36.28
849.038	49.52
849.208	68.57
849.378	39.02
849.548	47.3
849.718	43.97
849.887	52.12
850.057	43.16
850.227	31.59
850.397	18.38
850.567	44.29
850.737	45.56
850.906	39.09
851.076	42.17
851.246	58.64
851.415	75.16
851.585	80.44
851.755	80.04
851.924	79.38
852.094	87.44
852.264	81.81
852.433	81.68
852.603	78.41
852.772	78.92
852.942	62.52
853.111	58.92
853.281	63.06
853.45	68.55
853.62	57.11
853.789	47.51
853.959	41.38
854.128	35.03
854.297	39.49
854.467	31.03
854.636	36.74
854.805	44.03
854.975	53.69
855.144	65.97
855.313	83.97
855.482	80.06
855.652	83.72
855.821	81.04
855.99	91.79
856.159	81.01
856.328	61.23
856.497	55.91
856.667	60.71
856.836	43.37
857.005	36.7
857.174	36.03
857.343	21.79
857.512	15.17
857.681	12.95
857.85	6.91
858.019	28.74
858.188	20.7
858.356	6.33
858.525	41.21
858.694	53.69
858.863	44.96
859.032	36.71
859.201	36.33
859.369	49.24
859.538	42.15
859.707	38.45
859.876	41.63
860.044	45.63
860.213	30.5
860.382	33.29
860.55	33.23
860.719	56.02
860.888	49.17
861.056	48.51
861.225	60.43
861.393	94.73
861.562	75.74
861.73	76.26
861.899	47.98
862.067	54.81
862.236	44.78
862.404	41.98
862.572	31.31
862.741	34.16
862.909	17.62
863.078	31.98
863.246	32.25
863.414	42.06
863.582	28.09
863.751	24.48
863.919	54.39
864.087	66.47
864.255	55.95
864.424	57.24
864.592	65.5
864.76	67.11
864.928	77.22
865.096	56.52
865.264	60.73
865.432	68.13
865.6	61.56
865.768	40.47
865.936	34.09
866.104	20.21
866.272	44.29
866.44	19.37
866.608	5.25
866.776	36.19
866.944	45.88
867.112	33.17
867.28	-7.86
867.448	-4.28
867.615	19.67
867.783	21.7
867.951	-13.75
868.119	7.27
868.286	38.01
868.454	59.12
868.622	50.46
868.789	54
868.957	75.83
869.125	73.91
869.292	64.85
869.46	42.92
869.627	25.05
869.795	28.05
869.963	22.92
870.13	15.94
870.298	6.55
870.465	-19.81
870.632	-7.17
870.8	13.79
870.967	24.9
871.135	29.96
871.302	25.34
871.469	26.14
871.637	45.82
871.804	41.98
871.971	51.99
872.139	43.44
872.306	44.14
872.473	36.35
872.64	49.15
872.807	58.09
872.975	79.8
873.142	35.54
873.309	94.42
873.476	157.16
873.643	190.24
873.81	175.83
873.977	87.98
874.144	110.31
874.311	110.17
874.478	30.64
874.645	-8.13
874.812	18.34
874.979	-31.23
875.146	-58.14
875.313	-105.84
875.48	-15.58
875.647	-28.94
875.813	-28
875.98	-24.74
876.147	30.23
876.314	39.28
876.481	28.29
876.647	32.17
876.814	35.61
876.981	30.72
877.147	11.34
877.314	18.98
877.481	32.29
877.647	48.31
877.814	38.82
877.98	64.8
878.147	86.5
878.314	89.19
878.48	86.54
878.647	99.59
878.813	101.84
878.979	125.04
879.146	94.41
879.312	69.3
879.479	65.58
879.645	28.98
879.811	1.23
879.978	-12.59
880.144	-34.72
880.31	-53.64
880.477	-35.67
880.643	-75.75
880.809	24.46
880.975	29.88
881.142	48.05
881.308	40.33
881.474	44.71
881.64	-32.7
881.806	4.92
881.972	13.19
882.138	1.03
882.304	-99.51
882.47	-59.07
882.636	-79.68
882.802	-18.95
882.968	-113.42
883.134	-244.33
883.3	-87.28
883.466	4.49
883.632	-4.84
883.798	13.04
883.964	7.32
884.129	35.41
884.295	40.32
884.461	42.7
884.627	35.47
884.793	69.98
884.958	79.47
885.124	63.52
885.29	69.99
885.455	60.92
885.621	51.41
885.787	48.85
885.952	36.08
886.118	56.87
886.283	63.82
886.449	41.53
886.614	55.86
886.78	72.17
886.945	65.17
887.111	75.74
887.276	7.72
887.442	4.99
887.607	-2.83
887.773	-11.11
887.938	-40.96
888.103	5.92
888.269	0.25
888.434	31.22
888.599	42.64
888.764	56.15
888.93	68.24
889.095	51.05
889.26	86.63
889.425	102.08
889.59	73.02
889.756	50.68
889.921	32.47
890.086	44.28
890.251	48.11
890.416	-26.82
890.581	-18.92
890.746	-12.77
890.911	-19.14
891.076	-26.98
891.241	-73.55
891.406	7.89
891.571	30.96
891.736	19.54
891.901	15.1
892.065	47.63
892.23	22.88
892.395	9.75
892.56	14.67
892.725	9.9
892.889	0.4
893.054	-8.23
893.219	-63.43
893.384	-61.5
893.548	-55
893.713	405.45
893.878	233.15
