Data from Ofra_PS_T2_1A_2GT38_Reflection_3.txt Node
Date: Wed Jul 21 17:56:28 EDT 2021
User: Adam
Spectrometer: FLMT01687
Trigger mode: 0
Integration Time (sec): 1.100000E0
Scans to average: 2
Electric dark correction enabled: true
Nonlinearity correction enabled: false
Boxcar width: 2
XAxis mode: Wavelengths
Number of Pixels in Spectrum: 3648
>>>>>Begin Spectral Data<<<<<
179.494	730.2
179.716	780
179.937	731.4
180.158	744.94
180.38	1151.72
180.601	426.38
180.823	127.56
181.044	-38.03
181.265	-56.8
181.486	59.72
181.708	110.33
181.929	962.76
182.15	-216.55
182.372	106.17
182.593	91.72
182.814	97.98
183.035	137.09
183.257	80.01
183.478	40.69
183.699	99.52
183.92	14.7
184.141	7.66
184.363	-39.9
184.584	-0.48
184.805	14.4
185.026	51.76
185.247	68.43
185.468	49.67
185.689	60.55
185.91	55.57
186.132	66.66
186.353	66.38
186.574	120.12
186.795	72.87
187.016	19.42
187.237	-19.42
187.458	-79.07
187.679	-86.01
187.9	-45.18
188.121	-33.71
188.342	10.03
188.563	45.4
188.784	68.97
189.005	81.42
189.226	144.17
189.447	124.48
189.667	113.23
189.888	-81.65
190.109	-819.16
190.33	-592.74
190.551	-1174.12
190.772	-220.28
190.993	-146.96
191.214	-115.45
191.434	-79.69
191.655	-7.82
191.876	-72.6
192.097	-169.54
192.318	-230.69
192.538	-335.41
192.759	-218.26
192.98	-117.75
193.201	-37.5
193.421	-15.24
193.642	13.45
193.863	24.24
194.083	0.93
194.304	-10.54
194.525	-19.98
194.745	-56.64
194.966	-86.95
195.187	-68.9
195.407	-111.82
195.628	-142.8
195.848	-156.26
196.069	-136.04
196.29	-83.75
196.51	-83.84
196.731	-74.32
196.951	-98.75
197.172	-136.89
197.392	-174.03
197.613	-182.59
197.833	-223.07
198.054	-168.19
198.274	-113.07
198.495	-125.04
198.715	-74.26
198.936	-81.69
199.156	-45.97
199.377	-122.98
199.597	-128.37
199.817	-154.75
200.038	-56.54
200.258	-137.98
200.479	-49.16
200.699	-22.39
200.919	50.93
201.14	-14.98
201.36	-35.99
201.58	10.91
201.801	48.96
202.021	6.98
202.241	5.56
202.461	11.91
202.682	-81.75
202.902	-171.24
203.122	-89.83
203.342	-64.7
203.563	4.92
203.783	23.99
204.003	0.83
204.223	-13.83
204.443	37.7
204.663	-16.71
204.884	12.41
205.104	36.58
205.324	71.61
205.544	48.39
205.764	60.74
205.984	36.68
206.204	42.34
206.424	24.77
206.644	-24.42
206.864	-14.85
207.084	-34.83
207.304	-17.15
207.525	-114.61
207.745	-18.15
207.964	-1.21
208.184	-50.6
208.404	-117.1
208.624	-117.03
208.844	-133.66
209.064	-452.94
209.284	-450.19
209.504	-226.97
209.724	-70.61
209.944	-53.34
210.164	-20.55
210.384	-8.69
210.604	0.59
210.823	-34.56
211.043	-25.65
211.263	-21.93
211.483	-18.01
211.703	-82.7
211.922	-66.89
212.142	-8.9
212.362	-6.41
212.582	-22.61
212.801	-7.76
213.021	-23.79
213.241	-42.77
213.461	-70.77
213.68	-75.93
213.9	-39.18
214.12	-21.68
214.339	-81.94
214.559	-71.88
214.779	-14.73
214.998	-29.45
215.218	-65.72
215.438	-49.23
215.657	-58.29
215.877	-68.57
216.096	-28.05
216.316	-39.61
216.535	-29.59
216.755	-17.57
216.974	-103.3
217.194	-120.51
217.413	-91.72
217.633	-104.72
217.852	-188.44
218.072	-81.7
218.291	-52.6
218.511	-8.34
218.73	-40
218.95	-28.83
219.169	-43.44
219.389	-94
219.608	-83.28
219.827	-69.83
220.047	-61.02
220.266	-22.39
220.485	-9.52
220.705	-0.27
220.924	-10.89
221.143	21.7
221.363	-2.38
221.582	5.91
221.801	17.71
222.021	37.34
222.24	-40.75
222.459	-9.94
222.678	-4.54
222.897	-85.56
223.117	-177.47
223.336	-110.25
223.555	-95.19
223.774	-65.29
223.993	-49.77
224.213	44.41
224.432	39.05
224.651	77.7
224.87	36.86
225.089	53.08
225.308	35.35
225.527	35.2
225.746	16.94
225.965	18.68
226.184	-6.93
226.404	8.42
226.623	-18.8
226.842	-4.44
227.061	15.92
227.28	19.98
227.499	2.73
227.718	30.95
227.936	10.14
228.155	21.09
228.374	6.94
228.593	14.01
228.812	-3.11
229.031	-1.31
229.25	-62.18
229.469	-52.41
229.688	-45.77
229.907	-4.86
230.125	14.47
230.344	35.83
230.563	28.65
230.782	36.24
231.001	-50.24
231.22	-51.61
231.438	-40.09
231.657	-20.17
231.876	-40.73
232.095	26.66
232.313	29.65
232.532	40.3
232.751	-0.39
232.969	-11.99
233.188	-103.8
233.407	-19.27
233.625	-16.36
233.844	-26.74
234.063	-14.59
234.281	0.51
234.5	-22.85
234.719	-25.96
234.937	10.33
235.156	3.38
235.374	-1.1
235.593	-6.2
235.811	-20.8
236.03	-38.19
236.249	-64.99
236.467	-51.72
236.686	-22.91
236.904	-0.74
237.123	-38.2
237.341	-23.91
237.559	-19
237.778	-40.14
237.996	-83.01
238.215	-27.74
238.433	-9.95
238.652	-8.62
238.87	-19.75
239.088	2.49
239.307	9.83
239.525	-6.3
239.743	-26.1
239.962	-12.48
240.18	-47.79
240.398	-112.94
240.617	-134.97
240.835	-125.27
241.053	-77.29
241.271	-35.95
241.49	14.09
241.708	53.08
241.926	27.63
242.144	-25.4
242.363	-50.55
242.581	-80.87
242.799	-39.56
243.017	3.96
243.235	-4
243.453	4.52
243.672	13.14
243.89	4.23
244.108	-9.85
244.326	18.84
244.544	28.26
244.762	10.51
244.98	2.51
245.198	2.85
245.416	-33.34
245.634	-25.49
245.852	-44.22
246.07	-54
246.288	-13.85
246.506	-26.36
246.724	-14.74
246.942	11.25
247.16	34.41
247.378	29.52
247.596	52.69
247.814	31.02
248.032	14.05
248.25	22.26
248.468	16.46
248.685	31.49
248.903	40.37
249.121	49.26
249.339	12.1
249.557	3.14
249.775	-7.26
249.992	-54.09
250.21	-57.82
250.428	-46.5
250.646	-80.8
250.863	-102.45
251.081	-81.83
251.299	-88.65
251.517	-87.79
251.734	-57.31
251.952	-51.9
252.17	-32.73
252.387	-9.08
252.605	-16.73
252.823	-3.68
253.04	15.09
253.258	34.75
253.475	12.18
253.693	50.19
253.911	35.5
254.128	30.86
254.346	20.47
254.563	10.6
254.781	-23.19
254.998	-32.36
255.216	-27.84
255.433	-17.61
255.651	17.82
255.868	45.24
256.086	54.59
256.303	22.72
256.521	5.59
256.738	-11.33
256.956	-48.19
257.173	-98.35
257.39	-106.6
257.608	-131.44
257.825	-64.65
258.043	-20.46
258.26	10.88
258.477	66.54
258.695	77
258.912	27.15
259.129	26.49
259.346	-7
259.564	-60.11
259.781	-92.38
259.998	-28.11
260.216	-3.27
260.433	27.71
260.65	33.43
260.867	48.41
261.084	16.94
261.302	-4.53
261.519	4.44
261.736	-35.85
261.953	-56.95
262.17	-17.82
262.387	-58.25
262.604	-94.2
262.822	-75.21
263.039	-64.04
263.256	-112.46
263.473	-56.27
263.69	-35.13
263.907	5.67
264.124	34.61
264.341	31.82
264.558	14.73
264.775	36.8
264.992	17.64
265.209	14.15
265.426	46.72
265.643	52.54
265.86	50.91
266.077	55.76
266.294	33.94
266.51	-25.09
266.727	-62.43
266.944	-63.44
267.161	-54.22
267.378	-39.44
267.595	-7.47
267.812	-7.85
268.028	-22.41
268.245	8.21
268.462	-30.26
268.679	-33.2
268.896	13.61
269.112	13.17
269.329	-10.09
269.546	-3.91
269.763	-15.16
269.979	-33.97
270.196	-44.19
270.413	-65.25
270.629	-84.71
270.846	-93.56
271.063	-77.15
271.279	-71.96
271.496	-60.14
271.712	-14.55
271.929	14.41
272.146	-22.16
272.362	5.93
272.579	22.9
272.795	32.25
273.012	22.91
273.228	30.51
273.445	-8.07
273.661	-39.06
273.878	-89.1
274.094	-72.95
274.311	-68.89
274.527	-1.59
274.744	-6.52
274.96	4.13
275.177	3.1
275.393	5.78
275.609	-2.28
275.826	30.45
276.042	21.37
276.259	34.88
276.475	40.88
276.691	35.49
276.908	12
277.124	24.02
277.34	17.53
277.557	-10.53
277.773	-21.06
277.989	-32.44
278.205	-41.84
278.422	-31.84
278.638	-14.58
278.854	11.95
279.07	28.82
279.286	14.47
279.503	-19.16
279.719	-12.11
279.935	-64.85
280.151	-77.63
280.367	-23.5
280.583	-41.52
280.799	-44.97
281.016	-40.98
281.232	-7.48
281.448	-20.46
281.664	21.96
281.88	-17.84
282.096	-1.69
282.312	8.3
282.528	33.96
282.744	19.28
282.96	36.56
283.176	12.86
283.392	2.95
283.608	-20.25
283.824	-16.09
284.04	-5.65
284.256	11.92
284.471	-4.36
284.687	1.39
284.903	15.11
285.119	36.24
285.335	8.22
285.551	20.14
285.767	-4.59
285.982	-25.17
286.198	-77.98
286.414	-12.99
286.63	-6.2
286.846	32.78
287.061	23.18
287.277	57.57
287.493	25.37
287.709	51.53
287.924	24.01
288.14	54.49
288.356	49.01
288.571	75.65
288.787	39.87
289.003	44.51
289.218	15.5
289.434	-34.01
289.65	-49.62
289.865	-41.42
290.081	-23.42
290.296	-5.85
290.512	18.83
290.727	-4.73
290.943	-19.92
291.159	-39.04
291.374	-44.37
291.59	-64.74
291.805	-46.81
292.021	-35.7
292.236	-33.91
292.451	-11.4
292.667	2.37
292.882	16.53
293.098	13.28
293.313	-3.54
293.529	-40.18
293.744	-60.2
293.959	-76.7
294.175	-59.27
294.39	-15.38
294.605	8.63
294.821	33.24
295.036	43.21
295.251	44.71
295.467	10.18
295.682	-11.37
295.897	-69.55
296.112	-96.38
296.328	-85.56
296.543	-96.56
296.758	-94.98
296.973	-31.91
297.188	14.02
297.404	-19.05
297.619	-20.45
297.834	-15.04
298.049	-31.6
298.264	-49.35
298.479	8.09
298.694	21.28
298.909	33.18
299.125	31.03
299.34	42.1
299.555	9.94
299.77	17.95
299.985	-29.83
300.2	-85.88
300.415	-102.47
300.63	-67.58
300.845	-83.2
301.06	-79.28
301.275	-28.97
301.49	-10.97
301.704	-25.82
301.919	-45.18
302.134	-58.99
302.349	-69.23
302.564	-164.49
302.779	-201.07
302.994	-176.92
303.209	-109.45
303.423	-69.13
303.638	19.87
303.853	-13.93
304.068	-30.99
304.283	-25.34
304.497	-33.97
304.712	-43.46
304.927	-22.75
305.142	-8.29
305.356	1.05
305.571	0.61
305.786	-14.67
306	-36.7
306.215	-49.98
306.43	-78.57
306.644	-60.78
306.859	-7.45
307.074	0.93
307.288	-28.93
307.503	-40.15
307.717	-54.92
307.932	-73.85
308.147	-69.61
308.361	-34.36
308.576	-18.37
308.79	-56.76
309.005	-53.05
309.219	-32.29
309.434	-48.88
309.648	-62.58
309.863	-18.92
310.077	-24.35
310.292	-34.84
310.506	-27.52
310.72	-9.87
310.935	-7.75
311.149	11.61
311.364	33.89
311.578	45.74
311.792	47.86
312.007	54.14
312.221	29.48
312.435	17.15
312.649	-3.57
312.864	13.68
313.078	10.79
313.292	81.87
313.507	80.39
313.721	120.39
313.935	52.22
314.149	41.17
314.363	21.6
314.578	22.7
314.792	20.95
315.006	9.75
315.22	19.25
315.434	17.59
315.648	20.6
315.862	22
316.077	23.25
316.291	-10.87
316.505	-6.6
316.719	-43.31
316.933	-66.34
317.147	-64.53
317.361	-75
317.575	-94.46
317.789	-121.47
318.003	-175.51
318.217	-123.4
318.431	-42.16
318.645	10.62
318.859	10.79
319.073	36.13
319.287	10.85
319.5	-9.88
319.714	-47.62
319.928	-66.62
320.142	-81.99
320.356	-14.75
320.57	3.31
320.784	-29.3
320.997	-14.39
321.211	-12.85
321.425	-84.2
321.639	-95.95
321.853	-40.37
322.066	-28.73
322.28	-39.08
322.494	-20.13
322.707	-0.04
322.921	-11.74
323.135	-14.98
323.349	20.53
323.562	-4.16
323.776	-27.91
323.989	-15.89
324.203	-30.56
324.417	-71.3
324.63	-73.38
324.844	-88.51
325.057	-90.7
325.271	-50.47
325.485	-3.91
325.698	13.54
325.912	40.72
326.125	14.62
326.339	9.65
326.552	-30.63
326.766	-28.97
326.979	-12.05
327.193	30.83
327.406	13.98
327.619	6.37
327.833	20.15
328.046	-11.16
328.26	-55.34
328.473	-34.67
328.686	-60.87
328.9	-70.71
329.113	-53.09
329.326	-71.59
329.54	-58.91
329.753	-51.44
329.966	-90.59
330.179	-95.26
330.393	-45.69
330.606	-47.3
330.819	-23.97
331.032	0.33
331.246	15.6
331.459	37.94
331.672	31.47
331.885	15.23
332.098	-14.03
332.311	-38.67
332.525	-103.8
332.738	-79.56
332.951	-42.79
333.164	3.99
333.377	14.09
333.59	27.07
333.803	21.95
334.016	11.15
334.229	-6.05
334.442	7.92
334.655	24.96
334.868	29.54
335.081	21.64
335.294	13.03
335.507	-5.33
335.72	-12.57
335.933	-24.8
336.146	-22.5
336.359	-11.06
336.572	-29.34
336.785	-61.18
336.997	-52.85
337.21	-36.06
337.423	-51.47
337.636	-46.47
337.849	-26.6
338.062	-37.81
338.274	-25.8
338.487	-28.39
338.7	-31.66
338.913	-64.31
339.125	-79.64
339.338	-147.17
339.551	-122.5
339.763	-78.61
339.976	-50.41
340.189	-22.82
340.402	-2.52
340.614	-15.94
340.827	-31.05
341.039	-38.49
341.252	-27.4
341.465	-15.25
341.677	-8.15
341.89	-40.12
342.102	-19.85
342.315	-58.03
342.527	-105.8
342.74	-100.53
342.952	-60.57
343.165	-62.75
343.377	-20.82
343.59	-16.33
343.802	11.63
344.015	19.71
344.227	26.79
344.44	17.24
344.652	15.63
344.864	2.72
345.077	20.34
345.289	24.43
345.502	34.86
345.714	37.6
345.926	46.19
346.139	36.99
346.351	40.92
346.563	31.88
346.775	41.01
346.988	18.78
347.2	13.87
347.412	-41.3
347.624	-59.6
347.837	-82.55
348.049	-63.05
348.261	-39.01
348.473	-16.26
348.685	-22.03
348.897	-39.33
349.11	-57.95
349.322	-77.54
349.534	-37.7
349.746	-22.17
349.958	-9.84
350.17	-0.06
350.382	10.86
350.594	-18.95
350.806	-25.72
351.018	-2.95
351.23	-17.4
351.442	-74.15
351.654	-50.92
351.866	-39.24
352.078	-33.42
352.29	-0.05
352.502	15.83
352.714	28.02
352.926	16.57
353.138	6.43
353.35	-7.33
353.561	-7.96
353.773	-31.84
353.985	-14.32
354.197	-29.44
354.409	-36.7
354.621	-40.26
354.832	-34.65
355.044	-50.12
355.256	-35.64
355.468	-16.36
355.679	-27.98
355.891	-8.43
356.103	-8.86
356.314	-11.09
356.526	-3.31
356.738	12.24
356.949	-26.43
357.161	-8.4
357.373	-13.57
357.584	-26.19
357.796	-11.92
358.008	-13.05
358.219	-6.39
358.431	-4.21
358.642	-4.69
358.854	-16.24
359.065	-26.16
359.277	-58.85
359.488	-68.09
359.7	-95.15
359.911	-86.35
360.123	-47.81
360.334	-52.52
360.546	-70.75
360.757	-53.46
360.969	-52.83
361.18	-56.78
361.391	-33.4
361.603	-28.07
361.814	-15.47
362.025	-17.38
362.237	-20.84
362.448	-16.12
362.659	1.26
362.871	-8.95
363.082	-17.14
363.293	-9.22
363.504	-27.73
363.716	-40.16
363.927	-38.01
364.138	-53.44
364.349	-79.51
364.56	-60.71
364.772	-58.67
364.983	-36.15
365.194	-29.14
365.405	-4.74
365.616	19.25
365.827	21.02
366.038	-4.42
366.25	3.86
366.461	-27.42
366.672	-22.41
366.883	4.91
367.094	9.17
367.305	-10.55
367.516	-1.19
367.727	-28.64
367.938	-51.99
368.149	-41.74
368.36	-3.33
368.571	-1.07
368.781	-12.59
368.992	-17.94
369.203	-40.03
369.414	-78.37
369.625	-99.93
369.836	-76.97
370.047	-100.86
370.258	-80.55
370.468	-77.16
370.679	-83.66
370.89	-75.1
371.101	-48.08
371.312	-48.43
371.522	-31.78
371.733	-13.74
371.944	-11.69
372.155	1.3
372.365	-2.23
372.576	-9.1
372.787	-15.7
372.997	-44.88
373.208	-55.43
373.419	-28.5
373.629	-71.13
373.84	-70.27
374.05	-60.75
374.261	-47.03
374.472	-64.03
374.682	5.48
374.893	6.63
375.103	29.46
375.314	24.65
375.524	24.08
375.735	17.46
375.945	22.36
376.156	-2.05
376.366	0.09
376.577	-9.39
376.787	-16.41
376.997	-12.11
377.208	-9.62
377.418	-26.84
377.629	-3.58
377.839	-7.25
378.049	-7.12
378.26	11.92
378.47	20.49
378.68	8.7
378.89	1.51
379.101	-8.38
379.311	-49.44
379.521	-77.29
379.732	-85.89
379.942	-73.35
380.152	-93.04
380.362	-44.69
380.572	-42.04
380.783	-21.78
380.993	-13.86
381.203	3.29
381.413	10.36
381.623	18.44
381.833	14.12
382.043	-0.76
382.253	-10.14
382.463	-17.94
382.674	-30.46
382.884	-52.68
383.094	-41.5
383.304	-34.83
383.514	-28.24
383.724	-16.31
383.934	-14.45
384.144	-22.31
384.353	-26.51
384.563	-31.9
384.773	-25.96
384.983	-28.85
385.193	-9.84
385.403	-2.32
385.613	-3.97
385.823	-15.26
386.033	-7.05
386.242	-16.36
386.452	-17.79
386.662	-23.95
386.872	-10.8
387.082	-18.39
387.291	-25.51
387.501	-25.39
387.711	-13.54
387.921	-16.16
388.13	-14.3
388.34	-1.11
388.55	-8.49
388.759	-12.42
388.969	-6.59
389.179	-7.19
389.388	-14.03
389.598	-7.71
389.807	-9.89
390.017	-13.68
390.227	-10.12
390.436	-7.34
390.646	-6.1
390.855	-3.46
391.065	-2.52
391.274	-5.93
391.484	-7.51
391.693	-3.89
391.903	-4.33
392.112	0.11
392.322	5
392.531	7.83
392.74	6.1
392.95	5.36
393.159	2.17
393.369	1.48
393.578	1.22
393.787	-1.02
393.997	-0
394.206	-1.38
394.415	-2.53
394.625	-3.04
394.834	-3.33
395.043	-2.86
395.252	0.14
395.462	2.02
395.671	3.3
395.88	4.61
396.089	5.73
396.298	4.12
396.508	2.53
396.717	1.87
396.926	1.3
397.135	0.5
397.344	0.09
397.553	1.98
397.762	3.43
397.971	3.87
398.181	3.62
398.39	3.17
398.599	2.65
398.808	2.18
399.017	3.17
399.226	4.61
399.435	6
399.644	5.99
399.853	4.93
400.062	4.22
400.27	3.56
400.479	2.93
400.688	2.29
400.897	2.66
401.106	3.15
401.315	2.8
401.524	3.25
401.733	4.06
401.941	4.73
402.15	4.55
402.359	4.41
402.568	4.6
402.777	4.59
402.985	4.12
403.194	3.9
403.403	4.31
403.612	3.78
403.82	3.5
404.029	3.72
404.238	3.52
404.446	3.66
404.655	3.59
404.864	3.43
405.072	3.2
405.281	3.42
405.489	2.98
405.698	2.88
405.906	2.99
406.115	3.07
406.324	2.98
406.532	3.2
406.741	3.71
406.949	3.69
407.158	3.55
407.366	3.76
407.574	3.69
407.783	3.47
407.991	3.34
408.2	3.71
408.408	3.62
408.617	3.59
408.825	3.4
409.033	3.62
409.242	3.48
409.45	3.44
409.658	3.37
409.867	3.45
410.075	3.17
410.283	3.03
410.491	2.97
410.7	2.95
410.908	2.97
411.116	3.34
411.324	3.28
411.533	3.24
411.741	3.41
411.949	3.43
412.157	3.21
412.365	3.37
412.573	3.49
412.781	3.51
412.99	3.43
413.198	3.41
413.406	3.31
413.614	3.12
413.822	2.91
414.03	2.82
414.238	2.71
414.446	2.74
414.654	2.65
414.862	2.81
415.07	2.9
415.278	3.19
415.486	3.01
415.694	3.17
415.902	3
416.109	2.96
416.317	2.82
416.525	2.68
416.733	2.67
416.941	2.95
417.149	2.94
417.357	2.93
417.564	3.19
417.772	3.34
417.98	3.14
418.188	3.13
418.395	3.11
418.603	3.19
418.811	2.85
419.019	2.65
419.226	2.96
419.434	3.11
419.642	2.9
419.849	3.13
420.057	3.32
420.265	3.06
420.472	2.84
420.68	2.81
420.887	2.64
421.095	2.68
421.302	2.62
421.51	2.77
421.717	2.96
421.925	3.09
422.132	2.99
422.34	2.81
422.547	2.77
422.755	2.53
422.962	2.37
423.17	2.32
423.377	2.4
423.585	2.47
423.792	2.55
423.999	2.58
424.207	2.51
424.414	2.92
424.621	2.74
424.829	2.74
425.036	2.83
425.243	3.04
425.451	2.57
425.658	2.4
425.865	2.54
426.072	2.51
426.28	2.68
426.487	2.8
426.694	2.93
426.901	2.69
427.108	2.7
427.315	2.42
427.523	2.67
427.73	2.87
427.937	2.96
428.144	2.73
428.351	2.83
428.558	2.82
428.765	2.64
428.972	2.54
429.179	2.81
429.386	3.01
429.593	2.78
429.8	2.73
430.007	2.82
430.214	2.9
430.421	2.67
430.628	2.63
430.835	2.53
431.042	2.77
431.249	2.7
431.456	2.67
431.662	2.85
431.869	2.99
432.076	2.97
432.283	3.06
432.49	3.07
432.697	3
432.903	2.83
433.11	2.68
433.317	2.78
433.524	2.94
433.73	2.86
433.937	3.26
434.144	3.16
434.35	3.01
434.557	2.91
434.764	2.91
434.97	2.76
435.177	3.01
435.384	2.96
435.59	3
435.797	3.19
436.003	3.25
436.21	3.15
436.416	3.21
436.623	3.19
436.829	3.29
437.036	3.35
437.242	3.42
437.449	3.25
437.655	3.28
437.862	3.15
438.068	3.01
438.275	3.05
438.481	3.39
438.687	3.36
438.894	3.33
439.1	3.38
439.307	3.48
439.513	3.38
439.719	3.38
439.926	3.48
440.132	3.46
440.338	3.34
440.544	3.44
440.751	3.41
440.957	3.44
441.163	3.37
441.369	3.4
441.575	3.11
441.782	3.14
441.988	3.04
442.194	3.12
442.4	3.12
442.606	3.46
442.812	3.58
443.018	3.68
443.224	3.73
443.431	3.8
443.637	3.5
443.843	3.33
444.049	3.33
444.255	3.23
444.461	3.3
444.667	3.29
444.873	3.51
445.079	3.58
445.284	3.68
445.49	3.42
445.696	3.4
445.902	3.31
446.108	3.14
446.314	3.1
446.52	3.22
446.726	3.48
446.931	3.44
447.137	3.59
447.343	3.61
447.549	3.56
447.755	3.42
447.96	3.55
448.166	3.43
448.372	3.39
448.578	3.46
448.783	3.49
448.989	3.52
449.195	3.71
449.4	3.77
449.606	3.68
449.812	3.59
450.017	3.57
450.223	3.45
450.428	3.4
450.634	3.61
450.84	3.87
451.045	3.77
451.251	3.67
451.456	3.96
451.662	3.93
451.867	3.85
452.073	3.87
452.278	4.07
452.483	4.03
452.689	3.96
452.894	4.02
453.1	4.08
453.305	3.9
453.51	3.79
453.716	3.73
453.921	3.74
454.127	3.65
454.332	3.64
454.537	3.61
454.742	3.7
454.948	3.55
455.153	3.63
455.358	3.77
455.563	4.02
455.769	4.14
455.974	4.23
456.179	4.11
456.384	4.08
456.589	3.9
456.795	3.66
457	3.59
457.205	3.85
457.41	3.8
457.615	3.77
457.82	3.92
458.025	4.02
458.23	3.86
458.435	3.88
458.64	3.83
458.845	3.9
459.05	3.84
459.255	3.8
459.46	3.85
459.665	3.86
459.87	3.83
460.075	3.83
460.28	3.9
460.485	3.9
460.69	3.96
460.895	3.79
461.099	3.71
461.304	3.82
461.509	3.85
461.714	3.77
461.919	3.95
462.123	3.92
462.328	3.98
462.533	3.89
462.738	3.97
462.942	3.89
463.147	4.02
463.352	4.04
463.556	4.07
463.761	4.11
463.966	4.1
464.17	4.09
464.375	3.87
464.58	3.83
464.784	3.8
464.989	3.79
465.193	3.78
465.398	3.83
465.602	3.95
465.807	3.97
466.011	4.03
466.216	4.08
466.42	4.15
466.625	4.24
466.829	4.28
467.034	4.33
467.238	4.58
467.443	4.56
467.647	4.42
467.851	4.49
468.056	4.51
468.26	4.3
468.464	4.3
468.669	4.47
468.873	4.59
469.077	4.6
469.282	4.77
469.486	4.84
469.69	4.82
469.894	4.56
470.099	4.59
470.303	4.64
470.507	4.49
470.711	4.33
470.915	4.38
471.119	4.27
471.324	4.14
471.528	4.23
471.732	4.35
471.936	4.36
472.14	4.5
472.344	4.53
472.548	4.51
472.752	4.73
472.956	4.96
473.16	4.91
473.364	4.81
473.568	4.83
473.772	4.74
473.976	4.59
474.18	4.55
474.384	4.57
474.588	4.57
474.792	4.43
474.995	4.5
475.199	4.59
475.403	4.7
475.607	4.73
475.811	4.71
476.015	4.73
476.218	4.81
476.422	4.71
476.626	4.77
476.83	4.91
477.033	4.83
477.237	4.66
477.441	4.78
477.644	4.83
477.848	4.77
478.052	4.75
478.255	4.84
478.459	4.82
478.663	4.87
478.866	4.92
479.07	4.99
479.273	5.15
479.477	5.12
479.681	5.04
479.884	5.02
480.088	4.94
480.291	4.81
480.495	4.81
480.698	4.84
480.901	4.9
481.105	5
481.308	5.02
481.512	5.03
481.715	5.1
481.919	5.07
482.122	5.06
482.325	5.02
482.529	5.04
482.732	4.99
482.935	4.91
483.138	4.88
483.342	4.97
483.545	5.04
483.748	5.07
483.952	5.18
484.155	5.27
484.358	5.31
484.561	5.18
484.764	5.16
484.967	5.24
485.171	5.35
485.374	5.25
485.577	5.37
485.78	5.39
485.983	5.28
486.186	5.12
486.389	5.13
486.592	5.09
486.795	5.13
486.998	5.12
487.201	5.21
487.404	5.27
487.607	5.35
487.81	5.33
488.013	5.39
488.216	5.25
488.419	5.26
488.622	5.2
488.825	5.12
489.028	5.09
489.231	5.12
489.433	5.03
489.636	4.95
489.839	5.04
490.042	4.94
490.245	4.94
490.447	5.03
490.65	5.03
490.853	5
491.056	5.12
491.258	5.13
491.461	5.14
491.664	5.26
491.866	5.18
492.069	5.21
492.272	5.18
492.474	5.2
492.677	5.23
492.879	5.3
493.082	5.34
493.285	5.5
493.487	5.4
493.69	5.3
493.892	5.27
494.095	5.27
494.297	5.19
494.5	5.28
494.702	5.26
494.905	5.31
495.107	5.23
495.309	5.23
495.512	5.26
495.714	5.32
495.917	5.3
496.119	5.31
496.321	5.37
496.524	5.4
496.726	5.44
496.928	5.46
497.13	5.47
497.333	5.48
497.535	5.47
497.737	5.45
497.939	5.44
498.142	5.46
498.344	5.38
498.546	5.29
498.748	5.3
498.95	5.4
499.152	5.36
499.355	5.41
499.557	5.53
499.759	5.61
499.961	5.57
500.163	5.64
500.365	5.7
500.567	5.75
500.769	5.63
500.971	5.62
501.173	5.52
501.375	5.54
501.577	5.43
501.779	5.45
501.981	5.5
502.183	5.55
502.385	5.47
502.587	5.44
502.788	5.55
502.99	5.54
503.192	5.64
503.394	5.62
503.596	5.66
503.798	5.63
503.999	5.63
504.201	5.58
504.403	5.7
504.605	5.71
504.806	5.65
505.008	5.67
505.21	5.8
505.411	5.77
505.613	5.78
505.815	5.87
506.016	5.89
506.218	5.91
506.42	5.94
506.621	5.97
506.823	5.96
507.024	5.9
507.226	5.8
507.427	5.76
507.629	5.8
507.83	5.84
508.032	5.9
508.233	5.96
508.435	6.05
508.636	6.07
508.838	6.09
509.039	6.1
509.24	6.16
509.442	6.12
509.643	6.14
509.845	6.08
510.046	6.17
510.247	6.14
510.448	6.12
510.65	6.13
510.851	6.25
511.052	6.17
511.254	6.17
511.455	6.3
511.656	6.37
511.857	6.43
512.058	6.5
512.26	6.49
512.461	6.45
512.662	6.48
512.863	6.35
513.064	6.33
513.265	6.37
513.466	6.39
513.667	6.34
513.868	6.38
514.069	6.52
514.27	6.56
514.471	6.5
514.672	6.51
514.873	6.55
515.074	6.51
515.275	6.43
515.476	6.46
515.677	6.49
515.878	6.61
516.079	6.55
516.28	6.6
516.481	6.72
516.682	6.74
516.882	6.57
517.083	6.58
517.284	6.53
517.485	6.44
517.686	6.39
517.886	6.39
518.087	6.48
518.288	6.53
518.488	6.52
518.689	6.52
518.89	6.51
519.091	6.49
519.291	6.5
519.492	6.59
519.692	6.66
519.893	6.75
520.094	6.75
520.294	6.69
520.495	6.65
520.695	6.65
520.896	6.63
521.096	6.65
521.297	6.75
521.497	6.75
521.698	6.74
521.898	6.74
522.099	6.78
522.299	6.83
522.499	6.85
522.7	6.84
522.9	6.82
523.101	6.82
523.301	6.73
523.501	6.75
523.702	6.79
523.902	6.89
524.102	7.01
524.302	7.06
524.503	7.17
524.703	7.2
524.903	7.17
525.103	7.03
525.304	7.13
525.504	7.13
525.704	7.17
525.904	7.15
526.104	7.14
526.304	7.07
526.504	7.07
526.705	7.03
526.905	7.11
527.105	7.16
527.305	7.17
527.505	7.1
527.705	7.11
527.905	7.11
528.105	7.14
528.305	7.1
528.505	7.19
528.705	7.32
528.905	7.3
529.105	7.26
529.304	7.38
529.504	7.41
529.704	7.3
529.904	7.31
530.104	7.34
530.304	7.39
530.503	7.38
530.703	7.38
530.903	7.39
531.103	7.46
531.303	7.35
531.502	7.38
531.702	7.52
531.902	7.55
532.101	7.5
532.301	7.59
532.501	7.52
532.7	7.46
532.9	7.47
533.1	7.51
533.299	7.51
533.499	7.57
533.698	7.58
533.898	7.63
534.097	7.65
534.297	7.7
534.496	7.73
534.696	7.74
534.895	7.76
535.095	7.89
535.294	7.82
535.494	7.76
535.693	7.83
535.892	7.83
536.092	7.7
536.291	7.77
536.491	7.88
536.69	7.93
536.889	7.89
537.088	7.96
537.288	7.97
537.487	7.99
537.686	7.91
537.886	7.95
538.085	7.98
538.284	8.1
538.483	8.09
538.682	8.16
538.882	8.2
539.081	8.28
539.28	8.16
539.479	8.16
539.678	8.17
539.877	8.21
540.076	8.18
540.275	8.25
540.474	8.36
540.673	8.39
540.872	8.39
541.071	8.44
541.27	8.48
541.469	8.5
541.668	8.53
541.867	8.56
542.066	8.6
542.265	8.69
542.464	8.65
542.663	8.67
542.862	8.74
543.06	8.81
543.259	8.83
543.458	8.96
543.657	9.04
543.856	9.1
544.054	9.09
544.253	9.04
544.452	9.03
544.651	9.06
544.849	9.05
545.048	9.1
545.247	9.14
545.445	9.21
545.644	9.22
545.843	9.24
546.041	9.3
546.24	9.44
546.438	9.52
546.637	9.57
546.836	9.75
547.034	9.85
547.233	9.85
547.431	9.87
547.63	9.92
547.828	9.9
548.027	9.89
548.225	9.9
548.423	9.91
548.622	10.04
548.82	10.01
549.019	10.08
549.217	10.15
549.415	10.21
549.614	10.26
549.812	10.32
550.01	10.32
550.209	10.36
550.407	10.49
550.605	10.43
550.803	10.54
551.002	10.63
551.2	10.7
551.398	10.75
551.596	10.95
551.794	11.02
551.993	11.12
552.191	11.17
552.389	11.3
552.587	11.33
552.785	11.37
552.983	11.45
553.181	11.57
553.379	11.57
553.577	11.64
553.775	11.74
553.973	11.8
554.171	11.89
554.369	11.92
554.567	11.97
554.765	12.02
554.963	12.11
555.161	12.09
555.359	12.16
555.557	12.31
555.755	12.4
555.952	12.54
556.15	12.71
556.348	12.83
556.546	12.89
556.744	12.99
556.941	13
557.139	13.12
557.337	13.19
557.535	13.17
557.732	13.24
557.93	13.37
558.128	13.45
558.325	13.6
558.523	13.73
558.721	13.84
558.918	13.91
559.116	13.95
559.313	13.95
559.511	14.15
559.708	14.21
559.906	14.28
560.104	14.34
560.301	14.5
560.498	14.5
560.696	14.58
560.893	14.73
561.091	14.87
561.288	14.96
561.486	15.09
561.683	15.22
561.88	15.3
562.078	15.41
562.275	15.4
562.473	15.43
562.67	15.6
562.867	15.69
563.064	15.79
563.262	15.93
563.459	16.15
563.656	16.25
563.853	16.33
564.051	16.45
564.248	16.62
564.445	16.68
564.642	16.71
564.839	16.89
565.036	17.05
565.234	17.22
565.431	17.27
565.628	17.42
565.825	17.52
566.022	17.59
566.219	17.62
566.416	17.78
566.613	17.93
566.81	18.07
567.007	18.02
567.204	18.09
567.401	18.13
567.598	18.13
567.795	18.16
567.991	18.23
568.188	18.34
568.385	18.49
568.582	18.67
568.779	18.7
568.976	18.9
569.172	19.02
569.369	18.9
569.566	18.84
569.763	18.96
569.96	18.95
570.156	18.92
570.353	19.07
570.55	19.17
570.746	19.18
570.943	19.25
571.14	19.3
571.336	19.39
571.533	19.46
571.729	19.5
571.926	19.59
572.123	19.75
572.319	19.78
572.516	19.78
572.712	19.89
572.909	19.89
573.105	19.94
573.302	20.03
573.498	20.11
573.695	20.1
573.891	20.16
574.087	20.05
574.284	20.06
574.48	20.04
574.677	20.07
574.873	20.13
575.069	20.29
575.266	20.36
575.462	20.36
575.658	20.43
575.854	20.5
576.051	20.49
576.247	20.43
576.443	20.48
576.639	20.38
576.835	20.25
577.032	20.2
577.228	20.35
577.424	20.47
577.62	20.44
577.816	20.56
578.012	20.55
578.208	20.44
578.404	20.36
578.6	20.46
578.796	20.38
578.993	20.44
579.189	20.42
579.384	20.35
579.58	20.27
579.776	20.21
579.972	20.15
580.168	20.1
580.364	20.12
580.56	20.13
580.756	20.15
580.952	20.15
581.148	20.19
581.343	20.22
581.539	20.3
581.735	20.35
581.931	20.36
582.127	20.3
582.322	20.29
582.518	20.25
582.714	20.23
582.909	20.15
583.105	20.21
583.301	20.19
583.496	20.18
583.692	20.14
583.888	20.11
584.083	20.08
584.279	20.01
584.474	19.91
584.67	19.96
584.866	19.99
585.061	19.86
585.257	19.96
585.452	20.06
585.648	19.99
585.843	19.99
586.039	20.1
586.234	20.01
586.429	20
586.625	20.06
586.82	20.03
587.015	20.02
587.211	20
587.406	19.96
587.601	19.87
587.797	19.91
587.992	19.9
588.187	19.98
588.383	19.9
588.578	19.9
588.773	19.94
588.968	19.95
589.163	19.97
589.359	19.95
589.554	19.94
589.749	19.94
589.944	19.98
590.139	19.92
590.334	20
590.529	20.06
590.724	20.1
590.919	20.16
591.114	20.16
591.309	20.28
591.504	20.44
591.699	20.47
591.894	20.49
592.089	20.63
592.284	20.61
592.479	20.61
592.674	20.62
592.869	20.72
593.064	20.8
593.259	20.92
593.454	21.06
593.648	21.15
593.843	21.14
594.038	21.15
594.233	21.12
594.428	21.08
594.622	21.07
594.817	21.22
595.012	21.28
595.206	21.41
595.401	21.5
595.596	21.57
595.79	21.65
595.985	21.69
596.18	21.69
596.374	21.8
596.569	21.89
596.763	21.84
596.958	21.95
597.153	22.09
597.347	22.02
597.542	22.15
597.736	22.2
597.931	22.27
598.125	22.35
598.319	22.56
598.514	22.53
598.708	22.69
598.903	22.64
599.097	22.73
599.291	22.77
599.486	22.79
599.68	22.73
599.874	22.94
600.069	22.88
600.263	22.92
600.457	23
600.651	23.18
600.846	23.15
601.04	23.22
601.234	23.2
601.428	23.33
601.622	23.27
601.817	23.28
602.011	23.37
602.205	23.42
602.399	23.44
602.593	23.51
602.787	23.53
602.981	23.47
603.175	23.52
603.369	23.41
603.563	23.48
603.757	23.58
603.951	23.63
604.145	23.57
604.339	23.6
604.533	23.44
604.727	23.36
604.921	23.26
605.115	23.3
605.309	23.45
605.502	23.52
605.696	23.47
605.89	23.5
606.084	23.4
606.278	23.24
606.471	23.16
606.665	23.07
606.859	22.97
607.053	22.97
607.246	22.88
607.44	22.85
607.634	22.83
607.827	22.89
608.021	22.73
608.214	22.72
608.408	22.61
608.602	22.54
608.795	22.42
608.989	22.43
609.182	22.33
609.376	22.31
609.569	22.24
609.763	22.16
609.956	22.11
610.15	22.07
610.343	22.06
610.537	21.93
610.73	21.92
610.923	21.88
611.117	21.82
611.31	21.65
611.504	21.67
611.697	21.45
611.89	21.33
612.083	21.19
612.277	21.2
612.47	21.16
612.663	21.17
612.856	21.1
613.05	21.04
613.243	20.9
613.436	20.75
613.629	20.62
613.822	20.45
614.015	20.41
614.209	20.27
614.402	20.15
614.595	20.18
614.788	20.14
614.981	20.08
615.174	19.97
615.367	19.91
615.56	19.78
615.753	19.8
615.946	19.65
616.139	19.66
616.332	19.7
616.525	19.65
616.718	19.63
616.911	19.58
617.103	19.54
617.296	19.47
617.489	19.39
617.682	19.23
617.875	19.22
618.067	19.15
618.26	19.04
618.453	19.07
618.646	19.04
618.838	19.01
619.031	19.15
619.224	19.18
619.417	19.1
619.609	19.08
619.802	19.11
619.994	18.97
620.187	18.89
620.38	18.81
620.572	18.75
620.765	18.78
620.957	18.72
621.15	18.6
621.342	18.65
621.535	18.67
621.727	18.56
621.92	18.51
622.112	18.56
622.305	18.62
622.497	18.5
622.69	18.46
622.882	18.46
623.074	18.49
623.267	18.36
623.459	18.31
623.651	18.24
623.844	18.29
624.036	18.21
624.228	18.21
624.42	18.25
624.613	18.35
624.805	18.2
624.997	18.19
625.189	18.07
625.381	18.08
625.574	17.87
625.766	17.86
625.958	17.85
626.15	17.88
626.342	17.8
626.534	17.96
626.726	17.84
626.918	17.8
627.11	17.74
627.302	17.75
627.494	17.63
627.686	17.73
627.878	17.67
628.07	17.67
628.262	17.63
628.454	17.69
628.646	17.68
628.838	17.7
629.029	17.64
629.221	17.67
629.413	17.51
629.605	17.42
629.797	17.35
629.989	17.36
630.18	17.3
630.372	17.29
630.564	17.27
630.755	17.33
630.947	17.35
631.139	17.2
631.33	17.08
631.522	17.14
631.714	17.11
631.905	17.03
632.097	17.07
632.289	17.17
632.48	17.06
632.672	16.94
632.863	16.8
633.055	16.76
633.246	16.62
633.438	16.59
633.629	16.54
633.821	16.63
634.012	16.6
634.203	16.62
634.395	16.61
634.586	16.61
634.777	16.44
634.969	16.48
635.16	16.48
635.351	16.45
635.543	16.47
635.734	16.53
635.925	16.46
636.117	16.5
636.308	16.46
636.499	16.38
636.69	16.34
636.881	16.34
637.073	16.37
637.264	16.39
637.455	16.45
637.646	16.54
637.837	16.58
638.028	16.5
638.219	16.55
638.41	16.52
638.601	16.4
638.792	16.33
638.983	16.24
639.174	16.14
639.365	16.07
639.556	16.1
639.747	16.07
639.938	16.2
640.129	16.21
640.32	16.14
640.511	16.16
640.701	16.26
640.892	16.03
641.083	16.08
641.274	16.08
641.465	16.01
641.655	15.87
641.846	15.96
642.037	15.83
642.228	15.82
642.418	15.87
642.609	15.82
642.8	15.81
642.99	15.77
643.181	15.82
643.372	15.83
643.562	15.76
643.753	15.7
643.943	15.7
644.134	15.56
644.324	15.42
644.515	15.44
644.705	15.46
644.896	15.52
645.086	15.56
645.277	15.55
645.467	15.56
645.658	15.51
645.848	15.45
646.038	15.42
646.229	15.38
646.419	15.33
646.61	15.26
646.8	15.21
646.99	15.19
647.18	15.23
647.371	15.25
647.561	15.2
647.751	15.17
647.941	15.11
648.132	15.05
648.322	15.02
648.512	15.09
648.702	15.1
648.892	15.08
649.082	15.08
649.272	14.96
649.462	14.8
649.653	14.69
649.843	14.63
650.033	14.6
650.223	14.62
650.413	14.62
650.603	14.67
650.793	14.68
650.983	14.58
651.172	14.57
651.362	14.57
651.552	14.43
651.742	14.34
651.932	14.31
652.122	14.26
652.312	14.31
652.502	14.32
652.691	14.29
652.881	14.21
653.071	14.16
653.261	13.98
653.45	13.77
653.64	13.76
653.83	13.65
654.019	13.49
654.209	13.41
654.399	13.49
654.588	13.28
654.778	13.19
654.968	13.13
655.157	13.12
655.347	12.94
655.536	12.8
655.726	12.76
655.915	12.59
656.105	12.43
656.294	12.3
656.484	12.19
656.673	11.97
656.863	11.91
657.052	11.76
657.241	11.57
657.431	11.41
657.62	11.27
657.809	11.03
657.999	10.83
658.188	10.68
658.377	10.57
658.567	10.43
658.756	10.29
658.945	10.17
659.134	9.96
659.324	9.81
659.513	9.74
659.702	9.64
659.891	9.49
660.08	9.46
660.269	9.37
660.458	9.17
660.648	9.08
660.837	8.96
661.026	8.85
661.215	8.7
661.404	8.56
661.593	8.44
661.782	8.21
661.971	8.1
662.16	7.98
662.349	7.86
662.538	7.71
662.726	7.73
662.915	7.64
663.104	7.5
663.293	7.45
663.482	7.47
663.671	7.33
663.86	7.24
664.048	7.17
664.237	7.13
664.426	6.85
664.615	6.8
664.803	6.77
664.992	6.75
665.181	6.68
665.369	6.67
665.558	6.57
665.747	6.41
665.935	6.38
666.124	6.42
666.312	6.45
666.501	6.41
666.69	6.34
666.878	6.27
667.067	6.09
667.255	6.19
667.444	6.46
667.632	6.56
667.82	6.68
668.009	6.65
668.197	6.55
668.386	6.33
668.574	6.29
668.762	6.11
668.951	6.08
669.139	5.99
669.327	5.89
669.516	5.96
669.704	5.91
669.892	6.11
670.08	6.13
670.269	6.05
670.457	5.83
670.645	5.85
670.833	5.9
671.021	5.92
671.21	6
671.398	6.36
671.586	6.4
671.774	6.17
671.962	6.23
672.15	6.28
672.338	6.05
672.526	6.11
672.714	6.08
672.902	6.03
673.09	6.17
673.278	6.44
673.466	6.46
673.654	6.69
673.842	6.68
674.03	6.7
674.218	6.46
674.405	6.48
674.593	6.39
674.781	6.55
674.969	6.57
675.157	6.82
675.344	6.97
675.532	7.11
675.72	7.26
675.908	7.31
676.095	7.2
676.283	7.14
676.471	7.25
676.658	7.12
676.846	7.13
677.033	7.2
677.221	7.3
677.409	7.19
677.596	7.28
677.784	7.36
677.971	7.5
678.159	7.65
678.346	7.82
678.534	7.99
678.721	8.24
678.909	8.14
679.096	8.11
679.283	8.3
679.471	8.32
679.658	8.34
679.846	8.64
680.033	8.89
680.22	8.92
680.408	8.97
680.595	9.02
680.782	8.87
680.969	8.92
681.157	8.94
681.344	8.98
681.531	8.88
681.718	9.03
681.905	9.12
682.093	9.33
682.28	9.64
682.467	10.12
682.654	10.3
682.841	10.43
683.028	10.52
683.215	10.56
683.402	10.33
683.589	10.58
683.776	10.81
683.963	10.83
684.15	11.11
684.337	11.48
684.524	11.59
684.711	11.7
684.898	11.84
685.085	12.05
685.271	12.36
685.458	12.62
685.645	12.88
685.832	13.31
686.019	13.63
686.205	13.83
686.392	14.1
686.579	14.33
686.766	14.77
686.952	15.03
687.139	15.45
687.326	15.64
687.512	16.03
687.699	16.21
687.886	16.51
688.072	16.61
688.259	17.17
688.445	17.69
688.632	18.14
688.818	18.72
689.005	19.33
689.191	19.85
689.378	20.3
689.564	20.79
689.751	21.27
689.937	21.78
690.124	22.31
690.31	22.65
690.496	23.19
690.683	23.71
690.869	24.29
691.055	24.89
691.242	25.76
691.428	26.59
691.614	27.36
691.8	28.11
691.987	28.76
692.173	29.47
692.359	30.13
692.545	30.91
692.731	31.55
692.918	32.46
693.104	33.01
693.29	33.48
693.476	34.2
693.662	35
693.848	35.55
694.034	36.42
694.22	37.08
694.406	37.8
694.592	38.62
694.778	39.43
694.964	40.14
695.15	41.11
695.336	41.86
695.522	42.77
695.708	43.44
695.894	44.14
696.08	45.08
696.265	45.67
696.451	46.19
696.637	46.95
696.823	47.55
697.009	47.83
697.194	48.42
697.38	49.28
697.566	50.02
697.751	50.83
697.937	52.05
698.123	52.91
698.308	53.63
698.494	54.37
698.68	54.97
698.865	55.33
699.051	56.01
699.236	56.43
699.422	56.79
699.607	57.22
699.793	57.91
699.978	58.35
700.164	59.08
700.349	60.02
700.535	60.74
700.72	61.15
700.906	62.1
701.091	62.56
701.276	62.78
701.462	63.94
701.647	64.87
701.832	65.31
702.018	65.68
702.203	66.23
702.388	65.99
702.573	66.6
702.759	67.34
702.944	67.82
703.129	67.97
703.314	68.77
703.499	68.65
703.684	68.58
703.87	69.81
704.055	71.1
704.24	71.71
704.425	72.64
704.61	73.23
704.795	73.03
704.98	72.98
705.165	72.98
705.35	73.4
705.535	74.18
705.72	74.22
705.905	74.9
706.09	75.56
706.275	75.7
706.459	75.61
706.644	76.26
706.829	76.59
707.014	76.57
707.199	77.06
707.384	77.14
707.568	77.27
707.753	77.88
707.938	78.37
708.123	78.33
708.307	78.55
708.492	79.09
708.677	78.78
708.861	78.62
709.046	78.64
709.231	79.51
709.415	79.51
709.6	79.71
709.784	80.05
709.969	80.49
710.153	80.13
710.338	80.8
710.522	81.19
710.707	82.15
710.891	82.56
711.076	82.92
711.26	82.53
711.445	83.05
711.629	82.71
711.813	82.92
711.998	83.52
712.182	83.83
712.366	83.82
712.551	84.65
712.735	84.78
712.919	84.64
713.103	85.15
713.288	84.6
713.472	84
713.656	84.66
713.84	84.77
714.024	85.04
714.208	85.44
714.393	86.21
714.577	85.94
714.761	86.3
714.945	86.04
715.129	86.17
715.313	86.29
715.497	86.42
715.681	86.78
715.865	86.97
716.049	87.31
716.233	87.19
716.417	87.45
716.601	87.12
716.785	86.92
716.968	87.15
717.152	87.15
717.336	86.96
717.52	86.85
717.704	87.22
717.888	87.6
718.071	87.83
718.255	88.03
718.439	88.12
718.622	88.36
718.806	88.12
718.99	87.6
719.174	87.3
719.357	87.63
719.541	87.52
719.724	87.4
719.908	88.67
720.092	89.22
720.275	89.61
720.459	89.81
720.642	89.82
720.826	88.95
721.009	88.74
721.193	87.94
721.376	87.74
721.559	88.41
721.743	89.08
721.926	89.65
722.11	90.19
722.293	89.74
722.476	89.21
722.66	88.63
722.843	88.15
723.026	88.02
723.21	89.01
723.393	89.53
723.576	89.7
723.759	89.72
723.942	90.12
724.126	89.96
724.309	89.76
724.492	89.84
724.675	89.81
724.858	89.98
725.041	90.62
725.224	91.19
725.407	91.23
725.59	91.43
725.774	91.09
725.957	90.14
726.14	89.51
726.322	89.93
726.505	89.96
726.688	90.56
726.871	90.74
727.054	91.26
727.237	91.16
727.42	91.57
727.603	91.09
727.786	91.45
727.968	91.38
728.151	91.78
728.334	91.69
728.517	91.9
728.699	92.26
728.882	91.55
729.065	91.75
729.248	92.18
729.43	92.56
729.613	92.62
729.796	93.89
729.978	92.96
730.161	92.67
730.343	92.43
730.526	93.59
730.708	92.65
730.891	93.51
731.073	93.45
731.256	93.09
731.438	92.09
731.621	93.52
731.803	93.25
731.986	93.46
732.168	93.39
732.35	93.63
732.533	93.07
732.715	93.47
732.898	93.92
733.08	94.06
733.262	93.96
733.444	93.82
733.627	93.62
733.809	93.59
733.991	94.99
734.173	94.74
734.355	94.52
734.538	95.29
734.72	95.21
734.902	95.08
735.084	95.35
735.266	95.74
735.448	95.62
735.63	95.4
735.812	94.86
735.994	95.64
736.176	95.38
736.358	95.28
736.54	96.47
736.722	95.91
736.904	95.16
737.086	95.95
737.268	96.07
737.45	95.09
737.632	95.95
737.814	94.6
737.995	93.72
738.177	93.86
738.359	93.36
738.541	93.36
738.723	94.45
738.904	95.13
739.086	94.64
739.268	94.24
739.449	94.17
739.631	93.84
739.813	93.74
739.994	94.21
740.176	95.27
740.358	95.38
740.539	97.31
740.721	97.97
740.902	98.44
741.084	98.31
741.265	98.16
741.447	97.36
741.628	97.18
741.81	96.04
741.991	96
742.172	96.69
742.354	97.32
742.535	97.5
742.717	98.04
742.898	97.82
743.079	98.75
743.261	98.03
743.442	96.85
743.623	97.69
743.804	98.8
743.986	98.55
744.167	97.44
744.348	97.31
744.529	96.83
744.71	96.42
744.891	95.98
745.073	95.83
745.254	96.49
745.435	96.15
745.616	96.21
745.797	95.86
745.978	95.61
746.159	95.4
746.34	94.24
746.521	95.16
746.702	92.98
746.883	94.65
747.064	93.76
747.245	95.18
747.426	93.35
747.606	94.72
747.787	94.55
747.968	95.24
748.149	94.82
748.33	95.87
748.51	96.55
748.691	95.65
748.872	96.79
749.053	95.88
749.233	95.38
749.414	94.41
749.595	94.35
749.775	92.81
749.956	92.71
750.137	91.73
750.317	93.24
750.498	94.07
750.678	95.2
750.859	96.5
751.04	97.53
751.22	95.66
751.4	94.91
751.581	92.95
751.761	92.09
751.942	92.88
752.122	92.48
752.303	91.86
752.483	92.87
752.663	92.72
752.844	90.94
753.024	92.83
753.204	94.11
753.385	94.15
753.565	94.32
753.745	95.37
753.925	94.54
754.106	93.88
754.286	94.12
754.466	95.96
754.646	95.53
754.826	94.64
755.006	93.58
755.187	94.51
755.367	93.49
755.547	93.03
755.727	93.77
755.907	94.2
756.087	94.11
756.267	92.64
756.447	92.62
756.627	91.86
756.807	92.44
756.987	90.75
757.167	91.78
757.346	91.85
757.526	91.06
757.706	91.03
757.886	92.68
758.066	93.35
758.246	96.42
758.425	97.21
758.605	96.1
758.785	96.17
758.965	95.15
759.144	91.26
759.324	92.17
759.504	93.28
759.683	92.49
759.863	90.44
760.043	89.92
760.222	88.86
760.402	88.45
760.581	87.44
760.761	89.66
760.94	89.89
761.12	92.25
761.299	92.96
761.479	92.67
761.658	91.02
761.838	92.11
762.017	90.39
762.197	89.84
762.376	90.68
762.555	92.69
762.735	93.59
762.914	92.33
763.093	92.64
763.273	91.31
763.452	89.6
763.631	88.96
763.81	89.84
763.99	89.53
764.169	91.4
764.348	90.64
764.527	89.93
764.706	91.04
764.885	91.42
765.064	88.37
765.243	89.84
765.423	91.02
765.602	90.01
765.781	88.09
765.96	88.87
766.139	88.06
766.318	87.19
766.497	85.9
766.676	87.89
766.854	90.73
767.033	91.54
767.212	91.04
767.391	91.45
767.57	91.4
767.749	90.63
767.928	91.43
768.106	91.87
768.285	91.87
768.464	91.32
768.643	89.76
768.821	88.67
769	88.94
769.179	89.43
769.357	87.52
769.536	89.17
769.715	89.92
769.893	90.63
770.072	89.78
770.25	91.15
770.429	90.64
770.607	89.9
770.786	89.42
770.964	90.67
771.143	90.58
771.321	91.47
771.5	92.46
771.678	92.17
771.857	90.34
772.035	90.28
772.213	88.37
772.392	85.8
772.57	86.05
772.748	87.14
772.927	85.28
773.105	83.79
773.283	85.75
773.461	85.66
773.64	85.88
773.818	86.69
773.996	87.9
774.174	87.87
774.352	86.98
774.531	84.92
774.709	88.87
774.887	88.48
775.065	88.14
775.243	87.16
775.421	88.43
775.599	86.61
775.777	86.33
775.955	84.52
776.133	83.68
776.311	83.24
776.489	80.26
776.667	81.38
776.844	82.27
777.022	81.54
777.2	82.39
777.378	82.83
777.556	82.93
777.734	86.22
777.911	90.78
778.089	89.85
778.267	91.53
778.445	89.86
778.622	87.86
778.8	84.3
778.978	85.22
779.155	84.14
779.333	85.36
779.511	84.96
779.688	87.89
779.866	84.31
780.043	81.1
780.221	78.87
780.398	76.22
780.576	78.81
780.753	83.08
780.931	84.74
781.108	84.62
781.286	86.68
781.463	80.51
781.64	75.41
781.818	78.51
781.995	81.44
782.172	81.21
782.35	84.58
782.527	89.96
782.704	88.57
782.882	87.98
783.059	84.62
783.236	86.24
783.413	87.62
783.59	85.7
783.768	82.28
783.945	86.12
784.122	83.16
784.299	80.49
784.476	80.41
784.653	81.11
784.83	77.65
785.007	72.93
785.184	70.94
785.361	69.94
785.538	76.38
785.715	80.69
785.892	84.33
786.069	89.49
786.246	92.75
786.423	90.53
786.6	90
786.776	91.67
786.953	86.55
787.13	88.96
787.307	85.92
787.484	82.86
787.66	78.14
787.837	80.27
788.014	75
788.191	73.63
788.367	73
788.544	76.5
788.721	72.3
788.897	73.49
789.074	76.02
789.25	76.12
789.427	76.13
789.603	80.92
789.78	82.54
789.956	79.69
790.133	78.33
790.309	78.57
790.486	79.98
790.662	75.33
790.839	75.6
791.015	76.59
791.192	74.16
791.368	74.08
791.544	76
791.721	77.09
791.897	77.76
792.073	75.35
792.249	65
792.426	69.21
792.602	72.7
792.778	75.23
792.954	78.55
793.13	85.46
793.307	77.5
793.483	70.22
793.659	69.01
793.835	71.4
794.011	68.72
794.187	71.55
794.363	70.16
794.539	72.32
794.715	66.9
794.891	69.14
795.067	68.57
795.243	75.17
795.419	71.36
795.595	70
795.771	68.3
795.947	71.4
796.122	67.42
796.298	72.93
796.474	79.79
796.65	80.63
796.826	76.24
797.001	75.13
797.177	69.56
797.353	67.11
797.529	71.05
797.704	73.04
797.88	71.82
798.056	68.8
798.231	64.5
798.407	69.64
798.582	67.84
798.758	75.29
798.934	82.36
799.109	85.71
799.285	75.23
799.46	81.35
799.636	76.22
799.811	73.92
799.986	79.2
800.162	81.19
800.337	81
800.513	78.54
800.688	76.25
800.863	75.96
801.039	70.83
801.214	64.93
801.389	69.37
801.565	66.71
801.74	54.43
801.915	68.05
802.09	68.51
802.265	69.6
802.441	65.96
802.616	70.29
802.791	65.32
802.966	66.72
803.141	63.33
803.316	64.74
803.491	67.67
803.666	68.93
803.841	65.81
804.016	67.07
804.191	70.23
804.366	71.37
804.541	64.36
804.716	68.06
804.891	62.25
805.066	65.46
805.241	62.21
805.416	63.39
805.591	58.8
805.765	60.74
805.94	66.18
806.115	69.16
806.29	64.91
806.464	69.61
806.639	67.27
806.814	52.39
806.989	39.96
807.163	50.4
807.338	41.64
807.512	44.5
807.687	39.99
807.862	57.51
808.036	59.68
808.211	62.03
808.385	75.62
808.56	87.58
808.734	81.02
808.909	73.71
809.083	72.08
809.258	69.27
809.432	69.43
809.606	53.64
809.781	49.11
809.955	55.24
810.13	53.14
810.304	42.38
810.478	44.95
810.652	54.54
810.827	57.93
811.001	49.83
811.175	55.18
811.349	63.7
811.524	55.99
811.698	41.91
811.872	42.38
812.046	45.65
812.22	52.03
812.394	50.6
812.568	57.14
812.742	64.83
812.916	63.53
813.09	51.99
813.264	55.91
813.438	64.07
813.612	52.6
813.786	49.1
813.96	63.26
814.134	63.51
814.308	66.09
814.482	77.46
814.656	74.37
814.83	69.2
815.003	74.89
815.177	64.44
815.351	49.95
815.525	54.08
815.698	43.26
815.872	30.62
816.046	25.59
816.219	40.73
816.393	48.09
816.567	58.43
816.74	67.32
816.914	70.43
817.088	65.94
817.261	62.03
817.435	56.85
817.608	54.77
817.782	50.31
817.955	56.23
818.129	43.67
818.302	48.5
818.475	58.31
818.649	56.52
818.822	42.57
818.996	69.42
819.169	73.63
819.342	58.8
819.516	80.45
819.689	91.3
819.862	66.73
820.035	51.08
820.209	52.65
820.382	43.76
820.555	38.5
820.728	31.69
820.901	29.97
821.075	33.66
821.248	40.1
821.421	26.44
821.594	24.12
821.767	47.58
821.94	55.49
822.113	23.56
822.286	28.07
822.459	38.9
822.632	27.07
822.805	8.16
822.978	16.8
823.151	21.39
823.324	16.55
823.496	-6.07
823.669	-12.69
823.842	-1.66
824.015	-9.78
824.188	-16.13
824.361	-2.3
824.533	16.08
824.706	24.06
824.879	26.45
825.051	35.51
825.224	35.15
825.397	17.03
825.569	-4.38
825.742	20.21
825.915	29.45
826.087	36.87
826.26	32.36
826.432	39.76
826.605	34.58
826.777	20.98
826.95	14.65
827.122	6.08
827.295	16.57
827.467	11.75
827.64	-8.09
827.812	-6.18
827.984	6.36
828.157	-3.88
828.329	-26.85
828.501	-10.79
828.674	18.61
828.846	1.19
829.018	15.25
829.19	17.94
829.363	42.31
829.535	40.96
829.707	53.81
829.879	27.84
830.051	16.38
830.223	-12.41
830.395	-49.77
830.568	-64.97
830.74	-79.04
830.912	-35
831.084	-40.76
831.256	-23.55
831.428	-24.59
831.6	-11.12
831.772	-59.8
831.943	-60.81
832.115	-51.06
832.287	-22.08
832.459	-3.86
832.631	21.9
832.803	43.34
832.975	64.41
833.146	44.1
833.318	20.14
833.49	27.9
833.662	14.59
833.833	-0.78
834.005	3.11
834.177	10.07
834.348	7.13
834.52	4.85
834.692	1.98
834.863	-12.68
835.035	-6.01
835.206	-67.48
835.378	-57.07
835.549	-47.15
835.721	-13.65
835.892	-24.85
836.064	-11.74
836.235	-17.9
836.407	2.98
836.578	-39.43
836.749	-24.2
836.921	-40.84
837.092	-70.63
837.264	-79.49
837.435	-91.11
837.606	-44.2
837.777	-7.31
837.949	11.11
838.12	21.94
838.291	37.73
838.462	30.4
838.633	11.94
838.805	5.63
838.976	-0.79
839.147	-37.55
839.318	-58.7
839.489	-123.17
839.66	-61
839.831	-25.09
840.002	-13.06
840.173	-27.29
840.344	24.73
840.515	-29.26
840.686	-212.75
840.857	-202.85
841.028	-144.71
841.199	-105.82
841.369	-81
841.54	-34.64
841.711	17.04
841.882	49.84
842.053	31.61
842.223	8.44
842.394	20.26
842.565	4.74
842.736	-7.01
842.906	-0.59
843.077	11.83
843.248	0.2
843.418	-6.74
843.589	-37.93
843.759	-19.84
843.93	-17.44
844.101	4.22
844.271	7.05
844.442	27.75
844.612	42.28
844.783	13.29
844.953	-24.44
845.123	-49.39
845.294	-60.21
845.464	-296.64
845.635	-138.16
845.805	-21.93
845.975	20.49
846.146	-36.04
846.316	-34.23
846.486	-10.22
846.656	24.85
846.827	9.67
846.997	11.78
847.167	44.09
847.337	27.69
847.507	-36.42
847.677	-0.07
847.848	57.32
848.018	44.92
848.188	49.78
848.358	29.84
848.528	-4.18
848.698	-52.81
848.868	-151.97
849.038	-283.77
849.208	-74.28
849.378	8.38
849.548	18.9
849.718	21.53
849.887	43.46
850.057	6.08
850.227	-33.34
850.397	-71.8
850.567	-189.93
850.737	-399.46
850.906	-1107.19
851.076	-858.4
851.246	-443.32
851.415	-29.74
851.585	-56.77
851.755	-105.18
851.924	-39.54
852.094	-69.17
852.264	-172.07
852.433	-1016.11
852.603	-116.03
852.772	-51.45
852.942	1.24
853.111	-17.41
853.281	41.72
853.45	55.61
853.62	-22.64
853.789	-74.09
853.959	26.19
854.128	-21.95
854.297	-71.73
854.467	-96.72
854.636	-85.46
854.805	-69.29
854.975	-145.26
855.144	-255.82
855.313	-225
855.482	-458.21
855.652	-302.38
855.821	-149.35
855.99	1.4
856.159	-3.23
856.328	-3.38
856.497	4.61
856.667	10.28
856.836	16.66
857.005	-3.55
857.174	-14.19
857.343	-62.48
857.512	-58.69
857.681	-93.84
857.85	-131.58
858.019	-66.49
858.188	-55.52
858.356	-46.68
858.525	-110.47
858.694	-67.33
858.863	-159.86
859.032	-114.84
859.201	-193.91
859.369	-75.19
859.538	-109.31
859.707	-107.19
859.876	-122.34
860.044	-137.62
860.213	-26.57
860.382	-37.67
860.55	-6.94
860.719	18.99
860.888	49.34
861.056	-0.07
861.225	7.36
861.393	54.05
861.562	81.51
861.73	-6.01
861.899	-6.68
862.067	-1750.86
862.236	-175.06
862.404	-446.33
862.572	-262.95
862.741	-108.13
862.909	-44.22
863.078	-112.11
863.246	-74.61
863.414	-59.66
863.582	-36.91
863.751	-94.08
863.919	-99.05
864.087	-18.63
864.255	-56.62
864.424	-446.12
864.592	-75.67
864.76	-125.93
864.928	-502.2
865.096	-217.12
865.264	-157.08
865.432	-1747.16
865.6	-97.88
865.768	-106.81
865.936	-140.64
866.104	-125.11
866.272	-257.11
866.44	-618.01
866.608	941.17
866.776	426.09
866.944	3671.51
867.112	-614.3
867.28	-222.39
867.448	-66.23
867.615	7.22
867.783	7.06
867.951	-12.75
868.119	37.5
868.286	9.62
868.454	-130.88
868.622	-111.16
868.789	-55.55
868.957	-1698.21
869.125	-1754.61
869.292	-118.86
869.46	-249.61
869.627	-46.06
869.795	-70.5
869.963	-19.42
870.13	-8.98
870.298	13.62
870.465	-89.02
870.632	-68.27
870.8	-89.85
870.967	-152.2
871.135	-233
871.302	-174.14
871.469	-211.23
871.637	-266.1
871.804	-122.84
871.971	-160.82
872.139	-483.14
872.306	-48.48
872.473	-74.31
872.64	-327.36
872.807	-39.2
872.975	53.39
873.142	-192.27
873.309	1664.19
873.476	94.45
873.643	148.67
873.81	26.28
873.977	53.04
874.144	66.55
874.311	-111.71
874.478	-222.33
874.645	-260.16
874.812	-199.95
874.979	-152.48
875.146	-176.22
875.313	-171.76
875.48	-36.25
875.647	-32.4
875.813	-67.31
875.98	-25.46
876.147	-46.61
876.314	-105.18
876.481	930.37
876.647	-921.07
876.814	368.78
876.981	71.25
877.147	-29.56
877.314	11.56
877.481	20.21
877.647	11.35
877.814	-31.07
877.98	-58.23
878.147	-2.2
878.314	22.35
878.48	-5.03
878.647	-7.05
878.813	40.53
878.979	7.98
879.146	-30.04
879.312	-27.29
879.479	-85.34
879.645	-219.73
879.811	-378.79
879.978	-838.74
880.144	-196.56
880.31	-101.68
880.477	-333.05
880.643	-454.49
880.809	-197.41
880.975	-192.42
881.142	-1067.05
881.308	-81.59
881.474	0.85
881.64	-19.95
881.806	-37.06
881.972	-11.09
882.138	-2.5
882.304	17.94
882.47	-121.95
882.636	-681.76
882.802	-206.61
882.968	-30.86
883.134	-24.95
883.3	-23.34
883.466	38.4
883.632	96.65
883.798	42.97
883.964	35.86
884.129	41.31
884.295	25.82
884.461	-91.56
884.627	-104.27
884.793	-121.53
884.958	-66.49
885.124	-179.42
885.29	-241.14
885.455	-304.73
885.621	-75.88
885.787	-107.39
885.952	-35.07
886.118	-59.36
886.283	-57.57
886.449	-171.99
886.614	-205.85
886.78	-434.13
886.945	1899.59
887.111	-954.19
887.276	-769.18
887.442	-1277.05
887.607	-484.32
887.773	-284
887.938	-303.33
888.103	-388.47
888.269	-275.83
888.434	-533.92
888.599	-221.27
888.764	-35.3
888.93	-11.22
889.095	-26.27
889.26	-70.76
889.425	-31.76
889.59	-28.06
889.756	-9.78
889.921	-21.64
890.086	38.12
890.251	12.85
890.416	-171.11
890.581	-1757.66
890.746	144.91
890.911	375
891.076	173.26
891.241	-343.1
891.406	1.53
891.571	-112.5
891.736	-431.08
891.901	-852.88
892.065	960.16
892.23	185.74
892.395	300.73
892.56	372.18
892.725	-396.68
892.889	-1501.83
893.054	-259.54
893.219	-73.81
893.384	-33.07
893.548	-86.51
893.713	-85.65
893.878	-38.2
