Data from Ofra_PS_T2_1A_2GT41_Reflection_1.txt Node
Date: Wed Jul 21 17:56:50 EDT 2021
User: Adam
Spectrometer: FLMT01687
Trigger mode: 0
Integration Time (sec): 1.100000E0
Scans to average: 2
Electric dark correction enabled: true
Nonlinearity correction enabled: false
Boxcar width: 2
XAxis mode: Wavelengths
Number of Pixels in Spectrum: 3648
>>>>>Begin Spectral Data<<<<<
179.494	605.2
179.716	704.94
179.937	648.89
180.158	612.62
180.38	1000.94
180.601	341.16
180.823	68.16
181.044	-11.61
181.265	255.51
181.486	23.19
181.708	98.27
181.929	807.14
182.15	-366.9
182.372	142.06
182.593	-6.1
182.814	8.35
183.035	17.83
183.257	37.95
183.478	-86.7
183.699	-58.56
183.92	-50.87
184.141	-3.82
184.363	-81.33
184.584	4.28
184.805	35.78
185.026	44.47
185.247	48.27
185.468	26.16
185.689	17.61
185.91	4.51
186.132	9.97
186.353	-8.85
186.574	59.99
186.795	49.7
187.016	17.61
187.237	-19.02
187.458	-47.96
187.679	-51.42
187.9	-31.29
188.121	-28.59
188.342	0.07
188.563	46.35
188.784	31.49
189.005	29.84
189.226	93.85
189.447	82.51
189.667	-119.17
189.888	-206.65
190.109	-969.48
190.33	-684.84
190.551	-1308.41
190.772	-274.46
190.993	-260.5
191.214	-233.73
191.434	-167.3
191.655	-50
191.876	-121.4
192.097	-144.67
192.318	-176.95
192.538	-261.14
192.759	-214.69
192.98	-73.39
193.201	-41.07
193.421	-29.6
193.642	-1.51
193.863	0.4
194.083	-27.67
194.304	-33.39
194.525	-37.39
194.745	-52.28
194.966	-50.15
195.187	-59.73
195.407	-71.4
195.628	-112.04
195.848	-117.25
196.069	-145.67
196.29	-94.03
196.51	-114.07
196.731	-101.85
196.951	-148.29
197.172	-140.77
197.392	-166.93
197.613	-155.6
197.833	-199.08
198.054	-146.68
198.274	-82.56
198.495	-101.02
198.715	-56.53
198.936	-58.69
199.156	-57.34
199.377	-155.44
199.597	-148.25
199.817	-169.45
200.038	-82.65
200.258	-131.85
200.479	-91.62
200.699	-78.36
200.919	0.45
201.14	-28.7
201.36	-58.63
201.58	5.42
201.801	39.03
202.021	-13.26
202.241	-20.82
202.461	-9.99
202.682	-116.75
202.902	-237.3
203.122	-130.81
203.342	-83.82
203.563	-26.76
203.783	11.13
204.003	22.13
204.223	6.13
204.443	49.61
204.663	7.23
204.884	1.16
205.104	38.67
205.324	88.16
205.544	39.33
205.764	54.84
205.984	58.94
206.204	52.43
206.424	29.13
206.644	-6.11
206.864	-13.69
207.084	-37.76
207.304	-32.97
207.525	-154.53
207.745	-50
207.964	5.62
208.184	-62.32
208.404	-110.85
208.624	-118.88
208.844	-140.22
209.064	-480.99
209.284	-542.36
209.504	-276.27
209.724	-75.03
209.944	-50.6
210.164	-6.36
210.384	27.69
210.604	14.7
210.823	-16.16
211.043	-37.96
211.263	-45.67
211.483	-36.76
211.703	-92.86
211.922	-82.72
212.142	-6.71
212.362	-0.85
212.582	-45.57
212.801	-25.7
213.021	-57.06
213.241	-82.96
213.461	-106.02
213.68	-106.04
213.9	-92.39
214.12	-51.67
214.339	-113.65
214.559	-76.76
214.779	-7.3
214.998	-3.55
215.218	-37.08
215.438	-22.78
215.657	-45.7
215.877	-82.15
216.096	-57.49
216.316	-28.49
216.535	-44.49
216.755	-22.71
216.974	-97.9
217.194	-141.01
217.413	-166.56
217.633	-140.77
217.852	-288.96
218.072	-125.37
218.291	-56.6
218.511	-8.46
218.73	-23.97
218.95	-19.54
219.169	-30.77
219.389	-73.13
219.608	-57.19
219.827	-55.98
220.047	-44.54
220.266	-31.44
220.485	-32.14
220.705	-42.23
220.924	-53.77
221.143	-3.74
221.363	-32.04
221.582	-21.58
221.801	-24.41
222.021	6.09
222.24	-110.13
222.459	-45.87
222.678	-52.66
222.897	-128.09
223.117	-199.74
223.336	-143.75
223.555	-113.34
223.774	-66.21
223.993	-29.34
224.213	67.45
224.432	31.29
224.651	47.43
224.87	18.17
225.089	26.16
225.308	7.74
225.527	33.47
225.746	22.18
225.965	13.27
226.184	-10.02
226.404	4.26
226.623	-16.42
226.842	-12.99
227.061	20.6
227.28	25.62
227.499	5.92
227.718	24.08
227.936	13.14
228.155	18.15
228.374	1.78
228.593	11.37
228.812	-4.54
229.031	3.8
229.25	-53.05
229.469	-44.74
229.688	-26.1
229.907	16.26
230.125	24.94
230.344	23
230.563	32.22
230.782	23.85
231.001	-56.4
231.22	-38.45
231.438	-9.3
231.657	-15.39
231.876	-32.64
232.095	3.75
232.313	-10.75
232.532	-47.34
232.751	-84.25
232.969	-79.79
233.188	-133.64
233.407	-58.9
233.625	-19.21
233.844	-32.17
234.063	-12.83
234.281	-10.61
234.5	-19.13
234.719	-33.64
234.937	-3.77
235.156	-7.67
235.374	-7.9
235.593	-20.06
235.811	-25.52
236.03	-52.88
236.249	-110.39
236.467	-91.05
236.686	-33.27
236.904	-17.07
237.123	-30.92
237.341	-24.29
237.559	-19.48
237.778	-40.96
237.996	-68
238.215	-18.49
238.433	7.01
238.652	5.26
238.87	-20.06
239.088	-8.67
239.307	-24.75
239.525	-43.41
239.743	-65.3
239.962	-53.75
240.18	-72.28
240.398	-125.29
240.617	-115.78
240.835	-95.09
241.053	-54.29
241.271	15.73
241.49	45.5
241.708	22.44
241.926	5.07
242.144	-28.89
242.363	-108.37
242.581	-140.79
242.799	-76.24
243.017	-40.27
243.235	-48.12
243.453	-35.54
243.672	-31.98
243.89	-37.04
244.108	-38.2
244.326	-5.94
244.544	-9.53
244.762	-3.43
244.98	6.66
245.198	-6.82
245.416	-51.91
245.634	-41.87
245.852	-61.88
246.07	-72.94
246.288	-48.62
246.506	-76.28
246.724	-53.19
246.942	-55.06
247.16	-16.75
247.378	-14.86
247.596	23.8
247.814	20.98
248.032	6.75
248.25	3.42
248.468	2.61
248.685	-6.86
248.903	18.44
249.121	24.11
249.339	-11.42
249.557	-31.66
249.775	-10.63
249.992	-81.23
250.21	-68.9
250.428	-43.87
250.646	-62.64
250.863	-88.82
251.081	-50.1
251.299	-64.24
251.517	-60.12
251.734	-38.44
251.952	-34.1
252.17	-28.32
252.387	-12.55
252.605	-29.13
252.823	-26.04
253.04	-10.61
253.258	12.95
253.475	-2.41
253.693	36.5
253.911	33.44
254.128	31.12
254.346	27.71
254.563	24.45
254.781	-12.89
254.998	-17.33
255.216	-34.02
255.433	-37.67
255.651	-12.81
255.868	12.09
256.086	54.69
256.303	52.03
256.521	32.05
256.738	2.72
256.956	-19.98
257.173	-75.07
257.39	-98.09
257.608	-125.39
257.825	-54.09
258.043	-28.52
258.26	-6.57
258.477	33.7
258.695	26.95
258.912	-33.17
259.129	-18.98
259.346	-57.74
259.564	-82.22
259.781	-94.86
259.998	-24.48
260.216	-11.67
260.433	35.79
260.65	19.16
260.867	40.05
261.084	-0.81
261.302	-11.6
261.519	-27.76
261.736	-47.38
261.953	-72.64
262.17	-24.87
262.387	-63.75
262.604	-106.77
262.822	-116.59
263.039	-101.33
263.256	-169.62
263.473	-135
263.69	-82.08
263.907	-24.52
264.124	-18.63
264.341	-1.22
264.558	4.75
264.775	10.51
264.992	-4.44
265.209	3.41
265.426	22.74
265.643	18.73
265.86	36.67
266.077	33.92
266.294	32.84
266.51	-15.07
266.727	-21.96
266.944	-34.27
267.161	-46.07
267.378	-67.61
267.595	-37.87
267.812	-42.94
268.028	-61.05
268.245	-29.18
268.462	-32.64
268.679	-41.45
268.896	-1.35
269.112	-5.61
269.329	-11.11
269.546	-16.24
269.763	-16.65
269.979	-39.35
270.196	-37.98
270.413	-75.41
270.629	-93.49
270.846	-104.34
271.063	-88.96
271.279	-98.46
271.496	-77.16
271.712	-18.96
271.929	-1.68
272.146	-20.98
272.362	0.32
272.579	31.74
272.795	24.44
273.012	29.49
273.228	39.66
273.445	12.76
273.661	-24.1
273.878	-71.29
274.094	-51.05
274.311	-90.46
274.527	-29.66
274.744	-11.95
274.96	-3.15
275.177	-6.25
275.393	21.78
275.609	26.49
275.826	44.97
276.042	39.43
276.259	23.19
276.475	30.23
276.691	23.29
276.908	-13.73
277.124	1.24
277.34	4.26
277.557	-28.75
277.773	-31.74
277.989	-27.98
278.205	-36.83
278.422	-14.16
278.638	-1.28
278.854	8.94
279.07	10.57
279.286	6.23
279.503	-29.7
279.719	-39.76
279.935	-60.76
280.151	-68.23
280.367	-36.81
280.583	-53.57
280.799	-42.3
281.016	-63.39
281.232	-12.96
281.448	-22.41
281.664	12.75
281.88	-14.33
282.096	3.72
282.312	-11.48
282.528	2.75
282.744	-8.73
282.96	13.97
283.176	5.39
283.392	-7.06
283.608	-18.01
283.824	-25.3
284.04	-29.98
284.256	-27.54
284.471	-20.05
284.687	-13.96
284.903	14.06
285.119	28.74
285.335	21.31
285.551	24.6
285.767	-3.68
285.982	-21.24
286.198	-46.23
286.414	-6.44
286.63	0.19
286.846	29.36
287.061	7.22
287.277	44.22
287.493	16.77
287.709	23.8
287.924	3.87
288.14	25.08
288.356	-8.26
288.571	25.69
288.787	10.59
289.003	11.27
289.218	-2.05
289.434	-31.46
289.65	-47.2
289.865	-68.04
290.081	-55.61
290.296	-32.82
290.512	-16.41
290.727	-43.27
290.943	-38.51
291.159	-39.42
291.374	-40.87
291.59	-62.65
291.805	-52.93
292.021	-26.33
292.236	-37.45
292.451	-26.27
292.667	-2.67
292.882	14.84
293.098	5.48
293.313	-7.86
293.529	-23.99
293.744	-54.46
293.959	-43.58
294.175	-44.32
294.39	3.6
294.605	13.31
294.821	44.22
295.036	41.11
295.251	43.3
295.467	-0.72
295.682	-17.05
295.897	-80.25
296.112	-86.37
296.328	-71.32
296.543	-75.97
296.758	-66.76
296.973	-12.48
297.188	19.23
297.404	-6.64
297.619	-22.92
297.834	-36.45
298.049	-64.94
298.264	-85.86
298.479	-38.04
298.694	-14.51
298.909	5.23
299.125	2.52
299.34	2.68
299.555	-13.11
299.77	-1.9
299.985	-43.31
300.2	-79.27
300.415	-101.6
300.63	-63.15
300.845	-81.49
301.06	-62.46
301.275	-41.29
301.49	-10.9
301.704	-24.78
301.919	-23.14
302.134	-48.15
302.349	-26.4
302.564	-96.49
302.779	-117.67
302.994	-107.6
303.209	-67.55
303.423	-45.51
303.638	28.32
303.853	-3.63
304.068	-20.35
304.283	-19.65
304.497	-30.56
304.712	-47.46
304.927	-23.86
305.142	-20.34
305.356	-11.28
305.571	-11.63
305.786	-25.73
306	-55.82
306.215	-49.22
306.43	-72.15
306.644	-80.21
306.859	-30.66
307.074	-1.44
307.288	-35.01
307.503	-42.85
307.717	-45.92
307.932	-58.69
308.147	-71.29
308.361	-60.11
308.576	-65.02
308.79	-109.62
309.005	-93.52
309.219	-75.02
309.434	-74.82
309.648	-66.74
309.863	-27.03
310.077	-20.93
310.292	-16.56
310.506	-15.01
310.72	2.52
310.935	-10.25
311.149	-21.09
311.364	-5.43
311.578	2.18
311.792	-10.46
312.007	8.31
312.221	-9.12
312.435	-11.62
312.649	-20.1
312.864	-12.83
313.078	-6.06
313.292	72.91
313.507	39.65
313.721	57.06
313.935	39.42
314.149	19.97
314.363	-0.91
314.578	12.73
314.792	19.62
315.006	6.5
315.22	19.93
315.434	20.77
315.648	21.94
315.862	20.61
316.077	20.16
316.291	6.57
316.505	9.01
316.719	-0.92
316.933	-31.01
317.147	-37.49
317.361	-83.8
317.575	-101.03
317.789	-146.59
318.003	-200.57
318.217	-146.46
318.431	-52.65
318.645	-8.89
318.859	0.8
319.073	25.89
319.287	2.38
319.5	-21.11
319.714	-54.1
319.928	-75.65
320.142	-96.85
320.356	-31.18
320.57	13.82
320.784	-2.44
320.997	-8.8
321.211	-31.29
321.425	-86.25
321.639	-131.83
321.853	-72.46
322.066	-52.97
322.28	-43.11
322.494	-25.12
322.707	-10.4
322.921	-12.72
323.135	-9.1
323.349	2.17
323.562	-16.01
323.776	-36.55
323.989	-41.91
324.203	-68.53
324.417	-92.32
324.63	-109.44
324.844	-100.43
325.057	-96.27
325.271	-62.61
325.485	-25.06
325.698	-4.95
325.912	12.28
326.125	-16.38
326.339	-24.8
326.552	-49.6
326.766	-53.91
326.979	-24.55
327.193	21.62
327.406	15.26
327.619	3.81
327.833	29.21
328.046	-3.68
328.26	-38.59
328.473	-7.15
328.686	-16.14
328.9	-25.09
329.113	-3.17
329.326	-7.91
329.54	-2.25
329.753	-6.53
329.966	-40.28
330.179	-61.15
330.393	-21.62
330.606	-26.11
330.819	-3.72
331.032	11.04
331.246	11.37
331.459	19.18
331.672	5.55
331.885	-4.34
332.098	-24.61
332.311	-45.81
332.525	-93.63
332.738	-92.56
332.951	-52.73
333.164	-12.61
333.377	8.76
333.59	28.67
333.803	36.07
334.016	19.86
334.229	3.97
334.442	3.34
334.655	11.37
334.868	9.69
335.081	21.72
335.294	11.29
335.507	8.83
335.72	0.75
335.933	-0.83
336.146	-17.28
336.359	-10.77
336.572	-39.02
336.785	-66.75
336.997	-51.78
337.21	-40.25
337.423	-47.73
337.636	-39.89
337.849	-16.84
338.062	-35.27
338.274	-15.57
338.487	-22.68
338.7	-14.87
338.913	-47.87
339.125	-70.7
339.338	-142.12
339.551	-113.05
339.763	-59.82
339.976	-20.23
340.189	1.63
340.402	24.72
340.614	4
340.827	-14.36
341.039	-52.73
341.252	-36.51
341.465	-15.34
341.677	-12.05
341.89	-33.32
342.102	1.59
342.315	-11.38
342.527	-41.5
342.74	-31.62
342.952	1.08
343.165	-9.77
343.377	1.11
343.59	-6.64
343.802	11.41
344.015	1.21
344.227	5.09
344.44	-2.33
344.652	6.5
344.864	-14.99
345.077	14.16
345.289	22.13
345.502	25.11
345.714	15.11
345.926	24.94
346.139	8.95
346.351	11.37
346.563	15.45
346.775	22.72
346.988	9.85
347.2	-2.98
347.412	-53.73
347.624	-68.52
347.837	-76.15
348.049	-46.55
348.261	-7.55
348.473	4.69
348.685	-2.86
348.897	-20.4
349.11	-39.03
349.322	-77.67
349.534	-39.9
349.746	-35.44
349.958	-17.98
350.17	-26.47
350.382	-0.49
350.594	-17.31
350.806	-17.91
351.018	-10.92
351.23	-20.14
351.442	-66.28
351.654	-86.86
351.866	-65.92
352.078	-58.82
352.29	-24.71
352.502	-10.6
352.714	14.11
352.926	-1.88
353.138	-11.29
353.35	-17.38
353.561	-13.46
353.773	-42.51
353.985	-19.35
354.197	-21.89
354.409	-28.52
354.621	-31.4
354.832	-26.84
355.044	-42.67
355.256	-33.79
355.468	-14.46
355.679	-19.84
355.891	5.53
356.103	-3.91
356.314	-11.02
356.526	-13.2
356.738	-18.03
356.949	-48.33
357.161	-20.23
357.373	-8.19
357.584	-25.97
357.796	2.23
358.008	4.94
358.219	21.38
358.431	22.13
358.642	31.64
358.854	19.33
359.065	11.27
359.277	-27.59
359.488	-42.71
359.7	-73.11
359.911	-88.72
360.123	-64.39
360.334	-57.19
360.546	-75.52
360.757	-58.46
360.969	-41.96
361.18	-18.87
361.391	-14.43
361.603	-19.73
361.814	-1.62
362.025	-17.65
362.237	-33.55
362.448	-24.26
362.659	-0.84
362.871	-12.6
363.082	-1.69
363.293	5.11
363.504	-6.21
363.716	-12.36
363.927	-16.47
364.138	-51.91
364.349	-65.08
364.56	-60.48
364.772	-64.03
364.983	-31.47
365.194	-15.52
365.405	-13.34
365.616	4.28
365.827	6.9
366.038	-26.59
366.25	-34.79
366.461	-65.72
366.672	-40.27
366.883	-21.99
367.094	-10.48
367.305	-20.91
367.516	-8.2
367.727	-43.5
367.938	-62.73
368.149	-48.75
368.36	-24.58
368.571	-28.69
368.781	-36.73
368.992	-50.39
369.203	-83
369.414	-105.99
369.625	-107.38
369.836	-94.07
370.047	-110.69
370.258	-91.91
370.468	-88.41
370.679	-94.25
370.89	-78.67
371.101	-52.66
371.312	-52.62
371.522	-40.27
371.733	-32.73
371.944	-32.79
372.155	-26.39
372.365	-34.53
372.576	-40.34
372.787	-37.24
372.997	-70.95
373.208	-71.46
373.419	-45.35
373.629	-73.35
373.84	-63.31
374.05	-66.11
374.261	-50
374.472	-61.18
374.682	0.96
374.893	-2.59
375.103	42.61
375.314	30.66
375.524	28.59
375.735	15.37
375.945	13.81
376.156	-24.63
376.366	-17.06
376.577	-14.03
376.787	-23.57
376.997	-22.88
377.208	-16.15
377.418	-32.95
377.629	-16.06
377.839	-17.45
378.049	-10.68
378.26	8.45
378.47	26.43
378.68	11.81
378.89	14.99
379.101	3.13
379.311	-29.41
379.521	-67.06
379.732	-69.41
379.942	-62.73
380.152	-74.23
380.362	-24.55
380.572	-15.54
380.783	3.74
380.993	13.63
381.203	34.63
381.413	43.09
381.623	41.45
381.833	30.49
382.043	12.65
382.253	-3.32
382.463	-13.1
382.674	-20.87
382.884	-37.78
383.094	-37.9
383.304	-27.13
383.514	-22.34
383.724	-11.47
383.934	-15.65
384.144	-24.73
384.353	-32.21
384.563	-35.55
384.773	-28.08
384.983	-37.79
385.193	-14.38
385.403	-14.97
385.613	-11.52
385.823	-26.86
386.033	-6.22
386.242	-13.94
386.452	-8.87
386.662	-22.18
386.872	-7.84
387.082	-15.93
387.291	-23.1
387.501	-24.39
387.711	-10.22
387.921	-17.61
388.13	-20.75
388.34	-7.84
388.55	-14.75
388.759	-18.09
388.969	-12.14
389.179	-11.37
389.388	-15.02
389.598	-9.41
389.807	-16.13
390.017	-19.06
390.227	-15.67
390.436	-18.65
390.646	-15.85
390.855	-10.76
391.065	-8.98
391.274	-12.08
391.484	-10.99
391.693	-7.3
391.903	-3.08
392.112	3.07
392.322	8.79
392.531	13.03
392.74	11.28
392.95	4.39
393.159	1.97
393.369	2.24
393.578	-0.48
393.787	-2
393.997	-0.15
394.206	-4.22
394.415	-4.56
394.625	-4.24
394.834	-5.55
395.043	-4.08
395.252	-0.24
395.462	-0.06
395.671	1.78
395.88	3.41
396.089	4.26
396.298	2.51
396.508	2.45
396.717	1.59
396.926	1.63
397.135	0.73
397.344	1.65
397.553	2.07
397.762	3.68
397.971	3.67
398.181	4.04
398.39	3.21
398.599	2.86
398.808	2.37
399.017	3.55
399.226	4.64
399.435	5.92
399.644	6.12
399.853	5.17
400.062	4.74
400.27	4.07
400.479	3.26
400.688	2.51
400.897	2.94
401.106	2.7
401.315	2.62
401.524	2.96
401.733	3.65
401.941	3.97
402.15	3.92
402.359	3.8
402.568	4.04
402.777	4.1
402.985	3.98
403.194	4.01
403.403	4.11
403.612	3.76
403.82	3.43
404.029	3.49
404.238	3.31
404.446	3.54
404.655	3.2
404.864	3.08
405.072	2.78
405.281	3.05
405.489	2.81
405.698	2.78
405.906	2.85
406.115	3.02
406.324	2.87
406.532	2.99
406.741	3.49
406.949	3.65
407.158	3.53
407.366	3.63
407.574	3.53
407.783	3.32
407.991	3.05
408.2	3.34
408.408	3.22
408.617	3.16
408.825	2.96
409.033	3.22
409.242	3.21
409.45	3.32
409.658	3.22
409.867	3.49
410.075	3.24
410.283	3
410.491	2.84
410.7	2.92
410.908	2.95
411.116	3.39
411.324	3.36
411.533	3.28
411.741	3.38
411.949	3.27
412.157	2.89
412.365	2.91
412.573	3.15
412.781	3.22
412.99	3.16
413.198	3.36
413.406	3.39
413.614	3.26
413.822	3.17
414.03	3.07
414.238	2.79
414.446	2.89
414.654	2.64
414.862	2.69
415.07	2.8
415.278	2.99
415.486	2.67
415.694	2.88
415.902	2.76
416.109	2.67
416.317	2.74
416.525	2.69
416.733	2.76
416.941	2.86
417.149	2.78
417.357	2.73
417.564	2.95
417.772	3.21
417.98	3.13
418.188	3.22
418.395	3.17
418.603	3.29
418.811	2.82
419.019	2.74
419.226	2.95
419.434	3.03
419.642	2.85
419.849	3.02
420.057	3.16
420.265	3.05
420.472	2.84
420.68	2.84
420.887	2.68
421.095	2.66
421.302	2.52
421.51	2.77
421.717	2.85
421.925	3.05
422.132	2.88
422.34	2.66
422.547	2.73
422.755	2.63
422.962	2.49
423.17	2.46
423.377	2.62
423.585	2.58
423.792	2.53
423.999	2.54
424.207	2.49
424.414	2.52
424.621	2.38
424.829	2.38
425.036	2.41
425.243	2.61
425.451	2.63
425.658	2.57
425.865	2.88
426.072	2.82
426.28	3.09
426.487	3.03
426.694	2.99
426.901	2.71
427.108	2.76
427.315	2.55
427.523	2.92
427.73	2.97
427.937	3.03
428.144	2.87
428.351	2.78
428.558	2.65
428.765	2.51
428.972	2.39
429.179	2.66
429.386	2.96
429.593	2.8
429.8	2.81
430.007	2.95
430.214	2.9
430.421	2.59
430.628	2.36
430.835	2.27
431.042	2.5
431.249	2.48
431.456	2.47
431.662	2.7
431.869	2.93
432.076	2.84
432.283	2.89
432.49	2.9
432.697	2.96
432.903	2.72
433.11	2.66
433.317	2.77
433.524	2.92
433.73	2.91
433.937	3.24
434.144	3.07
434.35	2.91
434.557	2.77
434.764	2.74
434.97	2.59
435.177	2.78
435.384	2.75
435.59	2.75
435.797	2.95
436.003	2.99
436.21	3.03
436.416	3.12
436.623	3.14
436.829	3.15
437.036	3.18
437.242	3.09
437.449	2.95
437.655	2.96
437.862	2.85
438.068	2.81
438.275	2.94
438.481	3.19
438.687	3.16
438.894	3.16
439.1	3.18
439.307	3.25
439.513	3.09
439.719	3.09
439.926	3.18
440.132	3.14
440.338	3
440.544	3.19
440.751	3.21
440.957	3.22
441.163	3.16
441.369	3.16
441.575	2.89
441.782	2.81
441.988	2.71
442.194	2.78
442.4	2.79
442.606	3.05
442.812	3.2
443.018	3.3
443.224	3.33
443.431	3.45
443.637	3.27
443.843	3.18
444.049	3.17
444.255	3.14
444.461	3.12
444.667	3.08
444.873	3.21
445.079	3.12
445.284	3.14
445.49	2.91
445.696	2.79
445.902	2.66
446.108	2.67
446.314	2.67
446.52	2.83
446.726	3.11
446.931	3.13
447.137	3.14
447.343	3.2
447.549	3.09
447.755	2.93
447.96	2.99
448.166	2.92
448.372	2.83
448.578	2.95
448.783	2.97
448.989	3.02
449.195	3.26
449.4	3.21
449.606	3.14
449.812	3.13
450.017	3.1
450.223	2.96
450.428	2.93
450.634	3.05
450.84	3.2
451.045	3.21
451.251	3.14
451.456	3.46
451.662	3.54
451.867	3.53
452.073	3.42
452.278	3.6
452.483	3.5
452.689	3.33
452.894	3.41
453.1	3.44
453.305	3.28
453.51	3.19
453.716	3.09
453.921	3
454.127	2.97
454.332	2.94
454.537	2.86
454.742	2.93
454.948	2.87
455.153	2.97
455.358	3.08
455.563	3.35
455.769	3.5
455.974	3.44
456.179	3.27
456.384	3.21
456.589	3.08
456.795	2.87
457	2.91
457.205	3.19
457.41	3.27
457.615	3.22
457.82	3.27
458.025	3.23
458.23	3.04
458.435	2.97
458.64	2.91
458.845	3.08
459.05	3.1
459.255	3.12
459.46	3.12
459.665	3.18
459.87	3.09
460.075	3.07
460.28	3.1
460.485	3.2
460.69	3.19
460.895	3.06
461.099	3.06
461.304	3.22
461.509	3.17
461.714	3.21
461.919	3.45
462.123	3.41
462.328	3.43
462.533	3.4
462.738	3.43
462.942	3.32
463.147	3.44
463.352	3.39
463.556	3.37
463.761	3.35
463.966	3.33
464.17	3.2
464.375	3.06
464.58	3.05
464.784	3.03
464.989	2.97
465.193	3.06
465.398	3.1
465.602	3.23
465.807	3.2
466.011	3.36
466.216	3.37
466.42	3.43
466.625	3.48
466.829	3.64
467.034	3.61
467.238	3.78
467.443	3.67
467.647	3.51
467.851	3.49
468.056	3.61
468.26	3.46
468.464	3.54
468.669	3.68
468.873	3.73
469.077	3.63
469.282	3.72
469.486	3.76
469.69	3.77
469.894	3.6
470.099	3.65
470.303	3.71
470.507	3.66
470.711	3.46
470.915	3.57
471.119	3.5
471.324	3.36
471.528	3.43
471.732	3.56
471.936	3.48
472.14	3.55
472.344	3.59
472.548	3.57
472.752	3.71
472.956	3.96
473.16	3.91
473.364	3.81
473.568	3.78
473.772	3.8
473.976	3.64
474.18	3.62
474.384	3.7
474.588	3.65
474.792	3.4
474.995	3.53
475.199	3.66
475.403	3.71
475.607	3.82
475.811	3.94
476.015	3.93
476.218	3.95
476.422	3.89
476.626	3.95
476.83	4.01
477.033	3.93
477.237	3.79
477.441	3.84
477.644	3.82
477.848	3.77
478.052	3.74
478.255	3.81
478.459	3.83
478.663	3.94
478.866	3.98
479.07	3.95
479.273	4.08
479.477	4.08
479.681	4
479.884	3.96
480.088	3.95
480.291	3.89
480.495	3.91
480.698	3.91
480.901	3.97
481.105	4.16
481.308	4.11
481.512	4.13
481.715	4.2
481.919	4.22
482.122	4.09
482.325	4.13
482.529	4.12
482.732	4.06
482.935	4
483.138	4
483.342	4.06
483.545	4.14
483.748	4.21
483.952	4.18
484.155	4.33
484.358	4.29
484.561	4.17
484.764	4.04
484.967	4.2
485.171	4.18
485.374	4.17
485.577	4.31
485.78	4.38
485.983	4.35
486.186	4.21
486.389	4.15
486.592	4.1
486.795	4.12
486.998	4.02
487.201	4.07
487.404	4.18
487.607	4.25
487.81	4.25
488.013	4.35
488.216	4.37
488.419	4.37
488.622	4.28
488.825	4.21
489.028	4.08
489.231	4.05
489.433	4
489.636	3.97
489.839	3.97
490.042	3.98
490.245	3.99
490.447	4
490.65	4
490.853	4.05
491.056	4.13
491.258	4.17
491.461	4.15
491.664	4.22
491.866	4.21
492.069	4.28
492.272	4.2
492.474	4.31
492.677	4.31
492.879	4.35
493.082	4.41
493.285	4.53
493.487	4.47
493.69	4.41
493.892	4.29
494.095	4.2
494.297	4.17
494.5	4.17
494.702	4.2
494.905	4.29
495.107	4.3
495.309	4.29
495.512	4.33
495.714	4.39
495.917	4.42
496.119	4.4
496.321	4.41
496.524	4.44
496.726	4.43
496.928	4.46
497.13	4.4
497.333	4.42
497.535	4.42
497.737	4.39
497.939	4.38
498.142	4.48
498.344	4.45
498.546	4.37
498.748	4.42
498.95	4.52
499.152	4.53
499.355	4.61
499.557	4.74
499.759	4.84
499.961	4.78
500.163	4.8
500.365	4.74
500.567	4.81
500.769	4.75
500.971	4.76
501.173	4.69
501.375	4.75
501.577	4.64
501.779	4.64
501.981	4.64
502.183	4.67
502.385	4.64
502.587	4.58
502.788	4.59
502.99	4.63
503.192	4.72
503.394	4.7
503.596	4.76
503.798	4.81
503.999	4.9
504.201	4.86
504.403	4.88
504.605	4.88
504.806	4.81
505.008	4.73
505.21	4.86
505.411	4.92
505.613	4.97
505.815	5.02
506.016	5.08
506.218	5.04
506.42	5.03
506.621	5.02
506.823	5.04
507.024	4.92
507.226	4.87
507.427	4.84
507.629	4.84
507.83	4.85
508.032	4.94
508.233	5
508.435	5.06
508.636	5.21
508.838	5.21
509.039	5.17
509.24	5.23
509.442	5.23
509.643	5.05
509.845	5.05
510.046	5.17
510.247	5.11
510.448	5.14
510.65	5.24
510.851	5.36
511.052	5.24
511.254	5.23
511.455	5.31
511.656	5.43
511.857	5.47
512.058	5.56
512.26	5.58
512.461	5.5
512.662	5.42
512.863	5.31
513.064	5.26
513.265	5.27
513.466	5.33
513.667	5.3
513.868	5.36
514.069	5.45
514.27	5.57
514.471	5.49
514.672	5.51
514.873	5.51
515.074	5.53
515.275	5.43
515.476	5.46
515.677	5.51
515.878	5.63
516.079	5.56
516.28	5.58
516.481	5.68
516.682	5.71
516.882	5.57
517.083	5.58
517.284	5.58
517.485	5.52
517.686	5.39
517.886	5.38
518.087	5.41
518.288	5.45
518.488	5.48
518.689	5.51
518.89	5.5
519.091	5.55
519.291	5.5
519.492	5.54
519.692	5.62
519.893	5.72
520.094	5.7
520.294	5.69
520.495	5.61
520.695	5.63
520.896	5.6
521.096	5.61
521.297	5.7
521.497	5.7
521.698	5.68
521.898	5.68
522.099	5.75
522.299	5.81
522.499	5.86
522.7	5.9
522.9	5.91
523.101	5.98
523.301	5.9
523.501	5.89
523.702	5.87
523.902	5.92
524.102	5.92
524.302	5.95
524.503	6.01
524.703	5.99
524.903	6.02
525.103	5.89
525.304	6.01
525.504	6.03
525.704	6.1
525.904	6.06
526.104	6.06
526.304	5.97
526.504	5.97
526.705	5.97
526.905	6.07
527.105	6.14
527.305	6.15
527.505	6.06
527.705	6.05
527.905	5.99
528.105	6
528.305	5.99
528.505	6.11
528.705	6.2
528.905	6.19
529.105	6.2
529.304	6.3
529.504	6.33
529.704	6.27
529.904	6.31
530.104	6.29
530.304	6.37
530.503	6.28
530.703	6.26
530.903	6.24
531.103	6.35
531.303	6.21
531.502	6.32
531.702	6.4
531.902	6.44
532.101	6.33
532.301	6.38
532.501	6.33
532.7	6.31
532.9	6.34
533.1	6.39
533.299	6.46
533.499	6.52
533.698	6.47
533.898	6.46
534.097	6.43
534.297	6.47
534.496	6.44
534.696	6.54
534.895	6.64
535.095	6.79
535.294	6.66
535.494	6.64
535.693	6.66
535.892	6.66
536.092	6.51
536.291	6.59
536.491	6.7
536.69	6.74
536.889	6.65
537.088	6.64
537.288	6.71
537.487	6.76
537.686	6.72
537.886	6.83
538.085	6.93
538.284	7.02
538.483	6.98
538.682	7.09
538.882	7.07
539.081	7.13
539.28	7.02
539.479	7.02
539.678	6.98
539.877	7.06
540.076	7.05
540.275	7.06
540.474	7.13
540.673	7.21
540.872	7.16
541.071	7.24
541.27	7.34
541.469	7.42
541.668	7.41
541.867	7.45
542.066	7.44
542.265	7.47
542.464	7.39
542.663	7.44
542.862	7.53
543.06	7.64
543.259	7.66
543.458	7.75
543.657	7.75
543.856	7.8
544.054	7.77
544.253	7.74
544.452	7.75
544.651	7.88
544.849	7.82
545.048	7.88
545.247	7.98
545.445	8.04
545.644	7.97
545.843	8
546.041	8.06
546.24	8.11
546.438	8.2
546.637	8.31
546.836	8.42
547.034	8.48
547.233	8.49
547.431	8.43
547.63	8.47
547.828	8.46
548.027	8.44
548.225	8.44
548.423	8.5
548.622	8.56
548.82	8.52
549.019	8.6
549.217	8.73
549.415	8.76
549.614	8.81
549.812	8.92
550.01	8.85
550.209	8.89
550.407	8.96
550.605	8.96
550.803	9.07
551.002	9.2
551.2	9.27
551.398	9.4
551.596	9.53
551.794	9.63
551.993	9.7
552.191	9.68
552.389	9.74
552.587	9.82
552.785	9.83
552.983	9.91
553.181	10.07
553.379	10.16
553.577	10.13
553.775	10.24
553.973	10.32
554.171	10.39
554.369	10.35
554.567	10.42
554.765	10.42
554.963	10.5
555.161	10.46
555.359	10.61
555.557	10.74
555.755	10.85
555.952	10.93
556.15	11
556.348	11.07
556.546	11.12
556.744	11.15
556.941	11.18
557.139	11.32
557.337	11.38
557.535	11.39
557.732	11.46
557.93	11.54
558.128	11.57
558.325	11.64
558.523	11.68
558.721	11.81
558.918	11.88
559.116	11.97
559.313	12.04
559.511	12.26
559.708	12.26
559.906	12.33
560.104	12.4
560.301	12.48
560.498	12.51
560.696	12.56
560.893	12.7
561.091	12.77
561.288	12.89
561.486	12.98
561.683	13.07
561.88	13.11
562.078	13.23
562.275	13.26
562.473	13.34
562.67	13.51
562.867	13.61
563.064	13.68
563.262	13.71
563.459	13.77
563.656	13.83
563.853	13.84
564.051	13.95
564.248	14.15
564.445	14.21
564.642	14.25
564.839	14.43
565.036	14.5
565.234	14.6
565.431	14.72
565.628	14.79
565.825	14.87
566.022	14.98
566.219	14.97
566.416	14.95
566.613	15.07
566.81	15.14
567.007	15.05
567.204	15.06
567.401	15.1
567.598	15.17
567.795	15.13
567.991	15.21
568.188	15.34
568.385	15.48
568.582	15.46
568.779	15.55
568.976	15.64
569.172	15.73
569.369	15.69
569.566	15.71
569.763	15.83
569.96	15.87
570.156	15.79
570.353	15.85
570.55	15.91
570.746	15.92
570.943	15.94
571.14	16.01
571.336	16.08
571.533	16.18
571.729	16.17
571.926	16.23
572.123	16.32
572.319	16.32
572.516	16.28
572.712	16.35
572.909	16.35
573.105	16.39
573.302	16.45
573.498	16.55
573.695	16.46
573.891	16.57
574.087	16.55
574.284	16.51
574.48	16.48
574.677	16.6
574.873	16.52
575.069	16.56
575.266	16.59
575.462	16.53
575.658	16.55
575.854	16.65
576.051	16.65
576.247	16.67
576.443	16.75
576.639	16.69
576.835	16.65
577.032	16.57
577.228	16.6
577.424	16.65
577.62	16.59
577.816	16.56
578.012	16.6
578.208	16.59
578.404	16.55
578.6	16.57
578.796	16.58
578.993	16.57
579.189	16.5
579.384	16.37
579.58	16.33
579.776	16.29
579.972	16.24
580.168	16.17
580.364	16.31
580.56	16.32
580.756	16.33
580.952	16.3
581.148	16.32
581.343	16.29
581.539	16.29
581.735	16.32
581.931	16.36
582.127	16.37
582.322	16.28
582.518	16.25
582.714	16.12
582.909	16.09
583.105	16.1
583.301	16.17
583.496	16.16
583.692	16.14
583.888	16.1
584.083	16.18
584.279	16.08
584.474	16.07
584.67	16.1
584.866	16.12
585.061	15.93
585.257	16.05
585.452	15.96
585.648	15.88
585.843	15.89
586.039	15.97
586.234	15.91
586.429	15.88
586.625	16.01
586.82	15.91
587.015	15.84
587.211	15.71
587.406	15.88
587.601	15.84
587.797	15.84
587.992	15.85
588.187	15.92
588.383	15.77
588.578	15.77
588.773	15.83
588.968	15.84
589.163	15.93
589.359	15.89
589.554	15.86
589.749	15.83
589.944	15.84
590.139	15.75
590.334	15.82
590.529	15.83
590.724	15.86
590.919	15.93
591.114	15.86
591.309	15.98
591.504	16.03
591.699	16.03
591.894	16.05
592.089	16.08
592.284	15.96
592.479	16.07
592.674	16.04
592.869	16.14
593.064	16.34
593.259	16.48
593.454	16.56
593.648	16.66
593.843	16.62
594.038	16.64
594.233	16.6
594.428	16.45
594.622	16.49
594.817	16.62
595.012	16.65
595.206	16.68
595.401	16.76
595.596	16.78
595.79	16.86
595.985	16.9
596.18	17
596.374	17.12
596.569	17.13
596.763	17.04
596.958	17.1
597.153	17.21
597.347	17.2
597.542	17.41
597.736	17.43
597.931	17.45
598.125	17.39
598.319	17.56
598.514	17.5
598.708	17.65
598.903	17.67
599.097	17.76
599.291	17.7
599.486	17.72
599.68	17.64
599.874	17.71
600.069	17.68
600.263	17.74
600.457	17.83
600.651	17.89
600.846	17.9
601.04	18.01
601.234	18
601.428	18.08
601.622	18.19
601.817	18.2
602.011	18.26
602.205	18.36
602.399	18.27
602.593	18.24
602.787	18.31
602.981	18.21
603.175	18.17
603.369	18.09
603.563	18.14
603.757	18.15
603.951	18.24
604.145	18.23
604.339	18.31
604.533	18.23
604.727	18.12
604.921	18.04
605.115	18.06
605.309	18.12
605.502	18.13
605.696	18.15
605.89	18.15
606.084	18.11
606.278	17.94
606.471	17.83
606.665	17.71
606.859	17.57
607.053	17.52
607.246	17.6
607.44	17.62
607.634	17.6
607.827	17.68
608.021	17.57
608.214	17.49
608.408	17.37
608.602	17.34
608.795	17.24
608.989	17.2
609.182	17.13
609.376	17.12
609.569	17.12
609.763	17.04
609.956	16.98
610.15	16.89
610.343	16.79
610.537	16.74
610.73	16.72
610.923	16.64
611.117	16.61
611.31	16.64
611.504	16.53
611.697	16.34
611.89	16.34
612.083	16.22
612.277	16.17
612.47	16.15
612.663	16.18
612.856	16.13
613.05	16.1
613.243	16.04
613.436	15.89
613.629	15.82
613.822	15.63
614.015	15.48
614.209	15.25
614.402	15.34
614.595	15.32
614.788	15.38
614.981	15.3
615.174	15.29
615.367	15.11
615.56	15.03
615.753	14.9
615.946	14.92
616.139	14.91
616.332	14.96
616.525	14.85
616.718	14.9
616.911	14.88
617.103	14.8
617.296	14.8
617.489	14.83
617.682	14.78
617.875	14.72
618.067	14.71
618.26	14.54
618.453	14.56
618.646	14.53
618.838	14.52
619.031	14.55
619.224	14.54
619.417	14.45
619.609	14.4
619.802	14.31
619.994	14.24
620.187	14.25
620.38	14.14
620.572	14.03
620.765	14.12
620.957	14.05
621.15	13.97
621.342	13.96
621.535	14.13
621.727	14.06
621.92	13.99
622.112	13.91
622.305	14
622.497	13.78
622.69	13.77
622.882	13.81
623.074	13.91
623.267	13.74
623.459	13.7
623.651	13.59
623.844	13.58
624.036	13.53
624.228	13.58
624.42	13.65
624.613	13.78
624.805	13.68
624.997	13.64
625.189	13.54
625.381	13.59
625.574	13.46
625.766	13.44
625.958	13.43
626.15	13.58
626.342	13.47
626.534	13.44
626.726	13.45
626.918	13.46
627.11	13.35
627.302	13.34
627.494	13.34
627.686	13.36
627.878	13.24
628.07	13.17
628.262	13.12
628.454	13.12
628.646	13.12
628.838	13.21
629.029	13.19
629.221	13.28
629.413	13.22
629.605	13.13
629.797	12.99
629.989	12.91
630.18	12.8
630.372	12.73
630.564	12.72
630.755	12.8
630.947	12.85
631.139	12.73
631.33	12.63
631.522	12.72
631.714	12.61
631.905	12.59
632.097	12.57
632.289	12.62
632.48	12.43
632.672	12.45
632.863	12.33
633.055	12.35
633.246	12.4
633.438	12.34
633.629	12.31
633.821	12.38
634.012	12.42
634.203	12.25
634.395	12.39
634.586	12.33
634.777	12.26
634.969	12.19
635.16	12.24
635.351	12.12
635.543	12.15
635.734	12.16
635.925	12.15
636.117	12.24
636.308	12.25
636.499	12.19
636.69	12.15
636.881	12.19
637.073	12.15
637.264	12.11
637.455	12.17
637.646	12.25
637.837	12.26
638.028	12.18
638.219	12.23
638.41	12.06
638.601	11.87
638.792	11.83
638.983	11.77
639.174	11.64
639.365	11.7
639.556	11.7
639.747	11.59
639.938	11.66
640.129	11.67
640.32	11.67
640.511	11.7
640.701	11.84
640.892	11.76
641.083	11.87
641.274	11.87
641.465	11.9
641.655	11.75
641.846	11.7
642.037	11.55
642.228	11.45
642.418	11.42
642.609	11.46
642.8	11.48
642.99	11.43
643.181	11.51
643.372	11.52
643.562	11.47
643.753	11.32
643.943	11.29
644.134	11.15
644.324	10.99
644.515	10.93
644.705	11.09
644.896	11.09
645.086	11.11
645.277	11.2
645.467	11.21
645.658	11.17
645.848	11.24
646.038	11.19
646.229	11.13
646.419	11.05
646.61	10.97
646.8	10.88
646.99	10.92
647.18	10.86
647.371	10.94
647.561	10.88
647.751	10.92
647.941	10.82
648.132	10.85
648.322	10.82
648.512	11.01
648.702	10.97
648.892	11.03
649.082	11.04
649.272	10.85
649.462	10.67
649.653	10.57
649.843	10.52
650.033	10.52
650.223	10.56
650.413	10.51
650.603	10.57
650.793	10.58
650.983	10.44
651.172	10.47
651.362	10.45
651.552	10.4
651.742	10.29
651.932	10.32
652.122	10.33
652.312	10.37
652.502	10.28
652.691	10.39
652.881	10.33
653.071	10.3
653.261	10.13
653.45	10.05
653.64	9.97
653.83	9.83
654.019	9.73
654.209	9.76
654.399	9.78
654.588	9.69
654.778	9.72
654.968	9.67
655.157	9.55
655.347	9.5
655.536	9.42
655.726	9.36
655.915	9.23
656.105	9.23
656.294	9.18
656.484	9.01
656.673	8.96
656.863	8.93
657.052	8.74
657.241	8.53
657.431	8.4
657.62	8.27
657.809	7.99
657.999	7.87
658.188	7.75
658.377	7.71
658.567	7.62
658.756	7.64
658.945	7.6
659.134	7.52
659.324	7.37
659.513	7.27
659.702	7.13
659.891	7.01
660.08	6.94
660.269	6.96
660.458	6.85
660.648	6.81
660.837	6.74
661.026	6.71
661.215	6.53
661.404	6.45
661.593	6.45
661.782	6.22
661.971	6.13
662.16	6.13
662.349	6.12
662.538	5.88
662.726	6
662.915	5.92
663.104	5.8
663.293	5.73
663.482	5.84
663.671	5.74
663.86	5.65
664.048	5.63
664.237	5.6
664.426	5.43
664.615	5.48
664.803	5.48
664.992	5.42
665.181	5.33
665.369	5.32
665.558	5.23
665.747	5.2
665.935	5.26
666.124	5.33
666.312	5.42
666.501	5.36
666.69	5.27
666.878	5.24
667.067	5.11
667.255	5.15
667.444	5.46
667.632	5.55
667.82	5.57
668.009	5.59
668.197	5.54
668.386	5.3
668.574	5.41
668.762	5.42
668.951	5.43
669.139	5.46
669.327	5.43
669.516	5.48
669.704	5.48
669.892	5.61
670.08	5.56
670.269	5.55
670.457	5.44
670.645	5.41
670.833	5.53
671.021	5.59
671.21	5.71
671.398	6.03
671.586	6.08
671.774	5.96
671.962	5.99
672.15	5.99
672.338	5.69
672.526	5.75
672.714	5.66
672.902	5.77
673.09	6
673.278	6.36
673.466	6.36
673.654	6.63
673.842	6.56
674.03	6.52
674.218	6.36
674.405	6.46
674.593	6.4
674.781	6.6
674.969	6.61
675.157	6.82
675.344	6.92
675.532	6.99
675.72	7.02
675.908	7.14
676.095	7
676.283	7.01
676.471	7.17
676.658	7.22
676.846	7.28
677.033	7.43
677.221	7.55
677.409	7.48
677.596	7.52
677.784	7.53
677.971	7.55
678.159	7.59
678.346	7.78
678.534	7.95
678.721	8.18
678.909	8.25
679.096	8.14
679.283	8.26
679.471	8.34
679.658	8.46
679.846	8.65
680.033	9.11
680.22	9.12
680.408	9.14
680.595	9.11
680.782	9.06
680.969	9.04
681.157	9.04
681.344	9.06
681.531	9.1
681.718	9.08
681.905	9.17
682.093	9.38
682.28	9.61
682.467	9.85
682.654	10.1
682.841	10.11
683.028	10.15
683.215	10.21
683.402	9.99
683.589	10.15
683.776	10.34
683.963	10.4
684.15	10.56
684.337	10.82
684.524	11.03
684.711	11.33
684.898	11.36
685.085	11.51
685.271	11.83
685.458	11.9
685.645	11.79
685.832	12.25
686.019	12.42
686.205	12.42
686.392	12.63
686.579	12.91
686.766	13.12
686.952	13.41
687.139	13.97
687.326	14.03
687.512	14.26
687.699	14.53
687.886	14.8
688.072	14.72
688.259	15.33
688.445	15.71
688.632	15.85
688.818	16.31
689.005	16.76
689.191	16.82
689.378	17.25
689.564	17.68
689.751	17.86
689.937	18.14
690.124	18.69
690.31	18.91
690.496	19.43
690.683	19.91
690.869	20.35
691.055	20.74
691.242	21.45
691.428	21.76
691.614	22.2
691.8	22.89
691.987	23.76
692.173	24.25
692.359	24.93
692.545	25.54
692.731	25.9
692.918	26.26
693.104	26.69
693.29	27.17
693.476	27.77
693.662	28.49
693.848	28.97
694.034	29.57
694.22	30.06
694.406	30.7
694.592	31.4
694.778	31.99
694.964	32.72
695.15	33.54
695.336	34.11
695.522	34.82
695.708	35.57
695.894	36.14
696.08	36.76
696.265	37.39
696.451	37.95
696.637	38.65
696.823	39.22
697.009	39.7
697.194	40.28
697.38	40.9
697.566	41.36
697.751	42.13
697.937	43.01
698.123	43.89
698.308	44.61
698.494	45.35
698.68	45.8
698.865	46.27
699.051	46.82
699.236	47.48
699.422	48.07
699.607	48.57
699.793	49.24
699.978	49.64
700.164	49.9
700.349	50.87
700.535	51.45
700.72	51.97
700.906	52.67
701.091	53.29
701.276	53.5
701.462	54.46
701.647	55.3
701.832	55.88
702.018	56.67
702.203	57.01
702.388	57.21
702.573	57.44
702.759	57.92
702.944	58.14
703.129	58.84
703.314	59.2
703.499	59.8
703.684	60.18
703.87	61.38
704.055	62.15
704.24	62.84
704.425	63.19
704.61	63.93
704.795	63.76
704.98	63.81
705.165	64
705.35	64.36
705.535	64.73
705.72	65.31
705.905	65.94
706.09	66.88
706.275	67.54
706.459	67.47
706.644	67.61
706.829	67.99
707.014	67.75
707.199	68.22
707.384	68.9
707.568	69.13
707.753	69.78
707.938	70.58
708.123	70.91
708.307	71.11
708.492	71.97
708.677	72.16
708.861	72.25
709.046	72.29
709.231	73.34
709.415	73.67
709.6	73.59
709.784	74
709.969	74.53
710.153	74.44
710.338	74.45
710.522	74.94
710.707	75.67
710.891	75.58
711.076	75.47
711.26	75.79
711.445	76.12
711.629	76.16
711.813	76.73
711.998	77.3
712.182	77.22
712.366	77.64
712.551	78.25
712.735	78.4
712.919	78.65
713.103	79.49
713.288	79.41
713.472	79.28
713.656	80.12
713.84	80.19
714.024	80.39
714.208	80.68
714.393	81.47
714.577	81.2
714.761	81.54
714.945	81.71
715.129	82.07
715.313	81.72
715.497	82.22
715.681	83.04
715.865	82.81
716.049	82.92
716.233	82.83
716.417	82.89
716.601	82.72
716.785	83.46
716.968	83.57
717.152	84
717.336	83.8
717.52	83.95
717.704	83.57
717.888	84.21
718.071	84.57
718.255	85.29
718.439	85.04
718.622	85.75
718.806	86.18
718.99	85.72
719.174	85.57
719.357	86.02
719.541	86.36
719.724	85.7
719.908	86.99
720.092	87.82
720.275	88.42
720.459	88.03
720.642	87.88
720.826	87.08
721.009	86.68
721.193	86.3
721.376	86.48
721.559	87.17
721.743	88.44
721.926	88.86
722.11	88.65
722.293	88.57
722.476	88.44
722.66	87.7
722.843	87.31
723.026	87.67
723.21	88.32
723.393	88.71
723.576	88.8
723.759	88.37
723.942	88.57
724.126	88.27
724.309	88.36
724.492	88.79
724.675	89.66
724.858	90.07
725.041	90.53
725.224	90.83
725.407	90.95
725.59	91.38
725.774	90.91
725.957	90.33
726.14	89.85
726.322	89.2
726.505	88.32
726.688	89.34
726.871	89.55
727.054	89.98
727.237	90.16
727.42	91.07
727.603	90.65
727.786	91.13
727.968	91.37
728.151	91.75
728.334	91.43
728.517	91.8
728.699	92.61
728.882	92.61
729.065	93.14
729.248	93.83
729.43	94.09
729.613	94.17
729.796	94.69
729.978	93.68
730.161	93.48
730.343	92.9
730.526	93.52
730.708	92.56
730.891	93.57
731.073	93.69
731.256	93.52
731.438	92.72
731.621	93.86
731.803	93.87
731.986	94.01
732.168	94.05
732.35	94.24
732.533	93.76
732.715	93.47
732.898	93.25
733.08	93.42
733.262	93.84
733.444	93.54
733.627	93.87
733.809	94.34
733.991	95.69
734.173	94.61
734.355	95.22
734.538	95.59
734.72	95.44
734.902	94.98
735.084	95.96
735.266	96.7
735.448	97.13
735.63	97.14
735.812	97.39
735.994	98.21
736.176	97.93
736.358	97.74
736.54	98.64
736.722	98.07
736.904	97.41
737.086	97.52
737.268	98.64
737.45	98.51
737.632	98.73
737.814	98.35
737.995	98.27
738.177	96.88
738.359	96.34
738.541	96.57
738.723	97.02
738.904	97.57
739.086	98.23
739.268	98.63
739.449	98.28
739.631	97.71
739.813	98.15
739.994	98.59
740.176	98.47
740.358	99.31
740.539	100.96
740.721	100.64
740.902	100.19
741.084	100.36
741.265	100.03
741.447	99.17
741.628	99.8
741.81	99.03
741.991	100.08
742.172	100.93
742.354	101.08
742.535	99.98
742.717	101.94
742.898	101.22
743.079	101.36
743.261	101.18
743.442	100.84
743.623	100.38
743.804	100.46
743.986	101.18
744.167	99.32
744.348	99.77
744.529	99.57
744.71	99.14
744.891	98.05
745.073	99.15
745.254	97.98
745.435	97.05
745.616	96.3
745.797	95.68
745.978	95.79
746.159	96.68
746.34	96.44
746.521	98.22
746.702	97.49
746.883	97.9
747.064	97.64
747.245	98.61
747.426	97.56
747.606	98.56
747.787	99.07
747.968	99.21
748.149	99.03
748.33	99.35
748.51	98.76
748.691	98.2
748.872	98.16
749.053	97.69
749.233	96.03
749.414	95.09
749.595	94.89
749.775	93.9
749.956	93.15
750.137	94.94
750.317	97.26
750.498	97.93
750.678	98.56
750.859	100.85
751.04	99.92
751.22	97.64
751.4	96.34
751.581	95.88
751.761	95.46
751.942	96.55
752.122	97.74
752.303	97.23
752.483	97.7
752.663	95.39
752.844	93.42
753.024	93.93
753.204	95.8
753.385	95.87
753.565	97.38
753.745	97.63
753.925	96.38
754.106	95.05
754.286	94.67
754.466	95.11
754.646	95.89
754.826	96.22
755.006	95.94
755.187	96.54
755.367	96.22
755.547	96.92
755.727	98
755.907	98.3
756.087	99.27
756.267	97.91
756.447	97.29
756.627	93.55
756.807	93.64
756.987	91.59
757.167	92.32
757.346	91.99
757.526	93.24
757.706	93.94
757.886	95.44
758.066	97.27
758.246	98.72
758.425	99.52
758.605	98.66
758.785	98.21
758.965	96.42
759.144	93.55
759.324	93.6
759.504	93.69
759.683	93.18
759.863	92.13
760.043	93.11
760.222	93.26
760.402	92.83
760.581	92.01
760.761	93.38
760.94	92.53
761.12	94
761.299	94.79
761.479	94.91
761.658	93.91
761.838	94
762.017	93.72
762.197	93.99
762.376	95.38
762.555	96.34
762.735	98.25
762.914	95.33
763.093	95.41
763.273	93.88
763.452	93.64
763.631	92.3
763.81	93.94
763.99	93.52
764.169	93.18
764.348	91.03
764.527	90.35
764.706	90.7
764.885	90.48
765.064	90.29
765.243	90.8
765.423	92.38
765.602	90.8
765.781	88.83
765.96	87.94
766.139	88.69
766.318	89.33
766.497	88.99
766.676	91.5
766.854	94.25
767.033	92.91
767.212	90.36
767.391	92.22
767.57	91.66
767.749	91.65
767.928	92.78
768.106	92.87
768.285	88.95
768.464	89.16
768.643	86.96
768.821	87.12
769	89.48
769.179	90.83
769.357	88.03
769.536	89.28
769.715	88.6
769.893	88.29
770.072	87.83
770.25	89.6
770.429	89.94
770.607	90.3
770.786	88.48
770.964	90.59
771.143	88.84
771.321	89.65
771.5	90.52
771.678	89.12
771.857	87.93
772.035	88.42
772.213	86.84
772.392	83.63
772.57	86.61
772.748	87.07
772.927	87.02
773.105	86.7
773.283	89.57
773.461	88.75
773.64	89.45
773.818	90.58
773.996	91.91
774.174	89
774.352	86.69
774.531	83.61
774.709	85.28
774.887	85.39
775.065	86.29
775.243	87.5
775.421	89.78
775.599	88.84
775.777	84.45
775.955	85.11
776.133	83.86
776.311	84.4
776.489	82.19
776.667	84.64
776.844	84.28
777.022	83.36
777.2	80.97
777.378	81.08
777.556	81.68
777.734	83.98
777.911	87.07
778.089	88.37
778.267	89.49
778.445	87.95
778.622	85.25
778.8	82.96
778.978	84.89
779.155	84.8
779.333	87.38
779.511	87.83
779.688	92.28
779.866	87.68
780.043	83.98
780.221	82.48
780.398	80.93
780.576	78.94
780.753	80.21
780.931	78.81
781.108	77.91
781.286	79.11
781.463	76.07
781.64	73.3
781.818	78.05
781.995	78.08
782.172	77.48
782.35	79.84
782.527	86.69
782.704	84.22
782.882	86.33
783.059	86.29
783.236	86.17
783.413	84.33
783.59	85.27
783.768	81.1
783.945	83.21
784.122	84.23
784.299	83.29
784.476	83.01
784.653	81.71
784.83	76.94
785.007	70.36
785.184	70.21
785.361	68.36
785.538	73.28
785.715	80.51
785.892	84.51
786.069	85.45
786.246	90.04
786.423	87.15
786.6	83.59
786.776	87.2
786.953	84.31
787.13	82.25
787.307	82.52
787.484	79.87
787.66	76.22
787.837	79.58
788.014	76.98
788.191	75.92
788.367	76.21
788.544	79.17
788.721	76.1
788.897	77.26
789.074	78.51
789.25	76.43
789.427	73.38
789.603	73.12
789.78	75.78
789.956	73.44
790.133	74.93
790.309	75.89
790.486	81.03
790.662	77.51
790.839	78.51
791.015	78.25
791.192	73.8
791.368	72.93
791.544	72.06
791.721	72.91
791.897	71.4
792.073	68.86
792.249	58.19
792.426	59.91
792.602	62.78
792.778	62.23
792.954	65.98
793.13	75.13
793.307	67.76
793.483	58.61
793.659	62.35
793.835	62.65
794.011	57.07
794.187	61.22
794.363	64.87
794.539	66.41
794.715	66.32
794.891	70.34
795.067	73.59
795.243	73.07
795.419	66.92
795.595	61.81
795.771	59.54
795.947	59.01
796.122	62.52
796.298	68.15
796.474	73.91
796.65	74.38
796.826	73.11
797.001	69.21
797.177	64.55
797.353	69.01
797.529	66.88
797.704	67.67
797.88	66.42
798.056	64.7
798.231	59.42
798.407	67.58
798.582	68.24
798.758	78.26
798.934	86.2
799.109	83.7
799.285	77.45
799.46	76.49
799.636	72.97
799.811	67.23
799.986	69.9
800.162	74.45
800.337	76.09
800.513	67.78
800.688	65.88
800.863	72.73
801.039	65.04
801.214	57.84
801.389	62.6
801.565	63.15
801.74	49.67
801.915	60.29
802.09	64.57
802.265	68.39
802.441	67.18
802.616	72.72
802.791	69.62
802.966	73.39
803.141	71.68
803.316	76.85
803.491	81.07
803.666	82.83
803.841	75.87
804.016	69.53
804.191	68.49
804.366	62.35
804.541	59.97
804.716	64.08
804.891	60.37
805.066	60.76
805.241	56.58
805.416	51.5
805.591	48.68
805.765	55.02
805.94	51.72
806.115	53.98
806.29	51.27
806.464	56.07
806.639	54.75
806.814	53.21
806.989	44.93
807.163	56.27
807.338	55.78
807.512	59.13
807.687	47.1
807.862	63.72
808.036	62.87
808.211	59.91
808.385	60.65
808.56	79.56
808.734	78.42
808.909	76.01
809.083	79.59
809.258	86.65
809.432	77.43
809.606	60.96
809.781	56.45
809.955	56.89
810.13	57.47
810.304	52.56
810.478	58.53
810.652	68.86
810.827	65.98
811.001	53.89
811.175	53.44
811.349	54.54
811.524	39.24
811.698	32.42
811.872	36.09
812.046	45.85
812.22	49.9
812.394	57.05
812.568	63.13
812.742	64.78
812.916	60.49
813.09	57.26
813.264	52.41
813.438	55.61
813.612	55.36
813.786	51.89
813.96	54.9
814.134	58.65
814.308	65.52
814.482	70.49
814.656	62.4
814.83	66.43
815.003	66.98
815.177	56.21
815.351	46.6
815.525	50.55
815.698	43.98
815.872	36.08
816.046	24.18
816.219	35.19
816.393	56.86
816.567	71.16
816.74	74.33
816.914	87.93
817.088	84.77
817.261	60.75
817.435	43.97
817.608	49.98
817.782	31.29
817.955	25
818.129	29.94
818.302	33.33
818.475	42.34
818.649	49.62
818.822	48.36
818.996	69.36
819.169	78.23
819.342	64.21
819.516	72.08
819.689	73.36
819.862	61.87
820.035	54.77
820.209	47.75
820.382	43.98
820.555	45.22
820.728	27.37
820.901	20.14
821.075	18.47
821.248	17.5
821.421	10.75
821.594	19.79
821.767	45.8
821.94	64.74
822.113	38.54
822.286	35.11
822.459	39.3
822.632	18.33
822.805	-2.8
822.978	17.56
823.151	15.89
823.324	11.57
823.496	-12.45
823.669	-7.57
823.842	-5.73
824.015	-19.3
824.188	-33.21
824.361	-20.26
824.533	-14.12
824.706	-7.91
824.879	5.65
825.051	17.46
825.224	15.91
825.397	15.24
825.569	-5.24
825.742	4.57
825.915	3.89
826.087	22.52
826.26	7.59
826.432	23.61
826.605	24.37
826.777	20.9
826.95	21.85
827.122	22.12
827.295	20.74
827.467	14.48
827.64	-6.76
827.812	-22.81
827.984	-12.61
828.157	-27.35
828.329	-48.17
828.501	-22.3
828.674	3.32
828.846	-18.03
829.018	6.33
829.19	-12.72
829.363	14.61
829.535	14.71
829.707	25.39
829.879	3.45
830.051	14.78
830.223	-5.68
830.395	-42.54
830.568	-48.76
830.74	-36.19
830.912	2.62
831.084	-18.04
831.256	-2.99
831.428	-13
831.6	-37.29
831.772	-93.42
831.943	-105.12
832.115	-74.23
832.287	-38.61
832.459	-24.2
832.631	-1.37
832.803	31.53
832.975	29.3
833.146	7.26
833.318	13.79
833.49	37.09
833.662	11.76
833.833	-2.92
834.005	0.97
834.177	8.52
834.348	-19.94
834.52	-22.47
834.692	-17.06
834.863	-35.02
835.035	-59.7
835.206	-94.77
835.378	-61.4
835.549	-52.96
835.721	-11.91
835.892	-0.41
836.064	8.16
836.235	0.04
836.407	20.29
836.578	-43.39
836.749	-37.39
836.921	-66.12
837.092	-98.78
837.264	-90.16
837.435	-78.48
837.606	-33.09
837.777	5.04
837.949	30.54
838.12	28.3
838.291	36.46
838.462	19.78
838.633	-11.09
838.805	-16.29
838.976	-11.65
839.147	-54.82
839.318	-47.71
839.489	-91.14
839.66	-61.2
839.831	-20.48
840.002	-5.94
840.173	-34.61
840.344	35.01
840.515	14.91
840.686	-175.5
840.857	-168.44
841.028	-153.27
841.199	-101.66
841.369	-105.17
841.54	-57.67
841.711	-26.41
841.882	24.86
842.053	-0.44
842.223	-8.22
842.394	15.81
842.565	21.4
842.736	12.26
842.906	8.34
843.077	37.17
843.248	57.01
843.418	62.6
843.589	36.75
843.759	127.65
843.93	50.44
844.101	3.57
844.271	14.24
844.442	20.73
844.612	28.9
844.783	9.45
844.953	-24.33
845.123	-55.39
845.294	-47.44
845.464	-317.76
845.635	-104.23
845.805	-12.89
845.975	-25.05
846.146	-64.69
846.316	-45.89
846.486	-24.65
846.656	7.95
846.827	13.66
846.997	17.1
847.167	56.28
847.337	14.82
847.507	-37.79
847.677	-17.52
847.848	22.9
848.018	19.33
848.188	20.06
848.358	9.36
848.528	-18.65
848.698	-59.61
848.868	-168.76
849.038	-226.79
849.208	-88.9
849.378	-46.15
849.548	-13.92
849.718	8.92
849.887	17.44
850.057	-18.16
850.227	-57.45
850.397	-109.06
850.567	-252.75
850.737	-642.83
850.906	-1604.38
851.076	-967.58
851.246	-472.51
851.415	-104.31
851.585	-53.99
851.755	-83.73
851.924	-50.57
852.094	-123.38
852.264	-244.8
852.433	-1632.21
852.603	-338.49
852.772	-296.76
852.942	-97.82
853.111	-81.24
853.281	-19.96
853.45	-3.22
853.62	-85.54
853.789	-104.78
853.959	-81.2
854.128	-102.93
854.297	-109.69
854.467	-97.73
854.636	-52.2
854.805	-34.71
854.975	-60.81
855.144	-164.25
855.313	-297.55
855.482	-772.63
855.652	-349.47
855.821	-246.66
855.99	-39.02
856.159	-11.4
856.328	5.36
856.497	-18.93
856.667	-15.24
856.836	-33.41
857.005	-51.31
857.174	-73.57
857.343	-120.28
857.512	-95.46
857.681	-106.97
857.85	-225.18
858.019	-149.09
858.188	-84.98
858.356	-92.69
858.525	-168.69
858.694	-80.69
858.863	-150.84
859.032	-145.24
859.201	-222.24
859.369	-98.6
859.538	-38.83
859.707	-55.31
859.876	-80.28
860.044	-49.44
860.213	7.97
860.382	-39.67
860.55	-23.6
860.719	16.11
860.888	19.58
861.056	-30.33
861.225	-29.93
861.393	1.68
861.562	-9.19
861.73	-99.51
861.899	-310.73
862.067	-2491.38
862.236	-161.26
862.404	-305.91
862.572	-169.7
862.741	-60.08
862.909	-65.83
863.078	-199.23
863.246	-174.57
863.414	-151.05
863.582	-81.86
863.751	-88.16
863.919	-59.62
864.087	30.03
864.255	0.54
864.424	-401.39
864.592	-64.75
864.76	-150.55
864.928	-621.2
865.096	-359.08
865.264	-254.58
865.432	-2869.32
865.6	-352.25
865.768	-211.1
865.936	-175.45
866.104	-190.98
866.272	-247.34
866.44	-502.95
866.608	766.03
866.776	386.51
866.944	3166.28
867.112	-595.97
867.28	-228.96
867.448	-53.51
867.615	4.43
867.783	-0.24
867.951	-13.71
868.119	58.61
868.286	27.43
868.454	-55.57
868.622	-40.69
868.789	-16.73
868.957	-2332.14
869.125	-2067.11
869.292	-100.86
869.46	-246.41
869.627	-12.93
869.795	-35
869.963	-24.29
870.13	-20.59
870.298	12.92
870.465	-121.68
870.632	-132
870.8	-104.39
870.967	-176.12
871.135	-265.82
871.302	-234.34
871.469	-253.43
871.637	-473.84
871.804	-244.75
871.971	-284.49
872.139	-767.21
872.306	-140.54
872.473	-91.82
872.64	-398.93
872.807	-148.86
872.975	5.56
873.142	-270.36
873.309	2901.35
873.476	-68.19
873.643	-31.32
873.81	-41.19
873.977	-3.88
874.144	15.12
874.311	-158.71
874.478	-170.25
874.645	-197.66
874.812	-134.04
874.979	-85.83
875.146	-77.51
875.313	-106.61
875.48	-10.6
875.647	-34.04
875.813	-61.99
875.98	-38.4
876.147	-41.93
876.314	-98.29
876.481	827.69
876.647	-1145.51
876.814	447.41
876.981	-24.04
877.147	-87.69
877.314	-13.11
877.481	24.75
877.647	11.99
877.814	-58.51
877.98	-96.3
878.147	-51.89
878.314	-11.68
878.48	-61.78
878.647	-35.9
878.813	50.1
878.979	12.45
879.146	-24.53
879.312	-9.02
879.479	-70.18
879.645	-260.96
879.811	-431.39
879.978	-1094.27
880.144	-330.2
880.31	-132.84
880.477	-337.23
880.643	-364.26
880.809	-141.97
880.975	-134.85
881.142	-1134.09
881.308	-173.93
881.474	-120.4
881.64	-141.46
881.806	-252.55
881.972	-104.14
882.138	-117.78
882.304	-158.93
882.47	-314.19
882.636	-879.92
882.802	-305.57
882.968	-113.12
883.134	-57.89
883.3	-61.63
883.466	-17.95
883.632	20.95
883.798	-6
883.964	-33.32
884.129	-60.16
884.295	-39.72
884.461	-100.06
884.627	-135.68
884.793	-175.85
884.958	-58.26
885.124	-171.11
885.29	-282.07
885.455	-556.07
885.621	-133.76
885.787	-233.55
885.952	-118.63
886.118	-92.33
886.283	-52.81
886.449	-187.03
886.614	-229.2
886.78	-460.19
886.945	1863.11
887.111	-937.86
887.276	-845.17
887.442	-1286.82
887.607	-622.41
887.773	-480.41
887.938	-402.48
888.103	-410.37
888.269	-338.7
888.434	-495.95
888.599	-161.26
888.764	-56.74
888.93	-6.84
889.095	-16.19
889.26	-54.33
889.425	-9.43
889.59	-0.46
889.756	-70.63
889.921	-61.77
890.086	-16.97
890.251	-44.48
890.416	-217.51
890.581	-1368.55
890.746	120.89
890.911	234.71
891.076	175.28
891.241	-292.91
891.406	3.99
891.571	-90.88
891.736	-426.38
891.901	-583.63
892.065	968.68
892.23	210.12
892.395	301.66
892.56	396.97
892.725	-721.48
892.889	-1871.95
893.054	-372.71
893.219	-182.24
893.384	-134.67
893.548	-189.3
893.713	-212.82
893.878	-141.82
