Data from Ofra_PS_T2_1A_0CX04_Reflection_2.txt Node
Date: Wed Jul 21 17:42:49 EDT 2021
User: Adam
Spectrometer: FLMT01687
Trigger mode: 0
Integration Time (sec): 1.100000E0
Scans to average: 2
Electric dark correction enabled: true
Nonlinearity correction enabled: false
Boxcar width: 2
XAxis mode: Wavelengths
Number of Pixels in Spectrum: 3648
>>>>>Begin Spectral Data<<<<<
179.494	716.6
179.716	780.24
179.937	708.82
180.158	683.19
180.38	1077.97
180.601	124.17
180.823	-29.22
181.044	-229.03
181.265	-238.42
181.486	-103.02
181.708	64.38
181.929	783.16
182.15	-553.17
182.372	31.5
182.593	-133.71
182.814	-80.51
183.035	-26.04
183.257	-13.03
183.478	-157.61
183.699	-57.05
183.92	-60.92
184.141	-74.87
184.363	-143.1
184.584	-55.21
184.805	-40.02
185.026	9.07
185.247	29.68
185.468	10.97
185.689	24.47
185.91	35.78
186.132	30.08
186.353	1.69
186.574	43.62
186.795	18.13
187.016	-30.85
187.237	-51.57
187.458	-47.18
187.679	-20.21
187.9	-3.49
188.121	-8.32
188.342	9.36
188.563	51.59
188.784	68
189.005	54.37
189.226	91.27
189.447	100.68
189.667	-112.01
189.888	-390.02
190.109	-1421.75
190.33	-901.77
190.551	-1690.93
190.772	-398.73
190.993	-311.4
191.214	-218.72
191.434	-128.01
191.655	-17.27
191.876	-30.33
192.097	-61.84
192.318	-124.13
192.538	-207.55
192.759	-175.72
192.98	-69.4
193.201	-47.61
193.421	-30.57
193.642	4.45
193.863	17.73
194.083	-4.86
194.304	-1.54
194.525	1.85
194.745	-2.9
194.966	-55.59
195.187	-65.52
195.407	-96.1
195.628	-179.87
195.848	-180.42
196.069	-160.62
196.29	-78.38
196.51	-90.74
196.731	-56.19
196.951	-71.59
197.172	-77.35
197.392	-135.54
197.613	-147.7
197.833	-171.61
198.054	-138.99
198.274	-83.3
198.495	-113.73
198.715	-71.66
198.936	-89.32
199.156	-68.31
199.377	-175.19
199.597	-127.57
199.817	-119.76
200.038	-66.71
200.258	-132.68
200.479	-47.02
200.699	-56.14
200.919	-16.2
201.14	-41.89
201.36	-61.77
201.58	-12.34
201.801	23.64
202.021	-18.4
202.241	-6
202.461	-1.72
202.682	-118.2
202.902	-215.79
203.122	-132.09
203.342	-114.8
203.563	-52.87
203.783	-2.45
204.003	-22.96
204.223	-25.24
204.443	19.02
204.663	-19.86
204.884	26.64
205.104	58.11
205.324	90.34
205.544	50.08
205.764	47.5
205.984	25.35
206.204	25.16
206.424	6.63
206.644	-33.7
206.864	-30.08
207.084	-129.93
207.304	-90.11
207.525	-258.67
207.745	-114.21
207.964	-5.16
208.184	-20.24
208.404	-72.93
208.624	-64.36
208.844	-55.45
209.064	-388.42
209.284	-464.7
209.504	-251.55
209.724	-80.25
209.944	-56.14
210.164	-10.34
210.384	19.61
210.604	19
210.823	-23.5
211.043	-39.76
211.263	-20.78
211.483	-33.19
211.703	-105.45
211.922	-96.77
212.142	-14.88
212.362	-12.04
212.582	-36.72
212.801	-14.9
213.021	-22.01
213.241	-47.22
213.461	-87.86
213.68	-82.39
213.9	-62.33
214.12	-45
214.339	-124.08
214.559	-85.1
214.779	-13.77
214.998	-13
215.218	-40.07
215.438	9.05
215.657	-3.03
215.877	-40.52
216.096	-17.17
216.316	-19.43
216.535	-29.51
216.755	-25.45
216.974	-89.66
217.194	-132.38
217.413	-139.53
217.633	-170.12
217.852	-329.89
218.072	-151.32
218.291	-70.72
218.511	-7.44
218.73	-38.44
218.95	-14.62
219.169	-17.22
219.389	-60.51
219.608	-57.69
219.827	-32.43
220.047	-23.58
220.266	-22.13
220.485	-24.65
220.705	-13.12
220.924	-28.63
221.143	12.69
221.363	-12.18
221.582	-9.86
221.801	-11.26
222.021	-5.21
222.24	-111
222.459	-51.59
222.678	-30.98
222.897	-106.76
223.117	-141.52
223.336	-106.76
223.555	-95.07
223.774	-53.06
223.993	-7.91
224.213	59.57
224.432	31.88
224.651	63.29
224.87	15.17
225.089	13.94
225.308	-6.64
225.527	15.77
225.746	-12.17
225.965	-12.85
226.184	-31.13
226.404	-8.11
226.623	-39.97
226.842	-18.58
227.061	12.09
227.28	14.92
227.499	10.94
227.718	24.8
227.936	7.09
228.155	5.45
228.374	-10.03
228.593	3.4
228.812	-2.82
229.031	-3.12
229.25	-59.62
229.469	-66.07
229.688	-53.18
229.907	-10.49
230.125	17.31
230.344	37.95
230.563	39.77
230.782	35.2
231.001	-43.62
231.22	-48.97
231.438	-10.88
231.657	0.2
231.876	-21.69
232.095	30.27
232.313	35.01
232.532	12.64
232.751	-1.52
232.969	1.22
233.188	-31.01
233.407	12.94
233.625	6.81
233.844	-28.76
234.063	-18.57
234.281	-3.34
234.5	-7.25
234.719	-5.66
234.937	37
235.156	47.9
235.374	42.82
235.593	29.34
235.811	12.08
236.03	-4.24
236.249	-46.8
236.467	-42.92
236.686	-13.94
236.904	6.74
237.123	-25.2
237.341	-28.41
237.559	-23.23
237.778	-32.38
237.996	-56.85
238.215	-11.44
238.433	6.84
238.652	-8.55
238.87	-32.95
239.088	-7.24
239.307	-0.17
239.525	-18.93
239.743	-16.05
239.962	-13.43
240.18	-54.28
240.398	-111.1
240.617	-105.74
240.835	-103.87
241.053	-56.03
241.271	-7.21
241.49	21.34
241.708	12.15
241.926	11.59
242.144	-38.27
242.363	-88.31
242.581	-116.31
242.799	-67.34
243.017	-17.23
243.235	-21.5
243.453	0.4
243.672	-5.08
243.89	-7.31
244.108	-39.21
244.326	-5.96
244.544	-23.78
244.762	-38.74
244.98	-33.13
245.198	-26.35
245.416	-75.09
245.634	-61.9
245.852	-49.18
246.07	-82.8
246.288	-71.61
246.506	-92.88
246.724	-75.85
246.942	-59.26
247.16	-13.02
247.378	-5.99
247.596	18.78
247.814	33.52
248.032	-7.15
248.25	-11.48
248.468	-1.53
248.685	21.12
248.903	35.21
249.121	45.27
249.339	7.3
249.557	-19.32
249.775	-16.83
249.992	-103.51
250.21	-93.39
250.428	-55.8
250.646	-71.08
250.863	-101.11
251.081	-62.65
251.299	-55.38
251.517	-42.71
251.734	-23.57
251.952	-20.04
252.17	-17.5
252.387	-6.35
252.605	-14.36
252.823	-3.34
253.04	20.23
253.258	48.88
253.475	54.06
253.693	82.06
253.911	70.57
254.128	61.63
254.346	65.74
254.563	23.15
254.781	-21.04
254.998	-43.54
255.216	-56.05
255.433	-54.76
255.651	18.76
255.868	59.97
256.086	94.56
256.303	69.04
256.521	52.41
256.738	15.51
256.956	-23.58
257.173	-68.63
257.39	-69.21
257.608	-107.05
257.825	-40.01
258.043	18.26
258.26	28.08
258.477	79.76
258.695	81.55
258.912	18.47
259.129	-15.77
259.346	-52.99
259.564	-110.8
259.781	-126.61
259.998	-25.17
260.216	11.04
260.433	57.74
260.65	51.48
260.867	66.9
261.084	12.98
261.302	-9.61
261.519	-56.11
261.736	-64.95
261.953	-88.68
262.17	-40.49
262.387	-73.38
262.604	-98.25
262.822	-95.58
263.039	-95.94
263.256	-141
263.473	-82.18
263.69	-41.66
263.907	-4.31
264.124	23.65
264.341	30.64
264.558	16.92
264.775	21.79
264.992	5.71
265.209	-2.01
265.426	21.54
265.643	24.15
265.86	52.09
266.077	68.19
266.294	52.45
266.51	-4.15
266.727	-16.18
266.944	-34.05
267.161	-65.32
267.378	-50.02
267.595	-15.22
267.812	-35.17
268.028	-53.12
268.245	-27.13
268.462	-48.89
268.679	-57.72
268.896	-9.49
269.112	-18.35
269.329	-13.44
269.546	-11.76
269.763	-17.44
269.979	-37.86
270.196	-28.62
270.413	-63.61
270.629	-78.94
270.846	-83.85
271.063	-73.39
271.279	-91.94
271.496	-84.02
271.712	-42.87
271.929	-25.49
272.146	-51.35
272.362	-26.43
272.579	22.23
272.795	7.25
273.012	0.23
273.228	12.47
273.445	-25.41
273.661	-80.29
273.878	-107.26
274.094	-86.46
274.311	-117.71
274.527	-28.13
274.744	-15.2
274.96	-20.28
275.177	-15.67
275.393	3.84
275.609	-4.64
275.826	18.91
276.042	30.17
276.259	12.18
276.475	22.07
276.691	13.4
276.908	-25
277.124	-7.14
277.34	-7.63
277.557	-31.43
277.773	-32.23
277.989	-20.91
278.205	-24.67
278.422	-7.6
278.638	10.05
278.854	38.22
279.07	41.17
279.286	23.24
279.503	-3.67
279.719	-27.5
279.935	-98.28
280.151	-119.64
280.367	-76.81
280.583	-88.62
280.799	-75.91
281.016	-91.05
281.232	-44.47
281.448	-47.44
281.664	-10.99
281.88	-30.42
282.096	10.86
282.312	28.71
282.528	25.41
282.744	14.21
282.96	10.63
283.176	2.86
283.392	-8.97
283.608	-15.84
283.824	-26.83
284.04	-13.73
284.256	-14.55
284.471	-25.21
284.687	-29.93
284.903	0.02
285.119	9.53
285.335	-12.12
285.551	-0.44
285.767	-15.25
285.982	-37.86
286.198	-71.33
286.414	-2.21
286.63	10
286.846	44.59
287.061	28.66
287.277	52.2
287.493	24.55
287.709	21.32
287.924	-4.66
288.14	25.56
288.356	28.6
288.571	43.66
288.787	32.29
289.003	39.72
289.218	15.11
289.434	-28.84
289.65	-19.53
289.865	-26.48
290.081	-1.35
290.296	15.91
290.512	19.1
290.727	-27.29
290.943	-37.83
291.159	-48.85
291.374	-46.66
291.59	-59
291.805	-35.18
292.021	-16.08
292.236	-26.98
292.451	-7.3
292.667	6.53
292.882	20.41
293.098	14.66
293.313	-6.25
293.529	-41.04
293.744	-59.89
293.959	-60.59
294.175	-47.37
294.39	5.26
294.605	17.57
294.821	46.54
295.036	54.26
295.251	51.94
295.467	9.78
295.682	6.51
295.897	-70.37
296.112	-90.14
296.328	-69.26
296.543	-91.24
296.758	-83.65
296.973	-12.69
297.188	24.08
297.404	-1.32
297.619	2.17
297.834	-15.7
298.049	-31.53
298.264	-52.03
298.479	-6.76
298.694	4.99
298.909	18.77
299.125	18.22
299.34	17.65
299.555	-13.65
299.77	11.82
299.985	-32.45
300.2	-95.7
300.415	-123.4
300.63	-71.3
300.845	-99.55
301.06	-94.99
301.275	-30.52
301.49	-9.07
301.704	-38.58
301.919	-54.22
302.134	-63.34
302.349	-67.76
302.564	-140.99
302.779	-158.77
302.994	-91.65
303.209	-50.22
303.423	-27.24
303.638	39.45
303.853	20.65
304.068	-8.32
304.283	-9.91
304.497	-32.17
304.712	-44.25
304.927	-34.07
305.142	-35.49
305.356	-14.39
305.571	-8.89
305.786	-27.41
306	-50.21
306.215	-12.19
306.43	-48.26
306.644	-18.93
306.859	47.62
307.074	57.85
307.288	1.34
307.503	-6.62
307.717	-3.97
307.932	-17.73
308.147	-21.01
308.361	9.95
308.576	5.13
308.79	-59.19
309.005	-43.88
309.219	-33.71
309.434	-40.01
309.648	-37.14
309.863	3.63
310.077	4.59
310.292	-3.05
310.506	-9.49
310.72	-1.75
310.935	12.54
311.149	0.16
311.364	23.56
311.578	40.03
311.792	28.92
312.007	14.99
312.221	3.8
312.435	1.54
312.649	-25.27
312.864	-56.67
313.078	-48.78
313.292	-2.45
313.507	-58.56
313.721	-68.76
313.935	22.98
314.149	11.13
314.363	-2.81
314.578	-4.53
314.792	16.13
315.006	0.73
315.22	19.04
315.434	23.32
315.648	43.97
315.862	36.84
316.077	37.72
316.291	1.65
316.505	12.86
316.719	-13.3
316.933	-29.09
317.147	-12.22
317.361	-20.94
317.575	-44.21
317.789	-77.64
318.003	-118.82
318.217	-121.96
318.431	-18.89
318.645	9.32
318.859	7.74
319.073	22.95
319.287	13.25
319.5	-28.07
319.714	-75.99
319.928	-97.32
320.142	-104.97
320.356	-51.76
320.57	-19.74
320.784	-32.62
320.997	-45.26
321.211	-62.96
321.425	-114.68
321.639	-153.66
321.853	-65.16
322.066	-47.04
322.28	-40.34
322.494	-30.38
322.707	7.62
322.921	-16.92
323.135	-10.06
323.349	14
323.562	-9.76
323.776	-26.09
323.989	-32.68
324.203	-43.58
324.417	-74.68
324.63	-75.4
324.844	-74.03
325.057	-66.35
325.271	-33.92
325.485	0.44
325.698	16.46
325.912	15.55
326.125	-2.38
326.339	-8.77
326.552	-48.23
326.766	-42
326.979	-3.66
327.193	34.68
327.406	11.09
327.619	7.15
327.833	18.31
328.046	-22.84
328.26	-68.27
328.473	-30.31
328.686	-51.96
328.9	-44.91
329.113	-19.2
329.326	-37.48
329.54	-56.32
329.753	-56.23
329.966	-92.82
330.179	-79.13
330.393	-28.85
330.606	-13.14
330.819	2.61
331.032	27.5
331.246	23.86
331.459	37.87
331.672	30.23
331.885	20.05
332.098	-16.26
332.311	-38.03
332.525	-96.62
332.738	-87.9
332.951	-46.2
333.164	-10.17
333.377	6.52
333.59	36.2
333.803	41.89
334.016	21.19
334.229	13.53
334.442	28.19
334.655	38.29
334.868	26.52
335.081	29.5
335.294	14.54
335.507	-10.73
335.72	-31.31
335.933	-39.6
336.146	-46.02
336.359	-47.62
336.572	-67.31
336.785	-86.03
336.997	-82.05
337.21	-55.49
337.423	-47.23
337.636	-40.43
337.849	-10.34
338.062	-5.08
338.274	-7.87
338.487	-29.27
338.7	-36.43
338.913	-98.26
339.125	-123.56
339.338	-192.34
339.551	-145.59
339.763	-85.63
339.976	-44.58
340.189	-11.17
340.402	9.51
340.614	1.74
340.827	-17.73
341.039	-31.45
341.252	-37.27
341.465	-24.92
341.677	-36.39
341.89	-74.67
342.102	-32.99
342.315	-48.05
342.527	-95.1
342.74	-64.52
342.952	-16.6
343.165	-27.7
343.377	-6.19
343.59	-3.67
343.802	-4.79
344.015	0.01
344.227	7.1
344.44	8.34
344.652	17.19
344.864	11.81
345.077	26.94
345.289	29.33
345.502	33.21
345.714	21.98
345.926	24.83
346.139	4.21
346.351	7.48
346.563	11.91
346.775	20.92
346.988	8.87
347.2	-0.46
347.412	-58.6
347.624	-95.34
347.837	-114.26
348.049	-85.56
348.261	-35.46
348.473	-25.14
348.685	-15.41
348.897	-19.89
349.11	-39.05
349.322	-63.62
349.534	-16.74
349.746	-25.16
349.958	-23.33
350.17	-17.35
350.382	-12.28
350.594	-38.83
350.806	-23.73
351.018	-22.05
351.23	-36.3
351.442	-84.27
351.654	-75.85
351.866	-89.95
352.078	-71.23
352.29	-31.37
352.502	-1.92
352.714	11.8
352.926	9.13
353.138	-0.49
353.35	-12.89
353.561	-25.23
353.773	-51
353.985	-35.9
354.197	-42.87
354.409	-42.67
354.621	-39.92
354.832	-22.29
355.044	-32.76
355.256	-28.28
355.468	-17.54
355.679	-20.48
355.891	-19.97
356.103	-34.02
356.314	-24.96
356.526	-27.54
356.738	-17.69
356.949	-42.69
357.161	-4.25
357.373	-12.07
357.584	-19.25
357.796	-18.23
358.008	-14.34
358.219	-9.45
358.431	-7.94
358.642	-6.01
358.854	-3.65
359.065	-7.27
359.277	-41.75
359.488	-47.92
359.7	-70.83
359.911	-90.81
360.123	-53.83
360.334	-58.51
360.546	-73.92
360.757	-66
360.969	-44.91
361.18	-64.57
361.391	-29.29
361.603	-35.37
361.814	-26.06
362.025	-26.93
362.237	-25.72
362.448	-13.33
362.659	25.17
362.871	21.56
363.082	13.27
363.293	16.69
363.504	-11.59
363.716	-62.23
363.927	-76.45
364.138	-92.24
364.349	-110.16
364.56	-95.43
364.772	-69.19
364.983	-28.86
365.194	-24.29
365.405	-7.29
365.616	16.45
365.827	19.69
366.038	-21.44
366.25	-10.4
366.461	-40.83
366.672	-24.4
366.883	7.8
367.094	19.45
367.305	-1.44
367.516	8.35
367.727	-28.05
367.938	-62.3
368.149	-63.2
368.36	-42.32
368.571	-38.84
368.781	-50.21
368.992	-54.75
369.203	-79.05
369.414	-102.32
369.625	-101.48
369.836	-79.19
370.047	-95.18
370.258	-68.57
370.468	-57.46
370.679	-78.43
370.89	-74.64
371.101	-49.53
371.312	-55.74
371.522	-58.49
371.733	-36.44
371.944	-23.43
372.155	-16.26
372.365	-21.6
372.576	-23
372.787	-28.48
372.997	-62
373.208	-57.41
373.419	-22.67
373.629	-42.43
373.84	-45.36
374.05	-38.99
374.261	-50.35
374.472	-87.04
374.682	-27.55
374.893	-16.23
375.103	23.91
375.314	18.01
375.524	22.64
375.735	15.74
375.945	5.19
376.156	-28.69
376.366	-21.19
376.577	-21.57
376.787	-37.17
376.997	-22.51
377.208	-13.85
377.418	-32.58
377.629	-11.82
377.839	-6.4
378.049	-1.23
378.26	11.48
378.47	21.4
378.68	1.33
378.89	-5.75
379.101	-22.06
379.311	-67.45
379.521	-100.9
379.732	-95.94
379.942	-90.33
380.152	-107.84
380.362	-53
380.572	-42.12
380.783	-21.2
380.993	-11.5
381.203	1.5
381.413	5.39
381.623	8.22
381.833	4.06
382.043	-3.02
382.253	-3.02
382.463	-6
382.674	-10.34
382.884	-34.56
383.094	-27.25
383.304	-25.46
383.514	-24.59
383.724	-14.22
383.934	-15.08
384.144	-34.04
384.353	-38.49
384.563	-42.4
384.773	-35.56
384.983	-33.49
385.193	-8.09
385.403	-8.37
385.613	-3.71
385.823	-15.87
386.033	-9.05
386.242	-23.38
386.452	-25.44
386.662	-38.26
386.872	-22.46
387.082	-28.45
387.291	-31.95
387.501	-35.59
387.711	-22
387.921	-30.87
388.13	-28.43
388.34	-10.97
388.55	-13.83
388.759	-14.09
388.969	-6.93
389.179	-6.58
389.388	-11.18
389.598	-5.35
389.807	-12.33
390.017	-17.52
390.227	-17.84
390.436	-19.79
390.646	-16.36
390.855	-7.98
391.065	-5.24
391.274	-7.32
391.484	-7.77
391.693	-7.63
391.903	-10.34
392.112	-6.73
392.322	-2.37
392.531	1.71
392.74	1.43
392.95	-3.3
393.159	-5.11
393.369	-5.07
393.578	-6.78
393.787	-8.78
393.997	-4.04
394.206	-5.9
394.415	-6.68
394.625	-5.91
394.834	-6.26
395.043	-7.05
395.252	-3.71
395.462	-0.36
395.671	1.09
395.88	1.97
396.089	3.11
396.298	1.38
396.508	-0.01
396.717	-0.83
396.926	0.78
397.135	-0.32
397.344	-0.37
397.553	0.24
397.762	1.2
397.971	0.7
398.181	1.38
398.39	0.91
398.599	0.22
398.808	-0.19
399.017	0.6
399.226	1.87
399.435	3.28
399.644	3.56
399.853	2.78
400.062	2.2
400.27	1.34
400.479	0.67
400.688	-0.08
400.897	0.5
401.106	0.55
401.315	0.19
401.524	0.2
401.733	1.05
401.941	1.31
402.15	1.4
402.359	1.65
402.568	1.99
402.777	2.04
402.985	1.75
403.194	1.58
403.403	1.47
403.612	1.07
403.82	0.73
404.029	1.03
404.238	0.97
404.446	1.33
404.655	1.1
404.864	1.19
405.072	0.82
405.281	1.07
405.489	0.93
405.698	1.03
405.906	0.94
406.115	0.96
406.324	0.8
406.532	0.85
406.741	1.18
406.949	1.18
407.158	1.18
407.366	1.26
407.574	1.05
407.783	1.01
407.991	0.8
408.2	1.07
408.408	0.97
408.617	0.94
408.825	0.71
409.033	0.99
409.242	0.98
409.45	1.04
409.658	1.01
409.867	1.24
410.075	0.94
410.283	0.76
410.491	0.73
410.7	0.73
410.908	0.66
411.116	1.1
411.324	1.14
411.533	1.07
411.741	1.34
411.949	1.37
412.157	1.03
412.365	1.02
412.573	1.15
412.781	1.1
412.99	1.01
413.198	1.32
413.406	1.3
413.614	1.26
413.822	1.08
414.03	1.08
414.238	0.79
414.446	0.88
414.654	0.68
414.862	0.75
415.07	0.84
415.278	1.1
415.486	0.83
415.694	0.96
415.902	0.85
416.109	0.59
416.317	0.39
416.525	0.4
416.733	0.39
416.941	0.51
417.149	0.64
417.357	0.72
417.564	0.98
417.772	1.26
417.98	1.29
418.188	1.35
418.395	1.32
418.603	1.34
418.811	0.91
419.019	0.75
419.226	0.85
419.434	1.08
419.642	0.84
419.849	1.09
420.057	1.17
420.265	1.17
420.472	0.84
420.68	0.97
420.887	0.78
421.095	0.82
421.302	0.69
421.51	1
421.717	1.07
421.925	1.19
422.132	1
422.34	0.74
422.547	0.7
422.755	0.59
422.962	0.51
423.17	0.46
423.377	0.68
423.585	0.67
423.792	0.53
423.999	0.65
424.207	0.78
424.414	1.04
424.621	1.03
424.829	1.01
425.036	1.03
425.243	1.08
425.451	0.74
425.658	0.47
425.865	0.86
426.072	0.82
426.28	0.99
426.487	1.05
426.694	1.25
426.901	0.96
427.108	0.9
427.315	0.76
427.523	1.1
427.73	1.14
427.937	1.15
428.144	1.07
428.351	0.98
428.558	1.01
428.765	0.9
428.972	0.8
429.179	0.96
429.386	1.32
429.593	0.89
429.8	0.75
430.007	0.95
430.214	1.01
430.421	0.72
430.628	0.66
430.835	0.63
431.042	0.83
431.249	0.89
431.456	0.84
431.662	0.99
431.869	1.1
432.076	0.93
432.283	0.91
432.49	0.94
432.697	0.93
432.903	0.76
433.11	0.7
433.317	0.73
433.524	0.96
433.73	0.93
433.937	1.21
434.144	1.1
434.35	1.05
434.557	0.88
434.764	0.98
434.97	0.85
435.177	1.08
435.384	0.91
435.59	0.96
435.797	1.18
436.003	1.18
436.21	1.11
436.416	1.33
436.623	1.38
436.829	1.28
437.036	1.46
437.242	1.41
437.449	1.21
437.655	1.16
437.862	1.09
438.068	0.94
438.275	1.03
438.481	1.36
438.687	1.36
438.894	1.3
439.1	1.38
439.307	1.52
439.513	1.28
439.719	1.21
439.926	1.32
440.132	1.2
440.338	1.02
440.544	1.22
440.751	1.22
440.957	1.29
441.163	1.26
441.369	1.38
441.575	1.09
441.782	1.08
441.988	0.87
442.194	0.9
442.4	0.79
442.606	1.13
442.812	1.22
443.018	1.43
443.224	1.49
443.431	1.63
443.637	1.33
443.843	1.26
444.049	1.22
444.255	1.13
444.461	1.17
444.667	1.2
444.873	1.3
445.079	1.24
445.284	1.42
445.49	1.19
445.696	1.07
445.902	1.03
446.108	1.02
446.314	0.89
446.52	0.93
446.726	1.2
446.931	1.18
447.137	1.22
447.343	1.26
447.549	1.25
447.755	1.15
447.96	1.16
448.166	1.1
448.372	1.09
448.578	1.2
448.783	1.2
448.989	1.31
449.195	1.5
449.4	1.51
449.606	1.43
449.812	1.34
450.017	1.31
450.223	1.12
450.428	1.01
450.634	1.13
450.84	1.32
451.045	1.21
451.251	1.22
451.456	1.54
451.662	1.59
451.867	1.62
452.073	1.54
452.278	1.69
452.483	1.7
452.689	1.53
452.894	1.51
453.1	1.61
453.305	1.49
453.51	1.39
453.716	1.36
453.921	1.37
454.127	1.3
454.332	1.22
454.537	1.08
454.742	1.07
454.948	0.95
455.153	1.12
455.358	1.3
455.563	1.53
455.769	1.7
455.974	1.73
456.179	1.53
456.384	1.48
456.589	1.39
456.795	1.15
457	1.17
457.205	1.43
457.41	1.39
457.615	1.27
457.82	1.4
458.025	1.44
458.23	1.23
458.435	1.27
458.64	1.27
458.845	1.39
459.05	1.35
459.255	1.37
459.46	1.37
459.665	1.37
459.87	1.39
460.075	1.35
460.28	1.45
460.485	1.53
460.69	1.58
460.895	1.33
461.099	1.33
461.304	1.4
461.509	1.4
461.714	1.35
461.919	1.57
462.123	1.49
462.328	1.55
462.533	1.41
462.738	1.59
462.942	1.47
463.147	1.62
463.352	1.6
463.556	1.65
463.761	1.57
463.966	1.63
464.17	1.61
464.375	1.51
464.58	1.48
464.784	1.45
464.989	1.31
465.193	1.31
465.398	1.3
465.602	1.45
465.807	1.4
466.011	1.53
466.216	1.58
466.42	1.64
466.625	1.62
466.829	1.84
467.034	1.9
467.238	2.04
467.443	1.97
467.647	1.92
467.851	1.85
468.056	1.88
468.26	1.7
468.464	1.69
468.669	1.73
468.873	1.92
469.077	1.87
469.282	1.96
469.486	2.07
469.69	2.11
469.894	1.87
470.099	1.96
470.303	2.05
470.507	1.97
470.711	1.84
470.915	1.86
471.119	1.79
471.324	1.66
471.528	1.7
471.732	1.8
471.936	1.8
472.14	1.84
472.344	1.91
472.548	1.98
472.752	2.12
472.956	2.38
473.16	2.36
473.364	2.24
473.568	2.17
473.772	2.15
473.976	2
474.18	1.96
474.384	2.01
474.588	2.03
474.792	1.91
474.995	1.95
475.199	2.07
475.403	2.14
475.607	2.21
475.811	2.19
476.015	2.2
476.218	2.2
476.422	2.13
476.626	2.14
476.83	2.2
477.033	2.15
477.237	2.07
477.441	2.21
477.644	2.2
477.848	2.29
478.052	2.27
478.255	2.31
478.459	2.29
478.663	2.42
478.866	2.41
479.07	2.42
479.273	2.58
479.477	2.6
479.681	2.53
479.884	2.5
480.088	2.49
480.291	2.4
480.495	2.38
480.698	2.41
480.901	2.46
481.105	2.57
481.308	2.51
481.512	2.5
481.715	2.5
481.919	2.54
482.122	2.52
482.325	2.6
482.529	2.64
482.732	2.66
482.935	2.56
483.138	2.5
483.342	2.56
483.545	2.62
483.748	2.64
483.952	2.72
484.155	2.89
484.358	2.94
484.561	2.83
484.764	2.78
484.967	2.84
485.171	2.86
485.374	2.74
485.577	2.88
485.78	2.9
485.983	2.88
486.186	2.73
486.389	2.73
486.592	2.7
486.795	2.77
486.998	2.76
487.201	2.87
487.404	3.02
487.607	3.05
487.81	3.04
488.013	3.09
488.216	3.06
488.419	3.01
488.622	2.98
488.825	2.91
489.028	2.82
489.231	2.78
489.433	2.7
489.636	2.59
489.839	2.62
490.042	2.55
490.245	2.56
490.447	2.65
490.65	2.7
490.853	2.68
491.056	2.79
491.258	2.81
491.461	2.83
491.664	2.97
491.866	2.93
492.069	3.05
492.272	2.95
492.474	2.93
492.677	2.89
492.879	2.97
493.082	2.96
493.285	3.17
493.487	3.18
493.69	3.09
493.892	3.02
494.095	2.95
494.297	2.84
494.5	2.86
494.702	2.93
494.905	2.98
495.107	2.96
495.309	3
495.512	3.04
495.714	3.09
495.917	3.16
496.119	3.2
496.321	3.26
496.524	3.25
496.726	3.24
496.928	3.23
497.13	3.25
497.333	3.21
497.535	3.22
497.737	3.2
497.939	3.19
498.142	3.19
498.344	3.16
498.546	3.03
498.748	3.06
498.95	3.17
499.152	3.13
499.355	3.21
499.557	3.33
499.759	3.48
499.961	3.37
500.163	3.45
500.365	3.45
500.567	3.53
500.769	3.41
500.971	3.46
501.173	3.41
501.375	3.44
501.577	3.32
501.779	3.3
501.981	3.31
502.183	3.4
502.385	3.34
502.587	3.33
502.788	3.42
502.99	3.46
503.192	3.46
503.394	3.44
503.596	3.46
503.798	3.53
503.999	3.52
504.201	3.52
504.403	3.65
504.605	3.69
504.806	3.57
505.008	3.6
505.21	3.69
505.411	3.67
505.613	3.7
505.815	3.76
506.016	3.84
506.218	3.87
506.42	3.86
506.621	3.9
506.823	3.95
507.024	3.86
507.226	3.78
507.427	3.76
507.629	3.78
507.83	3.86
508.032	3.9
508.233	3.97
508.435	4.05
508.636	4.09
508.838	4
509.039	3.99
509.24	4.03
509.442	4.09
509.643	4
509.845	4.01
510.046	4.1
510.247	4.09
510.448	4.08
510.65	4.18
510.851	4.3
511.052	4.25
511.254	4.21
511.455	4.31
511.656	4.36
511.857	4.35
512.058	4.34
512.26	4.37
512.461	4.3
512.662	4.34
512.863	4.29
513.064	4.33
513.265	4.35
513.466	4.38
513.667	4.36
513.868	4.39
514.069	4.5
514.27	4.59
514.471	4.58
514.672	4.56
514.873	4.55
515.074	4.53
515.275	4.4
515.476	4.41
515.677	4.43
515.878	4.58
516.079	4.57
516.28	4.65
516.481	4.79
516.682	4.84
516.882	4.74
517.083	4.76
517.284	4.69
517.485	4.64
517.686	4.59
517.886	4.6
518.087	4.66
518.288	4.78
518.488	4.74
518.689	4.75
518.89	4.74
519.091	4.71
519.291	4.63
519.492	4.69
519.692	4.76
519.893	4.88
520.094	4.88
520.294	4.9
520.495	4.87
520.695	4.91
520.896	4.86
521.096	4.9
521.297	4.96
521.497	4.93
521.698	4.87
521.898	4.87
522.099	4.89
522.299	4.96
522.499	5.02
522.7	5.05
522.9	5.08
523.101	5.14
523.301	5.13
523.501	5.1
523.702	5.13
523.902	5.22
524.102	5.25
524.302	5.2
524.503	5.31
524.703	5.3
524.903	5.27
525.103	5.18
525.304	5.33
525.504	5.35
525.704	5.42
525.904	5.38
526.104	5.4
526.304	5.35
526.504	5.36
526.705	5.42
526.905	5.53
527.105	5.55
527.305	5.56
527.505	5.48
527.705	5.42
527.905	5.42
528.105	5.46
528.305	5.46
528.505	5.55
528.705	5.65
528.905	5.61
529.105	5.61
529.304	5.67
529.504	5.7
529.704	5.61
529.904	5.63
530.104	5.64
530.304	5.71
530.503	5.66
530.703	5.64
530.903	5.64
531.103	5.71
531.303	5.61
531.502	5.65
531.702	5.77
531.902	5.84
532.101	5.78
532.301	5.85
532.501	5.88
532.7	5.88
532.9	5.92
533.1	5.98
533.299	6.01
533.499	6.05
533.698	6.02
533.898	5.96
534.097	5.98
534.297	6.04
534.496	6.04
534.696	6.08
534.895	6.16
535.095	6.24
535.294	6.2
535.494	6.15
535.693	6.22
535.892	6.25
536.092	6.16
536.291	6.16
536.491	6.26
536.69	6.3
536.889	6.23
537.088	6.25
537.288	6.35
537.487	6.43
537.686	6.43
537.886	6.52
538.085	6.59
538.284	6.73
538.483	6.68
538.682	6.72
538.882	6.77
539.081	6.86
539.28	6.71
539.479	6.71
539.678	6.73
539.877	6.81
540.076	6.79
540.275	6.8
540.474	6.94
540.673	6.97
540.872	6.91
541.071	6.99
541.27	7.09
541.469	7.1
541.668	7.15
541.867	7.17
542.066	7.19
542.265	7.27
542.464	7.22
542.663	7.23
542.862	7.46
543.06	7.52
543.259	7.56
543.458	7.63
543.657	7.71
543.856	7.66
544.054	7.67
544.253	7.63
544.452	7.67
544.651	7.73
544.849	7.75
545.048	7.85
545.247	7.9
545.445	7.99
545.644	8.06
545.843	8.06
546.041	8.07
546.24	8.16
546.438	8.23
546.637	8.27
546.836	8.45
547.034	8.53
547.233	8.57
547.431	8.52
547.63	8.53
547.828	8.51
548.027	8.51
548.225	8.55
548.423	8.66
548.622	8.74
548.82	8.73
549.019	8.85
549.217	9.01
549.415	9.02
549.614	9.16
549.812	9.21
550.01	9.19
550.209	9.17
550.407	9.27
550.605	9.22
550.803	9.36
551.002	9.49
551.2	9.59
551.398	9.76
551.596	9.91
551.794	9.93
551.993	10.02
552.191	10.07
552.389	10.18
552.587	10.23
552.785	10.32
552.983	10.41
553.181	10.52
553.379	10.51
553.577	10.54
553.775	10.67
553.973	10.74
554.171	10.84
554.369	10.85
554.567	10.94
554.765	11.01
554.963	11.09
555.161	11.11
555.359	11.28
555.557	11.48
555.755	11.61
555.952	11.73
556.15	11.81
556.348	11.91
556.546	11.95
556.744	11.93
556.941	11.98
557.139	12.11
557.337	12.15
557.535	12.2
557.732	12.38
557.93	12.6
558.128	12.68
558.325	12.9
558.523	13
558.721	13.08
558.918	13.02
559.116	13.18
559.313	13.14
559.511	13.35
559.708	13.38
559.906	13.53
560.104	13.56
560.301	13.67
560.498	13.71
560.696	13.91
560.893	13.97
561.091	14.13
561.288	14.27
561.486	14.35
561.683	14.41
561.88	14.6
562.078	14.71
562.275	14.78
562.473	14.91
562.67	15.11
562.867	15.2
563.064	15.36
563.262	15.46
563.459	15.57
563.656	15.66
563.853	15.7
564.051	15.72
564.248	15.88
564.445	15.98
564.642	16
564.839	16.19
565.036	16.34
565.234	16.5
565.431	16.56
565.628	16.72
565.825	16.78
566.022	16.86
566.219	16.9
566.416	17.04
566.613	17.1
566.81	17.2
567.007	17.23
567.204	17.26
567.401	17.32
567.598	17.36
567.795	17.37
567.991	17.46
568.188	17.54
568.385	17.67
568.582	17.74
568.779	17.85
568.976	17.84
569.172	17.99
569.369	17.95
569.566	17.98
569.763	18.08
569.96	18.14
570.156	18.13
570.353	18.18
570.55	18.34
570.746	18.37
570.943	18.51
571.14	18.59
571.336	18.66
571.533	18.67
571.729	18.59
571.926	18.65
572.123	18.68
572.319	18.77
572.516	18.73
572.712	18.89
572.909	18.89
573.105	19.03
573.302	19.08
573.498	19.21
573.695	19.13
573.891	19.2
574.087	19.22
574.284	19.18
574.48	19.08
574.677	19.25
574.873	19.22
575.069	19.14
575.266	19.14
575.462	19.2
575.658	19.25
575.854	19.37
576.051	19.51
576.247	19.44
576.443	19.48
576.639	19.43
576.835	19.34
577.032	19.22
577.228	19.45
577.424	19.48
577.62	19.41
577.816	19.48
578.012	19.48
578.208	19.41
578.404	19.43
578.6	19.51
578.796	19.53
578.993	19.55
579.189	19.52
579.384	19.38
579.58	19.34
579.776	19.26
579.972	19.23
580.168	19.2
580.364	19.31
580.56	19.33
580.756	19.34
580.952	19.32
581.148	19.35
581.343	19.33
581.539	19.29
581.735	19.27
581.931	19.32
582.127	19.32
582.322	19.33
582.518	19.42
582.714	19.51
582.909	19.49
583.105	19.38
583.301	19.35
583.496	19.29
583.692	19.12
583.888	19.09
584.083	19.16
584.279	19.25
584.474	19.24
584.67	19.31
584.866	19.34
585.061	19.28
585.257	19.3
585.452	19.35
585.648	19.34
585.843	19.3
586.039	19.35
586.234	19.31
586.429	19.19
586.625	19.35
586.82	19.39
587.015	19.35
587.211	19.19
587.406	19.3
587.601	19.15
587.797	19.1
587.992	19.14
588.187	19.31
588.383	19.22
588.578	19.25
588.773	19.36
588.968	19.4
589.163	19.47
589.359	19.54
589.554	19.57
589.749	19.59
589.944	19.67
590.139	19.61
590.334	19.6
590.529	19.58
590.724	19.67
590.919	19.68
591.114	19.66
591.309	19.77
591.504	19.86
591.699	19.82
591.894	19.9
592.089	19.99
592.284	19.98
592.479	20.07
592.674	20.11
592.869	20.05
593.064	20.15
593.259	20.36
593.454	20.4
593.648	20.4
593.843	20.4
594.038	20.46
594.233	20.31
594.428	20.37
594.622	20.47
594.817	20.72
595.012	20.73
595.206	20.87
595.401	20.91
595.596	21.01
595.79	21.07
595.985	21.25
596.18	21.44
596.374	21.6
596.569	21.65
596.763	21.69
596.958	21.72
597.153	21.7
597.347	21.61
597.542	21.78
597.736	21.79
597.931	21.83
598.125	21.9
598.319	22.11
598.514	22.09
598.708	22.21
598.903	22.22
599.097	22.32
599.291	22.33
599.486	22.32
599.68	22.37
599.874	22.56
600.069	22.66
600.263	22.72
600.457	22.92
600.651	23.03
600.846	23.05
601.04	23.02
601.234	23.1
601.428	23.13
601.622	23.12
601.817	23.16
602.011	23.22
602.205	23.28
602.399	23.31
602.593	23.39
602.787	23.43
602.981	23.45
603.175	23.5
603.369	23.44
603.563	23.4
603.757	23.41
603.951	23.45
604.145	23.38
604.339	23.48
604.533	23.38
604.727	23.29
604.921	23.17
605.115	23.17
605.309	23.13
605.502	23.14
605.696	23.16
605.89	23.22
606.084	23.12
606.278	23
606.471	22.92
606.665	22.87
606.859	22.76
607.053	22.78
607.246	22.83
607.44	22.89
607.634	22.83
607.827	22.82
608.021	22.69
608.214	22.59
608.408	22.46
608.602	22.44
608.795	22.37
608.989	22.31
609.182	22.28
609.376	22.27
609.569	22.15
609.763	22.11
609.956	22.09
610.15	21.98
610.343	21.88
610.537	21.81
610.73	21.77
610.923	21.76
611.117	21.72
611.31	21.7
611.504	21.68
611.697	21.51
611.89	21.4
612.083	21.32
612.277	21.23
612.47	21.09
612.663	21.07
612.856	21.02
613.05	20.91
613.243	20.77
613.436	20.75
613.629	20.67
613.822	20.52
614.015	20.42
614.209	20.32
614.402	20.26
614.595	20.27
614.788	20.19
614.981	20.16
615.174	20.1
615.367	20.01
615.56	19.78
615.753	19.81
615.946	19.77
616.139	19.8
616.332	19.9
616.525	19.89
616.718	19.86
616.911	19.83
617.103	19.8
617.296	19.66
617.489	19.66
617.682	19.59
617.875	19.51
618.067	19.43
618.26	19.31
618.453	19.29
618.646	19.22
618.838	19.27
619.031	19.33
619.224	19.35
619.417	19.3
619.609	19.41
619.802	19.33
619.994	19.17
620.187	19.1
620.38	19.12
620.572	19.01
620.765	18.94
620.957	18.97
621.15	18.91
621.342	18.79
621.535	18.75
621.727	18.75
621.92	18.63
622.112	18.58
622.305	18.67
622.497	18.59
622.69	18.55
622.882	18.66
623.074	18.73
623.267	18.58
623.459	18.55
623.651	18.53
623.844	18.45
624.036	18.42
624.228	18.44
624.42	18.44
624.613	18.55
624.805	18.54
624.997	18.55
625.189	18.51
625.381	18.54
625.574	18.36
625.766	18.29
625.958	18.19
626.15	18.23
626.342	18.15
626.534	18.23
626.726	18.22
626.918	18.15
627.11	18.03
627.302	18.04
627.494	17.94
627.686	18
627.878	17.99
628.07	18
628.262	17.97
628.454	17.98
628.646	17.91
628.838	17.9
629.029	17.87
629.221	17.85
629.413	17.71
629.605	17.59
629.797	17.58
629.989	17.57
630.18	17.53
630.372	17.54
630.564	17.59
630.755	17.62
630.947	17.65
631.139	17.46
631.33	17.4
631.522	17.5
631.714	17.41
631.905	17.34
632.097	17.34
632.289	17.43
632.48	17.29
632.672	17.2
632.863	17.13
633.055	17.23
633.246	17.18
633.438	17.12
633.629	17.14
633.821	17.19
634.012	17.11
634.203	16.99
634.395	17
634.586	17.08
634.777	16.97
634.969	17
635.16	17.04
635.351	16.96
635.543	16.8
635.734	16.8
635.925	16.79
636.117	16.81
636.308	16.82
636.499	16.83
636.69	16.68
636.881	16.61
637.073	16.66
637.264	16.62
637.455	16.67
637.646	16.9
637.837	16.83
638.028	16.65
638.219	16.68
638.41	16.57
638.601	16.43
638.792	16.47
638.983	16.5
639.174	16.44
639.365	16.48
639.556	16.46
639.747	16.41
639.938	16.51
640.129	16.48
640.32	16.42
640.511	16.44
640.701	16.57
640.892	16.4
641.083	16.46
641.274	16.5
641.465	16.45
641.655	16.26
641.846	16.29
642.037	16.19
642.228	16.13
642.418	16.15
642.609	16.18
642.8	16.25
642.99	16.2
643.181	16.27
643.372	16.27
643.562	16.3
643.753	16.18
643.943	16.15
644.134	16.03
644.324	16
644.515	15.92
644.705	15.95
644.896	16.01
645.086	15.97
645.277	16
645.467	16.05
645.658	15.94
645.848	15.84
646.038	15.83
646.229	15.78
646.419	15.53
646.61	15.54
646.8	15.52
646.99	15.48
647.18	15.35
647.371	15.43
647.561	15.4
647.751	15.4
647.941	15.39
648.132	15.49
648.322	15.54
648.512	15.6
648.702	15.62
648.892	15.59
649.082	15.5
649.272	15.35
649.462	15.11
649.653	15.06
649.843	15.07
650.033	15.11
650.223	15.06
650.413	15.11
650.603	15.05
650.793	15.04
650.983	14.98
651.172	15.06
651.362	14.99
651.552	14.98
651.742	14.83
651.932	14.71
652.122	14.69
652.312	14.75
652.502	14.71
652.691	14.67
652.881	14.65
653.071	14.61
653.261	14.43
653.45	14.24
653.64	14.23
653.83	14.09
654.019	13.93
654.209	13.92
654.399	13.95
654.588	13.84
654.778	13.75
654.968	13.67
655.157	13.57
655.347	13.44
655.536	13.32
655.726	13.22
655.915	13.02
656.105	12.85
656.294	12.75
656.484	12.54
656.673	12.39
656.863	12.33
657.052	12.12
657.241	11.89
657.431	11.7
657.62	11.47
657.809	11.17
657.999	11.06
658.188	10.82
658.377	10.63
658.567	10.63
658.756	10.51
658.945	10.38
659.134	10.21
659.324	10.11
659.513	9.85
659.702	9.69
659.891	9.52
660.08	9.37
660.269	9.31
660.458	9.09
660.648	8.91
660.837	8.66
661.026	8.58
661.215	8.29
661.404	8.16
661.593	8.03
661.782	7.85
661.971	7.75
662.16	7.65
662.349	7.57
662.538	7.39
662.726	7.33
662.915	7.08
663.104	6.92
663.293	6.83
663.482	6.88
663.671	6.77
663.86	6.61
664.048	6.44
664.237	6.39
664.426	6.13
664.615	6.07
664.803	6.09
664.992	5.99
665.181	5.83
665.369	5.69
665.558	5.58
665.747	5.46
665.935	5.49
666.124	5.39
666.312	5.43
666.501	5.34
666.69	5.24
666.878	5.14
667.067	4.98
667.255	5.01
667.444	5.26
667.632	5.24
667.82	5.32
668.009	5.26
668.197	5.17
668.386	4.88
668.574	4.98
668.762	4.8
668.951	4.77
669.139	4.64
669.327	4.51
669.516	4.47
669.704	4.41
669.892	4.66
670.08	4.72
670.269	4.68
670.457	4.53
670.645	4.38
670.833	4.32
671.021	4.32
671.21	4.38
671.398	4.59
671.586	4.68
671.774	4.44
671.962	4.37
672.15	4.39
672.338	4.21
672.526	4.29
672.714	4.33
672.902	4.37
673.09	4.57
673.278	4.74
673.466	4.72
673.654	4.87
673.842	4.91
674.03	4.74
674.218	4.64
674.405	4.65
674.593	4.56
674.781	4.61
674.969	4.66
675.157	4.85
675.344	5.08
675.532	5.17
675.72	5.25
675.908	5.37
676.095	5.27
676.283	5.27
676.471	5.46
676.658	5.45
676.846	5.44
677.033	5.59
677.221	5.61
677.409	5.54
677.596	5.58
677.784	5.62
677.971	5.6
678.159	5.71
678.346	5.82
678.534	5.94
678.721	6.13
678.909	6.19
679.096	6.08
679.283	6.19
679.471	6.27
679.658	6.26
679.846	6.48
680.033	6.76
680.22	6.76
680.408	6.7
680.595	6.84
680.782	6.78
680.969	6.83
681.157	6.98
681.344	7.17
681.531	7.2
681.718	7.35
681.905	7.54
682.093	7.71
682.28	8.03
682.467	8.31
682.654	8.45
682.841	8.59
683.028	8.83
683.215	8.87
683.402	8.85
683.589	9.07
683.776	9.21
683.963	9.28
684.15	9.6
684.337	9.88
684.524	10.09
684.711	10.33
684.898	10.39
685.085	10.6
685.271	10.93
685.458	11.24
685.645	11.46
685.832	11.96
686.019	12.19
686.205	12.45
686.392	12.71
686.579	13.01
686.766	13.47
686.952	13.78
687.139	14.41
687.326	14.67
687.512	15.12
687.699	15.43
687.886	15.82
688.072	15.86
688.259	16.36
688.445	16.89
688.632	17.05
688.818	17.88
689.005	18.46
689.191	18.99
689.378	19.53
689.564	20.43
689.751	20.65
689.937	21.27
690.124	21.83
690.31	22.09
690.496	22.49
690.683	23.18
690.869	23.71
691.055	24.44
691.242	25.39
691.428	26.15
691.614	26.79
691.8	27.61
691.987	28.08
692.173	28.62
692.359	29.34
692.545	30
692.731	30.54
692.918	31.31
693.104	32.02
693.29	32.66
693.476	33.41
693.662	34.15
693.848	34.8
694.034	35.4
694.22	36.08
694.406	36.81
694.592	37.43
694.778	38.08
694.964	38.81
695.15	39.41
695.336	39.94
695.522	40.99
695.708	41.64
695.894	42.28
696.08	43.09
696.265	43.73
696.451	44.24
696.637	45.13
696.823	45.77
697.009	46.31
697.194	46.85
697.38	47.24
697.566	47.78
697.751	48.57
697.937	49.28
698.123	50.2
698.308	50.89
698.494	51.52
698.68	51.72
698.865	52.03
699.051	52.7
699.236	53.17
699.422	53.68
699.607	54.17
699.793	54.8
699.978	54.87
700.164	55.34
700.349	55.82
700.535	56.41
700.72	56.88
700.906	57.57
701.091	58.04
701.276	58.41
701.462	59.35
701.647	59.95
701.832	60.33
702.018	60.85
702.203	61.51
702.388	61.37
702.573	61.78
702.759	62.42
702.944	62.67
703.129	62.62
703.314	63.19
703.499	63.14
703.684	63.19
703.87	64.11
704.055	64.9
704.24	65.22
704.425	66.15
704.61	66.56
704.795	66.55
704.98	66.62
705.165	66.72
705.35	66.66
705.535	66.98
705.72	67.17
705.905	67.55
706.09	68.33
706.275	68.47
706.459	68.54
706.644	68.48
706.829	68.81
707.014	68.71
707.199	69.38
707.384	69.91
707.568	70.49
707.753	71.05
707.938	71.57
708.123	71.56
708.307	71.22
708.492	71.12
708.677	70.8
708.861	70.73
709.046	70.8
709.231	71.72
709.415	72.1
709.6	72.24
709.784	72.27
709.969	72.66
710.153	72.53
710.338	72.74
710.522	72.94
710.707	73.46
710.891	73.29
711.076	73.41
711.26	73.21
711.445	73.27
711.629	73.22
711.813	73.41
711.998	73.86
712.182	74.16
712.366	74.94
712.551	75.46
712.735	75.57
712.919	75.41
713.103	75.9
713.288	75.23
713.472	74.77
713.656	75.81
713.84	75.89
714.024	75.79
714.208	76.15
714.393	76.82
714.577	76.44
714.761	76.38
714.945	76.55
715.129	76.82
715.313	76.41
715.497	76.03
715.681	76.75
715.865	76.79
716.049	76.7
716.233	76.78
716.417	77.05
716.601	76.87
716.785	76.47
716.968	76.6
717.152	77.03
717.336	77.56
717.52	77.37
717.704	77.85
717.888	78.31
718.071	78.27
718.255	78.3
718.439	78.28
718.622	78.61
718.806	78.56
718.99	78.45
719.174	78.3
719.357	78.34
719.541	78.56
719.724	78.37
719.908	79.09
720.092	79.3
720.275	79.99
720.459	79.48
720.642	79.36
720.826	78.78
721.009	78.41
721.193	77.5
721.376	77.7
721.559	78.12
721.743	78.5
721.926	78.81
722.11	79.37
722.293	78.69
722.476	78.32
722.66	78.28
722.843	78.4
723.026	78.14
723.21	78.99
723.393	79.61
723.576	79.54
723.759	78.77
723.942	78.85
724.126	78.56
724.309	78.34
724.492	78.26
724.675	78.29
724.858	78.64
725.041	79.13
725.224	79.02
725.407	79.35
725.59	80.07
725.774	79.78
725.957	79.17
726.14	79.19
726.322	79.17
726.505	79.22
726.688	80.36
726.871	80.59
727.054	80.84
727.237	80.53
727.42	80.9
727.603	79.98
727.786	80.25
727.968	80.39
728.151	80.32
728.334	79.53
728.517	79.87
728.699	80.29
728.882	80.24
729.065	80.92
729.248	81.81
729.43	82.08
729.613	82.28
729.796	82.99
729.978	82.27
730.161	81.91
730.343	81.28
730.526	81.26
730.708	80.34
730.891	80.84
731.073	80.27
731.256	80.42
731.438	80.21
731.621	81.37
731.803	80.96
731.986	81.7
732.168	81.05
732.35	80.93
732.533	79.77
732.715	80.21
732.898	80.52
733.08	81.12
733.262	81.55
733.444	81.36
733.627	81.46
733.809	81.44
733.991	82.27
734.173	82.1
734.355	82.23
734.538	82.71
734.72	81.97
734.902	81.91
735.084	81.85
735.266	82.22
735.448	82.15
735.63	82.29
735.812	81.92
735.994	82.67
736.176	83.04
736.358	82.45
736.54	83.51
736.722	83.24
736.904	82.64
737.086	81.82
737.268	82.99
737.45	83.34
737.632	82.71
737.814	81.78
737.995	82.26
738.177	81.82
738.359	80.03
738.541	81.22
738.723	82.06
738.904	82.68
739.086	81.88
739.268	82.2
739.449	81.83
739.631	81.86
739.813	82.12
739.994	82.97
740.176	83.58
740.358	83.03
740.539	84.52
740.721	84.46
740.902	85.24
741.084	84.27
741.265	85.01
741.447	84.54
741.628	83.99
741.81	82.79
741.991	84.46
742.172	84.97
742.354	84.55
742.535	84.53
742.717	84.92
742.898	84.71
743.079	84.23
743.261	83.51
743.442	82.65
743.623	83.66
743.804	84.06
743.986	85.72
744.167	84.66
744.348	85.53
744.529	84.81
744.71	83.17
744.891	80.88
745.073	81.8
745.254	81.83
745.435	80.74
745.616	80.66
745.797	81.16
745.978	80.48
746.159	79.55
746.34	80.02
746.521	81.76
746.702	80.75
746.883	81.61
747.064	81.94
747.245	81.62
747.426	81.08
747.606	82.52
747.787	82.55
747.968	83.64
748.149	84.98
748.33	85.55
748.51	84.96
748.691	84.57
748.872	84.44
749.053	82.81
749.233	81.09
749.414	80.84
749.595	80.5
749.775	78.96
749.956	78.32
750.137	78.57
750.317	78.96
750.498	81.15
750.678	82.38
750.859	83.57
751.04	83.53
751.22	82.77
751.4	80.82
751.581	79.27
751.761	79.88
751.942	81.24
752.122	81.31
752.303	80.72
752.483	81.07
752.663	79.43
752.844	76.55
753.024	77.9
753.204	79.33
753.385	78.67
753.565	79.39
753.745	81.09
753.925	79.83
754.106	78.27
754.286	79.28
754.466	79.09
754.646	80.26
754.826	79.99
755.006	79.55
755.187	79.98
755.367	80.54
755.547	80.1
755.727	81.32
755.907	81.87
756.087	82.54
756.267	81.04
756.447	80.69
756.627	78.56
756.807	79.62
756.987	77.98
757.167	79.56
757.346	79.71
757.526	80.17
757.706	80.73
757.886	82.41
758.066	82.51
758.246	83.67
758.425	85.05
758.605	83.37
758.785	83.49
758.965	83.51
759.144	81.11
759.324	80.6
759.504	81.17
759.683	79.56
759.863	77.88
760.043	77.4
760.222	77.54
760.402	76.17
760.581	76.03
760.761	78.51
760.94	77.56
761.12	78.82
761.299	79.78
761.479	79
761.658	76.45
761.838	77.41
762.017	75.33
762.197	75.64
762.376	77.47
762.555	78.61
762.735	79.47
762.914	78.41
763.093	78.15
763.273	77.33
763.452	77.61
763.631	76.61
763.81	76.63
763.99	76.68
764.169	76.27
764.348	74.89
764.527	74.87
764.706	78.65
764.885	80.03
765.064	78.68
765.243	79.67
765.423	80.72
765.602	78.09
765.781	75.63
765.96	74.39
766.139	73.74
766.318	74.95
766.497	74.47
766.676	76.84
766.854	80.49
767.033	80.17
767.212	77.74
767.391	77.57
767.57	76.94
767.749	76.89
767.928	78
768.106	78.1
768.285	77.37
768.464	75.95
768.643	74.06
768.821	73.44
769	76.13
769.179	76.09
769.357	75.75
769.536	75.57
769.715	75.27
769.893	75.98
770.072	75.6
770.25	76.84
770.429	78.93
770.607	78.42
770.786	75.49
770.964	77
771.143	76.4
771.321	76.7
771.5	78.53
771.678	77.74
771.857	76.44
772.035	76.49
772.213	74.48
772.392	70.95
772.57	72.4
772.748	73.87
772.927	72.29
773.105	72.12
773.283	75.11
773.461	75.92
773.64	76.83
773.818	77.56
773.996	78.64
774.174	77.63
774.352	75.24
774.531	71.95
774.709	72.69
774.887	72.37
775.065	71.44
775.243	72.19
775.421	73.39
775.599	77.23
775.777	75.39
775.955	73.52
776.133	71.72
776.311	71.06
776.489	63.51
776.667	64.28
776.844	66.82
777.022	66.23
777.2	67.03
777.378	69.1
777.556	69.19
777.734	71.53
777.911	73.79
778.089	72.42
778.267	71.41
778.445	69.87
778.622	65.29
778.8	64.29
778.978	69.15
779.155	69.94
779.333	72.15
779.511	74.11
779.688	78.66
779.866	70.28
780.043	69.23
780.221	68.81
780.398	68.03
780.576	65.87
780.753	69.99
780.931	70.15
781.108	70.04
781.286	71.95
781.463	68.35
781.64	65.06
781.818	64.6
781.995	64.64
782.172	62.37
782.35	64.1
782.527	69.56
782.704	72.74
782.882	73.4
783.059	74.12
783.236	74.8
783.413	74.23
783.59	74.52
783.768	71.93
783.945	74.09
784.122	75.06
784.299	74.53
784.476	73.11
784.653	72.23
784.83	67.56
785.007	61.44
785.184	62.84
785.361	59.45
785.538	64.38
785.715	69.88
785.892	73.25
786.069	72.42
786.246	75.59
786.423	73.32
786.6	71.18
786.776	74.01
786.953	71.33
787.13	73.69
787.307	74.3
787.484	74.94
787.66	69.59
787.837	71.17
788.014	66.04
788.191	65.72
788.367	60.49
788.544	66.82
788.721	67.31
788.897	69.6
789.074	69.25
789.25	70.72
789.427	69.14
789.603	67.6
789.78	70.55
789.956	66.83
790.133	63.69
790.309	64.52
790.486	68
790.662	61.48
790.839	65.53
791.015	70.34
791.192	66.7
791.368	65.43
791.544	66.82
791.721	66.57
791.897	64.54
792.073	64.24
792.249	56.36
792.426	61.81
792.602	63.79
792.778	63.78
792.954	59.71
793.13	67.79
793.307	59.4
793.483	49.07
793.659	51.19
793.835	59.49
794.011	51.96
794.187	58.71
794.363	61.43
794.539	65.3
794.715	56.71
794.891	60.59
795.067	57.47
795.243	63.53
795.419	58.18
795.595	62.73
795.771	63.5
795.947	65.38
796.122	61.47
796.298	62.44
796.474	62.96
796.65	61.4
796.826	59.07
797.001	57.48
797.177	54.59
797.353	56.37
797.529	61.43
797.704	62.32
797.88	63.17
798.056	57.75
798.231	59.1
798.407	60.05
798.582	56.63
798.758	66.38
798.934	75.67
799.109	66.58
799.285	55.86
799.46	60.75
799.636	53.8
799.811	50.61
799.986	55.65
800.162	61.61
800.337	63.4
800.513	56.55
800.688	57.58
800.863	69.07
801.039	59.73
801.214	49.55
801.389	60.65
801.565	62.17
801.74	42.3
801.915	56.77
802.09	60.86
802.265	66.04
802.441	63.87
802.616	69.74
802.791	70.2
802.966	70.68
803.141	65.24
803.316	60.27
803.491	69.05
803.666	68.78
803.841	63.76
804.016	57.54
804.191	62.91
804.366	51.29
804.541	45.92
804.716	48.39
804.891	46.74
805.066	49.67
805.241	53.3
805.416	52.27
805.591	53.1
805.765	54.37
805.94	53.84
806.115	53.91
806.29	49.92
806.464	54.41
806.639	50.4
806.814	41.62
806.989	33.3
807.163	42.89
807.338	42.38
807.512	39.85
807.687	27.9
807.862	45.82
808.036	47.54
808.211	50.44
808.385	67.06
808.56	86.28
808.734	82.11
808.909	77.91
809.083	60.16
809.258	53.93
809.432	58.48
809.606	52.52
809.781	52.83
809.955	64.57
810.13	65.82
810.304	53.11
810.478	44.27
810.652	47.26
810.827	53.8
811.001	50.58
811.175	52.05
811.349	57.89
811.524	45.2
811.698	28.56
811.872	30.53
812.046	36.33
812.22	47.15
812.394	51.55
812.568	67.62
812.742	71.61
812.916	67.32
813.09	54.15
813.264	55.57
813.438	50.2
813.612	44.16
813.786	40.3
813.96	46.65
814.134	45.29
814.308	58.33
814.482	63.48
814.656	60.68
814.83	65.14
815.003	67.48
815.177	46.25
815.351	40.81
815.525	46.91
815.698	36.39
815.872	30.05
816.046	23.6
816.219	30.59
816.393	43.95
816.567	50.46
816.74	58.81
816.914	68.2
817.088	65.05
817.261	47.79
817.435	43.3
817.608	46.63
817.782	38.68
817.955	33.74
818.129	35.32
818.302	45.16
818.475	44.93
818.649	48.06
818.822	49.21
818.996	68.61
819.169	62.81
819.342	43.6
819.516	52.88
819.689	61.22
819.862	40.53
820.035	28.12
820.209	34.05
820.382	30.8
820.555	29.66
820.728	26.73
820.901	30.2
821.075	38.53
821.248	48.82
821.421	32.48
821.594	35.44
821.767	67.32
821.94	77.67
822.113	49.44
822.286	49.64
822.459	54.88
822.632	37.6
822.805	18.1
822.978	25.27
823.151	26.73
823.324	7.04
823.496	-18.24
823.669	-18.3
823.842	-9.14
824.015	-30.14
824.188	-30.22
824.361	-5.19
824.533	-1.96
824.706	1.57
824.879	10.85
825.051	21.07
825.224	10.51
825.397	-2.52
825.569	-26.37
825.742	18.35
825.915	37.23
826.087	59.98
826.26	49.54
826.432	65.1
826.605	48.98
826.777	39.59
826.95	25.05
827.122	20.44
827.295	10.94
827.467	9.69
827.64	-25.54
827.812	-20.44
827.984	-19.37
828.157	-20.92
828.329	-69.62
828.501	-43.36
828.674	-1.01
828.846	-8.29
829.018	16.75
829.19	21.32
829.363	50.74
829.535	33.93
829.707	36.32
829.879	11.64
830.051	-3.34
830.223	-20.53
830.395	-44.07
830.568	-52.91
830.74	-52.17
830.912	10.19
831.084	-9.88
831.256	11.77
831.428	23.05
831.6	10.89
831.772	-31.77
831.943	-38.2
832.115	-39.85
832.287	-25.37
832.459	-12.43
832.631	-0.3
832.803	27.72
832.975	40.74
833.146	26.22
833.318	31.08
833.49	45.51
833.662	23.69
833.833	-0.54
834.005	17.16
834.177	27.11
834.348	15.92
834.52	-5.55
834.692	9.47
834.863	-21.08
835.035	-31.79
835.206	-85.55
835.378	-24.72
835.549	-49.64
835.721	-37.25
835.892	-27.25
836.064	-8.5
836.235	-30.1
836.407	17.21
836.578	-2.81
836.749	-20.74
836.921	-67.43
837.092	-73.38
837.264	-96.47
837.435	-115.23
837.606	-53.58
837.777	-3.87
837.949	15.04
838.12	21.84
838.291	54.07
838.462	38.69
838.633	-3.46
838.805	-5.66
838.976	2.46
839.147	-91.56
839.318	-84.63
839.489	-99.4
839.66	-98.69
839.831	-55.08
840.002	-22.08
840.173	-63.15
840.344	-11.93
840.515	-37.78
840.686	-208.73
840.857	-215.4
841.028	-150.73
841.199	-134.41
841.369	-127.91
841.54	-93.1
841.711	-21.64
841.882	0.02
842.053	-5.78
842.223	-15.56
842.394	1.96
842.565	-23.98
842.736	0.18
842.906	-12.45
843.077	-0.66
843.248	-8.86
843.418	0.3
843.589	-66.46
843.759	38.91
843.93	37.28
844.101	8.59
844.271	13.6
844.442	30.3
844.612	30.19
844.783	18.07
844.953	-3.09
845.123	-13.06
845.294	-7.41
845.464	-196.94
845.635	-107.04
845.805	-24.87
845.975	10.01
846.146	-59.02
846.316	-46.14
846.486	-2.06
846.656	31.69
846.827	12.29
846.997	22.32
847.167	41.24
847.337	-25
847.507	-100.97
847.677	-84.74
847.848	-3.03
848.018	6.78
848.188	20.47
848.358	3.75
848.528	-12.74
848.698	-70.48
848.868	-191.97
849.038	-345.33
849.208	-128.18
849.378	-40.02
849.548	-34.22
849.718	0.65
849.887	40.26
850.057	24.58
850.227	-36.71
850.397	-50.2
850.567	-180.3
850.737	-474.67
850.906	-1462.19
851.076	-988.87
851.246	-383.12
851.415	-58.27
851.585	-25.37
851.755	-63.52
851.924	-12.27
852.094	-57.81
852.264	-118.75
852.433	-1248.8
852.603	-239.05
852.772	-304.01
852.942	-138.01
853.111	-138.49
853.281	-71.63
853.45	-60.77
853.62	-105.83
853.789	-118.95
853.959	-112.74
854.128	-104.39
854.297	-113.96
854.467	-126.98
854.636	-96.28
854.805	-12.2
854.975	-67.02
855.144	-118.29
855.313	-96.33
855.482	-584.49
855.652	-326.32
855.821	-181.32
855.99	1.52
856.159	25.83
856.328	59.04
856.497	35.38
856.667	45.86
856.836	64.11
857.005	35.13
857.174	-28.53
857.343	-18.85
857.512	-27.7
857.681	-124.92
857.85	-180.7
858.019	-74.89
858.188	-92.39
858.356	-101.08
858.525	-162
858.694	-132.98
858.863	-272.39
859.032	-181.62
859.201	-267.53
859.369	-121.62
859.538	-116.12
859.707	-102.88
859.876	-113.9
860.044	-104.59
860.213	7.95
860.382	6.64
860.55	19.82
860.719	61.76
860.888	72.17
861.056	0.84
861.225	0.3
861.393	42.74
861.562	6.21
861.73	-84.33
861.899	-230.76
862.067	-2978.45
862.236	-156.34
862.404	-346.61
862.572	-183.55
862.741	-46.79
862.909	-53.38
863.078	-230.09
863.246	-143.46
863.414	-151.54
863.582	-109.2
863.751	-107.61
863.919	-71.04
864.087	-27.56
864.255	-17.42
864.424	-421.81
864.592	-39.75
864.76	-77.89
864.928	-455.8
865.096	-207.25
865.264	-136.59
865.432	-1710.8
865.6	-62.87
865.768	-29.2
865.936	-86.51
866.104	-81.46
866.272	-110.55
866.44	-389.67
866.608	759.65
866.776	312.19
866.944	2873.84
867.112	-636.76
867.28	-212.83
867.448	-70.17
867.615	-37.62
867.783	-16.52
867.951	-31.27
868.119	-12.26
868.286	-16.19
868.454	-122.46
868.622	-133.83
868.789	-132.99
868.957	-3383.93
869.125	-2912.5
869.292	-249.82
869.46	-357.11
869.627	-42.02
869.795	-45.45
869.963	-16.01
870.13	4.61
870.298	12.9
870.465	-144.56
870.632	-156.43
870.8	-141.8
870.967	-197.49
871.135	-266.39
871.302	-208.56
871.469	-240.21
871.637	-356.49
871.804	-216.65
871.971	-241.25
872.139	-698.95
872.306	-75.45
872.473	-70.26
872.64	-268.99
872.807	-50.57
872.975	58.12
873.142	-197.36
873.309	1458.78
873.476	64.41
873.643	147.68
873.81	63.35
873.977	77.34
874.144	44.89
874.311	-132.65
874.478	-208.94
874.645	-249.09
874.812	-162.48
874.979	-83.27
875.146	-113.16
875.313	-127.49
875.48	-14.5
875.647	-40.74
875.813	-88.86
875.98	-41.96
876.147	-81.23
876.314	-159.13
876.481	1355.99
876.647	-1792.98
876.814	752.2
876.981	-131.44
877.147	-104.26
877.314	-40.38
877.481	-23.31
877.647	-12.99
877.814	-92.25
877.98	-150.67
878.147	-68.26
878.314	-21.38
878.48	-74.59
878.647	-34.3
878.813	26.47
878.979	4.98
879.146	-24.55
879.312	-18.42
879.479	-79.19
879.645	-201.01
879.811	-356.7
879.978	-615.84
880.144	-208.08
880.31	-79.52
880.477	-326.37
880.643	-410.83
880.809	-192.76
880.975	-125.05
881.142	-760.68
881.308	-45.07
881.474	-8.19
881.64	-33.74
881.806	-130.8
881.972	-85.04
882.138	-112.52
882.304	-113.18
882.47	-214.79
882.636	-688.32
882.802	-206.29
882.968	-1.36
883.134	-5.13
883.3	-30.65
883.466	15.76
883.632	54.89
883.798	-5.78
883.964	-22.11
884.129	-9.38
884.295	16.13
884.461	-47.4
884.627	-61.39
884.793	-107.2
884.958	-44.13
885.124	-178.42
885.29	-337.45
885.455	-583.86
885.621	-121.9
885.787	-158.03
885.952	-47.01
886.118	-4.75
886.283	4.98
886.449	-53.35
886.614	-97.99
886.78	-194.9
886.945	1165.16
887.111	-747.25
887.276	-714.06
887.442	-1322.5
887.607	-635.26
887.773	-411.7
887.938	-347.72
888.103	-407.66
888.269	-230.35
888.434	-389.05
888.599	-118.66
888.764	-16.94
888.93	4.25
889.095	-46.38
889.26	-66.14
889.425	-53
889.59	-62.36
889.756	-121.56
889.921	-81.35
890.086	-25.73
890.251	-40.32
890.416	-222.37
890.581	-1528.63
890.746	156.34
890.911	584.55
891.076	226.64
891.241	-487.87
891.406	-22.22
891.571	-165.58
891.736	-495.3
891.901	-1045.8
892.065	1305.22
892.23	290.93
892.395	385.08
892.56	507.15
892.725	-934.96
892.889	-2531.1
893.054	-318.85
893.219	-120.8
893.384	-69.57
893.548	-110.2
893.713	-138.02
893.878	-103.15
