Data from Ofra_PS_T2_1A_4HS13_Reflection_2.txt Node
Date: Wed Jul 21 18:06:22 EDT 2021
User: Adam
Spectrometer: FLMT01687
Trigger mode: 0
Integration Time (sec): 1.100000E0
Scans to average: 2
Electric dark correction enabled: true
Nonlinearity correction enabled: false
Boxcar width: 2
XAxis mode: Wavelengths
Number of Pixels in Spectrum: 3648
>>>>>Begin Spectral Data<<<<<
179.494	568.6
179.716	632.94
179.937	615.47
180.158	562.19
180.38	893.59
180.601	271.13
180.823	67.2
181.044	-148.46
181.265	52.02
181.486	-1.14
181.708	80.08
181.929	628.06
182.15	-234.86
182.372	51.1
182.593	-71.69
182.814	-5.98
183.035	30.48
183.257	-9.4
183.478	-96.12
183.699	-25.22
183.92	-60.78
184.141	-81.73
184.363	-145.69
184.584	-78.87
184.805	-66.09
185.026	-21.82
185.247	6.37
185.468	-2.65
185.689	3.42
185.91	4.82
186.132	-4.3
186.353	-24.07
186.574	45.09
186.795	31.92
187.016	-19.69
187.237	-17.83
187.458	-24.25
187.679	-58.08
187.9	-50.4
188.121	-50.21
188.342	-58.61
188.563	-10.7
188.784	6
189.005	-11.76
189.226	59.58
189.447	-18.97
189.667	-273.18
189.888	-538.79
190.109	-1587.99
190.33	-970.81
190.551	-1509.51
190.772	-402.85
190.993	-349.82
191.214	-269.6
191.434	-158.5
191.655	-31.13
191.876	-45.6
192.097	-109.92
192.318	-204.46
192.538	-317.23
192.759	-250.2
192.98	-140.53
193.201	-60.85
193.421	-43.77
193.642	-15.47
193.863	-1.93
194.083	-18.45
194.304	-34.89
194.525	-24.32
194.745	-50.89
194.966	-85.25
195.187	-85.99
195.407	-133.34
195.628	-174.85
195.848	-157.88
196.069	-150.25
196.29	-105.19
196.51	-93.97
196.731	-89.45
196.951	-83.53
197.172	-109.14
197.392	-123.72
197.613	-105.64
197.833	-136.28
198.054	-125.22
198.274	-74.36
198.495	-94.12
198.715	-61.28
198.936	-83.71
199.156	-89.3
199.377	-186.82
199.597	-162.08
199.817	-179.37
200.038	-87.14
200.258	-136.92
200.479	-50.9
200.699	-45.89
200.919	-4.09
201.14	-59.09
201.36	-72.7
201.58	-16.06
201.801	4.66
202.021	-27.26
202.241	-34.21
202.461	-34.43
202.682	-180.92
202.902	-257.95
203.122	-169.01
203.342	-147.17
203.563	-83.85
203.783	-46.97
204.003	-91.51
204.223	-107.65
204.443	-0.37
204.663	-53.67
204.884	-16.24
205.104	3.22
205.324	15.61
205.544	-25.53
205.764	22.73
205.984	25.84
206.204	39.11
206.424	27.85
206.644	-7.38
206.864	-29.73
207.084	-123.55
207.304	-123
207.525	-263.98
207.745	-137.1
207.964	-67.34
208.184	-110.89
208.404	-155.42
208.624	-148.34
208.844	-157.04
209.064	-493.95
209.284	-424.81
209.504	-203.52
209.724	-59.02
209.944	-29.42
210.164	5.82
210.384	17.75
210.604	13.68
210.823	-45.62
211.043	-73.63
211.263	-59.69
211.483	-75.3
211.703	-131.54
211.922	-127.47
212.142	-50.17
212.362	-35.75
212.582	-26.75
212.801	-20.11
213.021	-32.41
213.241	-66.35
213.461	-113.92
213.68	-139.9
213.9	-107.63
214.12	-59.84
214.339	-86.38
214.559	-67.81
214.779	-12.81
214.998	-4.39
215.218	-52.15
215.438	-35.01
215.657	-18.46
215.877	-32.6
216.096	-21.73
216.316	0.74
216.535	-8.81
216.755	-19.92
216.974	-86.03
217.194	-138.48
217.413	-142.11
217.633	-143.11
217.852	-239.88
218.072	-107.42
218.291	-46.76
218.511	-3.44
218.73	-29.87
218.95	-32.54
219.169	-34.4
219.389	-89.39
219.608	-70.89
219.827	-47.24
220.047	-17.17
220.266	-14.69
220.485	0.67
220.705	10.82
220.924	-10.95
221.143	25.42
221.363	10.26
221.582	22.7
221.801	1.97
222.021	3.01
222.24	-112.95
222.459	-106.15
222.678	-104.84
222.897	-121.8
223.117	-167.42
223.336	-120.37
223.555	-70.19
223.774	-49.38
223.993	-43.94
224.213	21.07
224.432	7.41
224.651	31.15
224.87	9.48
225.089	33.25
225.308	9.89
225.527	19.09
225.746	6.91
225.965	1.02
226.184	-39.64
226.404	-5.69
226.623	-33.02
226.842	-32.55
227.061	-17.98
227.28	-12.25
227.499	-37.21
227.718	-10.12
227.936	-17.18
228.155	-8.17
228.374	-15.86
228.593	5.66
228.812	-4.92
229.031	-21.22
229.25	-59.77
229.469	-64.1
229.688	-87.05
229.907	-26.64
230.125	-0.6
230.344	6.65
230.563	17.53
230.782	32.88
231.001	-64.18
231.22	-67.79
231.438	-30.6
231.657	-9.51
231.876	-23.9
232.095	15.96
232.313	22.02
232.532	-7.73
232.751	-57.83
232.969	-82.7
233.188	-157.05
233.407	-88.81
233.625	-56.51
233.844	-91.53
234.063	-77.1
234.281	-55.74
234.5	-64.07
234.719	-61.59
234.937	-27.75
235.156	-8.48
235.374	-0.1
235.593	-27.39
235.811	-36.56
236.03	-46.8
236.249	-95.13
236.467	-79.09
236.686	-18.43
236.904	1.74
237.123	-24
237.341	-12.39
237.559	-9.43
237.778	-39.3
237.996	-87.31
238.215	-37.35
238.433	-29.17
238.652	-48.17
238.87	-47.32
239.088	-30.56
239.307	-21.72
239.525	-30.87
239.743	-52.44
239.962	-35.58
240.18	-58.58
240.398	-110.42
240.617	-118.04
240.835	-95.6
241.053	-85.96
241.271	-45.4
241.49	-24.93
241.708	-78.52
241.926	-112.29
242.144	-115.95
242.363	-152.75
242.581	-192.15
242.799	-104.58
243.017	-49.45
243.235	-47.68
243.453	-41.58
243.672	-33.51
243.89	-39.44
244.108	-56.77
244.326	-37.21
244.544	-34
244.762	-31.4
244.98	-15.95
245.198	-6.35
245.416	-31.84
245.634	-38.48
245.852	-38.3
246.07	-52.01
246.288	-79.77
246.506	-95.59
246.724	-64.59
246.942	-83.89
247.16	-44.97
247.378	-26.82
247.596	-4.08
247.814	-2.55
248.032	-3.71
248.25	10.46
248.468	7.98
248.685	22.86
248.903	42.93
249.121	42.09
249.339	2.15
249.557	-1.31
249.775	-3.37
249.992	-68.64
250.21	-68.26
250.428	-39.75
250.646	-73.68
250.863	-94.06
251.081	-54.57
251.299	-51.11
251.517	-64.55
251.734	-41.35
251.952	-45.15
252.17	-59.63
252.387	-43.46
252.605	-39.91
252.823	-37.8
253.04	-16.11
253.258	11.33
253.475	-3.47
253.693	13.66
253.911	31.71
254.128	37.78
254.346	43.45
254.563	32.76
254.781	16.35
254.998	-11.64
255.216	-17.18
255.433	-26.23
255.651	18.01
255.868	34.54
256.086	57.97
256.303	18.27
256.521	11.17
256.738	-12.73
256.956	-53.54
257.173	-87.5
257.39	-83.16
257.608	-108
257.825	-54.95
258.043	-14.78
258.26	-15.59
258.477	20.2
258.695	16.08
258.912	-43.49
259.129	-33.82
259.346	-62.26
259.564	-109.5
259.781	-152.19
259.998	-60.44
260.216	-40.07
260.433	1.68
260.65	-5.28
260.867	17.98
261.084	-23.5
261.302	-41.77
261.519	-60.53
261.736	-78.55
261.953	-85.35
262.17	-60.99
262.387	-103.98
262.604	-136.19
262.822	-130.54
263.039	-113.91
263.256	-158.84
263.473	-109.48
263.69	-59.96
263.907	-4.88
264.124	0.78
264.341	6.48
264.558	9.96
264.775	27.25
264.992	2.12
265.209	8.18
265.426	21.73
265.643	8.54
265.86	6.96
266.077	15.03
266.294	-15.46
266.51	-56.71
266.727	-64.44
266.944	-55.42
267.161	-67.52
267.378	-69.17
267.595	-31.6
267.812	-48.79
268.028	-96.25
268.245	-59.89
268.462	-71.22
268.679	-74.54
268.896	-8.91
269.112	-0.09
269.329	-10.3
269.546	8.12
269.763	-0.56
269.979	-28
270.196	-18.34
270.413	-58.81
270.629	-79.5
270.846	-81.73
271.063	-73.33
271.279	-98.4
271.496	-82.02
271.712	-37.49
271.929	-23.2
272.146	-46.74
272.362	-23.61
272.579	24.81
272.795	28.33
273.012	14.39
273.228	16.17
273.445	-20.39
273.661	-72.04
273.878	-150.85
274.094	-122.71
274.311	-141.58
274.527	-63.74
274.744	-52.43
274.96	-33.34
275.177	-25.52
275.393	-5.76
275.609	-13.9
275.826	4.67
276.042	-0.27
276.259	-39.75
276.475	-20.71
276.691	-7.26
276.908	-30.58
277.124	-9.84
277.34	15.04
277.557	-1.64
277.773	-32.34
277.989	-26.25
278.205	-29.88
278.422	-18.16
278.638	-13.46
278.854	1.27
279.07	-15.91
279.286	-34.18
279.503	-54.18
279.719	-40.39
279.935	-74.91
280.151	-83.58
280.367	-61.25
280.583	-82.82
280.799	-86.43
281.016	-99.34
281.232	-35.87
281.448	-30.82
281.664	-15.57
281.88	-72.71
282.096	-34.7
282.312	-50.73
282.528	-64.48
282.744	-40.13
282.96	-3.03
283.176	-9.15
283.392	-21.84
283.608	-14.92
283.824	-32.6
284.04	-25.65
284.256	-32.36
284.471	-31.46
284.687	-33.1
284.903	-11.29
285.119	16.1
285.335	6.05
285.551	7.44
285.767	-33.96
285.982	-48.73
286.198	-123.11
286.414	-58.34
286.63	-39.55
286.846	12.26
287.061	-3.17
287.277	35.67
287.493	-3.98
287.709	14.89
287.924	-19.47
288.14	11.04
288.356	0.43
288.571	27.75
288.787	10.77
289.003	15.43
289.218	-8.23
289.434	-42.28
289.65	-37.38
289.865	-42.1
290.081	-19.83
290.296	9.11
290.512	17.54
290.727	-18.84
290.943	-25.85
291.159	-29.52
291.374	-45.04
291.59	-58.93
291.805	-48.66
292.021	-31.34
292.236	-42.22
292.451	-19.23
292.667	-12.98
292.882	4.69
293.098	-19.82
293.313	-49.59
293.529	-71.75
293.744	-75.55
293.959	-73.74
294.175	-66.53
294.39	-29.75
294.605	-18.58
294.821	0.05
295.036	-7.33
295.251	7.54
295.467	-24.51
295.682	-36.68
295.897	-93.01
296.112	-97.78
296.328	-103.52
296.543	-99.74
296.758	-86.62
296.973	-33.93
297.188	7.71
297.404	-14.11
297.619	-23.27
297.834	-34.96
298.049	-57.57
298.264	-72.9
298.479	-21
298.694	1.58
298.909	13.6
299.125	17.39
299.34	19.42
299.555	-7.64
299.77	-16.56
299.985	-60.21
300.2	-97.21
300.415	-115.88
300.63	-78.04
300.845	-81.94
301.06	-62.22
301.275	-39.99
301.49	-22.13
301.704	-24.91
301.919	-31.85
302.134	-44.57
302.349	-43.39
302.564	-88.62
302.779	-130.78
302.994	-90.09
303.209	-53.79
303.423	-31.96
303.638	9.73
303.853	-6.67
304.068	-23.46
304.283	-26.06
304.497	-19.31
304.712	-25.71
304.927	-22.66
305.142	-25.68
305.356	-13.72
305.571	-29.72
305.786	-49.63
306	-64.69
306.215	-55.82
306.43	-90.37
306.644	-90.2
306.859	-65.28
307.074	-44.63
307.288	-62.29
307.503	-56.57
307.717	-43.02
307.932	-30.62
308.147	-34.62
308.361	-16.72
308.576	-28.82
308.79	-81.22
309.005	-79.71
309.219	-69.6
309.434	-82.97
309.648	-82.33
309.863	-35.17
310.077	-33.93
310.292	-30.21
310.506	-27.92
310.72	1.97
310.935	-14.07
311.149	-25.42
311.364	-7.53
311.578	8.32
311.792	-14.82
312.007	-0.48
312.221	5.41
312.435	3.38
312.649	-8.1
312.864	11.43
313.078	24.94
313.292	65.56
313.507	32.97
313.721	18.08
313.935	17.81
314.149	-3.56
314.363	-7.93
314.578	-15.62
314.792	-9.67
315.006	-27.29
315.22	-7.96
315.434	-19.55
315.648	3.15
315.862	-7.62
316.077	-3.54
316.291	-27.48
316.505	-16.86
316.719	-31.39
316.933	-30.94
317.147	-49.12
317.361	-91.07
317.575	-113.82
317.789	-154.65
318.003	-239.84
318.217	-167.6
318.431	-67.46
318.645	-22.22
318.859	-9.37
319.073	19.61
319.287	1.39
319.5	-17.85
319.714	-57.34
319.928	-83.8
320.142	-112.24
320.356	-46.86
320.57	-29.27
320.784	-38.42
320.997	-68.3
321.211	-54.34
321.425	-120.81
321.639	-145.16
321.853	-86.19
322.066	-52.93
322.28	-47.33
322.494	-33.4
322.707	-4.88
322.921	-24.9
323.135	-14.72
323.349	4.51
323.562	-9.56
323.776	-33.61
323.989	-27.34
324.203	-58.57
324.417	-81.11
324.63	-112.52
324.844	-112.99
325.057	-96
325.271	-60.62
325.485	-29.75
325.698	2.02
325.912	20.3
326.125	-2
326.339	-22.64
326.552	-45.58
326.766	-42.92
326.979	-33.21
327.193	7.97
327.406	10.63
327.619	-3.43
327.833	8.05
328.046	-13.68
328.26	-44.16
328.473	-28.18
328.686	-40.24
328.9	-61.79
329.113	-43.35
329.326	-81.6
329.54	-51.43
329.753	-61.02
329.966	-72.41
330.179	-77.4
330.393	-35.42
330.606	-30.91
330.819	-5.85
331.032	11.07
331.246	15.1
331.459	38.02
331.672	30.92
331.885	19.41
332.098	-1.91
332.311	-18.18
332.525	-88.53
332.738	-64.44
332.951	-27.82
333.164	3.23
333.377	18.81
333.59	49.94
333.803	37.75
334.016	19.45
334.229	13.97
334.442	32.72
334.655	28.1
334.868	30.91
335.081	18.91
335.294	-3.74
335.507	-40.57
335.72	-31.97
335.933	-47.23
336.146	-39.87
336.359	-38.14
336.572	-60.12
336.785	-99.98
336.997	-81.79
337.21	-58.77
337.423	-48.56
337.636	-28.06
337.849	-13.79
338.062	-26.73
338.274	-32.7
338.487	-52.86
338.7	-68.37
338.913	-119.24
339.125	-141.82
339.338	-200.36
339.551	-164.44
339.763	-100.93
339.976	-43.01
340.189	1.28
340.402	3.5
340.614	-18.25
340.827	-30.3
341.039	-50.42
341.252	-60.07
341.465	-40.08
341.677	-31.84
341.89	-70.19
342.102	-45.61
342.315	-73.61
342.527	-118.39
342.74	-108.36
342.952	-70.07
343.165	-67.7
343.377	-29.1
343.59	-15.25
343.802	8.02
344.015	18.91
344.227	29.6
344.44	11.53
344.652	-1.9
344.864	-18.94
345.077	-3.69
345.289	0.45
345.502	2.57
345.714	2.75
345.926	8.32
346.139	5.04
346.351	9.33
346.563	20.98
346.775	28.14
346.988	5.45
347.2	-19.69
347.412	-72.36
347.624	-95.89
347.837	-120.04
348.049	-79.06
348.261	-30.06
348.473	-25.45
348.685	-33.27
348.897	-32.23
349.11	-50.81
349.322	-117.04
349.534	-76.34
349.746	-45.89
349.958	-26.37
350.17	-33.26
350.382	10.29
350.594	-2.18
350.806	-12.94
351.018	-20.62
351.23	-8.59
351.442	-72.53
351.654	-92.98
351.866	-71.42
352.078	-49.7
352.29	-41.28
352.502	-0.49
352.714	12.22
352.926	-4.3
353.138	-14.12
353.35	-22.83
353.561	-26.64
353.773	-42.61
353.985	-23.22
354.197	-29.34
354.409	-34.5
354.621	-45.06
354.832	-32.35
355.044	-52.41
355.256	-58.45
355.468	-34.81
355.679	-33.84
355.891	-29.48
356.103	-39.48
356.314	-21.28
356.526	-24.58
356.738	-22.32
356.949	-43.04
357.161	-20.01
357.373	-20.23
357.584	-46.59
357.796	-33.38
358.008	-36.22
358.219	-28.61
358.431	-36.35
358.642	-9.11
358.854	-13.19
359.065	-22.89
359.277	-49.36
359.488	-50.04
359.7	-78.21
359.911	-87.92
360.123	-55.17
360.334	-53.39
360.546	-74.05
360.757	-77.6
360.969	-59.37
361.18	-55.58
361.391	-46
361.603	-43.58
361.814	-27.65
362.025	-31.85
362.237	-44.59
362.448	-27.81
362.659	-2.38
362.871	-3.51
363.082	-5.36
363.293	-3.9
363.504	-17.05
363.716	-35.1
363.927	-45.88
364.138	-73.83
364.349	-83.98
364.56	-83.31
364.772	-80.53
364.983	-49.97
365.194	-41.27
365.405	-24.43
365.616	-0.19
365.827	-4.07
366.038	-35.01
366.25	-40.6
366.461	-76.09
366.672	-60.2
366.883	-31.24
367.094	-15.76
367.305	-26.93
367.516	-10.37
367.727	-38.4
367.938	-54.55
368.149	-53.28
368.36	-28.94
368.571	-31.52
368.781	-44.8
368.992	-53.92
369.203	-71.71
369.414	-98.58
369.625	-96.76
369.836	-96.66
370.047	-111.77
370.258	-90.88
370.468	-84.95
370.679	-107.98
370.89	-89.8
371.101	-70.51
371.312	-71.4
371.522	-62.64
371.733	-44.48
371.944	-27
372.155	-16.35
372.365	-30.62
372.576	-38.86
372.787	-37.75
372.997	-73.54
373.208	-73.89
373.419	-30.8
373.629	-49.2
373.84	-55.89
374.05	-56.57
374.261	-44.21
374.472	-73.45
374.682	-16.75
374.893	-15.74
375.103	18.23
375.314	9.35
375.524	8.83
375.735	-0.7
375.945	20.91
376.156	-7.93
376.366	0.05
376.577	-0.75
376.787	-7.85
376.997	-25.62
377.208	-11.5
377.418	-32.04
377.629	-24.43
377.839	-26.97
378.049	-16.72
378.26	-2.14
378.47	5.06
378.68	-3.4
378.89	-5.82
379.101	-14.25
379.311	-55.3
379.521	-78.92
379.732	-83.42
379.942	-76.35
380.152	-95.64
380.362	-47.47
380.572	-38.97
380.783	-24.66
380.993	-17.22
381.203	-5.45
381.413	-1.58
381.623	7.49
381.833	11.59
382.043	-0.9
382.253	-6.74
382.463	-11.23
382.674	-24.26
382.884	-44.1
383.094	-36
383.304	-24.64
383.514	-23.27
383.724	-15.39
383.934	-19.64
384.144	-29.09
384.353	-41.65
384.563	-34.54
384.773	-27.1
384.983	-25.28
385.193	-7.82
385.403	0.34
385.613	-9.61
385.823	-23.62
386.033	-14.54
386.242	-25.05
386.452	-29.19
386.662	-34.45
386.872	-18.61
387.082	-27.5
387.291	-35.71
387.501	-39.03
387.711	-28.85
387.921	-35.36
388.13	-30.29
388.34	-12.39
388.55	-14.99
388.759	-17.61
388.969	-14.35
389.179	-15.42
389.388	-18.65
389.598	-8.59
389.807	-13.66
390.017	-14.37
390.227	-12.77
390.436	-16.17
390.646	-17.89
390.855	-13.83
391.065	-14.83
391.274	-13.68
391.484	-14.55
391.693	-12.95
391.903	-10.04
392.112	-3.69
392.322	-2.28
392.531	3.73
392.74	4.13
392.95	-0.14
393.159	-3.04
393.369	-2.83
393.578	-4.73
393.787	-5.94
393.997	-2.78
394.206	-4.12
394.415	-5.11
394.625	-4.79
394.834	-5.4
395.043	-4.38
395.252	-2.33
395.462	0.09
395.671	0.81
395.88	1.13
396.089	1.38
396.298	0.63
396.508	0.14
396.717	-0.9
396.926	0.02
397.135	-0.88
397.344	-1.21
397.553	-1.13
397.762	0.85
397.971	0.5
398.181	0.86
398.39	1.01
398.599	0.85
398.808	0.34
399.017	1.6
399.226	2.63
399.435	3.64
399.644	3.71
399.853	2.68
400.062	1.77
400.27	1.04
400.479	0.5
400.688	0.22
400.897	0.76
401.106	0.78
401.315	0.78
401.524	0.53
401.733	1.01
401.941	1.3
402.15	1.23
402.359	1.13
402.568	1.6
402.777	1.71
402.985	1.63
403.194	1.66
403.403	1.82
403.612	1.43
403.82	1.09
404.029	1.35
404.238	1.31
404.446	1.43
404.655	1.39
404.864	1.33
405.072	0.88
405.281	1.06
405.489	0.81
405.698	0.81
405.906	0.93
406.115	0.88
406.324	0.84
406.532	1.02
406.741	1.4
406.949	1.4
407.158	1.38
407.366	1.42
407.574	1.35
407.783	1.24
407.991	1.05
408.2	1.4
408.408	1.38
408.617	1.36
408.825	1.17
409.033	1.45
409.242	1.34
409.45	1.54
409.658	1.37
409.867	1.64
410.075	1.34
410.283	1.24
410.491	1.01
410.7	1.15
410.908	1.04
411.116	1.39
411.324	1.45
411.533	1.44
411.741	1.61
411.949	1.58
412.157	1.21
412.365	1.21
412.573	1.15
412.781	1.06
412.99	1.06
413.198	1.34
413.406	1.38
413.614	1.43
413.822	1.31
414.03	1.28
414.238	0.98
414.446	1.04
414.654	0.88
414.862	1.02
415.07	1.07
415.278	1.29
415.486	0.98
415.694	1.16
415.902	1.05
416.109	0.89
416.317	0.96
416.525	0.94
416.733	0.87
416.941	1.07
417.149	1.06
417.357	1.07
417.564	1.27
417.772	1.69
417.98	1.47
418.188	1.58
418.395	1.49
418.603	1.66
418.811	1.08
419.019	1.16
419.226	1.31
419.434	1.53
419.642	1.23
419.849	1.46
420.057	1.55
420.265	1.45
420.472	1.09
420.68	1.14
420.887	1.06
421.095	0.95
421.302	0.96
421.51	1.36
421.717	1.41
421.925	1.45
422.132	1.47
422.34	1.24
422.547	1.16
422.755	1.08
422.962	1.06
423.17	0.91
423.377	1.13
423.585	0.95
423.792	1.01
423.999	1.08
424.207	1.09
424.414	1.05
424.621	1.11
424.829	1
425.036	1.02
425.243	1.18
425.451	0.99
425.658	0.79
425.865	1.11
426.072	1.13
426.28	1.29
426.487	1.33
426.694	1.51
426.901	1.17
427.108	1.13
427.315	0.89
427.523	1.04
427.73	1.04
427.937	1.05
428.144	0.9
428.351	0.93
428.558	1.13
428.765	0.98
428.972	0.97
429.179	1.1
429.386	1.34
429.593	1
429.8	0.87
430.007	0.96
430.214	1.02
430.421	0.67
430.628	0.66
430.835	0.76
431.042	1.05
431.249	0.97
431.456	1.01
431.662	1.13
431.869	1.32
432.076	1.2
432.283	1.34
432.49	1.33
432.697	1.35
432.903	1.03
433.11	0.92
433.317	0.91
433.524	1.1
433.73	1.01
433.937	1.31
434.144	1.24
434.35	1.18
434.557	0.99
434.764	1.01
434.97	0.97
435.177	1.09
435.384	1
435.59	1.13
435.797	1.27
436.003	1.26
436.21	1.27
436.416	1.4
436.623	1.4
436.829	1.38
437.036	1.5
437.242	1.47
437.449	1.22
437.655	1.26
437.862	1.3
438.068	1.16
438.275	1.21
438.481	1.48
438.687	1.42
438.894	1.31
439.1	1.42
439.307	1.65
439.513	1.55
439.719	1.57
439.926	1.74
440.132	1.61
440.338	1.36
440.544	1.49
440.751	1.48
440.957	1.43
441.163	1.37
441.369	1.51
441.575	1.26
441.782	1.19
441.988	1.08
442.194	1.11
442.4	1.03
442.606	1.4
442.812	1.45
443.018	1.54
443.224	1.61
443.431	1.7
443.637	1.42
443.843	1.4
444.049	1.4
444.255	1.39
444.461	1.36
444.667	1.38
444.873	1.43
445.079	1.4
445.284	1.44
445.49	1.23
445.696	1.07
445.902	1.02
446.108	0.96
446.314	0.9
446.52	0.98
446.726	1.27
446.931	1.24
447.137	1.32
447.343	1.41
447.549	1.36
447.755	1.18
447.96	1.31
448.166	1.19
448.372	1.1
448.578	1.18
448.783	1.22
448.989	1.25
449.195	1.4
449.4	1.34
449.606	1.29
449.812	1.25
450.017	1.23
450.223	1.14
450.428	1.1
450.634	1.29
450.84	1.45
451.045	1.36
451.251	1.32
451.456	1.64
451.662	1.61
451.867	1.56
452.073	1.55
452.278	1.67
452.483	1.63
452.689	1.49
452.894	1.49
453.1	1.53
453.305	1.46
453.51	1.4
453.716	1.38
453.921	1.43
454.127	1.37
454.332	1.37
454.537	1.21
454.742	1.26
454.948	1.15
455.153	1.19
455.358	1.25
455.563	1.49
455.769	1.58
455.974	1.6
456.179	1.49
456.384	1.47
456.589	1.39
456.795	1.2
457	1.14
457.205	1.45
457.41	1.4
457.615	1.35
457.82	1.47
458.025	1.54
458.23	1.34
458.435	1.38
458.64	1.33
458.845	1.49
459.05	1.47
459.255	1.42
459.46	1.39
459.665	1.38
459.87	1.27
460.075	1.3
460.28	1.36
460.485	1.49
460.69	1.61
460.895	1.49
461.099	1.38
461.304	1.47
461.509	1.46
461.714	1.3
461.919	1.48
462.123	1.47
462.328	1.47
462.533	1.3
462.738	1.43
462.942	1.36
463.147	1.47
463.352	1.46
463.556	1.51
463.761	1.48
463.966	1.49
464.17	1.42
464.375	1.35
464.58	1.33
464.784	1.33
464.989	1.27
465.193	1.27
465.398	1.33
465.602	1.45
465.807	1.38
466.011	1.45
466.216	1.54
466.42	1.46
466.625	1.48
466.829	1.64
467.034	1.69
467.238	1.76
467.443	1.84
467.647	1.66
467.851	1.64
468.056	1.72
468.26	1.62
468.464	1.58
468.669	1.76
468.873	1.86
469.077	1.75
469.282	1.84
469.486	1.91
469.69	1.83
469.894	1.66
470.099	1.67
470.303	1.71
470.507	1.64
470.711	1.58
470.915	1.58
471.119	1.47
471.324	1.38
471.528	1.42
471.732	1.5
471.936	1.49
472.14	1.57
472.344	1.61
472.548	1.53
472.752	1.68
472.956	1.89
473.16	1.85
473.364	1.72
473.568	1.77
473.772	1.76
473.976	1.66
474.18	1.7
474.384	1.86
474.588	1.85
474.792	1.66
474.995	1.68
475.199	1.73
475.403	1.77
475.607	1.75
475.811	1.77
476.015	1.83
476.218	1.9
476.422	1.73
476.626	1.83
476.83	1.95
477.033	1.77
477.237	1.63
477.441	1.75
477.644	1.68
477.848	1.58
478.052	1.59
478.255	1.65
478.459	1.65
478.663	1.79
478.866	1.86
479.07	1.91
479.273	2.07
479.477	2.13
479.681	2.1
479.884	2.07
480.088	2.05
480.291	1.9
480.495	1.86
480.698	1.82
480.901	1.89
481.105	2.01
481.308	2
481.512	1.93
481.715	1.96
481.919	2.02
482.122	1.96
482.325	2
482.529	2.06
482.732	2.12
482.935	2.03
483.138	1.92
483.342	2.01
483.545	2.1
483.748	2.02
483.952	2.06
484.155	2.25
484.358	2.21
484.561	2.12
484.764	2.07
484.967	2.15
485.171	2.21
485.374	2.16
485.577	2.26
485.78	2.32
485.983	2.27
486.186	2.08
486.389	2.05
486.592	2.04
486.795	2.09
486.998	2.08
487.201	2.19
487.404	2.3
487.607	2.3
487.81	2.28
488.013	2.32
488.216	2.3
488.419	2.26
488.622	2.25
488.825	2.18
489.028	2.12
489.231	2.08
489.433	2.02
489.636	1.96
489.839	1.98
490.042	1.88
490.245	1.89
490.447	1.96
490.65	1.96
490.853	2
491.056	2.08
491.258	2.1
491.461	2.11
491.664	2.16
491.866	2.13
492.069	2.2
492.272	2.18
492.474	2.2
492.677	2.2
492.879	2.29
493.082	2.31
493.285	2.45
493.487	2.43
493.69	2.34
493.892	2.26
494.095	2.21
494.297	2.08
494.5	2.09
494.702	2.16
494.905	2.2
495.107	2.18
495.309	2.19
495.512	2.23
495.714	2.27
495.917	2.26
496.119	2.29
496.321	2.38
496.524	2.35
496.726	2.34
496.928	2.39
497.13	2.41
497.333	2.37
497.535	2.39
497.737	2.39
497.939	2.38
498.142	2.4
498.344	2.33
498.546	2.27
498.748	2.32
498.95	2.45
499.152	2.39
499.355	2.47
499.557	2.53
499.759	2.56
499.961	2.44
500.163	2.5
500.365	2.49
500.567	2.62
500.769	2.57
500.971	2.55
501.173	2.42
501.375	2.48
501.577	2.34
501.779	2.34
501.981	2.34
502.183	2.42
502.385	2.35
502.587	2.28
502.788	2.32
502.99	2.36
503.192	2.41
503.394	2.41
503.596	2.51
503.798	2.55
503.999	2.52
504.201	2.49
504.403	2.57
504.605	2.6
504.806	2.53
505.008	2.58
505.21	2.68
505.411	2.65
505.613	2.64
505.815	2.66
506.016	2.71
506.218	2.71
506.42	2.71
506.621	2.71
506.823	2.73
507.024	2.62
507.226	2.59
507.427	2.6
507.629	2.62
507.83	2.67
508.032	2.74
508.233	2.8
508.435	2.87
508.636	2.93
508.838	2.9
509.039	2.88
509.24	2.87
509.442	2.86
509.643	2.76
509.845	2.75
510.046	2.83
510.247	2.8
510.448	2.77
510.65	2.84
510.851	2.96
511.052	2.93
511.254	2.94
511.455	3.07
511.656	3.12
511.857	3.14
512.058	3.14
512.26	3.14
512.461	3.04
512.662	3.03
512.863	2.92
513.064	2.94
513.265	2.94
513.466	3.04
513.667	2.98
513.868	3.04
514.069	3.13
514.27	3.18
514.471	3.11
514.672	3.17
514.873	3.14
515.074	3.16
515.275	3.04
515.476	3.11
515.677	3.14
515.878	3.23
516.079	3.14
516.28	3.22
516.481	3.27
516.682	3.26
516.882	3.18
517.083	3.21
517.284	3.19
517.485	3.11
517.686	3.09
517.886	3.1
518.087	3.13
518.288	3.17
518.488	3.18
518.689	3.19
518.89	3.13
519.091	3.15
519.291	3.15
519.492	3.16
519.692	3.18
519.893	3.3
520.094	3.27
520.294	3.28
520.495	3.25
520.695	3.33
520.896	3.31
521.096	3.37
521.297	3.42
521.497	3.43
521.698	3.34
521.898	3.34
522.099	3.31
522.299	3.37
522.499	3.39
522.7	3.43
522.9	3.4
523.101	3.47
523.301	3.42
523.501	3.45
523.702	3.48
523.902	3.56
524.102	3.59
524.302	3.56
524.503	3.59
524.703	3.56
524.903	3.55
525.103	3.49
525.304	3.61
525.504	3.66
525.704	3.76
525.904	3.74
526.104	3.73
526.304	3.7
526.504	3.69
526.705	3.67
526.905	3.74
527.105	3.74
527.305	3.68
527.505	3.6
527.705	3.54
527.905	3.56
528.105	3.57
528.305	3.56
528.505	3.64
528.705	3.71
528.905	3.67
529.105	3.71
529.304	3.81
529.504	3.87
529.704	3.83
529.904	3.85
530.104	3.88
530.304	3.87
530.503	3.8
530.703	3.78
530.903	3.78
531.103	3.82
531.303	3.78
531.502	3.83
531.702	3.96
531.902	3.95
532.101	3.89
532.301	3.93
532.501	3.9
532.7	3.8
532.9	3.83
533.1	3.91
533.299	3.93
533.499	3.98
533.698	4.02
533.898	4.03
534.097	4.02
534.297	4.09
534.496	4.11
534.696	4.13
534.895	4.21
535.095	4.27
535.294	4.22
535.494	4.17
535.693	4.18
535.892	4.16
536.092	4.07
536.291	4.06
536.491	4.16
536.69	4.23
536.889	4.2
537.088	4.2
537.288	4.26
537.487	4.29
537.686	4.22
537.886	4.28
538.085	4.35
538.284	4.48
538.483	4.42
538.682	4.52
538.882	4.54
539.081	4.56
539.28	4.41
539.479	4.45
539.678	4.35
539.877	4.44
540.076	4.44
540.275	4.5
540.474	4.56
540.673	4.66
540.872	4.59
541.071	4.65
541.27	4.68
541.469	4.73
541.668	4.77
541.867	4.78
542.066	4.78
542.265	4.86
542.464	4.79
542.663	4.8
542.862	4.89
543.06	4.92
543.259	4.98
543.458	5.07
543.657	5.13
543.856	5.18
544.054	5.16
544.253	5.14
544.452	5.05
544.651	5.1
544.849	5.12
545.048	5.15
545.247	5.19
545.445	5.29
545.644	5.25
545.843	5.2
546.041	5.24
546.24	5.32
546.438	5.43
546.637	5.51
546.836	5.67
547.034	5.72
547.233	5.72
547.431	5.65
547.63	5.7
547.828	5.69
548.027	5.73
548.225	5.76
548.423	5.83
548.622	5.89
548.82	5.86
549.019	5.91
549.217	5.98
549.415	6.03
549.614	6.06
549.812	6.09
550.01	6.07
550.209	6.1
550.407	6.13
550.605	6.12
550.803	6.26
551.002	6.37
551.2	6.39
551.398	6.46
551.596	6.6
551.794	6.67
551.993	6.73
552.191	6.81
552.389	6.94
552.587	6.99
552.785	7
552.983	7.05
553.181	7.12
553.379	7.14
553.577	7.14
553.775	7.24
553.973	7.34
554.171	7.43
554.369	7.4
554.567	7.44
554.765	7.45
554.963	7.51
555.161	7.45
555.359	7.55
555.557	7.71
555.755	7.79
555.952	7.86
556.15	7.99
556.348	8.13
556.546	8.13
556.744	8.19
556.941	8.21
557.139	8.31
557.337	8.3
557.535	8.33
557.732	8.39
557.93	8.54
558.128	8.58
558.325	8.71
558.523	8.76
558.721	8.85
558.918	8.81
559.116	8.89
559.313	8.9
559.511	9.03
559.708	9.05
559.906	9.09
560.104	9.15
560.301	9.26
560.498	9.33
560.696	9.38
560.893	9.54
561.091	9.62
561.288	9.68
561.486	9.72
561.683	9.82
561.88	9.9
562.078	10.01
562.275	10.01
562.473	10.11
562.67	10.28
562.867	10.32
563.064	10.42
563.262	10.53
563.459	10.64
563.656	10.7
563.853	10.75
564.051	10.79
564.248	10.9
564.445	10.97
564.642	10.99
564.839	11.14
565.036	11.3
565.234	11.41
565.431	11.41
565.628	11.52
565.825	11.63
566.022	11.65
566.219	11.67
566.416	11.81
566.613	11.88
566.81	11.94
567.007	11.89
567.204	11.95
567.401	11.94
567.598	11.96
567.795	11.96
567.991	12.06
568.188	12.11
568.385	12.22
568.582	12.37
568.779	12.43
568.976	12.53
569.172	12.7
569.369	12.73
569.566	12.69
569.763	12.77
569.96	12.79
570.156	12.73
570.353	12.79
570.55	12.82
570.746	12.88
570.943	12.91
571.14	12.95
571.336	12.99
571.533	13.06
571.729	13.04
571.926	13.06
572.123	13.13
572.319	13.16
572.516	13.18
572.712	13.22
572.909	13.27
573.105	13.33
573.302	13.32
573.498	13.37
573.695	13.33
573.891	13.37
574.087	13.39
574.284	13.44
574.48	13.4
574.677	13.45
574.873	13.48
575.069	13.52
575.266	13.53
575.462	13.51
575.658	13.56
575.854	13.65
576.051	13.61
576.247	13.55
576.443	13.58
576.639	13.56
576.835	13.36
577.032	13.3
577.228	13.42
577.424	13.47
577.62	13.48
577.816	13.54
578.012	13.56
578.208	13.42
578.404	13.4
578.6	13.35
578.796	13.38
578.993	13.39
579.189	13.4
579.384	13.28
579.58	13.26
579.776	13.19
579.972	13.14
580.168	13.05
580.364	13.17
580.56	13.12
580.756	13.09
580.952	13.07
581.148	13.05
581.343	13.06
581.539	13.14
581.735	13.21
581.931	13.29
582.127	13.46
582.322	13.39
582.518	13.43
582.714	13.36
582.909	13.36
583.105	13.28
583.301	13.21
583.496	13.2
583.692	13.17
583.888	13.11
584.083	13.13
584.279	13.16
584.474	13.11
584.67	13.18
584.866	13.15
585.061	13.06
585.257	13.09
585.452	13.06
585.648	12.95
585.843	12.95
586.039	13.04
586.234	13.01
586.429	12.98
586.625	13.1
586.82	13.09
587.015	13
587.211	12.88
587.406	12.95
587.601	12.88
587.797	12.81
587.992	12.79
588.187	12.93
588.383	12.9
588.578	12.89
588.773	12.96
588.968	13
589.163	12.97
589.359	12.92
589.554	12.89
589.749	12.9
589.944	13.01
590.139	13.03
590.334	13.01
590.529	13.05
590.724	13.1
590.919	13.05
591.114	13.09
591.309	13.23
591.504	13.28
591.699	13.22
591.894	13.24
592.089	13.2
592.284	13.16
592.479	13.21
592.674	13.26
592.869	13.3
593.064	13.46
593.259	13.57
593.454	13.61
593.648	13.62
593.843	13.63
594.038	13.55
594.233	13.45
594.428	13.47
594.622	13.49
594.817	13.59
595.012	13.66
595.206	13.72
595.401	13.79
595.596	13.92
595.79	14
595.985	14.14
596.18	14.27
596.374	14.31
596.569	14.34
596.763	14.33
596.958	14.33
597.153	14.41
597.347	14.45
597.542	14.6
597.736	14.64
597.931	14.64
598.125	14.64
598.319	14.83
598.514	14.73
598.708	14.84
598.903	14.89
599.097	14.92
599.291	14.81
599.486	14.84
599.68	14.82
599.874	14.93
600.069	14.95
600.263	15.05
600.457	15.13
600.651	15.16
600.846	15.19
601.04	15.26
601.234	15.26
601.428	15.33
601.622	15.39
601.817	15.42
602.011	15.4
602.205	15.45
602.399	15.44
602.593	15.42
602.787	15.46
602.981	15.47
603.175	15.47
603.369	15.4
603.563	15.46
603.757	15.44
603.951	15.49
604.145	15.51
604.339	15.63
604.533	15.51
604.727	15.47
604.921	15.42
605.115	15.45
605.309	15.47
605.502	15.5
605.696	15.49
605.89	15.46
606.084	15.41
606.278	15.28
606.471	15.23
606.665	15.14
606.859	15.08
607.053	15.04
607.246	15.01
607.44	14.95
607.634	14.89
607.827	14.85
608.021	14.77
608.214	14.77
608.408	14.78
608.602	14.77
608.795	14.66
608.989	14.57
609.182	14.51
609.376	14.42
609.569	14.32
609.763	14.26
609.956	14.14
610.15	13.99
610.343	13.96
610.537	13.84
610.73	13.89
610.923	13.92
611.117	13.92
611.31	13.84
611.504	13.88
611.697	13.79
611.89	13.71
612.083	13.61
612.277	13.61
612.47	13.59
612.663	13.48
612.856	13.42
613.05	13.36
613.243	13.24
613.436	13.16
613.629	13.12
613.822	13
614.015	12.92
614.209	12.75
614.402	12.69
614.595	12.64
614.788	12.62
614.981	12.53
615.174	12.5
615.367	12.38
615.56	12.25
615.753	12.19
615.946	12.17
616.139	12.23
616.332	12.3
616.525	12.31
616.718	12.32
616.911	12.33
617.103	12.23
617.296	12.17
617.489	12.14
617.682	12.07
617.875	12.05
618.067	11.95
618.26	11.83
618.453	11.85
618.646	11.83
618.838	11.78
619.031	11.91
619.224	11.96
619.417	11.89
619.609	11.88
619.802	11.79
619.994	11.7
620.187	11.65
620.38	11.53
620.572	11.46
620.765	11.47
620.957	11.39
621.15	11.27
621.342	11.27
621.535	11.33
621.727	11.29
621.92	11.28
622.112	11.27
622.305	11.33
622.497	11.15
622.69	11.19
622.882	11.22
623.074	11.27
623.267	11.2
623.459	11.23
623.651	11.13
623.844	11.13
624.036	11.17
624.228	11.14
624.42	11.14
624.613	11.15
624.805	11.1
624.997	10.99
625.189	10.98
625.381	11.03
625.574	11.04
625.766	10.91
625.958	10.9
626.15	10.92
626.342	10.8
626.534	10.74
626.726	10.74
626.918	10.75
627.11	10.67
627.302	10.74
627.494	10.62
627.686	10.7
627.878	10.69
628.07	10.65
628.262	10.6
628.454	10.74
628.646	10.71
628.838	10.68
629.029	10.65
629.221	10.66
629.413	10.47
629.605	10.32
629.797	10.25
629.989	10.3
630.18	10.25
630.372	10.27
630.564	10.35
630.755	10.38
630.947	10.39
631.139	10.27
631.33	10.22
631.522	10.27
631.714	10.23
631.905	10.19
632.097	10.21
632.289	10.3
632.48	10.19
632.672	10.13
632.863	9.95
633.055	9.98
633.246	9.92
633.438	9.9
633.629	9.87
633.821	9.96
634.012	9.89
634.203	9.81
634.395	9.82
634.586	9.85
634.777	9.78
634.969	9.74
635.16	9.76
635.351	9.69
635.543	9.61
635.734	9.65
635.925	9.66
636.117	9.63
636.308	9.65
636.499	9.72
636.69	9.55
636.881	9.56
637.073	9.67
637.264	9.64
637.455	9.6
637.646	9.77
637.837	9.8
638.028	9.66
638.219	9.74
638.41	9.69
638.601	9.62
638.792	9.58
638.983	9.57
639.174	9.54
639.365	9.54
639.556	9.46
639.747	9.46
639.938	9.5
640.129	9.41
640.32	9.32
640.511	9.41
640.701	9.45
640.892	9.3
641.083	9.38
641.274	9.43
641.465	9.39
641.655	9.29
641.846	9.38
642.037	9.22
642.228	9.2
642.418	9.24
642.609	9.25
642.8	9.25
642.99	9.26
643.181	9.32
643.372	9.31
643.562	9.3
643.753	9.23
643.943	9.19
644.134	9.07
644.324	8.95
644.515	8.92
644.705	8.94
644.896	9.03
645.086	9.06
645.277	9.02
645.467	9.04
645.658	9.05
645.848	9.02
646.038	8.99
646.229	8.97
646.419	8.87
646.61	8.83
646.8	8.73
646.99	8.68
647.18	8.68
647.371	8.65
647.561	8.56
647.751	8.57
647.941	8.56
648.132	8.58
648.322	8.58
648.512	8.68
648.702	8.7
648.892	8.62
649.082	8.61
649.272	8.56
649.462	8.41
649.653	8.36
649.843	8.38
650.033	8.38
650.223	8.37
650.413	8.33
650.603	8.38
650.793	8.38
650.983	8.27
651.172	8.28
651.362	8.36
651.552	8.26
651.742	8.16
651.932	8.2
652.122	8.18
652.312	8.27
652.502	8.28
652.691	8.31
652.881	8.24
653.071	8.2
653.261	8
653.45	7.82
653.64	7.89
653.83	7.79
654.019	7.75
654.209	7.71
654.399	7.79
654.588	7.6
654.778	7.54
654.968	7.45
655.157	7.39
655.347	7.19
655.536	7.15
655.726	7.09
655.915	6.96
656.105	6.89
656.294	6.85
656.484	6.71
656.673	6.62
656.863	6.58
657.052	6.41
657.241	6.3
657.431	6.11
657.62	5.99
657.809	5.75
657.999	5.66
658.188	5.58
658.377	5.57
658.567	5.49
658.756	5.47
658.945	5.35
659.134	5.2
659.324	5.15
659.513	5.06
659.702	4.95
659.891	4.91
660.08	4.85
660.269	4.78
660.458	4.64
660.648	4.56
660.837	4.5
661.026	4.56
661.215	4.36
661.404	4.22
661.593	4.27
661.782	4.06
661.971	3.92
662.16	3.87
662.349	3.9
662.538	3.68
662.726	3.73
662.915	3.62
663.104	3.53
663.293	3.48
663.482	3.59
663.671	3.5
663.86	3.41
664.048	3.43
664.237	3.47
664.426	3.26
664.615	3.3
664.803	3.28
664.992	3.09
665.181	2.93
665.369	2.89
665.558	2.79
665.747	2.74
665.935	2.89
666.124	2.97
666.312	3
666.501	2.99
666.69	2.97
666.878	2.87
667.067	2.78
667.255	2.84
667.444	3.1
667.632	3.17
667.82	3.29
668.009	3.27
668.197	3.19
668.386	2.97
668.574	2.99
668.762	2.88
668.951	2.8
669.139	2.77
669.327	2.66
669.516	2.7
669.704	2.67
669.892	2.82
670.08	2.89
670.269	2.86
670.457	2.68
670.645	2.51
670.833	2.58
671.021	2.52
671.21	2.6
671.398	2.83
671.586	2.89
671.774	2.75
671.962	2.82
672.15	2.78
672.338	2.61
672.526	2.73
672.714	2.59
672.902	2.66
673.09	2.84
673.278	3.02
673.466	3.07
673.654	3.38
673.842	3.33
674.03	3.28
674.218	3.15
674.405	3.12
674.593	3.01
674.781	3.12
674.969	3.16
675.157	3.31
675.344	3.38
675.532	3.48
675.72	3.49
675.908	3.46
676.095	3.29
676.283	3.37
676.471	3.52
676.658	3.48
676.846	3.6
677.033	3.75
677.221	3.73
677.409	3.56
677.596	3.66
677.784	3.5
677.971	3.6
678.159	3.51
678.346	3.54
678.534	3.55
678.721	3.84
678.909	3.76
679.096	3.93
679.283	4.16
679.471	4.29
679.658	4.26
679.846	4.45
680.033	4.67
680.22	4.63
680.408	4.54
680.595	4.59
680.782	4.46
680.969	4.37
681.157	4.42
681.344	4.54
681.531	4.48
681.718	4.54
681.905	4.74
682.093	4.85
682.28	4.96
682.467	5.25
682.654	5.4
682.841	5.43
683.028	5.54
683.215	5.65
683.402	5.5
683.589	5.68
683.776	5.77
683.963	5.74
684.15	5.86
684.337	6.17
684.524	6.34
684.711	6.47
684.898	6.55
685.085	6.56
685.271	6.76
685.458	6.77
685.645	6.96
685.832	7.35
686.019	7.62
686.205	7.69
686.392	7.95
686.579	8.15
686.766	8.38
686.952	8.66
687.139	8.98
687.326	9.12
687.512	9.23
687.699	9.38
687.886	9.34
688.072	9.48
688.259	9.8
688.445	10.11
688.632	10.25
688.818	10.97
689.005	11.38
689.191	11.72
689.378	12.39
689.564	12.93
689.751	13.19
689.937	13.55
690.124	14.11
690.31	14.25
690.496	14.61
690.683	15.04
690.869	15.38
691.055	15.67
691.242	16.2
691.428	16.76
691.614	17.2
691.8	17.82
691.987	18.44
692.173	19.03
692.359	19.63
692.545	20.32
692.731	20.92
692.918	21.56
693.104	21.91
693.29	22.4
693.476	22.89
693.662	23.4
693.848	23.78
694.034	24.42
694.22	24.95
694.406	25.65
694.592	26.29
694.778	27.01
694.964	27.64
695.15	28.31
695.336	28.75
695.522	29.83
695.708	30.62
695.894	31.41
696.08	32.16
696.265	33.07
696.451	33.21
696.637	33.86
696.823	34.35
697.009	34.88
697.194	35.39
697.38	35.85
697.566	36.41
697.751	37.15
697.937	38.04
698.123	38.75
698.308	39.74
698.494	40.27
698.68	40.69
698.865	41.22
699.051	41.88
699.236	42.29
699.422	43.05
699.607	43.6
699.793	44.01
699.978	44.43
700.164	45.03
700.349	45.84
700.535	46.45
700.72	47.06
700.906	47.85
701.091	48.43
701.276	48.46
701.462	49.51
701.647	50.43
701.832	50.97
702.018	51.49
702.203	52.09
702.388	52.17
702.573	52.21
702.759	52.64
702.944	52.85
703.129	53.29
703.314	53.96
703.499	54.36
703.684	54.73
703.87	55.95
704.055	56.61
704.24	56.84
704.425	57.61
704.61	58.22
704.795	58.23
704.98	58.61
705.165	58.75
705.35	59.08
705.535	59.22
705.72	59.51
705.905	59.9
706.09	60.65
706.275	60.85
706.459	60.91
706.644	60.82
706.829	61.01
707.014	61.27
707.199	61.64
707.384	62.44
707.568	62.97
707.753	63.59
707.938	64.03
708.123	64.31
708.307	64.38
708.492	64.64
708.677	64.91
708.861	64.87
709.046	64.85
709.231	65.61
709.415	66.28
709.6	66.07
709.784	66.29
709.969	66.73
710.153	66.19
710.338	66.09
710.522	66.42
710.707	67.06
710.891	67.16
711.076	67.64
711.26	68.04
711.445	68.09
711.629	68.04
711.813	68.37
711.998	68.78
712.182	68.71
712.366	69.42
712.551	70.04
712.735	69.96
712.919	69.9
713.103	70.35
713.288	70.07
713.472	69.59
713.656	70.5
713.84	70.97
714.024	71.07
714.208	71.38
714.393	71.94
714.577	71.72
714.761	71.44
714.945	71.66
715.129	71.75
715.313	71.85
715.497	71.69
715.681	72.61
715.865	72.56
716.049	72.76
716.233	72.83
716.417	73.16
716.601	72.5
716.785	72.69
716.968	72.89
717.152	73.1
717.336	73.46
717.52	73.52
717.704	73.68
717.888	74.08
718.071	73.96
718.255	73.83
718.439	73.83
718.622	74
718.806	73.87
718.99	73.78
719.174	73.96
719.357	74.27
719.541	74.51
719.724	74.69
719.908	75.43
720.092	75.51
720.275	76.05
720.459	75.44
720.642	74.96
720.826	74.57
721.009	74.38
721.193	73.37
721.376	73.79
721.559	74.07
721.743	74.5
721.926	75.12
722.11	75.99
722.293	75.94
722.476	75.82
722.66	75.73
722.843	75.46
723.026	74.99
723.21	75.61
723.393	76.42
723.576	76.38
723.759	76.01
723.942	76.2
724.126	75.81
724.309	75.67
724.492	75.66
724.675	76.18
724.858	76.69
725.041	77.02
725.224	77.11
725.407	77.2
725.59	77.32
725.774	77.06
725.957	76.3
726.14	76.11
726.322	76.35
726.505	76.24
726.688	77.36
726.871	77.45
727.054	77.86
727.237	77.8
727.42	78.09
727.603	77.7
727.786	78.47
727.968	78.29
728.151	78.11
728.334	78.07
728.517	77.69
728.699	77.94
728.882	77.64
729.065	78.26
729.248	78.46
729.43	78.76
729.613	79.5
729.796	80.55
729.978	79.85
730.161	79.94
730.343	79.5
730.526	79.27
730.708	78.08
730.891	79.04
731.073	78.35
731.256	78.66
731.438	78.56
731.621	79.65
731.803	79.4
731.986	79.78
732.168	79.76
732.35	79.48
732.533	79.39
732.715	79.25
732.898	80.26
733.08	80.34
733.262	81.26
733.444	81.17
733.627	81.04
733.809	80.71
733.991	81.56
734.173	80.38
734.355	80.27
734.538	80.91
734.72	80.74
734.902	79.97
735.084	81.06
735.266	81
735.448	80.93
735.63	81.02
735.812	81.73
735.994	81.8
736.176	81.74
736.358	81.78
736.54	82.69
736.722	81.79
736.904	81.06
737.086	81.6
737.268	82.82
737.45	82.58
737.632	82.89
737.814	82.69
737.995	82.8
738.177	81.7
738.359	80.6
738.541	81.67
738.723	82.37
738.904	82.84
739.086	83.35
739.268	83.49
739.449	83.52
739.631	83.19
739.813	83.07
739.994	83.1
740.176	83.55
740.358	82.21
740.539	83.05
740.721	82.82
740.902	83.39
741.084	83.75
741.265	84.5
741.447	84.02
741.628	84.32
741.81	82.94
741.991	83.49
742.172	84
742.354	85.07
742.535	84.98
742.717	85.22
742.898	85.53
743.079	85.63
743.261	84.34
743.442	83.71
743.623	84.59
743.804	84.34
743.986	84.84
744.167	83.94
744.348	83.83
744.529	83.75
744.71	82.21
744.891	80.91
745.073	81.03
745.254	81.09
745.435	80.66
745.616	80.72
745.797	80.83
745.978	81.4
746.159	81.95
746.34	80.83
746.521	83.01
746.702	82.26
746.883	81.86
747.064	81.93
747.245	82.71
747.426	80.22
747.606	80.64
747.787	82.29
747.968	82.25
748.149	82.99
748.33	84.2
748.51	83.83
748.691	82.54
748.872	82.14
749.053	81.44
749.233	80.55
749.414	81.1
749.595	80.08
749.775	79.36
749.956	78.12
750.137	78.9
750.317	79.45
750.498	81.53
750.678	82.8
750.859	84.69
751.04	85.12
751.22	83.97
751.4	82.56
751.581	81.31
751.761	80.99
751.942	81
752.122	80.53
752.303	81.15
752.483	81.51
752.663	80.9
752.844	79.39
753.024	81.98
753.204	81.42
753.385	81.29
753.565	81.39
753.745	82.08
753.925	80.1
754.106	80.23
754.286	80.49
754.466	80.73
754.646	81.86
754.826	81.29
755.006	81.01
755.187	82.06
755.367	81.79
755.547	81.04
755.727	82.93
755.907	83.29
756.087	82.5
756.267	82.84
756.447	82.66
756.627	81.15
756.807	81.91
756.987	80.39
757.167	80.42
757.346	80.54
757.526	80.42
757.706	79.89
757.886	81.87
758.066	82.46
758.246	83.67
758.425	83.15
758.605	82.75
758.785	81.16
758.965	81.37
759.144	77.97
759.324	79.26
759.504	79.06
759.683	79.72
759.863	76.78
760.043	77.59
760.222	76.95
760.402	77.11
760.581	76.01
760.761	79.1
760.94	78.02
761.12	80.56
761.299	80.49
761.479	81.67
761.658	79.8
761.838	80.49
762.017	78.32
762.197	78.32
762.376	79.17
762.555	81.05
762.735	83.38
762.914	81.56
763.093	81.89
763.273	80.32
763.452	79.93
763.631	78.41
763.81	78.84
763.99	78.13
764.169	78.72
764.348	76.43
764.527	74.66
764.706	77.08
764.885	79.24
765.064	76.35
765.243	76.96
765.423	78.68
765.602	76.6
765.781	73.28
765.96	74.57
766.139	74.31
766.318	75.66
766.497	76.06
766.676	75.59
766.854	77.58
767.033	77.53
767.212	75.15
767.391	74.58
767.57	76.92
767.749	77.1
767.928	79.59
768.106	79.77
768.285	77.86
768.464	77.54
768.643	74.94
768.821	72.79
769	74.25
769.179	75.1
769.357	73.04
769.536	73.79
769.715	72.62
769.893	72.92
770.072	73.23
770.25	74.59
770.429	75.19
770.607	76.03
770.786	75.01
770.964	76.01
771.143	75.31
771.321	76.12
771.5	76.82
771.678	76.85
771.857	74.87
772.035	73.97
772.213	72.72
772.392	69.92
772.57	71.44
772.748	73.85
772.927	74.31
773.105	73.26
773.283	76.33
773.461	75.17
773.64	74.52
773.818	74.84
773.996	76.32
774.174	73.43
774.352	70.93
774.531	69.61
774.709	71.58
774.887	70.47
775.065	71.03
775.243	73.1
775.421	74.07
775.599	74.26
775.777	72.7
775.955	71.07
776.133	70.17
776.311	70.21
776.489	67.37
776.667	68.83
776.844	70.71
777.022	70.21
777.2	68.43
777.378	68.51
777.556	71.05
777.734	72.38
777.911	75.09
778.089	75.21
778.267	76.02
778.445	72.59
778.622	72.59
778.8	70.68
778.978	73.05
779.155	70.08
779.333	69.05
779.511	68.3
779.688	71.11
779.866	67.41
780.043	67.96
780.221	69.87
780.398	68.41
780.576	68.17
780.753	69.81
780.931	68.6
781.108	68.18
781.286	69.76
781.463	64.73
781.64	61.94
781.818	66.49
781.995	68.54
782.172	66.56
782.35	70.18
782.527	75.41
782.704	74.23
782.882	72.18
783.059	70.84
783.236	70.06
783.413	67.42
783.59	67.63
783.768	65.58
783.945	69.74
784.122	68.63
784.299	69.77
784.476	67.42
784.653	67.65
784.83	64.57
785.007	61.28
785.184	60.79
785.361	61
785.538	62.92
785.715	65.52
785.892	67.4
786.069	71.5
786.246	73.86
786.423	74.26
786.6	73.27
786.776	75.8
786.953	69.27
787.13	69.67
787.307	67.67
787.484	65.08
787.66	60.68
787.837	62.65
788.014	59.78
788.191	60.59
788.367	60.83
788.544	66.39
788.721	67.26
788.897	69.45
789.074	69.95
789.25	69.87
789.427	67.8
789.603	66.95
789.78	67.95
789.956	64.79
790.133	62.76
790.309	65.93
790.486	69.33
790.662	66.96
790.839	67.85
791.015	72.11
791.192	70.5
791.368	68.8
791.544	67.73
791.721	67.26
791.897	67.07
792.073	62.22
792.249	54.74
792.426	56.9
792.602	61.37
792.778	58.69
792.954	57.12
793.13	60.07
793.307	51.22
793.483	45
793.659	46.76
793.835	49.63
794.011	49.08
794.187	52.18
794.363	52.18
794.539	57.18
794.715	54.32
794.891	57.62
795.067	61.41
795.243	65.44
795.419	58.54
795.595	56.83
795.771	54.24
795.947	54.56
796.122	54.25
796.298	59.97
796.474	65.8
796.65	63.36
796.826	62.19
797.001	63.25
797.177	56.64
797.353	58.45
797.529	64.41
797.704	62.43
797.88	54.76
798.056	49.68
798.231	44.64
798.407	49.3
798.582	49.65
798.758	60.3
798.934	74.51
799.109	72.54
799.285	64.89
799.46	70.72
799.636	69.36
799.811	64.32
799.986	64.67
800.162	68.97
800.337	67.85
800.513	57.55
800.688	55.88
800.863	67.46
801.039	56.69
801.214	51.2
801.389	60.6
801.565	57.17
801.74	39.05
801.915	53.46
802.09	54.47
802.265	60.6
802.441	58.99
802.616	67.01
802.791	62.08
802.966	60.6
803.141	49.14
803.316	46.59
803.491	51.7
803.666	55.15
803.841	50.73
804.016	53.4
804.191	55.01
804.366	45.19
804.541	40.71
804.716	50.06
804.891	45.8
805.066	49.07
805.241	50.34
805.416	46.12
805.591	38.3
805.765	47.52
805.94	47.78
806.115	47.79
806.29	43.65
806.464	45.12
806.639	31.92
806.814	29.56
806.989	19.64
807.163	35.17
807.338	40.75
807.512	42.91
807.687	32.73
807.862	55.49
808.036	54.02
808.211	48.93
808.385	58.88
808.56	73.57
808.734	71.32
808.909	71.68
809.083	72.61
809.258	74.48
809.432	70.38
809.606	51.32
809.781	45.23
809.955	50.78
810.13	49.51
810.304	48.94
810.478	49.1
810.652	51.02
810.827	45.34
811.001	38.05
811.175	35.8
811.349	41.51
811.524	37.2
811.698	26.32
811.872	25
812.046	32.8
812.22	37.29
812.394	39.89
812.568	47.64
812.742	51.83
812.916	44.97
813.09	35.89
813.264	32.95
813.438	37.66
813.612	33.45
813.786	37.11
813.96	50.16
814.134	48.02
814.308	57.49
814.482	69.06
814.656	54.3
814.83	53.89
815.003	55.5
815.177	43.62
815.351	32.66
815.525	40.14
815.698	26.7
815.872	20.95
816.046	13.33
816.219	15.87
816.393	28.42
816.567	35.66
816.74	40.09
816.914	45.35
817.088	48.98
817.261	23.16
817.435	7.97
817.608	16.51
817.782	15.11
817.955	14.73
818.129	27.38
818.302	37.01
818.475	46.53
818.649	46.75
818.822	35.75
818.996	50.17
819.169	48.61
819.342	31.97
819.516	37.2
819.689	56.3
819.862	37.81
820.035	31.51
820.209	27.23
820.382	25.22
820.555	22.93
820.728	19.18
820.901	26.44
821.075	26.56
821.248	27.42
821.421	-0.08
821.594	5.76
821.767	21.45
821.94	41.54
822.113	20.67
822.286	27.05
822.459	34.59
822.632	2.43
822.805	-13.37
822.978	-14.39
823.151	-4.26
823.324	-14.81
823.496	-11.76
823.669	-10.36
823.842	3.46
824.015	-12.93
824.188	-23.79
824.361	-22.64
824.533	-16.97
824.706	1.19
824.879	11.72
825.051	33.72
825.224	32.09
825.397	27.45
825.569	9.31
825.742	35.35
825.915	34.3
826.087	55.36
826.26	45.44
826.432	47.95
826.605	34.11
826.777	26.95
826.95	19.79
827.122	14.93
827.295	26.03
827.467	37.52
827.64	15.26
827.812	4.84
827.984	8.21
828.157	-15.22
828.329	-72.95
828.501	-46.94
828.674	-20.83
828.846	-28.36
829.018	2.23
829.19	-1.5
829.363	20.54
829.535	18.97
829.707	17.27
829.879	-6.77
830.051	-3.66
830.223	-26.55
830.395	-37.73
830.568	-34.65
830.74	-28.77
830.912	-1.96
831.084	-16.85
831.256	-5.47
831.428	-5.96
831.6	-38.26
831.772	-63.92
831.943	-60.22
832.115	-61.29
832.287	-44.35
832.459	-19.84
832.631	3.64
832.803	26.82
832.975	36.72
833.146	37.84
833.318	44.47
833.49	31.6
833.662	1.45
833.833	-25.72
834.005	-33.44
834.177	-33.34
834.348	-40.64
834.52	-50.95
834.692	-36.66
834.863	-65.58
835.035	-59.38
835.206	-128.39
835.378	-106.09
835.549	-102.04
835.721	-55.92
835.892	-43.41
836.064	-9.82
836.235	-4.31
836.407	12.59
836.578	-27.89
836.749	-23.95
836.921	-66.87
837.092	-88.53
837.264	-75.52
837.435	-85.47
837.606	-45.15
837.777	-9.15
837.949	13.54
838.12	7.68
838.291	18.87
838.462	-9.97
838.633	-47.35
838.805	-52.26
838.976	-64.43
839.147	-129.26
839.318	-98.55
839.489	-131.51
839.66	-124.82
839.831	-69.33
840.002	-71.12
840.173	-113.9
840.344	-39.62
840.515	-47.83
840.686	-197.93
840.857	-142.23
841.028	-149.53
841.199	-148.64
841.369	-179.93
841.54	-144.31
841.711	-83.34
841.882	-30.98
842.053	-30.12
842.223	-21.62
842.394	1.6
842.565	3.22
842.736	-10.8
842.906	-5.7
843.077	9.91
843.248	-3.29
843.418	-22.13
843.589	-73.98
843.759	-51.23
843.93	-46.46
844.101	-23.09
844.271	-7.43
844.442	23.66
844.612	20.24
844.783	-20.32
844.953	-56.94
845.123	-94.19
845.294	-128.38
845.464	-313.96
845.635	-170.65
845.805	-24.18
845.975	-6.53
846.146	-64.31
846.316	-84.67
846.486	-44.77
846.656	-24.34
846.827	-29.76
846.997	-24.16
847.167	-2.23
847.337	-10.82
847.507	-50.22
847.677	-32.5
847.848	14.95
848.018	33.31
848.188	32.51
848.358	18.58
848.528	8.7
848.698	-21.34
848.868	-126.45
849.038	-221.59
849.208	-90.97
849.378	-59.15
849.548	-49.67
849.718	-33.13
849.887	-12.09
850.057	-38.34
850.227	-78.15
850.397	-105.86
850.567	-257.32
850.737	-613.8
850.906	-1674.69
851.076	-1215.43
851.246	-655.89
851.415	-106.54
851.585	-60.11
851.755	-110.27
851.924	-40.2
852.094	-82.27
852.264	-196.18
852.433	-1467.07
852.603	-278.16
852.772	-398.89
852.942	-181.17
853.111	-148.9
853.281	-87.32
853.45	-87.96
853.62	-133.6
853.789	-132.62
853.959	-140.03
854.128	-109.93
854.297	-124.61
854.467	-135.03
854.636	-142.34
854.805	-76.48
854.975	-159.08
855.144	-285.68
855.313	-425
855.482	-684.49
855.652	-362.94
855.821	-195.86
855.99	-36.69
856.159	-18.89
856.328	-12.78
856.497	-39.93
856.667	-28.1
856.836	-26.82
857.005	-52.39
857.174	-81.74
857.343	-108.75
857.512	-153.38
857.681	-165.66
857.85	-244.66
858.019	-117
858.188	-93.15
858.356	-64.51
858.525	-139.24
858.694	-102.16
858.863	-263.41
859.032	-202.72
859.201	-326.82
859.369	-221.62
859.538	-203.99
859.707	-141.96
859.876	-178.12
860.044	-165.07
860.213	-43.25
860.382	-52.58
860.55	-49.11
860.719	-24.46
860.888	-15.16
861.056	-84.79
861.225	-95.03
861.393	-51.06
861.562	-60.7
861.73	-157.37
861.899	-318.19
862.067	-2157.76
862.236	-235.72
862.404	-362.75
862.572	-251.75
862.741	-101.05
862.909	-84.94
863.078	-210.92
863.246	-171.32
863.414	-155
863.582	-132.82
863.751	-174.96
863.919	-126.67
864.087	-77.5
864.255	-64.13
864.424	-456.08
864.592	-50.78
864.76	-94.05
864.928	-601.4
865.096	-366.48
865.264	-272.17
865.432	-3644.89
865.6	-497.38
865.768	-219.09
865.936	-234.64
866.104	-266.31
866.272	-330.55
866.44	-690.45
866.608	967.8
866.776	484.4
866.944	4392.44
867.112	-807.94
867.28	-296.65
867.448	-117.33
867.615	-34.61
867.783	-24.12
867.951	-29.83
868.119	-12.5
868.286	-102.28
868.454	-218.01
868.622	-200.89
868.789	-265.7
868.957	-5241.07
869.125	-2444.08
869.292	-201.66
869.46	-323.98
869.627	-70.92
869.795	-62.08
869.963	-29.19
870.13	-10.59
870.298	2.53
870.465	-111.18
870.632	-129.4
870.8	-131.34
870.967	-246.48
871.135	-313.42
871.302	-269.84
871.469	-323.62
871.637	-414.86
871.804	-227.16
871.971	-223.86
872.139	-598.02
872.306	-83.68
872.473	-111.75
872.64	-384.44
872.807	-220.7
872.975	-36.39
873.142	-327.91
873.309	1910.14
873.476	29.9
873.643	66.65
873.81	-17.39
873.977	27.42
874.144	32.95
874.311	-189.59
874.478	-220.97
874.645	-242.69
874.812	-195.13
874.979	-151.33
875.146	-119.36
875.313	-138.39
875.48	-36.36
875.647	-47.36
875.813	-106.75
875.98	-69.72
876.147	-91.1
876.314	-213.52
876.481	1419.63
876.647	-1801.97
876.814	717.49
876.981	-215.29
877.147	-74.66
877.314	-21.61
877.481	19.08
877.647	23.74
877.814	-12.12
877.98	-58.86
878.147	-51.36
878.314	-8.83
878.48	-89.16
878.647	-53.78
878.813	5.17
878.979	-7.93
879.146	-39.44
879.312	-21.04
879.479	-81.02
879.645	-203.35
879.811	-377.21
879.978	-1029.58
880.144	-374.65
880.31	-161.74
880.477	-419.07
880.643	-460.12
880.809	-173.52
880.975	-159.03
881.142	-1223.41
881.308	-149.76
881.474	-93.19
881.64	-175.1
881.806	-208.53
881.972	-85.31
882.138	-141.8
882.304	-164.77
882.47	-190.65
882.636	-707.17
882.802	-278.58
882.968	-73.41
883.134	-52.35
883.3	-67.61
883.466	-8.68
883.632	28.65
883.798	-13.92
883.964	-39.33
884.129	-26.19
884.295	-15.46
884.461	-83.41
884.627	-97.29
884.793	-116.36
884.958	-55.81
885.124	-165.01
885.29	-272.69
885.455	-447.94
885.621	-139.19
885.787	-243.38
885.952	-127.16
886.118	-94.82
886.283	-93.36
886.449	-210.81
886.614	-204.42
886.78	-441.44
886.945	2176.64
887.111	-1010.26
887.276	-851.56
887.442	-1648.86
887.607	-817.33
887.773	-526.04
887.938	-406.2
888.103	-450.08
888.269	-287.88
888.434	-440.41
888.599	-158.95
888.764	-83.54
888.93	-58.54
889.095	-67.49
889.26	-86.11
889.425	-50.49
889.59	-52.87
889.756	-67.81
889.921	-49.7
890.086	-13.95
890.251	-31.06
890.416	-205.66
890.581	-2107.66
890.746	401.34
890.911	872.45
891.076	334.73
891.241	-865.49
891.406	-66
891.571	-131.93
891.736	-386.12
891.901	-567.04
892.065	700.82
892.23	191.93
892.395	272.16
892.56	420.16
892.725	-664.65
892.889	-2162.8
893.054	-275
893.219	-108.44
893.384	-33.21
893.548	-96.33
893.713	-105.19
893.878	-62.97
