Data from Ofra_1a_PS_9CX5_Reflection_3.txt Node
Date: Tue Jul 20 11:04:58 EDT 2021
User: Adam
Spectrometer: FLMT01687
Trigger mode: 0
Integration Time (sec): 1.004000E0
Scans to average: 2
Electric dark correction enabled: true
Nonlinearity correction enabled: false
Boxcar width: 2
XAxis mode: Wavelengths
Number of Pixels in Spectrum: 3648
>>>>>Begin Spectral Data<<<<<
179.494	-384.26
179.716	-511.45
179.937	880.6
180.158	-1348.41
180.38	107.8
180.601	81.14
180.823	19.82
181.044	-2.83
181.265	-90.45
181.486	78.42
181.708	132.8
181.929	-827.27
182.15	7.76
182.372	-127.59
182.593	131.75
182.814	-6.96
183.035	28.8
183.257	52.77
183.478	26.22
183.699	29.58
183.92	-29.24
184.141	-22.4
184.363	-48.17
184.584	-37.46
184.805	-7.39
185.026	41.9
185.247	23.88
185.468	21.77
185.689	8.25
185.91	-25.97
186.132	2.14
186.353	34.55
186.574	27.74
186.795	44.86
187.016	61.74
187.237	39.7
187.458	32.93
187.679	59.66
187.9	66.8
188.121	72.29
188.342	73.37
188.563	77.8
188.784	67.63
189.005	42.85
189.226	44.54
189.447	36.68
189.667	20.64
189.888	5.63
190.109	-9.46
190.33	-16.8
190.551	-35.34
190.772	-17.2
190.993	-7.56
191.214	-25.05
191.434	-34.89
191.655	-16.82
191.876	-13.85
192.097	-17.24
192.318	10.55
192.538	-19.54
192.759	-12.89
192.98	4.36
193.201	-1.45
193.421	16.14
193.642	27.91
193.863	36.91
194.083	16.24
194.304	17.72
194.525	-5.17
194.745	-0.1
194.966	-2.43
195.187	-0.23
195.407	-0.09
195.628	9.05
195.848	14.71
196.069	14.08
196.29	28.22
196.51	8.39
196.731	-5.62
196.951	-25.45
197.172	-17.09
197.392	-28.71
197.613	14.62
197.833	2.21
198.054	8.77
198.274	7.75
198.495	14.72
198.715	-0.1
198.936	25.93
199.156	27.26
199.377	22.33
199.597	26.75
199.817	23.94
200.038	37.01
200.258	36.88
200.479	65.33
200.699	54.52
200.919	42.46
201.14	13.46
201.36	0.37
201.58	-51.64
201.801	-74.72
202.021	-60.69
202.241	-47.09
202.461	-23.24
202.682	19.32
202.902	41.62
203.122	35.8
203.342	32.02
203.563	16.92
203.783	-7.27
204.003	-38.55
204.223	-13.61
204.443	10.66
204.663	27.31
204.884	64.63
205.104	81.87
205.324	85.1
205.544	-5.14
205.764	1.23
205.984	-3.45
206.204	-5.26
206.424	-30.36
206.644	-15.84
206.864	-39.57
207.084	-19.01
207.304	-14.32
207.525	6.48
207.745	18.08
207.964	34.4
208.184	40.95
208.404	27.68
208.624	35.87
208.844	43.47
209.064	33.66
209.284	10.9
209.504	9.99
209.724	6.04
209.944	0.13
210.164	-6.23
210.384	8.66
210.604	-2.12
210.823	-38.91
211.043	-21.51
211.263	-70.53
211.483	-5.17
211.703	-7.27
211.922	-7.8
212.142	1.14
212.362	35.67
212.582	21.08
212.801	12.71
213.021	16.6
213.241	-9.51
213.461	-20.42
213.68	-20.84
213.9	-14.11
214.12	-13.99
214.339	13.48
214.559	10.63
214.779	16.73
214.998	38.89
215.218	41.06
215.438	24.55
215.657	13.92
215.877	13.7
216.096	17.41
216.316	10.96
216.535	-0.47
216.755	17.88
216.974	-0.31
217.194	-27.88
217.413	-17.87
217.633	-22.7
217.852	-30.43
218.072	-14.94
218.291	-12.46
218.511	-30.08
218.73	-40.25
218.95	-72.1
219.169	-56.23
219.389	-35.1
219.608	-26.54
219.827	-4.06
220.047	10.11
220.266	-35.21
220.485	-49.81
220.705	-34.05
220.924	-36.3
221.143	14.41
221.363	36.23
221.582	36.66
221.801	36.95
222.021	32.37
222.24	16.13
222.459	36.57
222.678	36.64
222.897	14.34
223.117	32.4
223.336	48.07
223.555	49.66
223.774	69.58
223.993	114.67
224.213	90.49
224.432	71.11
224.651	43.21
224.87	41.8
225.089	25.19
225.308	32.05
225.527	12.22
225.746	20.34
225.965	4
226.184	-11.06
226.404	-18.08
226.623	-2.08
226.842	0.39
227.061	-1.66
227.28	28.87
227.499	26.39
227.718	26.5
227.936	14.43
228.155	6.5
228.374	-16.65
228.593	-15.59
228.812	-18.29
229.031	6.22
229.25	-2.17
229.469	3.97
229.688	11.25
229.907	15.83
230.125	8.44
230.344	19.63
230.563	18.94
230.782	10.98
231.001	3.76
231.22	-9.96
231.438	2.74
231.657	11.91
231.876	4.6
232.095	6.44
232.313	8.76
232.532	-9.54
232.751	-37
232.969	-26.39
233.188	-34.18
233.407	-4.93
233.625	11.66
233.844	24.46
234.063	20.6
234.281	31.89
234.5	21.78
234.719	14.66
234.937	18.54
235.156	25.07
235.374	9.78
235.593	19.7
235.811	24.11
236.03	29.5
236.249	19.78
236.467	31.03
236.686	18.61
236.904	16.31
237.123	-1.83
237.341	10
237.559	-7.32
237.778	12.06
237.996	-13.82
238.215	-59.39
238.433	-96.86
238.652	-22.85
238.87	-51.82
239.088	-26.24
239.307	9.41
239.525	19.01
239.743	1.68
239.962	2.2
240.18	10.23
240.398	12.44
240.617	-10.17
240.835	-12.19
241.053	-15.72
241.271	-20.86
241.49	-13.09
241.708	-11.81
241.926	-10.9
242.144	2.07
242.363	0.71
242.581	-39.43
242.799	-40.94
243.017	-14.72
243.235	-13.78
243.453	-38.16
243.672	-17.02
243.89	-4.62
244.108	1.95
244.326	17.29
244.544	36.13
244.762	23.11
244.98	23.14
245.198	25.84
245.416	-3.04
245.634	-10.6
245.852	-19.23
246.07	10.21
246.288	0.26
246.506	13.87
246.724	12.51
246.942	24.88
247.16	14.29
247.378	-0.88
247.596	28
247.814	15.51
248.032	13.03
248.25	8.33
248.468	16.83
248.685	14.81
248.903	19.48
249.121	21.38
249.339	10.79
249.557	19.09
249.775	30.03
249.992	27.78
250.21	15.86
250.428	37.43
250.646	24.48
250.863	-10.63
251.081	-10.13
251.299	-2.38
251.517	-8.49
251.734	-10.19
251.952	6.8
252.17	1.68
252.387	7.27
252.605	-1.03
252.823	19.42
253.04	54.24
253.258	69.07
253.475	42.56
253.693	28.74
253.911	17.65
254.128	-5.61
254.346	-8.44
254.563	1.4
254.781	7.13
254.998	3.75
255.216	-16.51
255.433	-22.04
255.651	-10.38
255.868	-5.5
256.086	10.28
256.303	22.85
256.521	15.56
256.738	-0.44
256.956	-14.67
257.173	-31.1
257.39	-18.88
257.608	-14.44
257.825	4.18
258.043	42.04
258.26	47.13
258.477	41.58
258.695	50.93
258.912	37.45
259.129	-12.82
259.346	-27.72
259.564	-26.61
259.781	-50.4
259.998	-11.3
260.216	22.97
260.433	24.45
260.65	28.84
260.867	41.17
261.084	29.06
261.302	24.26
261.519	34.88
261.736	13.88
261.953	4.02
262.17	25.8
262.387	15.8
262.604	16.9
262.822	30.49
263.039	35.43
263.256	27.3
263.473	26.04
263.69	23.01
263.907	25.12
264.124	37.17
264.341	40.7
264.558	39.1
264.775	33.97
264.992	27.69
265.209	11.2
265.426	14.48
265.643	41.82
265.86	64.62
266.077	73.08
266.294	47.64
266.51	49.01
266.727	28.71
266.944	32.44
267.161	22.87
267.378	28.8
267.595	9.01
267.812	-0.42
268.028	-17.58
268.245	4.04
268.462	-4.6
268.679	-0.68
268.896	20.21
269.112	9.58
269.329	-24.57
269.546	-0.29
269.763	-0.26
269.979	-6.88
270.196	5.07
270.413	6.16
270.629	-4.31
270.846	-16.19
271.063	-30.11
271.279	-16.49
271.496	-18.9
271.712	3.23
271.929	18.01
272.146	43.25
272.362	27.43
272.579	29.05
272.795	14.62
273.012	15.29
273.228	27.5
273.445	22.38
273.661	15.51
273.878	-8.88
274.094	-10.92
274.311	-40.04
274.527	-49.97
274.744	-10
274.96	3.25
275.177	9.58
275.393	17.05
275.609	34.28
275.826	22.73
276.042	22.72
276.259	21.84
276.475	14.64
276.691	-10
276.908	-2.95
277.124	11.94
277.34	12.52
277.557	11.09
277.773	21.71
277.989	10.68
278.205	0.49
278.422	-12.88
278.638	-5.8
278.854	-7.03
279.07	-4.33
279.286	-10.98
279.503	-1.65
279.719	5.76
279.935	8.74
280.151	-2.41
280.367	15.36
280.583	24.81
280.799	17.81
281.016	-2.69
281.232	21.02
281.448	-0.49
281.664	-17.31
281.88	-4.42
282.096	16.05
282.312	8.51
282.528	5.8
282.744	8.63
282.96	-14.94
283.176	-33.78
283.392	-44.16
283.608	-22.48
283.824	-32.45
284.04	-47.85
284.256	-27.93
284.471	-26.92
284.687	-33.34
284.903	-30
285.119	-5.88
285.335	1.66
285.551	22.31
285.767	23.94
285.982	52.34
286.198	36.78
286.414	26.74
286.63	-41.39
286.846	-19.8
287.061	-43.34
287.277	-34.77
287.493	-52.93
287.709	-14.93
287.924	8.42
288.14	39.5
288.356	48.98
288.571	55.37
288.787	55.96
289.003	41.2
289.218	14.52
289.434	11.74
289.65	34.33
289.865	34.48
290.081	33.55
290.296	41.07
290.512	38.25
290.727	27.2
290.943	12.89
291.159	12.29
291.374	-3.47
291.59	1.14
291.805	-18.32
292.021	-9.85
292.236	-9.15
292.451	3.26
292.667	-13.8
292.882	12.37
293.098	9.73
293.313	12.95
293.529	8.42
293.744	16.9
293.959	5.19
294.175	10.81
294.39	-7.22
294.605	6.88
294.821	7.7
295.036	9.16
295.251	4.35
295.467	4.12
295.682	4.91
295.897	1.39
296.112	-5.24
296.328	7.52
296.543	-1.05
296.758	-10.76
296.973	-7.04
297.188	3.94
297.404	-30.31
297.619	-6.24
297.834	-38.08
298.049	-14.65
298.264	-13.33
298.479	3.55
298.694	13.99
298.909	36.98
299.125	28.05
299.34	29.08
299.555	33.99
299.77	50.22
299.985	37.37
300.2	32.07
300.415	31.98
300.63	28.33
300.845	6.55
301.06	8.87
301.275	9.93
301.49	12.53
301.704	15.38
301.919	9.28
302.134	8.2
302.349	3.93
302.564	-2.32
302.779	-17.42
302.994	1.22
303.209	3.54
303.423	13.85
303.638	20.72
303.853	12.92
304.068	7.63
304.283	13.6
304.497	17.1
304.712	5.66
304.927	14.52
305.142	28.51
305.356	15.91
305.571	16.58
305.786	16.45
306	22.43
306.215	10.07
306.43	18.68
306.644	14.65
306.859	-6.06
307.074	2.45
307.288	-6.68
307.503	15.44
307.717	10.15
307.932	23.19
308.147	13.52
308.361	23.78
308.576	-7.77
308.79	-4.12
309.005	-9.32
309.219	5.75
309.434	11.71
309.648	21.67
309.863	21.37
310.077	28.2
310.292	29.47
310.506	2.7
310.72	7.02
310.935	26.12
311.149	16.41
311.364	-0.26
311.578	5.74
311.792	10.22
312.007	-18.21
312.221	-33.43
312.435	-11.25
312.649	10.7
312.864	3.08
313.078	4.54
313.292	18.79
313.507	23.82
313.721	23.08
313.935	36.84
314.149	33.77
314.363	38.07
314.578	30.48
314.792	22.4
315.006	4.87
315.22	5.55
315.434	7.26
315.648	-0.43
315.862	-7.87
316.077	-9.26
316.291	-12.04
316.505	-29.85
316.719	-10
316.933	-12.55
317.147	-22.91
317.361	-6.33
317.575	-8.49
317.789	-4.35
318.003	-5.84
318.217	22.56
318.431	5.64
318.645	9.98
318.859	12.29
319.073	29.34
319.287	14.83
319.5	17.55
319.714	11.85
319.928	4.7
320.142	-4.96
320.356	3.13
320.57	-6.79
320.784	13.43
320.997	3.08
321.211	14.06
321.425	-3.22
321.639	12.96
321.853	10.75
322.066	6.36
322.28	0.43
322.494	17.7
322.707	12.82
322.921	7.02
323.135	22.73
323.349	19.11
323.562	11.29
323.776	7.18
323.989	27.46
324.203	12.34
324.417	4.8
324.63	-4.15
324.844	-14.92
325.057	-55.04
325.271	-39.36
325.485	-35.75
325.698	-19.15
325.912	4.31
326.125	6.61
326.339	15.86
326.552	13.87
326.766	5.1
326.979	-1.55
327.193	6.12
327.406	-19.55
327.619	-4.68
327.833	-2.05
328.046	-2.53
328.26	-13
328.473	3.89
328.686	-2.88
328.9	14.76
329.113	18.94
329.326	19.81
329.54	25.46
329.753	36.77
329.966	31.79
330.179	29.07
330.393	26.87
330.606	13.37
330.819	-3.64
331.032	-6.94
331.246	4.44
331.459	13.44
331.672	22.65
331.885	27.24
332.098	22.35
332.311	8.49
332.525	3.77
332.738	8.02
332.951	-2.86
333.164	7.2
333.377	7.96
333.59	2.55
333.803	-3.12
334.016	-1.15
334.229	-13.61
334.442	-18.76
334.655	-5.48
334.868	-12.79
335.081	-8.35
335.294	-17.3
335.507	-19.76
335.72	-5.98
335.933	-1.2
336.146	1
336.359	14.44
336.572	30.54
336.785	18.3
336.997	18.27
337.21	35.06
337.423	25.28
337.636	-3.43
337.849	-8.12
338.062	-21.73
338.274	-28.01
338.487	-32.23
338.7	-31.67
338.913	-13.56
339.125	1.83
339.338	-6.22
339.551	13.04
339.763	22.33
339.976	11.25
340.189	8.56
340.402	23.94
340.614	26.85
340.827	31.62
341.039	23.61
341.252	22.31
341.465	12.45
341.677	2.08
341.89	-17.31
342.102	-0.22
342.315	7.81
342.527	12.59
342.74	16.05
342.952	7.09
343.165	-4.82
343.377	-0.55
343.59	4.92
343.802	2.98
344.015	18.75
344.227	22.22
344.44	12.83
344.652	-2.92
344.864	-5.66
345.077	1
345.289	3.12
345.502	12.45
345.714	8.66
345.926	12.8
346.139	-19.7
346.351	-7.8
346.563	-5.86
346.775	23.43
346.988	30.96
347.2	39.32
347.412	25.89
347.624	16.29
347.837	7.71
348.049	4.22
348.261	13.12
348.473	12.98
348.685	12.39
348.897	-1.52
349.11	-3.89
349.322	-5.8
349.534	-0.23
349.746	6.6
349.958	7.43
350.17	6.58
350.382	14.74
350.594	10.62
350.806	18.4
351.018	19.51
351.23	18.72
351.442	26.53
351.654	28.25
351.866	21.8
352.078	28.98
352.29	29.91
352.502	15.17
352.714	-0.27
352.926	6.28
353.138	13.96
353.35	3.71
353.561	7.96
353.773	6.3
353.985	9.96
354.197	-0.72
354.409	5.84
354.621	-9.18
354.832	-4.01
355.044	-20.65
355.256	-19.71
355.468	-20.25
355.679	7.98
355.891	9.04
356.103	5.28
356.314	6.71
356.526	-12.45
356.738	-37.99
356.949	-40.78
357.161	-13.51
357.373	-13.09
357.584	4.23
357.796	19.76
358.008	29.54
358.219	23.38
358.431	22.74
358.642	33.27
358.854	39.49
359.065	25.82
359.277	12.65
359.488	8.57
359.7	-2.17
359.911	-11.9
360.123	-0.44
360.334	-3.01
360.546	-3.23
360.757	-4.36
360.969	1.3
361.18	0.59
361.391	16.34
361.603	14.57
361.814	29
362.025	26.49
362.237	20.58
362.448	26.83
362.659	23.8
362.871	8.25
363.082	-16.52
363.293	-28.23
363.504	-48.33
363.716	-38.16
363.927	-2.58
364.138	-0.27
364.349	-0.23
364.56	-19.46
364.772	-0.25
364.983	-12.12
365.194	5.49
365.405	9.73
365.616	30.78
365.827	9.8
366.038	15.95
366.25	4.11
366.461	8.01
366.672	11.25
366.883	11.32
367.094	3.8
367.305	7.71
367.516	12.64
367.727	-10.54
367.938	-10.24
368.149	-12.28
368.36	-19.22
368.571	-32.29
368.781	-27.08
368.992	-13.4
369.203	-15.87
369.414	-10.57
369.625	-12.35
369.836	4.42
370.047	6.14
370.258	23.27
370.468	14.03
370.679	26.68
370.89	8.36
371.101	18.68
371.312	4.33
371.522	8.43
371.733	-2.7
371.944	1.82
372.155	3.89
372.365	5.17
372.576	11.57
372.787	14.18
372.997	9.52
373.208	-1.78
373.419	0.23
373.629	-4.32
373.84	-24.02
374.05	-24.71
374.261	-40.87
374.472	-32.63
374.682	-28.54
374.893	-24.2
375.103	-11.29
375.314	-1.26
375.524	2.81
375.735	6.53
375.945	21.13
376.156	11.68
376.366	18.95
376.577	16.55
376.787	13.71
376.997	10.98
377.208	16.27
377.418	6.71
377.629	-0.63
377.839	0.96
378.049	-1.08
378.26	-5.32
378.47	-7.95
378.68	-7.72
378.89	-2.59
379.101	1.46
379.311	3.05
379.521	6.91
379.732	13.87
379.942	5.73
380.152	-7.47
380.362	-4.31
380.572	10.68
380.783	10.17
380.993	11.7
381.203	17.58
381.413	15.58
381.623	7.2
381.833	9.82
382.043	4.97
382.253	7.16
382.463	14.51
382.674	17.34
382.884	14.7
383.094	15.24
383.304	15.02
383.514	11.57
383.724	9.58
383.934	7.14
384.144	11.97
384.353	8.31
384.563	9.98
384.773	9.49
384.983	11.51
385.193	4.43
385.403	7.93
385.613	6.14
385.823	-0.33
386.033	-5.5
386.242	-4.7
386.452	-5.53
386.662	-8.93
386.872	-0.58
387.082	4.08
387.291	3.86
387.501	3.38
387.711	6.38
387.921	1.89
388.13	1.11
388.34	-0.02
388.55	-3.23
388.759	-6.58
388.969	-6.34
389.179	-3.89
389.388	-2.35
389.598	-0.07
389.807	-3.25
390.017	-2.7
390.227	-4.78
390.436	-1
390.646	0.98
390.855	3.77
391.065	3.54
391.274	3.75
391.484	-0.2
391.693	-2.75
391.903	-3.28
392.112	-4.14
392.322	-4.99
392.531	-3.87
392.74	-4.7
392.95	-4.55
393.159	-5.47
393.369	-3.69
393.578	-2.95
393.787	-2.06
393.997	-1.16
394.206	1.25
394.415	0.79
394.625	0.69
394.834	-0.13
395.043	-0.61
395.252	0.43
395.462	0.7
395.671	1.11
395.88	2.73
396.089	3.08
396.298	2.32
396.508	2.21
396.717	1.49
396.926	1.15
397.135	1.4
397.344	0.3
397.553	0.38
397.762	1.9
397.971	1.9
398.181	1.96
398.39	2.28
398.599	1.93
398.808	1.24
399.017	1.79
399.226	1.85
399.435	2.02
399.644	2.81
399.853	2.71
400.062	2.14
400.27	1.86
400.479	1.85
400.688	1.44
400.897	1.51
401.106	1.6
401.315	1.71
401.524	1.94
401.733	1.49
401.941	1.58
402.15	1.77
402.359	1.66
402.568	1.52
402.777	1.97
402.985	1.72
403.194	1.52
403.403	1.76
403.612	1.69
403.82	1.46
404.029	1.48
404.238	1.44
404.446	1.53
404.655	1.67
404.864	1.66
405.072	1.66
405.281	1.71
405.489	1.43
405.698	1.36
405.906	1.66
406.115	1.71
406.324	1.67
406.532	1.7
406.741	1.8
406.949	1.64
407.158	1.63
407.366	1.58
407.574	1.57
407.783	1.47
407.991	1.48
408.2	1.57
408.408	1.63
408.617	1.67
408.825	1.47
409.033	1.43
409.242	1.45
409.45	1.38
409.658	1.45
409.867	1.64
410.075	1.72
410.283	1.59
410.491	1.58
410.7	1.57
410.908	1.61
411.116	1.66
411.324	1.64
411.533	1.63
411.741	1.49
411.949	1.46
412.157	1.19
412.365	1.34
412.573	1.38
412.781	1.41
412.99	1.37
413.198	1.43
413.406	1.44
413.614	1.57
413.822	1.72
414.03	1.77
414.238	1.94
414.446	1.91
414.654	1.73
414.862	1.58
415.07	1.5
415.278	1.5
415.486	1.38
415.694	1.43
415.902	1.43
416.109	1.38
416.317	1.41
416.525	1.29
416.733	1.2
416.941	1.28
417.149	1.26
417.357	1.21
417.564	1.35
417.772	1.48
417.98	1.41
418.188	1.33
418.395	1.06
418.603	1.01
418.811	0.98
419.019	1
419.226	1.23
419.434	1.44
419.642	1.32
419.849	1.23
420.057	1.26
420.265	1.21
420.472	1.15
420.68	1.31
420.887	1.26
421.095	1.32
421.302	1.22
421.51	1.25
421.717	1.21
421.925	1.38
422.132	1.23
422.34	1.12
422.547	1.02
422.755	1.01
422.962	0.95
423.17	1.01
423.377	1.19
423.585	1.42
423.792	1.44
423.999	1.51
424.207	1.37
424.414	1.39
424.621	1.26
424.829	1.34
425.036	1.32
425.243	1.49
425.451	1.47
425.658	1.5
425.865	1.4
426.072	1.31
426.28	1.35
426.487	1.23
426.694	0.97
426.901	1.02
427.108	1.09
427.315	0.95
427.523	0.9
427.73	1.18
427.937	1.05
428.144	1.01
428.351	1.01
428.558	1.14
428.765	1.06
428.972	1.27
429.179	1.22
429.386	1.24
429.593	1.04
429.8	1.05
430.007	0.94
430.214	0.87
430.421	1.03
430.628	1.2
430.835	1.18
431.042	1.17
431.249	1.25
431.456	1.09
431.662	1.12
431.869	1.27
432.076	1.28
432.283	1.48
432.49	1.48
432.697	1.48
432.903	1.26
433.11	1.4
433.317	1.32
433.524	1.42
433.73	1.41
433.937	1.61
434.144	1.41
434.35	1.41
434.557	1.44
434.764	1.6
434.97	1.4
435.177	1.61
435.384	1.62
435.59	1.64
435.797	1.56
436.003	1.75
436.21	1.58
436.416	1.52
436.623	1.5
436.829	1.47
437.036	1.35
437.242	1.44
437.449	1.46
437.655	1.54
437.862	1.56
438.068	1.55
438.275	1.6
438.481	1.67
438.687	1.59
438.894	1.65
439.1	1.71
439.307	1.75
439.513	1.69
439.719	1.79
439.926	1.79
440.132	1.86
440.338	1.83
440.544	1.82
440.751	1.68
440.957	1.64
441.163	1.43
441.369	1.41
441.575	1.41
441.782	1.51
441.988	1.47
442.194	1.58
442.4	1.55
442.606	1.74
442.812	1.7
443.018	1.69
443.224	1.77
443.431	1.84
443.637	1.65
443.843	1.65
444.049	1.82
444.255	1.78
444.461	1.73
444.667	1.75
444.873	1.81
445.079	1.73
445.284	1.76
445.49	1.76
445.696	1.76
445.902	1.72
446.108	1.79
446.314	1.78
446.52	1.87
446.726	1.9
446.931	1.86
447.137	1.8
447.343	1.86
447.549	1.88
447.755	1.92
447.96	2.01
448.166	2.03
448.372	2.02
448.578	1.85
448.783	1.88
448.989	1.91
449.195	1.95
449.4	2
449.606	2.12
449.812	2.02
450.017	2.05
450.223	1.95
450.428	1.91
450.634	1.93
450.84	2.01
451.045	1.89
451.251	2.04
451.456	2.09
451.662	2.17
451.867	2.14
452.073	2.16
452.278	2.1
452.483	2.02
452.689	2.03
452.894	2.08
453.1	2.08
453.305	2.11
453.51	2.18
453.716	2.08
453.921	2.14
454.127	2.16
454.332	2.16
454.537	2.1
454.742	2.07
454.948	2.04
455.153	2.05
455.358	2.08
455.563	2.08
455.769	2.14
455.974	2.08
456.179	2.03
456.384	1.96
456.589	1.91
456.795	1.9
457	1.89
457.205	1.88
457.41	1.85
457.615	1.85
457.82	1.93
458.025	1.92
458.23	1.93
458.435	2.03
458.64	2.09
458.845	2.07
459.05	2.13
459.255	2.19
459.46	2.2
459.665	2.18
459.87	2.15
460.075	2.14
460.28	2.24
460.485	2.29
460.69	2.27
460.895	2.27
461.099	2.19
461.304	2.02
461.509	1.96
461.714	2.06
461.919	2.02
462.123	2.06
462.328	2.06
462.533	1.93
462.738	1.88
462.942	1.9
463.147	1.91
463.352	2
463.556	2.11
463.761	2.12
463.966	2.08
464.17	2.17
464.375	2.23
464.58	2.17
464.784	2.15
464.989	2.19
465.193	2.12
465.398	2.07
465.602	2.28
465.807	2.33
466.011	2.29
466.216	2.24
466.42	2.28
466.625	2.28
466.829	2.26
467.034	2.42
467.238	2.6
467.443	2.6
467.647	2.49
467.851	2.5
468.056	2.5
468.26	2.4
468.464	2.42
468.669	2.44
468.873	2.5
469.077	2.46
469.282	2.54
469.486	2.57
469.69	2.69
469.894	2.64
470.099	2.61
470.303	2.52
470.507	2.45
470.711	2.37
470.915	2.36
471.119	2.41
471.324	2.54
471.528	2.57
471.732	2.66
471.936	2.72
472.14	2.72
472.344	2.79
472.548	2.84
472.752	2.76
472.956	2.79
473.16	2.82
473.364	2.78
473.568	2.72
473.772	2.69
473.976	2.77
474.18	2.82
474.384	2.74
474.588	2.77
474.792	2.82
474.995	2.84
475.199	2.83
475.403	2.94
475.607	2.98
475.811	3
476.015	2.92
476.218	2.83
476.422	2.78
476.626	2.8
476.83	2.85
477.033	2.89
477.237	2.96
477.441	3.02
477.644	3
477.848	2.97
478.052	3.02
478.255	3.08
478.459	3.03
478.663	3.15
478.866	3.21
479.07	3.11
479.273	3.13
479.477	3.24
479.681	3.19
479.884	3.1
480.088	3.17
480.291	3.13
480.495	3.05
480.698	3.07
480.901	3.18
481.105	3.19
481.308	3.22
481.512	3.27
481.715	3.35
481.919	3.39
482.122	3.42
482.325	3.5
482.529	3.46
482.732	3.37
482.935	3.3
483.138	3.33
483.342	3.35
483.545	3.44
483.748	3.5
483.952	3.51
484.155	3.55
484.358	3.52
484.561	3.46
484.764	3.39
484.967	3.41
485.171	3.39
485.374	3.32
485.577	3.33
485.78	3.37
485.983	3.33
486.186	3.29
486.389	3.36
486.592	3.43
486.795	3.44
486.998	3.51
487.201	3.55
487.404	3.62
487.607	3.68
487.81	3.7
488.013	3.67
488.216	3.64
488.419	3.52
488.622	3.41
488.825	3.4
489.028	3.39
489.231	3.46
489.433	3.5
489.636	3.47
489.839	3.51
490.042	3.53
490.245	3.5
490.447	3.52
490.65	3.59
490.853	3.55
491.056	3.57
491.258	3.57
491.461	3.62
491.664	3.64
491.866	3.59
492.069	3.69
492.272	3.65
492.474	3.65
492.677	3.65
492.879	3.66
493.082	3.55
493.285	3.68
493.487	3.65
493.69	3.61
493.892	3.62
494.095	3.67
494.297	3.62
494.5	3.65
494.702	3.69
494.905	3.77
495.107	3.71
495.309	3.72
495.512	3.73
495.714	3.73
495.917	3.74
496.119	3.77
496.321	3.72
496.524	3.67
496.726	3.66
496.928	3.63
497.13	3.63
497.333	3.6
497.535	3.68
497.737	3.68
497.939	3.73
498.142	3.78
498.344	3.87
498.546	3.86
498.748	3.93
498.95	3.95
499.152	3.97
499.355	3.93
499.557	3.94
499.759	4.01
499.961	3.95
500.163	3.93
500.365	3.97
500.567	3.97
500.769	3.91
500.971	3.94
501.173	3.9
501.375	3.99
501.577	4.04
501.779	4.01
501.981	4.02
502.183	4.06
502.385	3.99
502.587	4.01
502.788	4.11
502.99	4.09
503.192	4.16
503.394	4.19
503.596	4.16
503.798	4.04
503.999	4.09
504.201	4.07
504.403	4.05
504.605	4.13
504.806	4.22
505.008	4.24
505.21	4.36
505.411	4.4
505.613	4.37
505.815	4.39
506.016	4.47
506.218	4.42
506.42	4.39
506.621	4.39
506.823	4.4
507.024	4.35
507.226	4.36
507.427	4.44
507.629	4.44
507.83	4.45
508.032	4.44
508.233	4.46
508.435	4.48
508.636	4.57
508.838	4.58
509.039	4.61
509.24	4.58
509.442	4.58
509.643	4.57
509.845	4.56
510.046	4.67
510.247	4.75
510.448	4.76
510.65	4.74
510.851	4.8
511.052	4.71
511.254	4.75
511.455	4.75
511.656	4.74
511.857	4.76
512.058	4.81
512.26	4.74
512.461	4.75
512.662	4.83
512.863	4.72
513.064	4.74
513.265	4.76
513.466	4.79
513.667	4.78
513.868	4.89
514.069	4.88
514.27	4.94
514.471	4.9
514.672	4.86
514.873	4.79
515.074	4.86
515.275	4.81
515.476	4.86
515.677	4.9
515.878	4.96
516.079	4.9
516.28	4.97
516.481	5.02
516.682	5.03
516.882	5.02
517.083	5.03
517.284	5.08
517.485	5.01
517.686	5.01
517.886	5.03
518.087	5.08
518.288	5.03
518.488	5.05
518.689	5.06
518.89	5.11
519.091	5.15
519.291	5.11
519.492	5.13
519.692	5.18
519.893	5.22
520.094	5.19
520.294	5.27
520.495	5.27
520.695	5.28
520.896	5.22
521.096	5.25
521.297	5.24
521.497	5.28
521.698	5.32
521.898	5.32
522.099	5.29
522.299	5.29
522.499	5.3
522.7	5.29
522.9	5.33
523.101	5.31
523.301	5.33
523.501	5.32
523.702	5.32
523.902	5.32
524.102	5.45
524.302	5.5
524.503	5.54
524.703	5.52
524.903	5.52
525.103	5.43
525.304	5.41
525.504	5.42
525.704	5.41
525.904	5.41
526.104	5.47
526.304	5.44
526.504	5.46
526.705	5.45
526.905	5.49
527.105	5.5
527.305	5.52
527.505	5.5
527.705	5.57
527.905	5.66
528.105	5.64
528.305	5.7
528.505	5.67
528.705	5.73
528.905	5.68
529.105	5.75
529.304	5.72
529.504	5.8
529.704	5.77
529.904	5.8
530.104	5.73
530.304	5.74
530.503	5.71
530.703	5.71
530.903	5.68
531.103	5.76
531.303	5.81
531.502	5.86
531.702	5.86
531.902	5.95
532.101	5.95
532.301	5.94
532.501	6.04
532.7	6.07
532.9	6.1
533.1	6.08
533.299	6.1
533.499	5.98
533.698	5.95
533.898	5.93
534.097	5.99
534.297	6.01
534.496	6.03
534.696	6.11
534.895	6.17
535.095	6.18
535.294	6.22
535.494	6.26
535.693	6.31
535.892	6.32
536.092	6.32
536.291	6.3
536.491	6.32
536.69	6.29
536.889	6.21
537.088	6.24
537.288	6.28
537.487	6.32
537.686	6.32
537.886	6.41
538.085	6.41
538.284	6.43
538.483	6.42
538.682	6.51
538.882	6.54
539.081	6.59
539.28	6.64
539.479	6.66
539.678	6.65
539.877	6.64
540.076	6.62
540.275	6.6
540.474	6.6
540.673	6.64
540.872	6.68
541.071	6.74
541.27	6.77
541.469	6.86
541.668	6.85
541.867	6.9
542.066	6.95
542.265	6.97
542.464	6.96
542.663	7.07
542.862	7.12
543.06	7.16
543.259	7.21
543.458	7.24
543.657	7.22
543.856	7.27
544.054	7.25
544.253	7.26
544.452	7.34
544.651	7.4
544.849	7.41
545.048	7.44
545.247	7.52
545.445	7.48
545.644	7.47
545.843	7.48
546.041	7.54
546.24	7.57
546.438	7.67
546.637	7.75
546.836	7.81
547.034	7.86
547.233	7.93
547.431	7.97
547.63	7.98
547.828	8.01
548.027	8.01
548.225	7.98
548.423	8
548.622	8.08
548.82	8.15
549.019	8.2
549.217	8.33
549.415	8.35
549.614	8.51
549.812	8.53
550.01	8.59
550.209	8.66
550.407	8.76
550.605	8.72
550.803	8.8
551.002	8.91
551.2	8.87
551.398	8.95
551.596	9.03
551.794	9.05
551.993	9.04
552.191	9.14
552.389	9.17
552.587	9.22
552.785	9.25
552.983	9.39
553.181	9.43
553.379	9.47
553.577	9.49
553.775	9.67
553.973	9.7
554.171	9.82
554.369	9.96
554.567	10.07
554.765	10.08
554.963	10.14
555.161	10.14
555.359	10.17
555.557	10.18
555.755	10.3
555.952	10.38
556.15	10.5
556.348	10.58
556.546	10.74
556.744	10.78
556.941	10.8
557.139	10.92
557.337	11.03
557.535	11.01
557.732	11.03
557.93	11.19
558.128	11.21
558.325	11.23
558.523	11.39
558.721	11.58
558.918	11.61
559.116	11.73
559.313	11.86
559.511	11.92
559.708	11.94
559.906	12.01
560.104	12.06
560.301	12.13
560.498	12.21
560.696	12.3
560.893	12.45
561.091	12.57
561.288	12.65
561.486	12.72
561.683	12.84
561.88	12.94
562.078	13
562.275	13.1
562.473	13.19
562.67	13.26
562.867	13.34
563.064	13.44
563.262	13.41
563.459	13.52
563.656	13.63
563.853	13.64
564.051	13.79
564.248	13.92
564.445	13.95
564.642	14
564.839	14.14
565.036	14.23
565.234	14.42
565.431	14.5
565.628	14.53
565.825	14.53
566.022	14.6
566.219	14.62
566.416	14.7
566.613	14.81
566.81	14.98
567.007	15.02
567.204	15.02
567.401	15.11
567.598	15.2
567.795	15.22
567.991	15.26
568.188	15.37
568.385	15.42
568.582	15.49
568.779	15.56
568.976	15.64
569.172	15.77
569.369	15.84
569.566	15.93
569.763	15.95
569.96	15.98
570.156	16.02
570.353	16.07
570.55	16.14
570.746	16.21
570.943	16.39
571.14	16.49
571.336	16.59
571.533	16.58
571.729	16.68
571.926	16.66
572.123	16.69
572.319	16.68
572.516	16.88
572.712	16.85
572.909	16.89
573.105	17.01
573.302	17.09
573.498	16.95
573.695	16.98
573.891	16.96
574.087	16.86
574.284	16.87
574.48	16.98
574.677	17.03
574.873	17.15
575.069	17.32
575.266	17.35
575.462	17.38
575.658	17.53
575.854	17.49
576.051	17.45
576.247	17.46
576.443	17.51
576.639	17.35
576.835	17.37
577.032	17.41
577.228	17.49
577.424	17.47
577.62	17.51
577.816	17.52
578.012	17.5
578.208	17.49
578.404	17.55
578.6	17.62
578.796	17.73
578.993	17.76
579.189	17.84
579.384	17.81
579.58	17.84
579.776	17.75
579.972	17.75
580.168	17.7
580.364	17.78
580.56	17.72
580.756	17.76
580.952	17.76
581.148	17.86
581.343	17.85
581.539	17.95
581.735	17.95
581.931	17.94
582.127	17.84
582.322	17.74
582.518	17.76
582.714	17.73
582.909	17.69
583.105	17.69
583.301	17.79
583.496	17.72
583.692	17.64
583.888	17.62
584.083	17.66
584.279	17.63
584.474	17.62
584.67	17.76
584.866	17.76
585.061	17.73
585.257	17.73
585.452	17.75
585.648	17.62
585.843	17.66
586.039	17.62
586.234	17.6
586.429	17.54
586.625	17.63
586.82	17.63
587.015	17.71
587.211	17.69
587.406	17.7
587.601	17.74
587.797	17.79
587.992	17.69
588.187	17.66
588.383	17.74
588.578	17.78
588.773	17.75
588.968	17.88
589.163	18.02
589.359	17.98
589.554	17.98
589.749	18.02
589.944	18
590.139	17.97
590.334	18.11
590.529	18.16
590.724	18.24
590.919	18.31
591.114	18.32
591.309	18.32
591.504	18.33
591.699	18.2
591.894	18.16
592.089	18.18
592.284	18.15
592.479	18.15
592.674	18.36
592.869	18.46
593.064	18.5
593.259	18.58
593.454	18.64
593.648	18.61
593.843	18.65
594.038	18.8
594.233	18.81
594.428	18.86
594.622	18.96
594.817	19.05
595.012	19.03
595.206	19.16
595.401	19.25
595.596	19.28
595.79	19.29
595.985	19.35
596.18	19.41
596.374	19.52
596.569	19.63
596.763	19.71
596.958	19.76
597.153	19.79
597.347	19.82
597.542	19.89
597.736	19.96
597.931	20.07
598.125	20.14
598.319	20.19
598.514	20.21
598.708	20.29
598.903	20.39
599.097	20.42
599.291	20.45
599.486	20.54
599.68	20.51
599.874	20.54
600.069	20.61
600.263	20.61
600.457	20.58
600.651	20.66
600.846	20.66
601.04	20.69
601.234	20.73
601.428	20.91
601.622	20.94
601.817	21.01
602.011	21.07
602.205	21.2
602.399	21.11
602.593	21.25
602.787	21.25
602.981	21.16
603.175	21.23
603.369	21.13
603.563	21.09
603.757	21.1
603.951	21.16
604.145	21.06
604.339	21.22
604.533	21.1
604.727	21.08
604.921	21.1
605.115	21.11
605.309	20.99
605.502	21.08
605.696	21.05
605.89	21.09
606.084	21.07
606.278	21.18
606.471	21.1
606.665	21.02
606.859	20.99
607.053	20.86
607.246	20.72
607.44	20.67
607.634	20.66
607.827	20.58
608.021	20.51
608.214	20.47
608.408	20.43
608.602	20.38
608.795	20.34
608.989	20.34
609.182	20.29
609.376	20.27
609.569	20.22
609.763	20.2
609.956	20.19
610.15	20.06
610.343	19.97
610.537	19.85
610.73	19.65
610.923	19.59
611.117	19.64
611.31	19.59
611.504	19.57
611.697	19.55
611.89	19.5
612.083	19.39
612.277	19.39
612.47	19.3
612.663	19.26
612.856	19.19
613.05	19.14
613.243	19.01
613.436	18.98
613.629	18.81
613.822	18.75
614.015	18.68
614.209	18.6
614.402	18.45
614.595	18.58
614.788	18.57
614.981	18.45
615.174	18.37
615.367	18.36
615.56	18.18
615.753	18.2
615.946	18.23
616.139	18.18
616.332	18.19
616.525	18.23
616.718	18.1
616.911	18.07
617.103	18.09
617.296	17.97
617.489	17.82
617.682	17.81
617.875	17.8
618.067	17.74
618.26	17.72
618.453	17.79
618.646	17.63
618.838	17.47
619.031	17.35
619.224	17.34
619.417	17.33
619.609	17.3
619.802	17.28
619.994	17.36
620.187	17.31
620.38	17.23
620.572	17.25
620.765	17.23
620.957	17.12
621.15	17.11
621.342	17.1
621.535	17.07
621.727	17.08
621.92	17.13
622.112	17.15
622.305	17.1
622.497	17.12
622.69	17.05
622.882	17.05
623.074	17.04
623.267	16.96
623.459	16.88
623.651	16.87
623.844	16.83
624.036	16.83
624.228	16.86
624.42	16.8
624.613	16.88
624.805	16.87
624.997	16.85
625.189	16.84
625.381	16.81
625.574	16.71
625.766	16.63
625.958	16.58
626.15	16.53
626.342	16.56
626.534	16.55
626.726	16.53
626.918	16.52
627.11	16.46
627.302	16.41
627.494	16.38
627.686	16.36
627.878	16.3
628.07	16.32
628.262	16.37
628.454	16.36
628.646	16.34
628.838	16.44
629.029	16.36
629.221	16.27
629.413	16.2
629.605	16.13
629.797	15.98
629.989	16.03
630.18	16.09
630.372	16.1
630.564	16.12
630.755	16.17
630.947	16.08
631.139	15.99
631.33	15.97
631.522	15.98
631.714	15.87
631.905	15.86
632.097	15.82
632.289	15.79
632.48	15.8
632.672	15.82
632.863	15.78
633.055	15.78
633.246	15.7
633.438	15.6
633.629	15.63
633.821	15.68
634.012	15.66
634.203	15.73
634.395	15.79
634.586	15.7
634.777	15.7
634.969	15.71
635.16	15.62
635.351	15.57
635.543	15.52
635.734	15.51
635.925	15.55
636.117	15.66
636.308	15.66
636.499	15.69
636.69	15.63
636.881	15.48
637.073	15.49
637.264	15.51
637.455	15.46
637.646	15.46
637.837	15.53
638.028	15.39
638.219	15.39
638.41	15.49
638.601	15.52
638.792	15.5
638.983	15.51
639.174	15.43
639.365	15.39
639.556	15.3
639.747	15.3
639.938	15.27
640.129	15.3
640.32	15.32
640.511	15.39
640.701	15.4
640.892	15.43
641.083	15.39
641.274	15.28
641.465	15.15
641.655	15.12
641.846	15.08
642.037	15.03
642.228	14.96
642.418	15
642.609	14.93
642.8	14.88
642.99	14.9
643.181	14.95
643.372	14.89
643.562	14.91
643.753	14.87
643.943	14.8
644.134	14.71
644.324	14.71
644.515	14.64
644.705	14.67
644.896	14.73
645.086	14.72
645.277	14.74
645.467	14.78
645.658	14.66
645.848	14.6
646.038	14.65
646.229	14.63
646.419	14.5
646.61	14.63
646.8	14.57
646.99	14.49
647.18	14.34
647.371	14.36
647.561	14.22
647.751	14.2
647.941	14.18
648.132	14.27
648.322	14.2
648.512	14.21
648.702	14.29
648.892	14.3
649.082	14.21
649.272	14.27
649.462	14.26
649.653	14.12
649.843	14.04
650.033	14.12
650.223	14.09
650.413	14.04
650.603	14.15
650.793	14.14
650.983	14.03
651.172	14.02
651.362	13.94
651.552	13.75
651.742	13.69
651.932	13.63
652.122	13.6
652.312	13.54
652.502	13.39
652.691	13.37
652.881	13.33
653.071	13.16
653.261	13.11
653.45	13.16
653.64	13.07
653.83	12.98
654.019	12.94
654.209	12.88
654.399	12.79
654.588	12.6
654.778	12.45
654.968	12.38
655.157	12.28
655.347	12.11
655.536	12.07
655.726	11.93
655.915	11.72
656.105	11.6
656.294	11.48
656.484	11.32
656.673	11.26
656.863	11.24
657.052	11.05
657.241	10.96
657.431	10.88
657.62	10.73
657.809	10.42
657.999	10.37
658.188	10.25
658.377	10.05
658.567	9.94
658.756	9.9
658.945	9.74
659.134	9.58
659.324	9.57
659.513	9.35
659.702	9.2
659.891	9.18
660.08	9.03
660.269	8.8
660.458	8.63
660.648	8.49
660.837	8.27
661.026	8.13
661.215	8.02
661.404	7.97
661.593	7.89
661.782	7.7
661.971	7.5
662.16	7.41
662.349	7.27
662.538	7.17
662.726	7.11
662.915	7.19
663.104	6.97
663.293	7
663.482	6.88
663.671	6.83
663.86	6.63
664.048	6.63
664.237	6.5
664.426	6.47
664.615	6.35
664.803	6.22
664.992	6.09
665.181	6.01
665.369	5.86
665.558	5.8
665.747	5.86
665.935	5.9
666.124	5.84
666.312	5.78
666.501	5.69
666.69	5.6
666.878	5.49
667.067	5.36
667.255	5.32
667.444	5.36
667.632	5.33
667.82	5.34
668.009	5.39
668.197	5.44
668.386	5.33
668.574	5.29
668.762	5.18
668.951	5.1
669.139	4.97
669.327	4.95
669.516	4.99
669.704	5.02
669.892	5.07
670.08	5.13
670.269	5.12
670.457	5
670.645	4.98
670.833	4.9
671.021	4.87
671.21	4.78
671.398	4.87
671.586	4.84
671.774	5
671.962	4.96
672.15	5.02
672.338	5.02
672.526	5.19
672.714	5.05
672.902	5.15
673.09	5.28
673.278	5.34
673.466	5.34
673.654	5.36
673.842	5.39
674.03	5.37
674.218	5.4
674.405	5.32
674.593	5.43
674.781	5.49
674.969	5.64
675.157	5.71
675.344	5.8
675.532	5.68
675.72	5.75
675.908	5.57
676.095	5.49
676.283	5.57
676.471	5.67
676.658	5.7
676.846	5.91
677.033	5.99
677.221	5.99
677.409	6
677.596	6.08
677.784	6.09
677.971	6.07
678.159	6.17
678.346	6.28
678.534	6.24
678.721	6.27
678.909	6.45
679.096	6.53
679.283	6.68
679.471	6.88
679.658	7.1
679.846	7.08
680.033	7.23
680.22	7.39
680.408	7.28
680.595	7.28
680.782	7.42
680.969	7.56
681.157	7.6
681.344	7.77
681.531	7.88
681.718	7.96
681.905	7.96
682.093	7.99
682.28	8.23
682.467	8.42
682.654	8.7
682.841	8.82
683.028	9.01
683.215	9.13
683.402	9.23
683.589	9.32
683.776	9.49
683.963	9.75
684.15	9.9
684.337	10.17
684.524	10.33
684.711	10.62
684.898	10.72
685.085	10.91
685.271	11.24
685.458	11.54
685.645	11.75
685.832	12.05
686.019	12.25
686.205	12.4
686.392	12.66
686.579	12.81
686.766	13.14
686.952	13.44
687.139	13.73
687.326	13.96
687.512	14.29
687.699	14.55
687.886	14.92
688.072	15.22
688.259	15.69
688.445	16.35
688.632	16.71
688.818	17.21
689.005	17.63
689.191	17.98
689.378	18.2
689.564	18.7
689.751	19.19
689.937	19.63
690.124	20.25
690.31	20.61
690.496	21.06
690.683	21.5
690.869	21.9
691.055	22.2
691.242	22.77
691.428	23.21
691.614	23.75
691.8	24.44
691.987	25.1
692.173	25.64
692.359	26.38
692.545	26.97
692.731	27.47
692.918	27.85
693.104	28.36
693.29	28.79
693.476	29.26
693.662	29.8
693.848	30.52
694.034	31.16
694.22	31.76
694.406	32.48
694.592	33.21
694.778	33.45
694.964	33.95
695.15	34.56
695.336	34.9
695.522	35.29
695.708	36.21
695.894	37
696.08	37.53
696.265	38.19
696.451	38.53
696.637	39.17
696.823	39.55
697.009	39.82
697.194	40.23
697.38	41
697.566	41.27
697.751	41.66
697.937	42.53
698.123	43
698.308	43.26
698.494	43.91
698.68	44.36
698.865	44.49
699.051	44.97
699.236	45.33
699.422	45.54
699.607	46.03
699.793	46.46
699.978	46.89
700.164	47.11
700.349	47.41
700.535	47.46
700.72	47.83
700.906	47.86
701.091	48.46
701.276	48.77
701.462	49.21
701.647	49.79
701.832	50.5
702.018	50.92
702.203	51.34
702.388	51.93
702.573	52.01
702.759	52.1
702.944	52.12
703.129	52.39
703.314	52.41
703.499	52.65
703.684	53.03
703.87	53.44
704.055	53.77
704.24	54.3
704.425	54.49
704.61	54.6
704.795	54.87
704.98	54.83
705.165	54.83
705.35	55.13
705.535	55.38
705.72	55.43
705.905	55.72
706.09	55.98
706.275	55.79
706.459	56.01
706.644	56.17
706.829	56.78
707.014	57.14
707.199	57.63
707.384	57.58
707.568	57.73
707.753	57.35
707.938	57.14
708.123	57.64
708.307	58.09
708.492	58.68
708.677	58.92
708.861	59.36
709.046	58.75
709.231	58.77
709.415	58.44
709.6	58.6
709.784	58.66
709.969	59.21
710.153	59.12
710.338	59.61
710.522	59.97
710.707	60.01
710.891	60.12
711.076	60.27
711.26	60.18
711.445	59.93
711.629	60.09
711.813	60.4
711.998	60.66
712.182	60.77
712.366	61.48
712.551	61.45
712.735	61.49
712.919	61.55
713.103	61.99
713.288	61.76
713.472	62.28
713.656	62.33
713.84	62.78
714.024	62.67
714.208	62.78
714.393	62.65
714.577	62.85
714.761	62.81
714.945	63.17
715.129	63.32
715.313	63.5
715.497	63.6
715.681	63.43
715.865	63.31
716.049	63.39
716.233	63.27
716.417	63.31
716.601	63.92
716.785	64.09
716.968	64.51
717.152	64.63
717.336	65.04
717.52	65.19
717.704	65.39
717.888	65.63
718.071	65.96
718.255	66.07
718.439	66
718.622	65.9
718.806	65.58
718.99	65.74
719.174	65.72
719.357	66.18
719.541	66.8
719.724	67.02
719.908	67.19
720.092	67.12
720.275	66.94
720.459	67.2
720.642	67.11
720.826	67.12
721.009	67.15
721.193	67.05
721.376	66.96
721.559	67.24
721.743	67.59
721.926	68.05
722.11	68.32
722.293	68.31
722.476	67.92
722.66	68.45
722.843	68.32
723.026	68.98
723.21	69.27
723.393	69.94
723.576	69.21
723.759	69.99
723.942	69.63
724.126	69.5
724.309	69.33
724.492	69.9
724.675	69.57
724.858	69.9
725.041	70.09
725.224	71.14
725.407	71.33
725.59	71.48
725.774	71.75
725.957	72.03
726.14	71.52
726.322	71.8
726.505	71.92
726.688	72.02
726.871	71.55
727.054	72.39
727.237	72.02
727.42	72.46
727.603	72.45
727.786	72.91
727.968	72.6
728.151	73.02
728.334	73.03
728.517	72.98
728.699	73.26
728.882	73.44
729.065	73.46
729.248	73.03
729.43	73.81
729.613	74.06
729.796	74.36
729.978	75.05
730.161	75.72
730.343	75.02
730.526	75.13
730.708	74.79
730.891	74.39
731.073	74.43
731.256	74.78
731.438	75.4
731.621	75.68
731.803	75.95
731.986	75.95
732.168	75.89
732.35	75.61
732.533	75.87
732.715	75.45
732.898	75.09
733.08	75.15
733.262	74.58
733.444	75.04
733.627	75.62
733.809	76.43
733.991	77.2
734.173	77.46
734.355	77.06
734.538	77.85
734.72	77.22
734.902	77.23
735.084	77.63
735.266	78.39
735.448	78.4
735.63	79.07
735.812	79.04
735.994	79.62
736.176	78.98
736.358	78.99
736.54	79.51
736.722	79.04
736.904	78.78
737.086	78.26
737.268	78.2
737.45	78.47
737.632	78.97
737.814	79.41
737.995	81.03
738.177	80.14
738.359	80.17
738.541	80.06
738.723	79.49
738.904	79.14
739.086	80.23
739.268	79.75
739.449	80.08
739.631	79.62
739.813	79.23
739.994	78.58
740.176	78.97
740.358	78.9
740.539	79.66
740.721	80.02
740.902	80.16
741.084	79.56
741.265	79.17
741.447	79.61
741.628	78.62
741.81	79.27
741.991	79.73
742.172	79.97
742.354	80.39
742.535	81.12
742.717	80.42
742.898	80.44
743.079	81.36
743.261	80.4
743.442	79.83
743.623	80.55
743.804	80.88
743.986	79.85
744.167	79.51
744.348	80.68
744.529	80.56
744.71	80.07
744.891	80.24
745.073	81.13
745.254	80.42
745.435	80.13
745.616	80.53
745.797	80.35
745.978	79.67
746.159	79.58
746.34	79.71
746.521	79.95
746.702	80.42
746.883	81.14
747.064	80.92
747.245	81.45
747.426	80.88
747.606	81.76
747.787	82.06
747.968	82.96
748.149	82.5
748.33	82.37
748.51	80.62
748.691	79.78
748.872	79.92
749.053	79.97
749.233	79.22
749.414	81.19
749.595	81.68
749.775	80.39
749.956	79.9
750.137	81.31
750.317	79.97
750.498	79.61
750.678	79.51
750.859	80.58
751.04	80.08
751.22	79.52
751.4	80.35
751.581	81.55
751.761	81.03
751.942	81.82
752.122	82.99
752.303	82.38
752.483	82.35
752.663	82.28
752.844	81.81
753.024	81.67
753.204	81.9
753.385	81.23
753.565	80.66
753.745	80.19
753.925	79.7
754.106	80.45
754.286	80.81
754.466	81.47
754.646	81.91
754.826	83.92
755.006	82.84
755.187	84.17
755.367	83.24
755.547	83.54
755.727	81.95
755.907	82.13
756.087	79.39
756.267	78.91
756.447	79.31
756.627	79.77
756.807	81.18
756.987	82.33
757.167	83.87
757.346	82.83
757.526	83.34
757.706	81.87
757.886	81.89
758.066	81.96
758.246	81.72
758.425	80.1
758.605	80.51
758.785	81.03
758.965	80.82
759.144	79.86
759.324	82.01
759.504	82.44
759.683	81.77
759.863	81.74
760.043	82.19
760.222	80.81
760.402	79.52
760.581	80.45
760.761	80.48
760.94	80.46
761.12	80.74
761.299	82.39
761.479	82.74
761.658	82.07
761.838	82.32
762.017	83.61
762.197	81.37
762.376	80.56
762.555	81
762.735	81.75
762.914	80.25
763.093	80.43
763.273	80.68
763.452	79.62
763.631	78.92
763.81	78.32
763.99	78.76
764.169	78.67
764.348	78.96
764.527	79.11
764.706	79.98
764.885	80.88
765.064	81.29
765.243	81.83
765.423	81.63
765.602	81.95
765.781	79.76
765.96	78.97
766.139	77.69
766.318	79.46
766.497	77.85
766.676	77.58
766.854	78.2
767.033	80.01
767.212	80.39
767.391	80.75
767.57	83.86
767.749	82.63
767.928	83.68
768.106	82.36
768.285	83.22
768.464	81.64
768.643	81.9
768.821	79.46
769	79.44
769.179	79.26
769.357	79.92
769.536	79.5
769.715	78.42
769.893	78.26
770.072	76.62
770.25	75.4
770.429	76.77
770.607	78.62
770.786	78.83
770.964	80.16
771.143	81.03
771.321	78.64
771.5	80.22
771.678	79.51
771.857	79.11
772.035	80.35
772.213	81.36
772.392	78.37
772.57	78.37
772.748	77.2
772.927	74.6
773.105	76.12
773.283	77.77
773.461	80.28
773.64	81.57
773.818	84.61
773.996	85.39
774.174	86.26
774.352	81.63
774.531	81.61
774.709	80.4
774.887	76.17
775.065	75.65
775.243	77.48
775.421	77.05
775.599	79.26
775.777	81.11
775.955	79.41
776.133	81.21
776.311	80.97
776.489	78.67
776.667	77.69
776.844	77.35
777.022	76.36
777.2	76.86
777.378	76.11
777.556	78.68
777.734	81.64
777.911	81.08
778.089	82.61
778.267	83.73
778.445	83.99
778.622	82.3
778.8	80.24
778.978	79.53
779.155	78.78
779.333	79.05
779.511	76.84
779.688	77.87
779.866	76.89
780.043	76.83
780.221	77.07
780.398	78.86
780.576	81.47
780.753	81.63
780.931	80.74
781.108	79.27
781.286	79.4
781.463	75.38
781.64	75.5
781.818	78.59
781.995	79.22
782.172	78.98
782.35	82.85
782.527	81.95
782.704	79.38
782.882	76.5
783.059	77.42
783.236	77.68
783.413	78.78
783.59	79.78
783.768	79.67
783.945	78.25
784.122	79.19
784.299	79.19
784.476	74.66
784.653	76.27
784.83	74
785.007	69.56
785.184	69.64
785.361	74.08
785.538	76.18
785.715	82.74
785.892	83.29
786.069	83.32
786.246	83.96
786.423	82.26
786.6	78.34
786.776	80.18
786.953	80.89
787.13	82.39
787.307	80.3
787.484	77.29
787.66	74.33
787.837	72.47
788.014	69.52
788.191	69.2
788.367	71.77
788.544	73.88
788.721	74.51
788.897	74.17
789.074	75.66
789.25	74.98
789.427	74.17
789.603	72.56
789.78	73.16
789.956	69.35
790.133	67.96
790.309	70.07
790.486	71.63
790.662	69.54
790.839	73.91
791.015	78.74
791.192	74.02
791.368	74.92
791.544	79.44
791.721	77.5
791.897	74.72
792.073	76.98
792.249	77.76
792.426	73.34
792.602	75.5
792.778	75.27
792.954	76.02
793.13	72.82
793.307	77.24
793.483	74.19
793.659	74.11
793.835	78.17
794.011	80.51
794.187	76.28
794.363	76.44
794.539	78.81
794.715	74.26
794.891	73.19
795.067	69.61
795.243	75.63
795.419	74.78
795.595	79.75
795.771	80.25
795.947	84.52
796.122	77.84
796.298	73.48
796.474	72.61
796.65	74.54
796.826	73.99
797.001	76.35
797.177	72.54
797.353	67.38
797.529	67.92
797.704	70.6
797.88	68.92
798.056	77.24
798.231	75.11
798.407	75.78
798.582	70.1
798.758	70.47
798.934	66.76
799.109	68.93
799.285	66.08
799.46	69.61
799.636	71.51
799.811	76.3
799.986	76.84
800.162	73.01
800.337	76.14
800.513	74.17
800.688	66.98
800.863	74.01
801.039	75.79
801.214	69.45
801.389	69.69
801.565	71.5
801.74	61.98
801.915	61.93
802.09	63.88
802.265	66.88
802.441	69.86
802.616	73.49
802.791	73.69
802.966	76.46
803.141	76.99
803.316	78.47
803.491	80.07
803.666	84.83
803.841	84.58
804.016	80.04
804.191	78
804.366	72.48
804.541	69.45
804.716	67.11
804.891	65.76
805.066	69.2
805.241	69.2
805.416	70.73
805.591	71.9
805.765	83.87
805.94	75.95
806.115	72.2
806.29	68.04
806.464	66.41
806.639	57.96
806.814	63.39
806.989	71.92
807.163	79
807.338	80.04
807.512	77.78
807.687	73.15
807.862	70.58
808.036	70.74
808.211	69.65
808.385	80.65
808.56	78.91
808.734	63.28
808.909	59.59
809.083	57.98
809.258	53.64
809.432	56.32
809.606	70.13
809.781	71.91
809.955	82.95
810.13	78.93
810.304	79.05
810.478	74.11
810.652	72.56
810.827	67.83
811.001	69.74
811.175	68.93
811.349	73.28
811.524	73.61
811.698	69.8
811.872	71.23
812.046	68.27
812.22	67.74
812.394	61.62
812.568	64.43
812.742	59.17
812.916	68.54
813.09	69.77
813.264	70.38
813.438	69.64
813.612	78.21
813.786	74.49
813.96	75.39
814.134	83.04
814.308	84.36
814.482	78.68
814.656	69.49
814.83	70.93
815.003	67.61
815.177	72.06
815.351	73.96
815.525	81.61
815.698	70.09
815.872	59.35
816.046	49.66
816.219	53.04
816.393	52.6
816.567	59.42
816.74	68.74
816.914	69.56
817.088	67.44
817.261	63.03
817.435	62.66
817.608	56.09
817.782	57.57
817.955	56.7
818.129	60.58
818.302	63.92
818.475	67.98
818.649	68.68
818.822	56.6
818.996	66.26
819.169	72.44
819.342	76.43
819.516	77.63
819.689	88.38
819.862	70.68
820.035	63.06
820.209	59.48
820.382	60.1
820.555	56.22
820.728	67.1
820.901	56.85
821.075	58.79
821.248	64.37
821.421	66.61
821.594	66.61
821.767	76.01
821.94	63.78
822.113	61.15
822.286	64.12
822.459	66.65
822.632	63.92
822.805	59.54
822.978	63.9
823.151	57.22
823.324	44.87
823.496	44.32
823.669	67.04
823.842	61.76
824.015	59.75
824.188	62.01
824.361	58.9
824.533	43.49
824.706	40.69
824.879	40.76
825.051	52.01
825.224	53.84
825.397	53.85
825.569	46.81
825.742	60.11
825.915	59.56
826.087	59.55
826.26	69.23
826.432	73.51
826.605	47.14
826.777	53.01
826.95	54.7
827.122	38.09
827.295	58.53
827.467	96.72
827.64	73.96
827.812	78.2
827.984	105.36
828.157	70.3
828.329	58.88
828.501	61.03
828.674	71.94
828.846	70.34
829.018	67.47
829.19	64.27
829.363	63.52
829.535	48.02
829.707	41.17
829.879	41.85
830.051	38.44
830.223	34.41
830.395	27.33
830.568	37.83
830.74	37.62
830.912	38.07
831.084	39.96
831.256	50.99
831.428	50.85
831.6	46.38
831.772	48.9
831.943	43.73
832.115	43.71
832.287	36.63
832.459	41.9
832.631	47.28
832.803	48.19
832.975	49.69
833.146	43.63
833.318	57.19
833.49	59.99
833.662	75.79
833.833	69.62
834.005	74.93
834.177	69.42
834.348	56.47
834.52	53.39
834.692	51.46
834.863	54.77
835.035	43.89
835.206	46.63
835.378	50.65
835.549	48.03
835.721	49.06
835.892	59.2
836.064	66.73
836.235	66.42
836.407	79.99
836.578	86.13
836.749	71.54
836.921	61.55
837.092	43.8
837.264	28.57
837.435	13.93
837.606	24.64
837.777	33.63
837.949	54.62
838.12	50.94
838.291	54.21
838.462	54.53
838.633	46.83
838.805	9.04
838.976	9.87
839.147	14.81
839.318	6.73
839.489	13.86
839.66	49.67
839.831	50.28
840.002	53.13
840.173	63.4
840.344	59.32
840.515	46.73
840.686	53.76
840.857	47.03
841.028	43.13
841.199	50.48
841.369	52.46
841.54	48.36
841.711	76.03
841.882	92.08
842.053	63.59
842.223	59.35
842.394	60.71
842.565	54.67
842.736	52.66
842.906	60.1
843.077	70.25
843.248	77.89
843.418	68.6
843.589	50.38
843.759	65.89
843.93	75.95
844.101	63.02
844.271	85.5
844.442	87.1
844.612	89.26
844.783	73.2
844.953	60.06
845.123	44.52
845.294	54.13
845.464	16.95
845.635	9.96
845.805	59.09
845.975	73.74
846.146	38.42
846.316	33.4
846.486	62.68
846.656	43.34
846.827	50.64
846.997	69.96
847.167	75.8
847.337	54.88
847.507	52.54
847.677	31.5
847.848	37.51
848.018	36.62
848.188	32.12
848.358	7.57
848.528	31.07
848.698	10.82
848.868	11.32
849.038	6.66
849.208	39.95
849.378	35.61
849.548	32.01
849.718	38.24
849.887	54.54
850.057	-3.94
850.227	26.74
850.397	40.24
850.567	25.39
850.737	65.22
850.906	98.68
851.076	43.88
851.246	53.14
851.415	50.6
851.585	39.47
851.755	51.57
851.924	79.09
852.094	86.45
852.264	77
852.433	40.59
852.603	-14.57
852.772	5.56
852.942	20.93
853.111	-2.9
853.281	12.34
853.45	34.42
853.62	-3.69
853.789	-28.08
853.959	19.2
854.128	25.88
854.297	30.29
854.467	51.41
854.636	63.02
854.805	58.97
854.975	50.9
855.144	52.24
855.313	59.91
855.482	37.09
855.652	23.04
855.821	23.08
855.99	33.1
856.159	16.33
856.328	35.18
856.497	43.88
856.667	62.94
856.836	59.54
857.005	63.52
857.174	40.17
857.343	20.27
857.512	17.94
857.681	-5.05
857.85	-12.34
858.019	-24.13
858.188	-41.83
858.356	-25.12
858.525	-11.65
858.694	7.91
858.863	14.84
859.032	24.91
859.201	9.32
859.369	24.47
859.538	19.02
859.707	25.61
859.876	45.35
860.044	59.86
860.213	77.32
860.382	90.51
860.55	93.31
860.719	102.55
860.888	87.89
861.056	52.73
861.225	15.79
861.393	25.35
861.562	-10.87
861.73	-7.55
861.899	8.24
862.067	3.39
862.236	-5.21
862.404	14.58
862.572	32.8
862.741	-5.24
862.909	16.27
863.078	-19.48
863.246	-5.22
863.414	4.09
863.582	21.97
863.751	-3.89
863.919	12.52
864.087	-3.09
864.255	-38.43
864.424	-62.64
864.592	-1.8
864.76	-13.9
864.928	10.21
865.096	20.54
865.264	37.08
865.432	15.48
865.6	49.22
865.768	12.36
865.936	19.16
866.104	26.37
866.272	62.61
866.44	26.19
866.608	26.22
866.776	40.12
866.944	62.38
867.112	49.37
867.28	44.35
867.448	46.25
867.615	27.02
867.783	1.1
867.951	-2.89
868.119	14.5
868.286	3.77
868.454	13.49
868.622	25.09
868.789	25.23
868.957	20.48
869.125	15.95
869.292	10.37
869.46	9.77
869.627	1.54
869.795	-43.85
869.963	-6.72
870.13	0.23
870.298	5.18
870.465	12.39
870.632	24.37
870.8	-12.88
870.967	-20.61
871.135	-52.67
871.302	-44.96
871.469	-7.95
871.637	-1.55
871.804	25.37
871.971	39.4
872.139	58.18
872.306	2.21
872.473	-20.76
872.64	-143.2
872.807	-185.49
872.975	-388.2
873.142	-85.53
873.309	-1.92
873.476	64.88
873.643	120.17
873.81	101.85
873.977	107.01
874.144	91.26
874.311	42.09
874.478	-18.25
874.645	-62.85
874.812	19.24
874.979	-9.2
875.146	7.1
875.313	18.27
875.48	44.69
875.647	19.09
875.813	10.64
875.98	7.29
876.147	8.39
876.314	18.99
876.481	19.98
876.647	22.6
876.814	25.7
876.981	31.52
877.147	27.9
877.314	49.4
877.481	56.96
877.647	43.43
877.814	37.09
877.98	26.83
878.147	47.37
878.314	70.18
878.48	77.4
878.647	69.66
878.813	81.75
878.979	59.54
879.146	48.51
879.312	71.53
879.479	60.28
879.645	42.65
879.811	30.88
879.978	35.92
880.144	15.84
880.31	15.82
880.477	35.08
880.643	34.42
880.809	-47.43
880.975	-36.89
881.142	-125.26
881.308	472.27
881.474	818.2
881.64	-105.02
881.806	-129.64
881.972	-26.55
882.138	11.18
882.304	43.7
882.47	24.36
882.636	-1.64
882.802	-21
882.968	-9.26
883.134	0.56
883.3	-7.27
883.466	38.92
883.632	143.33
883.798	98.65
883.964	121.56
884.129	642.36
884.295	90.88
884.461	-76.77
884.627	0.24
884.793	-54.33
884.958	-0.12
885.124	14.43
885.29	-4.09
885.455	-21.26
885.621	24.45
885.787	1.21
885.952	-24.5
886.118	41.5
886.283	29.86
886.449	11.76
886.614	-6.09
886.78	9.9
886.945	-14.34
887.111	7.17
887.276	40.5
887.442	19.98
887.607	36.83
887.773	4.61
887.938	-13.24
888.103	-15.62
888.269	29.6
888.434	26.52
888.599	18.95
888.764	37.44
888.93	43.3
889.095	24.12
889.26	-12.98
889.425	6.07
889.59	-5.99
889.756	-11.49
889.921	10.78
890.086	34.7
890.251	61.04
890.416	-2.5
890.581	-19.29
890.746	15.15
890.911	37.58
891.076	17.89
891.241	40.11
891.406	24.01
891.571	0.36
891.736	-21.09
891.901	17.94
892.065	28.12
892.23	66.33
892.395	49.57
892.56	55.9
892.725	118.94
892.889	199.16
893.054	90.01
893.219	28.78
893.384	-39.83
893.548	-79.31
893.713	-157.81
893.878	-259.11
