Data from Ofra_PS_T2_1A_8HS24_Reflection_1.txt Node
Date: Wed Jul 21 18:16:51 EDT 2021
User: Adam
Spectrometer: FLMT01687
Trigger mode: 0
Integration Time (sec): 1.100000E0
Scans to average: 2
Electric dark correction enabled: true
Nonlinearity correction enabled: false
Boxcar width: 2
XAxis mode: Wavelengths
Number of Pixels in Spectrum: 3648
>>>>>Begin Spectral Data<<<<<
179.494	512.8
179.716	567.29
179.937	557.86
180.158	560.5
180.38	941.87
180.601	182.87
180.823	66.24
181.044	-62.09
181.265	106.62
181.486	42.09
181.708	165.82
181.929	1085.71
182.15	-314.08
182.372	110.14
182.593	62.37
182.814	30.29
183.035	53.04
183.257	43.83
183.478	-27.66
183.699	14.36
183.92	1.16
184.141	7.24
184.363	-46.34
184.584	-3.2
184.805	2.36
185.026	22.67
185.247	36.09
185.468	20.79
185.689	26.15
185.91	10.6
186.132	-9.74
186.353	-32.62
186.574	10.1
186.795	-6.81
187.016	-34.24
187.237	-35.7
187.458	-74.22
187.679	-81.07
187.9	-42.32
188.121	-41.24
188.342	-20.81
188.563	15.16
188.784	37.52
189.005	48.64
189.226	88.12
189.447	72.68
189.667	25.73
189.888	-197.04
190.109	-877.92
190.33	-465.16
190.551	-975.22
190.772	-241.4
190.993	-201.43
191.214	-176.42
191.434	-141.01
191.655	-54.6
191.876	-62.52
192.097	-119.76
192.318	-184.02
192.538	-243.11
192.759	-148.48
192.98	-42.87
193.201	-5.77
193.421	15.57
193.642	24.53
193.863	24.59
194.083	4.23
194.304	4.21
194.525	3.19
194.745	-5.96
194.966	-22.95
195.187	-37.11
195.407	-64.33
195.628	-110.93
195.848	-120.42
196.069	-97.73
196.29	-82.57
196.51	-76.86
196.731	-73.15
196.951	-83.8
197.172	-135.09
197.392	-157.25
197.613	-147.86
197.833	-163.33
198.054	-122.77
198.274	-48.68
198.495	-56.71
198.715	-46.79
198.936	-63.79
199.156	-71.35
199.377	-195.83
199.597	-168.78
199.817	-156.5
200.038	-96.48
200.258	-125.7
200.479	-16.62
200.699	-1.24
200.919	18.81
201.14	17.21
201.36	27.85
201.58	27.24
201.801	49.26
202.021	23.29
202.241	15.17
202.461	-9.13
202.682	-108.05
202.902	-197.21
203.122	-127.82
203.342	-99.3
203.563	-42.29
203.783	-17.12
204.003	-47.28
204.223	-42.64
204.443	-4.02
204.663	-50.65
204.884	-29.21
205.104	10.62
205.324	19.79
205.544	20.49
205.764	46.52
205.984	54.4
206.204	39.68
206.424	30.54
206.644	-10.79
206.864	-23.06
207.084	-43.77
207.304	16.36
207.525	-79.06
207.745	-15.38
207.964	55.87
208.184	1.46
208.404	-63.42
208.624	-57.17
208.844	-55.9
209.064	-373.5
209.284	-468.91
209.504	-289.49
209.724	-126.54
209.944	-91.28
210.164	-38.21
210.384	-4.48
210.604	2.3
210.823	-16.81
211.043	-17.31
211.263	-20.43
211.483	-35.75
211.703	-58.08
211.922	-28.69
212.142	22.73
212.362	33.67
212.582	36.4
212.801	28.07
213.021	4.63
213.241	-25.44
213.461	-41.16
213.68	-57.98
213.9	-46.03
214.12	-39.45
214.339	-85.73
214.559	-66.08
214.779	-19.64
214.998	-11.29
215.218	-50.89
215.438	-31.69
215.657	-41.68
215.877	-68.87
216.096	-43.28
216.316	-16.07
216.535	-27.5
216.755	-35.33
216.974	-128.16
217.194	-161.48
217.413	-173.71
217.633	-128.77
217.852	-202.3
218.072	-63.26
218.291	-45.79
218.511	10.7
218.73	-13.24
218.95	-18.98
219.169	-31.01
219.389	-51.22
219.608	-51.78
219.827	-48.1
220.047	-22.8
220.266	-14.25
220.485	-9.74
220.705	-11.9
220.924	-26.97
221.143	-3.81
221.363	-26.11
221.582	-32.39
221.801	-39.55
222.021	-19.92
222.24	-98.6
222.459	-44.06
222.678	-22.75
222.897	-82.75
223.117	-107.5
223.336	-92.25
223.555	-79.43
223.774	-47.51
223.993	-30.73
224.213	18.87
224.432	21.74
224.651	41.33
224.87	25.11
225.089	38.45
225.308	20.09
225.527	19.72
225.746	17.48
225.965	11.48
226.184	-17.01
226.404	-3.1
226.623	-7.14
226.842	-17.97
227.061	-5.42
227.28	15.49
227.499	14.68
227.718	22.68
227.936	12.71
228.155	20.87
228.374	-7.06
228.593	-1.75
228.812	-5.74
229.031	-4.25
229.25	-39.38
229.469	-26.53
229.688	-19.04
229.907	13.86
230.125	37.28
230.344	27.82
230.563	33.68
230.782	39.34
231.001	-55.75
231.22	-41.6
231.438	16.16
231.657	10.85
231.876	-0.76
232.095	46.76
232.313	49.12
232.532	-2.62
232.751	-21.8
232.969	-22.14
233.188	-115.86
233.407	-66.74
233.625	-38.34
233.844	-60.04
234.063	-46.07
234.281	-9.96
234.5	-18.22
234.719	-2.33
234.937	-2.3
235.156	-2.11
235.374	-11.69
235.593	-29.19
235.811	-36.25
236.03	-27.93
236.249	-68.25
236.467	-51.74
236.686	-6.78
236.904	12.14
237.123	0.44
237.341	3.91
237.559	19.19
237.778	4.77
237.996	-34.11
238.215	-4.65
238.433	8.39
238.652	-4.46
238.87	-24.45
239.088	-1.69
239.307	-4.16
239.525	-21.34
239.743	-54.56
239.962	-27.24
240.18	-61.2
240.398	-92.36
240.617	-77.73
240.835	-68.39
241.053	-64.16
241.271	1.41
241.49	32.12
241.708	20.1
241.926	43
242.144	43.92
242.363	-9.85
242.581	-47.41
242.799	-14.97
243.017	0.94
243.235	-24.14
243.453	-18.14
243.672	-16.24
243.89	-21.1
244.108	-31.3
244.326	-4.9
244.544	-5.29
244.762	-2.61
244.98	21.31
245.198	26.92
245.416	-2.1
245.634	-1.74
245.852	-12.8
246.07	-45.08
246.288	-47.55
246.506	-75.18
246.724	-56.85
246.942	-38.53
247.16	-0.52
247.378	19.05
247.596	53.72
247.814	61.2
248.032	28.58
248.25	17.28
248.468	18.85
248.685	30.22
248.903	30.91
249.121	45.04
249.339	17.63
249.557	-0.27
249.775	-4.01
249.992	-47.62
250.21	-46.28
250.428	-27.45
250.646	-58.01
250.863	-96.76
251.081	-70.34
251.299	-59.15
251.517	-39.46
251.734	-27.79
251.952	-18.63
252.17	-10.23
252.387	-13.33
252.605	-25.91
252.823	-13.88
253.04	12.53
253.258	12.7
253.475	8.38
253.693	39.64
253.911	51.13
254.128	49.23
254.346	56.19
254.563	44.55
254.781	14.32
254.998	9.22
255.216	-15.02
255.433	8.22
255.651	31.78
255.868	63.58
256.086	50.88
256.303	52.38
256.521	23.23
256.738	5.67
256.956	-34.42
257.173	-61.14
257.39	-80.95
257.608	-81.03
257.825	0.61
258.043	47.2
258.26	49.45
258.477	88.9
258.695	83.42
258.912	-2.61
259.129	-0.96
259.346	-24.69
259.564	-59.15
259.781	-75.38
259.998	-7.36
260.216	16.22
260.433	41.28
260.65	37.82
260.867	41.19
261.084	6.94
261.302	-19.55
261.519	-45.1
261.736	-55.02
261.953	-72.76
262.17	-16.53
262.387	-37.46
262.604	-39.4
262.822	-41.87
263.039	-22.27
263.256	-53.93
263.473	-24.7
263.69	-24.42
263.907	11.53
264.124	22.51
264.341	18.1
264.558	10.46
264.775	35.32
264.992	38.58
265.209	25.13
265.426	35.87
265.643	42.62
265.86	44.39
266.077	38.21
266.294	39.66
266.51	4.34
266.727	-9.51
266.944	-9.85
267.161	-1.72
267.378	2.7
267.595	26.8
267.812	0.98
268.028	-17.96
268.245	-22.84
268.462	-22.05
268.679	-21.67
268.896	33.47
269.112	37.81
269.329	38.45
269.546	24.73
269.763	15.38
269.979	0.88
270.196	-1.59
270.413	-49.7
270.629	-51.37
270.846	-58.1
271.063	-66.1
271.279	-71.07
271.496	-39.42
271.712	-4.15
271.929	20.52
272.146	5.24
272.362	4.82
272.579	18.39
272.795	38.1
273.012	25.27
273.228	50.42
273.445	13.11
273.661	5.43
273.878	-52.35
274.094	-33.12
274.311	-66.39
274.527	15.55
274.744	7.36
274.96	3.12
275.177	0.94
275.393	22.17
275.609	-0.62
275.826	23.93
276.042	31.3
276.259	20.34
276.475	23.44
276.691	28.62
276.908	15.11
277.124	21.12
277.34	25.81
277.557	23.95
277.773	18.91
277.989	9.73
278.205	-1.7
278.422	20.11
278.638	16.67
278.854	25.3
279.07	29
279.286	30.71
279.503	-4.63
279.719	-22.82
279.935	-41.35
280.151	-43.39
280.367	-12.63
280.583	-23.91
280.799	-5.07
281.016	-27.93
281.232	-7.49
281.448	-22.13
281.664	2.01
281.88	-37.34
282.096	5.25
282.312	28.84
282.528	56.61
282.744	47.89
282.96	43
283.176	12.68
283.392	3.41
283.608	-12.7
283.824	-11.81
284.04	3.05
284.256	10.35
284.471	-0.72
284.687	6.04
284.903	19.08
285.119	36.05
285.335	24.03
285.551	22.65
285.767	-5.64
285.982	-19.51
286.198	-61.44
286.414	-12.8
286.63	8.77
286.846	28.27
287.061	13.03
287.277	31.94
287.493	7.6
287.709	13.84
287.924	-0.89
288.14	25.66
288.356	36.12
288.571	49.54
288.787	22.54
289.003	23.01
289.218	14.16
289.434	-32.32
289.65	-31.54
289.865	-12.7
290.081	-8.32
290.296	-4.58
290.512	18.81
290.727	-15.28
290.943	-41.53
291.159	-38.76
291.374	-44.07
291.59	-66.04
291.805	-39.98
292.021	-28.46
292.236	-24.3
292.451	-5.96
292.667	1.37
292.882	1.06
293.098	-13.2
293.313	-43.73
293.529	-69.6
293.744	-57.87
293.959	-49.72
294.175	-35.11
294.39	2.39
294.605	13.84
294.821	26.83
295.036	25.74
295.251	34.57
295.467	-6.71
295.682	-13.43
295.897	-56.07
296.112	-73.48
296.328	-51.87
296.543	-31.77
296.758	-45.78
296.973	3.84
297.188	40.58
297.404	-1.89
297.619	-0.65
297.834	-6.02
298.049	-39.55
298.264	-85.12
298.479	-17.95
298.694	-20.25
298.909	5.69
299.125	14.18
299.34	30.7
299.555	-0.58
299.77	25.87
299.985	-30.38
300.2	-75.02
300.415	-90.91
300.63	-51.51
300.845	-66.16
301.06	-50.68
301.275	-15.69
301.49	6.84
301.704	-7.84
301.919	-30.61
302.134	-32.35
302.349	-46.19
302.564	-114.59
302.779	-147.19
302.994	-105.49
303.209	-75.12
303.423	-14.61
303.638	49.43
303.853	18.83
304.068	19.21
304.283	21.11
304.497	3.59
304.712	-21.42
304.927	5.92
305.142	-14.91
305.356	0.1
305.571	-1.19
305.786	-3.38
306	-27.21
306.215	-10.06
306.43	-62.19
306.644	-54.59
306.859	-23.13
307.074	12.03
307.288	-4.26
307.503	6.3
307.717	-8.61
307.932	-19.93
308.147	-35.81
308.361	-23.18
308.576	-24.82
308.79	-69.49
309.005	-50.65
309.219	-40.46
309.434	-37.09
309.648	-32.43
309.863	-8.86
310.077	-12.39
310.292	-17.55
310.506	-10.25
310.72	2
310.935	18.74
311.149	4.61
311.364	14.19
311.578	24.52
311.792	19.37
312.007	13.06
312.221	5.05
312.435	18.11
312.649	-8.2
312.864	19.99
313.078	57.3
313.292	127.22
313.507	102.9
313.721	149.25
313.935	56.5
314.149	21.98
314.363	12.65
314.578	-0.21
314.792	-0.6
315.006	-10.99
315.22	7.47
315.434	5.5
315.648	28.45
315.862	37.94
316.077	28.49
316.291	14.84
316.505	14.94
316.719	-17.01
316.933	-23.66
317.147	-13.96
317.361	-45.41
317.575	-74.22
317.789	-99.35
318.003	-174.39
318.217	-109.83
318.431	-37.9
318.645	6.33
318.859	19.43
319.073	34.89
319.287	13.34
319.5	-15.87
319.714	-46.35
319.928	-73.48
320.142	-112.43
320.356	-76.42
320.57	-38.82
320.784	-44.87
320.997	-54.26
321.211	-18.66
321.425	-57.71
321.639	-82.31
321.853	-28.48
322.066	-14.05
322.28	-5.96
322.494	4.28
322.707	17.97
322.921	3.43
323.135	9.23
323.349	17.39
323.562	-3.41
323.776	-16.49
323.989	-16.73
324.203	-48.22
324.417	-75.98
324.63	-74.44
324.844	-65.51
325.057	-55.55
325.271	-32.26
325.485	-0.19
325.698	24.09
325.912	37.43
326.125	2.5
326.339	11.91
326.552	-17.14
326.766	-28.21
326.979	-15.16
327.193	21.39
327.406	-2.65
327.619	3.3
327.833	17.96
328.046	-15.03
328.26	-45.52
328.473	-5.8
328.686	-7.4
328.9	-14.36
329.113	5.74
329.326	-6.04
329.54	-11.76
329.753	-35.15
329.966	-76.98
330.179	-64.55
330.393	-32.05
330.606	-28.1
330.819	-6.97
331.032	21.28
331.246	26.36
331.459	46.2
331.672	35.45
331.885	29.4
332.098	7.25
332.311	-21.75
332.525	-72.44
332.738	-61.57
332.951	-12.5
333.164	-1.29
333.377	16.15
333.59	34.89
333.803	31.36
334.016	12.62
334.229	5.94
334.442	10.82
334.655	19.17
334.868	16.16
335.081	10.02
335.294	12.65
335.507	7.36
335.72	7.28
335.933	-0.57
336.146	-10.72
336.359	-13.08
336.572	-35.25
336.785	-63.71
336.997	-54.45
337.21	-32.55
337.423	-30.04
337.636	-10.26
337.849	5.62
338.062	9.75
338.274	25.53
338.487	16.83
338.7	-3.29
338.913	-35.67
339.125	-64.99
339.338	-151.55
339.551	-135.82
339.763	-95.66
339.976	-56.19
340.189	-22.84
340.402	5.82
340.614	1.67
340.827	5.54
341.039	1.26
341.252	3.5
341.465	10.77
341.677	5.29
341.89	-20.84
342.102	-6.83
342.315	-18.39
342.527	-43.51
342.74	-23.55
342.952	-10.73
343.165	-18.14
343.377	4.14
343.59	11.29
343.802	19.72
344.015	39.29
344.227	43.48
344.44	33.25
344.652	30.39
344.864	24.62
345.077	33.91
345.289	38.92
345.502	36.86
345.714	30.49
345.926	34.15
346.139	22.67
346.351	30.81
346.563	24.41
346.775	24.97
346.988	0.78
347.2	-29.14
347.412	-78.66
347.624	-89.29
347.837	-105.56
348.049	-57.84
348.261	-4.99
348.473	-9.01
348.685	-1.41
348.897	7.1
349.11	-23.87
349.322	-51.73
349.534	-29
349.746	-9.93
349.958	-14.97
350.17	-10.13
350.382	12.06
350.594	7.05
350.806	-2.87
351.018	-14.6
351.23	-32.75
351.442	-88.74
351.654	-94.26
351.866	-99.66
352.078	-65.13
352.29	-28.31
352.502	-2.67
352.714	9.82
352.926	2.27
353.138	3.31
353.35	-15.98
353.561	-19.6
353.773	-43.77
353.985	-23.19
354.197	-33.8
354.409	-17.82
354.621	-22.54
354.832	-7.31
355.044	-21.45
355.256	-24.75
355.468	-16.37
355.679	-12.69
355.891	-18.58
356.103	-27.47
356.314	-18.52
356.526	-21.63
356.738	-16.5
356.949	-13.05
357.161	12.74
357.373	6.87
357.584	-3.97
357.796	-5.44
358.008	-2.83
358.219	5.9
358.431	10.74
358.642	17.47
358.854	18.13
359.065	1.85
359.277	-29.55
359.488	-41.62
359.7	-46.28
359.911	-54.33
360.123	-31.64
360.334	-31.28
360.546	-45.44
360.757	-58.75
360.969	-47.35
361.18	-48.94
361.391	-37.47
361.603	-41.2
361.814	-30.54
362.025	-34.9
362.237	-33.47
362.448	-20.24
362.659	0.67
362.871	-4.16
363.082	-8.88
363.293	0.52
363.504	4.01
363.716	-3.52
363.927	-3.61
364.138	-20.76
364.349	-28.57
364.56	-46.11
364.772	-43.68
364.983	-14.77
365.194	1.81
365.405	9.17
365.616	35.08
365.827	48.81
366.038	22.65
366.25	17.68
366.461	-3.95
366.672	-8.25
366.883	-3.94
367.094	-3.02
367.305	-18.06
367.516	-12.66
367.727	-43.43
367.938	-47.11
368.149	-31.43
368.36	-8.29
368.571	-11.35
368.781	-7.24
368.992	-26.24
369.203	-46.12
369.414	-68.93
369.625	-58.16
369.836	-55.78
370.047	-84.79
370.258	-57.37
370.468	-54.99
370.679	-73.75
370.89	-74.14
371.101	-31.57
371.312	-44.48
371.522	-47.04
371.733	-30.33
371.944	-19.33
372.155	-20.85
372.365	-22.43
372.576	-13.98
372.787	-13.95
372.997	-24.18
373.208	-20.93
373.419	11.65
373.629	-15.82
373.84	-16.89
374.05	-22.95
374.261	-14.59
374.472	-50
374.682	5.74
374.893	2.71
375.103	27.16
375.314	18.8
375.524	24.69
375.735	6.88
375.945	18.22
376.156	-10.52
376.366	-15.28
376.577	-14.08
376.787	-14.56
376.997	-8.47
377.208	9.32
377.418	3.73
377.629	9.66
377.839	7.53
378.049	0.07
378.26	1.58
378.47	12.12
378.68	4.64
378.89	-0.32
379.101	-3.53
379.311	-29.96
379.521	-57.67
379.732	-54.18
379.942	-38.6
380.152	-52.25
380.362	-19
380.572	-6.26
380.783	6.41
380.993	10.92
381.203	16.81
381.413	16.49
381.623	11.12
381.833	11.09
382.043	-7.76
382.253	-16.1
382.463	-7.7
382.674	-19.72
382.884	-34.28
383.094	-24.52
383.304	-6.46
383.514	-1.84
383.724	11.89
383.934	3.83
384.144	-1.96
384.353	-24.06
384.563	-29.56
384.773	-23.66
384.983	-32
385.193	-14.83
385.403	0.9
385.613	0.89
385.823	-9.77
386.033	2.01
386.242	-6.86
386.452	-13.6
386.662	-18.57
386.872	-3.44
387.082	-9.25
387.291	-13.48
387.501	-15.89
387.711	-8.36
387.921	-18.49
388.13	-15.24
388.34	-6.72
388.55	-6.3
388.759	-9.04
388.969	-2.95
389.179	-2.19
389.388	-2.24
389.598	3.57
389.807	-0.11
390.017	-4.56
390.227	-2.18
390.436	-3.15
390.646	-1.79
390.855	0.43
391.065	0.57
391.274	-4.29
391.484	-5.84
391.693	-4.32
391.903	-0.29
392.112	4.9
392.322	9.32
392.531	12.46
392.74	10.98
392.95	4.55
393.159	1.59
393.369	1.55
393.578	0.63
393.787	-0.41
393.997	2.18
394.206	1.37
394.415	0.19
394.625	-0.39
394.834	-1.96
395.043	-1.27
395.252	0.53
395.462	1.24
395.671	2.33
395.88	4.36
396.089	4.93
396.298	3.28
396.508	3.89
396.717	2.9
396.926	2.81
397.135	1.65
397.344	2.49
397.553	2.68
397.762	4.73
397.971	4.53
398.181	5.1
398.39	4.49
398.599	4.72
398.808	4.15
399.017	4.93
399.226	6.1
399.435	7.17
399.644	7.18
399.853	6.35
400.062	5.93
400.27	5.28
400.479	4.78
400.688	4.33
400.897	4.65
401.106	4.8
401.315	4.76
401.524	4.89
401.733	5.5
401.941	5.73
402.15	5.76
402.359	5.89
402.568	6.25
402.777	6.14
402.985	5.99
403.194	5.97
403.403	5.81
403.612	5.42
403.82	5.26
404.029	5.54
404.238	5.46
404.446	5.74
404.655	5.59
404.864	5.58
405.072	5.17
405.281	5.04
405.489	4.7
405.698	4.8
405.906	4.8
406.115	5.02
406.324	5.31
406.532	5.51
406.741	5.72
406.949	5.75
407.158	5.69
407.366	5.45
407.574	5.32
407.783	5.16
407.991	4.97
408.2	5.12
408.408	5.2
408.617	5.16
408.825	5.03
409.033	5.13
409.242	5.01
409.45	4.93
409.658	4.81
409.867	5
410.075	5.01
410.283	4.96
410.491	4.9
410.7	4.91
410.908	4.77
411.116	4.95
411.324	5.01
411.533	5
411.741	5.22
411.949	5.26
412.157	4.98
412.365	4.91
412.573	5.04
412.781	4.96
412.99	4.93
413.198	5.02
413.406	4.96
413.614	4.95
413.822	4.85
414.03	4.7
414.238	4.44
414.446	4.63
414.654	4.43
414.862	4.45
415.07	4.64
415.278	4.98
415.486	4.68
415.694	4.76
415.902	4.63
416.109	4.45
416.317	4.45
416.525	4.35
416.733	4.38
416.941	4.66
417.149	4.59
417.357	4.42
417.564	4.71
417.772	4.87
417.98	4.8
418.188	4.82
418.395	4.91
418.603	4.95
418.811	4.45
419.019	4.23
419.226	4.46
419.434	4.47
419.642	4.24
419.849	4.56
420.057	4.68
420.265	4.68
420.472	4.59
420.68	4.6
420.887	4.44
421.095	4.41
421.302	4.26
421.51	4.3
421.717	4.46
421.925	4.65
422.132	4.67
422.34	4.44
422.547	4.4
422.755	4.24
422.962	4.01
423.17	3.91
423.377	4.02
423.585	4.06
423.792	4.05
423.999	4.19
424.207	4.1
424.414	4.31
424.621	4.16
424.829	4.24
425.036	4.18
425.243	4.36
425.451	4.14
425.658	4.05
425.865	4.1
426.072	4.11
426.28	4.39
426.487	4.39
426.694	4.54
426.901	4.35
427.108	4.38
427.315	4.12
427.523	4.37
427.73	4.36
427.937	4.43
428.144	4.31
428.351	4.24
428.558	4.27
428.765	4.34
428.972	4.3
429.179	4.52
429.386	4.83
429.593	4.56
429.8	4.44
430.007	4.54
430.214	4.58
430.421	4.41
430.628	4.43
430.835	4.31
431.042	4.37
431.249	4.44
431.456	4.51
431.662	4.62
431.869	4.82
432.076	4.77
432.283	4.72
432.49	4.63
432.697	4.65
432.903	4.5
433.11	4.55
433.317	4.45
433.524	4.61
433.73	4.58
433.937	4.83
434.144	4.76
434.35	4.85
434.557	4.72
434.764	4.74
434.97	4.65
435.177	4.78
435.384	4.72
435.59	4.77
435.797	4.99
436.003	5
436.21	4.97
436.416	5.05
436.623	5.05
436.829	5
437.036	5.06
437.242	5.03
437.449	5
437.655	4.96
437.862	4.9
438.068	4.84
438.275	5
438.481	5.17
438.687	5.19
438.894	5.25
439.1	5.28
439.307	5.33
439.513	5.28
439.719	5.3
439.926	5.35
440.132	5.42
440.338	5.22
440.544	5.3
440.751	5.3
440.957	5.33
441.163	5.2
441.369	5.42
441.575	5.22
441.782	5.25
441.988	5.08
442.194	5.19
442.4	5.08
442.606	5.37
442.812	5.41
443.018	5.5
443.224	5.53
443.431	5.7
443.637	5.46
443.843	5.35
444.049	5.42
444.255	5.33
444.461	5.29
444.667	5.35
444.873	5.48
445.079	5.47
445.284	5.58
445.49	5.32
445.696	5.17
445.902	5.11
446.108	5.08
446.314	5.11
446.52	5.27
446.726	5.62
446.931	5.63
447.137	5.68
447.343	5.7
447.549	5.6
447.755	5.39
447.96	5.44
448.166	5.38
448.372	5.27
448.578	5.39
448.783	5.35
448.989	5.38
449.195	5.59
449.4	5.6
449.606	5.53
449.812	5.42
450.017	5.5
450.223	5.4
450.428	5.36
450.634	5.48
450.84	5.7
451.045	5.59
451.251	5.42
451.456	5.68
451.662	5.71
451.867	5.78
452.073	5.81
452.278	5.99
452.483	5.89
452.689	5.8
452.894	5.82
453.1	5.84
453.305	5.78
453.51	5.77
453.716	5.79
453.921	5.74
454.127	5.66
454.332	5.65
454.537	5.65
454.742	5.64
454.948	5.61
455.153	5.73
455.358	5.77
455.563	5.86
455.769	5.95
455.974	5.94
456.179	5.81
456.384	5.72
456.589	5.66
456.795	5.46
457	5.34
457.205	5.52
457.41	5.5
457.615	5.49
457.82	5.61
458.025	5.72
458.23	5.56
458.435	5.69
458.64	5.58
458.845	5.7
459.05	5.64
459.255	5.72
459.46	5.68
459.665	5.72
459.87	5.72
460.075	5.74
460.28	5.8
460.485	5.89
460.69	5.9
460.895	5.74
461.099	5.74
461.304	5.75
461.509	5.72
461.714	5.62
461.919	5.8
462.123	5.73
462.328	5.75
462.533	5.71
462.738	5.91
462.942	5.76
463.147	5.87
463.352	5.79
463.556	5.78
463.761	5.7
463.966	5.77
464.17	5.72
464.375	5.61
464.58	5.63
464.784	5.64
464.989	5.63
465.193	5.71
465.398	5.87
465.602	5.99
465.807	5.98
466.011	5.96
466.216	5.99
466.42	6
466.625	6.04
466.829	6.08
467.034	6.19
467.238	6.33
467.443	6.28
467.647	6.11
467.851	6.21
468.056	6.25
468.26	6.11
468.464	6.18
468.669	6.33
468.873	6.4
469.077	6.29
469.282	6.34
469.486	6.4
469.69	6.37
469.894	6.2
470.099	6.35
470.303	6.46
470.507	6.39
470.711	6.34
470.915	6.32
471.119	6.26
471.324	6.18
471.528	6.2
471.732	6.26
471.936	6.36
472.14	6.38
472.344	6.42
472.548	6.47
472.752	6.67
472.956	6.87
473.16	6.87
473.364	6.77
473.568	6.76
473.772	6.68
473.976	6.5
474.18	6.53
474.384	6.6
474.588	6.63
474.792	6.51
474.995	6.61
475.199	6.66
475.403	6.7
475.607	6.74
475.811	6.77
476.015	6.81
476.218	6.89
476.422	6.86
476.626	6.92
476.83	7.07
477.033	7
477.237	6.91
477.441	6.99
477.644	7.04
477.848	6.99
478.052	6.98
478.255	7
478.459	7
478.663	7.09
478.866	7.09
479.07	7.1
479.273	7.27
479.477	7.28
479.681	7.16
479.884	7.16
480.088	7.2
480.291	7.16
480.495	7.21
480.698	7.24
480.901	7.34
481.105	7.37
481.308	7.3
481.512	7.25
481.715	7.32
481.919	7.32
482.122	7.37
482.325	7.41
482.529	7.43
482.732	7.46
482.935	7.36
483.138	7.29
483.342	7.35
483.545	7.43
483.748	7.39
483.952	7.54
484.155	7.7
484.358	7.7
484.561	7.67
484.764	7.6
484.967	7.62
485.171	7.65
485.374	7.63
485.577	7.76
485.78	7.83
485.983	7.82
486.186	7.72
486.389	7.66
486.592	7.64
486.795	7.66
486.998	7.63
487.201	7.71
487.404	7.82
487.607	7.84
487.81	7.89
488.013	7.96
488.216	7.9
488.419	7.89
488.622	7.83
488.825	7.73
489.028	7.67
489.231	7.69
489.433	7.66
489.636	7.55
489.839	7.63
490.042	7.59
490.245	7.56
490.447	7.57
490.65	7.59
490.853	7.63
491.056	7.65
491.258	7.67
491.461	7.74
491.664	7.8
491.866	7.8
492.069	7.91
492.272	7.89
492.474	7.92
492.677	7.99
492.879	7.99
493.082	8.03
493.285	8.08
493.487	8.05
493.69	7.95
493.892	7.88
494.095	7.83
494.297	7.82
494.5	7.85
494.702	7.88
494.905	7.95
495.107	7.96
495.309	7.96
495.512	8.02
495.714	8.13
495.917	8.16
496.119	8.14
496.321	8.18
496.524	8.14
496.726	8.06
496.928	8.08
497.13	8.11
497.333	8.15
497.535	8.19
497.737	8.22
497.939	8.23
498.142	8.29
498.344	8.28
498.546	8.19
498.748	8.23
498.95	8.34
499.152	8.31
499.355	8.37
499.557	8.48
499.759	8.59
499.961	8.51
500.163	8.56
500.365	8.53
500.567	8.55
500.769	8.4
500.971	8.4
501.173	8.3
501.375	8.43
501.577	8.37
501.779	8.42
501.981	8.45
502.183	8.44
502.385	8.39
502.587	8.38
502.788	8.47
502.99	8.5
503.192	8.65
503.394	8.6
503.596	8.61
503.798	8.64
503.999	8.71
504.201	8.68
504.403	8.71
504.605	8.86
504.806	8.8
505.008	8.8
505.21	8.9
505.411	9.04
505.613	8.97
505.815	9
506.016	9.03
506.218	9.02
506.42	8.9
506.621	8.91
506.823	8.96
507.024	8.92
507.226	8.94
507.427	8.96
507.629	9.02
507.83	9.08
508.032	9.09
508.233	9.12
508.435	9.19
508.636	9.28
508.838	9.22
509.039	9.27
509.24	9.26
509.442	9.28
509.643	9.21
509.845	9.23
510.046	9.31
510.247	9.35
510.448	9.36
510.65	9.39
510.851	9.57
511.052	9.57
511.254	9.57
511.455	9.69
511.656	9.74
511.857	9.73
512.058	9.72
512.26	9.72
512.461	9.67
512.662	9.73
512.863	9.63
513.064	9.67
513.265	9.66
513.466	9.79
513.667	9.78
513.868	9.84
514.069	9.9
514.27	10.04
514.471	9.94
514.672	9.95
514.873	9.96
515.074	9.99
515.275	9.88
515.476	9.88
515.677	9.89
515.878	9.98
516.079	9.95
516.28	10
516.481	10.18
516.682	10.18
516.882	10.06
517.083	10.06
517.284	10.03
517.485	9.91
517.686	9.93
517.886	9.99
518.087	10.01
518.288	10.04
518.488	10.03
518.689	10.07
518.89	10.14
519.091	10.24
519.291	10.23
519.492	10.31
519.692	10.31
519.893	10.31
520.094	10.24
520.294	10.25
520.495	10.25
520.695	10.31
520.896	10.33
521.096	10.41
521.297	10.44
521.497	10.4
521.698	10.41
521.898	10.41
522.099	10.43
522.299	10.53
522.499	10.56
522.7	10.58
522.9	10.58
523.101	10.7
523.301	10.6
523.501	10.64
523.702	10.63
523.902	10.69
524.102	10.6
524.302	10.69
524.503	10.77
524.703	10.84
524.903	10.86
525.103	10.84
525.304	10.91
525.504	10.96
525.704	10.95
525.904	10.94
526.104	10.95
526.304	10.87
526.504	10.89
526.705	10.89
526.905	10.99
527.105	11
527.305	11.02
527.505	10.95
527.705	10.92
527.905	10.84
528.105	10.88
528.305	10.89
528.505	10.9
528.705	11
528.905	10.97
529.105	10.97
529.304	11.07
529.504	11.18
529.704	11.15
529.904	11.24
530.104	11.28
530.304	11.27
530.503	11.23
530.703	11.2
530.903	11.13
531.103	11.22
531.303	11.22
531.502	11.27
531.702	11.39
531.902	11.45
532.101	11.36
532.301	11.35
532.501	11.31
532.7	11.26
532.9	11.31
533.1	11.38
533.299	11.45
533.499	11.54
533.698	11.53
533.898	11.49
534.097	11.5
534.297	11.57
534.496	11.5
534.696	11.56
534.895	11.7
535.095	11.77
535.294	11.73
535.494	11.76
535.693	11.76
535.892	11.74
536.092	11.7
536.291	11.69
536.491	11.77
536.69	11.87
536.889	11.75
537.088	11.74
537.288	11.79
537.487	11.82
537.686	11.79
537.886	11.92
538.085	11.97
538.284	12.08
538.483	12.08
538.682	12.18
538.882	12.15
539.081	12.23
539.28	12.15
539.479	12.16
539.678	12.11
539.877	12.27
540.076	12.22
540.275	12.26
540.474	12.39
540.673	12.42
540.872	12.31
541.071	12.41
541.27	12.45
541.469	12.48
541.668	12.51
541.867	12.56
542.066	12.61
542.265	12.69
542.464	12.64
542.663	12.68
542.862	12.74
543.06	12.77
543.259	12.82
543.458	12.89
543.657	12.91
543.856	12.99
544.054	12.96
544.253	12.91
544.452	12.86
544.651	12.97
544.849	12.91
545.048	12.95
545.247	13.01
545.445	13.12
545.644	13.12
545.843	13.17
546.041	13.25
546.24	13.39
546.438	13.47
546.637	13.54
546.836	13.67
547.034	13.74
547.233	13.73
547.431	13.71
547.63	13.74
547.828	13.73
548.027	13.77
548.225	13.76
548.423	13.84
548.622	13.94
548.82	13.99
549.019	14.01
549.217	14.14
549.415	14.18
549.614	14.21
549.812	14.26
550.01	14.3
550.209	14.36
550.407	14.44
550.605	14.44
550.803	14.56
551.002	14.6
551.2	14.66
551.398	14.74
551.596	14.89
551.794	14.93
551.993	15.1
552.191	15.16
552.389	15.21
552.587	15.25
552.785	15.32
552.983	15.34
553.181	15.4
553.379	15.55
553.577	15.59
553.775	15.66
553.973	15.76
554.171	15.85
554.369	15.84
554.567	15.92
554.765	16
554.963	15.98
555.161	15.97
555.359	16.02
555.557	16.11
555.755	16.16
555.952	16.3
556.15	16.47
556.348	16.59
556.546	16.69
556.744	16.77
556.941	16.82
557.139	16.87
557.337	16.98
557.535	17.01
557.732	17.16
557.93	17.3
558.128	17.39
558.325	17.46
558.523	17.55
558.721	17.7
558.918	17.73
559.116	17.83
559.313	17.84
559.511	18.01
559.708	18.01
559.906	18.04
560.104	18.07
560.301	18.19
560.498	18.21
560.696	18.22
560.893	18.34
561.091	18.5
561.288	18.64
561.486	18.77
561.683	18.95
561.88	19.11
562.078	19.17
562.275	19.19
562.473	19.28
562.67	19.39
562.867	19.49
563.064	19.61
563.262	19.69
563.459	19.78
563.656	19.94
563.853	20.02
564.051	20.16
564.248	20.42
564.445	20.59
564.642	20.59
564.839	20.74
565.036	20.82
565.234	20.92
565.431	20.93
565.628	21.07
565.825	21.23
566.022	21.32
566.219	21.38
566.416	21.51
566.613	21.57
566.81	21.6
567.007	21.58
567.204	21.58
567.401	21.7
567.598	21.77
567.795	21.77
567.991	21.81
568.188	21.97
568.385	22.01
568.582	22.13
568.779	22.24
568.976	22.36
569.172	22.47
569.369	22.53
569.566	22.56
569.763	22.67
569.96	22.81
570.156	22.8
570.353	22.78
570.55	22.88
570.746	22.87
570.943	22.93
571.14	22.88
571.336	23.01
571.533	23.08
571.729	23.04
571.926	23.07
572.123	23.3
572.319	23.38
572.516	23.3
572.712	23.42
572.909	23.47
573.105	23.51
573.302	23.55
573.498	23.61
573.695	23.63
573.891	23.62
574.087	23.61
574.284	23.58
574.48	23.59
574.677	23.68
574.873	23.73
575.069	23.76
575.266	23.82
575.462	23.9
575.658	23.94
575.854	24
576.051	23.97
576.247	23.93
576.443	23.9
576.639	23.85
576.835	23.75
577.032	23.67
577.228	23.85
577.424	23.94
577.62	23.88
577.816	24
578.012	24.1
578.208	23.98
578.404	24.02
578.6	24.12
578.796	24.16
578.993	24.21
579.189	24.22
579.384	24.14
579.58	24.11
579.776	24.03
579.972	23.94
580.168	23.89
580.364	23.9
580.56	23.88
580.756	23.86
580.952	23.85
581.148	23.92
581.343	23.9
581.539	23.92
581.735	23.91
581.931	23.94
582.127	24.01
582.322	23.98
582.518	23.99
582.714	23.96
582.909	23.99
583.105	23.9
583.301	23.83
583.496	23.85
583.692	23.9
583.888	23.84
584.083	23.83
584.279	23.9
584.474	23.81
584.67	23.76
584.866	23.78
585.061	23.66
585.257	23.74
585.452	23.81
585.648	23.79
585.843	23.79
586.039	23.87
586.234	23.77
586.429	23.65
586.625	23.69
586.82	23.6
587.015	23.62
587.211	23.54
587.406	23.67
587.601	23.68
587.797	23.72
587.992	23.71
588.187	23.89
588.383	23.79
588.578	23.8
588.773	23.86
588.968	23.88
589.163	23.84
589.359	23.85
589.554	23.79
589.749	23.84
589.944	23.88
590.139	23.85
590.334	23.93
590.529	24
590.724	24
590.919	23.96
591.114	24.02
591.309	24.16
591.504	24.24
591.699	24.29
591.894	24.46
592.089	24.54
592.284	24.51
592.479	24.54
592.674	24.53
592.869	24.53
593.064	24.56
593.259	24.62
593.454	24.69
593.648	24.77
593.843	24.73
594.038	24.76
594.233	24.78
594.428	24.84
594.622	24.88
594.817	25.07
595.012	25.08
595.206	25.11
595.401	25.14
595.596	25.16
595.79	25.24
595.985	25.32
596.18	25.35
596.374	25.48
596.569	25.54
596.763	25.46
596.958	25.53
597.153	25.74
597.347	25.72
597.542	25.91
597.736	25.94
597.931	26
598.125	26.01
598.319	26.12
598.514	26.04
598.708	26.12
598.903	26.17
599.097	26.19
599.291	26.25
599.486	26.24
599.68	26.31
599.874	26.38
600.069	26.39
600.263	26.38
600.457	26.54
600.651	26.59
600.846	26.62
601.04	26.71
601.234	26.78
601.428	26.81
601.622	26.86
601.817	26.91
602.011	26.98
602.205	27.04
602.399	27.1
602.593	27.19
602.787	27.28
602.981	27.23
603.175	27.29
603.369	27.18
603.563	27.08
603.757	27.1
603.951	27.13
604.145	27.08
604.339	27.14
604.533	27.09
604.727	27.03
604.921	26.95
605.115	26.96
605.309	26.97
605.502	27.02
605.696	26.97
605.89	27.01
606.084	26.96
606.278	26.88
606.471	26.85
606.665	26.74
606.859	26.61
607.053	26.54
607.246	26.47
607.44	26.41
607.634	26.44
607.827	26.49
608.021	26.43
608.214	26.4
608.408	26.3
608.602	26.27
608.795	26.16
608.989	26.06
609.182	25.96
609.376	25.94
609.569	25.88
609.763	25.8
609.956	25.72
610.15	25.77
610.343	25.8
610.537	25.68
610.73	25.81
610.923	25.92
611.117	25.83
611.31	25.77
611.504	25.68
611.697	25.47
611.89	25.31
612.083	25.24
612.277	25.2
612.47	25.08
612.663	25.02
612.856	24.91
613.05	24.84
613.243	24.76
613.436	24.7
613.629	24.56
613.822	24.5
614.015	24.38
614.209	24.14
614.402	24.3
614.595	24.39
614.788	24.35
614.981	24.24
615.174	24.19
615.367	24.02
615.56	23.89
615.753	23.82
615.946	23.79
616.139	23.81
616.332	23.81
616.525	23.8
616.718	23.82
616.911	23.84
617.103	23.86
617.296	23.79
617.489	23.72
617.682	23.7
617.875	23.69
618.067	23.64
618.26	23.51
618.453	23.51
618.646	23.4
618.838	23.36
619.031	23.42
619.224	23.46
619.417	23.4
619.609	23.43
619.802	23.34
619.994	23.23
620.187	23.16
620.38	23.11
620.572	23.02
620.765	23.08
620.957	22.92
621.15	22.94
621.342	22.93
621.535	23.01
621.727	23
621.92	23.04
622.112	23.04
622.305	22.97
622.497	22.79
622.69	22.71
622.882	22.72
623.074	22.71
623.267	22.66
623.459	22.61
623.651	22.57
623.844	22.51
624.036	22.5
624.228	22.51
624.42	22.51
624.613	22.61
624.805	22.57
624.997	22.41
625.189	22.47
625.381	22.53
625.574	22.37
625.766	22.27
625.958	22.23
626.15	22.23
626.342	22.21
626.534	22.13
626.726	22.11
626.918	22.2
627.11	22.09
627.302	22.02
627.494	21.98
627.686	22.08
627.878	21.97
628.07	21.96
628.262	21.88
628.454	21.95
628.646	21.91
628.838	21.86
629.029	21.75
629.221	21.69
629.413	21.61
629.605	21.48
629.797	21.43
629.989	21.46
630.18	21.5
630.372	21.45
630.564	21.46
630.755	21.56
630.947	21.6
631.139	21.49
631.33	21.39
631.522	21.51
631.714	21.51
631.905	21.41
632.097	21.42
632.289	21.52
632.48	21.4
632.672	21.29
632.863	21.24
633.055	21.25
633.246	21.24
633.438	21.15
633.629	21.16
633.821	21.11
634.012	20.96
634.203	20.78
634.395	20.78
634.586	20.68
634.777	20.63
634.969	20.75
635.16	20.78
635.351	20.76
635.543	20.84
635.734	20.79
635.925	20.7
636.117	20.77
636.308	20.76
636.499	20.66
636.69	20.57
636.881	20.6
637.073	20.53
637.264	20.52
637.455	20.49
637.646	20.73
637.837	20.76
638.028	20.65
638.219	20.61
638.41	20.58
638.601	20.44
638.792	20.38
638.983	20.42
639.174	20.4
639.365	20.45
639.556	20.38
639.747	20.3
639.938	20.37
640.129	20.27
640.32	20.23
640.511	20.27
640.701	20.32
640.892	20.19
641.083	20.31
641.274	20.33
641.465	20.32
641.655	20.22
641.846	20.17
642.037	20.03
642.228	19.91
642.418	19.93
642.609	20.01
642.8	20.14
642.99	20.11
643.181	20.11
643.372	20.08
643.562	19.91
643.753	19.83
643.943	19.8
644.134	19.7
644.324	19.64
644.515	19.66
644.705	19.64
644.896	19.68
645.086	19.67
645.277	19.58
645.467	19.6
645.658	19.58
645.848	19.51
646.038	19.49
646.229	19.48
646.419	19.39
646.61	19.28
646.8	19.31
646.99	19.27
647.18	19.27
647.371	19.27
647.561	19.3
647.751	19.25
647.941	19.26
648.132	19.23
648.322	19.17
648.512	19.19
648.702	19.16
648.892	19.14
649.082	19.14
649.272	19.09
649.462	18.93
649.653	18.87
649.843	18.85
650.033	18.8
650.223	18.8
650.413	18.86
650.603	18.79
650.793	18.79
650.983	18.75
651.172	18.73
651.362	18.68
651.552	18.69
651.742	18.57
651.932	18.5
652.122	18.51
652.312	18.57
652.502	18.51
652.691	18.53
652.881	18.52
653.071	18.39
653.261	18.13
653.45	18.03
653.64	18.04
653.83	17.92
654.019	17.86
654.209	17.87
654.399	17.88
654.588	17.67
654.778	17.55
654.968	17.47
655.157	17.39
655.347	17.24
655.536	17.23
655.726	17.19
655.915	17.09
656.105	17.03
656.294	16.92
656.484	16.62
656.673	16.47
656.863	16.35
657.052	16.2
657.241	16.09
657.431	15.95
657.62	15.86
657.809	15.55
657.999	15.35
658.188	15.14
658.377	15.07
658.567	14.87
658.756	14.76
658.945	14.61
659.134	14.4
659.324	14.24
659.513	14.14
659.702	14.01
659.891	13.84
660.08	13.69
660.269	13.61
660.458	13.45
660.648	13.29
660.837	13.13
661.026	13.15
661.215	12.93
661.404	12.65
661.593	12.55
661.782	12.31
661.971	12.13
662.16	12
662.349	11.99
662.538	11.85
662.726	11.91
662.915	11.71
663.104	11.64
663.293	11.58
663.482	11.55
663.671	11.44
663.86	11.28
664.048	11.17
664.237	11.07
664.426	10.84
664.615	10.75
664.803	10.65
664.992	10.4
665.181	10.17
665.369	10.16
665.558	9.95
665.747	9.93
665.935	10.04
666.124	10.05
666.312	10
666.501	9.92
666.69	9.83
666.878	9.68
667.067	9.57
667.255	9.57
667.444	9.84
667.632	9.81
667.82	9.9
668.009	9.88
668.197	9.8
668.386	9.66
668.574	9.79
668.762	9.67
668.951	9.57
669.139	9.51
669.327	9.25
669.516	9.22
669.704	9.17
669.892	9.37
670.08	9.34
670.269	9.37
670.457	9.27
670.645	9.15
670.833	9.1
671.021	9.11
671.21	9.25
671.398	9.43
671.586	9.56
671.774	9.35
671.962	9.33
672.15	9.23
672.338	8.94
672.526	8.94
672.714	8.97
672.902	8.96
673.09	9.11
673.278	9.35
673.466	9.4
673.654	9.62
673.842	9.73
674.03	9.65
674.218	9.6
674.405	9.67
674.593	9.63
674.781	9.67
674.969	9.77
675.157	9.84
675.344	9.97
675.532	10.1
675.72	10.21
675.908	10.27
676.095	10.19
676.283	10.2
676.471	10.26
676.658	10.27
676.846	10.24
677.033	10.45
677.221	10.51
677.409	10.45
677.596	10.6
677.784	10.78
677.971	10.78
678.159	10.79
678.346	10.96
678.534	10.98
678.721	11.06
678.909	11.18
679.096	11.36
679.283	11.52
679.471	11.63
679.658	11.61
679.846	11.83
680.033	12.02
680.22	12.04
680.408	12.11
680.595	12.25
680.782	12.21
680.969	12.24
681.157	12.38
681.344	12.44
681.531	12.64
681.718	12.78
681.905	12.88
682.093	13.03
682.28	13.3
682.467	13.55
682.654	13.76
682.841	14.04
683.028	14.35
683.215	14.57
683.402	14.45
683.589	14.66
683.776	14.79
683.963	14.78
684.15	14.93
684.337	15.43
684.524	15.62
684.711	15.79
684.898	16.08
685.085	16.3
685.271	16.6
685.458	16.7
685.645	16.98
685.832	17.33
686.019	17.71
686.205	17.87
686.392	18.34
686.579	18.7
686.766	18.98
686.952	19.11
687.139	19.64
687.326	19.88
687.512	20.16
687.699	20.44
687.886	20.96
688.072	21.08
688.259	21.63
688.445	22.22
688.632	22.53
688.818	23.14
689.005	23.57
689.191	23.93
689.378	24.44
689.564	25.06
689.751	25.4
689.937	25.92
690.124	26.43
690.31	26.69
690.496	27.18
690.683	27.67
690.869	28.22
691.055	28.86
691.242	29.71
691.428	30.45
691.614	31.19
691.8	32.03
691.987	32.62
692.173	33.01
692.359	33.43
692.545	33.94
692.731	34.21
692.918	34.6
693.104	35.16
693.29	35.88
693.476	36.54
693.662	37.22
693.848	38.07
694.034	38.72
694.22	39.24
694.406	39.89
694.592	40.75
694.778	41.11
694.964	41.73
695.15	42.27
695.336	42.57
695.522	43.23
695.708	44.11
695.894	44.82
696.08	45.87
696.265	46.56
696.451	47.01
696.637	47.42
696.823	47.81
697.009	47.96
697.194	48.47
697.38	48.87
697.566	49.49
697.751	50.24
697.937	51.2
698.123	51.83
698.308	52.46
698.494	53
698.68	53.4
698.865	53.67
699.051	54.32
699.236	54.89
699.422	55.44
699.607	55.98
699.793	56.24
699.978	56.38
700.164	56.61
700.349	57.13
700.535	57.36
700.72	57.92
700.906	58.82
701.091	59.42
701.276	59.62
701.462	60.45
701.647	61.31
701.832	61.61
702.018	61.93
702.203	62.36
702.388	62.58
702.573	62.8
702.759	63.32
702.944	63.67
703.129	64.14
703.314	64.45
703.499	64.66
703.684	64.83
703.87	66.06
704.055	66.68
704.24	67.2
704.425	68.08
704.61	68.59
704.795	68.23
704.98	68.5
705.165	68.68
705.35	68.79
705.535	69.12
705.72	69.6
705.905	69.93
706.09	70.52
706.275	70.77
706.459	71.13
706.644	71.33
706.829	71.7
707.014	71.83
707.199	72.03
707.384	72.12
707.568	72.42
707.753	72.9
707.938	73.25
708.123	73.47
708.307	73.85
708.492	74.18
708.677	74.3
708.861	74.49
709.046	74.26
709.231	74.5
709.415	74.8
709.6	74.61
709.784	74.51
709.969	74.75
710.153	74.92
710.338	74.98
710.522	75.17
710.707	75.73
710.891	76.11
711.076	76.16
711.26	76.24
711.445	76.55
711.629	76.58
711.813	76.73
711.998	77.12
712.182	77.21
712.366	77.73
712.551	78.26
712.735	78.71
712.919	78.71
713.103	79.12
713.288	78.63
713.472	78.47
713.656	79.13
713.84	78.99
714.024	79.13
714.208	79.42
714.393	79.58
714.577	78.89
714.761	79.63
714.945	79.7
715.129	80.02
715.313	80.09
715.497	80.29
715.681	80.87
715.865	80.88
716.049	81.22
716.233	81.28
716.417	81.56
716.601	80.61
716.785	80.85
716.968	80.93
717.152	81.42
717.336	81.52
717.52	81.95
717.704	81.75
717.888	82.09
718.071	82.09
718.255	82.3
718.439	82.06
718.622	82.53
718.806	82.64
718.99	82.39
719.174	82.51
719.357	83.14
719.541	83.25
719.724	82.62
719.908	83.75
720.092	84.29
720.275	84.4
720.459	84.42
720.642	84.74
720.826	84.12
721.009	83.56
721.193	82.96
721.376	82.91
721.559	83.15
721.743	83.17
721.926	83.7
722.11	84.48
722.293	84.35
722.476	84.44
722.66	84.23
722.843	84.09
723.026	83.59
723.21	84.14
723.393	85.03
723.576	85.73
723.759	85.18
723.942	85.58
724.126	85.41
724.309	84.78
724.492	84.41
724.675	84.85
724.858	85.28
725.041	85.84
725.224	86.35
725.407	86.75
725.59	87.62
725.774	87.56
725.957	87.16
726.14	87.01
726.322	86.78
726.505	85.91
726.688	86.59
726.871	86.23
727.054	85.89
727.237	85.88
727.42	86.55
727.603	86.21
727.786	86.93
727.968	87.35
728.151	87.74
728.334	87.89
728.517	87.8
728.699	88.09
728.882	87.64
729.065	87.94
729.248	88.22
729.43	88.42
729.613	88.93
729.796	89.68
729.978	88.95
730.161	88.1
730.343	87.29
730.526	87.3
730.708	87.05
730.891	87.9
731.073	88.25
731.256	88.91
731.438	88.29
731.621	88.87
731.803	88.2
731.986	88.27
732.168	87.77
732.35	88.4
732.533	87.82
732.715	88.38
732.898	88.98
733.08	89.06
733.262	88.99
733.444	89.53
733.627	90.2
733.809	90.57
733.991	91.86
734.173	91.61
734.355	91.86
734.538	91.51
734.72	91.02
734.902	90.66
735.084	91.25
735.266	90.86
735.448	91.92
735.63	91.86
735.812	92.25
735.994	92.23
736.176	92.03
736.358	91.42
736.54	92.45
736.722	91.92
736.904	91.37
737.086	91.4
737.268	92.49
737.45	92.72
737.632	92.49
737.814	92.21
737.995	92.94
738.177	92
738.359	90.88
738.541	91.9
738.723	92.97
738.904	93.24
739.086	92.71
739.268	92.48
739.449	92.65
739.631	92.23
739.813	92.21
739.994	92.67
740.176	93.34
740.358	92.25
740.539	92.56
740.721	92.49
740.902	93.12
741.084	93.05
741.265	93.81
741.447	93.65
741.628	93.48
741.81	92.59
741.991	92.91
742.172	93.21
742.354	93.32
742.535	93.86
742.717	94.2
742.898	94.82
743.079	95.3
743.261	95.53
743.442	94.71
743.623	95.35
743.804	95.47
743.986	95.57
744.167	94.19
744.348	94.06
744.529	94.06
744.71	92.58
744.891	91.32
745.073	92.44
745.254	92.44
745.435	91.34
745.616	91.27
745.797	91.7
745.978	91.1
746.159	91.71
746.34	91.12
746.521	92.96
746.702	91.63
746.883	91.08
747.064	90.71
747.245	93.08
747.426	91.04
747.606	91.77
747.787	92.67
747.968	93.19
748.149	92.67
748.33	93.05
748.51	92.94
748.691	93.06
748.872	93.61
749.053	92.93
749.233	92.75
749.414	92.98
749.595	91.87
749.775	90
749.956	88.45
750.137	88.56
750.317	90.02
750.498	91.21
750.678	91.84
750.859	93.44
751.04	93.69
751.22	91.66
751.4	90.6
751.581	89.88
751.761	89.78
751.942	91
752.122	91.96
752.303	92.67
752.483	93.01
752.663	92.6
752.844	90.53
753.024	90.59
753.204	90.63
753.385	89.94
753.565	90.83
753.745	92.4
753.925	91.53
754.106	90.85
754.286	90.92
754.466	90.25
754.646	90.68
754.826	90.37
755.006	90.06
755.187	91.85
755.367	92.11
755.547	90.53
755.727	91.5
755.907	93.26
756.087	92.69
756.267	91.88
756.447	93.72
756.627	92.08
756.807	91.02
756.987	90.38
757.167	90.99
757.346	90.04
757.526	89.61
757.706	91.39
757.886	92.4
758.066	93.04
758.246	95.25
758.425	96.12
758.605	93.73
758.785	92.38
758.965	91.04
759.144	87.63
759.324	87.42
759.504	88.21
759.683	88.44
759.863	87.92
760.043	89.36
760.222	90.39
760.402	89.51
760.581	90.29
760.761	92.36
760.94	91.01
761.12	92.33
761.299	93.46
761.479	92.94
761.658	91.1
761.838	91.21
762.017	90.24
762.197	90.76
762.376	90.44
762.555	91.53
762.735	92.09
762.914	89.93
763.093	89.66
763.273	89.38
763.452	88.53
763.631	88.35
763.81	89.1
763.99	87.54
764.169	88.32
764.348	87.4
764.527	85.76
764.706	86.99
764.885	88.81
765.064	86.58
765.243	87.43
765.423	89.55
765.602	89.04
765.781	87.19
765.96	86.11
766.139	84.87
766.318	84.42
766.497	83.64
766.676	84.81
766.854	87.68
767.033	88.73
767.212	87.98
767.391	88.41
767.57	89.85
767.749	90.06
767.928	90.91
768.106	89.75
768.285	88.92
768.464	87.71
768.643	86.11
768.821	86.69
769	87.95
769.179	88.39
769.357	85.56
769.536	85.94
769.715	84.87
769.893	86.92
770.072	85.86
770.25	89
770.429	89.94
770.607	89.08
770.786	87.65
770.964	89.41
771.143	87.15
771.321	85.82
771.5	87.68
771.678	87.17
771.857	84.55
772.035	86.18
772.213	85.53
772.392	81.99
772.57	83.76
772.748	85.42
772.927	84.67
773.105	86.69
773.283	88.11
773.461	87.01
773.64	87.11
773.818	85.57
773.996	85.99
774.174	85.96
774.352	83.74
774.531	81.03
774.709	84.83
774.887	82.23
775.065	81.99
775.243	81.72
775.421	83.65
775.599	83.3
775.777	81.72
775.955	79.83
776.133	79.74
776.311	81.16
776.489	77.52
776.667	79.46
776.844	80.53
777.022	81.05
777.2	78.93
777.378	80.93
777.556	81.71
777.734	81.67
777.911	82.66
778.089	83.07
778.267	82.3
778.445	79.57
778.622	80.54
778.8	81.11
778.978	83.48
779.155	82.73
779.333	84.17
779.511	83.35
779.688	84.9
779.866	80.3
780.043	78.69
780.221	79.8
780.398	79.59
780.576	79.79
780.753	82.56
780.931	81.87
781.108	79.75
781.286	81.93
781.463	77.48
781.64	74.4
781.818	76.75
781.995	79.57
782.172	78.09
782.35	80.6
782.527	83.03
782.704	82.4
782.882	81.86
783.059	80.26
783.236	78.99
783.413	79.57
783.59	79.72
783.768	75.67
783.945	75.83
784.122	76.6
784.299	74.8
784.476	75.71
784.653	77.05
784.83	75.87
785.007	71.85
785.184	72.99
785.361	70.53
785.538	74.51
785.715	80.22
785.892	84.46
786.069	87.36
786.246	89.45
786.423	89.35
786.6	86.54
786.776	86.25
786.953	85.27
787.13	88.9
787.307	84.96
787.484	82.77
787.66	82.06
787.837	79.75
788.014	74.17
788.191	73.38
788.367	71.19
788.544	74.27
788.721	74.56
788.897	77.65
789.074	81.97
789.25	81.99
789.427	78.99
789.603	79.8
789.78	76.07
789.956	73.49
790.133	75.31
790.309	77.49
790.486	79.3
790.662	79.19
790.839	77.06
791.015	78.44
791.192	74.91
791.368	74.43
791.544	72.91
791.721	73.99
791.897	73.64
792.073	73.99
792.249	66.21
792.426	70.29
792.602	73.82
792.778	74.66
792.954	72.56
793.13	75.8
793.307	70.43
793.483	63.77
793.659	61.28
793.835	66.01
794.011	66.65
794.187	70.45
794.363	72.23
794.539	78.96
794.715	73.36
794.891	74.17
795.067	73.79
795.243	76.96
795.419	71.62
795.595	73.55
795.771	73.21
795.947	73.8
796.122	66.41
796.298	69.44
796.474	70.86
796.65	72.24
796.826	70.77
797.001	77.74
797.177	73.68
797.353	75.51
797.529	74.29
797.704	77.84
797.88	73.64
798.056	71.92
798.231	69.18
798.407	68.96
798.582	65.99
798.758	72.08
798.934	77.97
799.109	77.46
799.285	76.27
799.46	81.65
799.636	77.51
799.811	75.54
799.986	78.47
800.162	80.19
800.337	75.9
800.513	77.28
800.688	76.79
800.863	81.47
801.039	75.27
801.214	72.81
801.389	72.95
801.565	69.24
801.74	59.97
801.915	67.6
802.09	66.37
802.265	71
802.441	71.15
802.616	69.6
802.791	72.58
802.966	73.09
803.141	70.52
803.316	70.78
803.491	78.2
803.666	77.28
803.841	77.98
804.016	71.81
804.191	72.51
804.366	70.26
804.541	64.67
804.716	61.51
804.891	60.59
805.066	67.51
805.241	61.47
805.416	62.31
805.591	63.84
805.765	68.79
805.94	67.37
806.115	65.6
806.29	58.68
806.464	61.89
806.639	58.43
806.814	51.88
806.989	45.65
807.163	61.86
807.338	57.47
807.512	52.53
807.687	38.93
807.862	52.71
808.036	48.04
808.211	48.56
808.385	61.21
808.56	75.93
808.734	79.17
808.909	81.5
809.083	78.33
809.258	79.39
809.432	72.02
809.606	58.55
809.781	51.75
809.955	55.01
810.13	52.21
810.304	53.08
810.478	54.56
810.652	68.25
810.827	70.95
811.001	69.72
811.175	71.44
811.349	72.66
811.524	59.81
811.698	54.9
811.872	53.26
812.046	65.33
812.22	72.81
812.394	74.42
812.568	82.12
812.742	91.38
812.916	84.88
813.09	73.73
813.264	65.97
813.438	64.33
813.612	58.72
813.786	49.91
813.96	61.19
814.134	61.14
814.308	67.9
814.482	68.81
814.656	61.54
814.83	58.23
815.003	67.53
815.177	61.39
815.351	56.14
815.525	58.44
815.698	58.76
815.872	51.1
816.046	38.29
816.219	35.77
816.393	48.85
816.567	58.13
816.74	65.15
816.914	70.52
817.088	84.82
817.261	86.81
817.435	67.66
817.608	61.55
817.782	70.93
817.955	68.45
818.129	60.23
818.302	69.58
818.475	87.42
818.649	81.98
818.822	67.45
818.996	81.95
819.169	76.89
819.342	51.29
819.516	51.71
819.689	68.24
819.862	54.68
820.035	56.69
820.209	56.83
820.382	60.04
820.555	57.28
820.728	48.84
820.901	38.72
821.075	39.6
821.248	35.14
821.421	17.51
821.594	29.41
821.767	61.26
821.94	67.22
822.113	56.26
822.286	51.79
822.459	61.76
822.632	46.76
822.805	39.52
822.978	43.17
823.151	47.96
823.324	26.89
823.496	12.69
823.669	1.74
823.842	8.21
824.015	-1.29
824.188	-13.14
824.361	-7.17
824.533	9.22
824.706	7.18
824.879	16.29
825.051	33.62
825.224	33.83
825.397	30.03
825.569	21.98
825.742	36.79
825.915	47.34
826.087	59.34
826.26	50.48
826.432	48.98
826.605	42.87
826.777	25.58
826.95	17.11
827.122	6.07
827.295	10.45
827.467	25.77
827.64	26.38
827.812	24.83
827.984	31.28
828.157	39.8
828.329	-18.1
828.501	-7.37
828.674	14.08
828.846	8.03
829.018	38.09
829.19	50.58
829.363	56.57
829.535	52.25
829.707	52.58
829.879	16.88
830.051	2.18
830.223	-9.58
830.395	-31.41
830.568	-31.29
830.74	-25.24
830.912	2.16
831.084	-3.3
831.256	6.32
831.428	1.26
831.6	-14.22
831.772	-36.77
831.943	-39.62
832.115	-8.08
832.287	14.87
832.459	25.17
832.631	52.85
832.803	65.96
832.975	65.01
833.146	42.23
833.318	43.64
833.49	23.89
833.662	15.48
833.833	-3.19
834.005	3.09
834.177	1.57
834.348	-0.06
834.52	-5.42
834.692	-5.7
834.863	-4.54
835.035	-29.57
835.206	-91.3
835.378	-88.23
835.549	-65.69
835.721	-42.03
835.892	-18.33
836.064	-7.79
836.235	-19.54
836.407	2.68
836.578	-14.59
836.749	-23.49
836.921	-6.08
837.092	-16.95
837.264	-32.61
837.435	-37.24
837.606	2.61
837.777	25
837.949	45.64
838.12	40.09
838.291	48.32
838.462	46.35
838.633	13.14
838.805	17.5
838.976	26.95
839.147	-42.77
839.318	-79.6
839.489	-107.77
839.66	-106.88
839.831	-67.29
840.002	-19.84
840.173	-7.88
840.344	52.49
840.515	89.78
840.686	-7.04
840.857	-61.58
841.028	-47.16
841.199	-63.16
841.369	-95.74
841.54	-68.4
841.711	-18.54
841.882	14.09
842.053	0.16
842.223	-2.44
842.394	14.41
842.565	2.08
842.736	7.42
842.906	23.06
843.077	21.31
843.248	13.5
843.418	21.87
843.589	-36.05
843.759	-12.77
843.93	40.73
844.101	44.79
844.271	42.34
844.442	46.71
844.612	51.61
844.783	13.28
844.953	-20.83
845.123	-54.04
845.294	-49.07
845.464	-286.87
845.635	-103.2
845.805	-52.6
845.975	-35.79
846.146	-68.43
846.316	-45.12
846.486	-8.17
846.656	16.76
846.827	26.53
846.997	13.7
847.167	23.45
847.337	-9.4
847.507	-38.83
847.677	-16.26
847.848	45.87
848.018	28.56
848.188	30.86
848.358	12.4
848.528	-17.66
848.698	-65.9
848.868	-124.28
849.038	-240.97
849.208	-58.82
849.378	-0.51
849.548	-5.09
849.718	9.03
849.887	27.99
850.057	-28.51
850.227	-59.18
850.397	-93.3
850.567	-257.17
850.737	-497.39
850.906	-1070
851.076	-966.41
851.246	-446.6
851.415	-15.67
851.585	-32.28
851.755	-82.49
851.924	-18.97
852.094	-81.29
852.264	-223.23
852.433	-1313.46
852.603	-217.82
852.772	-183.62
852.942	-33.08
853.111	-10.66
853.281	35.71
853.45	49.76
853.62	-7.39
853.789	-28.78
853.959	-17.37
854.128	-54.75
854.297	-54.04
854.467	-53.12
854.636	-28.26
854.805	-12.66
854.975	-5.44
855.144	-42.19
855.313	24.48
855.482	-213.14
855.652	-105.99
855.821	-82.27
855.99	27.79
856.159	36.44
856.328	28.33
856.497	30.59
856.667	36.73
856.836	18.62
857.005	-22.15
857.174	-33.49
857.343	-57.25
857.512	-45.38
857.681	-72.74
857.85	-134.28
858.019	-69.58
858.188	-62.37
858.356	-65.71
858.525	-102.71
858.694	-56.03
858.863	-123.59
859.032	-93.6
859.201	-149.5
859.369	-96.68
859.538	-62.13
859.707	-54.15
859.876	-91.01
860.044	-95.36
860.213	2.39
860.382	-3.8
860.55	5.13
860.719	41.01
860.888	39.66
861.056	-7.41
861.225	-13.57
861.393	7.72
861.562	11.32
861.73	-14.84
861.899	-22.51
862.067	-1131.03
862.236	-57.82
862.404	-227.67
862.572	-123.2
862.741	-19.21
862.909	-12.26
863.078	-117.29
863.246	-72.67
863.414	-70.53
863.582	-61.08
863.751	-88.82
863.919	-36.26
864.087	27.46
864.255	13.17
864.424	-256.18
864.592	5.22
864.76	-50.66
864.928	-219.2
865.096	-168.47
865.264	-81.13
865.432	-1904.55
865.6	-59
865.768	-91.16
865.936	-72.61
866.104	-128.51
866.272	-166.25
866.44	-436.22
866.608	662.5
866.776	304.36
866.944	2262.79
867.112	-441.53
867.28	-178.09
867.448	-82.14
867.615	-37.74
867.783	-13.5
867.951	-20.86
868.119	-25.06
868.286	-32.15
868.454	-164.36
868.622	-166.35
868.789	-132.33
868.957	-1592.86
869.125	-1747.37
869.292	-106.39
869.46	-190.63
869.627	-32.66
869.795	-31.05
869.963	2.12
870.13	22.58
870.298	31.31
870.465	-39.2
870.632	-75.48
870.8	-62.85
870.967	-108.66
871.135	-139.16
871.302	-120.48
871.469	-109.73
871.637	-104.98
871.804	-62.66
871.971	-77.87
872.139	-345.12
872.306	22.53
872.473	-38.22
872.64	-175.54
872.807	-17.86
872.975	88.57
873.142	-111.64
873.309	1356.76
873.476	58.58
873.643	83.99
873.81	45.5
873.977	88.58
874.144	80.58
874.311	-60.94
874.478	-106.95
874.645	-173.01
874.812	-117.07
874.979	-62.3
875.146	-64.25
875.313	-88.42
875.48	17.01
875.647	-16.25
875.813	-42.83
875.98	-5.82
876.147	-16.5
876.314	-94.93
876.481	757.02
876.647	-998.88
876.814	530.57
876.981	-171.15
877.147	-60.07
877.314	-25.51
877.481	-18.04
877.647	13.19
877.814	-27.36
877.98	-70.08
878.147	-15.64
878.314	67.89
878.48	7.2
878.647	46.05
878.813	75.45
878.979	52.27
879.146	-1.9
879.312	-9.17
879.479	-53.49
879.645	-175.11
879.811	-324.92
879.978	-873.28
880.144	-195.79
880.31	-88.14
880.477	-228.27
880.643	-192.61
880.809	-22.41
880.975	18.92
881.142	-300.91
881.308	30.86
881.474	24.03
881.64	-4.85
881.806	-57.31
881.972	1.49
882.138	-9.63
882.304	-8.07
882.47	-102.12
882.636	-426.23
882.802	-149.36
882.968	-28.57
883.134	14.76
883.3	27.19
883.466	39.96
883.632	67.62
883.798	42.71
883.964	21.07
884.129	14.18
884.295	16.39
884.461	-64.87
884.627	-87.39
884.793	-117.58
884.958	-90.79
885.124	-170.47
885.29	-231.97
885.455	-414.08
885.621	-114.49
885.787	-132.13
885.952	-80.43
886.118	-80.74
886.283	-82.05
886.449	-165.93
886.614	-144.82
886.78	-241.54
886.945	886.89
887.111	-434.1
887.276	-544.32
887.442	-1018.18
887.607	-508.49
887.773	-321.34
887.938	-240.73
888.103	-218.58
888.269	-142.17
888.434	-268.11
888.599	-150.95
888.764	-86.33
888.93	-37.34
889.095	-45.86
889.26	-59.01
889.425	-2.11
889.59	-22.63
889.756	-45.71
889.921	-27.26
890.086	17.73
890.251	-22.21
890.416	-138.9
890.581	-1341.94
890.746	252.14
890.911	495.54
891.076	164.85
891.241	-305.22
891.406	42.12
891.571	10.43
891.736	-136.7
891.901	-526.55
892.065	558.24
892.23	127.59
892.395	216.83
892.56	316.76
892.725	-410.94
892.889	-1582.93
893.054	-330.6
893.219	-133.75
893.384	-94.17
893.548	-116.82
893.713	-127.63
893.878	-79.44
