Data from Ofra_PS_T2_2A_4CX12_Reflection_2.txt Node
Date: Wed Jul 21 17:11:46 EDT 2021
User: Adam
Spectrometer: FLMT01687
Trigger mode: 0
Integration Time (sec): 1.100000E0
Scans to average: 2
Electric dark correction enabled: true
Nonlinearity correction enabled: false
Boxcar width: 2
XAxis mode: Wavelengths
Number of Pixels in Spectrum: 3648
>>>>>Begin Spectral Data<<<<<
179.494	633.8
179.716	712.47
179.937	687.35
180.158	664.81
180.38	1020.78
180.601	395.17
180.823	123.85
181.044	-114.57
181.265	-14.52
181.486	46.18
181.708	85.51
181.929	602.55
182.15	-529.93
182.372	27.96
182.593	-6.71
182.814	36.96
183.035	104.13
183.257	107.8
183.478	73.78
183.699	109.82
183.92	44.67
184.141	43.69
184.363	-29
184.584	34.75
184.805	28.52
185.026	63.78
185.247	55.37
185.468	50.05
185.689	41.15
185.91	42.12
186.132	42.9
186.353	29.63
186.574	73.07
186.795	73.86
187.016	41.14
187.237	35.77
187.458	44.2
187.679	24.7
187.9	-3.01
188.121	7.39
188.342	8.34
188.563	50.62
188.784	66.35
189.005	78.01
189.226	122.03
189.447	111.46
189.667	9.59
189.888	-158.74
190.109	-648.38
190.33	-546.61
190.551	-983.41
190.772	-184.08
190.993	-181.44
191.214	-161.41
191.434	-106.29
191.655	-47.64
191.876	-93.47
192.097	-120.85
192.318	-153.94
192.538	-174.56
192.759	-104.21
192.98	-41.44
193.201	-1.25
193.421	0.14
193.642	18.03
193.863	5.04
194.083	-17.64
194.304	-16.79
194.525	-13.1
194.745	-50.19
194.966	-49.42
195.187	-47.28
195.407	-74.88
195.628	-129.58
195.848	-112.24
196.069	-94.35
196.29	-16.25
196.51	-43.85
196.731	-24.17
196.951	-49.48
197.172	-39.03
197.392	-111.97
197.613	-85.93
197.833	-117.51
198.054	-74.68
198.274	-63.79
198.495	-68.94
198.715	-32.84
198.936	-47.54
199.156	-43.62
199.377	-99.91
199.597	-87.36
199.817	-125.46
200.038	-52.31
200.258	-122.15
200.479	-60.89
200.699	-38.91
200.919	30.77
201.14	13.37
201.36	6.76
201.58	38.19
201.801	58.28
202.021	32.96
202.241	17.36
202.461	30.96
202.682	-43.11
202.902	-106.28
203.122	-40.3
203.342	-19.66
203.563	0.14
203.783	35.87
204.003	2.29
204.223	-34.36
204.443	33.73
204.663	16.49
204.884	-2.06
205.104	42.46
205.324	78.5
205.544	56.57
205.764	69.58
205.984	73.17
206.204	75.19
206.424	47.73
206.644	2.56
206.864	2.27
207.084	-17.1
207.304	-65.32
207.525	-131.64
207.745	5.39
207.964	7.26
208.184	-50.34
208.404	-77.75
208.624	-78.84
208.844	-91.95
209.064	-350.75
209.284	-337.63
209.504	-118.43
209.724	10.59
209.944	9.02
210.164	39.36
210.384	35.84
210.604	11.99
210.823	-53.16
211.043	-60.41
211.263	-50.78
211.483	-54.84
211.703	-89.93
211.922	-49.61
212.142	2.46
212.362	36.66
212.582	33.09
212.801	39.6
213.021	14.02
213.241	16.7
213.461	-38.2
213.68	-43.46
213.9	-15.98
214.12	10.44
214.339	-56.53
214.559	-20.91
214.779	21.92
214.998	25.49
215.218	-5.17
215.438	19.71
215.657	10.7
215.877	-18.01
216.096	-4.28
216.316	5.1
216.535	1.54
216.755	2.41
216.974	-35.01
217.194	-87.36
217.413	-93.72
217.633	-70.59
217.852	-170.11
218.072	-76.69
218.291	-26.25
218.511	5.51
218.73	-37.06
218.95	-19.31
219.169	-22.41
219.389	-74.27
219.608	-66.5
219.827	-43.58
220.047	-48.82
220.266	-28.25
220.485	-8.37
220.705	11.3
220.924	-4.92
221.143	30.04
221.363	4.61
221.582	2.82
221.801	12.24
222.021	23.52
222.24	-44.59
222.459	32.83
222.678	44.57
222.897	-30.58
223.117	-85.56
223.336	-31.05
223.555	-20.25
223.774	32.27
223.993	75.33
224.213	142.18
224.432	108.16
224.651	105.5
224.87	63.07
225.089	66.46
225.308	48.47
225.527	49.29
225.746	49.58
225.965	33.4
226.184	6.03
226.404	6.19
226.623	-6.97
226.842	-13.25
227.061	18.13
227.28	25.05
227.499	29.58
227.718	35.8
227.936	38.92
228.155	56.49
228.374	27.66
228.593	23.46
228.812	33.48
229.031	13.7
229.25	-40.53
229.469	-27.09
229.688	-13.95
229.907	-0.32
230.125	22.27
230.344	24.32
230.563	38.12
230.782	37.13
231.001	-28.85
231.22	-28.32
231.438	5.24
231.657	-0.45
231.876	1.28
232.095	36.61
232.313	36.24
232.532	30.16
232.751	31.79
232.969	-6.38
233.188	-9.72
233.407	38.92
233.625	21.64
233.844	-9.09
234.063	7.29
234.281	20.64
234.5	-4.32
234.719	2.76
234.937	13.41
235.156	19.77
235.374	1.86
235.593	7.91
235.811	-4.44
236.03	0.15
236.249	-55.68
236.467	-27.1
236.686	-5.45
236.904	4.99
237.123	-7.44
237.341	5.36
237.559	7.56
237.778	8.52
237.996	-2.09
238.215	25.51
238.433	27.87
238.652	34.59
238.87	-9.44
239.088	-4.43
239.307	-10.51
239.525	2.45
239.743	-35.69
239.962	2.48
240.18	-10.09
240.398	-56.41
240.617	-68.98
240.835	-39.52
241.053	-57.32
241.271	-27.86
241.49	13.4
241.708	-9.15
241.926	-22.11
242.144	29.42
242.363	-12.17
242.581	-36.74
242.799	-21.21
243.017	1.12
243.235	-35.41
243.453	-20.81
243.672	-3.41
243.89	0.09
244.108	-3.89
244.326	23.82
244.544	28.59
244.762	11.02
244.98	16.8
245.198	26.7
245.416	8
245.634	12.21
245.852	18.86
246.07	32.05
246.288	23.75
246.506	-12.02
246.724	-9.7
246.942	-15.91
247.16	-7.16
247.378	0.8
247.596	24.72
247.814	29.22
248.032	14.24
248.25	27.85
248.468	24
248.685	46.92
248.903	60.06
249.121	56.51
249.339	17.79
249.557	2.11
249.775	-0.07
249.992	-64.72
250.21	-54.52
250.428	-24.06
250.646	-50.02
250.863	-83.23
251.081	-50.22
251.299	-32.51
251.517	-31.33
251.734	-4.22
251.952	-5
252.17	-5.91
252.387	-6.14
252.605	-24.42
252.823	-14.48
253.04	14.32
253.258	33.06
253.475	37.27
253.693	72.43
253.911	63.73
254.128	59.7
254.346	55.02
254.563	34.62
254.781	19.72
254.998	3.32
255.216	1.99
255.433	8.2
255.651	71.46
255.868	102.56
256.086	123.96
256.303	103.2
256.521	84.88
256.738	45.75
256.956	13.7
257.173	-13.47
257.39	-35.03
257.608	-47.44
257.825	33.57
258.043	74.54
258.26	62.64
258.477	93.03
258.695	83.01
258.912	5.44
259.129	4.23
259.346	-14.18
259.564	-40.38
259.781	-65.89
259.998	6.54
260.216	29.51
260.433	47.25
260.65	29.19
260.867	49.78
261.084	7.99
261.302	-17.56
261.519	-15.73
261.736	-14.46
261.953	-26.57
262.17	17.89
262.387	8.7
262.604	-33.99
262.822	-38.81
263.039	-23.32
263.256	-54.28
263.473	-41.5
263.69	-16.39
263.907	29.27
264.124	36.54
264.341	32.33
264.558	35.72
264.775	48.4
264.992	34.69
265.209	23.59
265.426	33.19
265.643	35.42
265.86	42.7
266.077	39.78
266.294	37.73
266.51	7.71
266.727	-35.15
266.944	-35.6
267.161	-36.68
267.378	-34.85
267.595	4.73
267.812	9.6
268.028	-8.05
268.245	0.67
268.462	-21.46
268.679	-37.94
268.896	5.98
269.112	15.72
269.329	18.18
269.546	33.85
269.763	25.18
269.979	19.52
270.196	6.92
270.413	-26.48
270.629	-69.97
270.846	-73.7
271.063	-62.22
271.279	-70.64
271.496	-56.11
271.712	-2.94
271.929	25.41
272.146	5.21
272.362	3.7
272.579	40.33
272.795	52.54
273.012	49.3
273.228	44.51
273.445	24.86
273.661	-15.54
273.878	-70.62
274.094	-78.85
274.311	-107.75
274.527	-14.93
274.744	-0.27
274.96	7.68
275.177	26.51
275.393	42.22
275.609	18.37
275.826	31.06
276.042	42.93
276.259	17.18
276.475	23.91
276.691	41.36
276.908	19.16
277.124	13.79
277.34	18.32
277.557	17.84
277.773	2.62
277.989	12.08
278.205	10.13
278.422	33.09
278.638	39.06
278.854	53.21
279.07	54.73
279.286	53.15
279.503	12.93
279.719	0.59
279.935	-26.05
280.151	-22.12
280.367	5.57
280.583	-9.63
280.799	-10.84
281.016	-11.23
281.232	1.04
281.448	-4.49
281.664	41.53
281.88	34.48
282.096	28.97
282.312	63.61
282.528	79.52
282.744	67.48
282.96	67.53
283.176	42.84
283.392	10.65
283.608	-9.66
283.824	-18.05
284.04	-17.65
284.256	2.36
284.471	-1.56
284.687	19.11
284.903	49.38
285.119	63.52
285.335	42.48
285.551	59.35
285.767	25.09
285.982	12.07
286.198	-32
286.414	13.86
286.63	20.57
286.846	48.58
287.061	24.77
287.277	65.08
287.493	32.71
287.709	53.98
287.924	25.99
288.14	52.17
288.356	42.99
288.571	70.55
288.787	42.78
289.003	50.18
289.218	39.01
289.434	-12.63
289.65	-17.81
289.865	-20.67
290.081	-6.05
290.296	-0.3
290.512	14.12
290.727	-12.76
290.943	-14.07
291.159	-22.97
291.374	-27.07
291.59	-36.18
291.805	-5.77
292.021	1.04
292.236	3.88
292.451	17.05
292.667	36.64
292.882	38.33
293.098	37.66
293.313	2.23
293.529	-20.16
293.744	-47.08
293.959	-47.28
294.175	-40.41
294.39	9.41
294.605	25.35
294.821	52.53
295.036	64.4
295.251	75.93
295.467	57.96
295.682	65.83
295.897	23.97
296.112	-10.01
296.328	-3.21
296.543	-42.04
296.758	-57.99
296.973	-3.79
297.188	34.17
297.404	-3.57
297.619	7.57
297.834	5.7
298.049	-25.57
298.264	-54.25
298.479	2.95
298.694	11.98
298.909	37.59
299.125	39.74
299.34	34.43
299.555	15.52
299.77	27.98
299.985	-33.07
300.2	-67.12
300.415	-57.77
300.63	-26.18
300.845	-35.17
301.06	-21.3
301.275	11.06
301.49	27
301.704	17.61
301.919	12.46
302.134	-2.72
302.349	-7.35
302.564	-75.57
302.779	-106.51
302.994	-64.15
303.209	-13.08
303.423	4
303.638	66.34
303.853	39.25
304.068	18.27
304.283	20.27
304.497	8.24
304.712	-1.94
304.927	14.07
305.142	-5.56
305.356	7.68
305.571	18.39
305.786	-10.04
306	-23.16
306.215	11
306.43	-20.96
306.644	-27.37
306.859	31.5
307.074	29.3
307.288	-15.74
307.503	-20.53
307.717	-27.42
307.932	-22.6
308.147	-36
308.361	-1.7
308.576	5.54
308.79	-20.93
309.005	-26.49
309.219	-2.67
309.434	-26.3
309.648	-32.63
309.863	-2.58
310.077	-6.77
310.292	-14.5
310.506	-10.96
310.72	2.87
310.935	16.47
311.149	25.57
311.364	40.39
311.578	58.9
311.792	53.65
312.007	42.21
312.221	29.2
312.435	28.21
312.649	3.34
312.864	-24.95
313.078	-10.49
313.292	27.93
313.507	-16.23
313.721	14.48
313.935	42.67
314.149	32.51
314.363	6.83
314.578	18.6
314.792	10.5
315.006	3.39
315.22	17.48
315.434	36.46
315.648	44.3
315.862	53.59
316.077	60.78
316.291	48.11
316.505	43.52
316.719	28.14
316.933	-7.6
317.147	-21.33
317.361	-66.66
317.575	-93.76
317.789	-131.05
318.003	-188.18
318.217	-143.01
318.431	-39.68
318.645	10.78
318.859	24.21
319.073	63.81
319.287	51.88
319.5	19.78
319.714	-17.39
319.928	-39.76
320.142	-80.07
320.356	-20.66
320.57	13.15
320.784	4.53
320.997	-18.19
321.211	-30.25
321.425	-97.23
321.639	-107.29
321.853	-34.14
322.066	-3.92
322.28	-4.83
322.494	23.09
322.707	47.83
322.921	36.42
323.135	37.53
323.349	62.96
323.562	40.72
323.776	12.66
323.989	9.18
324.203	-16.53
324.417	-38.45
324.63	-47.72
324.844	-50.92
325.057	-63.94
325.271	-33.82
325.485	-1.49
325.698	17.89
325.912	27.45
326.125	11.25
326.339	15.07
326.552	-7.43
326.766	-9.85
326.979	26.24
327.193	53.76
327.406	35.93
327.619	15.81
327.833	25.21
328.046	-11.95
328.26	-43.43
328.473	-11.72
328.686	-24.25
328.9	-17.85
329.113	1.72
329.326	8.09
329.54	15.48
329.753	7.45
329.966	-26.52
330.179	-12.35
330.393	-4.96
330.606	-8.73
330.819	19.55
331.032	29.26
331.246	29.01
331.459	54.33
331.672	49.2
331.885	41.65
332.098	20.46
332.311	10.57
332.525	-40.63
332.738	-13.66
332.951	16.7
333.164	54.7
333.377	63.14
333.59	73.58
333.803	65.29
334.016	44.37
334.229	25.45
334.442	32.37
334.655	38.61
334.868	40.6
335.081	38.92
335.294	29.34
335.507	24.54
335.72	19.26
335.933	-7.58
336.146	-2.55
336.359	15.13
336.572	-24.9
336.785	-64.15
336.997	-28.96
337.21	-4.16
337.423	-26.22
337.636	-9.57
337.849	22.31
338.062	14.08
338.274	7.81
338.487	9.68
338.7	8.17
338.913	-40.39
339.125	-69.75
339.338	-119.66
339.551	-62.61
339.763	-22.1
339.976	18.26
340.189	39.66
340.402	67.14
340.614	41.23
340.827	22.31
341.039	10.29
341.252	14.35
341.465	15.3
341.677	16.32
341.89	5.16
342.102	28.24
342.315	6.09
342.527	-14.5
342.74	-30.72
342.952	-3.22
343.165	-16.8
343.377	28.94
343.59	15.81
343.802	39.47
344.015	42.39
344.227	46.5
344.44	33.7
344.652	48.61
344.864	33.18
345.077	40.24
345.289	38.92
345.502	36.01
345.714	23.84
345.926	35.14
346.139	19.77
346.351	33.84
346.563	37.22
346.775	46.12
346.988	25.82
347.2	21.59
347.412	-12.4
347.624	-31.19
347.837	-48.1
348.049	-19.59
348.261	12.01
348.473	12.59
348.685	4.55
348.897	-4.44
349.11	-25.09
349.322	-40.68
349.534	-11.11
349.746	-8.85
349.958	26.59
350.17	45.14
350.382	53.07
350.594	52.3
350.806	53.74
351.018	42.69
351.23	28.77
351.442	-23.42
351.654	-46.66
351.866	-33.21
352.078	-36.08
352.29	-14.11
352.502	2.84
352.714	21.08
352.926	7.29
353.138	6.91
353.35	-0.17
353.561	3.78
353.773	-20.59
353.985	-3.95
354.197	-8.5
354.409	-5.24
354.621	-4.24
354.832	5.99
355.044	0.21
355.256	7.81
355.468	24.62
355.679	17.91
355.891	22.24
356.103	12.38
356.314	22.34
356.526	19.68
356.738	25.93
356.949	12.89
357.161	24.99
357.373	2.35
357.584	-9.62
357.796	-5.03
358.008	-3.64
358.219	4.27
358.431	12.89
358.642	13.22
358.854	16.29
359.065	10.22
359.277	-8.42
359.488	-25.54
359.7	-45.15
359.911	-59.81
360.123	-37.56
360.334	-49.28
360.546	-60.45
360.757	-36
360.969	-23.43
361.18	-8.16
361.391	20.36
361.603	10.88
361.814	11.49
362.025	7.14
362.237	-5.18
362.448	3.35
362.659	24.23
362.871	18.33
363.082	13.76
363.293	8
363.504	-17.9
363.716	-45.64
363.927	-49.22
364.138	-72.17
364.349	-66.29
364.56	-57.4
364.772	-40.35
364.983	-11.93
365.194	3.4
365.405	13.54
365.616	40.04
365.827	33.38
366.038	6.82
366.25	-3.16
366.461	-24.59
366.672	-12.88
366.883	14.02
367.094	16.02
367.305	4.79
367.516	5.86
367.727	-24.14
367.938	-36.91
368.149	-33.07
368.36	-15.45
368.571	-18.11
368.781	-27.91
368.992	-31.78
369.203	-62.56
369.414	-78.58
369.625	-73.42
369.836	-65.96
370.047	-88.36
370.258	-51.42
370.468	-48
370.679	-58.08
370.89	-47.92
371.101	-25.72
371.312	-34.3
371.522	-24.96
371.733	-13.9
371.944	-0.59
372.155	-1.39
372.365	-4.32
372.576	-1.9
372.787	-3.03
372.997	-24.96
373.208	-20.51
373.419	12.34
373.629	-22.2
373.84	-27.81
374.05	-25.17
374.261	-26.94
374.472	-56.95
374.682	-1.8
374.893	-0.93
375.103	38.72
375.314	37.27
375.524	38.78
375.735	35.31
375.945	44.84
376.156	9.72
376.366	13.02
376.577	17.88
376.787	10.52
376.997	14.17
377.208	19.47
377.418	7.62
377.629	19.93
377.839	13.23
378.049	8.9
378.26	16.08
378.47	22.77
378.68	4.63
378.89	5.72
379.101	0.15
379.311	-21.85
379.521	-52.23
379.732	-36.36
379.942	-32.28
380.152	-53.01
380.362	-24.63
380.572	-10.16
380.783	2.25
380.993	8.14
381.203	31.69
381.413	39.76
381.623	46.12
381.833	38.74
382.043	22.2
382.253	5.28
382.463	2.73
382.674	-9.18
382.884	-29.55
383.094	-19
383.304	-3.3
383.514	1.78
383.724	14.36
383.934	11.28
384.144	1.28
384.353	-7.59
384.563	-11.02
384.773	-6.4
384.983	-5.43
385.193	8.39
385.403	6.5
385.613	5.74
385.823	-3.1
386.033	1.13
386.242	-1.79
386.452	0.61
386.662	-8.76
386.872	5.16
387.082	-0.6
387.291	-8.87
387.501	-6.48
387.711	1.36
387.921	-9.69
388.13	-3.05
388.34	13.43
388.55	6.82
388.759	8.33
388.969	14.66
389.179	12.8
389.388	3.62
389.598	7.92
389.807	1.71
390.017	-5.65
390.227	-6.77
390.436	-7.42
390.646	-4.6
390.855	-1.72
391.065	1.26
391.274	1.14
391.484	2.18
391.693	2.95
391.903	6.42
392.112	11.86
392.322	15.33
392.531	18.52
392.74	20.21
392.95	14.72
393.159	12.25
393.369	10.86
393.578	12.08
393.787	9.06
393.997	11.29
394.206	8.94
394.415	9.81
394.625	8.39
394.834	6.28
395.043	6.35
395.252	9.05
395.462	10.78
395.671	11.7
395.88	13.63
396.089	14.79
396.298	13.34
396.508	11.68
396.717	11.17
396.926	11.92
397.135	10.36
397.344	10.14
397.553	11.25
397.762	12.03
397.971	11.13
398.181	13.03
398.39	13.22
398.599	13.37
398.808	13.3
399.017	14.52
399.226	14.96
399.435	15.65
399.644	15.45
399.853	14.74
400.062	14.08
400.27	13.07
400.479	12.56
400.688	11.81
400.897	12.11
401.106	12.02
401.315	11.87
401.524	11.8
401.733	12.27
401.941	12.53
402.15	12.59
402.359	12.39
402.568	12.57
402.777	12.64
402.985	12.19
403.194	12.07
403.403	12.27
403.612	12.21
403.82	11.91
404.029	12.37
404.238	12.41
404.446	12.62
404.655	12.34
404.864	12.37
405.072	11.81
405.281	11.84
405.489	11.45
405.698	11.4
405.906	11.5
406.115	11.63
406.324	11.43
406.532	11.69
406.741	11.96
406.949	11.81
407.158	11.89
407.366	12.07
407.574	11.86
407.783	11.84
407.991	11.71
408.2	11.76
408.408	11.68
408.617	11.47
408.825	11.08
409.033	11.2
409.242	11.16
409.45	11.29
409.658	11.33
409.867	11.57
410.075	11.39
410.283	11.22
410.491	10.95
410.7	10.84
410.908	10.84
411.116	11.16
411.324	11.21
411.533	11.08
411.741	11.37
411.949	11.22
412.157	10.86
412.365	10.7
412.573	10.7
412.781	10.68
412.99	10.56
413.198	10.61
413.406	10.61
413.614	10.63
413.822	10.46
414.03	10.46
414.238	10.29
414.446	10.34
414.654	10.13
414.862	10.12
415.07	10.16
415.278	10.39
415.486	10.13
415.694	10.32
415.902	10
416.109	9.94
416.317	9.76
416.525	9.8
416.733	9.67
416.941	9.99
417.149	9.96
417.357	10.05
417.564	10.2
417.772	10.31
417.98	10.18
418.188	10.27
418.395	10.28
418.603	10.29
418.811	9.96
419.019	9.96
419.226	10.08
419.434	10.18
419.642	9.81
419.849	10.14
420.057	10.24
420.265	10.01
420.472	9.8
420.68	10
420.887	9.77
421.095	9.68
421.302	9.62
421.51	9.62
421.717	9.71
421.925	9.91
422.132	9.73
422.34	9.48
422.547	9.58
422.755	9.38
422.962	9.18
423.17	9.22
423.377	9.54
423.585	9.41
423.792	9.42
423.999	9.5
424.207	9.56
424.414	9.66
424.621	9.73
424.829	9.73
425.036	9.7
425.243	9.75
425.451	9.58
425.658	9.22
425.865	9.42
426.072	9.47
426.28	9.64
426.487	9.54
426.694	9.78
426.901	9.53
427.108	9.48
427.315	9.31
427.523	9.47
427.73	9.4
427.937	9.33
428.144	9.1
428.351	9.15
428.558	9.34
428.765	9.36
428.972	9.42
429.179	9.77
429.386	9.98
429.593	9.71
429.8	9.67
430.007	9.88
430.214	9.84
430.421	9.53
430.628	9.38
430.835	9.24
431.042	9.34
431.249	9.49
431.456	9.5
431.662	9.63
431.869	9.84
432.076	9.84
432.283	9.77
432.49	9.83
432.697	9.9
432.903	9.78
433.11	9.67
433.317	9.85
433.524	10.06
433.73	10.06
433.937	10.4
434.144	10.3
434.35	10.23
434.557	10
434.764	10.02
434.97	9.83
435.177	10.05
435.384	9.89
435.59	9.91
435.797	10.1
436.003	10.17
436.21	10.13
436.416	10.25
436.623	10.35
436.829	10.36
437.036	10.45
437.242	10.45
437.449	10.5
437.655	10.45
437.862	10.38
438.068	10.17
438.275	10.27
438.481	10.47
438.687	10.55
438.894	10.55
439.1	10.73
439.307	10.76
439.513	10.56
439.719	10.52
439.926	10.56
440.132	10.43
440.338	10.39
440.544	10.46
440.751	10.43
440.957	10.52
441.163	10.48
441.369	10.45
441.575	10.31
441.782	10.4
441.988	10.22
442.194	10.33
442.4	10.39
442.606	10.68
442.812	10.72
443.018	10.78
443.224	10.85
443.431	10.89
443.637	10.56
443.843	10.45
444.049	10.48
444.255	10.34
444.461	10.35
444.667	10.44
444.873	10.56
445.079	10.61
445.284	10.82
445.49	10.7
445.696	10.65
445.902	10.55
446.108	10.47
446.314	10.35
446.52	10.44
446.726	10.65
446.931	10.77
447.137	10.87
447.343	11.02
447.549	10.89
447.755	10.73
447.96	10.76
448.166	10.72
448.372	10.62
448.578	10.83
448.783	10.85
448.989	10.9
449.195	11.13
449.4	11.08
449.606	10.99
449.812	10.94
450.017	10.96
450.223	10.79
450.428	10.81
450.634	10.83
450.84	10.94
451.045	10.81
451.251	10.78
451.456	11.04
451.662	11.17
451.867	11.28
452.073	11.35
452.278	11.42
452.483	11.48
452.689	11.34
452.894	11.39
453.1	11.41
453.305	11.32
453.51	11.16
453.716	11.12
453.921	11.02
454.127	11.02
454.332	10.98
454.537	10.96
454.742	11.03
454.948	11.1
455.153	11.09
455.358	11.24
455.563	11.42
455.769	11.6
455.974	11.51
456.179	11.45
456.384	11.45
456.589	11.24
456.795	11.05
457	11.11
457.205	11.31
457.41	11.31
457.615	11.41
457.82	11.4
458.025	11.28
458.23	11.11
458.435	11.09
458.64	10.96
458.845	11.19
459.05	11.31
459.255	11.39
459.46	11.5
459.665	11.62
459.87	11.6
460.075	11.57
460.28	11.64
460.485	11.66
460.69	11.7
460.895	11.55
461.099	11.46
461.304	11.48
461.509	11.41
461.714	11.31
461.919	11.49
462.123	11.52
462.328	11.61
462.533	11.51
462.738	11.64
462.942	11.47
463.147	11.54
463.352	11.5
463.556	11.58
463.761	11.57
463.966	11.7
464.17	11.77
464.375	11.73
464.58	11.81
464.784	11.8
464.989	11.82
465.193	11.81
465.398	11.89
465.602	11.95
465.807	11.8
466.011	11.76
466.216	11.89
466.42	11.93
466.625	12.01
466.829	12.27
467.034	12.34
467.238	12.47
467.443	12.44
467.647	12.35
467.851	12.32
468.056	12.37
468.26	12.16
468.464	12.19
468.669	12.3
468.873	12.43
469.077	12.4
469.282	12.48
469.486	12.48
469.69	12.52
469.894	12.35
470.099	12.47
470.303	12.55
470.507	12.52
470.711	12.46
470.915	12.51
471.119	12.42
471.324	12.33
471.528	12.47
471.732	12.49
471.936	12.57
472.14	12.68
472.344	12.71
472.548	12.74
472.752	12.9
472.956	13.12
473.16	13.15
473.364	13.14
473.568	13.09
473.772	13.05
473.976	12.94
474.18	12.82
474.384	12.93
474.588	12.86
474.792	12.7
474.995	12.68
475.199	12.87
475.403	12.96
475.607	13.11
475.811	13.15
476.015	13.25
476.218	13.24
476.422	13.11
476.626	13.17
476.83	13.3
477.033	13.27
477.237	13.21
477.441	13.33
477.644	13.31
477.848	13.32
478.052	13.17
478.255	13.2
478.459	13.15
478.663	13.29
478.866	13.31
479.07	13.47
479.273	13.64
479.477	13.69
479.681	13.54
479.884	13.54
480.088	13.53
480.291	13.45
480.495	13.48
480.698	13.5
480.901	13.57
481.105	13.66
481.308	13.62
481.512	13.64
481.715	13.85
481.919	13.9
482.122	13.91
482.325	13.93
482.529	13.9
482.732	13.74
482.935	13.6
483.138	13.5
483.342	13.62
483.545	13.7
483.748	13.79
483.952	13.92
484.155	14.14
484.358	14.17
484.561	14.11
484.764	14.02
484.967	14.05
485.171	14.02
485.374	13.85
485.577	13.98
485.78	14.01
485.983	13.98
486.186	13.85
486.389	13.94
486.592	13.91
486.795	13.97
486.998	13.95
487.201	14.05
487.404	14.03
487.607	14.08
487.81	14.12
488.013	14.17
488.216	14.07
488.419	14.05
488.622	13.97
488.825	13.86
489.028	13.77
489.231	13.77
489.433	13.75
489.636	13.7
489.839	13.73
490.042	13.67
490.245	13.72
490.447	13.77
490.65	13.76
490.853	13.73
491.056	13.79
491.258	13.81
491.461	13.77
491.664	13.88
491.866	13.84
492.069	13.94
492.272	13.85
492.474	13.92
492.677	13.96
492.879	14.01
493.082	14.1
493.285	14.21
493.487	14.16
493.69	14.11
493.892	14.01
494.095	13.92
494.297	13.89
494.5	13.97
494.702	13.9
494.905	14.07
495.107	14.01
495.309	14.04
495.512	14.07
495.714	14.2
495.917	14.2
496.119	14.32
496.321	14.37
496.524	14.42
496.726	14.39
496.928	14.34
497.13	14.22
497.333	14.19
497.535	14.25
497.737	14.19
497.939	14.22
498.142	14.29
498.344	14.22
498.546	14.04
498.748	14.16
498.95	14.26
499.152	14.21
499.355	14.33
499.557	14.4
499.759	14.46
499.961	14.41
500.163	14.45
500.365	14.43
500.567	14.51
500.769	14.41
500.971	14.39
501.173	14.39
501.375	14.46
501.577	14.43
501.779	14.44
501.981	14.5
502.183	14.53
502.385	14.5
502.587	14.48
502.788	14.54
502.99	14.58
503.192	14.6
503.394	14.55
503.596	14.63
503.798	14.68
503.999	14.68
504.201	14.68
504.403	14.77
504.605	14.79
504.806	14.71
505.008	14.8
505.21	14.9
505.411	14.9
505.613	14.91
505.815	14.94
506.016	14.93
506.218	14.9
506.42	14.85
506.621	14.91
506.823	14.97
507.024	14.9
507.226	14.88
507.427	14.94
507.629	14.98
507.83	15.05
508.032	15.09
508.233	15.28
508.435	15.36
508.636	15.42
508.838	15.33
509.039	15.36
509.24	15.29
509.442	15.34
509.643	15.19
509.845	15.24
510.046	15.32
510.247	15.39
510.448	15.34
510.65	15.51
510.851	15.61
511.052	15.6
511.254	15.54
511.455	15.72
511.656	15.74
511.857	15.71
512.058	15.67
512.26	15.7
512.461	15.63
512.662	15.64
512.863	15.6
513.064	15.66
513.265	15.68
513.466	15.73
513.667	15.68
513.868	15.73
514.069	15.83
514.27	15.96
514.471	15.92
514.672	15.97
514.873	15.91
515.074	15.92
515.275	15.75
515.476	15.74
515.677	15.71
515.878	15.9
516.079	15.78
516.28	15.85
516.481	16.04
516.682	16.09
516.882	15.96
517.083	16.03
517.284	15.99
517.485	15.85
517.686	15.87
517.886	15.98
518.087	15.97
518.288	16.04
518.488	16.04
518.689	16.04
518.89	15.96
519.091	16.05
519.291	16.06
519.492	16.11
519.692	16.17
519.893	16.28
520.094	16.23
520.294	16.13
520.495	16.07
520.695	16.08
520.896	16.02
521.096	16.07
521.297	16.19
521.497	16.24
521.698	16.18
521.898	16.19
522.099	16.15
522.299	16.25
522.499	16.29
522.7	16.34
522.9	16.36
523.101	16.45
523.301	16.39
523.501	16.35
523.702	16.36
523.902	16.38
524.102	16.43
524.302	16.41
524.503	16.48
524.703	16.44
524.903	16.5
525.103	16.4
525.304	16.5
525.504	16.55
525.704	16.62
525.904	16.56
526.104	16.56
526.304	16.5
526.504	16.47
526.705	16.44
526.905	16.52
527.105	16.55
527.305	16.57
527.505	16.51
527.705	16.5
527.905	16.55
528.105	16.53
528.305	16.47
528.505	16.56
528.705	16.68
528.905	16.59
529.105	16.58
529.304	16.72
529.504	16.77
529.704	16.71
529.904	16.75
530.104	16.87
530.304	16.9
530.503	16.85
530.703	16.85
530.903	16.93
531.103	16.9
531.303	16.84
531.502	16.86
531.702	16.94
531.902	16.85
532.101	16.78
532.301	16.82
532.501	16.85
532.7	16.81
532.9	16.83
533.1	16.89
533.299	16.93
533.499	16.9
533.698	16.93
533.898	16.97
534.097	17.05
534.297	17.05
534.496	17.09
534.696	17.14
534.895	17.22
535.095	17.27
535.294	17.31
535.494	17.3
535.693	17.29
535.892	17.28
536.092	17.2
536.291	17.18
536.491	17.31
536.69	17.41
536.889	17.37
537.088	17.36
537.288	17.39
537.487	17.44
537.686	17.37
537.886	17.49
538.085	17.56
538.284	17.65
538.483	17.58
538.682	17.66
538.882	17.63
539.081	17.73
539.28	17.63
539.479	17.61
539.678	17.6
539.877	17.68
540.076	17.66
540.275	17.74
540.474	17.94
540.673	18.01
540.872	18.01
541.071	18.06
541.27	18.05
541.469	17.97
541.668	17.96
541.867	17.95
542.066	17.91
542.265	18.02
542.464	18.06
542.663	18.13
542.862	18.34
543.06	18.51
543.259	18.6
543.458	18.64
543.657	18.69
543.856	18.65
544.054	18.58
544.253	18.53
544.452	18.59
544.651	18.71
544.849	18.65
545.048	18.78
545.247	18.87
545.445	18.89
545.644	18.82
545.843	18.94
546.041	18.9
546.24	18.99
546.438	19.06
546.637	19.13
546.836	19.19
547.034	19.29
547.233	19.31
547.431	19.31
547.63	19.38
547.828	19.38
548.027	19.44
548.225	19.33
548.423	19.37
548.622	19.45
548.82	19.45
549.019	19.46
549.217	19.67
549.415	19.74
549.614	19.81
549.812	19.92
550.01	19.91
550.209	20.01
550.407	20.1
550.605	20.16
550.803	20.25
551.002	20.41
551.2	20.43
551.398	20.54
551.596	20.62
551.794	20.67
551.993	20.7
552.191	20.78
552.389	20.87
552.587	20.9
552.785	21
552.983	21.12
553.181	21.19
553.379	21.23
553.577	21.36
553.775	21.4
553.973	21.47
554.171	21.56
554.369	21.61
554.567	21.58
554.765	21.68
554.963	21.79
555.161	21.75
555.359	21.86
555.557	22.04
555.755	22.1
555.952	22.23
556.15	22.35
556.348	22.42
556.546	22.49
556.744	22.57
556.941	22.58
557.139	22.68
557.337	22.73
557.535	22.79
557.732	22.9
557.93	23.01
558.128	23.13
558.325	23.27
558.523	23.35
558.721	23.49
558.918	23.61
559.116	23.75
559.313	23.83
559.511	23.97
559.708	23.96
559.906	24.03
560.104	24.09
560.301	24.18
560.498	24.34
560.696	24.45
560.893	24.56
561.091	24.67
561.288	24.74
561.486	24.75
561.683	24.89
561.88	25.02
562.078	25.16
562.275	25.18
562.473	25.29
562.67	25.49
562.867	25.51
563.064	25.63
563.262	25.77
563.459	25.95
563.656	25.98
563.853	26.13
564.051	26.18
564.248	26.43
564.445	26.51
564.642	26.56
564.839	26.68
565.036	26.82
565.234	26.92
565.431	27.02
565.628	27.15
565.825	27.26
566.022	27.38
566.219	27.47
566.416	27.47
566.613	27.58
566.81	27.74
567.007	27.69
567.204	27.68
567.401	27.8
567.598	27.87
567.795	27.88
567.991	27.98
568.188	28.07
568.385	28.23
568.582	28.29
568.779	28.37
568.976	28.57
569.172	28.75
569.369	28.72
569.566	28.83
569.763	28.94
569.96	28.99
570.156	28.94
570.353	28.97
570.55	29.03
570.746	29.03
570.943	29.05
571.14	29.05
571.336	29.27
571.533	29.36
571.729	29.41
571.926	29.38
572.123	29.55
572.319	29.53
572.516	29.52
572.712	29.51
572.909	29.58
573.105	29.61
573.302	29.67
573.498	29.78
573.695	29.8
573.891	29.83
574.087	29.91
574.284	29.85
574.48	29.82
574.677	29.94
574.873	29.99
575.069	30.04
575.266	30.16
575.462	30.12
575.658	30.19
575.854	30.26
576.051	30.2
576.247	30.13
576.443	30.21
576.639	30.11
576.835	30.05
577.032	30.17
577.228	30.35
577.424	30.37
577.62	30.42
577.816	30.45
578.012	30.46
578.208	30.41
578.404	30.4
578.6	30.36
578.796	30.37
578.993	30.27
579.189	30.21
579.384	30.08
579.58	29.96
579.776	29.99
579.972	30.02
580.168	29.87
580.364	29.98
580.56	30.12
580.756	30.04
580.952	29.93
581.148	30.03
581.343	30.09
581.539	30.13
581.735	30.22
581.931	30.26
582.127	30.34
582.322	30.28
582.518	30.26
582.714	30.17
582.909	30.19
583.105	30.06
583.301	29.92
583.496	30
583.692	29.99
583.888	29.98
584.083	30.1
584.279	30.29
584.474	30.17
584.67	30.21
584.866	30.14
585.061	29.93
585.257	29.89
585.452	29.85
585.648	29.77
585.843	29.94
586.039	30.02
586.234	30.02
586.429	30.05
586.625	30.08
586.82	29.96
587.015	29.97
587.211	29.79
587.406	29.79
587.601	29.84
587.797	29.85
587.992	29.86
588.187	30.04
588.383	29.96
588.578	29.9
588.773	29.93
588.968	29.93
589.163	29.92
589.359	30.02
589.554	30.01
589.749	30.02
589.944	30.07
590.139	29.97
590.334	29.91
590.529	29.9
590.724	30.01
590.919	30.04
591.114	30.18
591.309	30.3
591.504	30.45
591.699	30.34
591.894	30.49
592.089	30.46
592.284	30.47
592.479	30.52
592.674	30.59
592.869	30.53
593.064	30.62
593.259	30.81
593.454	30.89
593.648	30.99
593.843	31.01
594.038	31.02
594.233	30.95
594.428	30.86
594.622	30.9
594.817	31.14
595.012	31.18
595.206	31.23
595.401	31.34
595.596	31.31
595.79	31.33
595.985	31.59
596.18	31.66
596.374	31.86
596.569	31.98
596.763	31.86
596.958	31.83
597.153	31.98
597.347	31.83
597.542	31.96
597.736	32
597.931	32.12
598.125	32.09
598.319	32.36
598.514	32.36
598.708	32.49
598.903	32.44
599.097	32.51
599.291	32.47
599.486	32.4
599.68	32.45
599.874	32.52
600.069	32.55
600.263	32.52
600.457	32.65
600.651	32.64
600.846	32.76
601.04	32.8
601.234	32.82
601.428	32.86
601.622	32.99
601.817	32.96
602.011	33.08
602.205	33.18
602.399	33.16
602.593	33.17
602.787	33.17
602.981	33.07
603.175	33.13
603.369	33.1
603.563	33.03
603.757	33.1
603.951	33.15
604.145	33.15
604.339	33.24
604.533	33.19
604.727	33.19
604.921	33.23
605.115	33.23
605.309	33.29
605.502	33.41
605.696	33.29
605.89	33.14
606.084	33.1
606.278	32.98
606.471	32.86
606.665	32.87
606.859	32.74
607.053	32.67
607.246	32.53
607.44	32.49
607.634	32.44
607.827	32.56
608.021	32.46
608.214	32.51
608.408	32.54
608.602	32.47
608.795	32.44
608.989	32.4
609.182	32.44
609.376	32.33
609.569	32.25
609.763	32.08
609.956	31.91
610.15	31.78
610.343	31.74
610.537	31.62
610.73	31.67
610.923	31.71
611.117	31.65
611.31	31.52
611.504	31.49
611.697	31.37
611.89	31.34
612.083	31.15
612.277	31.22
612.47	31.1
612.663	31.01
612.856	30.87
613.05	30.81
613.243	30.63
613.436	30.58
613.629	30.49
613.822	30.34
614.015	30.37
614.209	30.21
614.402	30.34
614.595	30.36
614.788	30.39
614.981	30.23
615.174	30.13
615.367	29.86
615.56	29.81
615.753	29.75
615.946	29.67
616.139	29.75
616.332	29.96
616.525	29.92
616.718	29.86
616.911	29.88
617.103	29.87
617.296	29.68
617.489	29.54
617.682	29.59
617.875	29.48
618.067	29.34
618.26	29.24
618.453	29.28
618.646	29.22
618.838	29.28
619.031	29.33
619.224	29.31
619.417	29.24
619.609	29.2
619.802	29.08
619.994	29.06
620.187	28.96
620.38	28.98
620.572	28.88
620.765	28.97
620.957	28.86
621.15	28.81
621.342	28.71
621.535	28.69
621.727	28.59
621.92	28.54
622.112	28.53
622.305	28.59
622.497	28.58
622.69	28.57
622.882	28.58
623.074	28.67
623.267	28.56
623.459	28.47
623.651	28.37
623.844	28.38
624.036	28.41
624.228	28.37
624.42	28.4
624.613	28.53
624.805	28.48
624.997	28.35
625.189	28.35
625.381	28.34
625.574	28.12
625.766	27.95
625.958	27.93
626.15	27.96
626.342	27.9
626.534	27.95
626.726	28
626.918	27.87
627.11	27.72
627.302	27.77
627.494	27.73
627.686	27.78
627.878	27.75
628.07	27.73
628.262	27.64
628.454	27.58
628.646	27.46
628.838	27.55
629.029	27.47
629.221	27.43
629.413	27.36
629.605	27.38
629.797	27.34
629.989	27.35
630.18	27.25
630.372	27.29
630.564	27.15
630.755	27.12
630.947	27.09
631.139	27.02
631.33	26.89
631.522	27.04
631.714	26.98
631.905	27
632.097	26.99
632.289	27.01
632.48	26.83
632.672	26.71
632.863	26.58
633.055	26.56
633.246	26.62
633.438	26.56
633.629	26.59
633.821	26.61
634.012	26.56
634.203	26.33
634.395	26.37
634.586	26.41
634.777	26.35
634.969	26.41
635.16	26.54
635.351	26.49
635.543	26.44
635.734	26.47
635.925	26.42
636.117	26.42
636.308	26.45
636.499	26.4
636.69	26.24
636.881	26.12
637.073	26.14
637.264	26.02
637.455	25.97
637.646	26.14
637.837	26.22
638.028	26.07
638.219	26.17
638.41	26.05
638.601	25.9
638.792	25.91
638.983	25.87
639.174	25.78
639.365	25.88
639.556	25.96
639.747	25.93
639.938	26.02
640.129	25.96
640.32	25.88
640.511	25.82
640.701	25.91
640.892	25.72
641.083	25.79
641.274	25.86
641.465	25.79
641.655	25.56
641.846	25.69
642.037	25.65
642.228	25.56
642.418	25.59
642.609	25.62
642.8	25.59
642.99	25.5
643.181	25.59
643.372	25.55
643.562	25.57
643.753	25.43
643.943	25.37
644.134	25.23
644.324	25.14
644.515	25.13
644.705	25.24
644.896	25.28
645.086	25.27
645.277	25.3
645.467	25.17
645.658	25.06
645.848	25.14
646.038	25.1
646.229	25.08
646.419	24.99
646.61	25.01
646.8	24.78
646.99	24.8
647.18	24.75
647.371	24.92
647.561	24.85
647.751	24.94
647.941	24.81
648.132	24.79
648.322	24.67
648.512	24.66
648.702	24.63
648.892	24.61
649.082	24.6
649.272	24.52
649.462	24.4
649.653	24.26
649.843	24.23
650.033	24.23
650.223	24.16
650.413	24.16
650.603	24.25
650.793	24.26
650.983	24.23
651.172	24.24
651.362	24.22
651.552	24.09
651.742	23.94
651.932	23.83
652.122	23.79
652.312	23.87
652.502	23.85
652.691	23.91
652.881	23.95
653.071	23.93
653.261	23.78
653.45	23.61
653.64	23.56
653.83	23.25
654.019	23.07
654.209	22.97
654.399	22.95
654.588	22.8
654.778	22.81
654.968	22.71
655.157	22.61
655.347	22.55
655.536	22.41
655.726	22.2
655.915	22.02
656.105	21.73
656.294	21.63
656.484	21.45
656.673	21.46
656.863	21.47
657.052	21.31
657.241	20.98
657.431	20.81
657.62	20.58
657.809	20.35
657.999	20.26
658.188	20.1
658.377	19.99
658.567	19.88
658.756	19.62
658.945	19.49
659.134	19.33
659.324	19.24
659.513	19.09
659.702	18.99
659.891	18.92
660.08	18.84
660.269	18.7
660.458	18.46
660.648	18.34
660.837	18.13
661.026	17.96
661.215	17.65
661.404	17.55
661.593	17.38
661.782	17.11
661.971	17
662.16	16.92
662.349	16.72
662.538	16.51
662.726	16.54
662.915	16.28
663.104	16.09
663.293	16.02
663.482	16.03
663.671	15.76
663.86	15.65
664.048	15.48
664.237	15.4
664.426	15.16
664.615	15.12
664.803	15.07
664.992	15.02
665.181	14.87
665.369	14.73
665.558	14.56
665.747	14.46
665.935	14.46
666.124	14.44
666.312	14.42
666.501	14.36
666.69	14.23
666.878	14.14
667.067	13.89
667.255	13.93
667.444	14.27
667.632	14.31
667.82	14.32
668.009	14.37
668.197	14.36
668.386	14.07
668.574	14.11
668.762	13.99
668.951	13.93
669.139	13.83
669.327	13.69
669.516	13.75
669.704	13.71
669.892	13.86
670.08	13.91
670.269	13.89
670.457	13.82
670.645	13.81
670.833	13.92
671.021	13.83
671.21	13.87
671.398	14.01
671.586	14.02
671.774	13.75
671.962	13.89
672.15	13.98
672.338	13.71
672.526	13.79
672.714	13.8
672.902	13.82
673.09	13.95
673.278	14.31
673.466	14.4
673.654	14.73
673.842	14.73
674.03	14.67
674.218	14.47
674.405	14.49
674.593	14.3
674.781	14.38
674.969	14.48
675.157	14.66
675.344	14.88
675.532	15.02
675.72	15.15
675.908	15.29
676.095	15.3
676.283	15.28
676.471	15.55
676.658	15.59
676.846	15.6
677.033	15.8
677.221	15.89
677.409	15.7
677.596	15.7
677.784	15.77
677.971	15.78
678.159	15.96
678.346	16.13
678.534	16.42
678.721	16.75
678.909	16.73
679.096	16.77
679.283	17.02
679.471	17.08
679.658	17.09
679.846	17.58
680.033	17.91
680.22	17.92
680.408	18.06
680.595	18.17
680.782	18.08
680.969	18.17
681.157	18.5
681.344	18.56
681.531	18.68
681.718	18.68
681.905	18.92
682.093	19.03
682.28	19.49
682.467	19.83
682.654	20.14
682.841	20.07
683.028	20.3
683.215	20.3
683.402	20.31
683.589	20.57
683.776	21.04
683.963	21.09
684.15	21.34
684.337	21.67
684.524	21.84
684.711	22.14
684.898	22.5
685.085	22.7
685.271	23.16
685.458	23.56
685.645	23.68
685.832	23.95
686.019	24.44
686.205	24.54
686.392	24.87
686.579	25.25
686.766	25.8
686.952	25.98
687.139	26.6
687.326	26.82
687.512	27.3
687.699	27.64
687.886	27.99
688.072	28.23
688.259	28.87
688.445	29.38
688.632	29.56
688.818	30.41
689.005	30.93
689.191	31.22
689.378	31.89
689.564	32.69
689.751	32.98
689.937	33.33
690.124	33.9
690.31	33.94
690.496	34.34
690.683	34.95
690.869	35.65
691.055	36.02
691.242	36.76
691.428	37.38
691.614	38.01
691.8	38.59
691.987	39.32
692.173	40.1
692.359	40.68
692.545	41.08
692.731	41.49
692.918	42.2
693.104	42.59
693.29	43.18
693.476	43.93
693.662	44.6
693.848	45.07
694.034	45.52
694.22	46.06
694.406	46.43
694.592	47.11
694.778	47.78
694.964	48.31
695.15	48.94
695.336	49.49
695.522	50.13
695.708	50.54
695.894	51.25
696.08	51.76
696.265	52.31
696.451	52.73
696.637	53.46
696.823	54.01
697.009	54.51
697.194	55.09
697.38	55.34
697.566	55.76
697.751	56.3
697.937	57.12
698.123	57.69
698.308	58.67
698.494	59.28
698.68	59.79
698.865	59.88
699.051	60.57
699.236	60.62
699.422	60.7
699.607	60.91
699.793	61.43
699.978	61.48
700.164	62.08
700.349	63.06
700.535	63.48
700.72	63.93
700.906	64.56
701.091	64.91
701.276	65.11
701.462	65.73
701.647	66.49
701.832	66.98
702.018	67.39
702.203	67.64
702.388	67.55
702.573	67.4
702.759	67.98
702.944	68.08
703.129	68.26
703.314	68.69
703.499	68.99
703.684	68.91
703.87	70.04
704.055	70.87
704.24	71.37
704.425	72.01
704.61	72.35
704.795	71.99
704.98	71.81
705.165	72.03
705.35	72.22
705.535	72.35
705.72	72.53
705.905	72.83
706.09	72.92
706.275	72.72
706.459	72.91
706.644	73.13
706.829	73.26
707.014	73.31
707.199	73.73
707.384	74.01
707.568	74.46
707.753	74.94
707.938	75.46
708.123	75.53
708.307	75.34
708.492	75.05
708.677	75.09
708.861	75.16
709.046	75.08
709.231	75.99
709.415	76.65
709.6	76.69
709.784	76.66
709.969	77.14
710.153	76.65
710.338	76.79
710.522	76.75
710.707	77.23
710.891	77.29
711.076	77.52
711.26	77.25
711.445	77.71
711.629	77.81
711.813	77.75
711.998	78.13
712.182	78.08
712.366	78.54
712.551	78.99
712.735	79.1
712.919	78.71
713.103	79.16
713.288	78.76
713.472	78.44
713.656	79.25
713.84	79.47
714.024	79.82
714.208	80.15
714.393	80.59
714.577	80.39
714.761	80.76
714.945	80.58
715.129	80.39
715.313	80.52
715.497	80.47
715.681	81.18
715.865	81.53
716.049	81.8
716.233	81.51
716.417	81.86
716.601	81.5
716.785	81.18
716.968	81.17
717.152	81.61
717.336	81.34
717.52	81.21
717.704	81.33
717.888	81.85
718.071	81.84
718.255	82.58
718.439	82.47
718.622	82.64
718.806	82.91
718.99	82.21
719.174	81.87
719.357	82.06
719.541	82.64
719.724	82.23
719.908	83.5
720.092	83.78
720.275	84.11
720.459	83.65
720.642	83.49
720.826	82.9
721.009	82.79
721.193	82.46
721.376	82.8
721.559	83.43
721.743	83.65
721.926	83.83
722.11	84.44
722.293	83.91
722.476	83.53
722.66	83.42
722.843	83.31
723.026	82.92
723.21	83.12
723.393	83.59
723.576	83.56
723.759	83.13
723.942	83.61
724.126	84.09
724.309	84.01
724.492	84.2
724.675	84.44
724.858	84.04
725.041	84.52
725.224	84.58
725.407	85
725.59	85.27
725.774	85.41
725.957	84.3
726.14	84.16
726.322	84
726.505	83.87
726.688	84.52
726.871	85.12
727.054	85.36
727.237	84.91
727.42	85.87
727.603	85.6
727.786	85.98
727.968	86.23
728.151	86.99
728.334	86.32
728.517	86.61
728.699	86.78
728.882	86.58
729.065	87.16
729.248	87.33
729.43	87.54
729.613	88.41
729.796	89.28
729.978	88.31
730.161	88.35
730.343	88.1
730.526	88.01
730.708	87.03
730.891	87.75
731.073	87.79
731.256	87.79
731.438	87.52
731.621	88.66
731.803	87.85
731.986	88.21
732.168	87.65
732.35	87.76
732.533	87.26
732.715	88.23
732.898	88.47
733.08	89.22
733.262	89.74
733.444	89.62
733.627	89.92
733.809	89.78
733.991	90.6
734.173	89.42
734.355	89.2
734.538	89.67
734.72	89.52
734.902	88.59
735.084	89.02
735.266	88.95
735.448	88.71
735.63	89.2
735.812	89.83
735.994	91.04
736.176	91.91
736.358	91.27
736.54	91.98
736.722	91.66
736.904	90.83
737.086	90.82
737.268	92.54
737.45	92.13
737.632	92.45
737.814	91.41
737.995	91.16
738.177	89.32
738.359	89.23
738.541	89.46
738.723	90.56
738.904	91.53
739.086	92.52
739.268	92.47
739.449	92.38
739.631	92.05
739.813	91.79
739.994	91.36
740.176	92
740.358	91.95
740.539	93.15
740.721	92.9
740.902	93.98
741.084	93.24
741.265	93.62
741.447	93.74
741.628	94.27
741.81	92.23
741.991	93.57
742.172	93.8
742.354	93.56
742.535	93.26
742.717	94.96
742.898	94.87
743.079	95.1
743.261	95.03
743.442	94.66
743.623	95.44
743.804	94.8
743.986	94.87
744.167	93.48
744.348	93.77
744.529	93.03
744.71	91.89
744.891	91.28
745.073	91.79
745.254	91.53
745.435	91.3
745.616	90.86
745.797	91.42
745.978	91.55
746.159	92.32
746.34	91.25
746.521	93.78
746.702	92.5
746.883	92.27
747.064	91.02
747.245	91.49
747.426	89.71
747.606	90.11
747.787	91.07
747.968	90.96
748.149	92.28
748.33	92.23
748.51	92.02
748.691	90.66
748.872	92.2
749.053	91.17
749.233	91.06
749.414	91.55
749.595	91.81
749.775	90.47
749.956	90.23
750.137	91.13
750.317	91.77
750.498	94.1
750.678	95
750.859	96.16
751.04	95.41
751.22	93.49
751.4	92.1
751.581	90.03
751.761	89.54
751.942	90.56
752.122	90.93
752.303	88.6
752.483	89.65
752.663	88.84
752.844	87.96
753.024	89.67
753.204	91.04
753.385	90.13
753.565	91.04
753.745	91.45
753.925	90.34
754.106	90.98
754.286	91.55
754.466	90.72
754.646	91.02
754.826	90.82
755.006	89.2
755.187	89.67
755.367	90.11
755.547	89.57
755.727	90.09
755.907	90.91
756.087	91.97
756.267	90.64
756.447	90.91
756.627	88.72
756.807	89.87
756.987	87.86
757.167	89.71
757.346	89.77
757.526	89.44
757.706	89.56
757.886	91.75
758.066	92.17
758.246	93.56
758.425	95.19
758.605	93.98
758.785	92.96
758.965	93.02
759.144	90.79
759.324	91.1
759.504	91.69
759.683	92.11
759.863	89.77
760.043	89.14
760.222	89.33
760.402	88.95
760.581	88.21
760.761	89.71
760.94	89.09
761.12	90.1
761.299	90.2
761.479	89.7
761.658	87.73
761.838	87.97
762.017	86.42
762.197	87.53
762.376	88.6
762.555	89.8
762.735	91.91
762.914	89.78
763.093	88.99
763.273	87.67
763.452	86.86
763.631	86.11
763.81	88.51
763.99	88.43
764.169	89.09
764.348	87.71
764.527	86.09
764.706	86.9
764.885	87.56
765.064	86.4
765.243	86.91
765.423	89.43
765.602	88.09
765.781	86.53
765.96	85.4
766.139	86.6
766.318	85.08
766.497	84.04
766.676	84.76
766.854	86.92
767.033	87.33
767.212	87.21
767.391	88.5
767.57	89.24
767.749	90.06
767.928	90.58
768.106	90.64
768.285	87.49
768.464	88.04
768.643	86.68
768.821	85.86
769	85.97
769.179	87.91
769.357	83.81
769.536	83.34
769.715	83.54
769.893	85.45
770.072	84.25
770.25	86.66
770.429	87.39
770.607	87.09
770.786	85.38
770.964	88.56
771.143	87.43
771.321	88.69
771.5	88.67
771.678	87.32
771.857	85.38
772.035	85.63
772.213	83.3
772.392	82.14
772.57	84.31
772.748	85.12
772.927	85.22
773.105	85.65
773.283	86.99
773.461	86.86
773.64	87.63
773.818	87.72
773.996	89.1
774.174	87.67
774.352	85.13
774.531	81.38
774.709	82.55
774.887	80.33
775.065	80.8
775.243	80.3
775.421	81.58
775.599	81.88
775.777	82.19
775.955	79.58
776.133	79.43
776.311	80.57
776.489	77.29
776.667	77.49
776.844	79.02
777.022	79.42
777.2	77.5
777.378	79.53
777.556	79.69
777.734	84.16
777.911	84.63
778.089	84.49
778.267	84.68
778.445	83.88
778.622	79.65
778.8	80.03
778.978	82.93
779.155	81.42
779.333	82.56
779.511	82
779.688	83.97
779.866	79.91
780.043	78.06
780.221	77.89
780.398	75.79
780.576	75.6
780.753	79.12
780.931	78.68
781.108	77.36
781.286	80.65
781.463	75.2
781.64	72.01
781.818	76.05
781.995	76.57
782.172	76.95
782.35	81.16
782.527	85.17
782.704	82.08
782.882	82.28
783.059	79.97
783.236	84.41
783.413	83.43
783.59	84.54
783.768	81.28
783.945	85.33
784.122	80.33
784.299	82.18
784.476	81
784.653	81.78
784.83	77.14
785.007	72.84
785.184	71.04
785.361	71.5
785.538	74.36
785.715	80.83
785.892	85.56
786.069	87.56
786.246	89.45
786.423	89.43
786.6	85.2
786.776	86.62
786.953	83.64
787.13	84.43
787.307	83.82
787.484	81.26
787.66	76.97
787.837	75.76
788.014	71.51
788.191	69.1
788.367	70.35
788.544	75.36
788.721	74.52
788.897	76.7
789.074	78.86
789.25	76.08
789.427	74.92
789.603	75.05
789.78	75.07
789.956	72.17
790.133	70.96
790.309	72.31
790.486	76.19
790.662	77.09
790.839	79.73
791.015	82.98
791.192	77.13
791.368	77.79
791.544	74.48
791.721	74.17
791.897	74.62
792.073	75.08
792.249	68.48
792.426	71.29
792.602	73.44
792.778	76.13
792.954	74.5
793.13	78.36
793.307	72.49
793.483	67.12
793.659	63.59
793.835	69.3
794.011	64.85
794.187	66.39
794.363	64.65
794.539	67.88
794.715	64.26
794.891	66.69
795.067	67.31
795.243	71.65
795.419	68.09
795.595	65.15
795.771	64.74
795.947	68.96
796.122	66.63
796.298	69.87
796.474	74.86
796.65	76.03
796.826	73.64
797.001	77.97
797.177	73.49
797.353	74.55
797.529	72.48
797.704	70.09
797.88	63.98
798.056	63.09
798.231	55.69
798.407	62.63
798.582	64.14
798.758	72.5
798.934	78.02
799.109	79.6
799.285	71.6
799.46	75.56
799.636	73.46
799.811	68.98
799.986	69.19
800.162	73
800.337	75.67
800.513	70.8
800.688	71.61
800.863	79.49
801.039	77.22
801.214	70.47
801.389	77.79
801.565	78.75
801.74	68.4
801.915	74.38
802.09	77.61
802.265	78.57
802.441	74.33
802.616	77.67
802.791	75.74
802.966	72.06
803.141	68.62
803.316	67.56
803.491	70.28
803.666	70.64
803.841	71.82
804.016	68.73
804.191	73.2
804.366	69.73
804.541	65.04
804.716	59.5
804.891	55.94
805.066	59.66
805.241	59.59
805.416	62.31
805.591	66.57
805.765	70.98
805.94	71.07
806.115	66.3
806.29	56.37
806.464	56.04
806.639	52.89
806.814	44.08
806.989	39.87
807.163	53.53
807.338	56.52
807.512	55.39
807.687	46.89
807.862	67.07
808.036	74.84
808.211	67.47
808.385	69.56
808.56	88.82
808.734	94.37
808.909	82.4
809.083	89.62
809.258	97.5
809.432	91.86
809.606	70.17
809.781	64.03
809.955	70.59
810.13	72.99
810.304	68.69
810.478	68.73
810.652	80.18
810.827	79.26
811.001	72.21
811.175	72.9
811.349	73.02
811.524	61.57
811.698	45.75
811.872	43.05
812.046	56.23
812.22	62.41
812.394	66.32
812.568	71.9
812.742	80.54
812.916	63.69
813.09	53.31
813.264	46.01
813.438	53.96
813.612	49.34
813.786	48.34
813.96	62.06
814.134	64.51
814.308	67.98
814.482	69.16
814.656	61.26
814.83	53.18
815.003	60.42
815.177	47.33
815.351	38.54
815.525	46.14
815.698	49.47
815.872	37.67
816.046	37.32
816.219	47.1
816.393	58.42
816.567	62.91
816.74	67.5
816.914	68.61
817.088	67.89
817.261	52.81
817.435	34.92
817.608	45.54
817.782	39.78
817.955	39.86
818.129	45.11
818.302	55.22
818.475	54.24
818.649	60.02
818.822	49.64
818.996	67.28
819.169	70.81
819.342	54.14
819.516	63.34
819.689	68.78
819.862	46.91
820.035	37.84
820.209	48.55
820.382	48.2
820.555	50.6
820.728	46.75
820.901	43.8
821.075	35.25
821.248	32.82
821.421	18.47
821.594	29.27
821.767	54.99
821.94	75.31
822.113	55.9
822.286	55.17
822.459	64.99
822.632	56.39
822.805	22.97
822.978	22.39
823.151	27.63
823.324	2.47
823.496	-19.22
823.669	-7.8
823.842	11.01
824.015	-9.34
824.188	-3.79
824.361	3.4
824.533	15.75
824.706	18.79
824.879	33.43
825.051	50.64
825.224	55.09
825.397	52.66
825.569	45.52
825.742	59.82
825.915	59.26
826.087	73.38
826.26	55.46
826.432	59.49
826.605	60.03
826.777	50.93
826.95	40.41
827.122	28.98
827.295	19.67
827.467	17.62
827.64	-5.61
827.812	-3.99
827.984	21.39
828.157	24.08
828.329	-7.65
828.501	-13.62
828.674	21.45
828.846	18.81
829.018	24.4
829.19	17.56
829.363	51.9
829.535	44.14
829.707	28.94
829.879	18.91
830.051	15.42
830.223	-17.96
830.395	-53.69
830.568	-58.8
830.74	-62.3
830.912	0.11
831.084	-6.55
831.256	12.52
831.428	23.52
831.6	20.63
831.772	-45.11
831.943	-52.67
832.115	-34.67
832.287	-4.18
832.459	14.86
832.631	40.55
832.803	76.24
832.975	98.76
833.146	83.48
833.318	65.81
833.49	88
833.662	65.5
833.833	27.93
834.005	29.2
834.177	52.3
834.348	28.62
834.52	10.83
834.692	26.96
834.863	-8.65
835.035	-29.07
835.206	-76.46
835.378	-54.05
835.549	-62.63
835.721	-35.72
835.892	-21.51
836.064	-9.99
836.235	12.18
836.407	32.32
836.578	34.18
836.749	49.54
836.921	24.01
837.092	-22.38
837.264	-39.81
837.435	-42.1
837.606	8.47
837.777	57.48
837.949	64.06
838.12	66.88
838.291	64.87
838.462	43.21
838.633	3.4
838.805	8.8
838.976	30.09
839.147	2.07
839.318	-25.29
839.489	-63.91
839.66	-58.26
839.831	-41.73
840.002	-29.22
840.173	-38.69
840.344	33.34
840.515	73.38
840.686	-19.16
840.857	-23.41
841.028	-7.44
841.199	-8.54
841.369	-56.1
841.54	-22.42
841.711	4.01
841.882	19.52
842.053	-8.08
842.223	-14.26
842.394	-7.87
842.565	-12.82
842.736	3.67
842.906	12.39
843.077	24.18
843.248	46.67
843.418	45.2
843.589	-10.48
843.759	53.97
843.93	59.57
844.101	15.27
844.271	22.68
844.442	35.38
844.612	37.17
844.783	18.95
844.953	-2.96
845.123	-16.34
845.294	37.54
845.464	-115
845.635	-16.76
845.805	40.27
845.975	41.91
846.146	-16.61
846.316	-21.62
846.486	-0.64
846.656	16.74
846.827	19.87
846.997	14.27
847.167	37.86
847.337	5.14
847.507	-32
847.677	-43.05
847.848	26.79
848.018	40.95
848.188	53.28
848.358	38.68
848.528	21.3
848.698	-8.73
848.868	-84.59
849.038	-195.01
849.208	-32.56
849.378	27.18
849.548	-2.22
849.718	-1.36
849.887	23.4
850.057	-5.1
850.227	-36.58
850.397	-27.86
850.567	-118.71
850.737	-284.89
850.906	-991.56
851.076	-758.01
851.246	-399.61
851.415	-30.29
851.585	-30.54
851.755	-36.72
851.924	9.32
852.094	-12.7
852.264	-96.52
852.433	-958.89
852.603	-185.95
852.772	-157.08
852.942	-98.53
853.111	-90.5
853.281	-12.09
853.45	11.13
853.62	-57.48
853.789	-55.65
853.959	-20.85
854.128	-88.96
854.297	-105.68
854.467	-106.14
854.636	-89.95
854.805	-6.89
854.975	6.43
855.144	5.41
855.313	282.34
855.482	16.61
855.652	-125.09
855.821	-51.82
855.99	41.9
856.159	35.94
856.328	46.51
856.497	34.47
856.667	25.95
856.836	34.19
857.005	1.62
857.174	-15.97
857.343	-53.33
857.512	10.06
857.681	-53.48
857.85	-143.33
858.019	-62.8
858.188	-22.58
858.356	-47.49
858.525	-100.62
858.694	-51.31
858.863	-171.24
859.032	-158.52
859.201	-270.16
859.369	-98.28
859.538	-48.14
859.707	-47.27
859.876	-13.99
860.044	43.18
860.213	26.4
860.382	25.31
860.55	52.68
860.719	78.86
860.888	74.64
861.056	28.91
861.225	18.86
861.393	40.63
861.562	35.11
861.73	-31.3
861.899	-38.35
862.067	-893.97
862.236	-32.29
862.404	-233.79
862.572	-155.65
862.741	-27.52
862.909	-15.17
863.078	-106.04
863.246	-54.17
863.414	-61.99
863.582	-49.24
863.751	-109.6
863.919	-80.27
864.087	-30.12
864.255	29.67
864.424	-251.49
864.592	10.99
864.76	-31.71
864.928	-135.4
865.096	-149.44
865.264	-44
865.432	-664.2
865.6	152.38
865.768	-31.09
865.936	-66.82
866.104	-51.73
866.272	-135.39
866.44	-378.44
866.608	538.72
866.776	253.75
866.944	2877.33
867.112	-479.77
867.28	-180.22
867.448	-70.35
867.615	8.63
867.783	35.53
867.951	30.1
868.119	80.45
868.286	45.25
868.454	-76.05
868.622	-21.06
868.789	19.83
868.957	1212.5
869.125	-161.18
869.292	15.17
869.46	-129.77
869.627	-2.35
869.795	-44.97
869.963	-26.66
870.13	-9.27
870.298	15.99
870.465	-88.68
870.632	-101.7
870.8	-68.88
870.967	-105.91
871.135	-192.7
871.302	-113.81
871.469	-87.22
871.637	-67.7
871.804	-72.28
871.971	-104.59
872.139	-403.84
872.306	-86.55
872.473	-129.35
872.64	-479.51
872.807	-245.86
872.975	-48.67
873.142	-279.73
873.309	2143.92
873.476	16.56
873.643	101.14
873.81	37.2
873.977	58.24
874.144	57.45
874.311	-103.35
874.478	-138.01
874.645	-179.8
874.812	-117.67
874.979	-59.32
875.146	-57.95
875.313	-56.98
875.48	51.86
875.647	2.5
875.813	-33.21
875.98	10.95
876.147	-31.86
876.314	-113.75
876.481	819.21
876.647	-803.65
876.814	381.48
876.981	12.21
877.147	-22.42
877.314	7.22
877.481	20.49
877.647	25.38
877.814	4.63
877.98	-38.46
878.147	-7.3
878.314	54.75
878.48	-5.11
878.647	14.95
878.813	49.92
878.979	33.65
879.146	-26.8
879.312	-5.27
879.479	-51.54
879.645	-101.12
879.811	-237.93
879.978	-600.95
880.144	-164.68
880.31	-83.97
880.477	-348.71
880.643	-444.1
880.809	-233.67
880.975	-214.53
881.142	-1389.32
881.308	-225.24
881.474	-109.07
881.64	-117.33
881.806	-227.2
881.972	-115.77
882.138	-87.48
882.304	-70.39
882.47	-180.97
882.636	-576.43
882.802	-137.02
882.968	-59.36
883.134	-53.82
883.3	-67.56
883.466	-1.22
883.632	50.73
883.798	31.33
883.964	38.05
884.129	61.2
884.295	87.44
884.461	-31.02
884.627	-47.81
884.793	-71.09
884.958	-20.03
885.124	-94.33
885.29	-175.46
885.455	-208.86
885.621	-10.11
885.787	-88.24
885.952	-73.56
886.118	-50.21
886.283	-55.31
886.449	-162.42
886.614	-152.9
886.78	-325.87
886.945	1202.05
887.111	-578.18
887.276	-515.48
887.442	-898.41
887.607	-324.65
887.773	-225.88
887.938	-250.2
888.103	-347.76
888.269	-290.44
888.434	-521.22
888.599	-193.66
888.764	-69.38
888.93	-17.04
889.095	-38.92
889.26	-85.71
889.425	-100.69
889.59	-53.88
889.756	-104.69
889.921	-79.16
890.086	6.48
890.251	37.15
890.416	-156.81
890.581	-1008.47
890.746	72.23
890.911	316.08
891.076	167.15
891.241	-303.17
891.406	38.17
891.571	26.01
891.736	-154.7
891.901	-404.65
892.065	433.24
892.23	95.03
892.395	181.07
892.56	270.88
892.725	-104.1
892.889	-222.56
893.054	-160.33
893.219	-85.03
893.384	-35.58
893.548	-122.91
893.713	-157.25
893.878	-119.28
