Data from Ofra_1a_PS_9GT30_Reflection_2.txt Node
Date: Tue Jul 20 11:06:24 EDT 2021
User: Adam
Spectrometer: FLMT01687
Trigger mode: 0
Integration Time (sec): 1.004000E0
Scans to average: 2
Electric dark correction enabled: true
Nonlinearity correction enabled: false
Boxcar width: 2
XAxis mode: Wavelengths
Number of Pixels in Spectrum: 3648
>>>>>Begin Spectral Data<<<<<
179.494	-449.24
179.716	-448.85
179.937	926.09
180.158	-701.27
180.38	114.54
180.601	17.51
180.823	-33.63
181.044	-138.15
181.265	-20.76
181.486	213.67
181.708	92.09
181.929	1718.18
182.15	-153.6
182.372	518.72
182.593	440.39
182.814	-366.21
183.035	-59.05
183.257	-6.25
183.478	-32.85
183.699	-66.67
183.92	-94.75
184.141	-122.14
184.363	-100.5
184.584	-81.97
184.805	-15.56
185.026	34.56
185.247	47.13
185.468	26.01
185.689	23.4
185.91	3.15
186.132	4.01
186.353	7.5
186.574	28.63
186.795	22.42
187.016	30.31
187.237	29.72
187.458	7.35
187.679	-0.87
187.9	20.95
188.121	20.83
188.342	32.54
188.563	57.76
188.784	68.84
189.005	45.17
189.226	30.47
189.447	8.32
189.667	-8.7
189.888	-26.68
190.109	-37.33
190.33	-11.7
190.551	-7.54
190.772	-11.33
190.993	-35.83
191.214	-35.13
191.434	-112.07
191.655	-169.81
191.876	-94.73
192.097	-48.26
192.318	-14.71
192.538	-29.92
192.759	-3.43
192.98	2.27
193.201	3.67
193.421	3.47
193.642	13.34
193.863	8.97
194.083	-6.43
194.304	-3.45
194.525	-13.6
194.745	7.71
194.966	18.01
195.187	29.79
195.407	28.08
195.628	18.65
195.848	-1.95
196.069	-19.49
196.29	-23.58
196.51	-48.72
196.731	-53.2
196.951	-74.02
197.172	-59.04
197.392	-61
197.613	-18.83
197.833	-30.07
198.054	-14.81
198.274	-3.87
198.495	-14.76
198.715	-43.5
198.936	-10.7
199.156	-10.56
199.377	-22.36
199.597	9.99
199.817	31.8
200.038	18.92
200.258	33.09
200.479	33.63
200.699	0.07
200.919	-4.47
201.14	-9.41
201.36	-11.39
201.58	-41.42
201.801	-35.96
202.021	-55.99
202.241	-46.55
202.461	-68.41
202.682	-19.62
202.902	-0.58
203.122	3.9
203.342	8.19
203.563	14.02
203.783	-17.88
204.003	-41.89
204.223	-7.6
204.443	-5.68
204.663	-44.65
204.884	-22.5
205.104	-8.09
205.324	-53.1
205.544	-94.89
205.764	-24.26
205.984	-30.01
206.204	-20.25
206.424	-41.66
206.644	-44.58
206.864	-80.87
207.084	-35.42
207.304	-69.62
207.525	-47.49
207.745	-10.76
207.964	-7.5
208.184	-27.13
208.404	-17.59
208.624	1.51
208.844	-6.17
209.064	-15.98
209.284	-2.23
209.504	10.39
209.724	-6.08
209.944	-13
210.164	-0.56
210.384	-12.7
210.604	-52.23
210.823	-66.55
211.043	-44.31
211.263	-139.51
211.483	-79.46
211.703	-52.87
211.922	-67.23
212.142	-25.79
212.362	14.03
212.582	22.28
212.801	24.84
213.021	18.66
213.241	-22.12
213.461	-19.8
213.68	-5.67
213.9	-11.8
214.12	-1.79
214.339	3.15
214.559	8.92
214.779	3.77
214.998	22.81
215.218	15.62
215.438	23.19
215.657	16.65
215.877	4.78
216.096	9.79
216.316	0.72
216.535	-6.63
216.755	-1.03
216.974	-9.68
217.194	-17.99
217.413	-20.33
217.633	-33.42
217.852	-25.65
218.072	-20.05
218.291	-30.47
218.511	-23.22
218.73	-16.4
218.95	-30.49
219.169	-19.62
219.389	-4.19
219.608	-0.2
219.827	4.86
220.047	18.91
220.266	-6.32
220.485	-25.68
220.705	-24.54
220.924	-73.37
221.143	-45.22
221.363	-12.85
221.582	0.51
221.801	11.83
222.021	23.82
222.24	15.61
222.459	32.75
222.678	25.95
222.897	5.7
223.117	13.75
223.336	19.19
223.555	10.85
223.774	22.39
223.993	66.44
224.213	69.94
224.432	48.63
224.651	31.18
224.87	24.95
225.089	12.68
225.308	12.5
225.527	10.53
225.746	6.72
225.965	5.57
226.184	11.23
226.404	3.94
226.623	20.77
226.842	25.67
227.061	19.76
227.28	21.03
227.499	19.59
227.718	1
227.936	6.64
228.155	17.87
228.374	5.88
228.593	9.35
228.812	25.04
229.031	19.58
229.25	6.04
229.469	-1.06
229.688	0.57
229.907	6.89
230.125	2.71
230.344	20.71
230.563	28.8
230.782	36.56
231.001	41.17
231.22	41.07
231.438	34.19
231.657	31.98
231.876	28.5
232.095	15
232.313	1.33
232.532	-7.57
232.751	-8.22
232.969	-15.74
233.188	-15.07
233.407	-1.63
233.625	-1.18
233.844	-7.18
234.063	-13.4
234.281	-11.58
234.5	2.35
234.719	4.07
234.937	1.29
235.156	14.8
235.374	27.11
235.593	7.71
235.811	15.77
236.03	15.88
236.249	11.43
236.467	10.54
236.686	6.16
236.904	4.61
237.123	3.73
237.341	-0.35
237.559	-4.84
237.778	29.6
237.996	0.95
238.215	-29.5
238.433	-79.1
238.652	-18.83
238.87	-53.63
239.088	-35.05
239.307	-6.41
239.525	20.99
239.743	6.02
239.962	-20.94
240.18	-0.12
240.398	1.61
240.617	-19.14
240.835	-9.98
241.053	22.89
241.271	25.36
241.49	14.8
241.708	10.78
241.926	7.14
242.144	11.87
242.363	-8.7
242.581	-6.89
242.799	-22.63
243.017	-7.79
243.235	-6.59
243.453	-15.85
243.672	-1.06
243.89	19.18
244.108	31.96
244.326	35.7
244.544	33.68
244.762	20.41
244.98	6.57
245.198	0.03
245.416	-13.28
245.634	0.98
245.852	-17.35
246.07	6.96
246.288	2.67
246.506	-3.76
246.724	-2.36
246.942	13.12
247.16	20.89
247.378	6.51
247.596	27.34
247.814	-17.7
248.032	9.2
248.25	22.31
248.468	38.24
248.685	35.51
248.903	47.33
249.121	26.89
249.339	13.66
249.557	2.04
249.775	9.26
249.992	-0.71
250.21	2.88
250.428	10.01
250.646	10.67
250.863	-12.82
251.081	3.18
251.299	3.95
251.517	1.19
251.734	-12.52
251.952	5.19
252.17	-9.08
252.387	-5.52
252.605	-9.87
252.823	-3.58
253.04	25.13
253.258	29.6
253.475	39.08
253.693	34.4
253.911	24.86
254.128	7.72
254.346	14.1
254.563	16.3
254.781	15.76
254.998	6.1
255.216	-10.35
255.433	-49.53
255.651	-66.59
255.868	-67.68
256.086	-42.02
256.303	-19.56
256.521	-8.7
256.738	-19.41
256.956	-12.93
257.173	-30.99
257.39	-28.82
257.608	-27.14
257.825	-20.28
258.043	2.67
258.26	21.71
258.477	27.19
258.695	37.39
258.912	36.39
259.129	11.95
259.346	-17.84
259.564	-39.24
259.781	-44.46
259.998	-17.52
260.216	-5.81
260.433	11.03
260.65	9.26
260.867	4.72
261.084	1.14
261.302	17.92
261.519	18.44
261.736	12.78
261.953	12.34
262.17	37.43
262.387	20.59
262.604	25.91
262.822	28.67
263.039	26.28
263.256	14
263.473	10.76
263.69	4.98
263.907	14.17
264.124	36.03
264.341	31.91
264.558	35.08
264.775	33.73
264.992	17.09
265.209	-24.23
265.426	-2.96
265.643	11.47
265.86	0.79
266.077	5.43
266.294	48.87
266.51	19.25
266.727	3.36
266.944	22.29
267.161	16.61
267.378	14.13
267.595	-3.78
267.812	-18.9
268.028	-57.23
268.245	-27.98
268.462	-31.58
268.679	-15.79
268.896	11.15
269.112	23.83
269.329	-16.55
269.546	-0.98
269.763	1.14
269.979	2.87
270.196	10.47
270.413	17.64
270.629	-1.1
270.846	-4.58
271.063	-12.82
271.279	-24.2
271.496	-18.15
271.712	5.38
271.929	8.18
272.146	5.62
272.362	22.63
272.579	4.25
272.795	-6.91
273.012	5.77
273.228	22.97
273.445	9.85
273.661	33.04
273.878	-1.92
274.094	-8.95
274.311	-18.85
274.527	-13.9
274.744	-14.46
274.96	22.96
275.177	11.52
275.393	21.91
275.609	20.68
275.826	15.98
276.042	3.66
276.259	14.54
276.475	-15.68
276.691	-33.17
276.908	-32.66
277.124	-28.6
277.34	-36.5
277.557	-30.03
277.773	-16.6
277.989	-8.51
278.205	0.24
278.422	0.87
278.638	22.96
278.854	22.03
279.07	31.28
279.286	13.17
279.503	11.18
279.719	6.13
279.935	8.83
280.151	-7.16
280.367	8.24
280.583	15.73
280.799	13.22
281.016	-21.23
281.232	-14.29
281.448	-16.1
281.664	-30.63
281.88	-18.88
282.096	-2.29
282.312	2.64
282.528	7.18
282.744	25.96
282.96	3.72
283.176	1.86
283.392	-40.52
283.608	-58.29
283.824	-94.84
284.04	-150.62
284.256	-72.78
284.471	-35.93
284.687	-26.9
284.903	-20.58
285.119	9.16
285.335	9.25
285.551	10.7
285.767	8.24
285.982	12.41
286.198	-10.63
286.414	-0.25
286.63	-1.07
286.846	-4.32
287.061	-1.66
287.277	1.07
287.493	-16.97
287.709	-4.96
287.924	8.76
288.14	6.05
288.356	22.03
288.571	22.95
288.787	2.69
289.003	5.57
289.218	-3.4
289.434	-11.38
289.65	7.72
289.865	15.27
290.081	14.02
290.296	31.12
290.512	24.45
290.727	6.81
290.943	7.87
291.159	3.94
291.374	-24.11
291.59	-15.73
291.805	-23.15
292.021	-20.37
292.236	-36.61
292.451	-10.61
292.667	-16.5
292.882	-12.09
293.098	-12.97
293.313	2.42
293.529	-14.56
293.744	-21.18
293.959	-13.02
294.175	-10.49
294.39	-28.52
294.605	5.59
294.821	22.73
295.036	17.35
295.251	20.99
295.467	18.74
295.682	13.83
295.897	-7.91
296.112	-2.71
296.328	6.07
296.543	7.58
296.758	-14.87
296.973	-5.77
297.188	-15.84
297.404	-68.57
297.619	-73.53
297.834	-67.56
298.049	-26.69
298.264	-11.84
298.479	3.47
298.694	24.7
298.909	32.71
299.125	17.46
299.34	13.49
299.555	8.43
299.77	11.88
299.985	11.17
300.2	17.67
300.415	19.76
300.63	28.06
300.845	12.07
301.06	7.5
301.275	-8.12
301.49	1
301.704	-10.26
301.919	-9.63
302.134	-11.93
302.349	11.71
302.564	-7.03
302.779	-18.06
302.994	10.99
303.209	16.02
303.423	11.93
303.638	22.56
303.853	11.23
304.068	-21.98
304.283	-20.9
304.497	-35.09
304.712	-12.36
304.927	3.65
305.142	19.79
305.356	25.17
305.571	20.98
305.786	17.76
306	29.26
306.215	16.45
306.43	8.97
306.644	9.25
306.859	2.45
307.074	-5.02
307.288	-8.21
307.503	-0.58
307.717	-11.85
307.932	-7.11
308.147	-13.41
308.361	-11.18
308.576	-36.87
308.79	-26.7
309.005	-31.87
309.219	-2.87
309.434	-5.27
309.648	-5.14
309.863	-1.68
310.077	-4.7
310.292	-3.35
310.506	-16.45
310.72	-14.15
310.935	-2.92
311.149	6.76
311.364	-14.37
311.578	-1.67
311.792	2.8
312.007	-4.05
312.221	-35.31
312.435	-21.14
312.649	-7.14
312.864	-2.82
313.078	2.05
313.292	8.83
313.507	22.69
313.721	16.77
313.935	14.52
314.149	13.2
314.363	17.34
314.578	3.12
314.792	-20.87
315.006	-27.6
315.22	-10.82
315.434	1.09
315.648	1.12
315.862	5.97
316.077	8.74
316.291	12.72
316.505	-3.23
316.719	4.69
316.933	3.77
317.147	7.32
317.361	-1.57
317.575	12.44
317.789	25.43
318.003	26.4
318.217	28.25
318.431	20.85
318.645	1.19
318.859	-9.6
319.073	1.51
319.287	-0.09
319.5	3.63
319.714	-1.03
319.928	-9.85
320.142	-16.12
320.356	1.92
320.57	-17.94
320.784	1.21
320.997	-4.17
321.211	12.61
321.425	-19.85
321.639	5.53
321.853	13.55
322.066	15.3
322.28	-1.29
322.494	13.44
322.707	21.36
322.921	7.9
323.135	27.56
323.349	24.18
323.562	24.08
323.776	22.08
323.989	37.34
324.203	11.03
324.417	13.92
324.63	8.21
324.844	-8.74
325.057	-40.02
325.271	-21.19
325.485	-23.79
325.698	-6.94
325.912	0.51
326.125	-3.6
326.339	3.51
326.552	-7.51
326.766	-29.95
326.979	-22.42
327.193	-8.15
327.406	-13.37
327.619	7.78
327.833	1.36
328.046	-4.9
328.26	-10.93
328.473	-12.35
328.686	-24.92
328.9	-2.52
329.113	1.24
329.326	-1.18
329.54	12.1
329.753	27.98
329.966	32.11
330.179	30.02
330.393	31
330.606	21.28
330.819	4.37
331.032	-7.15
331.246	1.44
331.459	7.58
331.672	6.1
331.885	11.55
332.098	27.52
332.311	12.29
332.525	9.4
332.738	4.82
332.951	8.17
333.164	-3.59
333.377	11.33
333.59	7.42
333.803	9.36
334.016	-6.17
334.229	5.33
334.442	-6.14
334.655	9.98
334.868	8.7
335.081	6.13
335.294	-3.25
335.507	-1.82
335.72	-13.62
335.933	-11.89
336.146	-17.24
336.359	-6.6
336.572	-6.17
336.785	-6.02
336.997	-27.61
337.21	9.22
337.423	-9.26
337.636	-31.94
337.849	-32.9
338.062	-13.14
338.274	-24.63
338.487	-33.79
338.7	-44.36
338.913	-39.13
339.125	-49.85
339.338	-41.38
339.551	-26.18
339.763	-13.68
339.976	-7.22
340.189	-14
340.402	-15.54
340.614	-10.97
340.827	-3.01
341.039	-8.09
341.252	-2.54
341.465	-2.74
341.677	2.68
341.89	-15.06
342.102	-9.8
342.315	-6.55
342.527	-0.91
342.74	-27.09
342.952	-29.21
343.165	-43.01
343.377	-24.19
343.59	-21.98
343.802	9.02
344.015	34.22
344.227	34.25
344.44	18.55
344.652	12.75
344.864	16.19
345.077	0.04
345.289	25.18
345.502	36.38
345.714	37.03
345.926	7.38
346.139	-6.81
346.351	-14.83
346.563	-11.52
346.775	-12.42
346.988	3.95
347.2	3.42
347.412	2.6
347.624	2.51
347.837	-9.23
348.049	-1.57
348.261	-5.13
348.473	-10.61
348.685	-19.14
348.897	-13.54
349.11	-12.22
349.322	7.25
349.534	6.36
349.746	14.92
349.958	11.2
350.17	-1.52
350.382	-4.36
350.594	2.93
350.806	4.69
351.018	7.23
351.23	15.55
351.442	22.91
351.654	19.84
351.866	8.67
352.078	12.92
352.29	-0.93
352.502	-14.89
352.714	-25.38
352.926	-10.06
353.138	-5.84
353.35	-0.94
353.561	1.97
353.773	-6.55
353.985	0.74
354.197	2.05
354.409	1.66
354.621	-7.2
354.832	7.17
355.044	-17.28
355.256	-16.83
355.468	-20.73
355.679	-5.1
355.891	-1.99
356.103	-3.05
356.314	-14.92
356.526	-20.81
356.738	-33.04
356.949	-27.88
357.161	-1.54
357.373	3.36
357.584	9.4
357.796	20.9
358.008	25.54
358.219	14.4
358.431	14.15
358.642	16.03
358.854	16.72
359.065	-13.38
359.277	-9.55
359.488	-9.31
359.7	-8.56
359.911	-27.26
360.123	1.57
360.334	1.07
360.546	-5.78
360.757	-3.39
360.969	0.31
361.18	-15.2
361.391	-7.87
361.603	-3.01
361.814	-3.43
362.025	6.21
362.237	13.1
362.448	14.97
362.659	8.51
362.871	-5.41
363.082	2.5
363.293	-5.37
363.504	-30.87
363.716	-25.88
363.927	9.09
364.138	-32.97
364.349	-40.61
364.56	-47.62
364.772	-38.63
364.983	-49.79
365.194	-13.98
365.405	-13.7
365.616	5.06
365.827	-5.58
366.038	0.51
366.25	-5.07
366.461	3.81
366.672	-3.21
366.883	10.9
367.094	7.45
367.305	0.82
367.516	-9.34
367.727	-9.01
367.938	-20.02
368.149	-27.41
368.36	-28.85
368.571	-31.62
368.781	-22.94
368.992	-25.59
369.203	-12.57
369.414	-11.71
369.625	-12.25
369.836	1.82
370.047	5.67
370.258	10.23
370.468	14.81
370.679	10.9
370.89	-2.44
371.101	4.09
371.312	-16.65
371.522	-13.92
371.733	-7.49
371.944	-17.62
372.155	-16.1
372.365	-5.52
372.576	-5.63
372.787	12.28
372.997	19.06
373.208	7.34
373.419	6.11
373.629	-5.74
373.84	-19.6
374.05	-21.71
374.261	-32.54
374.472	-34.51
374.682	-29.5
374.893	-30.4
375.103	-22.87
375.314	-1.31
375.524	7.32
375.735	20.4
375.945	22.45
376.156	24.97
376.366	17.69
376.577	17.06
376.787	8.02
376.997	11.27
377.208	8.47
377.418	4.13
377.629	5.49
377.839	11.47
378.049	10.01
378.26	-2.35
378.47	4.85
378.68	4.14
378.89	-2.18
379.101	-2.88
379.311	4.29
379.521	-1.29
379.732	-4.2
379.942	-6.67
380.152	-14.27
380.362	-8.18
380.572	2.54
380.783	5.96
380.993	11.49
381.203	14.12
381.413	14.72
381.623	7.26
381.833	7.53
382.043	3.71
382.253	4.18
382.463	13.08
382.674	20.11
382.884	15.74
383.094	12.94
383.304	14.61
383.514	6.48
383.724	3.99
383.934	2.25
384.144	6.51
384.353	8.89
384.563	11.52
384.773	16.39
384.983	11.33
385.193	6
385.403	1.49
385.613	1.44
385.823	-9.13
386.033	1.3
386.242	3.01
386.452	2.84
386.662	4.5
386.872	12.65
387.082	3.59
387.291	0.02
387.501	2.64
387.711	4.69
387.921	-0.38
388.13	2.07
388.34	4.9
388.55	-1.72
388.759	-8.7
388.969	-5.1
389.179	-0.29
389.388	-1.76
389.598	0.01
389.807	-1.58
390.017	-1.48
390.227	-5.81
390.436	-3.19
390.646	-1.6
390.855	2.28
391.065	4.69
391.274	7.77
391.484	4.73
391.693	4.53
391.903	3.59
392.112	2.04
392.322	0.44
392.531	1.98
392.74	2.17
392.95	1.85
393.159	1.58
393.369	1.41
393.578	2.58
393.787	2.82
393.997	4.02
394.206	2.72
394.415	4.4
394.625	3.98
394.834	3.43
395.043	3.56
395.252	6.41
395.462	6.68
395.671	5.84
395.88	6.86
396.089	5.78
396.298	4.88
396.508	4.23
396.717	5.31
396.926	5.06
397.135	6.01
397.344	5.66
397.553	5.36
397.762	6.05
397.971	5.91
398.181	6.02
398.39	5.46
398.599	5.76
398.808	5.39
399.017	6.3
399.226	6.22
399.435	6.94
399.644	7.51
399.853	7.88
400.062	7.21
400.27	6.84
400.479	6.48
400.688	6.13
400.897	5.49
401.106	5.77
401.315	5.86
401.524	6.35
401.733	6.05
401.941	6.22
402.15	5.85
402.359	5.95
402.568	6.03
402.777	6.32
402.985	6.14
403.194	6.44
403.403	6.62
403.612	6.2
403.82	5.91
404.029	6.06
404.238	5.88
404.446	5.81
404.655	6.11
404.864	6.13
405.072	6.29
405.281	6.31
405.489	6.13
405.698	6.02
405.906	6.09
406.115	5.98
406.324	6.1
406.532	6.21
406.741	6.25
406.949	6.35
407.158	6.33
407.366	6.19
407.574	6.17
407.783	6.11
407.991	6.01
408.2	6.14
408.408	6.27
408.617	6.23
408.825	5.97
409.033	5.98
409.242	5.87
409.45	5.77
409.658	5.68
409.867	5.83
410.075	5.84
410.283	5.78
410.491	5.59
410.7	5.68
410.908	5.77
411.116	5.68
411.324	5.67
411.533	5.61
411.741	5.52
411.949	5.4
412.157	5.33
412.365	5.29
412.573	5.5
412.781	5.36
412.99	5.39
413.198	5.56
413.406	5.64
413.614	5.64
413.822	5.87
414.03	5.94
414.238	5.87
414.446	5.88
414.654	5.72
414.862	5.66
415.07	5.51
415.278	5.5
415.486	5.21
415.694	5.23
415.902	5.17
416.109	5.13
416.317	5.16
416.525	5.24
416.733	5.13
416.941	5.21
417.149	5.07
417.357	5.01
417.564	5.12
417.772	5.32
417.98	5.21
418.188	5.4
418.395	5.25
418.603	5.14
418.811	4.92
419.019	4.85
419.226	4.83
419.434	4.96
419.642	4.9
419.849	4.94
420.057	4.97
420.265	5
420.472	4.94
420.68	5.02
420.887	5.02
421.095	5.01
421.302	5.02
421.51	5.01
421.717	5.01
421.925	5.24
422.132	5.23
422.34	4.9
422.547	4.75
422.755	4.91
422.962	4.65
423.17	4.5
423.377	4.62
423.585	4.85
423.792	4.69
423.999	4.85
424.207	4.82
424.414	4.91
424.621	4.9
424.829	4.84
425.036	4.74
425.243	4.91
425.451	4.82
425.658	4.68
425.865	4.74
426.072	4.79
426.28	4.74
426.487	4.77
426.694	4.68
426.901	4.59
427.108	4.51
427.315	4.52
427.523	4.52
427.73	4.73
427.937	4.65
428.144	4.73
428.351	4.74
428.558	4.83
428.765	4.71
428.972	4.89
429.179	4.64
429.386	4.66
429.593	4.7
429.8	4.74
430.007	4.73
430.214	4.99
430.421	5.04
430.628	5.03
430.835	5.09
431.042	5.05
431.249	4.99
431.456	5.03
431.662	5.14
431.869	5.33
432.076	5.5
432.283	5.62
432.49	5.61
432.697	5.5
432.903	5.32
433.11	5.27
433.317	5.28
433.524	5.26
433.73	5.28
433.937	5.42
434.144	5.31
434.35	5.24
434.557	5.34
434.764	5.31
434.97	5.23
435.177	5.32
435.384	5.25
435.59	5.23
435.797	5.31
436.003	5.35
436.21	5.3
436.416	5.41
436.623	5.42
436.829	5.49
437.036	5.5
437.242	5.66
437.449	5.5
437.655	5.54
437.862	5.6
438.068	5.53
438.275	5.48
438.481	5.71
438.687	5.66
438.894	5.68
439.1	5.65
439.307	5.71
439.513	5.67
439.719	5.67
439.926	5.56
440.132	5.69
440.338	5.69
440.544	5.68
440.751	5.72
440.957	5.82
441.163	5.8
441.369	5.87
441.575	5.86
441.782	5.93
441.988	5.92
442.194	5.87
442.4	5.84
442.606	6.08
442.812	6.09
443.018	6.05
443.224	6.31
443.431	6.26
443.637	6.09
443.843	6.18
444.049	6.33
444.255	6.26
444.461	6.33
444.667	6.41
444.873	6.28
445.079	6.2
445.284	6.08
445.49	6.05
445.696	5.96
445.902	6.03
446.108	6
446.314	6.04
446.52	6.18
446.726	6.31
446.931	6.23
447.137	6.25
447.343	6.41
447.549	6.38
447.755	6.35
447.96	6.46
448.166	6.47
448.372	6.39
448.578	6.32
448.783	6.28
448.989	6.26
449.195	6.25
449.4	6.28
449.606	6.35
449.812	6.29
450.017	6.35
450.223	6.35
450.428	6.31
450.634	6.25
450.84	6.27
451.045	6.27
451.251	6.3
451.456	6.37
451.662	6.44
451.867	6.54
452.073	6.44
452.278	6.4
452.483	6.39
452.689	6.4
452.894	6.41
453.1	6.44
453.305	6.53
453.51	6.56
453.716	6.49
453.921	6.59
454.127	6.61
454.332	6.61
454.537	6.56
454.742	6.55
454.948	6.46
455.153	6.46
455.358	6.4
455.563	6.45
455.769	6.5
455.974	6.53
456.179	6.52
456.384	6.48
456.589	6.42
456.795	6.41
457	6.3
457.205	6.28
457.41	6.32
457.615	6.33
457.82	6.49
458.025	6.51
458.23	6.53
458.435	6.58
458.64	6.58
458.845	6.49
459.05	6.61
459.255	6.59
459.46	6.57
459.665	6.55
459.87	6.51
460.075	6.44
460.28	6.51
460.485	6.64
460.69	6.66
460.895	6.7
461.099	6.62
461.304	6.52
461.509	6.51
461.714	6.61
461.919	6.53
462.123	6.54
462.328	6.52
462.533	6.33
462.738	6.24
462.942	6.22
463.147	6.22
463.352	6.32
463.556	6.51
463.761	6.46
463.966	6.58
464.17	6.72
464.375	6.79
464.58	6.62
464.784	6.67
464.989	6.64
465.193	6.61
465.398	6.6
465.602	6.87
465.807	6.93
466.011	7.02
466.216	6.94
466.42	6.99
466.625	6.96
466.829	6.94
467.034	7.01
467.238	7.26
467.443	7.33
467.647	7.29
467.851	7.37
468.056	7.34
468.26	7.28
468.464	7.18
468.669	7.21
468.873	7.21
469.077	7.17
469.282	7.14
469.486	7.12
469.69	7.14
469.894	7.24
470.099	7.27
470.303	7.38
470.507	7.43
470.711	7.43
470.915	7.42
471.119	7.47
471.324	7.53
471.528	7.66
471.732	7.83
471.936	7.84
472.14	7.8
472.344	7.81
472.548	7.79
472.752	7.65
472.956	7.69
473.16	7.79
473.364	7.78
473.568	7.75
473.772	7.71
473.976	7.77
474.18	7.78
474.384	7.76
474.588	7.9
474.792	8.04
474.995	8.02
475.199	8.1
475.403	8.19
475.607	8.17
475.811	8.21
476.015	8.24
476.218	8.21
476.422	8.25
476.626	8.29
476.83	8.36
477.033	8.38
477.237	8.4
477.441	8.35
477.644	8.31
477.848	8.3
478.052	8.27
478.255	8.29
478.459	8.29
478.663	8.44
478.866	8.48
479.07	8.57
479.273	8.66
479.477	8.76
479.681	8.77
479.884	8.75
480.088	8.71
480.291	8.64
480.495	8.59
480.698	8.56
480.901	8.55
481.105	8.7
481.308	8.76
481.512	8.77
481.715	8.86
481.919	8.93
482.122	8.88
482.325	8.98
482.529	8.99
482.732	8.92
482.935	8.8
483.138	8.78
483.342	8.76
483.545	8.9
483.748	8.98
483.952	9.1
484.155	9.14
484.358	9.13
484.561	9.09
484.764	9.1
484.967	9.11
485.171	9.14
485.374	9.17
485.577	9.15
485.78	9.18
485.983	9.15
486.186	9.14
486.389	9.14
486.592	9.2
486.795	9.16
486.998	9.17
487.201	9.15
487.404	9.22
487.607	9.19
487.81	9.13
488.013	9.19
488.216	9.2
488.419	9.25
488.622	9.21
488.825	9.37
489.028	9.38
489.231	9.38
489.433	9.25
489.636	9.28
489.839	9.23
490.042	9.26
490.245	9.31
490.447	9.33
490.65	9.39
490.853	9.42
491.056	9.36
491.258	9.37
491.461	9.39
491.664	9.39
491.866	9.33
492.069	9.37
492.272	9.32
492.474	9.39
492.677	9.42
492.879	9.41
493.082	9.53
493.285	9.69
493.487	9.69
493.69	9.64
493.892	9.64
494.095	9.59
494.297	9.53
494.5	9.56
494.702	9.65
494.905	9.76
495.107	9.77
495.309	9.81
495.512	9.8
495.714	9.78
495.917	9.79
496.119	9.89
496.321	9.85
496.524	9.89
496.726	9.93
496.928	9.98
497.13	9.9
497.333	9.97
497.535	10.04
497.737	10.06
497.939	10.15
498.142	10.22
498.344	10.24
498.546	10.27
498.748	10.37
498.95	10.33
499.152	10.31
499.355	10.34
499.557	10.34
499.759	10.36
499.961	10.42
500.163	10.5
500.365	10.52
500.567	10.5
500.769	10.49
500.971	10.49
501.173	10.43
501.375	10.5
501.577	10.57
501.779	10.59
501.981	10.63
502.183	10.7
502.385	10.68
502.587	10.71
502.788	10.79
502.99	10.79
503.192	10.82
503.394	10.89
503.596	10.88
503.798	10.81
503.999	10.92
504.201	11.01
504.403	11.07
504.605	11.15
504.806	11.25
505.008	11.3
505.21	11.31
505.411	11.3
505.613	11.34
505.815	11.39
506.016	11.43
506.218	11.48
506.42	11.54
506.621	11.59
506.823	11.58
507.024	11.57
507.226	11.68
507.427	11.76
507.629	11.8
507.83	12
508.032	11.98
508.233	11.98
508.435	11.97
508.636	12.08
508.838	12.02
509.039	12.08
509.24	12.13
509.442	12.25
509.643	12.26
509.845	12.26
510.046	12.49
510.247	12.5
510.448	12.55
510.65	12.58
510.851	12.66
511.052	12.63
511.254	12.73
511.455	12.73
511.656	12.71
511.857	12.81
512.058	12.81
512.26	12.82
512.461	12.85
512.662	12.97
512.863	12.89
513.064	12.96
513.265	12.97
513.466	13.08
513.667	13.1
513.868	13.13
514.069	13.2
514.27	13.29
514.471	13.23
514.672	13.31
514.873	13.39
515.074	13.38
515.275	13.35
515.476	13.36
515.677	13.41
515.878	13.52
516.079	13.54
516.28	13.61
516.481	13.67
516.682	13.64
516.882	13.6
517.083	13.62
517.284	13.66
517.485	13.65
517.686	13.7
517.886	13.75
518.087	13.79
518.288	13.77
518.488	13.84
518.689	13.84
518.89	13.83
519.091	13.9
519.291	13.92
519.492	13.92
519.692	13.95
519.893	14.01
520.094	13.96
520.294	13.94
520.495	13.99
520.695	14.11
520.896	14.13
521.096	14.18
521.297	14.29
521.497	14.28
521.698	14.18
521.898	14.22
522.099	14.22
522.299	14.23
522.499	14.34
522.7	14.33
522.9	14.36
523.101	14.38
523.301	14.39
523.501	14.35
523.702	14.42
523.902	14.47
524.102	14.59
524.302	14.64
524.503	14.7
524.703	14.71
524.903	14.67
525.103	14.66
525.304	14.68
525.504	14.76
525.704	14.77
525.904	14.78
526.104	14.78
526.304	14.8
526.504	14.77
526.705	14.79
526.905	14.88
527.105	14.87
527.305	14.81
527.505	14.8
527.705	14.84
527.905	14.88
528.105	14.9
528.305	14.95
528.505	15.05
528.705	15.13
528.905	15.15
529.105	15.25
529.304	15.31
529.504	15.31
529.704	15.3
529.904	15.22
530.104	15.2
530.304	15.18
530.503	15.24
530.703	15.24
530.903	15.3
531.103	15.35
531.303	15.44
531.502	15.47
531.702	15.58
531.902	15.73
532.101	15.69
532.301	15.76
532.501	15.86
532.7	15.89
532.9	15.91
533.1	16.05
533.299	16.02
533.499	15.93
533.698	15.9
533.898	15.85
534.097	15.82
534.297	15.88
534.496	15.91
534.696	16.01
534.895	16.05
535.095	16.15
535.294	16.15
535.494	16.2
535.693	16.21
535.892	16.3
536.092	16.26
536.291	16.34
536.491	16.44
536.69	16.49
536.889	16.4
537.088	16.45
537.288	16.47
537.487	16.44
537.686	16.42
537.886	16.56
538.085	16.58
538.284	16.68
538.483	16.73
538.682	16.82
538.882	16.82
539.081	16.85
539.28	16.85
539.479	16.92
539.678	16.96
539.877	17
540.076	17.09
540.275	17.12
540.474	17.12
540.673	17.2
540.872	17.3
541.071	17.34
541.27	17.41
541.469	17.47
541.668	17.46
541.867	17.51
542.066	17.59
542.265	17.65
542.464	17.73
542.663	17.89
542.862	18.02
543.06	18.1
543.259	18.21
543.458	18.29
543.657	18.32
543.856	18.35
544.054	18.45
544.253	18.46
544.452	18.47
544.651	18.48
544.849	18.49
545.048	18.53
545.247	18.61
545.445	18.73
545.644	18.8
545.843	18.87
546.041	18.91
546.24	18.96
546.438	19.02
546.637	19.17
546.836	19.24
547.034	19.29
547.233	19.43
547.431	19.46
547.63	19.45
547.828	19.54
548.027	19.6
548.225	19.57
548.423	19.64
548.622	19.7
548.82	19.75
549.019	19.82
549.217	20
549.415	20.07
549.614	20.25
549.812	20.33
550.01	20.44
550.209	20.5
550.407	20.69
550.605	20.68
550.803	20.71
551.002	20.85
551.2	20.88
551.398	21.03
551.596	21.15
551.794	21.33
551.993	21.33
552.191	21.51
552.389	21.52
552.587	21.62
552.785	21.65
552.983	21.91
553.181	21.93
553.379	22.02
553.577	22.04
553.775	22.18
553.973	22.18
554.171	22.34
554.369	22.39
554.567	22.62
554.765	22.73
554.963	22.81
555.161	22.87
555.359	23.05
555.557	23.1
555.755	23.26
555.952	23.43
556.15	23.61
556.348	23.64
556.546	23.85
556.744	23.88
556.941	23.94
557.139	24.03
557.337	24.2
557.535	24.19
557.732	24.31
557.93	24.53
558.128	24.69
558.325	24.84
558.523	24.98
558.721	25.18
558.918	25.21
559.116	25.32
559.313	25.38
559.511	25.6
559.708	25.68
559.906	25.76
560.104	25.74
560.301	25.97
560.498	26.01
560.696	26.12
560.893	26.33
561.091	26.52
561.288	26.61
561.486	26.72
561.683	26.87
561.88	27
562.078	27.12
562.275	27.2
562.473	27.32
562.67	27.49
562.867	27.57
563.064	27.71
563.262	27.79
563.459	27.93
563.656	28.02
563.853	28.19
564.051	28.37
564.248	28.48
564.445	28.62
564.642	28.67
564.839	28.75
565.036	28.98
565.234	29.16
565.431	29.22
565.628	29.32
565.825	29.51
566.022	29.51
566.219	29.58
566.416	29.75
566.613	29.94
566.81	30
567.007	30.08
567.204	30.14
567.401	30.12
567.598	30.18
567.795	30.27
567.991	30.34
568.188	30.45
568.385	30.6
568.582	30.8
568.779	30.89
568.976	31.01
569.172	31.19
569.369	31.32
569.566	31.34
569.763	31.34
569.96	31.44
570.156	31.48
570.353	31.49
570.55	31.45
570.746	31.56
570.943	31.62
571.14	31.72
571.336	31.74
571.533	31.88
571.729	31.98
571.926	32.01
572.123	32.06
572.319	32.13
572.516	32.13
572.712	32.07
572.909	32.07
573.105	32.09
573.302	32.16
573.498	32.21
573.695	32.31
573.891	32.33
574.087	32.2
574.284	32.28
574.48	32.37
574.677	32.41
574.873	32.52
575.069	32.73
575.266	32.74
575.462	32.77
575.658	32.87
575.854	32.9
576.051	32.94
576.247	32.91
576.443	32.81
576.639	32.78
576.835	32.7
577.032	32.62
577.228	32.67
577.424	32.71
577.62	32.65
577.816	32.68
578.012	32.75
578.208	32.75
578.404	32.76
578.6	32.88
578.796	33.05
578.993	33.06
579.189	33.14
579.384	33.27
579.58	33.22
579.776	33.05
579.972	32.98
580.168	32.88
580.364	32.92
580.56	32.86
580.756	32.9
580.952	32.93
581.148	33.04
581.343	32.98
581.539	33.05
581.735	33.03
581.931	32.95
582.127	32.82
582.322	32.73
582.518	32.66
582.714	32.63
582.909	32.69
583.105	32.66
583.301	32.68
583.496	32.66
583.692	32.71
583.888	32.7
584.083	32.67
584.279	32.61
584.474	32.59
584.67	32.56
584.866	32.46
585.061	32.5
585.257	32.52
585.452	32.53
585.648	32.46
585.843	32.47
586.039	32.46
586.234	32.45
586.429	32.5
586.625	32.63
586.82	32.83
587.015	32.92
587.211	32.94
587.406	32.9
587.601	32.8
587.797	32.74
587.992	32.64
588.187	32.68
588.383	32.67
588.578	32.71
588.773	32.61
588.968	32.64
589.163	32.7
589.359	32.76
589.554	32.73
589.749	32.86
589.944	32.95
590.139	32.9
590.334	32.95
590.529	33.05
590.724	33.07
590.919	33.07
591.114	33.14
591.309	33.18
591.504	33.16
591.699	33.12
591.894	33.12
592.089	33.08
592.284	33.16
592.479	33.21
592.674	33.31
592.869	33.35
593.064	33.43
593.259	33.5
593.454	33.52
593.648	33.57
593.843	33.68
594.038	33.76
594.233	33.77
594.428	33.89
594.622	33.95
594.817	34.15
595.012	34.25
595.206	34.31
595.401	34.38
595.596	34.47
595.79	34.48
595.985	34.41
596.18	34.52
596.374	34.65
596.569	34.78
596.763	34.78
596.958	35.04
597.153	35.08
597.347	35.09
597.542	35.18
597.736	35.26
597.931	35.26
598.125	35.43
598.319	35.57
598.514	35.51
598.708	35.59
598.903	35.76
599.097	35.77
599.291	35.77
599.486	36
599.68	36.06
599.874	36.03
600.069	36.15
600.263	36.29
600.457	36.19
600.651	36.29
600.846	36.37
601.04	36.38
601.234	36.37
601.428	36.51
601.622	36.55
601.817	36.53
602.011	36.48
602.205	36.56
602.399	36.52
602.593	36.62
602.787	36.69
602.981	36.78
603.175	36.84
603.369	36.88
603.563	36.8
603.757	36.78
603.951	36.79
604.145	36.75
604.339	36.76
604.533	36.76
604.727	36.78
604.921	36.76
605.115	36.68
605.309	36.58
605.502	36.64
605.696	36.59
605.89	36.66
606.084	36.73
606.278	36.8
606.471	36.57
606.665	36.52
606.859	36.36
607.053	36.24
607.246	36.11
607.44	36.14
607.634	36.14
607.827	36.1
608.021	36
608.214	35.9
608.408	35.83
608.602	35.62
608.795	35.68
608.989	35.66
609.182	35.7
609.376	35.62
609.569	35.58
609.763	35.39
609.956	35.41
610.15	35.24
610.343	35.18
610.537	35.23
610.73	35.15
610.923	34.94
611.117	34.97
611.31	34.88
611.504	34.78
611.697	34.65
611.89	34.65
612.083	34.52
612.277	34.56
612.47	34.39
612.663	34.38
612.856	34.28
613.05	34.15
613.243	34.02
613.436	34.01
613.629	33.89
613.822	33.85
614.015	33.78
614.209	33.63
614.402	33.43
614.595	33.49
614.788	33.33
614.981	33.21
615.174	33.17
615.367	33.18
615.56	32.83
615.753	32.85
615.946	32.83
616.139	32.86
616.332	32.8
616.525	32.77
616.718	32.72
616.911	32.64
617.103	32.5
617.296	32.42
617.489	32.4
617.682	32.3
617.875	32.25
618.067	32.15
618.26	32.1
618.453	32.14
618.646	32.03
618.838	31.98
619.031	31.94
619.224	31.93
619.417	31.93
619.609	31.95
619.802	31.94
619.994	31.92
620.187	31.77
620.38	31.61
620.572	31.5
620.765	31.49
620.957	31.37
621.15	31.37
621.342	31.39
621.535	31.39
621.727	31.32
621.92	31.31
622.112	31.38
622.305	31.35
622.497	31.39
622.69	31.43
622.882	31.48
623.074	31.43
623.267	31.42
623.459	31.27
623.651	31.22
623.844	31.29
624.036	31.24
624.228	31.25
624.42	31.19
624.613	31.02
624.805	30.9
624.997	30.9
625.189	30.76
625.381	30.83
625.574	30.82
625.766	30.77
625.958	30.74
626.15	30.73
626.342	30.72
626.534	30.65
626.726	30.61
626.918	30.67
627.11	30.63
627.302	30.55
627.494	30.59
627.686	30.63
627.878	30.49
628.07	30.49
628.262	30.45
628.454	30.5
628.646	30.46
628.838	30.41
629.029	30.28
629.221	30.28
629.413	30.14
629.605	30.06
629.797	29.98
629.989	30
630.18	30.01
630.372	29.96
630.564	29.93
630.755	29.93
630.947	29.91
631.139	29.74
631.33	29.69
631.522	29.64
631.714	29.61
631.905	29.61
632.097	29.54
632.289	29.62
632.48	29.63
632.672	29.53
632.863	29.44
633.055	29.46
633.246	29.35
633.438	29.23
633.629	29.2
633.821	29.26
634.012	29.36
634.203	29.26
634.395	29.31
634.586	29.36
634.777	29.35
634.969	29.23
635.16	29.3
635.351	29.27
635.543	29.18
635.734	28.99
635.925	29.07
636.117	29.1
636.308	29.08
636.499	29.08
636.69	29.11
636.881	29.02
637.073	28.99
637.264	28.95
637.455	28.87
637.646	28.88
637.837	28.9
638.028	28.83
638.219	28.95
638.41	28.96
638.601	28.9
638.792	28.86
638.983	28.94
639.174	28.88
639.365	28.96
639.556	28.91
639.747	28.8
639.938	28.78
640.129	28.66
640.32	28.53
640.511	28.61
640.701	28.67
640.892	28.54
641.083	28.5
641.274	28.36
641.465	28.23
641.655	28.09
641.846	28.11
642.037	28.04
642.228	28.09
642.418	28.07
642.609	28.15
642.8	28
642.99	28.05
643.181	28.07
643.372	28.08
643.562	27.96
643.753	27.97
643.943	27.83
644.134	27.67
644.324	27.61
644.515	27.63
644.705	27.52
644.896	27.65
645.086	27.77
645.277	27.76
645.467	27.65
645.658	27.56
645.848	27.42
646.038	27.38
646.229	27.37
646.419	27.22
646.61	27.32
646.8	27.26
646.99	27.26
647.18	27.12
647.371	27.3
647.561	27.17
647.751	27.18
647.941	27.06
648.132	27.05
648.322	26.92
648.512	27.03
648.702	27.11
648.892	27.08
649.082	27.13
649.272	27.09
649.462	27.03
649.653	26.81
649.843	26.74
650.033	26.79
650.223	26.85
650.413	26.85
650.603	26.89
650.793	26.89
650.983	26.69
651.172	26.55
651.362	26.35
651.552	26.26
651.742	26.11
651.932	26.06
652.122	26.1
652.312	26.05
652.502	25.98
652.691	26.06
652.881	25.97
653.071	25.78
653.261	25.73
653.45	25.54
653.64	25.42
653.83	25.31
654.019	25.16
654.209	24.97
654.399	24.87
654.588	24.62
654.778	24.35
654.968	24.25
655.157	24.16
655.347	23.98
655.536	23.79
655.726	23.68
655.915	23.42
656.105	23.19
656.294	23.02
656.484	22.87
656.673	22.8
656.863	22.73
657.052	22.56
657.241	22.47
657.431	22.37
657.62	22.17
657.809	21.93
657.999	21.82
658.188	21.6
658.377	21.35
658.567	21.12
658.756	20.86
658.945	20.55
659.134	20.28
659.324	20.11
659.513	19.89
659.702	19.7
659.891	19.59
660.08	19.37
660.269	19.06
660.458	18.86
660.648	18.7
660.837	18.4
661.026	18.14
661.215	17.95
661.404	17.72
661.593	17.49
661.782	17.33
661.971	17.16
662.16	16.99
662.349	16.76
662.538	16.44
662.726	16.17
662.915	16.1
663.104	15.93
663.293	15.89
663.482	15.8
663.671	15.6
663.86	15.39
664.048	15.27
664.237	15
664.426	14.89
664.615	14.77
664.803	14.5
664.992	14.31
665.181	14.27
665.369	14.06
665.558	14.02
665.747	14.06
665.935	14.02
666.124	13.87
666.312	13.76
666.501	13.64
666.69	13.46
666.878	13.22
667.067	12.98
667.255	12.93
667.444	12.85
667.632	12.82
667.82	12.78
668.009	12.79
668.197	12.71
668.386	12.62
668.574	12.54
668.762	12.5
668.951	12.42
669.139	12.42
669.327	12.4
669.516	12.33
669.704	12.21
669.892	12.32
670.08	12.23
670.269	12.18
670.457	12.09
670.645	12.17
670.833	12.21
671.021	12.31
671.21	12.38
671.398	12.48
671.586	12.39
671.774	12.36
671.962	12.3
672.15	12.24
672.338	12.29
672.526	12.44
672.714	12.35
672.902	12.38
673.09	12.52
673.278	12.65
673.466	12.7
673.654	12.83
673.842	13.01
674.03	12.96
674.218	12.93
674.405	12.96
674.593	13.04
674.781	13.04
674.969	13.18
675.157	13.32
675.344	13.34
675.532	13.36
675.72	13.44
675.908	13.49
676.095	13.49
676.283	13.71
676.471	13.78
676.658	13.9
676.846	13.96
677.033	14.18
677.221	14.32
677.409	14.48
677.596	14.62
677.784	14.77
677.971	14.71
678.159	14.68
678.346	14.67
678.534	14.76
678.721	14.91
678.909	15.07
679.096	15.14
679.283	15.36
679.471	15.52
679.658	15.81
679.846	15.99
680.033	16.32
680.22	16.5
680.408	16.56
680.595	16.56
680.782	16.65
680.969	16.98
681.157	17.22
681.344	17.31
681.531	17.62
681.718	17.88
681.905	17.92
682.093	18.21
682.28	18.56
682.467	18.75
682.654	18.95
682.841	19.39
683.028	19.53
683.215	19.99
683.402	20.19
683.589	20.48
683.776	20.52
683.963	20.95
684.15	21.26
684.337	21.76
684.524	22.2
684.711	22.67
684.898	22.92
685.085	23.03
685.271	23.4
685.458	23.65
685.645	23.85
685.832	24.13
686.019	24.44
686.205	24.78
686.392	25.25
686.579	25.88
686.766	26.41
686.952	27.17
687.139	27.73
687.326	28.41
687.512	28.75
687.699	29.42
687.886	29.95
688.072	30.49
688.259	30.91
688.445	31.75
688.632	32.35
688.818	32.87
689.005	33.42
689.191	34.03
689.378	34.53
689.564	34.99
689.751	35.81
689.937	36.58
690.124	37.07
690.31	37.59
690.496	38.5
690.683	39.11
690.869	39.49
691.055	40.37
691.242	41.07
691.428	41.43
691.614	42.15
691.8	42.99
691.987	43.76
692.173	44.6
692.359	45.58
692.545	46.26
692.731	46.99
692.918	47.54
693.104	48.05
693.29	48.59
693.476	49.21
693.662	49.99
693.848	50.82
694.034	51.58
694.22	52.63
694.406	53.34
694.592	54.15
694.778	54.63
694.964	55.31
695.15	55.68
695.336	56.29
695.522	56.82
695.708	57.64
695.894	58.43
696.08	59.07
696.265	59.83
696.451	60.31
696.637	61.01
696.823	61.51
697.009	62.04
697.194	62.58
697.38	63.12
697.566	63.51
697.751	64.17
697.937	64.99
698.123	65.46
698.308	66.2
698.494	67.24
698.68	67.83
698.865	68.27
699.051	68.96
699.236	69.6
699.422	69.64
699.607	70.27
699.793	70.95
699.978	71.35
700.164	71.52
700.349	72.15
700.535	72.27
700.72	72.27
700.906	72.68
701.091	73.38
701.276	73.72
701.462	74.41
701.647	74.92
701.832	75.42
702.018	75.93
702.203	76.59
702.388	76.95
702.573	77.56
702.759	78.05
702.944	78.13
703.129	78.2
703.314	78.72
703.499	79.19
703.684	79.84
703.87	80.13
704.055	80.54
704.24	80.77
704.425	80.67
704.61	80.69
704.795	81.24
704.98	81.34
705.165	81.6
705.35	82.14
705.535	82.36
705.72	82.43
705.905	83.12
706.09	83.45
706.275	83.8
706.459	84.3
706.644	84.75
706.829	85.1
707.014	85.4
707.199	85.73
707.384	85.82
707.568	86.14
707.753	86.64
707.938	86.83
708.123	86.92
708.307	87.02
708.492	87.52
708.677	87.25
708.861	87.65
709.046	87.33
709.231	87.27
709.415	87.32
709.6	87.6
709.784	87.56
709.969	88.66
710.153	89.18
710.338	89.48
710.522	89.54
710.707	89.83
710.891	89.34
711.076	89.37
711.26	89.2
711.445	89.59
711.629	89.68
711.813	90.28
711.998	90.81
712.182	90.63
712.366	91.1
712.551	91.43
712.735	91.5
712.919	91.78
713.103	92.83
713.288	92.62
713.472	92.76
713.656	92.65
713.84	92.54
714.024	92.26
714.208	92.01
714.393	92.27
714.577	92.95
714.761	92.92
714.945	93.17
715.129	93.52
715.313	93.6
715.497	93.64
715.681	94.11
715.865	94.03
716.049	94.28
716.233	93.9
716.417	93.77
716.601	93.48
716.785	93.41
716.968	93.41
717.152	93.8
717.336	93.95
717.52	94.24
717.704	95.02
717.888	94.92
718.071	95.05
718.255	95.54
718.439	95.12
718.622	94.93
718.806	95.24
718.99	95.18
719.174	94.97
719.357	95.36
719.541	95.2
719.724	95.21
719.908	95.19
720.092	95.06
720.275	95.27
720.459	95.86
720.642	96.14
720.826	96.31
721.009	96.59
721.193	96.42
721.376	96.12
721.559	96.04
721.743	96.5
721.926	96.33
722.11	96.75
722.293	97.47
722.476	97.47
722.66	97.96
722.843	97.89
723.026	98.13
723.21	97.59
723.393	98.23
723.576	97.7
723.759	98.23
723.942	97.81
724.126	97.8
724.309	97.22
724.492	97.16
724.675	97.04
724.858	97.56
725.041	97.77
725.224	97.92
725.407	97.92
725.59	97.91
725.774	97.76
725.957	98.17
726.14	98.79
726.322	99
726.505	99.09
726.688	99.38
726.871	99.07
727.054	98.9
727.237	98.85
727.42	98.98
727.603	98.63
727.786	98.59
727.968	98.34
728.151	98.66
728.334	99.29
728.517	99.54
728.699	99.43
728.882	99.85
729.065	99.47
729.248	99.42
729.43	99.76
729.613	100.19
729.796	100.59
729.978	100.71
730.161	100.49
730.343	100.81
730.526	100.73
730.708	100.18
730.891	100.13
731.073	100.13
731.256	99.89
731.438	100.32
731.621	100.68
731.803	101.45
731.986	102.04
732.168	102.33
732.35	102.01
732.533	101.85
732.715	101.51
732.898	100.62
733.08	100.6
733.262	100.59
733.444	101.12
733.627	101.36
733.809	102.59
733.991	102.12
734.173	102.02
734.355	101.34
734.538	101.43
734.72	100.5
734.902	101.29
735.084	101.83
735.266	103.14
735.448	103.25
735.63	103.41
735.812	103.11
735.994	103.26
736.176	102.65
736.358	102.92
736.54	104.23
736.722	103.91
736.904	103.77
737.086	102.87
737.268	103.41
737.45	102.63
737.632	103.32
737.814	103.31
737.995	104.17
738.177	103.38
738.359	102.94
738.541	102.55
738.723	102.59
738.904	102.51
739.086	103.25
739.268	103.23
739.449	103.02
739.631	103.13
739.813	102.58
739.994	102.16
740.176	102.93
740.358	103.83
740.539	103.58
740.721	104.29
740.902	104.3
741.084	103.84
741.265	103.14
741.447	104.25
741.628	104.19
741.81	104.02
741.991	104.22
742.172	103.88
742.354	103.18
742.535	103.44
742.717	101.92
742.898	101.84
743.079	102.72
743.261	102.62
743.442	102.03
743.623	103.9
743.804	103.48
743.986	103.12
744.167	102.2
744.348	102.34
744.529	101.79
744.71	102.34
744.891	102.33
745.073	103.95
745.254	104.31
745.435	105.13
745.616	104.64
745.797	104.28
745.978	103.15
746.159	103.05
746.34	102.97
746.521	103.06
746.702	104.06
746.883	104.07
747.064	103.63
747.245	103.43
747.426	103.81
747.606	102.28
747.787	102.37
747.968	102.05
748.149	101.18
748.33	99.86
748.51	99.57
748.691	99.69
748.872	101.58
749.053	101.3
749.233	101.91
749.414	103.78
749.595	103.8
749.775	101.8
749.956	102.19
750.137	102.84
750.317	100.6
750.498	100.6
750.678	99.96
750.859	100.49
751.04	99.98
751.22	100.88
751.4	100.9
751.581	102.06
751.761	101.73
751.942	102.11
752.122	102.05
752.303	101.28
752.483	101.09
752.663	101.25
752.844	100.36
753.024	101.28
753.204	102.58
753.385	103.02
753.565	102.03
753.745	101.49
753.925	100.67
754.106	99.94
754.286	98.24
754.466	98.09
754.646	99.25
754.826	100.64
755.006	98.75
755.187	100.9
755.367	100.91
755.547	101.15
755.727	99.24
755.907	100.43
756.087	99.95
756.267	99.46
756.447	100.27
756.627	100.95
756.807	102.31
756.987	100.54
757.167	102.84
757.346	101.54
757.526	102.55
757.706	101.36
757.886	102.37
758.066	102.07
758.246	102.03
758.425	100.95
758.605	100.71
758.785	102.18
758.965	100.82
759.144	100.04
759.324	100.79
759.504	101.39
759.683	98.9
759.863	99.52
760.043	101.28
760.222	101.41
760.402	100.16
760.581	101.54
760.761	101.19
760.94	100.08
761.12	98.23
761.299	100.74
761.479	101.15
761.658	99.87
761.838	101.48
762.017	104.28
762.197	102.48
762.376	102.13
762.555	103.75
762.735	102.48
762.914	99.91
763.093	99.5
763.273	99.37
763.452	98.36
763.631	95.92
763.81	96.22
763.99	95.13
764.169	94.3
764.348	94.44
764.527	96.85
764.706	97.11
764.885	100.68
765.064	101.55
765.243	101.65
765.423	102.08
765.602	101.81
765.781	97.44
765.96	95.67
766.139	94.34
766.318	96.37
766.497	95.73
766.676	96.46
766.854	97.66
767.033	98.92
767.212	97.07
767.391	97.5
767.57	100.03
767.749	100.59
767.928	100.52
768.106	98.21
768.285	97.66
768.464	97.05
768.643	94.78
768.821	93.99
769	96.09
769.179	95.69
769.357	94.16
769.536	96.17
769.715	94.89
769.893	95.72
770.072	96.09
770.25	95.98
770.429	94.53
770.607	96.97
770.786	92.61
770.964	92.78
771.143	93.63
771.321	92.82
771.5	92.38
771.678	93.46
771.857	92.16
772.035	93.17
772.213	94.91
772.392	93.09
772.57	92.55
772.748	93.15
772.927	92.51
773.105	93.94
773.283	96.16
773.461	96.44
773.64	97.8
773.818	95.65
773.996	93.89
774.174	93.69
774.352	93.74
774.531	91.42
774.709	92.94
774.887	91.13
775.065	91.84
775.243	92.61
775.421	94.55
775.599	96.49
775.777	97.28
775.955	93.94
776.133	94.4
776.311	93.16
776.489	90.93
776.667	90.24
776.844	91.21
777.022	90.25
777.2	90.7
777.378	89.66
777.556	93.3
777.734	95.76
777.911	96.62
778.089	97.6
778.267	99.47
778.445	100
778.622	98.9
778.8	96.43
778.978	97.59
779.155	97.93
779.333	97.05
779.511	96.09
779.688	96.95
779.866	94.3
780.043	95.14
780.221	93.75
780.398	93.1
780.576	95.58
780.753	92.77
780.931	91.72
781.108	92.61
781.286	95.08
781.463	93.56
781.64	96.39
781.818	98.63
781.995	95.45
782.172	92.14
782.35	93.59
782.527	94.27
782.704	89.59
782.882	87.42
783.059	89.3
783.236	87.02
783.413	86.86
783.59	87.5
783.768	90.6
783.945	87.12
784.122	85.25
784.299	84.34
784.476	83.21
784.653	83.76
784.83	83.62
785.007	83.54
785.184	84.45
785.361	85.01
785.538	81.82
785.715	88.68
785.892	90.39
786.069	90.07
786.246	93.44
786.423	94.15
786.6	89.86
786.776	89.36
786.953	86.69
787.13	86.62
787.307	88.42
787.484	87.06
787.66	87.26
787.837	89.04
788.014	87.42
788.191	85.85
788.367	84.69
788.544	85.9
788.721	83.31
788.897	82.59
789.074	82.29
789.25	85.38
789.427	85.16
789.603	84.4
789.78	85.04
789.956	84.45
790.133	81.41
790.309	80.79
790.486	83.24
790.662	81.08
790.839	83.7
791.015	84.73
791.192	85.84
791.368	85.18
791.544	87.61
791.721	87.59
791.897	85.67
792.073	82.42
792.249	80.89
792.426	78.31
792.602	80.02
792.778	80.74
792.954	81.48
793.13	83.55
793.307	88.45
793.483	81.11
793.659	81.46
793.835	83.23
794.011	87.12
794.187	83.92
794.363	83.74
794.539	84.26
794.715	79.2
794.891	79.51
795.067	78.39
795.243	82.74
795.419	86.74
795.595	93.82
795.771	85.12
795.947	84.42
796.122	81.5
796.298	76.04
796.474	77.6
796.65	85.36
796.826	82.95
797.001	81.53
797.177	78.01
797.353	73.68
797.529	70.58
797.704	72.75
797.88	73.64
798.056	76.71
798.231	73.18
798.407	72.26
798.582	72.64
798.758	76.45
798.934	79.29
799.109	77.82
799.285	79.94
799.46	78.31
799.636	77.51
799.811	75.02
799.986	74.99
800.162	68.84
800.337	71.25
800.513	69.06
800.688	67.93
800.863	81.91
801.039	86.74
801.214	82.6
801.389	80.54
801.565	83.14
801.74	73.46
801.915	73.92
802.09	77.71
802.265	82.51
802.441	78.42
802.616	78.47
802.791	74.83
802.966	76.44
803.141	76.21
803.316	80.44
803.491	82.32
803.666	87.39
803.841	76.71
804.016	68.49
804.191	63.89
804.366	62.33
804.541	59.88
804.716	66.82
804.891	71.19
805.066	76.81
805.241	72.25
805.416	76.76
805.591	77.26
805.765	87.14
805.94	86.3
806.115	90.25
806.29	84.86
806.464	84.93
806.639	78.07
806.814	75.54
806.989	77.01
807.163	81.7
807.338	81.32
807.512	83.18
807.687	82.37
807.862	83.23
808.036	79.74
808.211	75.29
808.385	73.48
808.56	70.11
808.734	67.13
808.909	71.78
809.083	78.87
809.258	82.75
809.432	89.34
809.606	91.62
809.781	82.75
809.955	87.32
810.13	79.82
810.304	74.56
810.478	74.28
810.652	78
810.827	69.69
811.001	70.75
811.175	75.6
811.349	74.16
811.524	70.59
811.698	70.92
811.872	79.48
812.046	69.62
812.22	71.78
812.394	66.04
812.568	68.28
812.742	54.41
812.916	65.2
813.09	63.03
813.264	64.44
813.438	63.01
813.612	62.5
813.786	58.94
813.96	61.61
814.134	67.62
814.308	77.6
814.482	81.06
814.656	79.16
814.83	74.33
815.003	73.08
815.177	67.09
815.351	72.95
815.525	75.46
815.698	70.15
815.872	58.97
816.046	47.63
816.219	47.95
816.393	51.41
816.567	62.67
816.74	64.99
816.914	79.69
817.088	80.87
817.261	80.24
817.435	74.7
817.608	82.81
817.782	66.8
817.955	65.9
818.129	62.99
818.302	69.22
818.475	74.04
818.649	74.18
818.822	63.31
818.996	68.09
819.169	71.08
819.342	62.99
819.516	68.42
819.689	75.24
819.862	66.29
820.035	58.77
820.209	54.83
820.382	47.17
820.555	45.17
820.728	38.38
820.901	36.45
821.075	48.29
821.248	62.41
821.421	59.17
821.594	64.06
821.767	77.61
821.94	71.51
822.113	67.8
822.286	73.82
822.459	80.3
822.632	73.3
822.805	71.85
822.978	72.66
823.151	63.87
823.324	55.53
823.496	52.3
823.669	55.6
823.842	53.66
824.015	53.08
824.188	48.5
824.361	53.97
824.533	44.11
824.706	47.43
824.879	57.1
825.051	66.34
825.224	65.35
825.397	66.8
825.569	62.07
825.742	62.17
825.915	64.87
826.087	52.96
826.26	46.85
826.432	54.41
826.605	51.23
826.777	54.33
826.95	65.93
827.122	73.58
827.295	83.86
827.467	94.79
827.64	84.67
827.812	68.31
827.984	60.52
828.157	41.61
828.329	42.15
828.501	41.28
828.674	55.36
828.846	59.82
829.018	57.34
829.19	46.39
829.363	41.41
829.535	32.73
829.707	29.49
829.879	19.8
830.051	14.06
830.223	24.18
830.395	23.2
830.568	30.21
830.74	36.96
830.912	55.04
831.084	54.16
831.256	57.39
831.428	64.95
831.6	58.46
831.772	29.05
831.943	18.54
832.115	20.85
832.287	23.84
832.459	31.43
832.631	57.85
832.803	73.21
832.975	79.08
833.146	70.9
833.318	76.27
833.49	75.53
833.662	79.81
833.833	62.83
834.005	63.54
834.177	69.37
834.348	43.79
834.52	40.08
834.692	32.47
834.863	32.48
835.035	27.91
835.206	39.98
835.378	37.51
835.549	41.16
835.721	51.92
835.892	48.54
836.064	48.01
836.235	40.93
836.407	48.74
836.578	44.55
836.749	39.87
836.921	37.39
837.092	27.14
837.264	25.87
837.435	10.03
837.606	23.57
837.777	28.41
837.949	47.48
838.12	43.91
838.291	42.23
838.462	37.62
838.633	35.91
838.805	14.28
838.976	16.16
839.147	17.76
839.318	20.29
839.489	19.27
839.66	45.09
839.831	41.39
840.002	47.38
840.173	47.76
840.344	47.97
840.515	33.45
840.686	36.64
840.857	41.17
841.028	47.99
841.199	51.06
841.369	53.13
841.54	43.86
841.711	68.43
841.882	43.87
842.053	39.47
842.223	39.68
842.394	52.31
842.565	36.48
842.736	42.8
842.906	31.86
843.077	29.13
843.248	45.91
843.418	34.85
843.589	25.37
843.759	47.22
843.93	59.71
844.101	34.54
844.271	57.51
844.442	63.19
844.612	57.07
844.783	63.21
844.953	61.4
845.123	58.13
845.294	66.64
845.464	66.45
845.635	30.33
845.805	60.56
845.975	61.17
846.146	32.1
846.316	26.9
846.486	62.31
846.656	60.05
846.827	61.26
846.997	67.01
847.167	56.24
847.337	46.21
847.507	36
847.677	28.74
847.848	33.27
848.018	48.13
848.188	46.37
848.358	32.97
848.528	35.08
848.698	10.96
848.868	2.8
849.038	-0.5
849.208	19.02
849.378	22.73
849.548	29.15
849.718	16.85
849.887	23.63
850.057	6.15
850.227	4.81
850.397	18.69
850.567	25.29
850.737	40.27
850.906	16.69
851.076	0.67
851.246	10.28
851.415	-2.64
851.585	-32.79
851.755	20.52
851.924	28.59
852.094	27.18
852.264	22.67
852.433	0.34
852.603	-30.15
852.772	-8.97
852.942	18.75
853.111	12.32
853.281	43.59
853.45	37.47
853.62	7.95
853.789	-24.02
853.959	-0.99
854.128	2
854.297	33.18
854.467	52.19
854.636	69.25
854.805	66.7
854.975	48.85
855.144	26.61
855.313	48.63
855.482	33.3
855.652	38.16
855.821	33.1
855.99	36.96
856.159	-7.89
856.328	-13.58
856.497	-7.35
856.667	4.74
856.836	4.47
857.005	-7.76
857.174	1.85
857.343	-23.44
857.512	-7.2
857.681	-23.19
857.85	3.4
858.019	5.47
858.188	22.03
858.356	1.26
858.525	23.16
858.694	7.02
858.863	-1.18
859.032	-5.51
859.201	-41.8
859.369	-66.43
859.538	-12.77
859.707	-36.6
859.876	5.32
860.044	6.96
860.213	27.26
860.382	11.78
860.55	12.55
860.719	18.26
860.888	44.22
861.056	22.79
861.225	14.32
861.393	47.45
861.562	17.04
861.73	-12.05
861.899	-5.98
862.067	-20.43
862.236	-31.35
862.404	-16.39
862.572	-4.3
862.741	-17.08
862.909	4.47
863.078	8.93
863.246	-5.31
863.414	6.1
863.582	13.34
863.751	11.37
863.919	14.54
864.087	19.36
864.255	20.79
864.424	2.44
864.592	14.62
864.76	-19.28
864.928	13.55
865.096	-4.79
865.264	-2.25
865.432	-7.55
865.6	16.03
865.768	-56.14
865.936	-38.98
866.104	-37.64
866.272	-96.27
866.44	-54.03
866.608	-25.67
866.776	-7.9
866.944	10.74
867.112	7.72
867.28	4.41
867.448	15.5
867.615	-10.99
867.783	-37.34
867.951	-31.64
868.119	-61.92
868.286	-110.77
868.454	-34.9
868.622	-20.37
868.789	-6.84
868.957	22.42
869.125	21.81
869.292	5.17
869.46	13.15
869.627	13.88
869.795	-9.74
869.963	11.4
870.13	8.59
870.298	8.74
870.465	-1.7
870.632	-24.43
870.8	-18.87
870.967	-30.19
871.135	-43.08
871.302	-29.31
871.469	-17.39
871.637	11.87
871.804	48.33
871.971	21.87
872.139	19.74
872.306	21.44
872.473	-9.56
872.64	-75.54
872.807	-54.19
872.975	-130.81
873.142	-54.9
873.309	-60.18
873.476	7.7
873.643	0.79
873.81	11.72
873.977	-31.55
874.144	11.77
874.311	-28.07
874.478	-40.83
874.645	-67.64
874.812	42.99
874.979	15.62
875.146	-9.04
875.313	16.77
875.48	33.54
875.647	33.29
875.813	8.33
875.98	24.16
876.147	16.11
876.314	79.22
876.481	14.53
876.647	29.21
876.814	10.39
876.981	37.3
877.147	-7.71
877.314	3.46
877.481	10.88
877.647	25.46
877.814	12.5
877.98	30.01
878.147	59.78
878.314	57.7
878.48	60.74
878.647	56.95
878.813	51.81
878.979	48.28
879.146	59.57
879.312	62.53
879.479	39.63
879.645	32.64
879.811	-30.59
879.978	1.42
880.144	-5.78
880.31	-2.54
880.477	19.6
880.643	41.29
880.809	-38.73
880.975	-69.99
881.142	-230.46
881.308	752.22
881.474	1199.36
881.64	-194.91
881.806	-159.28
881.972	23.53
882.138	36.37
882.304	63.64
882.47	38.94
882.636	-1.76
882.802	-25.38
882.968	-44
883.134	-18.41
883.3	-30.23
883.466	-3.95
883.632	21.03
883.798	76.74
883.964	-24.98
884.129	-391.7
884.295	-60.61
884.461	-99.72
884.627	-51.34
884.793	-53.03
884.958	17.03
885.124	9.81
885.29	-39.44
885.455	-114.44
885.621	-56.88
885.787	-52.2
885.952	-93.1
886.118	-16.03
886.283	-18.95
886.449	-7.74
886.614	-36.96
886.78	-26.97
886.945	-39.96
887.111	-20.75
887.276	-47.93
887.442	-92.2
887.607	-35.24
887.773	-22.61
887.938	-45.76
888.103	-36.56
888.269	-1.39
888.434	18.34
888.599	-0.62
888.764	39.76
888.93	50.36
889.095	26.57
889.26	-9.78
889.425	-6.78
889.59	-48.86
889.756	-33.7
889.921	-17.87
890.086	-27.83
890.251	-44.69
890.416	-33.97
890.581	-105.75
890.746	-16.62
890.911	16.46
891.076	28.29
891.241	17.01
891.406	54.1
891.571	68.25
891.736	28.51
891.901	15.92
892.065	0.09
892.23	-12.44
892.395	-32
892.56	-25.38
892.725	-2.22
892.889	26.42
893.054	-48.57
893.219	-119.89
893.384	-138.48
893.548	-206.91
893.713	-247.5
893.878	-297.77
