Data from Ofra_2a_PS_OCX4_Reflection_2.txt Node
Date: Tue Jul 20 09:22:21 EDT 2021
User: Adam
Spectrometer: FLMT01687
Trigger mode: 0
Integration Time (sec): 9.450000E-1
Scans to average: 3
Electric dark correction enabled: true
Nonlinearity correction enabled: false
Boxcar width: 3
XAxis mode: Wavelengths
Number of Pixels in Spectrum: 3648
>>>>>Begin Spectral Data<<<<<
179.494	15.98
179.716	24.03
179.937	23.63
180.158	-186.33
180.38	459.59
180.601	161.43
180.823	111.58
181.044	134.76
181.265	65.67
181.486	43.28
181.708	466.3
181.929	-8.72
182.15	-172.16
182.372	110.74
182.593	160.53
182.814	119.91
183.035	108.78
183.257	53.96
183.478	30.24
183.699	40.77
183.92	43.5
184.141	42.39
184.363	12.03
184.584	10.91
184.805	13.09
185.026	-1.47
185.247	-1.51
185.468	-1.12
185.689	16.25
185.91	33.32
186.132	42.01
186.353	29.48
186.574	29.6
186.795	14.02
187.016	7.13
187.237	1.29
187.458	-21.52
187.679	-43.69
187.9	-20.1
188.121	-11.79
188.342	19.2
188.563	25.5
188.784	19.92
189.005	43.15
189.226	29.19
189.447	19.72
189.667	21.6
189.888	25.95
190.109	32.95
190.33	44.29
190.551	25.07
190.772	25.91
190.993	32.23
191.214	30.6
191.434	32.26
191.655	30.22
191.876	25.94
192.097	33.12
192.318	45.33
192.538	55.31
192.759	61.73
192.98	43.52
193.201	48.03
193.421	45.95
193.642	41.7
193.863	23.91
194.083	3.23
194.304	-16.78
194.525	18.44
194.745	10.62
194.966	11.89
195.187	16.76
195.407	24.28
195.628	18.01
195.848	23.64
196.069	8.43
196.29	-1.54
196.51	-11.44
196.731	-1.39
196.951	-1.08
197.172	6.2
197.392	16.36
197.613	20.33
197.833	28.57
198.054	27.68
198.274	8.2
198.495	0.69
198.715	-4.42
198.936	-20.07
199.156	-18.1
199.377	-11.48
199.597	-7.14
199.817	3.94
200.038	16.5
200.258	23.82
200.479	27.86
200.699	26.9
200.919	18.07
201.14	18.53
201.36	18.87
201.58	20.81
201.801	10.53
202.021	18.17
202.241	26.84
202.461	24.61
202.682	22.78
202.902	29.98
203.122	27.66
203.342	36.33
203.563	37.43
203.783	34.78
204.003	40.84
204.223	42.48
204.443	34.09
204.663	34.07
204.884	23.98
205.104	18.68
205.324	24.7
205.544	25.83
205.764	18.94
205.984	32.45
206.204	20.94
206.424	34.68
206.644	30.48
206.864	24.91
207.084	32.03
207.304	32.11
207.525	26.15
207.745	45.79
207.964	46.06
208.184	46.16
208.404	37.06
208.624	16.55
208.844	13.07
209.064	12.73
209.284	11.47
209.504	-3.11
209.724	-38.62
209.944	-48.15
210.164	-27.08
210.384	-26.4
210.604	-42.73
210.823	-33.24
211.043	-25.08
211.263	7.05
211.483	14.45
211.703	9.74
211.922	19.14
212.142	23.89
212.362	28.26
212.582	33.83
212.801	29.79
213.021	28.17
213.241	31.93
213.461	29.09
213.68	32.43
213.9	17.67
214.12	11.18
214.339	8.19
214.559	4.19
214.779	10.44
214.998	19.05
215.218	17.54
215.438	24.86
215.657	25.93
215.877	26.6
216.096	28.07
216.316	20.43
216.535	9.69
216.755	-11.54
216.974	-13.39
217.194	-17.18
217.413	-12.65
217.633	4.19
217.852	-2.85
218.072	-7.71
218.291	24.72
218.511	21.57
218.73	21.12
218.95	31
219.169	30.83
219.389	32.06
219.608	35.45
219.827	26.31
220.047	40.16
220.266	39.16
220.485	24.29
220.705	12.66
220.924	21.96
221.143	25.03
221.363	29.29
221.582	24.13
221.801	25.75
222.021	29.73
222.24	40.66
222.459	32.56
222.678	26.42
222.897	21.91
223.117	22.48
223.336	25.21
223.555	27.56
223.774	33.66
223.993	41.66
224.213	38.29
224.432	57.52
224.651	51.18
224.87	42.8
225.089	54.93
225.308	44.45
225.527	44.33
225.746	39.47
225.965	21.46
226.184	26.25
226.404	29.35
226.623	18.82
226.842	20.37
227.061	12.07
227.28	18.58
227.499	25.99
227.718	20.64
227.936	21.4
228.155	24
228.374	22.48
228.593	27.86
228.812	29.75
229.031	24.28
229.25	30.4
229.469	37.07
229.688	32.18
229.907	34.31
230.125	30.83
230.344	32.94
230.563	41.44
230.782	37.15
231.001	29.69
231.22	26.2
231.438	29.54
231.657	32.92
231.876	22.44
232.095	21.41
232.313	29.58
232.532	20.32
232.751	14.91
232.969	12.17
233.188	9.84
233.407	21.34
233.625	15.47
233.844	10.48
234.063	17.08
234.281	17.67
234.5	17.88
234.719	11.08
234.937	6.94
235.156	0.55
235.374	-10.23
235.593	-3.9
235.811	-4.37
236.03	-19.04
236.249	-4.6
236.467	-3.38
236.686	-2.05
236.904	2.25
237.123	-5.36
237.341	-7.05
237.559	-0.99
237.778	3.16
237.996	1.5
238.215	4.72
238.433	13.39
238.652	22.04
238.87	32.07
239.088	29.16
239.307	25.75
239.525	27.11
239.743	18.86
239.962	15.84
240.18	27.28
240.398	27.73
240.617	36.15
240.835	36.31
241.053	37.54
241.271	54.2
241.49	46.73
241.708	37.13
241.926	24.22
242.144	13.83
242.363	6.16
242.581	6.7
242.799	-8.23
243.017	2.79
243.235	-8.48
243.453	-6.81
243.672	-2.25
243.89	5.39
244.108	13.75
244.326	15.64
244.544	23.47
244.762	32.9
244.98	30.25
245.198	21.61
245.416	17.76
245.634	14.82
245.852	27.91
246.07	21.24
246.288	4.79
246.506	21.38
246.724	28.09
246.942	32.04
247.16	29.49
247.378	11.04
247.596	17.58
247.814	17.73
248.032	8.82
248.25	2.34
248.468	10.19
248.685	6.86
248.903	20.23
249.121	15.83
249.339	21.22
249.557	24.69
249.775	18.33
249.992	14.03
250.21	10.42
250.428	-1.13
250.646	-0.38
250.863	4.03
251.081	2.91
251.299	26.35
251.517	30.58
251.734	38.25
251.952	53.24
252.17	48.63
252.387	48.7
252.605	51.73
252.823	41.01
253.04	27.62
253.258	27.94
253.475	14
253.693	26.88
253.911	15.16
254.128	20.39
254.346	20.17
254.563	25.72
254.781	21.72
254.998	26.5
255.216	23.32
255.433	21.85
255.651	13.85
255.868	15.53
256.086	5.29
256.303	4.11
256.521	-11.99
256.738	-12.03
256.956	-13.85
257.173	-2.43
257.39	2.05
257.608	11.95
257.825	10.81
258.043	26.04
258.26	28.64
258.477	39.21
258.695	35.02
258.912	35.06
259.129	28.49
259.346	34.6
259.564	26.35
259.781	27.57
259.998	22.8
260.216	21.77
260.433	20.87
260.65	20.15
260.867	6.09
261.084	10.56
261.302	-4.35
261.519	-10.8
261.736	-3.06
261.953	-14.75
262.17	-1.53
262.387	8.06
262.604	-2.3
262.822	13.57
263.039	24.22
263.256	17.69
263.473	22.41
263.69	13.85
263.907	7.91
264.124	10.06
264.341	13.71
264.558	9.53
264.775	11.68
264.992	14.84
265.209	28.48
265.426	31.27
265.643	31.74
265.86	26.79
266.077	28.49
266.294	32.01
266.51	35.02
266.727	17.97
266.944	13.94
267.161	11.69
267.378	-1
267.595	-6.3
267.812	-8.78
268.028	-5.33
268.245	12.82
268.462	19.64
268.679	17.87
268.896	17.98
269.112	27.02
269.329	33.24
269.546	27.51
269.763	26.32
269.979	17.68
270.196	27.38
270.413	25.22
270.629	22.62
270.846	22.3
271.063	21.57
271.279	15.44
271.496	16.72
271.712	4.6
271.929	14.01
272.146	9.03
272.362	-2.67
272.579	1.09
272.795	2.03
273.012	7.3
273.228	16.47
273.445	13.97
273.661	15.35
273.878	17.97
274.094	19.94
274.311	14.44
274.527	8.74
274.744	0.68
274.96	-0.1
275.177	1.5
275.393	-3.44
275.609	-4.95
275.826	3.4
276.042	7.27
276.259	19.93
276.475	16.32
276.691	13.19
276.908	11.83
277.124	14.27
277.34	10.45
277.557	15.19
277.773	7.02
277.989	7.6
278.205	1.65
278.422	10.03
278.638	13.38
278.854	25.57
279.07	20.03
279.286	18.74
279.503	18.59
279.719	28.66
279.935	20.28
280.151	22.08
280.367	8.69
280.583	8
280.799	17.65
281.016	21.93
281.232	18.14
281.448	15.89
281.664	14.17
281.88	27.7
282.096	33.01
282.312	21.99
282.528	4.7
282.744	-12.31
282.96	-1.02
283.176	-11.33
283.392	-11
283.608	-10.03
283.824	-2.71
284.04	16.35
284.256	25.76
284.471	31.39
284.687	36.04
284.903	31.77
285.119	26.9
285.335	24.65
285.551	33.86
285.767	37.21
285.982	25.88
286.198	22.89
286.414	24.89
286.63	28.37
286.846	28.8
287.061	27.01
287.277	29.26
287.493	38.15
287.709	36.93
287.924	25.42
288.14	23.65
288.356	29.37
288.571	22.89
288.787	24.63
289.003	26.03
289.218	33.24
289.434	33.96
289.65	37.93
289.865	36.74
290.081	34.89
290.296	30.65
290.512	26.88
290.727	32.86
290.943	32.04
291.159	19.55
291.374	21.3
291.59	27.23
291.805	28.71
292.021	20.55
292.236	5.33
292.451	13.37
292.667	18.7
292.882	2.46
293.098	-13.9
293.313	-16.99
293.529	-6.24
293.744	-10.47
293.959	-5.6
294.175	-1.1
294.39	15.4
294.605	23.01
294.821	24.22
295.036	24.54
295.251	32.54
295.467	26.88
295.682	28.18
295.897	24.07
296.112	20.87
296.328	25.68
296.543	21.65
296.758	21.26
296.973	29.35
297.188	17.59
297.404	17.7
297.619	18.22
297.834	21.52
298.049	21.68
298.264	17.93
298.479	-1.4
298.694	9.09
298.909	8.37
299.125	16.85
299.34	6.79
299.555	11.12
299.77	17.03
299.985	28.34
300.2	29.67
300.415	31.97
300.63	25.53
300.845	35.1
301.06	28.65
301.275	29.72
301.49	28.35
301.704	23.41
301.919	16.71
302.134	14.78
302.349	8.32
302.564	4.31
302.779	0.79
302.994	0.45
303.209	0.19
303.423	13.53
303.638	25.17
303.853	35.29
304.068	35.65
304.283	37.53
304.497	32.56
304.712	24.47
304.927	17.44
305.142	11.1
305.356	5.99
305.571	13.77
305.786	5.85
306	17.18
306.215	28.18
306.43	27.22
306.644	31.53
306.859	29.92
307.074	25.88
307.288	38.14
307.503	28.74
307.717	25.24
307.932	34.38
308.147	35.79
308.361	42.93
308.576	43.4
308.79	37.49
309.005	40.41
309.219	41.4
309.434	33.98
309.648	29.48
309.863	19.79
310.077	16.06
310.292	15.71
310.506	22.93
310.72	18.88
310.935	17.8
311.149	25.88
311.364	23.3
311.578	22.06
311.792	15.82
312.007	11.41
312.221	10.54
312.435	13.71
312.649	-6.76
312.864	-10.99
313.078	-6.66
313.292	12.42
313.507	9.86
313.721	14.41
313.935	12.1
314.149	21.99
314.363	33.74
314.578	42.68
314.792	30.62
315.006	26.26
315.22	40.12
315.434	37.51
315.648	35.19
315.862	24.41
316.077	16.94
316.291	21.62
316.505	25.03
316.719	5.84
316.933	10.9
317.147	20.74
317.361	32.3
317.575	28.1
317.789	24.4
318.003	29.56
318.217	24.48
318.431	20.89
318.645	24.17
318.859	13.77
319.073	19.02
319.287	24.23
319.5	21.63
319.714	27.16
319.928	31.44
320.142	24.05
320.356	33.43
320.57	30.97
320.784	26.99
320.997	29.49
321.211	33.59
321.425	31.59
321.639	30.44
321.853	19.51
322.066	17.4
322.28	15.63
322.494	10.01
322.707	6.47
322.921	8.96
323.135	12.88
323.349	19.62
323.562	20.23
323.776	21.08
323.989	20.6
324.203	28.17
324.417	19.78
324.63	17.53
324.844	10.79
325.057	17.85
325.271	7.51
325.485	11.93
325.698	3.81
325.912	14.12
326.125	2.38
326.339	6.63
326.552	6.13
326.766	20.16
326.979	18.06
327.193	11.48
327.406	2.4
327.619	-1.08
327.833	5.42
328.046	5.28
328.26	-4.28
328.473	-4.87
328.686	3.37
328.9	1.03
329.113	11.63
329.326	14.03
329.54	13.9
329.753	23.75
329.966	22.85
330.179	23.02
330.393	22.75
330.606	23.82
330.819	24.09
331.032	20.8
331.246	19.58
331.459	23.48
331.672	23.69
331.885	25.83
332.098	26.46
332.311	16.61
332.525	25.27
332.738	14.42
332.951	7.28
333.164	5.63
333.377	-4.56
333.59	5.02
333.803	12.59
334.016	1.77
334.229	0.68
334.442	14.41
334.655	17.05
334.868	25.96
335.081	24.66
335.294	16.24
335.507	27.12
335.72	27.15
335.933	27.36
336.146	29.09
336.359	29.63
336.572	21.58
336.785	29.48
336.997	23.93
337.21	28.34
337.423	23.49
337.636	18.75
337.849	15.27
338.062	19.48
338.274	25.75
338.487	23.79
338.7	29.71
338.913	32.24
339.125	32.16
339.338	38.65
339.551	33.71
339.763	27.03
339.976	23.17
340.189	18.42
340.402	19.01
340.614	22.44
340.827	7.6
341.039	9.8
341.252	11.54
341.465	7.5
341.677	3.08
341.89	2.44
342.102	7.04
342.315	14.34
342.527	15.43
342.74	9.29
342.952	11.1
343.165	25.58
343.377	31.63
343.59	20.28
343.802	31.1
344.015	27.45
344.227	29
344.44	31.09
344.652	22.65
344.864	20.81
345.077	25.62
345.289	22.97
345.502	34.43
345.714	28.25
345.926	32.21
346.139	27.34
346.351	18.46
346.563	22.02
346.775	14.51
346.988	9.6
347.2	13.26
347.412	13.43
347.624	23.85
347.837	24.24
348.049	16.35
348.261	15.54
348.473	9.53
348.685	11.5
348.897	10.79
349.11	0.59
349.322	3.95
349.534	10.46
349.746	22.96
349.958	26.2
350.17	30.48
350.382	27.05
350.594	25.57
350.806	23.48
351.018	29.43
351.23	29.1
351.442	29.71
351.654	29.41
351.866	38.1
352.078	38.44
352.29	39.94
352.502	35.14
352.714	30.32
352.926	24.97
353.138	28.35
353.35	13.92
353.561	19.28
353.773	20.45
353.985	24.55
354.197	20.31
354.409	27.7
354.621	24.43
354.832	21.42
355.044	23.56
355.256	16.71
355.468	6.08
355.679	16.5
355.891	17.87
356.103	16.52
356.314	13.51
356.526	8.26
356.738	1.68
356.949	15.54
357.161	5.46
357.373	0.85
357.584	-3.21
357.796	4.92
358.008	5.15
358.219	20.32
358.431	6.29
358.642	12.66
358.854	9.82
359.065	15.62
359.277	19.04
359.488	16.19
359.7	15.9
359.911	21.83
360.123	20.29
360.334	20.48
360.546	14.02
360.757	21.24
360.969	27.93
361.18	23.36
361.391	23.89
361.603	22.83
361.814	24.23
362.025	26.99
362.237	22.91
362.448	20.36
362.659	5.11
362.871	4.43
363.082	7.85
363.293	12.41
363.504	12.15
363.716	12.56
363.927	12.65
364.138	24.89
364.349	26.52
364.56	24.42
364.772	21.34
364.983	22.27
365.194	14.92
365.405	15.03
365.616	8.58
365.827	-1.24
366.038	5.34
366.25	10.84
366.461	11.92
366.672	17.85
366.883	22.48
367.094	29.57
367.305	32.37
367.516	25.29
367.727	19.17
367.938	21.49
368.149	21.35
368.36	18.5
368.571	18.9
368.781	20.32
368.992	21.7
369.203	27.94
369.414	13.48
369.625	10.94
369.836	15.76
370.047	9.88
370.258	6.03
370.468	10.9
370.679	4.76
370.89	11.89
371.101	13.62
371.312	2.03
371.522	4.96
371.733	1.7
371.944	6.29
372.155	-1.37
372.365	0.82
372.576	4.54
372.787	5.61
372.997	3.51
373.208	8.86
373.419	-0.53
373.629	8.49
373.84	12.57
374.05	13.06
374.261	22.47
374.472	23.69
374.682	23.61
374.893	26.21
375.103	34.11
375.314	28.29
375.524	25.52
375.735	18.01
375.945	18.85
376.156	24.19
376.366	23.67
376.577	20.24
376.787	25.56
376.997	23.57
377.208	25.24
377.418	23.73
377.629	18.36
377.839	22.74
378.049	26.28
378.26	23.06
378.47	22.94
378.68	20.28
378.89	18.2
379.101	15.74
379.311	8.9
379.521	6.48
379.732	4.19
379.942	7.95
380.152	17.42
380.362	22
380.572	24.11
380.783	22.12
380.993	13.92
381.203	12.09
381.413	16.56
381.623	12.73
381.833	9.5
382.043	7.61
382.253	12.75
382.463	17.36
382.674	21.88
382.884	10.2
383.094	10.23
383.304	5.59
383.514	10.73
383.724	9.25
383.934	8.86
384.144	6.85
384.353	12.47
384.563	8.93
384.773	13.86
384.983	13.89
385.193	16.87
385.403	15.33
385.613	13.97
385.823	14.59
386.033	16.77
386.242	16.39
386.452	14.98
386.662	12.09
386.872	10.93
387.082	15.71
387.291	10.42
387.501	12.77
387.711	11.25
387.921	10.05
388.13	9.76
388.34	8.51
388.55	6.24
388.759	8.99
388.969	4.92
389.179	7.72
389.388	7.38
389.598	6.19
389.807	7.83
390.017	6.1
390.227	4.79
390.436	4.98
390.646	3.66
390.855	5.43
391.065	6.28
391.274	6.18
391.484	7.5
391.693	8.22
391.903	7.36
392.112	7.09
392.322	5.93
392.531	5.91
392.74	5.46
392.95	5.59
393.159	6.48
393.369	7.79
393.578	7.55
393.787	7.3
393.997	7.45
394.206	7.41
394.415	6.95
394.625	4.65
394.834	3.61
395.043	3.73
395.252	3.59
395.462	3.39
395.671	4.08
395.88	4.09
396.089	4.81
396.298	5.3
396.508	4.67
396.717	4.44
396.926	4.19
397.135	3.56
397.344	3.32
397.553	3.66
397.762	3.47
397.971	3.54
398.181	3.51
398.39	4.25
398.599	4.56
398.808	4.74
399.017	4.44
399.226	4.54
399.435	4.72
399.644	4.46
399.853	4.14
400.062	4.07
400.27	3.92
400.479	4.02
400.688	4.19
400.897	4.4
401.106	4.59
401.315	4.48
401.524	4.4
401.733	4.56
401.941	4.54
402.15	4.22
402.359	3.95
402.568	3.85
402.777	3.84
402.985	3.74
403.194	3.55
403.403	3.44
403.612	3.51
403.82	3.66
404.029	3.74
404.238	3.82
404.446	3.82
404.655	3.77
404.864	3.77
405.072	3.68
405.281	3.6
405.489	3.65
405.698	3.48
405.906	3.46
406.115	3.53
406.324	3.44
406.532	3.46
406.741	3.44
406.949	3.29
407.158	3.38
407.366	3.48
407.574	3.37
407.783	3.33
407.991	3.32
408.2	3.25
408.408	3.28
408.617	3.21
408.825	3.15
409.033	3.19
409.242	3.18
409.45	3.15
409.658	3.17
409.867	3.18
410.075	3.17
410.283	3.13
410.491	3.13
410.7	3.2
410.908	3.19
411.116	3.14
411.324	3.17
411.533	3.12
411.741	3.11
411.949	3.13
412.157	3.09
412.365	3.08
412.573	3.13
412.781	3.07
412.99	3.16
413.198	3.12
413.406	3.07
413.614	3.09
413.822	3.11
414.03	3.03
414.238	3.06
414.446	2.98
414.654	3.02
414.862	3.03
415.07	3.05
415.278	3
415.486	3.08
415.694	2.99
415.902	2.96
416.109	2.97
416.317	2.91
416.525	2.85
416.733	2.9
416.941	2.83
417.149	2.95
417.357	2.99
417.564	2.95
417.772	2.97
417.98	3
418.188	2.89
418.395	2.88
418.603	2.76
418.811	2.68
419.019	2.65
419.226	2.71
419.434	2.62
419.642	2.59
419.849	2.61
420.057	2.6
420.265	2.66
420.472	2.68
420.68	2.67
420.887	2.7
421.095	2.84
421.302	2.84
421.51	2.94
421.717	2.98
421.925	2.91
422.132	2.86
422.34	2.83
422.547	2.71
422.755	2.73
422.962	2.59
423.17	2.45
423.377	2.53
423.585	2.56
423.792	2.56
423.999	2.56
424.207	2.44
424.414	2.57
424.621	2.68
424.829	2.6
425.036	2.5
425.243	2.59
425.451	2.61
425.658	2.69
425.865	2.61
426.072	2.65
426.28	2.73
426.487	2.69
426.694	2.64
426.901	2.59
427.108	2.54
427.315	2.52
427.523	2.36
427.73	2.35
427.937	2.47
428.144	2.44
428.351	2.6
428.558	2.56
428.765	2.53
428.972	2.59
429.179	2.53
429.386	2.57
429.593	2.6
429.8	2.56
430.007	2.62
430.214	2.78
430.421	2.77
430.628	2.72
430.835	2.66
431.042	2.66
431.249	2.6
431.456	2.61
431.662	2.49
431.869	2.53
432.076	2.61
432.283	2.52
432.49	2.48
432.697	2.46
432.903	2.49
433.11	2.56
433.317	2.56
433.524	2.53
433.73	2.6
433.937	2.6
434.144	2.76
434.35	2.79
434.557	2.75
434.764	2.74
434.97	2.82
435.177	2.85
435.384	2.97
435.59	2.87
435.797	2.89
436.003	2.91
436.21	2.88
436.416	2.86
436.623	2.94
436.829	2.9
437.036	2.92
437.242	2.94
437.449	2.98
437.655	3.07
437.862	3.07
438.068	3.03
438.275	3
438.481	3.07
438.687	3.1
438.894	3.07
439.1	3.08
439.307	3.05
439.513	3.03
439.719	3.09
439.926	3.05
440.132	3
440.338	3.08
440.544	3.04
440.751	3.1
440.957	3.1
441.163	3.16
441.369	3.17
441.575	3.22
441.782	3.18
441.988	3.21
442.194	3.28
442.4	3.32
442.606	3.31
442.812	3.33
443.018	3.3
443.224	3.34
443.431	3.37
443.637	3.34
443.843	3.36
444.049	3.32
444.255	3.33
444.461	3.38
444.667	3.39
444.873	3.38
445.079	3.41
445.284	3.44
445.49	3.47
445.696	3.5
445.902	3.53
446.108	3.58
446.314	3.63
446.52	3.63
446.726	3.62
446.931	3.64
447.137	3.67
447.343	3.67
447.549	3.59
447.755	3.56
447.96	3.56
448.166	3.59
448.372	3.54
448.578	3.55
448.783	3.47
448.989	3.53
449.195	3.55
449.4	3.58
449.606	3.57
449.812	3.65
450.017	3.64
450.223	3.75
450.428	3.74
450.634	3.75
450.84	3.77
451.045	3.75
451.251	3.78
451.456	3.79
451.662	3.75
451.867	3.77
452.073	3.76
452.278	3.69
452.483	3.71
452.689	3.67
452.894	3.66
453.1	3.66
453.305	3.65
453.51	3.68
453.716	3.72
453.921	3.74
454.127	3.74
454.332	3.74
454.537	3.8
454.742	3.76
454.948	3.78
455.153	3.8
455.358	3.83
455.563	3.83
455.769	3.82
455.974	3.75
456.179	3.76
456.384	3.71
456.589	3.77
456.795	3.76
457	3.76
457.205	3.73
457.41	3.81
457.615	3.93
457.82	3.99
458.025	3.95
458.23	3.95
458.435	3.99
458.64	4.07
458.845	4.02
459.05	3.96
459.255	3.94
459.46	3.93
459.665	3.95
459.87	3.94
460.075	3.97
460.28	3.97
460.485	4.02
460.69	3.98
460.895	4.03
461.099	4.01
461.304	4
461.509	3.94
461.714	3.98
461.919	3.95
462.123	3.95
462.328	3.91
462.533	3.91
462.738	3.9
462.942	3.99
463.147	3.97
463.352	3.99
463.556	4.03
463.761	4.03
463.966	4.08
464.17	4.1
464.375	4.09
464.58	4.1
464.784	4.12
464.989	4.15
465.193	4.2
465.398	4.2
465.602	4.24
465.807	4.24
466.011	4.25
466.216	4.27
466.42	4.31
466.625	4.34
466.829	4.38
467.034	4.42
467.238	4.48
467.443	4.55
467.647	4.54
467.851	4.59
468.056	4.6
468.26	4.62
468.464	4.63
468.669	4.6
468.873	4.59
469.077	4.62
469.282	4.64
469.486	4.66
469.69	4.67
469.894	4.69
470.099	4.74
470.303	4.77
470.507	4.77
470.711	4.79
470.915	4.8
471.119	4.87
471.324	4.87
471.528	4.89
471.732	4.93
471.936	4.95
472.14	4.94
472.344	4.96
472.548	4.98
472.752	5.07
472.956	5.14
473.16	5.12
473.364	5.17
473.568	5.21
473.772	5.29
473.976	5.3
474.18	5.26
474.384	5.27
474.588	5.33
474.792	5.37
474.995	5.37
475.199	5.41
475.403	5.41
475.607	5.46
475.811	5.47
476.015	5.5
476.218	5.5
476.422	5.51
476.626	5.49
476.83	5.54
477.033	5.55
477.237	5.57
477.441	5.64
477.644	5.68
477.848	5.77
478.052	5.79
478.255	5.81
478.459	5.89
478.663	5.93
478.866	5.9
479.07	5.93
479.273	5.89
479.477	5.94
479.681	6
479.884	5.97
480.088	5.99
480.291	6.02
480.495	6.06
480.698	6.08
480.901	6.08
481.105	6.1
481.308	6.16
481.512	6.19
481.715	6.22
481.919	6.2
482.122	6.23
482.325	6.27
482.529	6.29
482.732	6.27
482.935	6.25
483.138	6.22
483.342	6.25
483.545	6.27
483.748	6.27
483.952	6.22
484.155	6.26
484.358	6.29
484.561	6.38
484.764	6.41
484.967	6.43
485.171	6.41
485.374	6.44
485.577	6.47
485.78	6.5
485.983	6.49
486.186	6.49
486.389	6.46
486.592	6.53
486.795	6.55
486.998	6.53
487.201	6.53
487.404	6.54
487.607	6.59
487.81	6.65
488.013	6.63
488.216	6.6
488.419	6.61
488.622	6.62
488.825	6.62
489.028	6.59
489.231	6.57
489.433	6.59
489.636	6.62
489.839	6.64
490.042	6.69
490.245	6.7
490.447	6.68
490.65	6.72
490.853	6.72
491.056	6.75
491.258	6.75
491.461	6.73
491.664	6.69
491.866	6.72
492.069	6.75
492.272	6.73
492.474	6.73
492.677	6.75
492.879	6.8
493.082	6.88
493.285	6.92
493.487	6.91
493.69	6.97
493.892	7.01
494.095	7.03
494.297	7.04
494.5	7.07
494.702	7.11
494.905	7.15
495.107	7.16
495.309	7.17
495.512	7.21
495.714	7.24
495.917	7.23
496.119	7.25
496.321	7.32
496.524	7.38
496.726	7.38
496.928	7.45
497.13	7.49
497.333	7.56
497.535	7.57
497.737	7.54
497.939	7.57
498.142	7.63
498.344	7.66
498.546	7.72
498.748	7.71
498.95	7.75
499.152	7.76
499.355	7.8
499.557	7.85
499.759	7.94
499.961	7.95
500.163	8.06
500.365	8.11
500.567	8.16
500.769	8.2
500.971	8.23
501.173	8.19
501.375	8.23
501.577	8.25
501.779	8.29
501.981	8.37
502.183	8.37
502.385	8.4
502.587	8.44
502.788	8.48
502.99	8.49
503.192	8.53
503.394	8.53
503.596	8.63
503.798	8.72
503.999	8.76
504.201	8.77
504.403	8.84
504.605	8.88
504.806	8.93
505.008	8.93
505.21	8.89
505.411	8.96
505.613	9.03
505.815	9.06
506.016	9.12
506.218	9.13
506.42	9.17
506.621	9.25
506.823	9.24
507.024	9.25
507.226	9.26
507.427	9.26
507.629	9.33
507.83	9.34
508.032	9.38
508.233	9.43
508.435	9.44
508.636	9.5
508.838	9.54
509.039	9.57
509.24	9.6
509.442	9.61
509.643	9.63
509.845	9.63
510.046	9.66
510.247	9.69
510.448	9.72
510.65	9.77
510.851	9.8
511.052	9.8
511.254	9.87
511.455	9.87
511.656	9.9
511.857	9.93
512.058	9.98
512.26	10.03
512.461	10.07
512.662	10.09
512.863	10.15
513.064	10.12
513.265	10.15
513.466	10.18
513.667	10.21
513.868	10.23
514.069	10.27
514.27	10.28
514.471	10.33
514.672	10.31
514.873	10.37
515.074	10.37
515.275	10.4
515.476	10.4
515.677	10.45
515.878	10.53
516.079	10.61
516.28	10.59
516.481	10.6
516.682	10.63
516.882	10.69
517.083	10.71
517.284	10.69
517.485	10.71
517.686	10.74
517.886	10.79
518.087	10.85
518.288	10.83
518.488	10.86
518.689	10.9
518.89	10.91
519.091	10.94
519.291	10.97
519.492	10.99
519.692	11.04
519.893	11.03
520.094	11.06
520.294	11.09
520.495	11.11
520.695	11.12
520.896	11.13
521.096	11.16
521.297	11.18
521.497	11.22
521.698	11.24
521.898	11.26
522.099	11.28
522.299	11.32
522.499	11.35
522.7	11.4
522.9	11.38
523.101	11.43
523.301	11.44
523.501	11.48
523.702	11.47
523.902	11.44
524.102	11.48
524.302	11.53
524.503	11.53
524.703	11.59
524.903	11.63
525.103	11.7
525.304	11.77
525.504	11.74
525.704	11.76
525.904	11.79
526.104	11.81
526.304	11.82
526.504	11.8
526.705	11.81
526.905	11.87
527.105	11.87
527.305	11.89
527.505	11.89
527.705	11.91
527.905	11.93
528.105	11.97
528.305	12.01
528.505	12.04
528.705	12.09
528.905	12.13
529.105	12.17
529.304	12.23
529.504	12.28
529.704	12.32
529.904	12.36
530.104	12.36
530.304	12.39
530.503	12.38
530.703	12.38
530.903	12.39
531.103	12.39
531.303	12.43
531.502	12.46
531.702	12.49
531.902	12.56
532.101	12.61
532.301	12.63
532.501	12.68
532.7	12.67
532.9	12.72
533.1	12.76
533.299	12.78
533.499	12.8
533.698	12.85
533.898	12.89
534.097	12.94
534.297	12.97
534.496	12.97
534.696	12.98
534.895	13.06
535.095	13.11
535.294	13.13
535.494	13.19
535.693	13.26
535.892	13.3
536.092	13.36
536.291	13.33
536.491	13.37
536.69	13.39
536.889	13.4
537.088	13.39
537.288	13.44
537.487	13.48
537.686	13.55
537.886	13.55
538.085	13.58
538.284	13.65
538.483	13.71
538.682	13.76
538.882	13.81
539.081	13.83
539.28	13.88
539.479	13.95
539.678	14
539.877	14.06
540.076	14.1
540.275	14.14
540.474	14.21
540.673	14.25
540.872	14.31
541.071	14.35
541.27	14.38
541.469	14.45
541.668	14.52
541.867	14.56
542.066	14.62
542.265	14.67
542.464	14.72
542.663	14.77
542.862	14.81
543.06	14.85
543.259	14.9
543.458	14.92
543.657	14.96
543.856	15.05
544.054	15.15
544.253	15.22
544.452	15.22
544.651	15.26
544.849	15.34
545.048	15.4
545.247	15.41
545.445	15.43
545.644	15.48
545.843	15.61
546.041	15.71
546.24	15.8
546.438	15.88
546.637	15.98
546.836	16.05
547.034	16.11
547.233	16.19
547.431	16.23
547.63	16.34
547.828	16.38
548.027	16.46
548.225	16.58
548.423	16.65
548.622	16.73
548.82	16.8
549.019	16.86
549.217	17.02
549.415	17.09
549.614	17.15
549.812	17.27
550.01	17.37
550.209	17.5
550.407	17.6
550.605	17.68
550.803	17.76
551.002	17.86
551.2	17.96
551.398	18.02
551.596	18.09
551.794	18.16
551.993	18.18
552.191	18.31
552.389	18.42
552.587	18.49
552.785	18.62
552.983	18.73
553.181	18.86
553.379	18.98
553.577	19.06
553.775	19.15
553.973	19.21
554.171	19.3
554.369	19.42
554.567	19.49
554.765	19.57
554.963	19.7
555.161	19.8
555.359	19.92
555.557	20.04
555.755	20.14
555.952	20.3
556.15	20.41
556.348	20.5
556.546	20.61
556.744	20.75
556.941	20.87
557.139	21.05
557.337	21.11
557.535	21.27
557.732	21.39
557.93	21.54
558.128	21.66
558.325	21.8
558.523	21.88
558.721	22.02
558.918	22.2
559.116	22.34
559.313	22.45
559.511	22.58
559.708	22.7
559.906	22.82
560.104	22.96
560.301	23.04
560.498	23.17
560.696	23.32
560.893	23.48
561.091	23.62
561.288	23.76
561.486	23.85
561.683	23.95
561.88	24.04
562.078	24.16
562.275	24.23
562.473	24.3
562.67	24.38
562.867	24.53
563.064	24.71
563.262	24.92
563.459	25.03
563.656	25.2
563.853	25.33
564.051	25.43
564.248	25.57
564.445	25.64
564.642	25.72
564.839	25.86
565.036	25.99
565.234	26.19
565.431	26.34
565.628	26.45
565.825	26.6
566.022	26.7
566.219	26.72
566.416	26.84
566.613	26.89
566.81	27.02
567.007	27.12
567.204	27.23
567.401	27.33
567.598	27.49
567.795	27.51
567.991	27.61
568.188	27.66
568.385	27.74
568.582	27.83
568.779	27.92
568.976	28.04
569.172	28.15
569.369	28.21
569.566	28.25
569.763	28.36
569.96	28.4
570.156	28.45
570.353	28.48
570.55	28.53
570.746	28.6
570.943	28.76
571.14	28.78
571.336	28.87
571.533	28.94
571.729	29.02
571.926	29.1
572.123	29.16
572.319	29.22
572.516	29.28
572.712	29.33
572.909	29.42
573.105	29.47
573.302	29.57
573.498	29.59
573.695	29.57
573.891	29.61
574.087	29.66
574.284	29.63
574.48	29.64
574.677	29.64
574.873	29.73
575.069	29.79
575.266	29.83
575.462	29.87
575.658	29.96
575.854	30.04
576.051	30.07
576.247	30.08
576.443	30.12
576.639	30.14
576.835	30.17
577.032	30.2
577.228	30.24
577.424	30.23
577.62	30.25
577.816	30.26
578.012	30.29
578.208	30.31
578.404	30.28
578.6	30.28
578.796	30.34
578.993	30.34
579.189	30.29
579.384	30.24
579.58	30.2
579.776	30.22
579.972	30.18
580.168	30.16
580.364	30.18
580.56	30.21
580.756	30.24
580.952	30.27
581.148	30.25
581.343	30.29
581.539	30.31
581.735	30.29
581.931	30.32
582.127	30.33
582.322	30.32
582.518	30.3
582.714	30.25
582.909	30.22
583.105	30.17
583.301	30.1
583.496	30.09
583.692	30.09
583.888	30.12
584.083	30.11
584.279	30.12
584.474	30.19
584.67	30.22
584.866	30.25
585.061	30.25
585.257	30.3
585.452	30.3
585.648	30.29
585.843	30.26
586.039	30.25
586.234	30.25
586.429	30.26
586.625	30.18
586.82	30.21
587.015	30.21
587.211	30.24
587.406	30.29
587.601	30.32
587.797	30.31
587.992	30.35
588.187	30.37
588.383	30.44
588.578	30.45
588.773	30.43
588.968	30.46
589.163	30.51
589.359	30.54
589.554	30.55
589.749	30.55
589.944	30.57
590.139	30.64
590.334	30.6
590.529	30.69
590.724	30.69
590.919	30.79
591.114	30.83
591.309	30.86
591.504	30.9
591.699	30.97
591.894	30.96
592.089	31.08
592.284	31.11
592.479	31.15
592.674	31.22
592.869	31.28
593.064	31.43
593.259	31.44
593.454	31.49
593.648	31.52
593.843	31.62
594.038	31.7
594.233	31.78
594.428	31.83
594.622	31.93
594.817	32.01
595.012	32.1
595.206	32.12
595.401	32.16
595.596	32.27
595.79	32.32
595.985	32.4
596.18	32.48
596.374	32.6
596.569	32.73
596.763	32.9
596.958	32.99
597.153	33.08
597.347	33.19
597.542	33.26
597.736	33.36
597.931	33.46
598.125	33.52
598.319	33.62
598.514	33.68
598.708	33.77
598.903	33.89
599.097	33.99
599.291	34.09
599.486	34.2
599.68	34.25
599.874	34.38
600.069	34.52
600.263	34.56
600.457	34.61
600.651	34.72
600.846	34.75
601.04	34.79
601.234	34.8
601.428	34.75
601.622	34.79
601.817	34.88
602.011	34.86
602.205	34.83
602.399	34.86
602.593	34.94
602.787	34.97
602.981	35.03
603.175	35.01
603.369	35.04
603.563	35.1
603.757	35.08
603.951	35.07
604.145	35.09
604.339	35.11
604.533	35.1
604.727	35.07
604.921	35.08
605.115	35.12
605.309	35.11
605.502	35.14
605.696	35.03
605.89	35
606.084	35.02
606.278	34.96
606.471	34.94
606.665	34.91
606.859	34.8
607.053	34.78
607.246	34.7
607.44	34.63
607.634	34.58
607.827	34.48
608.021	34.36
608.214	34.38
608.408	34.27
608.602	34.25
608.795	34.15
608.989	34.16
609.182	34.16
609.376	34.1
609.569	33.97
609.763	34.02
609.956	33.92
610.15	33.91
610.343	33.79
610.537	33.7
610.73	33.69
610.923	33.63
611.117	33.46
611.31	33.39
611.504	33.33
611.697	33.25
611.89	33.12
612.083	32.99
612.277	32.85
612.47	32.86
612.663	32.86
612.856	32.71
613.05	32.68
613.243	32.61
613.436	32.53
613.629	32.54
613.822	32.38
614.015	32.23
614.209	32.22
614.402	32.02
614.595	31.93
614.788	31.92
614.981	31.83
615.174	31.76
615.367	31.76
615.56	31.59
615.753	31.61
615.946	31.59
616.139	31.52
616.332	31.46
616.525	31.43
616.718	31.34
616.911	31.33
617.103	31.25
617.296	31.22
617.489	31.17
617.682	31.1
617.875	30.97
618.067	30.87
618.26	30.86
618.453	30.78
618.646	30.71
618.838	30.66
619.031	30.61
619.224	30.68
619.417	30.64
619.609	30.56
619.802	30.58
619.994	30.53
620.187	30.46
620.38	30.43
620.572	30.35
620.765	30.35
620.957	30.29
621.15	30.17
621.342	30.14
621.535	30.11
621.727	30.07
621.92	30.06
622.112	30.03
622.305	29.99
622.497	29.98
622.69	29.88
622.882	29.84
623.074	29.83
623.267	29.79
623.459	29.77
623.651	29.74
623.844	29.79
624.036	29.85
624.228	29.87
624.42	29.82
624.613	29.75
624.805	29.72
624.997	29.73
625.189	29.69
625.381	29.6
625.574	29.51
625.766	29.49
625.958	29.5
626.15	29.48
626.342	29.48
626.534	29.4
626.726	29.41
626.918	29.39
627.11	29.38
627.302	29.33
627.494	29.31
627.686	29.28
627.878	29.21
628.07	29.14
628.262	29.1
628.454	29.07
628.646	29.01
628.838	28.92
629.029	28.81
629.221	28.8
629.413	28.78
629.605	28.74
629.797	28.65
629.989	28.66
630.18	28.67
630.372	28.67
630.564	28.64
630.755	28.56
630.947	28.54
631.139	28.5
631.33	28.45
631.522	28.36
631.714	28.34
631.905	28.32
632.097	28.33
632.289	28.3
632.48	28.29
632.672	28.22
632.863	28.18
633.055	28.19
633.246	28.18
633.438	28.12
633.629	28.16
633.821	28.14
634.012	28.13
634.203	28.15
634.395	28.08
634.586	28.02
634.777	28.05
634.969	27.94
635.16	27.92
635.351	27.9
635.543	27.87
635.734	27.82
635.925	27.84
636.117	27.8
636.308	27.82
636.499	27.79
636.69	27.87
636.881	27.91
637.073	27.9
637.264	27.86
637.455	27.88
637.646	27.86
637.837	27.86
638.028	27.8
638.219	27.76
638.41	27.73
638.601	27.77
638.792	27.71
638.983	27.65
639.174	27.69
639.365	27.63
639.556	27.58
639.747	27.62
639.938	27.57
640.129	27.54
640.32	27.58
640.511	27.5
640.701	27.41
640.892	27.35
641.083	27.29
641.274	27.25
641.465	27.21
641.655	27.16
641.846	27.1
642.037	27.13
642.228	27.11
642.418	27.09
642.609	27.02
642.8	26.99
642.99	26.97
643.181	27
643.372	26.95
643.562	26.95
643.753	26.87
643.943	26.83
644.134	26.82
644.324	26.73
644.515	26.69
644.705	26.68
644.896	26.55
645.086	26.51
645.277	26.52
645.467	26.48
645.658	26.49
645.848	26.45
646.038	26.39
646.229	26.44
646.419	26.48
646.61	26.4
646.8	26.36
646.99	26.31
647.18	26.27
647.371	26.22
647.561	26.25
647.751	26.13
647.941	26.12
648.132	26.11
648.322	26.1
648.512	26.11
648.702	26.09
648.892	26.02
649.082	26.01
649.272	25.95
649.462	25.93
649.653	25.92
649.843	25.83
650.033	25.81
650.223	25.77
650.413	25.76
650.603	25.75
650.793	25.66
650.983	25.61
651.172	25.58
651.362	25.48
651.552	25.42
651.742	25.31
651.932	25.22
652.122	25.15
652.312	25.03
652.502	24.93
652.691	24.91
652.881	24.83
653.071	24.72
653.261	24.61
653.45	24.52
653.64	24.41
653.83	24.27
654.019	24.09
654.209	23.88
654.399	23.8
654.588	23.7
654.778	23.58
654.968	23.42
655.157	23.26
655.347	23.06
655.536	22.93
655.726	22.77
655.915	22.58
656.105	22.4
656.294	22.18
656.484	22.07
656.673	21.94
656.863	21.74
657.052	21.45
657.241	21.28
657.431	21.07
657.62	20.83
657.809	20.57
657.999	20.39
658.188	20.18
658.377	20.06
658.567	19.8
658.756	19.59
658.945	19.44
659.134	19.18
659.324	18.82
659.513	18.62
659.702	18.39
659.891	18.13
660.08	17.86
660.269	17.61
660.458	17.42
660.648	17.3
660.837	17.03
661.026	16.75
661.215	16.57
661.404	16.39
661.593	16.18
661.782	15.93
661.971	15.66
662.16	15.41
662.349	15.17
662.538	14.96
662.726	14.68
662.915	14.47
663.104	14.21
663.293	13.99
663.482	13.85
663.671	13.72
663.86	13.5
664.048	13.36
664.237	13.18
664.426	13.12
664.615	12.94
664.803	12.75
664.992	12.55
665.181	12.44
665.369	12.27
665.558	12.15
665.747	11.94
665.935	11.92
666.124	11.82
666.312	11.63
666.501	11.46
666.69	11.32
666.878	11.14
667.067	11.06
667.255	10.93
667.444	10.83
667.632	10.79
667.82	10.71
668.009	10.7
668.197	10.64
668.386	10.5
668.574	10.38
668.762	10.25
668.951	10.17
669.139	10.16
669.327	10.03
669.516	10
669.704	10
669.892	9.95
670.08	9.95
670.269	9.93
670.457	9.82
670.645	9.82
670.833	9.73
671.021	9.68
671.21	9.64
671.398	9.66
671.586	9.65
671.774	9.67
671.962	9.66
672.15	9.66
672.338	9.68
672.526	9.78
672.714	9.73
672.902	9.69
673.09	9.72
673.278	9.7
673.466	9.79
673.654	9.78
673.842	9.79
674.03	9.91
674.218	9.94
674.405	10.04
674.593	10.1
674.781	10.1
674.969	10.16
675.157	10.21
675.344	10.23
675.532	10.35
675.72	10.34
675.908	10.41
676.095	10.5
676.283	10.56
676.471	10.59
676.658	10.65
676.846	10.74
677.033	10.87
677.221	10.98
677.409	11.06
677.596	11.21
677.784	11.31
677.971	11.39
678.159	11.54
678.346	11.56
678.534	11.67
678.721	11.81
678.909	11.89
679.096	11.97
679.283	12.09
679.471	12.13
679.658	12.27
679.846	12.36
680.033	12.54
680.22	12.71
680.408	12.87
680.595	13.01
680.782	13.21
680.969	13.38
681.157	13.53
681.344	13.57
681.531	13.69
681.718	13.97
681.905	14.18
682.093	14.41
682.28	14.67
682.467	14.85
682.654	15.1
682.841	15.4
683.028	15.69
683.215	15.96
683.402	16.14
683.589	16.48
683.776	16.85
683.963	17.13
684.15	17.48
684.337	17.76
684.524	18.14
684.711	18.45
684.898	18.69
685.085	19
685.271	19.43
685.458	19.81
685.645	20.13
685.832	20.55
686.019	21.01
686.205	21.51
686.392	22.05
686.579	22.46
686.766	22.92
686.952	23.43
687.139	23.86
687.326	24.46
687.512	24.91
687.699	25.43
687.886	26
688.072	26.56
688.259	27.1
688.445	27.64
688.632	28.17
688.818	28.86
689.005	29.46
689.191	30.07
689.378	30.64
689.564	31.3
689.751	32.11
689.937	32.72
690.124	33.35
690.31	33.97
690.496	34.58
690.683	35.4
690.869	36.06
691.055	36.71
691.242	37.46
691.428	38.14
691.614	38.86
691.8	39.59
691.987	40.23
692.173	41.02
692.359	41.63
692.545	42.44
692.731	43.29
692.918	44.01
693.104	44.83
693.29	45.69
693.476	46.37
693.662	47.05
693.848	47.51
694.034	47.95
694.22	48.75
694.406	49.36
694.592	49.94
694.778	50.57
694.964	51.42
695.15	52.29
695.336	53.26
695.522	53.8
695.708	54.65
695.894	55.29
696.08	55.97
696.265	56.59
696.451	57.28
696.637	57.79
696.823	58.42
697.009	58.99
697.194	59.61
697.38	60.21
697.566	60.73
697.751	61.25
697.937	61.92
698.123	62.59
698.308	63.03
698.494	63.64
698.68	64.31
698.865	65.01
699.051	65.66
699.236	66.07
699.422	66.61
699.607	67.13
699.793	67.57
699.978	67.86
700.164	68.39
700.349	68.76
700.535	69.36
700.72	69.82
700.906	70.29
701.091	70.68
701.276	71.29
701.462	71.52
701.647	71.84
701.832	72.18
702.018	72.52
702.203	72.95
702.388	73.29
702.573	73.78
702.759	74.3
702.944	74.7
703.129	74.96
703.314	75.5
703.499	75.94
703.684	76.49
703.87	76.72
704.055	76.83
704.24	77.37
704.425	77.82
704.61	77.93
704.795	78.21
704.98	78.41
705.165	78.62
705.35	79.01
705.535	79.31
705.72	79.5
705.905	79.73
706.09	79.79
706.275	80.01
706.459	80.27
706.644	80.54
706.829	80.57
707.014	80.76
707.199	80.99
707.384	81.22
707.568	81.38
707.753	81.91
707.938	82.01
708.123	82.26
708.307	82.73
708.492	82.88
708.677	83.44
708.861	83.63
709.046	83.49
709.231	84.13
709.415	84.32
709.6	84.23
709.784	84.49
709.969	84.48
710.153	84.85
710.338	84.98
710.522	84.76
710.707	84.71
710.891	85.08
711.076	85.3
711.26	85.32
711.445	85.1
711.629	85.59
711.813	85.49
711.998	85.75
712.182	85.84
712.366	86.06
712.551	86.33
712.735	86.71
712.919	86.65
713.103	87.07
713.288	87.37
713.472	87.35
713.656	87.05
713.84	87.08
714.024	87.27
714.208	87.1
714.393	87.24
714.577	87.14
714.761	87.48
714.945	87.82
715.129	87.94
715.313	88.05
715.497	88.55
715.681	88.52
715.865	88.54
716.049	88.42
716.233	88.58
716.417	88.86
716.601	88.84
716.785	88.67
716.968	88.79
717.152	89.23
717.336	89.42
717.52	89.61
717.704	89.66
717.888	89.57
718.071	90.09
718.255	90.22
718.439	89.94
718.622	89.77
718.806	89.49
718.99	89.3
719.174	89.57
719.357	89.46
719.541	89.78
719.724	89.95
719.908	90.29
720.092	90.7
720.275	91.15
720.459	91.2
720.642	91.04
720.826	90.81
721.009	90.89
721.193	90.89
721.376	90.7
721.559	90.3
721.743	90.28
721.926	90.43
722.11	90.61
722.293	90.27
722.476	90.13
722.66	90.31
722.843	90.62
723.026	90.82
723.21	90.58
723.393	90.67
723.576	91.04
723.759	91.47
723.942	91.45
724.126	91.38
724.309	91.25
724.492	91.87
724.675	91.81
724.858	91.98
725.041	92.07
725.224	92.53
725.407	92.39
725.59	92.52
725.774	92.26
725.957	92.49
726.14	92.47
726.322	91.98
726.505	91.76
726.688	92.44
726.871	92.87
727.054	92.77
727.237	92.2
727.42	92.65
727.603	93.05
727.786	93.2
727.968	93.19
728.151	92.82
728.334	92.86
728.517	93.58
728.699	93.54
728.882	93.93
729.065	93.88
729.248	93.46
729.43	93.55
729.613	93.97
729.796	94.12
729.978	94.02
730.161	93.65
730.343	93.82
730.526	94.03
730.708	94.47
730.891	94.42
731.073	94.29
731.256	94.14
731.438	94.34
731.621	94.55
731.803	95.01
731.986	94.99
732.168	94.8
732.35	94.9
732.533	95.3
732.715	95.18
732.898	95.45
733.08	95.52
733.262	95.31
733.444	95.72
733.627	95.84
733.809	95.79
733.991	96.09
734.173	95.44
734.355	95.4
734.538	95.48
734.72	95.36
734.902	95.04
735.084	95.1
735.266	94.94
735.448	94.97
735.63	94.72
735.812	94.57
735.994	94.04
736.176	94.33
736.358	94.22
736.54	94.13
736.722	94.39
736.904	94.58
737.086	94.64
737.268	95.27
737.45	95.32
737.632	95.09
737.814	95.24
737.995	95.57
738.177	95.82
738.359	96.18
738.541	96.03
738.723	96.28
738.904	96.53
739.086	97.02
739.268	97.42
739.449	97.09
739.631	96.79
739.813	96.87
739.994	96.78
740.176	96.6
740.358	95.98
740.539	95.05
740.721	94.68
740.902	94.29
741.084	94.37
741.265	93.94
741.447	94.1
741.628	93.95
741.81	94.46
741.991	94.92
742.172	95.49
742.354	96.04
742.535	96.25
742.717	96.68
742.898	97.48
743.079	97.35
743.261	97.69
743.442	97.47
743.623	96.92
743.804	97.18
743.986	97.04
744.167	96.67
744.348	96.95
744.529	96.18
744.71	95.64
744.891	95.59
745.073	95.4
745.254	94.83
745.435	94.8
745.616	94.05
745.797	93.9
745.978	95.16
746.159	94.98
746.34	94.93
746.521	95.18
746.702	94.36
746.883	95.46
747.064	95.58
747.245	96.16
747.426	96.37
747.606	96.19
747.787	96.85
747.968	97.77
748.149	97.02
748.33	98.04
748.51	96.47
748.691	96.66
748.872	97.14
749.053	96.63
749.233	96.38
749.414	96.08
749.595	94.61
749.775	95.16
749.956	94.2
750.137	93.76
750.317	93.55
750.498	93.95
750.678	94.53
750.859	95.57
751.04	95.15
751.22	95.42
751.4	95.73
751.581	95.81
751.761	95.3
751.942	94.76
752.122	94.46
752.303	94.36
752.483	95.03
752.663	95.08
752.844	94.64
753.024	94.72
753.204	94.16
753.385	94.03
753.565	93.81
753.745	93.41
753.925	92.8
754.106	92.27
754.286	92.65
754.466	93.08
754.646	92.72
754.826	93.21
755.006	92.93
755.187	93.32
755.367	93.94
755.547	93.57
755.727	93.53
755.907	94.29
756.087	95.18
756.267	95.34
756.447	95.72
756.627	95.7
756.807	96.17
756.987	97.1
757.167	97.1
757.346	95.33
757.526	95.26
757.706	95.19
757.886	95.34
758.066	94.49
758.246	94.34
758.425	94.56
758.605	95.72
758.785	95.64
758.965	94.79
759.144	95.34
759.324	95.69
759.504	94.89
759.683	94.45
759.863	94.1
760.043	94.14
760.222	94.01
760.402	94.73
760.581	93.94
760.761	93.83
760.94	93.51
761.12	93.18
761.299	92.8
761.479	94.09
761.658	92.16
761.838	92.36
762.017	93.48
762.197	94.37
762.376	94.59
762.555	95.22
762.735	94.22
762.914	94.65
763.093	95.54
763.273	93.91
763.452	92.49
763.631	92.11
763.81	92.57
763.99	92.61
764.169	92.99
764.348	93.66
764.527	93.71
764.706	94.42
764.885	94.81
765.064	94.23
765.243	94.21
765.423	95.07
765.602	93.93
765.781	94.56
765.96	94.3
766.139	93.52
766.318	93.26
766.497	93.36
766.676	92.81
766.854	91.83
767.033	92.14
767.212	91.66
767.391	91.75
767.57	92.77
767.749	92.12
767.928	91.18
768.106	92.3
768.285	92.12
768.464	92.53
768.643	93.3
768.821	92.34
769	93.64
769.179	93.57
769.357	92.92
769.536	92.92
769.715	92.1
769.893	92.01
770.072	92.85
770.25	91.82
770.429	92.48
770.607	93.38
770.786	93.28
770.964	93.35
771.143	93.46
771.321	90.8
771.5	90.44
771.678	90.37
771.857	90.37
772.035	90.02
772.213	91.16
772.392	90.91
772.57	93
772.748	92.89
772.927	92.54
773.105	92.73
773.283	91.8
773.461	90.4
773.64	90.08
773.818	88.45
773.996	87.82
774.174	88.29
774.352	87.8
774.531	87.88
774.709	89.75
774.887	89.63
775.065	90.48
775.243	92.15
775.421	91.6
775.599	90.95
775.777	92.28
775.955	91.23
776.133	91.16
776.311	91.49
776.489	91.67
776.667	91.18
776.844	91.44
777.022	90.84
777.2	90.27
777.378	91.4
777.556	91.21
777.734	91.07
777.911	92.7
778.089	91.61
778.267	92.52
778.445	92.56
778.622	90.48
778.8	90.54
778.978	88.81
779.155	86.21
779.333	86.1
779.511	85.19
779.688	85.61
779.866	87.46
780.043	87.97
780.221	88.14
780.398	89.74
780.576	89.25
780.753	89.04
780.931	90.03
781.108	89
781.286	87.88
781.463	87.42
781.64	86.77
781.818	88.06
781.995	88.21
782.172	86.89
782.35	86.59
782.527	88.35
782.704	88.67
782.882	89.93
783.059	88.61
783.236	89.23
783.413	90.71
783.59	90.56
783.768	88.08
783.945	88.74
784.122	88.27
784.299	89.74
784.476	89.82
784.653	87.88
784.83	87.41
785.007	88.72
785.184	89.67
785.361	88.54
785.538	89.49
785.715	88.32
785.892	88.39
786.069	89.37
786.246	87.93
786.423	87.92
786.6	89.64
786.776	88.8
786.953	88.82
787.13	90.31
787.307	90.13
787.484	91.95
787.66	92.51
787.837	91.83
788.014	90.1
788.191	90.31
788.367	87.76
788.544	88.04
788.721	86.91
788.897	87.38
789.074	87.39
789.25	89.52
789.427	88.85
789.603	91.05
789.78	92.62
789.956	92.74
790.133	90.09
790.309	88.89
790.486	88.81
790.662	90.66
790.839	90.49
791.015	89.39
791.192	90.07
791.368	91.63
791.544	91.86
791.721	89.6
791.897	87.19
792.073	85.93
792.249	85.47
792.426	85.47
792.602	86.11
792.778	85
792.954	85.25
793.13	86.82
793.307	86.53
793.483	85.24
793.659	87.57
793.835	85.58
794.011	87.34
794.187	85.96
794.363	86.48
794.539	88.59
794.715	89.17
794.891	84.64
795.067	86.5
795.243	86.96
795.419	89.49
795.595	86.83
795.771	85.95
795.947	87.23
796.122	87.43
796.298	85.64
796.474	84.86
796.65	85.71
796.826	89.83
797.001	89.88
797.177	87.38
797.353	89.25
797.529	89.85
797.704	90.67
797.88	90.53
798.056	88.58
798.231	88.04
798.407	86.96
798.582	89
798.758	88.97
798.934	87.37
799.109	85.92
799.285	83.63
799.46	84.66
799.636	87.21
799.811	84.64
799.986	85.62
800.162	86.02
800.337	85.7
800.513	89.82
800.688	89.23
800.863	91.7
801.039	91.65
801.214	87.82
801.389	86.91
801.565	89.37
801.74	83.35
801.915	83.69
802.09	76.91
802.265	76.21
802.441	77.42
802.616	79.82
802.791	77.14
802.966	80.01
803.141	77.63
803.316	79.92
803.491	79.99
803.666	81.35
803.841	80.12
804.016	79.65
804.191	80.35
804.366	81.06
804.541	82.53
804.716	81.31
804.891	81.98
805.066	79.28
805.241	80.94
805.416	82.11
805.591	84.68
805.765	84.22
805.94	84.46
806.115	81.6
806.29	82.31
806.464	81.79
806.639	80.84
806.814	78.44
806.989	79.51
807.163	79.1
807.338	80.88
807.512	78.63
807.687	76.43
807.862	75.79
808.036	76.35
808.211	75.51
808.385	74.21
808.56	72.77
808.734	75.59
808.909	74.67
809.083	73.53
809.258	76.08
809.432	75.74
809.606	78.31
809.781	78.77
809.955	79.15
810.13	85.52
810.304	86.5
810.478	82.99
810.652	85.47
810.827	87.25
811.001	86.79
811.175	82.39
811.349	76.48
811.524	75.98
811.698	74.77
811.872	75.03
812.046	72.36
812.22	71.88
812.394	76.93
812.568	78.62
812.742	77.34
812.916	77.79
813.09	72.62
813.264	76.62
813.438	79.45
813.612	78.38
813.786	81.8
813.96	84.26
814.134	86.82
814.308	87.68
814.482	81.08
814.656	81.97
814.83	80.2
815.003	80.4
815.177	81.59
815.351	82
815.525	77.71
815.698	79.44
815.872	75.84
816.046	74.73
816.219	73.52
816.393	68.5
816.567	65.49
816.74	69.27
816.914	72.61
817.088	71.72
817.261	73.38
817.435	74.97
817.608	80.35
817.782	81.88
817.955	82.93
818.129	85.95
818.302	88.28
818.475	92.48
818.649	86.3
818.822	83.7
818.996	85.54
819.169	85.78
819.342	77.88
819.516	75.69
819.689	75.36
819.862	80.94
820.035	81.94
820.209	76.51
820.382	79.03
820.555	85.12
820.728	86.85
820.901	83.3
821.075	76.27
821.248	78
821.421	80.23
821.594	73.75
821.767	71.8
821.94	74.73
822.113	77.86
822.286	76.81
822.459	78.54
822.632	80.62
822.805	88.28
822.978	84.43
823.151	83.58
823.324	80.22
823.496	79.79
823.669	85.69
823.842	88.05
824.015	92.66
824.188	91.26
824.361	91.61
824.533	91.01
824.706	113.61
824.879	102.87
825.051	99.8
825.224	90
825.397	86.32
825.569	87.81
825.742	89.39
825.915	75.84
826.087	69.9
826.26	70.75
826.432	70.24
826.605	73.18
826.777	70.44
826.95	70.56
827.122	76.11
827.295	74.42
827.467	71.35
827.64	71.42
827.812	75.76
827.984	79.86
828.157	78.35
828.329	80.85
828.501	82.22
828.674	84.09
828.846	80.47
829.018	75.76
829.19	67.54
829.363	69.72
829.535	64.51
829.707	64.95
829.879	62.38
830.051	60.25
830.223	60.62
830.395	72.66
830.568	70.27
830.74	75.03
830.912	74.14
831.084	70.78
831.256	75.09
831.428	77.98
831.6	71.87
831.772	72.67
831.943	74.39
832.115	70.17
832.287	72.34
832.459	78.26
832.631	82.76
832.803	85.46
832.975	90.78
833.146	85.59
833.318	95.09
833.49	92.76
833.662	89.88
833.833	96.41
834.005	83.48
834.177	76.45
834.348	78.73
834.52	80.11
834.692	83.94
834.863	78.61
835.035	66.66
835.206	71.77
835.378	67.36
835.549	57.8
835.721	59.86
835.892	56.15
836.064	61.02
836.235	64.11
836.407	64.82
836.578	70.75
836.749	80.04
836.921	78.37
837.092	85.93
837.264	82.73
837.435	74.39
837.606	71.65
837.777	66.29
837.949	66.77
838.12	61.35
838.291	62.43
838.462	66.59
838.633	75.4
838.805	79.19
838.976	83.45
839.147	79.91
839.318	77.69
839.489	71.05
839.66	66.19
839.831	60.72
840.002	51.29
840.173	51.98
840.344	43.05
840.515	51.16
840.686	62.05
840.857	58.95
841.028	65.61
841.199	76.87
841.369	68.08
841.54	71.32
841.711	76.7
841.882	63.52
842.053	74.46
842.223	66.2
842.394	54.47
842.565	67.23
842.736	67.26
842.906	80.25
843.077	84.45
843.248	73.79
843.418	76.82
843.589	79.98
843.759	77.79
843.93	78.34
844.101	60
844.271	52.84
844.442	54.61
844.612	57.75
844.783	49.06
844.953	41.89
845.123	45.81
845.294	52.76
845.464	54.46
845.635	60.75
845.805	62.13
845.975	65.14
846.146	69.65
846.316	73.67
846.486	85.03
846.656	102.19
846.827	103.94
846.997	114.39
847.167	117.58
847.337	118.83
847.507	116.09
847.677	111.62
847.848	105.35
848.018	88.79
848.188	75.74
848.358	71.07
848.528	62.39
848.698	51.3
848.868	58.92
849.038	45.57
849.208	48.73
849.378	40.25
849.548	35.92
849.718	27.04
849.887	27.78
850.057	22.67
850.227	32.49
850.397	32.75
850.567	45.58
850.737	47.89
850.906	61.33
851.076	52.59
851.246	61.32
851.415	54.93
851.585	55.96
851.755	48.98
851.924	52.63
852.094	47.13
852.264	52.49
852.433	35.72
852.603	43.37
852.772	48.2
852.942	43.15
853.111	45.02
853.281	36.9
853.45	40.44
853.62	51.66
853.789	48.86
853.959	48.5
854.128	43.52
854.297	46.33
854.467	56.94
854.636	54.66
854.805	55.46
854.975	56.09
855.144	60.52
855.313	79.91
855.482	71.43
855.652	70.43
855.821	66.59
855.99	69.09
856.159	66.71
856.328	65.72
856.497	64.03
856.667	58.94
856.836	54.83
857.005	56.63
857.174	63.2
857.343	56.33
857.512	49.88
857.681	45.33
857.85	54.68
858.019	59.99
858.188	89.78
858.356	62.81
858.525	60.07
858.694	80.46
858.863	73.21
859.032	64.74
859.201	76.21
859.369	51.92
859.538	50.32
859.707	63.4
859.876	58.1
860.044	49.18
860.213	58.62
860.382	53.99
860.55	65.43
860.719	83.66
860.888	71.09
861.056	67.41
861.225	70.62
861.393	57.93
861.562	47.8
861.73	44.53
861.899	21.18
862.067	36.72
862.236	36.85
862.404	50.66
862.572	42.85
862.741	52.05
862.909	42.38
863.078	37.39
863.246	31.59
863.414	44.18
863.582	26.51
863.751	46.78
863.919	52.88
864.087	31.78
864.255	56.35
864.424	65.04
864.592	61.6
864.76	44.16
864.928	51.62
865.096	36.88
865.264	65
865.432	44.58
865.6	25.37
865.768	13.11
865.936	30.13
866.104	15.98
866.272	38.82
866.44	28.79
866.608	59.66
866.776	81.77
866.944	70.9
867.112	66.95
867.28	73.83
867.448	63.15
867.615	50.48
867.783	40.18
867.951	28.76
868.119	56.39
868.286	58.5
868.454	49.99
868.622	62.75
868.789	70.99
868.957	83.62
869.125	87.88
869.292	90.23
869.46	81.16
869.627	97.71
869.795	74.16
869.963	77.34
870.13	60.53
870.298	44.61
870.465	19.64
870.632	52.24
870.8	33.05
870.967	24.63
871.135	21.67
871.302	11.22
871.469	3.62
871.637	11.26
871.804	15.05
871.971	15.97
872.139	28.36
872.306	25.19
872.473	32.67
872.64	35.85
872.807	38.41
872.975	59.71
873.142	61.16
873.309	75
873.476	84.54
873.643	66.1
873.81	73.68
873.977	25.68
874.144	-40.28
874.311	-59.28
874.478	-54.95
874.645	-43.12
874.812	-4.55
874.979	-9.21
875.146	-0.09
875.313	28.57
875.48	96.3
875.647	90.98
875.813	95.49
875.98	103.99
876.147	95.49
876.314	73.55
876.481	55.81
876.647	43.18
876.814	57.39
876.981	55.85
877.147	49.92
877.314	47.11
877.481	55.84
877.647	55.31
877.814	53.7
877.98	47.49
878.147	36.13
878.314	28.42
878.48	47.04
878.647	71.56
878.813	58.41
878.979	38.73
879.146	40.16
879.312	74.14
879.479	76.94
879.645	55.07
879.811	37.36
879.978	59.86
880.144	86.92
880.31	98.01
880.477	49.24
880.643	-12.25
880.809	39.95
880.975	31.96
881.142	33.86
881.308	29.08
881.474	32.02
881.64	18.75
881.806	47.05
881.972	48.7
882.138	42.15
882.304	38.77
882.47	47.88
882.636	4.29
882.802	33.81
882.968	33.04
883.134	26.46
883.3	48.5
883.466	51.37
883.632	39.92
883.798	66.74
883.964	51.3
884.129	53.11
884.295	50.14
884.461	48.63
884.627	47.09
884.793	42.42
884.958	40.93
885.124	5.43
885.29	33.03
885.455	22.67
885.621	27.78
885.787	12.88
885.952	9.85
886.118	11.01
886.283	42.9
886.449	22.57
886.614	39.16
886.78	32.38
886.945	48.51
887.111	61.53
887.276	47.31
887.442	19.34
887.607	11.26
887.773	-9.11
887.938	-18.93
888.103	3.67
888.269	0.12
888.434	16.3
888.599	30.03
888.764	25.55
888.93	36.71
889.095	25.42
889.26	50.21
889.425	78.78
889.59	53.49
889.756	75.37
889.921	73.83
890.086	94.5
890.251	101.38
890.416	61.06
890.581	10.13
890.746	-21.93
890.911	-80.89
891.076	-76.08
891.241	-139.32
891.406	-53.7
891.571	-18.26
891.736	-7.14
891.901	34.17
892.065	56.44
892.23	52.94
892.395	44.88
892.56	62.2
892.725	56.65
892.889	66.48
893.054	54.87
893.219	43.95
893.384	30.45
893.548	120.83
893.713	88.37
893.878	79.89
