Data from Ofra_PS_T2_2A_2CX08_Reflection_2.txt Node
Date: Wed Jul 21 16:59:29 EDT 2021
User: Adam
Spectrometer: FLMT01687
Trigger mode: 0
Integration Time (sec): 1.100000E0
Scans to average: 2
Electric dark correction enabled: true
Nonlinearity correction enabled: false
Boxcar width: 2
XAxis mode: Wavelengths
Number of Pixels in Spectrum: 3648
>>>>>Begin Spectral Data<<<<<
179.494	379.8
179.716	449.65
179.937	466.48
180.158	433.69
180.38	761.72
180.601	348.48
180.823	93.03
181.044	-181.64
181.265	22.61
181.486	23.53
181.708	56.29
181.929	301.53
182.15	-419.37
182.372	23.06
182.593	-20.12
182.814	-12.01
183.035	36.91
183.257	27.76
183.478	-0.16
183.699	12.85
183.92	12.08
184.141	15.04
184.363	-23.44
184.584	18.7
184.805	38.12
185.026	52.86
185.247	48.17
185.468	39.76
185.689	49.09
185.91	54.57
186.132	64.45
186.353	38.3
186.574	80.62
186.795	70.54
187.016	11.62
187.237	-3.43
187.458	-13.13
187.679	-20.68
187.9	-37.18
188.121	-0.9
188.342	5.98
188.563	45.4
188.784	56.18
189.005	61.32
189.226	94.94
189.447	60.74
189.667	-83.37
189.888	-334.36
190.109	-1197.08
190.33	-656.61
190.551	-1078.54
190.772	-239.89
190.993	-144.09
191.214	-92.52
191.434	-72.83
191.655	3.96
191.876	16.92
192.097	-25.83
192.318	-73.31
192.538	-123.39
192.759	-117.62
192.98	-58.92
193.201	-14.53
193.421	1.84
193.642	29.15
193.863	49.62
194.083	24.53
194.304	4.03
194.525	13.37
194.745	-7.88
194.966	-54.18
195.187	-42.3
195.407	-34.92
195.628	-97.16
195.848	-79.3
196.069	-46.56
196.29	-8.55
196.51	-38.13
196.731	-33.44
196.951	-43.21
197.172	-48.5
197.392	-63.67
197.613	-40.52
197.833	-77.11
198.054	-63.34
198.274	-29.75
198.495	-57.67
198.715	-27.31
198.936	-25.44
199.156	-33.7
199.377	-112.36
199.597	-76.1
199.817	-97.09
200.038	-42.85
200.258	-94.67
200.479	-41.52
200.699	-59.5
200.919	-0.48
201.14	-47.2
201.36	-50.49
201.58	-8.82
201.801	26.76
202.021	-16.38
202.241	2.16
202.461	7.86
202.682	-34.88
202.902	-112.2
203.122	-38.05
203.342	-31.34
203.563	2.79
203.783	20.09
204.003	-24.87
204.223	-25.35
204.443	18.47
204.663	-8.89
204.884	-2.84
205.104	39.97
205.324	60.55
205.544	63.91
205.764	77.39
205.984	71.09
206.204	73.46
206.424	48.08
206.644	31.24
206.864	18.95
207.084	-2.34
207.304	5.88
207.525	-20.86
207.745	-19.28
207.964	34.02
208.184	-13.18
208.404	-60.48
208.624	-45.34
208.844	-59.38
209.064	-296.72
209.284	-236.46
209.504	-107.65
209.724	-43.31
209.944	-25.02
210.164	-10.42
210.384	-13.49
210.604	-21.84
210.823	-56.77
211.043	-63.41
211.263	-53.77
211.483	-45.83
211.703	-66.27
211.922	-36.37
212.142	12.74
212.362	14.4
212.582	23.5
212.801	14.37
213.021	-4.33
213.241	-11.54
213.461	-40.64
213.68	-80.49
213.9	-57.5
214.12	-44.58
214.339	-95.25
214.559	-59.4
214.779	-4.5
214.998	14.75
215.218	3.79
215.438	45.34
215.657	50.39
215.877	28.45
216.096	17.8
216.316	20.48
216.535	-5.21
216.755	1.76
216.974	-81.53
217.194	-123.39
217.413	-101.77
217.633	-106.34
217.852	-198.22
218.072	-50.72
218.291	-12.11
218.511	21.5
218.73	-5.36
218.95	-5.45
219.169	-20.94
219.389	-56.71
219.608	-50.31
219.827	-33.58
220.047	-7.7
220.266	6.75
220.485	17.71
220.705	19
220.924	-3.92
221.143	15.43
221.363	-6.72
221.582	-7.02
221.801	1.2
222.021	36.3
222.24	-18.12
222.459	27.75
222.678	22.05
222.897	-31.92
223.117	-88.03
223.336	-29.55
223.555	-4.75
223.774	25.92
223.993	51.16
224.213	95.12
224.432	66.96
224.651	86.91
224.87	59.9
225.089	45.34
225.308	37.63
225.527	36.53
225.746	20.82
225.965	17.92
226.184	-5.21
226.404	3.17
226.623	-13.25
226.842	-5.11
227.061	12.49
227.28	25.82
227.499	10.36
227.718	24.46
227.936	15.14
228.155	13.64
228.374	-2.68
228.593	8.59
228.812	1.91
229.031	-7.16
229.25	-48.4
229.469	-58.61
229.688	-41.56
229.907	-11.71
230.125	1.56
230.344	32.55
230.563	52.5
230.782	43.57
231.001	-20.19
231.22	-11.26
231.438	-11.17
231.657	-23.93
231.876	-40.5
232.095	5.54
232.313	-2.7
232.532	-22.5
232.751	-32.93
232.969	-37.61
233.188	-101.29
233.407	-17.18
233.625	-20.21
233.844	-9.04
234.063	5.42
234.281	24.97
234.5	-6.51
234.719	11.11
234.937	13.09
235.156	8.34
235.374	-3.57
235.593	-15.84
235.811	-23.69
236.03	-16.87
236.249	-33.02
236.467	-15.74
236.686	18.96
236.904	13.28
237.123	-15.27
237.341	-8.97
237.559	-0.7
237.778	-13.65
237.996	-29.86
238.215	10.07
238.433	8.89
238.652	-4.23
238.87	-25.41
239.088	-9.29
239.307	-6.38
239.525	-3.76
239.743	-19.16
239.962	5.37
240.18	-19.78
240.398	-61.29
240.617	-78.74
240.835	-49.39
241.053	-38.68
241.271	6.56
241.49	27.36
241.708	25.1
241.926	-3.56
242.144	-6.71
242.363	-52.84
242.581	-77.76
242.799	-25.77
243.017	-5.26
243.235	-25.9
243.453	-17.17
243.672	-11.12
243.89	-17.73
244.108	-14.67
244.326	6.09
244.544	6.63
244.762	2.68
244.98	14.7
245.198	1.82
245.416	-35.59
245.634	-20.07
245.852	-27.42
246.07	-47.44
246.288	-30.99
246.506	-36.99
246.724	-29.73
246.942	-16.76
247.16	10.77
247.378	17.74
247.596	50.61
247.814	50.64
248.032	22.33
248.25	25.86
248.468	15.26
248.685	14.36
248.903	27.99
249.121	34.07
249.339	10.88
249.557	6.93
249.775	10.79
249.992	-37.66
250.21	-26.09
250.428	-10.08
250.646	-33.54
250.863	-43
251.081	-19.16
251.299	-38.74
251.517	-38.87
251.734	-14.03
251.952	-22.88
252.17	-7.55
252.387	12.54
252.605	-4.55
252.823	0.55
253.04	5.65
253.258	9.07
253.475	-8.73
253.693	5.01
253.911	9.55
254.128	19.08
254.346	14.47
254.563	14.27
254.781	8.91
254.998	-15.72
255.216	-17.36
255.433	-18.32
255.651	-5.66
255.868	10.25
256.086	38.45
256.303	28.7
256.521	12.69
256.738	-11.33
256.956	-31.95
257.173	-54.88
257.39	-71.23
257.608	-67.56
257.825	-13.48
258.043	4.26
258.26	22.44
258.477	72.37
258.695	58.66
258.912	10.78
259.129	19.32
259.346	-20.7
259.564	-82.81
259.781	-85.17
259.998	2.6
260.216	16.01
260.433	59.07
260.65	48.93
260.867	40.68
261.084	1.86
261.302	-4.53
261.519	-44.02
261.736	-43.37
261.953	-45.57
262.17	-13.27
262.387	-39.03
262.604	-36.01
262.822	-49.98
263.039	-24.83
263.256	-70.59
263.473	-45.64
263.69	-34.71
263.907	8.14
264.124	4.75
264.341	10.28
264.558	-1.1
264.775	14.04
264.992	12.36
265.209	23.45
265.426	39.45
265.643	54.62
265.86	57.42
266.077	56.16
266.294	51.18
266.51	30.95
266.727	23.15
266.944	35.44
267.161	15.25
267.378	11.29
267.595	31.83
267.812	4.16
268.028	-15.71
268.245	23.47
268.462	8.58
268.679	-21.65
268.896	23.11
269.112	23.16
269.329	12.95
269.546	12.2
269.763	16.95
269.979	-11.73
270.196	-3.11
270.413	-34.52
270.629	-54.94
270.846	-67.31
271.063	-53.37
271.279	-80.3
271.496	-67.62
271.712	-30.48
271.929	10
272.146	-8.32
272.362	-9.34
272.579	12.42
272.795	30.21
273.012	4.28
273.228	17.15
273.445	11.72
273.661	-8.51
273.878	-37.67
274.094	-20.45
274.311	-49.22
274.527	-3.33
274.744	11.37
274.96	1.74
275.177	13.5
275.393	28.46
275.609	23.06
275.826	32.2
276.042	32.17
276.259	25.07
276.475	37.84
276.691	38.99
276.908	12.62
277.124	39.71
277.34	34.94
277.557	21.11
277.773	17.03
277.989	19.19
278.205	2.59
278.422	21.91
278.638	23.23
278.854	40.22
279.07	58.47
279.286	73.69
279.503	37.5
279.719	44.07
279.935	1.05
280.151	-10.34
280.367	-27.9
280.583	-65.11
280.799	-51.66
281.016	-59.62
281.232	-33.28
281.448	-41.43
281.664	10.79
281.88	-3.47
282.096	26.96
282.312	51.9
282.528	80.05
282.744	81.71
282.96	50.92
283.176	34.32
283.392	20.44
283.608	10.58
283.824	-5.71
284.04	8.98
284.256	2.38
284.471	-8.34
284.687	-11.52
284.903	10.75
285.119	38.53
285.335	26.33
285.551	37.13
285.767	18.31
285.982	-3.09
286.198	-42.67
286.414	19.96
286.63	29.93
286.846	45.99
287.061	25.09
287.277	45.46
287.493	9.06
287.709	14.01
287.924	7.98
288.14	57.44
288.356	45.49
288.571	55.35
288.787	39.72
289.003	35.97
289.218	18.46
289.434	-11.98
289.65	-8.55
289.865	-5.55
290.081	3.15
290.296	3.17
290.512	21.46
290.727	3.27
290.943	-14.04
291.159	-15.41
291.374	-20.8
291.59	-39.63
291.805	-32.96
292.021	-15.66
292.236	-21.36
292.451	-4.08
292.667	10.59
292.882	21.31
293.098	11.4
293.313	3.66
293.529	-10.32
293.744	-21.91
293.959	-28.93
294.175	-23.41
294.39	4.57
294.605	14.45
294.821	27.54
295.036	37.84
295.251	41.48
295.467	22.9
295.682	13.69
295.897	-10.85
296.112	-24.74
296.328	-26.47
296.543	-42
296.758	-40.37
296.973	-16.86
297.188	5.25
297.404	-7.71
297.619	-13.78
297.834	-11.79
298.049	-4.86
298.264	-19.94
298.479	16.51
298.694	20.31
298.909	35.14
299.125	31.03
299.34	36.33
299.555	2.23
299.77	9.63
299.985	-16.99
300.2	-66.1
300.415	-62.44
300.63	-16.13
300.845	-22.51
301.06	-24.38
301.275	6.06
301.49	3.66
301.704	-12.53
301.919	-19.61
302.134	-31.81
302.349	-34.46
302.564	-83.58
302.779	-100.95
302.994	-112.97
303.209	-53.66
303.423	-29.09
303.638	26.09
303.853	5.16
304.068	7.37
304.283	1.78
304.497	-2.51
304.712	-8.18
304.927	0.11
305.142	-3.06
305.356	1.51
305.571	-3.44
305.786	-17.49
306	-29.33
306.215	-30.01
306.43	-44.59
306.644	-20.21
306.859	15.89
307.074	18.47
307.288	4.13
307.503	-27.38
307.717	-43.34
307.932	-42.98
308.147	-44.38
308.361	-22.8
308.576	-4.33
308.79	-28.82
309.005	-31.48
309.219	-23.76
309.434	-32.07
309.648	-31.32
309.863	-5.86
310.077	5.95
310.292	16.9
310.506	10.15
310.72	24.76
310.935	31.12
311.149	20.5
311.364	28.04
311.578	37.95
311.792	21.93
312.007	26.32
312.221	12.64
312.435	1.77
312.649	-4.52
312.864	22.62
313.078	45.58
313.292	98.92
313.507	86.51
313.721	88.23
313.935	31.69
314.149	3.4
314.363	-5.53
314.578	0.74
314.792	6.08
315.006	-6.08
315.22	8.73
315.434	10.34
315.648	15.18
315.862	10.98
316.077	18.89
316.291	1.38
316.505	15.45
316.719	19.42
316.933	4.37
317.147	-14.21
317.361	-52.99
317.575	-85.32
317.789	-109.7
318.003	-173.98
318.217	-100.52
318.431	-13.93
318.645	43.39
318.859	28.26
319.073	52.6
319.287	42.48
319.5	18.36
319.714	-19.18
319.928	-8.95
320.142	-33.18
320.356	-21.95
320.57	7.21
320.784	-17.8
320.997	-39.25
321.211	-23.81
321.425	-44.97
321.639	-82.82
321.853	-29.3
322.066	-14.39
322.28	-22.18
322.494	-13.98
322.707	19.23
322.921	9.39
323.135	10.66
323.349	14.28
323.562	-5.23
323.776	-32.1
323.989	-34.55
324.203	-61.28
324.417	-67.64
324.63	-62.73
324.844	-47.88
325.057	-53.02
325.271	-30.11
325.485	10
325.698	28.79
325.912	29.04
326.125	11.91
326.339	10.25
326.552	-0.05
326.766	-9.43
326.979	18.92
327.193	48.47
327.406	51.02
327.619	31.27
327.833	46.29
328.046	28.99
328.26	0.66
328.473	21.5
328.686	9.44
328.9	2.2
329.113	13.96
329.326	10.62
329.54	-1.43
329.753	5.3
329.966	-28.22
330.179	-31.35
330.393	-15.26
330.606	-24.8
330.819	-8.25
331.032	10.26
331.246	9.93
331.459	34.04
331.672	36.23
331.885	33.09
332.098	28.09
332.311	35.15
332.525	-14.71
332.738	7.66
332.951	31.12
333.164	34.71
333.377	28.23
333.59	48.45
333.803	45.28
334.016	34.41
334.229	44.82
334.442	57.08
334.655	79.06
334.868	75.36
335.081	55.5
335.294	38.45
335.507	29.66
335.72	15.53
335.933	5.59
336.146	2.62
336.359	-11.86
336.572	-49.47
336.785	-79.19
336.997	-68.67
337.21	-36.25
337.423	-39.79
337.636	-31.7
337.849	-16.75
338.062	-21
338.274	-27.03
338.487	-31.4
338.7	-22.4
338.913	-52.44
339.125	-79.64
339.338	-124.54
339.551	-84.9
339.763	-56.37
339.976	-23.95
340.189	-1.45
340.402	15.33
340.614	11.88
340.827	6.35
341.039	-7.96
341.252	-12.41
341.465	-9.13
341.677	-15.91
341.89	-37.81
342.102	-7.34
342.315	-21.93
342.527	-39
342.74	-40.28
342.952	-17.89
343.165	-31.65
343.377	3.68
343.59	1.1
343.802	18.08
344.015	21.64
344.227	39.78
344.44	18.34
344.652	32.06
344.864	14.82
345.077	34.03
345.289	27.67
345.502	35.29
345.714	14.73
345.926	26.11
346.139	9.16
346.351	21.28
346.563	30.57
346.775	36.91
346.988	8.41
347.2	3.28
347.412	-43.92
347.624	-71.06
347.837	-80.75
348.049	-28.82
348.261	-16.46
348.473	7.59
348.685	9.21
348.897	11.83
349.11	-18.03
349.322	-31.65
349.534	-22.32
349.746	-24.14
349.958	-17.4
350.17	-8.28
350.382	3.77
350.594	-7.67
350.806	13.14
351.018	18.94
351.23	11.05
351.442	-31.15
351.654	-39.08
351.866	-51.37
352.078	-42.71
352.29	-5.95
352.502	23.56
352.714	35.58
352.926	13.17
353.138	13.76
353.35	1.55
353.561	-3.47
353.773	-20.97
353.985	-2.98
354.197	-17.59
354.409	-17.25
354.621	-31.61
354.832	-18.63
355.044	-19.86
355.256	-17.7
355.468	-6.54
355.679	-6.23
355.891	2.71
356.103	-0.2
356.314	-2.76
356.526	-4.4
356.738	25.78
356.949	20.25
357.161	19.86
357.373	22.35
357.584	12.33
357.796	0.52
358.008	-8.14
358.219	-1.52
358.431	0.64
358.642	8.45
358.854	12.79
359.065	13.1
359.277	-11.63
359.488	-29.87
359.7	-49.89
359.911	-58.65
360.123	-44.23
360.334	-40.42
360.546	-40.77
360.757	-47.07
360.969	-48.12
361.18	-47.86
361.391	-21.64
361.603	-23.94
361.814	-11.06
362.025	-5.88
362.237	-15.38
362.448	-16.12
362.659	5.43
362.871	2.98
363.082	3.81
363.293	4.63
363.504	-3.23
363.716	-14.57
363.927	-15.66
364.138	-39.45
364.349	-30.95
364.56	-27.2
364.772	-18.65
364.983	-2.64
365.194	6.63
365.405	17.26
365.616	30.72
365.827	23.36
366.038	9.98
366.25	7.44
366.461	-28.85
366.672	-22.58
366.883	-5.28
367.094	0.49
367.305	-3.18
367.516	2.29
367.727	-17.69
367.938	-22.09
368.149	-21.84
368.36	-3.47
368.571	7.63
368.781	-6.96
368.992	-28.73
369.203	-48.54
369.414	-79.07
369.625	-82.89
369.836	-67.51
370.047	-75.23
370.258	-56.7
370.468	-56.91
370.679	-69.6
370.89	-64.22
371.101	-40.57
371.312	-33.15
371.522	-16.69
371.733	3.12
371.944	16.84
372.155	21.18
372.365	10.97
372.576	9.56
372.787	-4.08
372.997	-34.99
373.208	-41.22
373.419	-23.29
373.629	-46.88
373.84	-46.22
374.05	-44.81
374.261	-46.69
374.472	-53.8
374.682	-3.4
374.893	0.25
375.103	31.37
375.314	30.26
375.524	24.7
375.735	9.66
375.945	14.82
376.156	-7.29
376.366	2.72
376.577	10.25
376.787	8.34
376.997	12.8
377.208	13.26
377.418	3.87
377.629	6
377.839	0.09
378.049	-7.53
378.26	9.93
378.47	14.24
378.68	5.35
378.89	6.98
379.101	3.67
379.311	-31.16
379.521	-50.49
379.732	-51.96
379.942	-36.2
380.152	-39.94
380.362	-9.26
380.572	-8.92
380.783	2.71
380.993	2.96
381.203	13.26
381.413	13.87
381.623	21.26
381.833	14.64
382.043	11.36
382.253	-0.76
382.463	-1.87
382.674	-2.84
382.884	-7.35
383.094	-18.69
383.304	-6.37
383.514	2.57
383.724	6.15
383.934	8.51
384.144	4.45
384.353	-5.39
384.563	-11.73
384.773	-14.5
384.983	-27.95
385.193	-8.12
385.403	2.67
385.613	4.31
385.823	-0.65
386.033	4.62
386.242	-5.16
386.452	-13.03
386.662	-18.2
386.872	-2.82
387.082	0.91
387.291	-4.7
387.501	-4.45
387.711	-4.62
387.921	-12.99
388.13	-10.84
388.34	2.24
388.55	-4.4
388.759	-3.24
388.969	1.96
389.179	-4.27
389.388	-7.65
389.598	-0.2
389.807	-4.49
390.017	-12.68
390.227	-9.78
390.436	-11.81
390.646	-10.72
390.855	-7.36
391.065	-3.9
391.274	-4.07
391.484	-4.94
391.693	-2.97
391.903	-1.11
392.112	3.34
392.322	5.03
392.531	6.6
392.74	5.75
392.95	0.75
393.159	-1.61
393.369	-1.92
393.578	-0.79
393.787	-1.5
393.997	0.97
394.206	0.09
394.415	-0.74
394.625	-2.22
394.834	-3.42
395.043	-1.26
395.252	0.75
395.462	2.73
395.671	4.58
395.88	4.85
396.089	4.51
396.298	2.85
396.508	2.55
396.717	1.29
396.926	2.3
397.135	0.64
397.344	0.56
397.553	1.15
397.762	2.56
397.971	1.82
398.181	2.74
398.39	2.41
398.599	1.38
398.808	1.74
399.017	2.62
399.226	3.6
399.435	4.91
399.644	4.97
399.853	3.84
400.062	3.96
400.27	3.6
400.479	3.02
400.688	2.7
400.897	3.46
401.106	3.46
401.315	3.31
401.524	3.51
401.733	4.31
401.941	4.65
402.15	4.41
402.359	4.18
402.568	4.57
402.777	4.62
402.985	4
403.194	3.97
403.403	4.16
403.612	3.54
403.82	3.1
404.029	3.37
404.238	3.3
404.446	3.45
404.655	3.3
404.864	3.5
405.072	3.36
405.281	3.56
405.489	3.24
405.698	3.24
405.906	3.17
406.115	3.19
406.324	3.03
406.532	3.22
406.741	3.47
406.949	3.44
407.158	3.37
407.366	3.48
407.574	3.55
407.783	3.52
407.991	3.35
408.2	3.33
408.408	3.33
408.617	3.18
408.825	3.02
409.033	3.24
409.242	3.45
409.45	3.37
409.658	3.31
409.867	3.47
410.075	3.31
410.283	3.11
410.491	3.16
410.7	3.08
410.908	3.05
411.116	3.3
411.324	3.23
411.533	3.13
411.741	3.41
411.949	3.45
412.157	3.16
412.365	3.21
412.573	3.16
412.781	3.07
412.99	2.96
413.198	3.13
413.406	3.1
413.614	3.21
413.822	3.09
414.03	3.04
414.238	2.77
414.446	2.88
414.654	2.71
414.862	2.83
415.07	2.99
415.278	3.23
415.486	3.02
415.694	3.15
415.902	3.01
416.109	2.83
416.317	2.79
416.525	2.69
416.733	2.7
416.941	2.87
417.149	2.91
417.357	2.9
417.564	3.15
417.772	3.27
417.98	3.03
418.188	3
418.395	2.97
418.603	3.06
418.811	2.72
419.019	2.75
419.226	2.98
419.434	3.11
419.642	2.83
419.849	3.02
420.057	3.06
420.265	3.01
420.472	2.84
420.68	2.99
420.887	2.81
421.095	2.85
421.302	2.84
421.51	2.96
421.717	2.87
421.925	3.06
422.132	2.94
422.34	2.59
422.547	2.54
422.755	2.63
422.962	2.46
423.17	2.35
423.377	2.53
423.585	2.59
423.792	2.5
423.999	2.64
424.207	2.66
424.414	2.73
424.621	2.63
424.829	2.59
425.036	2.62
425.243	2.76
425.451	2.66
425.658	2.53
425.865	2.68
426.072	2.62
426.28	2.75
426.487	2.67
426.694	2.82
426.901	2.69
427.108	2.56
427.315	2.44
427.523	2.75
427.73	2.66
427.937	2.55
428.144	2.44
428.351	2.37
428.558	2.46
428.765	2.36
428.972	2.49
429.179	2.8
429.386	3.03
429.593	2.81
429.8	2.82
430.007	2.8
430.214	2.78
430.421	2.62
430.628	2.46
430.835	2.5
431.042	2.71
431.249	2.76
431.456	2.78
431.662	2.98
431.869	3.12
432.076	3.01
432.283	3.08
432.49	3.01
432.697	2.99
432.903	2.79
433.11	2.67
433.317	2.65
433.524	2.8
433.73	2.7
433.937	2.86
434.144	2.85
434.35	2.74
434.557	2.56
434.764	2.58
434.97	2.52
435.177	2.65
435.384	2.56
435.59	2.74
435.797	2.93
436.003	2.98
436.21	3.03
436.416	3.09
436.623	2.97
436.829	2.86
437.036	2.91
437.242	2.92
437.449	2.83
437.655	2.85
437.862	2.84
438.068	2.75
438.275	2.78
438.481	3.07
438.687	3.02
438.894	3.08
439.1	3.07
439.307	3.09
439.513	2.96
439.719	3.1
439.926	3.15
440.132	3.17
440.338	3.08
440.544	3.17
440.751	3.06
440.957	3.03
441.163	2.97
441.369	2.95
441.575	2.73
441.782	2.73
441.988	2.61
442.194	2.65
442.4	2.67
442.606	2.97
442.812	3.05
443.018	3.17
443.224	3.17
443.431	3.21
443.637	2.89
443.843	2.76
444.049	2.68
444.255	2.63
444.461	2.68
444.667	2.79
444.873	2.95
445.079	2.99
445.284	3.18
445.49	2.93
445.696	2.77
445.902	2.75
446.108	2.73
446.314	2.63
446.52	2.76
446.726	3.02
446.931	2.99
447.137	3.01
447.343	3.03
447.549	2.96
447.755	2.89
447.96	2.93
448.166	2.86
448.372	2.79
448.578	2.91
448.783	2.83
448.989	2.85
449.195	2.97
449.4	3.02
449.606	2.9
449.812	2.89
450.017	2.96
450.223	2.93
450.428	2.9
450.634	3.01
450.84	3.18
451.045	3.05
451.251	2.98
451.456	3.21
451.662	3.29
451.867	3.29
452.073	3.33
452.278	3.48
452.483	3.44
452.689	3.32
452.894	3.33
453.1	3.3
453.305	3.21
453.51	3.18
453.716	3.13
453.921	3.09
454.127	3.12
454.332	3.07
454.537	2.95
454.742	3
454.948	3.03
455.153	3.15
455.358	3.27
455.563	3.5
455.769	3.58
455.974	3.54
456.179	3.33
456.384	3.25
456.589	3.07
456.795	2.9
457	2.96
457.205	3.28
457.41	3.36
457.615	3.32
457.82	3.43
458.025	3.4
458.23	3.14
458.435	3.17
458.64	3.2
458.845	3.37
459.05	3.35
459.255	3.43
459.46	3.39
459.665	3.45
459.87	3.35
460.075	3.37
460.28	3.45
460.485	3.6
460.69	3.6
460.895	3.57
461.099	3.59
461.304	3.66
461.509	3.54
461.714	3.49
461.919	3.59
462.123	3.53
462.328	3.53
462.533	3.57
462.738	3.75
462.942	3.67
463.147	3.79
463.352	3.86
463.556	3.92
463.761	3.89
463.966	3.94
464.17	3.97
464.375	3.83
464.58	3.81
464.784	3.74
464.989	3.75
465.193	3.71
465.398	3.76
465.602	3.86
465.807	3.89
466.011	3.96
466.216	4.1
466.42	4.14
466.625	4.17
466.829	4.34
467.034	4.37
467.238	4.47
467.443	4.42
467.647	4.36
467.851	4.38
468.056	4.42
468.26	4.28
468.464	4.39
468.669	4.51
468.873	4.66
469.077	4.63
469.282	4.77
469.486	4.75
469.69	4.71
469.894	4.57
470.099	4.66
470.303	4.71
470.507	4.76
470.711	4.72
470.915	4.75
471.119	4.71
471.324	4.64
471.528	4.69
471.732	4.75
471.936	4.74
472.14	4.74
472.344	4.85
472.548	4.89
472.752	5.08
472.956	5.25
473.16	5.33
473.364	5.17
473.568	5.14
473.772	5.18
473.976	5.07
474.18	5.08
474.384	5.18
474.588	5.18
474.792	5.01
474.995	5.1
475.199	5.2
475.403	5.21
475.607	5.28
475.811	5.3
476.015	5.29
476.218	5.22
476.422	5.17
476.626	5.17
476.83	5.25
477.033	5.19
477.237	5.17
477.441	5.28
477.644	5.25
477.848	5.25
478.052	5.28
478.255	5.29
478.459	5.36
478.663	5.48
478.866	5.46
479.07	5.48
479.273	5.61
479.477	5.56
479.681	5.55
479.884	5.52
480.088	5.56
480.291	5.47
480.495	5.51
480.698	5.5
480.901	5.6
481.105	5.64
481.308	5.65
481.512	5.62
481.715	5.7
481.919	5.7
482.122	5.73
482.325	5.69
482.529	5.68
482.732	5.61
482.935	5.54
483.138	5.5
483.342	5.57
483.545	5.61
483.748	5.67
483.952	5.75
484.155	5.88
484.358	5.9
484.561	5.87
484.764	5.85
484.967	5.86
485.171	5.85
485.374	5.77
485.577	5.86
485.78	5.82
485.983	5.81
486.186	5.68
486.389	5.65
486.592	5.63
486.795	5.7
486.998	5.64
487.201	5.7
487.404	5.82
487.607	5.82
487.81	5.79
488.013	5.91
488.216	5.93
488.419	5.88
488.622	5.86
488.825	5.76
489.028	5.66
489.231	5.61
489.433	5.52
489.636	5.48
489.839	5.48
490.042	5.42
490.245	5.35
490.447	5.4
490.65	5.37
490.853	5.38
491.056	5.46
491.258	5.5
491.461	5.48
491.664	5.51
491.866	5.5
492.069	5.53
492.272	5.47
492.474	5.52
492.677	5.54
492.879	5.6
493.082	5.65
493.285	5.78
493.487	5.74
493.69	5.68
493.892	5.61
494.095	5.57
494.297	5.52
494.5	5.54
494.702	5.56
494.905	5.61
495.107	5.6
495.309	5.58
495.512	5.6
495.714	5.65
495.917	5.68
496.119	5.63
496.321	5.66
496.524	5.68
496.726	5.64
496.928	5.62
497.13	5.64
497.333	5.63
497.535	5.62
497.737	5.67
497.939	5.65
498.142	5.68
498.344	5.66
498.546	5.61
498.748	5.66
498.95	5.73
499.152	5.7
499.355	5.72
499.557	5.84
499.759	5.84
499.961	5.83
500.163	5.92
500.365	5.92
500.567	5.9
500.769	5.83
500.971	5.88
501.173	5.79
501.375	5.86
501.577	5.79
501.779	5.85
501.981	5.81
502.183	5.82
502.385	5.76
502.587	5.74
502.788	5.78
502.99	5.79
503.192	5.88
503.394	5.91
503.596	5.94
503.798	5.96
503.999	6.06
504.201	5.98
504.403	5.98
504.605	6.06
504.806	5.96
505.008	5.9
505.21	5.99
505.411	6.03
505.613	6.05
505.815	6.07
506.016	6.13
506.218	6.17
506.42	6.13
506.621	6.19
506.823	6.25
507.024	6.16
507.226	6.14
507.427	6.17
507.629	6.13
507.83	6.19
508.032	6.25
508.233	6.31
508.435	6.34
508.636	6.37
508.838	6.32
509.039	6.34
509.24	6.33
509.442	6.38
509.643	6.3
509.845	6.3
510.046	6.32
510.247	6.34
510.448	6.31
510.65	6.34
510.851	6.48
511.052	6.52
511.254	6.52
511.455	6.63
511.656	6.71
511.857	6.73
512.058	6.7
512.26	6.72
512.461	6.65
512.662	6.68
512.863	6.51
513.064	6.47
513.265	6.51
513.466	6.53
513.667	6.52
513.868	6.57
514.069	6.66
514.27	6.65
514.471	6.63
514.672	6.6
514.873	6.63
515.074	6.62
515.275	6.54
515.476	6.54
515.677	6.6
515.878	6.75
516.079	6.75
516.28	6.82
516.481	6.93
516.682	6.95
516.882	6.8
517.083	6.75
517.284	6.66
517.485	6.59
517.686	6.52
517.886	6.55
518.087	6.61
518.288	6.67
518.488	6.62
518.689	6.67
518.89	6.69
519.091	6.75
519.291	6.79
519.492	6.87
519.692	6.91
519.893	6.96
520.094	6.94
520.294	6.96
520.495	6.94
520.695	6.98
520.896	6.95
521.096	6.97
521.297	6.98
521.497	6.95
521.698	6.91
521.898	6.92
522.099	6.92
522.299	7.06
522.499	7.08
522.7	7.14
522.9	7.1
523.101	7.13
523.301	7.03
523.501	7.09
523.702	7.05
523.902	7.15
524.102	7.21
524.302	7.19
524.503	7.22
524.703	7.28
524.903	7.29
525.103	7.22
525.304	7.28
525.504	7.33
525.704	7.3
525.904	7.28
526.104	7.31
526.304	7.29
526.504	7.28
526.705	7.28
526.905	7.34
527.105	7.36
527.305	7.31
527.505	7.28
527.705	7.28
527.905	7.28
528.105	7.32
528.305	7.4
528.505	7.45
528.705	7.51
528.905	7.46
529.105	7.42
529.304	7.47
529.504	7.52
529.704	7.48
529.904	7.55
530.104	7.6
530.304	7.63
530.503	7.58
530.703	7.54
530.903	7.54
531.103	7.58
531.303	7.51
531.502	7.61
531.702	7.77
531.902	7.79
532.101	7.77
532.301	7.89
532.501	7.87
532.7	7.84
532.9	7.85
533.1	7.87
533.299	7.82
533.499	7.86
533.698	7.85
533.898	7.82
534.097	7.85
534.297	7.92
534.496	7.91
534.696	7.95
534.895	8.09
535.095	8.18
535.294	8.15
535.494	8.14
535.693	8.16
535.892	8.12
536.092	8.05
536.291	8.05
536.491	8.14
536.69	8.18
536.889	8.12
537.088	8.14
537.288	8.21
537.487	8.27
537.686	8.3
537.886	8.38
538.085	8.42
538.284	8.52
538.483	8.48
538.682	8.51
538.882	8.57
539.081	8.6
539.28	8.5
539.479	8.53
539.678	8.54
539.877	8.61
540.076	8.63
540.275	8.7
540.474	8.8
540.673	8.9
540.872	8.89
541.071	8.97
541.27	9.01
541.469	9.03
541.668	9
541.867	9.04
542.066	9.06
542.265	9.13
542.464	9.12
542.663	9.18
542.862	9.32
543.06	9.41
543.259	9.49
543.458	9.57
543.657	9.61
543.856	9.61
544.054	9.55
544.253	9.51
544.452	9.53
544.651	9.61
544.849	9.56
545.048	9.7
545.247	9.74
545.445	9.84
545.644	9.88
545.843	9.96
546.041	10.02
546.24	10.11
546.438	10.21
546.637	10.27
546.836	10.38
547.034	10.42
547.233	10.48
547.431	10.44
547.63	10.43
547.828	10.48
548.027	10.54
548.225	10.58
548.423	10.62
548.622	10.74
548.82	10.77
549.019	10.84
549.217	10.94
549.415	11.04
549.614	11.13
549.812	11.16
550.01	11.17
550.209	11.19
550.407	11.28
550.605	11.31
550.803	11.49
551.002	11.57
551.2	11.67
551.398	11.78
551.596	11.88
551.794	11.94
551.993	12
552.191	12.11
552.389	12.23
552.587	12.36
552.785	12.42
552.983	12.58
553.181	12.64
553.379	12.66
553.577	12.66
553.775	12.77
553.973	12.85
554.171	12.92
554.369	12.91
554.567	13.01
554.765	13.04
554.963	13.09
555.161	13.15
555.359	13.3
555.557	13.4
555.755	13.49
555.952	13.65
556.15	13.74
556.348	13.84
556.546	14
556.744	14.1
556.941	14.06
557.139	14.18
557.337	14.25
557.535	14.24
557.732	14.3
557.93	14.5
558.128	14.55
558.325	14.68
558.523	14.73
558.721	14.86
558.918	14.87
559.116	15.04
559.313	15.04
559.511	15.25
559.708	15.35
559.906	15.48
560.104	15.5
560.301	15.73
560.498	15.7
560.696	15.73
560.893	15.8
561.091	15.97
561.288	16.01
561.486	16.2
561.683	16.33
561.88	16.54
562.078	16.66
562.275	16.71
562.473	16.79
562.67	16.98
562.867	17.06
563.064	17.15
563.262	17.28
563.459	17.4
563.656	17.52
563.853	17.62
564.051	17.7
564.248	17.83
564.445	17.98
564.642	18.03
564.839	18.13
565.036	18.3
565.234	18.47
565.431	18.47
565.628	18.57
565.825	18.62
566.022	18.72
566.219	18.79
566.416	18.97
566.613	19.06
566.81	19.15
567.007	19.12
567.204	19.17
567.401	19.17
567.598	19.25
567.795	19.35
567.991	19.45
568.188	19.46
568.385	19.65
568.582	19.72
568.779	19.78
568.976	19.9
569.172	20.07
569.369	20.02
569.566	20.12
569.763	20.24
569.96	20.27
570.156	20.25
570.353	20.38
570.55	20.49
570.746	20.5
570.943	20.5
571.14	20.54
571.336	20.55
571.533	20.51
571.729	20.58
571.926	20.72
572.123	20.85
572.319	20.86
572.516	20.87
572.712	20.9
572.909	20.82
573.105	20.95
573.302	21.02
573.498	21.13
573.695	21.11
573.891	21.2
574.087	21.12
574.284	21.1
574.48	21.01
574.677	21.05
574.873	21.05
575.069	21.16
575.266	21.23
575.462	21.23
575.658	21.34
575.854	21.5
576.051	21.43
576.247	21.42
576.443	21.51
576.639	21.46
576.835	21.39
577.032	21.41
577.228	21.55
577.424	21.53
577.62	21.51
577.816	21.52
578.012	21.52
578.208	21.46
578.404	21.53
578.6	21.53
578.796	21.49
578.993	21.44
579.189	21.35
579.384	21.17
579.58	21.09
579.776	21.05
579.972	21.04
580.168	21.02
580.364	21.17
580.56	21.19
580.756	21.2
580.952	21.14
581.148	21.15
581.343	21.1
581.539	21.11
581.735	21.05
581.931	21.11
582.127	21.16
582.322	21.1
582.518	21.11
582.714	21.15
582.909	21.09
583.105	20.97
583.301	20.95
583.496	20.93
583.692	20.86
583.888	20.85
584.083	20.86
584.279	20.93
584.474	20.91
584.67	20.94
584.866	20.92
585.061	20.77
585.257	20.73
585.452	20.68
585.648	20.56
585.843	20.56
586.039	20.61
586.234	20.6
586.429	20.61
586.625	20.7
586.82	20.65
587.015	20.69
587.211	20.61
587.406	20.55
587.601	20.59
587.797	20.52
587.992	20.49
588.187	20.53
588.383	20.53
588.578	20.45
588.773	20.55
588.968	20.58
589.163	20.69
589.359	20.74
589.554	20.79
589.749	20.82
589.944	20.91
590.139	20.94
590.334	20.89
590.529	20.88
590.724	20.89
590.919	20.91
591.114	20.78
591.309	20.85
591.504	20.88
591.699	20.94
591.894	20.87
592.089	20.88
592.284	20.95
592.479	21.05
592.674	21.04
592.869	21.18
593.064	21.28
593.259	21.38
593.454	21.44
593.648	21.51
593.843	21.44
594.038	21.49
594.233	21.42
594.428	21.42
594.622	21.48
594.817	21.69
595.012	21.82
595.206	21.91
595.401	22.1
595.596	22.12
595.79	22.16
595.985	22.27
596.18	22.41
596.374	22.38
596.569	22.45
596.763	22.47
596.958	22.43
597.153	22.45
597.347	22.49
597.542	22.62
597.736	22.75
597.931	22.81
598.125	22.81
598.319	22.98
598.514	22.95
598.708	22.99
598.903	23.02
599.097	23.16
599.291	23.11
599.486	23.19
599.68	23.17
599.874	23.27
600.069	23.22
600.263	23.3
600.457	23.4
600.651	23.53
600.846	23.63
601.04	23.69
601.234	23.66
601.428	23.76
601.622	23.69
601.817	23.68
602.011	23.76
602.205	23.85
602.399	23.89
602.593	24
602.787	24.02
602.981	23.96
603.175	24.04
603.369	23.87
603.563	23.87
603.757	23.83
603.951	23.82
604.145	23.66
604.339	23.73
604.533	23.56
604.727	23.57
604.921	23.5
605.115	23.51
605.309	23.6
605.502	23.68
605.696	23.65
605.89	23.62
606.084	23.59
606.278	23.4
606.471	23.24
606.665	23.08
606.859	23.06
607.053	22.99
607.246	22.91
607.44	22.92
607.634	22.92
607.827	22.95
608.021	22.91
608.214	22.91
608.408	22.79
608.602	22.75
608.795	22.6
608.989	22.51
609.182	22.4
609.376	22.31
609.569	22.23
609.763	22.08
609.956	22
610.15	21.89
610.343	21.88
610.537	21.79
610.73	21.82
610.923	21.72
611.117	21.69
611.31	21.52
611.504	21.47
611.697	21.33
611.89	21.33
612.083	21.25
612.277	21.26
612.47	21.11
612.663	21.07
612.856	21.01
613.05	20.94
613.243	20.89
613.436	20.83
613.629	20.68
613.822	20.48
614.015	20.32
614.209	20.15
614.402	20.14
614.595	20.12
614.788	20.09
614.981	20.09
615.174	19.99
615.367	19.9
615.56	19.83
615.753	19.69
615.946	19.58
616.139	19.61
616.332	19.66
616.525	19.63
616.718	19.72
616.911	19.74
617.103	19.68
617.296	19.57
617.489	19.44
617.682	19.26
617.875	19.2
618.067	19.11
618.26	18.95
618.453	18.93
618.646	18.94
618.838	18.9
619.031	18.97
619.224	18.98
619.417	18.95
619.609	18.99
619.802	18.94
619.994	18.8
620.187	18.77
620.38	18.73
620.572	18.68
620.765	18.72
620.957	18.71
621.15	18.6
621.342	18.54
621.535	18.55
621.727	18.42
621.92	18.43
622.112	18.43
622.305	18.48
622.497	18.3
622.69	18.3
622.882	18.24
623.074	18.28
623.267	18.22
623.459	18.14
623.651	18.1
623.844	18.09
624.036	18.08
624.228	17.98
624.42	17.99
624.613	18.09
624.805	18.04
624.997	17.93
625.189	17.96
625.381	18.02
625.574	17.92
625.766	17.78
625.958	17.74
626.15	17.76
626.342	17.69
626.534	17.64
626.726	17.73
626.918	17.76
627.11	17.69
627.302	17.73
627.494	17.7
627.686	17.66
627.878	17.61
628.07	17.58
628.262	17.44
628.454	17.44
628.646	17.45
628.838	17.44
629.029	17.43
629.221	17.53
629.413	17.46
629.605	17.33
629.797	17.28
629.989	17.28
630.18	17.16
630.372	17.15
630.564	17.12
630.755	17.09
630.947	17.01
631.139	16.93
631.33	16.84
631.522	16.91
631.714	16.9
631.905	16.87
632.097	16.86
632.289	16.86
632.48	16.82
632.672	16.72
632.863	16.65
633.055	16.59
633.246	16.53
633.438	16.44
633.629	16.43
633.821	16.49
634.012	16.52
634.203	16.44
634.395	16.46
634.586	16.46
634.777	16.32
634.969	16.33
635.16	16.39
635.351	16.31
635.543	16.31
635.734	16.36
635.925	16.34
636.117	16.39
636.308	16.44
636.499	16.39
636.69	16.36
636.881	16.33
637.073	16.39
637.264	16.32
637.455	16.28
637.646	16.33
637.837	16.35
638.028	16.22
638.219	16.3
638.41	16.28
638.601	16.2
638.792	16.2
638.983	16.13
639.174	15.97
639.365	16.05
639.556	16.05
639.747	15.98
639.938	15.99
640.129	16.01
640.32	15.83
640.511	15.82
640.701	15.8
640.892	15.74
641.083	15.77
641.274	15.91
641.465	15.92
641.655	15.87
641.846	15.86
642.037	15.82
642.228	15.67
642.418	15.61
642.609	15.61
642.8	15.65
642.99	15.61
643.181	15.66
643.372	15.71
643.562	15.71
643.753	15.55
643.943	15.49
644.134	15.35
644.324	15.24
644.515	15.23
644.705	15.3
644.896	15.24
645.086	15.27
645.277	15.2
645.467	15.2
645.658	15.23
645.848	15.24
646.038	15.22
646.229	15.27
646.419	15.17
646.61	15.01
646.8	15.01
646.99	14.98
647.18	14.82
647.371	14.78
647.561	14.77
647.751	14.74
647.941	14.68
648.132	14.8
648.322	14.79
648.512	14.87
648.702	14.79
648.892	14.81
649.082	14.7
649.272	14.59
649.462	14.48
649.653	14.47
649.843	14.35
650.033	14.32
650.223	14.35
650.413	14.24
650.603	14.32
650.793	14.41
650.983	14.45
651.172	14.31
651.362	14.32
651.552	14.16
651.742	14.02
651.932	13.96
652.122	14
652.312	13.99
652.502	13.99
652.691	13.94
652.881	13.78
653.071	13.69
653.261	13.57
653.45	13.37
653.64	13.37
653.83	13.3
654.019	13.19
654.209	13.13
654.399	13.12
654.588	12.95
654.778	12.82
654.968	12.76
655.157	12.7
655.347	12.53
655.536	12.37
655.726	12.3
655.915	12.11
656.105	11.95
656.294	11.87
656.484	11.73
656.673	11.57
656.863	11.53
657.052	11.32
657.241	11.09
657.431	10.85
657.62	10.72
657.809	10.41
657.999	10.36
658.188	10.22
658.377	10.15
658.567	10
658.756	9.84
658.945	9.58
659.134	9.5
659.324	9.43
659.513	9.29
659.702	9.25
659.891	9.24
660.08	9.02
660.269	8.92
660.458	8.75
660.648	8.56
660.837	8.41
661.026	8.32
661.215	8.21
661.404	8.05
661.593	7.99
661.782	7.74
661.971	7.69
662.16	7.48
662.349	7.39
662.538	7.16
662.726	7.13
662.915	6.96
663.104	6.89
663.293	6.85
663.482	6.95
663.671	6.83
663.86	6.72
664.048	6.61
664.237	6.58
664.426	6.24
664.615	6.24
664.803	6.18
664.992	6.11
665.181	5.98
665.369	6.08
665.558	5.96
665.747	5.95
665.935	5.93
666.124	5.93
666.312	5.82
666.501	5.71
666.69	5.61
666.878	5.51
667.067	5.36
667.255	5.5
667.444	5.77
667.632	5.82
667.82	5.83
668.009	5.85
668.197	5.69
668.386	5.45
668.574	5.46
668.762	5.47
668.951	5.35
669.139	5.33
669.327	5.29
669.516	5.3
669.704	5.23
669.892	5.42
670.08	5.45
670.269	5.36
670.457	5.28
670.645	5.22
670.833	5.22
671.021	5.2
671.21	5.35
671.398	5.59
671.586	5.72
671.774	5.58
671.962	5.57
672.15	5.59
672.338	5.46
672.526	5.39
672.714	5.38
672.902	5.5
673.09	5.57
673.278	5.66
673.466	5.74
673.654	5.88
673.842	5.8
674.03	5.78
674.218	5.63
674.405	5.6
674.593	5.55
674.781	5.64
674.969	5.69
675.157	5.89
675.344	6.07
675.532	6.18
675.72	6.24
675.908	6.25
676.095	6.2
676.283	6.2
676.471	6.4
676.658	6.39
676.846	6.42
677.033	6.58
677.221	6.71
677.409	6.54
677.596	6.72
677.784	6.86
677.971	6.87
678.159	6.89
678.346	6.97
678.534	6.93
678.721	6.96
678.909	7.01
679.096	6.97
679.283	7.24
679.471	7.42
679.658	7.54
679.846	7.66
680.033	7.94
680.22	7.85
680.408	7.88
680.595	7.86
680.782	7.8
680.969	7.79
681.157	7.96
681.344	8.06
681.531	8.16
681.718	8.27
681.905	8.44
682.093	8.61
682.28	8.77
682.467	9.08
682.654	9.28
682.841	9.4
683.028	9.48
683.215	9.57
683.402	9.48
683.589	9.55
683.776	9.76
683.963	9.92
684.15	10.12
684.337	10.46
684.524	10.66
684.711	10.81
684.898	10.79
685.085	11.12
685.271	11.29
685.458	11.48
685.645	11.72
685.832	12.32
686.019	12.47
686.205	12.77
686.392	13.11
686.579	13.38
686.766	13.64
686.952	13.95
687.139	14.52
687.326	14.89
687.512	15.24
687.699	15.54
687.886	15.82
688.072	15.9
688.259	16.34
688.445	16.88
688.632	17.23
688.818	17.9
689.005	18.45
689.191	18.82
689.378	19.4
689.564	19.94
689.751	20.37
689.937	20.87
690.124	21.39
690.31	21.68
690.496	22.24
690.683	22.88
690.869	23.37
691.055	23.97
691.242	24.68
691.428	25.35
691.614	25.84
691.8	26.65
691.987	27.52
692.173	28.24
692.359	28.99
692.545	29.75
692.731	30.33
692.918	30.98
693.104	31.43
693.29	31.98
693.476	32.86
693.662	33.57
693.848	34.15
694.034	34.83
694.22	35.46
694.406	36.14
694.592	36.71
694.778	37.28
694.964	38.08
695.15	38.89
695.336	39.4
695.522	40.49
695.708	41.26
695.894	42.18
696.08	42.89
696.265	43.56
696.451	44.12
696.637	45.03
696.823	45.82
697.009	46.35
697.194	46.82
697.38	47.34
697.566	48.03
697.751	48.64
697.937	49.48
698.123	50.49
698.308	51.22
698.494	51.8
698.68	52.17
698.865	52.94
699.051	53.7
699.236	54.23
699.422	54.72
699.607	55.44
699.793	56.12
699.978	56.65
700.164	57.16
700.349	57.94
700.535	58.38
700.72	58.61
700.906	59.13
701.091	59.88
701.276	60.31
701.462	61.03
701.647	61.73
701.832	62.1
702.018	62.51
702.203	62.83
702.388	63.38
702.573	63.64
702.759	64.44
702.944	64.94
703.129	65.52
703.314	65.8
703.499	66.16
703.684	66.17
703.87	67.15
704.055	67.72
704.24	68.26
704.425	69
704.61	69.67
704.795	69.72
704.98	69.93
705.165	70.12
705.35	70.66
705.535	71.19
705.72	71.6
705.905	72.14
706.09	72.77
706.275	72.89
706.459	72.79
706.644	72.99
706.829	73.19
707.014	72.94
707.199	73.72
707.384	74.27
707.568	74.32
707.753	74.98
707.938	75.7
708.123	75.4
708.307	75.46
708.492	75.79
708.677	75.76
708.861	75.62
709.046	75.77
709.231	76.45
709.415	76.82
709.6	76.98
709.784	77.2
709.969	77.74
710.153	77.5
710.338	77.61
710.522	77.85
710.707	78.52
710.891	78.43
711.076	78.68
711.26	78.8
711.445	79.09
711.629	79.1
711.813	79.65
711.998	80.05
712.182	80.19
712.366	80.95
712.551	81.44
712.735	81.56
712.919	81.41
713.103	81.67
713.288	81.16
713.472	81.04
713.656	81.27
713.84	81.37
714.024	81.69
714.208	81.89
714.393	82.22
714.577	82.49
714.761	82.65
714.945	82.5
715.129	82.32
715.313	82.16
715.497	81.82
715.681	82.78
715.865	82.73
716.049	83.4
716.233	83.26
716.417	83.58
716.601	83.14
716.785	83.53
716.968	83.26
717.152	83.94
717.336	83.9
717.52	83.83
717.704	84.05
717.888	84.18
718.071	84.24
718.255	84.51
718.439	84.58
718.622	84.82
718.806	84.91
718.99	84.24
719.174	83.9
719.357	84.07
719.541	84.15
719.724	84.08
719.908	85.15
720.092	85.71
720.275	85.93
720.459	85.68
720.642	85.92
720.826	85.55
721.009	85.25
721.193	84.87
721.376	85.04
721.559	85.2
721.743	85.28
721.926	85.41
722.11	86.09
722.293	85.39
722.476	85.78
722.66	85.42
722.843	85.76
723.026	85.23
723.21	85.74
723.393	85.57
723.576	85.92
723.759	85.65
723.942	85.85
724.126	85.65
724.309	86.1
724.492	86.03
724.675	86.05
724.858	86.57
725.041	87.47
725.224	86.87
725.407	87.44
725.59	87.79
725.774	87.37
725.957	86.61
726.14	86.94
726.322	86.36
726.505	86.22
726.688	86.25
726.871	86.63
727.054	86.85
727.237	87.22
727.42	87.16
727.603	87.46
727.786	87.63
727.968	87.41
728.151	87.63
728.334	88.19
728.517	88.54
728.699	88.56
728.882	88.65
729.065	88.87
729.248	88.83
729.43	89.14
729.613	89.88
729.796	89.98
729.978	89.19
730.161	88.9
730.343	87.83
730.526	88.36
730.708	88.15
730.891	88.81
731.073	88.78
731.256	88.93
731.438	87.84
731.621	88.65
731.803	88.57
731.986	88.19
732.168	87.87
732.35	88.33
732.533	87.67
732.715	87.93
732.898	88.83
733.08	89.72
733.262	89.46
733.444	88.94
733.627	89.1
733.809	89.41
733.991	89.52
734.173	89.28
734.355	89.23
734.538	89.2
734.72	88.13
734.902	88.09
735.084	88.76
735.266	88.64
735.448	88.99
735.63	89.88
735.812	90.13
735.994	90.85
736.176	91.74
736.358	91.47
736.54	92.05
736.722	90.99
736.904	90.14
737.086	90.36
737.268	91.24
737.45	90.97
737.632	91.96
737.814	91.28
737.995	91.85
738.177	90.73
738.359	89.8
738.541	89.73
738.723	90.09
738.904	89.69
739.086	89.6
739.268	89.7
739.449	90.82
739.631	89.9
739.813	89.69
739.994	91.03
740.176	91.47
740.358	89.99
740.539	92.12
740.721	92.65
740.902	91.82
741.084	91.8
741.265	92.12
741.447	91.26
741.628	91.08
741.81	90.68
741.991	91.07
742.172	91.73
742.354	92.71
742.535	92.87
742.717	93.17
742.898	92.97
743.079	93.54
743.261	93.02
743.442	92.19
743.623	92.68
743.804	93.09
743.986	92.46
744.167	91.17
744.348	91.12
744.529	91.36
744.71	90.24
744.891	90.39
745.073	91.65
745.254	91.5
745.435	90.96
745.616	91.11
745.797	90.96
745.978	89.67
746.159	90.5
746.34	89.74
746.521	91.53
746.702	90.47
746.883	90.9
747.064	91.05
747.245	92.11
747.426	90.47
747.606	90.91
747.787	92.01
747.968	91.88
748.149	91.21
748.33	92.44
748.51	92.31
748.691	91.54
748.872	92.09
749.053	92.99
749.233	91.89
749.414	92.17
749.595	91.45
749.775	90.38
749.956	88.85
750.137	89.87
750.317	89.57
750.498	91.63
750.678	92
750.859	93.92
751.04	93.38
751.22	93.43
751.4	91.82
751.581	90.39
751.761	89.15
751.942	89.21
752.122	89.43
752.303	89.91
752.483	90.81
752.663	91.39
752.844	89.71
753.024	91.38
753.204	91.52
753.385	91.91
753.565	92.2
753.745	93.97
753.925	90.88
754.106	90.44
754.286	90.33
754.466	89.89
754.646	88.7
754.826	90.48
755.006	89.74
755.187	90.6
755.367	90.7
755.547	91.47
755.727	91.15
755.907	91.56
756.087	91.11
756.267	91.22
756.447	91.26
756.627	90.11
756.807	91.57
756.987	90.39
757.167	90.43
757.346	91.63
757.526	91.47
757.706	90.48
757.886	92.39
758.066	92.44
758.246	92.18
758.425	92.29
758.605	92.15
758.785	92.12
758.965	91.38
759.144	89.79
759.324	91.02
759.504	91.01
759.683	90.91
759.863	90.28
760.043	89.92
760.222	89.2
760.402	88.07
760.581	86.38
760.761	88.54
760.94	88.16
761.12	90.65
761.299	91.91
761.479	92.79
761.658	90.19
761.838	91.29
762.017	90.27
762.197	90.9
762.376	90.46
762.555	92.68
762.735	92.68
762.914	90.81
763.093	90.34
763.273	90.17
763.452	89.23
763.631	89.26
763.81	89.82
763.99	89.07
764.169	89.4
764.348	88.41
764.527	86.82
764.706	87.83
764.885	89.82
765.064	88.45
765.243	88.81
765.423	91.74
765.602	91.25
765.781	88.8
765.96	89.92
766.139	89.61
766.318	88.27
766.497	87.22
766.676	88.39
766.854	89.19
767.033	89.27
767.212	88.48
767.391	89.83
767.57	91.37
767.749	91.64
767.928	92.46
768.106	92.23
768.285	89.93
768.464	88.4
768.643	85.48
768.821	85.6
769	88.12
769.179	89.47
769.357	86.87
769.536	89.11
769.715	88.49
769.893	89.43
770.072	88.27
770.25	91.31
770.429	90.2
770.607	89.88
770.786	87.3
770.964	89.44
771.143	88.29
771.321	89.17
771.5	90.25
771.678	88.84
771.857	86.79
772.035	86.84
772.213	86.19
772.392	84.52
772.57	86.1
772.748	86.91
772.927	84.87
773.105	84.46
773.283	84.91
773.461	85.16
773.64	85.4
773.818	85.96
773.996	88.12
774.174	87.38
774.352	85.84
774.531	82.59
774.709	85.79
774.887	83.54
775.065	83.92
775.243	83.33
775.421	85.27
775.599	85.18
775.777	85.18
775.955	83.32
776.133	83.01
776.311	84.24
776.489	80.7
776.667	83.11
776.844	85.61
777.022	84.57
777.2	82.73
777.378	83.67
777.556	81.59
777.734	84.57
777.911	89.62
778.089	90.24
778.267	90.71
778.445	89.56
778.622	85.79
778.8	84.19
778.978	84.56
779.155	83.99
779.333	85.69
779.511	86.26
779.688	85.5
779.866	82.87
780.043	81.68
780.221	79.78
780.398	79.33
780.576	80.78
780.753	83.27
780.931	82.72
781.108	81.88
781.286	80.73
781.463	77.34
781.64	75.16
781.818	74.94
781.995	75.01
782.172	75.55
782.35	78.33
782.527	81.6
782.704	82.59
782.882	84.29
783.059	84.86
783.236	85.53
783.413	85.78
783.59	84.79
783.768	82.45
783.945	83.29
784.122	80.63
784.299	80.29
784.476	82.31
784.653	81.53
784.83	80.12
785.007	79.58
785.184	78.42
785.361	76.45
785.538	81.51
785.715	81.94
785.892	83.28
786.069	85.15
786.246	87.52
786.423	85.23
786.6	85.65
786.776	83.62
786.953	82.61
787.13	85.03
787.307	85.3
787.484	83.06
787.66	82.18
787.837	82.65
788.014	79.25
788.191	76.93
788.367	78.87
788.544	82.95
788.721	79.47
788.897	80.24
789.074	83.59
789.25	80.53
789.427	80.79
789.603	79.08
789.78	79.62
789.956	76.56
790.133	76.26
790.309	72.92
790.486	79.91
790.662	77.1
790.839	77.72
791.015	80.37
791.192	80.38
791.368	78.89
791.544	78.29
791.721	78.62
791.897	75.72
792.073	74.18
792.249	67.77
792.426	69.62
792.602	72.7
792.778	75.68
792.954	75
793.13	79.63
793.307	73.86
793.483	67.83
793.659	67.74
793.835	73.09
794.011	69.04
794.187	76
794.363	78.32
794.539	79.49
794.715	69.94
794.891	70.55
795.067	69.2
795.243	70.26
795.419	68.4
795.595	72.59
795.771	72.31
795.947	70.46
796.122	69.99
796.298	72.67
796.474	73.64
796.65	76.35
796.826	77.72
797.001	74.11
797.177	70.89
797.353	73.45
797.529	75.01
797.704	78.48
797.88	76.8
798.056	76.19
798.231	75.33
798.407	79.42
798.582	78.47
798.758	88.08
798.934	90.82
799.109	90.93
799.285	87.48
799.46	85.02
799.636	79.79
799.811	77.16
799.986	74.17
800.162	73.27
800.337	75.73
800.513	74.13
800.688	74.69
800.863	81.13
801.039	74.29
801.214	70.13
801.389	72.89
801.565	74.53
801.74	64.38
801.915	73.38
802.09	76.68
802.265	80.69
802.441	75.88
802.616	83.46
802.791	83.48
802.966	80.93
803.141	79.94
803.316	78.94
803.491	78.7
803.666	83.53
803.841	85.89
804.016	82.06
804.191	87.34
804.366	80.61
804.541	68.26
804.716	65.76
804.891	61.87
805.066	59.8
805.241	59.29
805.416	60.6
805.591	58.93
805.765	63.35
805.94	65.87
806.115	67.26
806.29	65.04
806.464	63.83
806.639	58.02
806.814	51.1
806.989	45.89
807.163	55.29
807.338	60.39
807.512	60.41
807.687	52.43
807.862	65.24
808.036	60.81
808.211	67.64
808.385	80.46
808.56	91.33
808.734	103.61
808.909	102.73
809.083	94.68
809.258	90.56
809.432	100.01
809.606	77.48
809.781	73.6
809.955	76.15
810.13	73.62
810.304	60.38
810.478	62.52
810.652	73.29
810.827	70.26
811.001	66.42
811.175	64.62
811.349	61.44
811.524	51.94
811.698	38.28
811.872	39.95
812.046	48.38
812.22	54.61
812.394	55.34
812.568	69.47
812.742	74.78
812.916	71.48
813.09	70.45
813.264	75.58
813.438	72.03
813.612	60.46
813.786	56.42
813.96	61.91
814.134	62.41
814.308	64.96
814.482	72.64
814.656	68.77
814.83	72.24
815.003	69.23
815.177	67.49
815.351	67.46
815.525	78.01
815.698	71.04
815.872	71
816.046	65.83
816.219	64.75
816.393	66.98
816.567	73.85
816.74	79.1
816.914	82.19
817.088	82.46
817.261	70.01
817.435	54.61
817.608	47.4
817.782	45.38
817.955	52.11
818.129	55.48
818.302	62.65
818.475	76.4
818.649	73.5
818.822	60.47
818.996	73.35
819.169	75.15
819.342	63.81
819.516	72.15
819.689	83.13
819.862	72.96
820.035	69.03
820.209	63.59
820.382	62.72
820.555	58.72
820.728	45.42
820.901	40.43
821.075	43.84
821.248	50.65
821.421	44.97
821.594	62.2
821.767	75.49
821.94	83.2
822.113	61.01
822.286	65.79
822.459	61.43
822.632	52.92
822.805	40.38
822.978	40.1
823.151	42.82
823.324	39.77
823.496	25.18
823.669	32.57
823.842	47.92
824.015	36.3
824.188	38.14
824.361	63.42
824.533	61.09
824.706	53.11
824.879	47.31
825.051	55.76
825.224	54.45
825.397	44.92
825.569	39.53
825.742	59.5
825.915	67.36
826.087	73.22
826.26	56.48
826.432	52.83
826.605	49.78
826.777	51.97
826.95	48.45
827.122	44.71
827.295	38
827.467	37.71
827.64	6.21
827.812	-0.21
827.984	11.9
828.157	25.52
828.329	-5.66
828.501	7.89
828.674	39.94
828.846	43.13
829.018	56.46
829.19	53.57
829.363	67.28
829.535	53.61
829.707	56.59
829.879	23.05
830.051	35.61
830.223	16.31
830.395	-7.62
830.568	-17.42
830.74	0.97
830.912	16.97
831.084	13.65
831.256	18.09
831.428	7.32
831.6	-5.18
831.772	-34.62
831.943	-46.45
832.115	-21.55
832.287	9.66
832.459	19.87
832.631	37.15
832.803	74.53
832.975	91.22
833.146	76.29
833.318	78.94
833.49	80.49
833.662	33.53
833.833	4.56
834.005	14.43
834.177	24.88
834.348	22.25
834.52	23.35
834.692	50.74
834.863	34.65
835.035	20.37
835.206	-11.65
835.378	11.33
835.549	-10.36
835.721	4.86
835.892	11.44
836.064	21.35
836.235	41.18
836.407	82.28
836.578	58.16
836.749	23.64
836.921	-19.2
837.092	-69.04
837.264	-77.92
837.435	-72.86
837.606	-16.6
837.777	16.93
837.949	27.37
838.12	39.51
838.291	50.19
838.462	54.1
838.633	30.7
838.805	17.34
838.976	13.58
839.147	-51.64
839.318	-85.58
839.489	-128.31
839.66	-99.5
839.831	-51.8
840.002	-17.48
840.173	0.57
840.344	67.16
840.515	98
840.686	46.55
840.857	49.66
841.028	-5.81
841.199	-40.79
841.369	-46.14
841.54	-37.99
841.711	-20.12
841.882	1.84
842.053	11.06
842.223	12.21
842.394	29.99
842.565	43.38
842.736	43.62
842.906	39.69
843.077	45.58
843.248	70.49
843.418	78.61
843.589	87.42
843.759	167.93
843.93	148.82
844.101	59.18
844.271	48.62
844.442	48.26
844.612	55.24
844.783	33.5
844.953	11.86
845.123	6.84
845.294	-16.42
845.464	-202.61
845.635	-110.7
845.805	-5.32
845.975	-21.24
846.146	-57.62
846.316	-47.32
846.486	-14.56
846.656	0.44
846.827	-0.38
846.997	12.56
847.167	24.95
847.337	11.32
847.507	-17.65
847.677	4.67
847.848	42.26
848.018	42.24
848.188	47.66
848.358	36.37
848.528	13.97
848.698	-37.53
848.868	-132.1
849.038	-234.61
849.208	-100.21
849.378	-47.46
849.548	-16.66
849.718	9.68
849.887	25.4
850.057	-1.19
850.227	-43.46
850.397	-60.02
850.567	-195.24
850.737	-480.33
850.906	-1065.94
851.076	-722.46
851.246	-418.19
851.415	-28.33
851.585	1.7
851.755	9.5
851.924	45.4
852.094	75
852.264	92.75
852.433	-191.11
852.603	-12.81
852.772	100.09
852.942	33.27
853.111	2.92
853.281	22.75
853.45	27.58
853.62	-37.55
853.789	-35.64
853.959	-39.65
854.128	-25.75
854.297	-66.34
854.467	-69.84
854.636	-64.54
854.805	-14.57
854.975	-29.23
855.144	-13.36
855.313	79.2
855.482	-217.34
855.652	-161.88
855.821	-117.08
855.99	-4.19
856.159	16.74
856.328	24.13
856.497	16.57
856.667	27.06
856.836	20.06
857.005	-5.59
857.174	-20.73
857.343	-0.99
857.512	44.56
857.681	20.56
857.85	-3.31
858.019	36.01
858.188	18.7
858.356	-32.75
858.525	-62.71
858.694	-23.11
858.863	-128.55
859.032	-88.88
859.201	-49.18
859.369	-19.32
859.538	-44.84
859.707	-28.73
859.876	-66.19
860.044	-74.17
860.213	15.05
860.382	20.32
860.55	9.83
860.719	50.21
860.888	51.49
861.056	-6.85
861.225	-7.22
861.393	50.46
861.562	65.18
861.73	19.19
861.899	117.41
862.067	-178.45
862.236	26.13
862.404	-113.47
862.572	-21.75
862.741	48.17
862.909	21.03
863.078	-50.47
863.246	-24.15
863.414	-37.56
863.582	-53.53
863.751	-48.2
863.919	-57.04
864.087	-43.07
864.255	-58.46
864.424	-327.79
864.592	-54.21
864.76	-96.45
864.928	-60.6
865.096	-75.72
865.264	-23.65
865.432	-867.61
865.6	-6.37
865.768	-92.73
865.936	-86.67
866.104	-121.77
866.272	-138.05
866.44	-329.82
866.608	592.26
866.776	296.12
866.944	1948.26
867.112	-332.1
867.28	-115.43
867.448	-33.34
867.615	21.52
867.783	-12.05
867.951	-45.39
868.119	-28.64
868.286	-59.47
868.454	-175.43
868.622	-85.38
868.789	24.53
868.957	-2019.64
869.125	-1454.61
869.292	-76.11
869.46	-180.23
869.627	-7.48
869.795	20.76
869.963	38.09
870.13	50.11
870.298	61.92
870.465	-7.17
870.632	-40.28
870.8	-10.09
870.967	-62.71
871.135	-117.09
871.302	-104.95
871.469	-114.99
871.637	-211.65
871.804	-82.88
871.971	-70.11
872.139	-248.72
872.306	25.53
872.473	-23.66
872.64	-232.08
872.807	-170.7
872.975	-18.86
873.142	-277.36
873.309	1842.57
873.476	11.61
873.643	37.8
873.81	-11.15
873.977	37.23
874.144	44.45
874.311	-63
874.478	-70.81
874.645	-94.59
874.812	-73.05
874.979	-54.93
875.146	-72.92
875.313	-65.91
875.48	24.46
875.647	9.22
875.813	-9.45
875.98	16.96
876.147	-11.91
876.314	-73.44
876.481	717.15
876.647	-1049.16
876.814	438.73
876.981	-37.21
877.147	-0.13
877.314	20.74
877.481	74.66
877.647	64.71
877.814	49.97
877.98	19.25
878.147	47.66
878.314	59.64
878.48	55.85
878.647	61.21
878.813	86.8
878.979	65.63
879.146	17.01
879.312	0.83
879.479	-59.43
879.645	-189.73
879.811	-364.59
879.978	-595.99
880.144	-109.76
880.31	-22.11
880.477	-67.71
880.643	-49.91
880.809	-8.4
880.975	-25.63
881.142	-521.59
881.308	-59.91
881.474	-7.38
881.64	-22.28
881.806	-67
881.972	-0.1
882.138	41.7
882.304	63.76
882.47	-86.94
882.636	-472.75
882.802	-81.45
882.968	4.08
883.134	-2.81
883.3	15.42
883.466	31.43
883.632	47.84
883.798	2.6
883.964	-0.72
884.129	10.45
884.295	86.18
884.461	-5.36
884.627	15.91
884.793	-21.38
884.958	-16.6
885.124	-115.23
885.29	-161.83
885.455	-282.89
885.621	-28.91
885.787	-54.95
885.952	-27.73
886.118	-24.02
886.283	-9
886.449	-64.7
886.614	-77.28
886.78	-202.21
886.945	1176.64
887.111	-640.32
887.276	-672.02
887.442	-1067.05
887.607	-354.13
887.773	-47.05
887.938	-17.43
888.103	25.77
888.269	164.23
888.434	254.19
888.599	37.5
888.764	81.3
888.93	44.79
889.095	3.56
889.26	-36.81
889.425	-15.93
889.59	-34.08
889.756	-70.85
889.921	-61.54
890.086	-34.59
890.251	-14.18
890.416	-167.68
890.581	-1162.5
890.746	174.91
890.911	212.58
891.076	115.18
891.241	-172.95
891.406	39.38
891.571	23.28
891.736	-170.99
891.901	-459.96
892.065	221.7
892.23	79.89
892.395	139.29
892.56	210.04
892.725	13.48
892.889	-345.73
893.054	-48.5
893.219	-5.96
893.384	30.02
893.548	-57.84
893.713	-75.11
893.878	-59.23
