Data from Ofra_PS_T2_1A_4HS15_Reflection_3.txt Node
Date: Wed Jul 21 18:07:19 EDT 2021
User: Adam
Spectrometer: FLMT01687
Trigger mode: 0
Integration Time (sec): 1.100000E0
Scans to average: 2
Electric dark correction enabled: true
Nonlinearity correction enabled: false
Boxcar width: 2
XAxis mode: Wavelengths
Number of Pixels in Spectrum: 3648
>>>>>Begin Spectral Data<<<<<
179.494	631
179.716	704.94
179.937	620.92
180.158	583.94
180.38	769.84
180.601	262.85
180.823	48.02
181.044	-78.79
181.265	93.93
181.486	121.11
181.708	83.55
181.929	383.16
182.15	-471.48
182.372	89.61
182.593	63.15
182.814	15.19
183.035	48.74
183.257	60.7
183.478	-35.48
183.699	6.44
183.92	-22.02
184.141	-51.07
184.363	-112.77
184.584	-21.32
184.805	-7.88
185.026	34.67
185.247	64.01
185.468	44.96
185.689	27.61
185.91	32.64
186.132	25.21
186.353	9.29
186.574	73.35
186.795	72.26
187.016	28.74
187.237	14.7
187.458	-3.09
187.679	-35.36
187.9	-23.53
188.121	-11.56
188.342	35.03
188.563	71.65
188.784	134.26
189.005	127.82
189.226	164.82
189.447	141.09
189.667	80.7
189.888	-256.53
190.109	-886.69
190.33	-463.71
190.551	-1058.19
190.772	-160.23
190.993	-132.16
191.214	-166.1
191.434	-109.11
191.655	-9.05
191.876	-77.58
192.097	-114.12
192.318	-128.84
192.538	-188.78
192.759	-190.97
192.98	-116.41
193.201	-35.33
193.421	-21.96
193.642	-5.05
193.863	9.57
194.083	5.35
194.304	-15.46
194.525	-11.51
194.745	-28.79
194.966	-57.89
195.187	-52.54
195.407	-68.05
195.628	-130.1
195.848	-130.6
196.069	-116.58
196.29	-80.66
196.51	-114.99
196.731	-84.94
196.951	-111.66
197.172	-120.14
197.392	-133.59
197.613	-88.26
197.833	-118.67
198.054	-90.47
198.274	-36.05
198.495	-67.76
198.715	-31.05
198.936	-39.87
199.156	-35.39
199.377	-158.38
199.597	-147.48
199.817	-185.59
200.038	-107.11
200.258	-149.24
200.479	-41.66
200.699	6.05
200.919	75.55
201.14	28.55
201.36	1.52
201.58	25.2
201.801	33.05
202.021	4.26
202.241	16.93
202.461	23.41
202.682	-63.4
202.902	-93.98
203.122	-64.51
203.342	-58.49
203.563	-28.83
203.783	16.32
204.003	-11.97
204.223	-21.93
204.443	49.9
204.663	49.05
204.884	49.19
205.104	95.98
205.324	129.29
205.544	102.77
205.764	96.84
205.984	80.95
206.204	57.4
206.424	43.4
206.644	0.91
206.864	-4.91
207.084	-62.57
207.304	-22.83
207.525	-117.73
207.745	-41.98
207.964	12.76
208.184	-23.88
208.404	-73.13
208.624	-70.17
208.844	-62.99
209.064	-385.43
209.284	-378.17
209.504	-188.32
209.724	-51.54
209.944	-46.94
210.164	11.11
210.384	17.75
210.604	8.5
210.823	-25.24
211.043	-46.77
211.263	-46.48
211.483	-35.58
211.703	-79.96
211.922	-68.08
212.142	4.75
212.362	28.47
212.582	13.53
212.801	12.85
213.021	2.23
213.241	-20.97
213.461	-60.39
213.68	-80.3
213.9	-44.19
214.12	-28.71
214.339	-76.25
214.559	-50.9
214.779	3.65
214.998	-1.7
215.218	-39.68
215.438	0.61
215.657	-1.55
215.877	-33.99
216.096	-2.77
216.316	9.38
216.535	8.54
216.755	30.57
216.974	-8.53
217.194	-52.29
217.413	-67.11
217.633	-84.5
217.852	-258.3
218.072	-97.29
218.291	-61.09
218.511	-24.98
218.73	-35.18
218.95	-22.84
219.169	-26.26
219.389	-49.44
219.608	-40.5
219.827	-33.82
220.047	-4.5
220.266	1.05
220.485	-13.93
220.705	4.69
220.924	-11.53
221.143	10.37
221.363	-5.78
221.582	5.86
221.801	10.95
222.021	21.81
222.24	-28.74
222.459	33.78
222.678	28.1
222.897	-41.57
223.117	-96.89
223.336	-61.04
223.555	-61.57
223.774	-18.38
223.993	-10.56
224.213	66.22
224.432	35.31
224.651	45.42
224.87	7.13
225.089	24.66
225.308	5.86
225.527	26.38
225.746	31.83
225.965	48.5
226.184	26.35
226.404	28.01
226.623	-1.26
226.842	2.1
227.061	4.83
227.28	24.16
227.499	13.25
227.718	38.43
227.936	11.8
228.155	28.47
228.374	-7.56
228.593	6.33
228.812	-20.62
229.031	-8.48
229.25	-50.28
229.469	-41.7
229.688	-38.35
229.907	4.21
230.125	2.63
230.344	1.93
230.563	18.31
230.782	16.2
231.001	-67.57
231.22	-32.56
231.438	6.32
231.657	-5.94
231.876	-1.73
232.095	45.7
232.313	32.42
232.532	18.34
232.751	-4.52
232.969	-15.37
233.188	-79.92
233.407	-13.81
233.625	-12.81
233.844	-29.2
234.063	-21.58
234.281	-13.92
234.5	-34.62
234.719	-24.51
234.937	0.59
235.156	4.52
235.374	18.22
235.593	15.67
235.811	-6.41
236.03	-23.72
236.249	-52.5
236.467	-44.56
236.686	-4.13
236.904	15.61
237.123	8.91
237.341	4.46
237.559	13.95
237.778	0.43
237.996	-20.26
238.215	5.04
238.433	14.04
238.652	1.34
238.87	-14.35
239.088	14.76
239.307	12.38
239.525	19.51
239.743	-12.72
239.962	10.71
240.18	-30.58
240.398	-64.29
240.617	-63.87
240.835	-31.1
241.053	-11.32
241.271	47.16
241.49	54.7
241.708	40.85
241.926	-0.22
242.144	-12.54
242.363	-66.99
242.581	-65.1
242.799	-52.64
243.017	-19.37
243.235	-43.54
243.453	-28.27
243.672	-38.44
243.89	-22.81
244.108	-25.03
244.326	10.23
244.544	6.39
244.762	3.35
244.98	11.85
245.198	17.94
245.416	-32.29
245.634	-26.6
245.852	-43.34
246.07	-65.71
246.288	-52.22
246.506	-55.55
246.724	-41.95
246.942	-12.98
247.16	28.37
247.378	27
247.596	40.95
247.814	29.63
248.032	-1.03
248.25	-33.04
248.468	-15.57
248.685	-6.18
248.903	28.26
249.121	31.59
249.339	14.29
249.557	-9.49
249.775	0.93
249.992	-57.4
250.21	-49.46
250.428	-25.45
250.646	-43.48
250.863	-66.34
251.081	-29.5
251.299	-1.46
251.517	0.12
251.734	3.3
251.952	-7.38
252.17	-13.94
252.387	-5.73
252.605	-7.74
252.823	6.61
253.04	33.01
253.258	47.45
253.475	36.56
253.693	51.74
253.911	51.79
254.128	43.67
254.346	46.21
254.563	28.9
254.781	1.55
254.998	-25.84
255.216	-32.38
255.433	-37.13
255.651	5.71
255.868	27.94
256.086	57.05
256.303	49.56
256.521	36.64
256.738	4.11
256.956	-22.01
257.173	-49.83
257.39	-51.02
257.608	-77.48
257.825	-21.29
258.043	13.54
258.26	26.91
258.477	44.09
258.695	48.07
258.912	19.47
259.129	13.34
259.346	-34.27
259.564	-72.88
259.781	-94.78
259.998	-52.04
260.216	-17.58
260.433	35.44
260.65	42.17
260.867	65.9
261.084	31.53
261.302	-5.95
261.519	-36.43
261.736	-67.61
261.953	-85.35
262.17	-31.97
262.387	-71.42
262.604	-105.15
262.822	-100.26
263.039	-101.78
263.256	-156.95
263.473	-96.9
263.69	-35.2
263.907	7.63
264.124	18.56
264.341	13.25
264.558	6.76
264.775	14.81
264.992	1.1
265.209	7.68
265.426	32.27
265.643	36.03
265.86	37.65
266.077	39.55
266.294	25
266.51	-9.27
266.727	-20.21
266.944	-22.54
267.161	-19.76
267.378	-10.1
267.595	0.69
267.812	-21.4
268.028	-46.83
268.245	-25.24
268.462	-44.91
268.679	-18.09
268.896	37.74
269.112	43.25
269.329	29.45
269.546	43.28
269.763	29.36
269.979	12.52
270.196	10.3
270.413	-15.87
270.629	-32.85
270.846	-44.21
271.063	-40.11
271.279	-52.42
271.496	-25.36
271.712	11.52
271.929	30.27
272.146	11.02
272.362	28.2
272.579	53.76
272.795	53.41
273.012	52.94
273.228	67.11
273.445	54.96
273.661	27.18
273.878	-17.58
274.094	-22.4
274.311	-49.81
274.527	-0.5
274.744	-1.25
274.96	-4.29
275.177	8.32
275.393	30.55
275.609	17.41
275.826	30.88
276.042	25.77
276.259	2.04
276.475	11.73
276.691	28.27
276.908	12.73
277.124	33.87
277.34	53.59
277.557	24.48
277.773	2.28
277.989	0.75
278.205	-6.18
278.422	-1.43
278.638	17.95
278.854	35.37
279.07	39.09
279.286	25.24
279.503	14.42
279.719	8.06
279.935	-17.22
280.151	-24.61
280.367	9.72
280.583	-28.73
280.799	-23.31
281.016	-48.77
281.232	-18.93
281.448	-31.19
281.664	5.92
281.88	-24.74
282.096	-11.58
282.312	19.52
282.528	35.35
282.744	47.57
282.96	46.9
283.176	40.46
283.392	16.14
283.608	2.24
283.824	-8.11
284.04	2.43
284.256	16.89
284.471	4.05
284.687	-9.43
284.903	9.93
285.119	33.9
285.335	11.68
285.551	40.03
285.767	25.05
285.982	-3.56
286.198	-36.18
286.414	4.33
286.63	0.9
286.846	38.11
287.061	14.9
287.277	36.73
287.493	15.65
287.709	17.67
287.924	0.57
288.14	44.77
288.356	42.96
288.571	52.69
288.787	37.47
289.003	35.21
289.218	17.23
289.434	-12.03
289.65	14.55
289.865	21.89
290.081	36.28
290.296	35.09
290.512	22.01
290.727	-43.42
290.943	-53.5
291.159	-59.24
291.374	-57.38
291.59	-69.93
291.805	-50.29
292.021	-35.6
292.236	-35.52
292.451	-25.77
292.667	-10.43
292.882	18.55
293.098	3.83
293.313	-7.57
293.529	-34.2
293.744	-53.7
293.959	-52.78
294.175	-27.47
294.39	4.91
294.605	18.32
294.821	41.81
295.036	36.58
295.251	29.69
295.467	-9.11
295.682	-13.29
295.897	-69.62
296.112	-71.33
296.328	-59.21
296.543	-68.76
296.758	-71.39
296.973	-18.68
297.188	14.81
297.404	-12.77
297.619	-11.69
297.834	-13.83
298.049	-48.8
298.264	-73.54
298.479	-6.56
298.694	6.42
298.909	24.02
299.125	30.99
299.34	33
299.555	-5.53
299.77	17.69
299.985	-33.99
300.2	-63.99
300.415	-62.9
300.63	-30.38
300.845	-55.54
301.06	-51.7
301.275	-17.53
301.49	-13.72
301.704	-21.01
301.919	-27.73
302.134	-33.99
302.349	-38.78
302.564	-107.79
302.779	-153.15
302.994	-136.64
303.209	-67.83
303.423	-50.6
303.638	27.73
303.853	19.94
304.068	14.16
304.283	-0.76
304.497	-0.81
304.712	-13.67
304.927	-1.54
305.142	-6.96
305.356	7.96
305.571	-3.49
305.786	-14.22
306	-58.1
306.215	-56.71
306.43	-74.2
306.644	-64.14
306.859	-20.14
307.074	23.83
307.288	3.4
307.503	3.68
307.717	-14.92
307.932	-27.07
308.147	-25.16
308.361	-13.11
308.576	-15.12
308.79	-40.36
309.005	-40.28
309.219	-33.65
309.434	-26.33
309.648	-31.38
309.863	-11.58
310.077	-3.63
310.292	-1.73
310.506	-2.69
310.72	14.73
310.935	19.82
311.149	14.62
311.364	25.6
311.578	27.73
311.792	12.81
312.007	22.39
312.221	11.16
312.435	12.53
312.649	5.09
312.864	42.61
313.078	49.12
313.292	84.81
313.507	51.96
313.721	86.87
313.935	44.32
314.149	34.39
314.363	36.29
314.578	44.13
314.792	25.07
315.006	-3.97
315.22	17.96
315.434	12
315.648	15.52
315.862	18.48
316.077	30.56
316.291	-3.8
316.505	9.55
316.719	-0.51
316.933	-5.71
317.147	-10.49
317.361	-54.13
317.575	-74.28
317.789	-108.11
318.003	-187.1
318.217	-138.76
318.431	-28.38
318.645	12.49
318.859	19.7
319.073	57.48
319.287	42.29
319.5	14.91
319.714	-21.8
319.928	-43.45
320.142	-79.13
320.356	-30.05
320.57	0.37
320.784	-17.9
320.997	-19.61
321.211	-8.09
321.425	-51.28
321.639	-94.2
321.853	-45.25
322.066	-26.87
322.28	-30.6
322.494	-32.13
322.707	3.26
322.921	-1.15
323.135	3.84
323.349	16.03
323.562	-2.53
323.776	-24.91
323.989	-14.46
324.203	-32.02
324.417	-50.25
324.63	-56.11
324.844	-61.56
325.057	-61.46
325.271	-35.41
325.485	4.36
325.698	29.94
325.912	54.07
326.125	33.05
326.339	18.23
326.552	-6.07
326.766	-1.68
326.979	-3.98
327.193	34.12
327.406	26.9
327.619	21.47
327.833	39.12
328.046	5.62
328.26	-22.92
328.473	13.15
328.686	-18.89
328.9	-25.24
329.113	19.7
329.326	-5.86
329.54	-11.58
329.753	-1.6
329.966	-30.34
330.179	-37.15
330.393	-3.23
330.606	-1.49
330.819	22.84
331.032	33.6
331.246	22.86
331.459	47.66
331.672	30.66
331.885	19.96
332.098	-6.47
332.311	8.26
332.525	-48.45
332.738	3.37
332.951	18.62
333.164	52.38
333.377	49.46
333.59	61.82
333.803	49.86
334.016	37.19
334.229	22.61
334.442	28.45
334.655	29.6
334.868	38.1
335.081	44.4
335.294	29.68
335.507	15.72
335.72	9.2
335.933	-12.39
336.146	-36.83
336.359	-39.94
336.572	-65
336.785	-93.49
336.997	-88.51
337.21	-40.58
337.423	-35.49
337.636	-22.26
337.849	6.25
338.062	10.27
338.274	3.58
338.487	8.71
338.7	3.1
338.913	-35.95
339.125	-63.75
339.338	-111.87
339.551	-115.25
339.763	-65.2
339.976	-31.92
340.189	-14.3
340.402	-4.67
340.614	-13.93
340.827	-17.04
341.039	-36.86
341.252	-13.79
341.465	2.89
341.677	9.91
341.89	-19.21
342.102	8.41
342.315	-10.02
342.527	-48.29
342.74	-34.02
342.952	3.57
343.165	-2.63
343.377	11.54
343.59	15.36
343.802	21.05
344.015	10.16
344.227	12.89
344.44	5.56
344.652	13.47
344.864	12.47
345.077	37.62
345.289	39.2
345.502	47.27
345.714	42.18
345.926	39.31
346.139	18.17
346.351	33.54
346.563	38.63
346.775	51.23
346.988	43.78
347.2	45.27
347.412	-7.39
347.624	-28.77
347.837	-55.35
348.049	-39.36
348.261	-9.55
348.473	20.2
348.685	17.63
348.897	17.36
349.11	6.07
349.322	-13.28
349.534	-22.4
349.746	-26.62
349.958	-33.71
350.17	-22.75
350.382	2.67
350.594	-1.84
350.806	18.19
351.018	33.77
351.23	18.64
351.442	-35.36
351.654	-36.21
351.866	-45.89
352.078	-52.8
352.29	-26.88
352.502	-8.08
352.714	8.64
352.926	-2.26
353.138	-3.06
353.35	-10.66
353.561	-7.74
353.773	-29.63
353.985	-12.47
354.197	-19.27
354.409	-19.81
354.621	-21.71
354.832	-14.12
355.044	-17.92
355.256	-14.29
355.468	3.49
355.679	-0.07
355.891	3.54
356.103	-12.54
356.314	1.73
356.526	3.88
356.738	19.4
356.949	20.18
357.161	39.53
357.373	21.66
357.584	9.77
357.796	13.19
358.008	4.84
358.219	15.87
358.431	17.58
358.642	20.72
358.854	19.5
359.065	15.74
359.277	-34.36
359.488	-39.48
359.7	-65.42
359.911	-88.11
360.123	-53.46
360.334	-53.88
360.546	-66.56
360.757	-55.03
360.969	-34.25
361.18	-24.98
361.391	7.02
361.603	3.31
361.814	23.94
362.025	18.26
362.237	4.67
362.448	15.46
362.659	24.35
362.871	18.17
363.082	14.88
363.293	3.17
363.504	-15.02
363.716	-40.88
363.927	-57.41
364.138	-73.11
364.349	-68.9
364.56	-65.52
364.772	-51.22
364.983	-26.09
365.194	-19.93
365.405	0.72
365.616	28.67
365.827	36.94
366.038	19.17
366.25	27.07
366.461	7.64
366.672	14.93
366.883	23.73
367.094	36.47
367.305	21.34
367.516	21.12
367.727	-0.9
367.938	-16.51
368.149	-34.27
368.36	-29.76
368.571	-21.64
368.781	-37.35
368.992	-48.65
369.203	-56.5
369.414	-65.99
369.625	-89.23
369.836	-85.79
370.047	-109.15
370.258	-85.91
370.468	-76.61
370.679	-78.53
370.89	-68.73
371.101	-31.88
371.312	-39
371.522	-28.1
371.733	-11.32
371.944	9.43
372.155	4.19
372.365	-0.08
372.576	0.45
372.787	-12.64
372.997	-48.65
373.208	-35.9
373.419	-6.14
373.629	-36.93
373.84	-25.27
374.05	-19.26
374.261	-17.68
374.472	-42.41
374.682	4.09
374.893	15.14
375.103	40.22
375.314	32.96
375.524	36.53
375.735	35.29
375.945	25.27
376.156	1.36
376.366	2.57
376.577	0.39
376.787	-10.99
376.997	-2.34
377.208	-1.11
377.418	-16.56
377.629	-8.11
377.839	-14.63
378.049	-13.22
378.26	2.88
378.47	17.03
378.68	15.62
378.89	14.06
379.101	12.48
379.311	-18.96
379.521	-43.51
379.732	-48.22
379.942	-39.76
380.152	-53.94
380.362	-17.29
380.572	-17.63
380.783	-7.5
380.993	-3.16
381.203	5.55
381.413	10.69
381.623	22.88
381.833	17.72
382.043	12.16
382.253	0.57
382.463	0.13
382.674	-7.19
382.884	-29.03
383.094	-24.84
383.304	-17.85
383.514	-19.21
383.724	-5.28
383.934	-3.49
384.144	-13.74
384.353	-14.98
384.563	-15.72
384.773	-15.96
384.983	-17.74
385.193	-0.7
385.403	1.11
385.613	-0.65
385.823	-19.3
386.033	-8.74
386.242	-13.07
386.452	-16.11
386.662	-25.72
386.872	-5.3
387.082	-8.55
387.291	-18.62
387.501	-15.11
387.711	-1.87
387.921	-11.81
388.13	-11.93
388.34	2.39
388.55	-1.97
388.759	-4.03
388.969	4.48
389.179	3.14
389.388	-0.54
389.598	4.04
389.807	-1.38
390.017	-8.79
390.227	-5.34
390.436	-6.41
390.646	-8.44
390.855	-4.59
391.065	-4.21
391.274	-5.87
391.484	-7.35
391.693	-1.89
391.903	0.64
392.112	5.94
392.322	8.17
392.531	13.38
392.74	12.97
392.95	7.16
393.159	5.49
393.369	5.11
393.578	3.89
393.787	1.65
393.997	4.36
394.206	2.59
394.415	2.07
394.625	0.17
394.834	0.35
395.043	2.18
395.252	4.09
395.462	6.32
395.671	8.45
395.88	8.34
396.089	8.45
396.298	7.45
396.508	6.34
396.717	5.35
396.926	6.11
397.135	5.06
397.344	4.79
397.553	5.42
397.762	6.79
397.971	6.62
398.181	6.72
398.39	6.5
398.599	6.01
398.808	5.05
399.017	5.82
399.226	6.88
399.435	7.86
399.644	8.15
399.853	7.8
400.062	6.8
400.27	6.46
400.479	5.88
400.688	5.24
400.897	5.49
401.106	5.9
401.315	5.54
401.524	5.68
401.733	6.18
401.941	6.72
402.15	6.42
402.359	6.29
402.568	6.7
402.777	6.69
402.985	6.31
403.194	6.27
403.403	6.42
403.612	5.83
403.82	5.7
404.029	5.81
404.238	5.68
404.446	5.86
404.655	5.79
404.864	5.78
405.072	5.53
405.281	5.85
405.489	5.61
405.698	5.64
405.906	5.64
406.115	5.65
406.324	5.57
406.532	5.75
406.741	6.06
406.949	6.02
407.158	5.99
407.366	5.84
407.574	5.71
407.783	5.6
407.991	5.41
408.2	5.55
408.408	5.59
408.617	5.46
408.825	5.25
409.033	5.39
409.242	5.44
409.45	5.39
409.658	5.47
409.867	5.63
410.075	5.55
410.283	5.29
410.491	5.24
410.7	5.21
410.908	5.22
411.116	5.58
411.324	5.65
411.533	5.7
411.741	5.82
411.949	5.74
412.157	5.29
412.365	5.4
412.573	5.44
412.781	5.44
412.99	5.34
413.198	5.55
413.406	5.5
413.614	5.57
413.822	5.3
414.03	5.37
414.238	5.17
414.446	5.13
414.654	4.69
414.862	4.88
415.07	4.92
415.278	5.04
415.486	4.98
415.694	5.24
415.902	5.07
416.109	4.8
416.317	4.73
416.525	4.47
416.733	4.46
416.941	4.69
417.149	4.7
417.357	4.75
417.564	5.05
417.772	5.25
417.98	4.95
418.188	5.12
418.395	5.2
418.603	5.37
418.811	4.86
419.019	4.87
419.226	4.99
419.434	4.99
419.642	4.7
419.849	5
420.057	4.98
420.265	4.79
420.472	4.46
420.68	4.58
420.887	4.43
421.095	4.55
421.302	4.61
421.51	4.9
421.717	4.95
421.925	5.03
422.132	4.97
422.34	4.72
422.547	4.7
422.755	4.46
422.962	4.39
423.17	4.31
423.377	4.48
423.585	4.5
423.792	4.4
423.999	4.5
424.207	4.53
424.414	4.65
424.621	4.6
424.829	4.6
425.036	4.58
425.243	4.64
425.451	4.46
425.658	4.21
425.865	4.49
426.072	4.54
426.28	4.77
426.487	4.75
426.694	5
426.901	4.81
427.108	4.71
427.315	4.59
427.523	4.87
427.73	4.77
427.937	4.72
428.144	4.64
428.351	4.49
428.558	4.53
428.765	4.47
428.972	4.46
429.179	4.59
429.386	5.03
429.593	4.77
429.8	4.71
430.007	4.81
430.214	4.89
430.421	4.6
430.628	4.44
430.835	4.53
431.042	4.81
431.249	4.86
431.456	4.76
431.662	4.97
431.869	5.12
432.076	5.01
432.283	5.14
432.49	5.29
432.697	5.34
432.903	5.12
433.11	5.19
433.317	5.17
433.524	5.31
433.73	5.19
433.937	5.43
434.144	5.32
434.35	5.32
434.557	5.13
434.764	5.21
434.97	5.09
435.177	5.23
435.384	5.12
435.59	5.26
435.797	5.45
436.003	5.62
436.21	5.5
436.416	5.59
436.623	5.41
436.829	5.33
437.036	5.36
437.242	5.44
437.449	5.44
437.655	5.57
437.862	5.6
438.068	5.54
438.275	5.56
438.481	5.86
438.687	5.84
438.894	5.89
439.1	5.9
439.307	6.06
439.513	5.87
439.719	5.82
439.926	5.84
440.132	5.9
440.338	5.68
440.544	5.76
440.751	5.81
440.957	5.89
441.163	5.81
441.369	6.01
441.575	5.85
441.782	5.84
441.988	5.6
442.194	5.64
442.4	5.6
442.606	5.91
442.812	6.03
443.018	6.16
443.224	6.19
443.431	6.18
443.637	5.89
443.843	5.79
444.049	5.81
444.255	5.78
444.461	5.87
444.667	5.81
444.873	5.91
445.079	5.87
445.284	6.02
445.49	5.79
445.696	5.75
445.902	5.71
446.108	5.72
446.314	5.54
446.52	5.74
446.726	5.99
446.931	6
447.137	6.15
447.343	6.2
447.549	6.09
447.755	6
447.96	6.02
448.166	5.86
448.372	5.88
448.578	5.97
448.783	5.89
448.989	5.97
449.195	6.3
449.4	6.41
449.606	6.4
449.812	6.45
450.017	6.44
450.223	6.22
450.428	6.08
450.634	6.15
450.84	6.29
451.045	6.27
451.251	6.21
451.456	6.53
451.662	6.52
451.867	6.54
452.073	6.56
452.278	6.73
452.483	6.67
452.689	6.57
452.894	6.57
453.1	6.48
453.305	6.43
453.51	6.36
453.716	6.43
453.921	6.38
454.127	6.41
454.332	6.39
454.537	6.35
454.742	6.37
454.948	6.51
455.153	6.58
455.358	6.69
455.563	6.86
455.769	6.99
455.974	6.87
456.179	6.84
456.384	6.76
456.589	6.62
456.795	6.42
457	6.41
457.205	6.6
457.41	6.56
457.615	6.62
457.82	6.77
458.025	6.78
458.23	6.68
458.435	6.77
458.64	6.76
458.845	6.92
459.05	6.95
459.255	6.91
459.46	6.93
459.665	6.98
459.87	6.89
460.075	6.91
460.28	6.99
460.485	7.03
460.69	7.01
460.895	6.83
461.099	6.82
461.304	6.93
461.509	6.94
461.714	6.89
461.919	7.05
462.123	6.9
462.328	6.99
462.533	6.9
462.738	6.97
462.942	6.95
463.147	7.2
463.352	7.15
463.556	7.23
463.761	7.29
463.966	7.19
464.17	7.12
464.375	6.98
464.58	6.94
464.784	6.83
464.989	6.81
465.193	6.87
465.398	6.93
465.602	7.02
465.807	7.08
466.011	7.27
466.216	7.38
466.42	7.44
466.625	7.49
466.829	7.55
467.034	7.6
467.238	7.65
467.443	7.68
467.647	7.65
467.851	7.72
468.056	7.81
468.26	7.73
468.464	7.66
468.669	7.76
468.873	7.84
469.077	7.64
469.282	7.73
469.486	7.79
469.69	7.77
469.894	7.62
470.099	7.8
470.303	7.88
470.507	7.89
470.711	7.88
470.915	7.92
471.119	7.87
471.324	7.78
471.528	7.75
471.732	7.79
471.936	7.79
472.14	7.88
472.344	7.96
472.548	8.06
472.752	8.21
472.956	8.41
473.16	8.37
473.364	8.28
473.568	8.21
473.772	8.23
473.976	8.1
474.18	8.15
474.384	8.19
474.588	8.15
474.792	7.99
474.995	8.03
475.199	8.01
475.403	8.12
475.607	8.19
475.811	8.13
476.015	8.24
476.218	8.27
476.422	8.14
476.626	8.29
476.83	8.41
477.033	8.38
477.237	8.35
477.441	8.44
477.644	8.31
477.848	8.31
478.052	8.21
478.255	8.23
478.459	8.17
478.663	8.29
478.866	8.37
479.07	8.44
479.273	8.61
479.477	8.65
479.681	8.63
479.884	8.54
480.088	8.49
480.291	8.4
480.495	8.47
480.698	8.51
480.901	8.53
481.105	8.65
481.308	8.64
481.512	8.65
481.715	8.68
481.919	8.74
482.122	8.69
482.325	8.63
482.529	8.58
482.732	8.53
482.935	8.47
483.138	8.48
483.342	8.68
483.545	8.83
483.748	8.88
483.952	8.99
484.155	9.13
484.358	9.08
484.561	9.02
484.764	9
484.967	9.01
485.171	8.97
485.374	8.88
485.577	8.95
485.78	9.03
485.983	8.97
486.186	8.86
486.389	8.89
486.592	8.87
486.795	8.81
486.998	8.86
487.201	8.92
487.404	9.03
487.607	9.08
487.81	9.11
488.013	9.14
488.216	9.08
488.419	8.98
488.622	8.89
488.825	8.83
489.028	8.8
489.231	8.87
489.433	8.9
489.636	8.89
489.839	8.91
490.042	8.8
490.245	8.79
490.447	8.72
490.65	8.72
490.853	8.7
491.056	8.81
491.258	8.83
491.461	8.9
491.664	8.94
491.866	8.88
492.069	9.02
492.272	8.97
492.474	9.02
492.677	9.03
492.879	9.15
493.082	9.12
493.285	9.2
493.487	9.17
493.69	9.12
493.892	9.03
494.095	8.98
494.297	8.96
494.5	8.98
494.702	9
494.905	9.07
495.107	8.98
495.309	9
495.512	9
495.714	9.04
495.917	9.07
496.119	9.14
496.321	9.18
496.524	9.23
496.726	9.22
496.928	9.21
497.13	9.19
497.333	9.2
497.535	9.2
497.737	9.24
497.939	9.25
498.142	9.31
498.344	9.27
498.546	9.19
498.748	9.2
498.95	9.27
499.152	9.23
499.355	9.27
499.557	9.35
499.759	9.43
499.961	9.41
500.163	9.5
500.365	9.49
500.567	9.57
500.769	9.45
500.971	9.45
501.173	9.41
501.375	9.41
501.577	9.33
501.779	9.35
501.981	9.34
502.183	9.29
502.385	9.31
502.587	9.23
502.788	9.29
502.99	9.35
503.192	9.46
503.394	9.4
503.596	9.49
503.798	9.61
503.999	9.65
504.201	9.59
504.403	9.72
504.605	9.79
504.806	9.68
505.008	9.61
505.21	9.67
505.411	9.62
505.613	9.56
505.815	9.61
506.016	9.68
506.218	9.8
506.42	9.81
506.621	9.86
506.823	9.91
507.024	9.9
507.226	9.85
507.427	9.89
507.629	9.92
507.83	9.97
508.032	9.9
508.233	9.97
508.435	10.03
508.636	10.04
508.838	9.97
509.039	10.03
509.24	10.05
509.442	10.06
509.643	9.99
509.845	10.02
510.046	10.12
510.247	10.14
510.448	10.08
510.65	10.13
510.851	10.27
511.052	10.27
511.254	10.2
511.455	10.38
511.656	10.48
511.857	10.55
512.058	10.56
512.26	10.59
512.461	10.46
512.662	10.5
512.863	10.33
513.064	10.31
513.265	10.33
513.466	10.44
513.667	10.38
513.868	10.45
514.069	10.5
514.27	10.59
514.471	10.5
514.672	10.51
514.873	10.47
515.074	10.49
515.275	10.36
515.476	10.36
515.677	10.46
515.878	10.58
516.079	10.53
516.28	10.58
516.481	10.76
516.682	10.8
516.882	10.74
517.083	10.81
517.284	10.8
517.485	10.71
517.686	10.7
517.886	10.68
518.087	10.71
518.288	10.78
518.488	10.76
518.689	10.67
518.89	10.69
519.091	10.74
519.291	10.68
519.492	10.76
519.692	10.83
519.893	10.89
520.094	10.82
520.294	10.8
520.495	10.69
520.695	10.76
520.896	10.72
521.096	10.79
521.297	10.96
521.497	11.03
521.698	10.95
521.898	10.99
522.099	11.01
522.299	11.01
522.499	11.05
522.7	11.14
522.9	11.11
523.101	11.13
523.301	11.13
523.501	11.14
523.702	11.15
523.902	11.22
524.102	11.26
524.302	11.24
524.503	11.3
524.703	11.29
524.903	11.29
525.103	11.22
525.304	11.3
525.504	11.31
525.704	11.34
525.904	11.28
526.104	11.3
526.304	11.25
526.504	11.24
526.705	11.31
526.905	11.45
527.105	11.48
527.305	11.49
527.505	11.49
527.705	11.43
527.905	11.41
528.105	11.4
528.305	11.39
528.505	11.43
528.705	11.52
528.905	11.46
529.105	11.49
529.304	11.56
529.504	11.67
529.704	11.62
529.904	11.71
530.104	11.71
530.304	11.72
530.503	11.66
530.703	11.65
530.903	11.59
531.103	11.64
531.303	11.62
531.502	11.59
531.702	11.7
531.902	11.8
532.101	11.8
532.301	11.83
532.501	11.92
532.7	11.86
532.9	11.85
533.1	11.86
533.299	11.87
533.499	11.82
533.698	11.85
533.898	11.87
534.097	11.91
534.297	12.04
534.496	12.07
534.696	12.11
534.895	12.21
535.095	12.36
535.294	12.23
535.494	12.22
535.693	12.22
535.892	12.18
536.092	12.04
536.291	12.02
536.491	12.13
536.69	12.24
536.889	12.15
537.088	12.17
537.288	12.33
537.487	12.33
537.686	12.28
537.886	12.41
538.085	12.52
538.284	12.61
538.483	12.58
538.682	12.7
538.882	12.7
539.081	12.72
539.28	12.57
539.479	12.61
539.678	12.55
539.877	12.68
540.076	12.71
540.275	12.8
540.474	12.96
540.673	12.98
540.872	12.96
541.071	13
541.27	13.05
541.469	13.03
541.668	13.1
541.867	13.1
542.066	13.19
542.265	13.31
542.464	13.34
542.663	13.41
542.862	13.54
543.06	13.53
543.259	13.57
543.458	13.58
543.657	13.64
543.856	13.66
544.054	13.7
544.253	13.69
544.452	13.6
544.651	13.61
544.849	13.6
545.048	13.67
545.247	13.68
545.445	13.89
545.644	13.9
545.843	13.9
546.041	13.92
546.24	14.07
546.438	14.15
546.637	14.24
546.836	14.44
547.034	14.49
547.233	14.43
547.431	14.42
547.63	14.47
547.828	14.49
548.027	14.59
548.225	14.69
548.423	14.73
548.622	14.85
548.82	14.82
549.019	14.91
549.217	15
549.415	15.08
549.614	15.12
549.812	15.24
550.01	15.21
550.209	15.29
550.407	15.4
550.605	15.48
550.803	15.57
551.002	15.69
551.2	15.7
551.398	15.75
551.596	15.85
551.794	15.94
551.993	16.03
552.191	16.17
552.389	16.31
552.587	16.41
552.785	16.44
552.983	16.54
553.181	16.58
553.379	16.62
553.577	16.68
553.775	16.81
553.973	16.89
554.171	17.01
554.369	17
554.567	17.02
554.765	17.11
554.963	17.22
555.161	17.24
555.359	17.44
555.557	17.64
555.755	17.75
555.952	17.87
556.15	18.02
556.348	18.07
556.546	18.1
556.744	18.12
556.941	18.16
557.139	18.28
557.337	18.36
557.535	18.38
557.732	18.56
557.93	18.76
558.128	18.86
558.325	19
558.523	19.12
558.721	19.25
558.918	19.21
559.116	19.29
559.313	19.33
559.511	19.5
559.708	19.48
559.906	19.68
560.104	19.73
560.301	19.88
560.498	19.97
560.696	20.13
560.893	20.18
561.091	20.32
561.288	20.4
561.486	20.49
561.683	20.64
561.88	20.66
562.078	20.8
562.275	20.85
562.473	20.95
562.67	21.07
562.867	21.27
563.064	21.35
563.262	21.41
563.459	21.46
563.656	21.6
563.853	21.66
564.051	21.72
564.248	21.96
564.445	22.13
564.642	22.16
564.839	22.33
565.036	22.57
565.234	22.77
565.431	22.86
565.628	22.98
565.825	23.05
566.022	23.16
566.219	23.15
566.416	23.23
566.613	23.32
566.81	23.42
567.007	23.33
567.204	23.36
567.401	23.34
567.598	23.35
567.795	23.4
567.991	23.47
568.188	23.53
568.385	23.77
568.582	23.91
568.779	23.97
568.976	24.09
569.172	24.25
569.369	24.19
569.566	24.2
569.763	24.3
569.96	24.36
570.156	24.4
570.353	24.43
570.55	24.53
570.746	24.61
570.943	24.66
571.14	24.6
571.336	24.69
571.533	24.73
571.729	24.63
571.926	24.68
572.123	24.83
572.319	24.86
572.516	24.87
572.712	24.99
572.909	25.01
573.105	25.05
573.302	25.07
573.498	25.21
573.695	25.13
573.891	25.21
574.087	25.19
574.284	25.22
574.48	25.11
574.677	25.18
574.873	25.17
575.069	25.32
575.266	25.33
575.462	25.31
575.658	25.39
575.854	25.56
576.051	25.47
576.247	25.47
576.443	25.48
576.639	25.34
576.835	25.21
577.032	25.16
577.228	25.33
577.424	25.36
577.62	25.4
577.816	25.34
578.012	25.31
578.208	25.17
578.404	25.29
578.6	25.29
578.796	25.37
578.993	25.38
579.189	25.36
579.384	25.18
579.58	25.07
579.776	25.03
579.972	25.04
580.168	24.97
580.364	25.04
580.56	25.09
580.756	25.05
580.952	24.9
581.148	24.99
581.343	25
581.539	25.07
581.735	25.14
581.931	25.27
582.127	25.25
582.322	25.27
582.518	25.24
582.714	25.17
582.909	25.1
583.105	25.05
583.301	24.93
583.496	24.91
583.692	24.85
583.888	24.85
584.083	24.93
584.279	25.07
584.474	25.07
584.67	25.16
584.866	25.12
585.061	24.88
585.257	24.9
585.452	24.86
585.648	24.75
585.843	24.81
586.039	25.03
586.234	24.85
586.429	24.84
586.625	24.98
586.82	24.95
587.015	24.87
587.211	24.79
587.406	24.82
587.601	24.73
587.797	24.72
587.992	24.74
588.187	24.98
588.383	24.94
588.578	24.93
588.773	24.94
588.968	24.96
589.163	24.82
589.359	24.8
589.554	24.84
589.749	24.83
589.944	24.83
590.139	24.9
590.334	24.97
590.529	24.96
590.724	25.02
590.919	25.06
591.114	25.03
591.309	25.04
591.504	25.2
591.699	25.23
591.894	25.33
592.089	25.36
592.284	25.43
592.479	25.44
592.674	25.49
592.869	25.5
593.064	25.68
593.259	25.8
593.454	25.84
593.648	25.85
593.843	25.91
594.038	25.91
594.233	25.88
594.428	25.86
594.622	25.94
594.817	26.11
595.012	26.14
595.206	26.23
595.401	26.28
595.596	26.39
595.79	26.37
595.985	26.47
596.18	26.62
596.374	26.76
596.569	26.86
596.763	26.91
596.958	27.01
597.153	27.04
597.347	27.05
597.542	27.18
597.736	27.18
597.931	27.22
598.125	27.27
598.319	27.48
598.514	27.42
598.708	27.54
598.903	27.6
599.097	27.68
599.291	27.65
599.486	27.75
599.68	27.81
599.874	27.89
600.069	27.82
600.263	27.85
600.457	27.92
600.651	27.9
600.846	27.94
601.04	28.16
601.234	28.15
601.428	28.21
601.622	28.31
601.817	28.28
602.011	28.23
602.205	28.33
602.399	28.33
602.593	28.4
602.787	28.48
602.981	28.5
603.175	28.54
603.369	28.43
603.563	28.5
603.757	28.57
603.951	28.58
604.145	28.46
604.339	28.55
604.533	28.34
604.727	28.19
604.921	28.17
605.115	28.23
605.309	28.38
605.502	28.49
605.696	28.57
605.89	28.51
606.084	28.43
606.278	28.2
606.471	27.98
606.665	27.82
606.859	27.77
607.053	27.76
607.246	27.72
607.44	27.72
607.634	27.64
607.827	27.65
608.021	27.61
608.214	27.6
608.408	27.55
608.602	27.58
608.795	27.4
608.989	27.35
609.182	27.25
609.376	27.18
609.569	27.02
609.763	27
609.956	26.91
610.15	26.82
610.343	26.77
610.537	26.74
610.73	26.66
610.923	26.58
611.117	26.62
611.31	26.56
611.504	26.52
611.697	26.47
611.89	26.4
612.083	26.35
612.277	26.33
612.47	26.2
612.663	26.11
612.856	26.08
613.05	25.89
613.243	25.74
613.436	25.55
613.629	25.45
613.822	25.31
614.015	25.2
614.209	25.16
614.402	25.22
614.595	25.14
614.788	25.09
614.981	25.04
615.174	24.87
615.367	24.78
615.56	24.76
615.753	24.66
615.946	24.58
616.139	24.6
616.332	24.67
616.525	24.65
616.718	24.66
616.911	24.57
617.103	24.5
617.296	24.39
617.489	24.22
617.682	24.16
617.875	24.19
618.067	24.26
618.26	24.19
618.453	24.26
618.646	24.3
618.838	24.29
619.031	24.24
619.224	24.22
619.417	24.16
619.609	24.09
619.802	24.05
619.994	24.02
620.187	23.94
620.38	23.87
620.572	23.79
620.765	23.79
620.957	23.66
621.15	23.59
621.342	23.59
621.535	23.59
621.727	23.46
621.92	23.43
622.112	23.37
622.305	23.36
622.497	23.24
622.69	23.3
622.882	23.29
623.074	23.36
623.267	23.38
623.459	23.37
623.651	23.24
623.844	23.3
624.036	23.23
624.228	23.16
624.42	23.12
624.613	23.22
624.805	23.13
624.997	23.06
625.189	22.99
625.381	22.94
625.574	22.79
625.766	22.71
625.958	22.68
626.15	22.77
626.342	22.83
626.534	22.89
626.726	22.85
626.918	22.8
627.11	22.62
627.302	22.6
627.494	22.5
627.686	22.5
627.878	22.52
628.07	22.52
628.262	22.4
628.454	22.45
628.646	22.46
628.838	22.48
629.029	22.43
629.221	22.44
629.413	22.25
629.605	22.12
629.797	22.11
629.989	22.15
630.18	22.15
630.372	22.18
630.564	22.15
630.755	22.07
630.947	22.09
631.139	21.96
631.33	21.87
631.522	21.95
631.714	21.97
631.905	21.81
632.097	21.79
632.289	21.81
632.48	21.65
632.672	21.56
632.863	21.49
633.055	21.47
633.246	21.46
633.438	21.4
633.629	21.38
633.821	21.43
634.012	21.42
634.203	21.35
634.395	21.42
634.586	21.39
634.777	21.33
634.969	21.39
635.16	21.43
635.351	21.31
635.543	21.28
635.734	21.26
635.925	21.1
636.117	21.13
636.308	21.19
636.499	21.11
636.69	21.07
636.881	21.17
637.073	21.1
637.264	21.09
637.455	21.19
637.646	21.31
637.837	21.35
638.028	21.31
638.219	21.22
638.41	21.1
638.601	20.92
638.792	20.79
638.983	20.71
639.174	20.74
639.365	20.79
639.556	20.78
639.747	20.71
639.938	20.79
640.129	20.77
640.32	20.63
640.511	20.73
640.701	20.88
640.892	20.76
641.083	20.71
641.274	20.81
641.465	20.61
641.655	20.46
641.846	20.51
642.037	20.55
642.228	20.38
642.418	20.55
642.609	20.52
642.8	20.47
642.99	20.29
643.181	20.45
643.372	20.37
643.562	20.34
643.753	20.35
643.943	20.39
644.134	20.25
644.324	20.21
644.515	20.2
644.705	20.21
644.896	20.34
645.086	20.31
645.277	20.25
645.467	20.23
645.658	20.17
645.848	20.07
646.038	20.08
646.229	20
646.419	19.91
646.61	19.97
646.8	19.96
646.99	19.94
647.18	20.03
647.371	20.02
647.561	19.88
647.751	19.8
647.941	19.73
648.132	19.7
648.322	19.64
648.512	19.72
648.702	19.75
648.892	19.76
649.082	19.66
649.272	19.61
649.462	19.38
649.653	19.31
649.843	19.3
650.033	19.34
650.223	19.33
650.413	19.36
650.603	19.33
650.793	19.33
650.983	19.22
651.172	19.26
651.362	19.15
651.552	19.07
651.742	18.96
651.932	18.94
652.122	18.81
652.312	18.91
652.502	18.88
652.691	18.92
652.881	18.84
653.071	18.82
653.261	18.66
653.45	18.48
653.64	18.35
653.83	18.24
654.019	18.18
654.209	18.16
654.399	18.17
654.588	18
654.778	17.9
654.968	17.77
655.157	17.61
655.347	17.51
655.536	17.43
655.726	17.3
655.915	17.11
656.105	16.94
656.294	16.75
656.484	16.61
656.673	16.48
656.863	16.39
657.052	16.23
657.241	16.05
657.431	15.83
657.62	15.72
657.809	15.5
657.999	15.39
658.188	15.22
658.377	14.95
658.567	14.72
658.756	14.5
658.945	14.35
659.134	14.17
659.324	14.15
659.513	14.03
659.702	13.96
659.891	13.73
660.08	13.62
660.269	13.54
660.458	13.26
660.648	13.04
660.837	12.91
661.026	12.81
661.215	12.55
661.404	12.43
661.593	12.32
661.782	12.01
661.971	11.87
662.16	11.76
662.349	11.62
662.538	11.43
662.726	11.43
662.915	11.26
663.104	10.99
663.293	11.01
663.482	11.06
663.671	10.98
663.86	10.83
664.048	10.78
664.237	10.67
664.426	10.31
664.615	10.2
664.803	10.09
664.992	9.93
665.181	9.75
665.369	9.8
665.558	9.7
665.747	9.65
665.935	9.72
666.124	9.71
666.312	9.63
666.501	9.5
666.69	9.36
666.878	9.28
667.067	9.08
667.255	9.16
667.444	9.33
667.632	9.41
667.82	9.42
668.009	9.39
668.197	9.27
668.386	9.19
668.574	9.23
668.762	9.12
668.951	9.05
669.139	9.04
669.327	8.89
669.516	8.82
669.704	8.75
669.892	8.89
670.08	8.83
670.269	8.7
670.457	8.55
670.645	8.35
670.833	8.42
671.021	8.43
671.21	8.5
671.398	8.77
671.586	8.97
671.774	8.81
671.962	8.82
672.15	8.94
672.338	8.75
672.526	8.85
672.714	8.81
672.902	8.85
673.09	8.93
673.278	9.23
673.466	9.21
673.654	9.41
673.842	9.35
674.03	9.29
674.218	9.02
674.405	9.03
674.593	9
674.781	9.12
674.969	9.2
675.157	9.48
675.344	9.57
675.532	9.56
675.72	9.67
675.908	9.73
676.095	9.55
676.283	9.65
676.471	9.87
676.658	9.76
676.846	9.75
677.033	9.88
677.221	9.89
677.409	9.7
677.596	9.95
677.784	10.06
677.971	10.06
678.159	10.21
678.346	10.41
678.534	10.52
678.721	10.75
678.909	10.83
679.096	10.84
679.283	11.03
679.471	11.15
679.658	11.06
679.846	11.27
680.033	11.6
680.22	11.6
680.408	11.53
680.595	11.64
680.782	11.67
680.969	11.76
681.157	11.9
681.344	12.08
681.531	12.28
681.718	12.35
681.905	12.36
682.093	12.57
682.28	12.86
682.467	13.07
682.654	13.3
682.841	13.4
683.028	13.55
683.215	13.68
683.402	13.58
683.589	13.83
683.776	14.24
683.963	14.33
684.15	14.48
684.337	14.88
684.524	15.12
684.711	15.39
684.898	15.5
685.085	15.63
685.271	16.05
685.458	16.18
685.645	16.21
685.832	16.73
686.019	17.29
686.205	17.42
686.392	17.95
686.579	18.31
686.766	18.69
686.952	18.85
687.139	19.37
687.326	19.61
687.512	20
687.699	20.52
687.886	20.8
688.072	21.05
688.259	21.55
688.445	22.07
688.632	22.26
688.818	22.98
689.005	23.5
689.191	23.76
689.378	24.45
689.564	24.98
689.751	25.45
689.937	26.09
690.124	26.89
690.31	27.24
690.496	27.81
690.683	28.37
690.869	28.93
691.055	29.46
691.242	30.15
691.428	30.82
691.614	31.31
691.8	31.8
691.987	32.46
692.173	32.99
692.359	33.78
692.545	34.65
692.731	35.23
692.918	35.9
693.104	36.55
693.29	36.92
693.476	37.53
693.662	38.14
693.848	38.63
694.034	39.14
694.22	39.84
694.406	40.61
694.592	41.44
694.778	42.03
694.964	42.85
695.15	43.67
695.336	44.14
695.522	45
695.708	45.68
695.894	46.34
696.08	46.99
696.265	47.56
696.451	47.95
696.637	48.72
696.823	49.26
697.009	49.82
697.194	50.6
697.38	51.08
697.566	51.6
697.751	52.29
697.937	53
698.123	53.33
698.308	54.03
698.494	54.77
698.68	55.09
698.865	55.53
699.051	56.21
699.236	56.61
699.422	56.95
699.607	57.59
699.793	57.69
699.978	57.97
700.164	58.53
700.349	59.08
700.535	59.41
700.72	59.86
700.906	60.74
701.091	61.11
701.276	61.52
701.462	62.44
701.647	63.47
701.832	63.71
702.018	64.2
702.203	64.31
702.388	64.12
702.573	64.2
702.759	64.94
702.944	65.44
703.129	65.8
703.314	66.29
703.499	66.56
703.684	66.33
703.87	67.2
704.055	68.21
704.24	68.84
704.425	69.51
704.61	69.98
704.795	69.92
704.98	69.86
705.165	69.66
705.35	69.6
705.535	70.11
705.72	70.16
705.905	70.46
706.09	71.26
706.275	71.53
706.459	71.25
706.644	71.45
706.829	71.51
707.014	71.25
707.199	71.47
707.384	71.83
707.568	71.91
707.753	72.58
707.938	72.92
708.123	73.22
708.307	73.68
708.492	74.09
708.677	73.93
708.861	74.14
709.046	74.05
709.231	74.51
709.415	74.98
709.6	74.96
709.784	75.03
709.969	75.72
710.153	75.45
710.338	75.3
710.522	75.73
710.707	76.12
710.891	75.95
711.076	76.04
711.26	76.22
711.445	76.37
711.629	76.55
711.813	76.87
711.998	77.45
712.182	77.4
712.366	77.64
712.551	78.31
712.735	78.52
712.919	77.99
713.103	78.51
713.288	78.45
713.472	77.9
713.656	78.31
713.84	78.62
714.024	78.78
714.208	78.73
714.393	79.35
714.577	79.4
714.761	79.55
714.945	79.37
715.129	79.65
715.313	79.31
715.497	79.02
715.681	79.77
715.865	79.46
716.049	79.67
716.233	79.72
716.417	79.99
716.601	79.42
716.785	79.55
716.968	79.6
717.152	79.77
717.336	79.69
717.52	79.95
717.704	80.34
717.888	80.7
718.071	80.72
718.255	81.08
718.439	81.06
718.622	81.04
718.806	81.19
718.99	81.45
719.174	81.37
719.357	81.37
719.541	81.25
719.724	80.87
719.908	81.32
720.092	81.67
720.275	81.93
720.459	82.19
720.642	81.93
720.826	81.24
721.009	80.9
721.193	80.78
721.376	80.84
721.559	81.43
721.743	81.79
721.926	81.99
722.11	82.25
722.293	81.92
722.476	81.4
722.66	81.39
722.843	81.15
723.026	80.89
723.21	81.63
723.393	82.49
723.576	82.37
723.759	82.32
723.942	82.44
724.126	82.19
724.309	81.9
724.492	82.06
724.675	82.05
724.858	82.35
725.041	82.75
725.224	82.91
725.407	83.49
725.59	83.98
725.774	84.11
725.957	83.63
726.14	83.44
726.322	83.68
726.505	82.72
726.688	83.24
726.871	83.29
727.054	83.81
727.237	83.35
727.42	84.26
727.603	83.09
727.786	83.49
727.968	83.21
728.151	83.02
728.334	82.65
728.517	83.7
728.699	83.75
728.882	83.38
729.065	83.97
729.248	85.11
729.43	84.68
729.613	85.63
729.796	86.56
729.978	85.7
730.161	84.79
730.343	84.76
730.526	84.75
730.708	83.93
730.891	84.15
731.073	84.29
731.256	83.9
731.438	83.23
731.621	84.21
731.803	84.57
731.986	84.69
732.168	84.39
732.35	84.73
732.533	84.04
732.715	83.91
732.898	84.17
733.08	84.92
733.262	85.34
733.444	85.1
733.627	85.27
733.809	85.98
733.991	86.5
734.173	85.29
734.355	85.55
734.538	85.87
734.72	84.58
734.902	84.28
735.084	85.15
735.266	85.2
735.448	85.45
735.63	85.94
735.812	86.16
735.994	86.63
736.176	86.93
736.358	86.78
736.54	87.61
736.722	87.19
736.904	86.64
737.086	86.49
737.268	86.95
737.45	86.65
737.632	87.11
737.814	86.38
737.995	86.35
738.177	85.28
738.359	84.44
738.541	84.85
738.723	86.01
738.904	86.87
739.086	87.34
739.268	87.71
739.449	87.91
739.631	87.39
739.813	86.85
739.994	87.03
740.176	87.91
740.358	87.35
740.539	88.31
740.721	88.72
740.902	89.29
741.084	88.85
741.265	88.51
741.447	87.78
741.628	87.91
741.81	86.81
741.991	86.83
742.172	87.88
742.354	88.32
742.535	87.77
742.717	89
742.898	89.46
743.079	89.79
743.261	89.33
743.442	88.62
743.623	88.5
743.804	88.07
743.986	88.16
744.167	86.6
744.348	87.25
744.529	87.38
744.71	86.3
744.891	84.91
745.073	85.88
745.254	84.81
745.435	83.61
745.616	83.5
745.797	83.77
745.978	83.24
746.159	84.49
746.34	84.43
746.521	86.83
746.702	85.77
746.883	86.63
747.064	85.87
747.245	86.46
747.426	85.39
747.606	86.18
747.787	85.72
747.968	85.45
748.149	85.77
748.33	85.98
748.51	86.21
748.691	86.59
748.872	87.79
749.053	87.01
749.233	86.45
749.414	85.83
749.595	85.44
749.775	83.85
749.956	83.19
750.137	82.57
750.317	84.35
750.498	85.09
750.678	86.59
750.859	88.02
751.04	87.32
751.22	85.63
751.4	85.54
751.581	84.45
751.761	85.39
751.942	86.53
752.122	86.19
752.303	85.32
752.483	84.55
752.663	82.61
752.844	82.18
753.024	83.47
753.204	84
753.385	84.85
753.565	85.92
753.745	86.38
753.925	85.45
754.106	85.2
754.286	85.45
754.466	85.6
754.646	85.63
754.826	85.5
755.006	84.52
755.187	85.13
755.367	84.73
755.547	85.07
755.727	85.52
755.907	86.46
756.087	86.94
756.267	85.71
756.447	85.93
756.627	84.5
756.807	85.34
756.987	84.56
757.167	86.19
757.346	84.81
757.526	83.94
757.706	83.75
757.886	83.38
758.066	82.23
758.246	84.09
758.425	85.98
758.605	84.72
758.785	84.49
758.965	85.59
759.144	82.52
759.324	82.62
759.504	83.14
759.683	83.35
759.863	81.35
760.043	81.73
760.222	81.28
760.402	80.25
760.581	80.42
760.761	81.68
760.94	81.88
761.12	82
761.299	82.59
761.479	82.84
761.658	81.53
761.838	81.86
762.017	82.92
762.197	82.9
762.376	82.28
762.555	83.74
762.735	84.07
762.914	81.42
763.093	81.16
763.273	81.32
763.452	80.74
763.631	80.77
763.81	81.44
763.99	81.89
764.169	82.21
764.348	79.81
764.527	79.19
764.706	80.42
764.885	81.31
765.064	79.79
765.243	81.82
765.423	82.67
765.602	81.24
765.781	79.35
765.96	78.78
766.139	79
766.318	79.69
766.497	80.77
766.676	81.72
766.854	82.75
767.033	82.52
767.212	81.27
767.391	80.13
767.57	80.48
767.749	81.47
767.928	82.63
768.106	82.34
768.285	80.07
768.464	79.56
768.643	78.46
768.821	76.51
769	78.08
769.179	77.96
769.357	77.42
769.536	77.11
769.715	77.78
769.893	78.4
770.072	80.43
770.25	79.84
770.429	80.71
770.607	79.7
770.786	77.25
770.964	77.94
771.143	78.73
771.321	78.91
771.5	80.45
771.678	78.46
771.857	77.67
772.035	77.29
772.213	76.8
772.392	73.39
772.57	77.07
772.748	77.92
772.927	77.39
773.105	76.88
773.283	79.73
773.461	78.87
773.64	78.77
773.818	79.7
773.996	80.68
774.174	79.31
774.352	77.57
774.531	75.29
774.709	76.96
774.887	75.52
775.065	75.78
775.243	76.49
775.421	78.08
775.599	77.14
775.777	76.01
775.955	74.67
776.133	72.93
776.311	72.18
776.489	69.22
776.667	69.57
776.844	69.8
777.022	69.36
777.2	70.17
777.378	70.95
777.556	71.96
777.734	76.06
777.911	80.19
778.089	81.12
778.267	82.65
778.445	79.99
778.622	75.47
778.8	73.56
778.978	74.7
779.155	73.97
779.333	75.69
779.511	76.48
779.688	77.97
779.866	72.47
780.043	68.56
780.221	67.91
780.398	66.97
780.576	67.8
780.753	70.35
780.931	69.89
781.108	69.07
781.286	72.17
781.463	67.28
781.64	65.93
781.818	69.51
781.995	72.88
782.172	72.27
782.35	73.56
782.527	76.78
782.704	74.26
782.882	73.35
783.059	72.79
783.236	74.16
783.413	73.81
783.59	77
783.768	75.72
783.945	76.64
784.122	78.26
784.299	78.56
784.476	76.95
784.653	74.7
784.83	70.94
785.007	65.4
785.184	64.41
785.361	63.02
785.538	71.48
785.715	77.67
785.892	78.99
786.069	81.14
786.246	82.59
786.423	77.26
786.6	73.72
786.776	75.74
786.953	72.75
787.13	76.5
787.307	73.11
787.484	74.07
787.66	74.08
787.837	75.01
788.014	69.48
788.191	68.82
788.367	63.41
788.544	66.14
788.721	64.63
788.897	67.81
789.074	71.11
789.25	73.36
789.427	74.39
789.603	75.01
789.78	74.38
789.956	70.74
790.133	67.84
790.309	67.62
790.486	71.62
790.662	68.37
790.839	72.28
791.015	75.13
791.192	71.52
791.368	70.46
791.544	70.42
791.721	67.9
791.897	69.84
792.073	68.23
792.249	60.17
792.426	65.14
792.602	72.09
792.778	69.67
792.954	66.61
793.13	71.23
793.307	62.81
793.483	49.18
793.659	49.15
793.835	50.2
794.011	46.74
794.187	50.73
794.363	56.91
794.539	62.86
794.715	60.37
794.891	60.02
795.067	58.91
795.243	62.15
795.419	57.04
795.595	58.45
795.771	61.08
795.947	60.9
796.122	58.69
796.298	61.71
796.474	63.18
796.65	60.93
796.826	62.28
797.001	61.5
797.177	53.51
797.353	58.5
797.529	60.88
797.704	58.71
797.88	54.36
798.056	56.38
798.231	51.51
798.407	54.84
798.582	56.11
798.758	66.72
798.934	73.94
799.109	72.39
799.285	60.82
799.46	63.78
799.636	58.37
799.811	53.87
799.986	58.28
800.162	69.87
800.337	69.12
800.513	67.14
800.688	63.79
800.863	68.21
801.039	60.61
801.214	55.29
801.389	59.16
801.565	60.76
801.74	51.64
801.915	52.83
802.09	52.65
802.265	56.9
802.441	56.76
802.616	58.59
802.791	64.18
802.966	68.43
803.141	60.99
803.316	57.35
803.491	60
803.666	67.64
803.841	59.7
804.016	58.66
804.191	65.08
804.366	62.83
804.541	54.63
804.716	58.96
804.891	56.82
805.066	56.29
805.241	55.87
805.416	52.52
805.591	50.69
805.765	55.33
805.94	57
806.115	51.21
806.29	43.38
806.464	49.17
806.639	45.66
806.814	44.79
806.989	45.71
807.163	56.44
807.338	54.61
807.512	52.26
807.687	36.14
807.862	46.58
808.036	45.31
808.211	42.24
808.385	54.26
808.56	67.08
808.734	71.94
808.909	68.96
809.083	66.73
809.258	67.61
809.432	72
809.606	50.01
809.781	50.21
809.955	59.06
810.13	53.27
810.304	43.31
810.478	51.54
810.652	57.35
810.827	58.06
811.001	56.09
811.175	59.3
811.349	60.61
811.524	53.98
811.698	40.07
811.872	40.61
812.046	47.36
812.22	56.08
812.394	53.33
812.568	65.19
812.742	77.68
812.916	68.97
813.09	59.15
813.264	66.04
813.438	64.39
813.612	52.43
813.786	45.56
813.96	57.77
814.134	58.5
814.308	61.99
814.482	64.69
814.656	65.04
814.83	55.97
815.003	51.87
815.177	43.46
815.351	41
815.525	41.03
815.698	34.37
815.872	32.4
816.046	24.59
816.219	23.25
816.393	43.03
816.567	50.69
816.74	54.23
816.914	61.81
817.088	69.93
817.261	60.41
817.435	49.95
817.608	50.47
817.782	43.52
817.955	48.72
818.129	37.94
818.302	48.66
818.475	58.59
818.649	65.08
818.822	49.34
818.996	76.72
819.169	73.59
819.342	50.9
819.516	61.34
819.689	72.95
819.862	49.75
820.035	45.62
820.209	43.78
820.382	41.42
820.555	37.9
820.728	26.77
820.901	23.65
821.075	31.5
821.248	31.27
821.421	23.47
821.594	32.83
821.767	69.58
821.94	74.45
822.113	53.51
822.286	51.21
822.459	62.77
822.632	37.93
822.805	17.58
822.978	11.99
823.151	16.06
823.324	6.42
823.496	-11.24
823.669	-2.77
823.842	16.59
824.015	3.16
824.188	3.79
824.361	23.31
824.533	20.74
824.706	18.34
824.879	31.9
825.051	37.61
825.224	27.63
825.397	19.34
825.569	12.89
825.742	14.04
825.915	22.02
826.087	32.68
826.26	26.46
826.432	24.64
826.605	33.97
826.777	19.65
826.95	23.86
827.122	25.49
827.295	39.23
827.467	27.7
827.64	-2.61
827.812	-18.17
827.984	-10.83
828.157	-29.92
828.329	-70.76
828.501	-32.34
828.674	-4.63
828.846	-5.93
829.018	16.63
829.19	16.66
829.363	43.65
829.535	33.65
829.707	29.6
829.879	8.79
830.051	2.69
830.223	-25.98
830.395	-46.6
830.568	-54.29
830.74	-52.51
830.912	4.7
831.084	-1.82
831.256	12.33
831.428	16.5
831.6	8.7
831.772	-39.38
831.943	-49.61
832.115	-38.42
832.287	-9.07
832.459	11.52
832.631	25.12
832.803	56.42
832.975	86.24
833.146	69.21
833.318	60.45
833.49	75.54
833.662	37.73
833.833	12.98
834.005	15.48
834.177	22.11
834.348	12.88
834.52	23.5
834.692	16.96
834.863	8.31
835.035	3.47
835.206	-47.11
835.378	-17.4
835.549	-12.5
835.721	5.96
835.892	-3.06
836.064	0.28
836.235	-24.23
836.407	-6.26
836.578	-22.53
836.749	-18.02
836.921	-32.5
837.092	-56.75
837.264	-72.16
837.435	-79.31
837.606	-28.95
837.777	7.99
837.949	44.98
838.12	56.16
838.291	59.95
838.462	49.27
838.633	18.31
838.805	-0.46
838.976	-12.07
839.147	-69.56
839.318	-77.38
839.489	-133.91
839.66	-88.07
839.831	-24.34
840.002	-2.75
840.173	-2.46
840.344	75.42
840.515	56.94
840.686	-78.83
840.857	-104.01
841.028	-74.14
841.199	-57.68
841.369	-82.06
841.54	-45.05
841.711	-18.14
841.882	-11.07
842.053	-25.52
842.223	-13.59
842.394	-4.45
842.565	-5.66
842.736	2.11
842.906	1.88
843.077	12.45
843.248	36.17
843.418	37.65
843.589	-3.28
843.759	64.28
843.93	21.72
844.101	-14.01
844.271	-8.06
844.442	19.63
844.612	24.84
844.783	14.6
844.953	-17.78
845.123	1.7
845.294	-20.77
845.464	-203.81
845.635	-85.53
845.805	13.19
845.975	-14.69
846.146	-40.33
846.316	-43.62
846.486	-24.61
846.656	10.74
846.827	9.62
846.997	10.75
847.167	39.57
847.337	31.25
847.507	-26.69
847.677	-9.64
847.848	31.34
848.018	28.38
848.188	30.82
848.358	4.11
848.528	-17.17
848.698	-68.92
848.868	-178.59
849.038	-316.12
849.208	-103.57
849.378	-46.82
849.548	-23.33
849.718	3.9
849.887	29.89
850.057	-6.5
850.227	-41.68
850.397	-64.98
850.567	-162.43
850.737	-449.46
850.906	-969.69
851.076	-669.34
851.246	-414.01
851.415	-99.49
851.585	-69.56
851.755	-113.46
851.924	-58.79
852.094	-71.91
852.264	-97.95
852.433	-786.3
852.603	-101.42
852.772	-135.75
852.942	-58.91
853.111	-43.88
853.281	-3.37
853.45	19.45
853.62	-21.24
853.789	-29.23
853.959	-49
854.128	-78.6
854.297	-119.99
854.467	-107.76
854.636	-95.55
854.805	-29.16
854.975	-23.64
855.144	-11.16
855.313	221.15
855.482	-158.94
855.652	-159.07
855.821	-140.92
855.99	0.53
856.159	7.41
856.328	26.94
856.497	16.23
856.667	25.27
856.836	49.74
857.005	8.24
857.174	-33.92
857.343	-37.59
857.512	-38.83
857.681	-135.8
857.85	-184.76
858.019	-114.95
858.188	-80.07
858.356	-85.79
858.525	-128.63
858.694	-77.31
858.863	-121.87
859.032	-113.45
859.201	-106.72
859.369	-79.27
859.538	-72.5
859.707	-49.19
859.876	-43.81
860.044	-68.78
860.213	18.93
860.382	13.35
860.55	2.04
860.719	33.38
860.888	34.66
861.056	14.22
861.225	-13.36
861.393	19.7
861.562	-20.11
861.73	-80.03
861.899	-403.01
862.067	-3047.41
862.236	-136.91
862.404	-261.6
862.572	-179.15
862.741	-51.71
862.909	-34.09
863.078	-171.36
863.246	-110.22
863.414	-67.48
863.582	-48.52
863.751	-45.26
863.919	-13.97
864.087	17.9
864.255	-18.19
864.424	-319.82
864.592	-45.42
864.76	-113.7
864.928	-423.8
865.096	-200.24
865.264	-178.37
865.432	-2226.7
865.6	-92.38
865.768	-78.84
865.936	-97.53
866.104	-91.26
866.272	-143.05
866.44	-488.48
866.608	878.12
866.776	434.54
866.944	3785.47
867.112	-663.03
867.28	-267.96
867.448	-125.46
867.615	-66.71
867.783	-43.51
867.951	-74.89
868.119	-54.43
868.286	-54.52
868.454	-166.77
868.622	-144.33
868.789	-93.14
868.957	-1105.36
869.125	-1646.71
869.292	-84.46
869.46	-207.73
869.627	-38.4
869.795	-47.87
869.963	-14.82
870.13	2.14
870.298	30.97
870.465	-19.77
870.632	-44.35
870.8	-27.22
870.967	-71.68
871.135	-149.78
871.302	-137.13
871.469	-143.09
871.637	-318.77
871.804	-165.81
871.971	-207.26
872.139	-685.93
872.306	-119.2
872.473	-94.08
872.64	-416.63
872.807	-114.53
872.975	43.64
873.142	-216.64
873.309	1869.59
873.476	37.17
873.643	67.24
873.81	-11.88
873.977	36.2
874.144	37.97
874.311	-79.47
874.478	-118.77
874.645	-116.05
874.812	-102.74
874.979	-56.37
875.146	-71.87
875.313	-104.46
875.48	-23.76
875.647	-19.97
875.813	-51.5
875.98	-26.86
876.147	-42.67
876.314	-110.25
876.481	1027.89
876.647	-1414.33
876.814	574.48
876.981	-84.9
877.147	-51.42
877.314	7.17
877.481	58.31
877.647	58.78
877.814	27.04
877.98	-8.31
878.147	36.63
878.314	58.83
878.48	21.32
878.647	23.88
878.813	65.92
878.979	38.56
879.146	-1.67
879.312	-6.53
879.479	-61.09
879.645	-172.71
879.811	-362.07
879.978	-814.31
880.144	-247.4
880.31	-117.75
880.477	-278.65
880.643	-322.8
880.809	-120.88
880.975	-68.1
881.142	-803.41
881.308	-142.72
881.474	-52.54
881.64	-88.88
881.806	-167.46
881.972	-40.54
882.138	0.25
882.304	-3.1
882.47	-171.55
882.636	-795.7
882.802	-258.52
882.968	-79.93
883.134	-36.27
883.3	-28.85
883.466	30.68
883.632	69.36
883.798	26.69
883.964	3.98
884.129	21.61
884.295	5.1
884.461	-58.56
884.627	-51.89
884.793	-87.56
884.958	-58.51
885.124	-112.8
885.29	-203.23
885.455	-404.25
885.621	-127.28
885.787	-138.5
885.952	-48.17
886.118	-72.36
886.283	-47.77
886.449	-116.74
886.614	-132.1
886.78	-282.21
886.945	961.89
887.111	-659.97
887.276	-532.81
887.442	-1016.14
887.607	-606.49
887.773	-372.21
887.938	-297.32
888.103	-342.34
888.269	-226.43
888.434	-378.78
888.599	-131.22
888.764	4.93
888.93	11.67
889.095	-6.82
889.26	-32.77
889.425	1.75
889.59	-38.64
889.756	-68.35
889.921	-48.5
890.086	-6.06
890.251	-36.77
890.416	-189.87
890.581	-1638.31
890.746	236.34
890.911	497.93
891.076	230.97
891.241	-529.66
891.406	13.59
891.571	-56.58
891.736	-193.46
891.901	-253.76
892.065	120.6
892.23	63.5
892.395	105.43
892.56	179.12
892.725	195.51
892.889	354.27
893.054	-142.51
893.219	-81.93
893.384	-39.72
893.548	-140.75
893.713	-166.56
893.878	-102.22
