Data from Ofra_PS_T2_1A_8HS24_Reflection_2.txt Node
Date: Wed Jul 21 18:17:00 EDT 2021
User: Adam
Spectrometer: FLMT01687
Trigger mode: 0
Integration Time (sec): 1.100000E0
Scans to average: 2
Electric dark correction enabled: true
Nonlinearity correction enabled: false
Boxcar width: 2
XAxis mode: Wavelengths
Number of Pixels in Spectrum: 3648
>>>>>Begin Spectral Data<<<<<
179.494	481.2
179.716	559.76
179.937	544.05
180.158	558.37
180.38	981.56
180.601	203.04
180.823	44.12
181.044	-124.41
181.265	-122.43
181.486	-43.03
181.708	131.29
181.929	958.16
182.15	-471.13
182.372	9.63
182.593	-29.79
182.814	1.81
183.035	35.22
183.257	17.63
183.478	-39.26
183.699	22.58
183.92	21.55
184.141	13
184.363	-0.69
184.584	56.59
184.805	50.36
185.026	64.58
185.247	82.36
185.468	64.36
185.689	65.32
185.91	66.43
186.132	92.23
186.353	83.27
186.574	106.07
186.795	74.09
187.016	20.64
187.237	-13.6
187.458	-59.23
187.679	-64.08
187.9	-53.57
188.121	-49.07
188.342	-61.01
188.563	16.77
188.784	49.51
189.005	32.57
189.226	66.83
189.447	44.33
189.667	-287.62
189.888	-512.07
190.109	-1330.52
190.33	-742.26
190.551	-1318.14
190.772	-307.63
190.993	-256.68
191.214	-254.48
191.434	-160.75
191.655	-40.31
191.876	-45.56
192.097	-70.02
192.318	-90.68
192.538	-91.06
192.759	-107.14
192.98	-6.76
193.201	25.66
193.421	48.02
193.642	50.28
193.863	52.68
194.083	22.14
194.304	18.17
194.525	1.12
194.745	-33.64
194.966	-68.99
195.187	-59.64
195.407	-110.1
195.628	-161.96
195.848	-130.95
196.069	-114.84
196.29	-93.1
196.51	-57.56
196.731	-70.49
196.951	-91.17
197.172	-90.77
197.392	-148.17
197.613	-170.97
197.833	-134.41
198.054	-93.71
198.274	-64.29
198.495	-64.08
198.715	-38.36
198.936	-66.87
199.156	-62.06
199.377	-116.25
199.597	-87.73
199.817	-63
200.038	-13.26
200.258	-53.84
200.479	2.61
200.699	26.24
200.919	24.94
201.14	9.18
201.36	-15.02
201.58	15.85
201.801	38.13
202.021	9.4
202.241	2.71
202.461	8
202.682	-85.38
202.902	-162.57
203.122	-101.52
203.342	-95.44
203.563	-56.8
203.783	-6.47
204.003	-35.53
204.223	-32.78
204.443	38.11
204.663	21.03
204.884	19.55
205.104	53.99
205.324	63
205.544	35.01
205.764	65.35
205.984	63.02
206.204	59.35
206.424	60.45
206.644	43.49
206.864	35.78
207.084	3.78
207.304	26.79
207.525	-76.41
207.745	-10.41
207.964	28
208.184	-39.45
208.404	-69.89
208.624	-64.53
208.844	-55.31
209.064	-312.79
209.284	-231.22
209.504	-140.43
209.724	-56.07
209.944	-28.92
210.164	5.62
210.384	11.24
210.604	2.48
210.823	-24.7
211.043	-55.36
211.263	-46.9
211.483	-53.74
211.703	-91.23
211.922	-78.23
212.142	-5.24
212.362	17.94
212.582	20.14
212.801	39.57
213.021	26.41
213.241	2
213.461	-59.88
213.68	-87.4
213.9	-69.6
214.12	-47.21
214.339	-99.95
214.559	-55.87
214.779	1.67
214.998	-9.54
215.218	-22.13
215.438	6.15
215.657	-9.29
215.877	-35.37
216.096	-15.32
216.316	-13.08
216.535	-30.59
216.755	-25.36
216.974	-86.43
217.194	-138.92
217.413	-146.71
217.633	-137.79
217.852	-233.49
218.072	-104.12
218.291	-39.23
218.511	3
218.73	-9.24
218.95	-5.49
219.169	-11.89
219.389	-40.05
219.608	-29.82
219.827	-14.23
220.047	5.57
220.266	17.39
220.485	23.98
220.705	37.34
220.924	4.35
221.143	28.08
221.363	5.76
221.582	15.4
221.801	-1.15
222.021	21.41
222.24	-45.88
222.459	36.4
222.678	2.44
222.897	-17.8
223.117	-66.18
223.336	-47.23
223.555	-28.53
223.774	17.28
223.993	-35.96
224.213	15.54
224.432	7.43
224.651	11.16
224.87	-19.1
225.089	18.65
225.308	7.8
225.527	20.14
225.746	6.18
225.965	6.53
226.184	-21.95
226.404	10.24
226.623	-7.75
226.842	14.96
227.061	44.21
227.28	41.82
227.499	26.62
227.718	35.78
227.936	16.3
228.155	18.83
228.374	20.65
228.593	20.4
228.812	19.95
229.031	18.28
229.25	-45.07
229.469	-47.62
229.688	-15.18
229.907	17.94
230.125	36.09
230.344	49.93
230.563	63.51
230.782	51.04
231.001	-17.9
231.22	-35.11
231.438	-20.57
231.657	-19.84
231.876	-19.99
232.095	32.03
232.313	33.2
232.532	17.52
232.751	-3.56
232.969	-35
233.188	-138.98
233.407	-50.06
233.625	-20.26
233.844	-54.01
234.063	-57.07
234.281	-17.83
234.5	-29.76
234.719	-28.28
234.937	-1.12
235.156	27.11
235.374	6.61
235.593	9.54
235.811	9.28
236.03	25.71
236.249	-26
236.467	-11.17
236.686	2.94
236.904	7.92
237.123	-25.3
237.341	-12.52
237.559	-12.36
237.778	-43.41
237.996	-76.37
238.215	-29.31
238.433	-12.91
238.652	-10.97
238.87	-19.02
239.088	2.63
239.307	2.89
239.525	2.89
239.743	-30.5
239.962	-9.7
240.18	-42.49
240.398	-82.54
240.617	-98.41
240.835	-62.01
241.053	-49.9
241.271	-14.02
241.49	7.72
241.708	-14.46
241.926	-32.16
242.144	-35.13
242.363	-82.17
242.581	-114.44
242.799	-49.1
243.017	-17.35
243.235	-41.15
243.453	-13.79
243.672	-4.84
243.89	-13.96
244.108	-22.85
244.326	5.24
244.544	15.78
244.762	14.46
244.98	31.97
245.198	36.64
245.416	20.35
245.634	4.69
245.852	-8.04
246.07	-24.58
246.288	-29.85
246.506	-52.4
246.724	-54.99
246.942	-32.62
247.16	1.88
247.378	21.91
247.596	43.68
247.814	53.45
248.032	32.13
248.25	27.84
248.468	11.6
248.685	22.88
248.903	39.68
249.121	37.9
249.339	13.44
249.557	4.29
249.775	-2.49
249.992	-55.01
250.21	-52.19
250.428	-39.9
250.646	-65.65
250.863	-70.35
251.081	-51.68
251.299	-40.11
251.517	-21.79
251.734	-0.8
251.952	-8
252.17	-7.09
252.387	-1.2
252.605	-15.26
252.823	-7.65
253.04	4.87
253.258	23.77
253.475	15.23
253.693	32.92
253.911	31.55
254.128	34.67
254.346	30.09
254.563	24.14
254.781	4.27
254.998	-7.71
255.216	-7.73
255.433	-6.76
255.651	15.8
255.868	61.23
256.086	66.53
256.303	50.96
256.521	39.02
256.738	19.62
256.956	-12.18
257.173	-54.49
257.39	-55.54
257.608	-89.35
257.825	-2.39
258.043	19.08
258.26	46.94
258.477	73.07
258.695	85.14
258.912	22.25
259.129	23.76
259.346	-0.69
259.564	-34.05
259.781	-55.82
259.998	-4.09
260.216	18.25
260.433	60.82
260.65	54.24
260.867	64.86
261.084	44.94
261.302	29.89
261.519	7.55
261.736	-30.43
261.953	-39.13
262.17	-10.72
262.387	-57.25
262.604	-85.73
262.822	-75.84
263.039	-61.01
263.256	-114.11
263.473	-51.03
263.69	-26.1
263.907	17.99
264.124	23.19
264.341	25.37
264.558	17.74
264.775	27.43
264.992	15.76
265.209	25.44
265.426	46.68
265.643	49.63
265.86	45.66
266.077	55.91
266.294	18.08
266.51	-23.07
266.727	-23.09
266.944	-28.95
267.161	-37.32
267.378	-15.41
267.595	5.51
267.812	-20.12
268.028	-21.98
268.245	-14.35
268.462	-20.03
268.679	-10.37
268.896	22.38
269.112	26.02
269.329	15.54
269.546	18.2
269.763	3.35
269.979	-16.49
270.196	-16.45
270.413	-51.31
270.629	-72.73
270.846	-77
271.063	-55.47
271.279	-61.65
271.496	-40.95
271.712	-15.21
271.929	0.12
272.146	-21.96
272.362	-27.41
272.579	4.37
272.795	15.02
273.012	9.42
273.228	13.25
273.445	2
273.661	-28.66
273.878	-53.78
274.094	-49.8
274.311	-71.97
274.527	-8.39
274.744	-5.61
274.96	-17.81
275.177	-11.14
275.393	7.89
275.609	-4.19
275.826	18.5
276.042	22.53
276.259	20.9
276.475	27.25
276.691	36.72
276.908	23.68
277.124	35.71
277.34	44.17
277.557	30.78
277.773	7.67
277.989	-3.8
278.205	-10.45
278.422	-2.91
278.638	13.31
278.854	35.89
279.07	59.98
279.286	45.97
279.503	24.2
279.719	-5.8
279.935	-49.15
280.151	-61.3
280.367	-31.93
280.583	-54.69
280.799	-37.78
281.016	-54.11
281.232	-34.12
281.448	-49.39
281.664	-15.56
281.88	-52.48
282.096	-28.75
282.312	-15.7
282.528	14.42
282.744	21.8
282.96	41.5
283.176	40.98
283.392	23.4
283.608	9.23
283.824	-3.67
284.04	-6.43
284.256	-3.38
284.471	3.9
284.687	6.72
284.903	30.8
285.119	43.95
285.335	30.33
285.551	37.53
285.767	18.67
285.982	9.01
286.198	-13.76
286.414	12.23
286.63	14.4
286.846	43.64
287.061	15.21
287.277	38.85
287.493	19.56
287.709	33.27
287.924	10.44
288.14	58.38
288.356	45.26
288.571	57.93
288.787	36.45
289.003	27.25
289.218	-7.33
289.434	-27.38
289.65	-27.41
289.865	-36.58
290.081	-24.85
290.296	-4.83
290.512	-0.51
290.727	-45.16
290.943	-31.37
291.159	-32.7
291.374	-38.63
291.59	-58.74
291.805	-21.27
292.021	-16.02
292.236	-11.43
292.451	0.39
292.667	17.08
292.882	23.5
293.098	19.43
293.313	18.92
293.529	16.91
293.744	-2.47
293.959	-25.39
294.175	-12.89
294.39	9.4
294.605	12.88
294.821	34.02
295.036	46.67
295.251	42.18
295.467	8.81
295.682	10.3
295.897	-28.9
296.112	-39.57
296.328	-69.17
296.543	-76.37
296.758	-79.57
296.973	-33.52
297.188	5.5
297.404	5.09
297.619	9.12
297.834	-14.18
298.049	-43.56
298.264	-91.93
298.479	-39.64
298.694	-33.42
298.909	-3.71
299.125	2.31
299.34	22.71
299.555	2.72
299.77	24.1
299.985	-9.36
300.2	-50.73
300.415	-78.78
300.63	-41.52
300.845	-53.55
301.06	-56.75
301.275	-15.72
301.49	16.23
301.704	-5.92
301.919	-20.17
302.134	-25.68
302.349	-25.1
302.564	-86.47
302.779	-75
302.994	-34.09
303.209	-21.61
303.423	-9.15
303.638	36.11
303.853	3.57
304.068	-6.02
304.283	5.37
304.497	5.9
304.712	-12.13
304.927	4.44
305.142	5.57
305.356	2.4
305.571	-5.42
305.786	-13.88
306	-43.73
306.215	-33.84
306.43	-52.15
306.644	-39.54
306.859	-3.53
307.074	8.77
307.288	-28.1
307.503	-34.34
307.717	-51.36
307.932	-49.76
308.147	-41.62
308.361	-25.74
308.576	-27.82
308.79	-53.68
309.005	-44.54
309.219	-44.75
309.434	-49.73
309.648	-42.21
309.863	-20.06
310.077	-13.12
310.292	-2.43
310.506	4.93
310.72	19
310.935	24.97
311.149	8.67
311.364	19.22
311.578	32.05
311.792	21.04
312.007	24.41
312.221	15.08
312.435	26.4
312.649	7.27
312.864	43.06
313.078	59.3
313.292	137.08
313.507	87.71
313.721	126.8
313.935	55.91
314.149	42.46
314.363	16.39
314.578	20.15
314.792	10.35
315.006	2.38
315.22	15.84
315.434	15.7
315.648	27.78
315.862	30.09
316.077	15.25
316.291	9.5
316.505	12.48
316.719	-12.84
316.933	-8.18
317.147	5.03
317.361	-63.01
317.575	-87.36
317.789	-101.36
318.003	-179.81
318.217	-144.03
318.431	-36.93
318.645	11.15
318.859	3.32
319.073	32.56
319.287	27.29
319.5	0.24
319.714	-26.88
319.928	-29.07
320.142	-50.9
320.356	20.15
320.57	43.02
320.784	39.64
320.997	36.61
321.211	20.84
321.425	-56.4
321.639	-81.3
321.853	-27.26
322.066	-16.53
322.28	-11.07
322.494	0.09
322.707	17.77
322.921	-2.88
323.135	-2.6
323.349	0.41
323.562	-11.84
323.776	-21.19
323.989	-13.79
324.203	-22.49
324.417	-29.33
324.63	-44.39
324.844	-63.34
325.057	-68.77
325.271	-41.21
325.485	-6.67
325.698	13.05
325.912	39.26
326.125	30.03
326.339	27.17
326.552	-8.44
326.766	-18.66
326.979	-18.87
327.193	14.83
327.406	-16.36
327.619	2.26
327.833	23.74
328.046	10.27
328.26	-25.37
328.473	6.94
328.686	-11.97
328.9	-26.86
329.113	-8.91
329.326	-17.51
329.54	-3.32
329.753	-0.85
329.966	-8.56
330.179	-19.45
330.393	1.85
330.606	-5.45
330.819	14.06
331.032	29.98
331.246	36.65
331.459	54.89
331.672	54.2
331.885	46.96
332.098	26.38
332.311	17.79
332.525	-35.15
332.738	-48.29
332.951	-31.72
333.164	-3.77
333.377	5.48
333.59	32.07
333.803	43.74
334.016	28.85
334.229	20.93
334.442	36.04
334.655	49.5
334.868	45.51
335.081	53.93
335.294	57.11
335.507	46.42
335.72	27.3
335.933	21.6
336.146	27.68
336.359	6.9
336.572	-21.05
336.785	-50.35
336.997	-46.57
337.21	-29.61
337.423	-12.46
337.636	-16.62
337.849	11.11
338.062	4.06
338.274	1.31
338.487	-15.68
338.7	-8.56
338.913	-51.83
339.125	-51.44
339.338	-121.13
339.551	-101.65
339.763	-66.13
339.976	-38.94
340.189	-13.88
340.402	18.89
340.614	15.64
340.827	17.02
341.039	12.53
341.252	0.84
341.465	14.82
341.677	14.23
341.89	-20.03
342.102	5.12
342.315	-9.82
342.527	-56.53
342.74	-34.82
342.952	-11.46
343.165	-5.32
343.377	22.72
343.59	24.3
343.802	25.46
344.015	29.61
344.227	14.93
344.44	-1.65
344.652	5.95
344.864	-15.25
345.077	17.6
345.289	26.94
345.502	26.41
345.714	20.45
345.926	33.58
346.139	17.13
346.351	23.87
346.563	31.19
346.775	23.02
346.988	9.62
347.2	-1.5
347.412	-61.14
347.624	-74.59
347.837	-74.72
348.049	-27.22
348.261	-3.79
348.473	15.93
348.685	-7.04
348.897	-3.58
349.11	-44.46
349.322	-86.59
349.534	-64.61
349.746	-40.62
349.958	-50.59
350.17	-30.5
350.382	-8.57
350.594	-11.88
350.806	-17.5
351.018	0.6
351.23	-30.56
351.442	-55.02
351.654	-62.56
351.866	-48.9
352.078	-62.07
352.29	-20.58
352.502	-1.59
352.714	11.21
352.926	-0.48
353.138	-5.53
353.35	-13.57
353.561	-17.64
353.773	-28.16
353.985	-14
354.197	4.02
354.409	0.91
354.621	-14.06
354.832	-15.22
355.044	-19.76
355.256	-41.74
355.468	-17.12
355.679	-6.64
355.891	2.53
356.103	-4.81
356.314	25.2
356.526	16.04
356.738	13.09
356.949	-4.71
357.161	15.02
357.373	-7.01
357.584	-19.34
357.796	-6.43
358.008	-5.12
358.219	0.07
358.431	-9.1
358.642	1.85
358.854	0.21
359.065	-14.01
359.277	-32.13
359.488	-39.97
359.7	-57.57
359.911	-84.14
360.123	-45.98
360.334	-56.32
360.546	-48.51
360.757	-40.72
360.969	-15.4
361.18	-25.6
361.391	-3.18
361.603	-20.57
361.814	-5.42
362.025	-12.96
362.237	-8.61
362.448	-3.85
362.659	14.3
362.871	2.54
363.082	11.05
363.293	7.7
363.504	-6.45
363.716	-21.55
363.927	-31.49
364.138	-45.31
364.349	-51.96
364.56	-49.79
364.772	-36.75
364.983	-13.13
365.194	-9.44
365.405	1.74
365.616	21.58
365.827	23.33
366.038	3.84
366.25	-0.24
366.461	-20.52
366.672	-0.43
366.883	18.05
367.094	28.44
367.305	18.57
367.516	23.56
367.727	-16.63
367.938	-25.23
368.149	-23.94
368.36	-15.32
368.571	-15.01
368.781	-11.84
368.992	-32.05
369.203	-57.4
369.414	-70.88
369.625	-70.2
369.836	-63.17
370.047	-86.32
370.258	-69.99
370.468	-66.03
370.679	-78.52
370.89	-67.74
371.101	-32.96
371.312	-25.83
371.522	-27.62
371.733	-21.59
371.944	-10.65
372.155	-7.8
372.365	-22.84
372.576	-16.76
372.787	-18.29
372.997	-45.08
373.208	-47.34
373.419	-13.74
373.629	-38.43
373.84	-38.08
374.05	-54.18
374.261	-47.58
374.472	-73.61
374.682	-26.15
374.893	-27.62
375.103	8.07
375.314	-0.78
375.524	5.63
375.735	8.62
375.945	17.97
376.156	1.25
376.366	2.58
376.577	-2.57
376.787	-18.42
376.997	-13.91
377.208	-9.41
377.418	-13.91
377.629	2.54
377.839	11.12
378.049	9.3
378.26	20.53
378.47	23.2
378.68	10.43
378.89	7.34
379.101	-8.41
379.311	-38.57
379.521	-64.29
379.732	-64.31
379.942	-49.74
380.152	-41.93
380.362	-7.55
380.572	5.06
380.783	15.91
380.993	20.42
381.203	32.72
381.413	29.74
381.623	33.54
381.833	29.69
382.043	14.67
382.253	7.77
382.463	10.11
382.674	-13.91
382.884	-30.85
383.094	-27.6
383.304	-20.4
383.514	-20.33
383.724	-2.36
383.934	-2.01
384.144	-10.05
384.353	-20.43
384.563	-20.93
384.773	-12.29
384.983	-18.72
385.193	-5.44
385.403	-1.73
385.613	3.6
385.823	0.51
386.033	7.86
386.242	-0.04
386.452	-4.94
386.662	-19.53
386.872	-9.46
387.082	-14.69
387.291	-15.49
387.501	-11.64
387.711	-1.06
387.921	-17.23
388.13	-14.25
388.34	-5.51
388.55	-9.32
388.759	-9.97
388.969	0.58
389.179	-1.46
389.388	-3.41
389.598	-0.26
389.807	-5.66
390.017	-12.05
390.227	-7.63
390.436	-4.96
390.646	-4.37
390.855	-1.17
391.065	0.31
391.274	-2.89
391.484	-8
391.693	-6.89
391.903	-4.9
392.112	0.88
392.322	1.88
392.531	5.63
392.74	5.64
392.95	-0.82
393.159	-5.03
393.369	-3.64
393.578	-4.2
393.787	-3.94
393.997	-0.2
394.206	-0.49
394.415	-1.07
394.625	-1.8
394.834	-2.67
395.043	-1.87
395.252	0.27
395.462	1.73
395.671	2.6
395.88	3.04
396.089	3.91
396.298	2.17
396.508	2.61
396.717	1.92
396.926	2.24
397.135	1.1
397.344	1.1
397.553	1.16
397.762	2.6
397.971	3.23
398.181	4.15
398.39	4.04
398.599	3.55
398.808	3.72
399.017	3.57
399.226	4.36
399.435	5.12
399.644	5.3
399.853	4.18
400.062	4.03
400.27	3.19
400.479	2.72
400.688	2.19
400.897	2.48
401.106	2.48
401.315	2.43
401.524	2.52
401.733	2.8
401.941	3.25
402.15	3.35
402.359	3.46
402.568	3.74
402.777	4.11
402.985	3.77
403.194	3.5
403.403	3.36
403.612	2.82
403.82	2.49
404.029	2.72
404.238	2.82
404.446	3.13
404.655	3.12
404.864	3.19
405.072	2.94
405.281	3.06
405.489	2.85
405.698	2.92
405.906	2.97
406.115	2.98
406.324	2.76
406.532	2.82
406.741	2.94
406.949	2.89
407.158	2.92
407.366	2.98
407.574	2.87
407.783	2.92
407.991	2.83
408.2	2.93
408.408	2.96
408.617	2.85
408.825	2.72
409.033	2.72
409.242	2.73
409.45	2.78
409.658	2.84
409.867	2.85
410.075	2.72
410.283	2.54
410.491	2.46
410.7	2.4
410.908	2.5
411.116	2.9
411.324	2.83
411.533	2.85
411.741	3.09
411.949	2.98
412.157	2.7
412.365	2.83
412.573	2.79
412.781	2.69
412.99	2.78
413.198	2.91
413.406	2.85
413.614	2.85
413.822	2.65
414.03	2.56
414.238	2.32
414.446	2.4
414.654	2.29
414.862	2.47
415.07	2.52
415.278	2.74
415.486	2.58
415.694	2.76
415.902	2.63
416.109	2.54
416.317	2.33
416.525	2.29
416.733	2.18
416.941	2.32
417.149	2.28
417.357	2.41
417.564	2.62
417.772	2.77
417.98	2.64
418.188	2.63
418.395	2.67
418.603	2.75
418.811	2.43
419.019	2.46
419.226	2.61
419.434	2.65
419.642	2.35
419.849	2.57
420.057	2.49
420.265	2.45
420.472	2.35
420.68	2.41
420.887	2.34
421.095	2.39
421.302	2.34
421.51	2.42
421.717	2.51
421.925	2.57
422.132	2.53
422.34	2.38
422.547	2.25
422.755	2.21
422.962	2.01
423.17	1.93
423.377	2
423.585	2.12
423.792	2.03
423.999	2.17
424.207	2.14
424.414	2.2
424.621	2.11
424.829	2.24
425.036	2.24
425.243	2.39
425.451	2.28
425.658	2.22
425.865	2.34
426.072	2.33
426.28	2.54
426.487	2.61
426.694	2.72
426.901	2.46
427.108	2.34
427.315	2.06
427.523	2.3
427.73	2.18
427.937	2.13
428.144	2.13
428.351	2.2
428.558	2.16
428.765	2.1
428.972	2.16
429.179	2.46
429.386	2.7
429.593	2.5
429.8	2.44
430.007	2.49
430.214	2.37
430.421	2.13
430.628	2.01
430.835	2.03
431.042	2.18
431.249	2.15
431.456	2.15
431.662	2.29
431.869	2.57
432.076	2.58
432.283	2.67
432.49	2.64
432.697	2.7
432.903	2.41
433.11	2.38
433.317	2.42
433.524	2.7
433.73	2.63
433.937	2.92
434.144	2.81
434.35	2.7
434.557	2.42
434.764	2.51
434.97	2.28
435.177	2.39
435.384	2.34
435.59	2.45
435.797	2.55
436.003	2.59
436.21	2.56
436.416	2.66
436.623	2.62
436.829	2.64
437.036	2.83
437.242	2.87
437.449	2.71
437.655	2.76
437.862	2.69
438.068	2.5
438.275	2.56
438.481	2.93
438.687	2.93
438.894	2.91
439.1	3.08
439.307	3.19
439.513	2.92
439.719	2.89
439.926	2.94
440.132	2.8
440.338	2.66
440.544	2.82
440.751	2.83
440.957	2.93
441.163	2.95
441.369	3.02
441.575	2.84
441.782	2.78
441.988	2.65
442.194	2.69
442.4	2.66
442.606	2.92
442.812	2.98
443.018	3.08
443.224	3.2
443.431	3.28
443.637	3.09
443.843	3.04
444.049	3.05
444.255	2.86
444.461	2.86
444.667	2.87
444.873	3.07
445.079	3.04
445.284	3.21
445.49	3.01
445.696	2.97
445.902	2.79
446.108	2.72
446.314	2.63
446.52	2.71
446.726	2.86
446.931	2.91
447.137	2.97
447.343	3.01
447.549	2.97
447.755	2.86
447.96	2.88
448.166	2.81
448.372	2.78
448.578	2.89
448.783	2.89
448.989	2.91
449.195	3.16
449.4	3.12
449.606	3.04
449.812	3.03
450.017	3.03
450.223	2.9
450.428	2.87
450.634	3.02
450.84	3.14
451.045	3.11
451.251	2.99
451.456	3.26
451.662	3.18
451.867	3.23
452.073	3.23
452.278	3.37
452.483	3.37
452.689	3.35
452.894	3.27
453.1	3.33
453.305	3.28
453.51	3.21
453.716	3.18
453.921	3.16
454.127	3.15
454.332	3.15
454.537	3.1
454.742	3.18
454.948	3.24
455.153	3.2
455.358	3.22
455.563	3.28
455.769	3.28
455.974	3.18
456.179	3.08
456.384	3.09
456.589	3.09
456.795	2.93
457	2.9
457.205	3.09
457.41	3.09
457.615	3.06
457.82	3.2
458.025	3.28
458.23	3.13
458.435	3.13
458.64	3.03
458.845	3.1
459.05	3.08
459.255	3.16
459.46	3.1
459.665	3.12
459.87	3.08
460.075	3.03
460.28	3.09
460.485	3.18
460.69	3.24
460.895	3.13
461.099	3.16
461.304	3.18
461.509	3.19
461.714	3.15
461.919	3.27
462.123	3.24
462.328	3.17
462.533	3.12
462.738	3.18
462.942	3.14
463.147	3.19
463.352	3.2
463.556	3.23
463.761	3.3
463.966	3.27
464.17	3.26
464.375	3.26
464.58	3.26
464.784	3.16
464.989	3.12
465.193	3.17
465.398	3.19
465.602	3.27
465.807	3.28
466.011	3.39
466.216	3.46
466.42	3.55
466.625	3.6
466.829	3.69
467.034	3.69
467.238	3.75
467.443	3.63
467.647	3.47
467.851	3.47
468.056	3.52
468.26	3.48
468.464	3.53
468.669	3.68
468.873	3.81
469.077	3.79
469.282	3.88
469.486	4
469.69	4
469.894	3.82
470.099	3.87
470.303	3.87
470.507	3.7
470.711	3.6
470.915	3.63
471.119	3.58
471.324	3.48
471.528	3.54
471.732	3.61
471.936	3.57
472.14	3.67
472.344	3.76
472.548	3.88
472.752	3.96
472.956	4.22
473.16	4.14
473.364	4.06
473.568	4.05
473.772	4.07
473.976	3.92
474.18	3.93
474.384	4.05
474.588	3.97
474.792	3.87
474.995	3.92
475.199	4
475.403	4.03
475.607	4.11
475.811	4.13
476.015	4.2
476.218	4.18
476.422	4.07
476.626	4.12
476.83	4.23
477.033	4.12
477.237	4.11
477.441	4.16
477.644	4.11
477.848	4.08
478.052	4.09
478.255	4.09
478.459	4.08
478.663	4.16
478.866	4.16
479.07	4.24
479.273	4.45
479.477	4.46
479.681	4.44
479.884	4.48
480.088	4.42
480.291	4.31
480.495	4.3
480.698	4.32
480.901	4.34
481.105	4.48
481.308	4.42
481.512	4.49
481.715	4.56
481.919	4.56
482.122	4.5
482.325	4.53
482.529	4.5
482.732	4.42
482.935	4.42
483.138	4.42
483.342	4.51
483.545	4.56
483.748	4.6
483.952	4.67
484.155	4.75
484.358	4.75
484.561	4.69
484.764	4.7
484.967	4.7
485.171	4.73
485.374	4.63
485.577	4.77
485.78	4.77
485.983	4.8
486.186	4.73
486.389	4.77
486.592	4.71
486.795	4.77
486.998	4.7
487.201	4.72
487.404	4.82
487.607	4.88
487.81	4.86
488.013	4.95
488.216	4.95
488.419	4.98
488.622	4.94
488.825	4.85
489.028	4.78
489.231	4.72
489.433	4.61
489.636	4.51
489.839	4.59
490.042	4.51
490.245	4.52
490.447	4.55
490.65	4.64
490.853	4.63
491.056	4.74
491.258	4.81
491.461	4.81
491.664	4.86
491.866	4.79
492.069	4.83
492.272	4.78
492.474	4.87
492.677	4.91
492.879	4.99
493.082	5.03
493.285	5.21
493.487	5.14
493.69	5.03
493.892	4.99
494.095	4.89
494.297	4.79
494.5	4.84
494.702	4.9
494.905	4.95
495.107	5
495.309	4.96
495.512	5.01
495.714	5.08
495.917	5.1
496.119	5.13
496.321	5.26
496.524	5.22
496.726	5.25
496.928	5.23
497.13	5.22
497.333	5.17
497.535	5.27
497.737	5.24
497.939	5.31
498.142	5.34
498.344	5.32
498.546	5.2
498.748	5.26
498.95	5.33
499.152	5.34
499.355	5.37
499.557	5.46
499.759	5.47
499.961	5.41
500.163	5.41
500.365	5.44
500.567	5.5
500.769	5.45
500.971	5.5
501.173	5.45
501.375	5.49
501.577	5.41
501.779	5.43
501.981	5.46
502.183	5.48
502.385	5.38
502.587	5.38
502.788	5.44
502.99	5.43
503.192	5.51
503.394	5.54
503.596	5.6
503.798	5.64
503.999	5.67
504.201	5.66
504.403	5.73
504.605	5.72
504.806	5.7
505.008	5.66
505.21	5.78
505.411	5.81
505.613	5.86
505.815	5.91
506.016	6.02
506.218	6
506.42	6
506.621	6.04
506.823	6.03
507.024	5.93
507.226	5.94
507.427	5.95
507.629	6.01
507.83	6.02
508.032	6.03
508.233	6.09
508.435	6.17
508.636	6.24
508.838	6.22
509.039	6.25
509.24	6.24
509.442	6.2
509.643	6.13
509.845	6.17
510.046	6.29
510.247	6.3
510.448	6.31
510.65	6.34
510.851	6.49
511.052	6.44
511.254	6.47
511.455	6.62
511.656	6.68
511.857	6.68
512.058	6.75
512.26	6.74
512.461	6.67
512.662	6.73
512.863	6.64
513.064	6.66
513.265	6.74
513.466	6.81
513.667	6.74
513.868	6.82
514.069	6.89
514.27	6.96
514.471	6.9
514.672	6.94
514.873	6.91
515.074	6.91
515.275	6.77
515.476	6.78
515.677	6.8
515.878	6.94
516.079	6.91
516.28	7.02
516.481	7.15
516.682	7.19
516.882	7.13
517.083	7.14
517.284	7.1
517.485	7.06
517.686	7.03
517.886	7.01
518.087	7.03
518.288	7.09
518.488	7.05
518.689	7.08
518.89	7.1
519.091	7.15
519.291	7.15
519.492	7.22
519.692	7.27
519.893	7.35
520.094	7.35
520.294	7.4
520.495	7.38
520.695	7.39
520.896	7.4
521.096	7.4
521.297	7.38
521.497	7.39
521.698	7.33
521.898	7.33
522.099	7.36
522.299	7.46
522.499	7.51
522.7	7.6
522.9	7.57
523.101	7.66
523.301	7.63
523.501	7.63
523.702	7.66
523.902	7.75
524.102	7.74
524.302	7.73
524.503	7.82
524.703	7.85
524.903	7.89
525.103	7.87
525.304	7.98
525.504	8.02
525.704	8.01
525.904	7.98
526.104	7.98
526.304	7.96
526.504	7.94
526.705	7.91
526.905	8.01
527.105	8.05
527.305	8.03
527.505	7.94
527.705	7.95
527.905	7.89
528.105	7.88
528.305	7.88
528.505	7.96
528.705	8.08
528.905	8.1
529.105	8.15
529.304	8.26
529.504	8.37
529.704	8.29
529.904	8.32
530.104	8.34
530.304	8.37
530.503	8.32
530.703	8.27
530.903	8.24
531.103	8.28
531.303	8.26
531.502	8.29
531.702	8.48
531.902	8.49
532.101	8.43
532.301	8.41
532.501	8.37
532.7	8.25
532.9	8.31
533.1	8.4
533.299	8.4
533.499	8.46
533.698	8.48
533.898	8.45
534.097	8.42
534.297	8.5
534.496	8.55
534.696	8.63
534.895	8.73
535.095	8.9
535.294	8.85
535.494	8.79
535.693	8.83
535.892	8.83
536.092	8.74
536.291	8.69
536.491	8.77
536.69	8.82
536.889	8.73
537.088	8.7
537.288	8.87
537.487	8.95
537.686	8.91
537.886	9.03
538.085	9.11
538.284	9.13
538.483	9.12
538.682	9.21
538.882	9.2
539.081	9.22
539.28	9.16
539.479	9.16
539.678	9.11
539.877	9.25
540.076	9.26
540.275	9.33
540.474	9.4
540.673	9.45
540.872	9.36
541.071	9.45
541.27	9.44
541.469	9.44
541.668	9.4
541.867	9.48
542.066	9.48
542.265	9.6
542.464	9.64
542.663	9.76
542.862	9.89
543.06	9.94
543.259	9.98
543.458	10.02
543.657	10.08
543.856	10.09
544.054	10.07
544.253	10
544.452	10.01
544.651	10.06
544.849	10.03
545.048	10.13
545.247	10.22
545.445	10.28
545.644	10.28
545.843	10.27
546.041	10.28
546.24	10.35
546.438	10.45
546.637	10.51
546.836	10.72
547.034	10.8
547.233	10.84
547.431	10.84
547.63	10.88
547.828	10.85
548.027	10.91
548.225	10.91
548.423	10.95
548.622	11.02
548.82	11.04
549.019	11.11
549.217	11.27
549.415	11.31
549.614	11.45
549.812	11.54
550.01	11.55
550.209	11.61
550.407	11.69
550.605	11.63
550.803	11.7
551.002	11.8
551.2	11.8
551.398	11.87
551.596	12.04
551.794	12.09
551.993	12.16
552.191	12.32
552.389	12.45
552.587	12.54
552.785	12.6
552.983	12.67
553.181	12.74
553.379	12.87
553.577	12.87
553.775	13.02
553.973	13.14
554.171	13.19
554.369	13.11
554.567	13.25
554.765	13.26
554.963	13.34
555.161	13.39
555.359	13.57
555.557	13.68
555.755	13.78
555.952	13.9
556.15	13.99
556.348	14.12
556.546	14.2
556.744	14.25
556.941	14.3
557.139	14.42
557.337	14.38
557.535	14.45
557.732	14.55
557.93	14.67
558.128	14.75
558.325	14.87
558.523	14.92
558.721	15.09
558.918	15.16
559.116	15.24
559.313	15.37
559.511	15.52
559.708	15.55
559.906	15.64
560.104	15.72
560.301	15.83
560.498	15.89
560.696	16.03
560.893	16.14
561.091	16.25
561.288	16.33
561.486	16.39
561.683	16.49
561.88	16.53
562.078	16.68
562.275	16.69
562.473	16.84
562.67	17.01
562.867	17.14
563.064	17.18
563.262	17.29
563.459	17.3
563.656	17.32
563.853	17.41
564.051	17.58
564.248	17.7
564.445	17.81
564.642	17.88
564.839	18.04
565.036	18.16
565.234	18.43
565.431	18.56
565.628	18.67
565.825	18.8
566.022	18.87
566.219	18.86
566.416	19.02
566.613	19.16
566.81	19.23
567.007	19.24
567.204	19.23
567.401	19.22
567.598	19.26
567.795	19.32
567.991	19.36
568.188	19.48
568.385	19.62
568.582	19.6
568.779	19.71
568.976	19.92
569.172	20.02
569.369	19.98
569.566	20.13
569.763	20.21
569.96	20.17
570.156	20.21
570.353	20.31
570.55	20.33
570.746	20.3
570.943	20.4
571.14	20.4
571.336	20.52
571.533	20.67
571.729	20.67
571.926	20.72
572.123	20.87
572.319	20.86
572.516	20.82
572.712	20.96
572.909	20.98
573.105	21.02
573.302	21.09
573.498	21.2
573.695	21.11
573.891	21.12
574.087	21.05
574.284	21.02
574.48	20.94
574.677	21.03
574.873	21.1
575.069	21.21
575.266	21.25
575.462	21.27
575.658	21.35
575.854	21.43
576.051	21.51
576.247	21.54
576.443	21.58
576.639	21.54
576.835	21.44
577.032	21.33
577.228	21.52
577.424	21.5
577.62	21.46
577.816	21.55
578.012	21.59
578.208	21.48
578.404	21.53
578.6	21.53
578.796	21.58
578.993	21.56
579.189	21.54
579.384	21.51
579.58	21.47
579.776	21.41
579.972	21.45
580.168	21.35
580.364	21.34
580.56	21.34
580.756	21.34
580.952	21.2
581.148	21.25
581.343	21.29
581.539	21.4
581.735	21.4
581.931	21.45
582.127	21.45
582.322	21.44
582.518	21.38
582.714	21.42
582.909	21.38
583.105	21.37
583.301	21.35
583.496	21.32
583.692	21.17
583.888	21.2
584.083	21.26
584.279	21.23
584.474	21.29
584.67	21.44
584.866	21.38
585.061	21.16
585.257	21.27
585.452	21.21
585.648	21.09
585.843	21.21
586.039	21.28
586.234	21.16
586.429	21.15
586.625	21.28
586.82	21.21
587.015	21.31
587.211	21.23
587.406	21.25
587.601	21.16
587.797	21.08
587.992	20.97
588.187	21.12
588.383	21.06
588.578	21.04
588.773	21.12
588.968	21.24
589.163	21.22
589.359	21.27
589.554	21.28
589.749	21.26
589.944	21.26
590.139	21.28
590.334	21.27
590.529	21.27
590.724	21.34
590.919	21.43
591.114	21.43
591.309	21.49
591.504	21.57
591.699	21.65
591.894	21.58
592.089	21.59
592.284	21.65
592.479	21.76
592.674	21.73
592.869	21.84
593.064	22.03
593.259	22.09
593.454	22.21
593.648	22.24
593.843	22.17
594.038	22.14
594.233	22.13
594.428	22.06
594.622	22.19
594.817	22.38
595.012	22.44
595.206	22.52
595.401	22.57
595.596	22.51
595.79	22.62
595.985	22.71
596.18	22.81
596.374	22.91
596.569	23.09
596.763	23.12
596.958	23.19
597.153	23.29
597.347	23.3
597.542	23.42
597.736	23.41
597.931	23.46
598.125	23.38
598.319	23.57
598.514	23.52
598.708	23.65
598.903	23.76
599.097	23.91
599.291	23.88
599.486	23.85
599.68	23.91
599.874	23.89
600.069	23.94
600.263	23.93
600.457	24.13
600.651	24.09
600.846	24.16
601.04	24.17
601.234	24.28
601.428	24.31
601.622	24.38
601.817	24.44
602.011	24.51
602.205	24.55
602.399	24.48
602.593	24.52
602.787	24.46
602.981	24.43
603.175	24.42
603.369	24.43
603.563	24.44
603.757	24.51
603.951	24.64
604.145	24.63
604.339	24.63
604.533	24.54
604.727	24.44
604.921	24.37
605.115	24.39
605.309	24.62
605.502	24.7
605.696	24.66
605.89	24.59
606.084	24.46
606.278	24.23
606.471	24.11
606.665	24.05
606.859	24.01
607.053	24.01
607.246	23.99
607.44	24.01
607.634	24.08
607.827	23.99
608.021	23.95
608.214	23.84
608.408	23.67
608.602	23.53
608.795	23.51
608.989	23.39
609.182	23.36
609.376	23.35
609.569	23.31
609.763	23.19
609.956	23.1
610.15	23.02
610.343	22.98
610.537	22.89
610.73	22.89
610.923	22.85
611.117	22.83
611.31	22.7
611.504	22.62
611.697	22.51
611.89	22.46
612.083	22.35
612.277	22.38
612.47	22.3
612.663	22.3
612.856	22.29
613.05	22.22
613.243	22.14
613.436	22.05
613.629	21.89
613.822	21.74
614.015	21.7
614.209	21.55
614.402	21.6
614.595	21.55
614.788	21.53
614.981	21.43
615.174	21.37
615.367	21.28
615.56	21.19
615.753	21.17
615.946	21.12
616.139	21.06
616.332	21.02
616.525	21
616.718	20.96
616.911	20.92
617.103	20.97
617.296	20.85
617.489	20.8
617.682	20.76
617.875	20.69
618.067	20.58
618.26	20.53
618.453	20.56
618.646	20.52
618.838	20.59
619.031	20.68
619.224	20.66
619.417	20.64
619.609	20.59
619.802	20.49
619.994	20.34
620.187	20.26
620.38	20.14
620.572	19.98
620.765	19.98
620.957	19.9
621.15	19.92
621.342	19.81
621.535	19.88
621.727	19.8
621.92	19.79
622.112	19.71
622.305	19.81
622.497	19.73
622.69	19.74
622.882	19.77
623.074	19.79
623.267	19.67
623.459	19.67
623.651	19.61
623.844	19.63
624.036	19.63
624.228	19.58
624.42	19.58
624.613	19.66
624.805	19.62
624.997	19.57
625.189	19.62
625.381	19.65
625.574	19.55
625.766	19.51
625.958	19.47
626.15	19.56
626.342	19.52
626.534	19.52
626.726	19.5
626.918	19.52
627.11	19.41
627.302	19.34
627.494	19.23
627.686	19.15
627.878	19.11
628.07	19.1
628.262	19.05
628.454	19.04
628.646	19.07
628.838	19.04
629.029	19.01
629.221	19.07
629.413	19.02
629.605	18.91
629.797	18.88
629.989	18.82
630.18	18.73
630.372	18.71
630.564	18.68
630.755	18.7
630.947	18.7
631.139	18.62
631.33	18.56
631.522	18.61
631.714	18.56
631.905	18.58
632.097	18.48
632.289	18.56
632.48	18.44
632.672	18.28
632.863	18.11
633.055	18.14
633.246	18
633.438	17.96
633.629	17.95
633.821	17.98
634.012	17.96
634.203	17.93
634.395	17.96
634.586	18.01
634.777	17.93
634.969	17.86
635.16	17.9
635.351	17.83
635.543	17.86
635.734	17.87
635.925	17.85
636.117	17.83
636.308	17.87
636.499	17.68
636.69	17.64
636.881	17.67
637.073	17.72
637.264	17.62
637.455	17.72
637.646	17.76
637.837	17.77
638.028	17.65
638.219	17.77
638.41	17.72
638.601	17.64
638.792	17.57
638.983	17.56
639.174	17.42
639.365	17.45
639.556	17.48
639.747	17.5
639.938	17.52
640.129	17.51
640.32	17.4
640.511	17.35
640.701	17.41
640.892	17.32
641.083	17.29
641.274	17.32
641.465	17.24
641.655	17.07
641.846	17.02
642.037	17
642.228	16.91
642.418	16.92
642.609	16.94
642.8	17.04
642.99	16.89
643.181	16.87
643.372	16.9
643.562	16.82
643.753	16.7
643.943	16.69
644.134	16.6
644.324	16.45
644.515	16.41
644.705	16.5
644.896	16.53
645.086	16.56
645.277	16.57
645.467	16.62
645.658	16.5
645.848	16.53
646.038	16.48
646.229	16.41
646.419	16.27
646.61	16.25
646.8	16.15
646.99	16.22
647.18	16.24
647.371	16.29
647.561	16.21
647.751	16.29
647.941	16.19
648.132	16.18
648.322	16.11
648.512	16.22
648.702	16.17
648.892	16.2
649.082	16.14
649.272	16.04
649.462	15.83
649.653	15.71
649.843	15.58
650.033	15.65
650.223	15.76
650.413	15.8
650.603	15.82
650.793	15.88
650.983	15.74
651.172	15.62
651.362	15.64
651.552	15.47
651.742	15.43
651.932	15.38
652.122	15.38
652.312	15.43
652.502	15.54
652.691	15.45
652.881	15.43
653.071	15.43
653.261	15.16
653.45	14.91
653.64	14.99
653.83	14.9
654.019	14.76
654.209	14.73
654.399	14.75
654.588	14.52
654.778	14.39
654.968	14.28
655.157	14.19
655.347	14.1
655.536	13.99
655.726	13.92
655.915	13.78
656.105	13.66
656.294	13.58
656.484	13.5
656.673	13.39
656.863	13.34
657.052	13.25
657.241	13.02
657.431	12.76
657.62	12.56
657.809	12.2
657.999	11.97
658.188	11.81
658.377	11.66
658.567	11.7
658.756	11.7
658.945	11.54
659.134	11.35
659.324	11.35
659.513	11.01
659.702	10.86
659.891	10.82
660.08	10.71
660.269	10.49
660.458	10.37
660.648	10.24
660.837	10.14
661.026	10.12
661.215	9.98
661.404	9.86
661.593	9.76
661.782	9.48
661.971	9.39
662.16	9.32
662.349	9.29
662.538	9.14
662.726	9.1
662.915	8.81
663.104	8.63
663.293	8.5
663.482	8.48
663.671	8.39
663.86	8.37
664.048	8.27
664.237	8.15
664.426	7.88
664.615	7.81
664.803	7.73
664.992	7.66
665.181	7.57
665.369	7.53
665.558	7.35
665.747	7.18
665.935	7.25
666.124	7.24
666.312	7.28
666.501	7.27
666.69	7.24
666.878	7.01
667.067	6.88
667.255	6.86
667.444	7
667.632	7.01
667.82	7.08
668.009	7.11
668.197	7.04
668.386	6.89
668.574	6.95
668.762	6.8
668.951	6.7
669.139	6.65
669.327	6.59
669.516	6.65
669.704	6.67
669.892	6.9
670.08	6.99
670.269	6.89
670.457	6.71
670.645	6.62
670.833	6.48
671.021	6.42
671.21	6.6
671.398	6.86
671.586	6.95
671.774	6.83
671.962	6.81
672.15	6.79
672.338	6.65
672.526	6.64
672.714	6.68
672.902	6.76
673.09	6.88
673.278	7.05
673.466	7.24
673.654	7.47
673.842	7.51
674.03	7.42
674.218	7.33
674.405	7.31
674.593	7.26
674.781	7.34
674.969	7.41
675.157	7.55
675.344	7.75
675.532	7.82
675.72	7.92
675.908	7.98
676.095	7.93
676.283	7.87
676.471	7.95
676.658	7.96
676.846	8.03
677.033	8.17
677.221	8.25
677.409	8.19
677.596	8.27
677.784	8.36
677.971	8.44
678.159	8.39
678.346	8.56
678.534	8.68
678.721	8.88
678.909	8.9
679.096	8.99
679.283	9.24
679.471	9.27
679.658	9.22
679.846	9.48
680.033	9.67
680.22	9.72
680.408	9.79
680.595	9.93
680.782	9.77
680.969	9.93
681.157	10.03
681.344	10.26
681.531	10.38
681.718	10.54
681.905	10.75
682.093	10.9
682.28	11.07
682.467	11.34
682.654	11.56
682.841	11.6
683.028	11.8
683.215	11.91
683.402	11.94
683.589	12.04
683.776	12.3
683.963	12.3
684.15	12.44
684.337	12.7
684.524	12.97
684.711	13.12
684.898	13.29
685.085	13.56
685.271	13.98
685.458	14.26
685.645	14.44
685.832	14.92
686.019	15.17
686.205	15.36
686.392	15.68
686.579	16.02
686.766	16.43
686.952	16.8
687.139	17.3
687.326	17.43
687.512	17.77
687.699	18.03
687.886	18.24
688.072	18.42
688.259	19.05
688.445	19.6
688.632	19.9
688.818	20.54
689.005	20.86
689.191	21.23
689.378	21.81
689.564	22.41
689.751	22.85
689.937	23.29
690.124	23.96
690.31	24.31
690.496	24.83
690.683	25.34
690.869	25.94
691.055	26.33
691.242	27.04
691.428	27.63
691.614	28.33
691.8	29.11
691.987	29.75
692.173	30.37
692.359	30.91
692.545	31.49
692.731	32.03
692.918	32.68
693.104	33.21
693.29	33.92
693.476	34.68
693.662	35.39
693.848	36.08
694.034	36.66
694.22	37.28
694.406	37.97
694.592	38.62
694.778	39.16
694.964	39.85
695.15	40.48
695.336	41.03
695.522	41.98
695.708	42.86
695.894	43.63
696.08	44.48
696.265	45.12
696.451	45.73
696.637	46.39
696.823	46.91
697.009	47.34
697.194	48.03
697.38	48.27
697.566	48.85
697.751	49.37
697.937	50.27
698.123	50.86
698.308	51.82
698.494	52.31
698.68	52.99
698.865	53.49
699.051	54
699.236	54.47
699.422	55.06
699.607	55.53
699.793	56.05
699.978	56.52
700.164	57.01
700.349	57.64
700.535	58.2
700.72	58.57
700.906	59.35
701.091	59.7
701.276	60.14
701.462	61.13
701.647	61.99
701.832	62.67
702.018	63.32
702.203	63.61
702.388	63.44
702.573	63.51
702.759	63.84
702.944	64.1
703.129	64.77
703.314	65.57
703.499	65.86
703.684	66.1
703.87	67.19
704.055	67.83
704.24	68.28
704.425	69.47
704.61	70.1
704.795	69.96
704.98	69.86
705.165	69.87
705.35	69.8
705.535	69.66
705.72	69.96
705.905	70.74
706.09	71.28
706.275	71.49
706.459	71.92
706.644	72.04
706.829	72.24
707.014	72.24
707.199	72.64
707.384	73.16
707.568	73.46
707.753	73.82
707.938	74.37
708.123	74.27
708.307	74.41
708.492	75.01
708.677	75.11
708.861	75.26
709.046	75.63
709.231	76.17
709.415	76.63
709.6	76.85
709.784	77.06
709.969	77.43
710.153	77.49
710.338	77.39
710.522	77.73
710.707	78.25
710.891	78.39
711.076	78.58
711.26	78.81
711.445	78.81
711.629	79.18
711.813	79.33
711.998	79.63
712.182	79.5
712.366	80.1
712.551	80.22
712.735	80.59
712.919	80.41
713.103	81
713.288	80.91
713.472	80.66
713.656	81.21
713.84	81.52
714.024	81.48
714.208	81.55
714.393	82.1
714.577	82.08
714.761	82.18
714.945	82.64
715.129	83.04
715.313	83.17
715.497	82.91
715.681	83.42
715.865	83.3
716.049	83.1
716.233	82.89
716.417	83.27
716.601	82.99
716.785	83.02
716.968	83.3
717.152	83.57
717.336	83.75
717.52	84.02
717.704	83.98
717.888	84.14
718.071	84.43
718.255	84.38
718.439	84.16
718.622	84.43
718.806	85.19
718.99	84.87
719.174	84.6
719.357	84.58
719.541	84.61
719.724	84.1
719.908	85.08
720.092	85.93
720.275	86.73
720.459	87.05
720.642	87.19
720.826	86.84
721.009	86.34
721.193	86.01
721.376	86.02
721.559	86.26
721.743	86.17
721.926	86.7
722.11	86.86
722.293	86.71
722.476	86.46
722.66	86.68
722.843	86.62
723.026	86.3
723.21	86.78
723.393	87.42
723.576	87.46
723.759	86.83
723.942	87.24
724.126	87.19
724.309	86.74
724.492	86.88
724.675	87.03
724.858	87.6
725.041	87.84
725.224	88.11
725.407	88.41
725.59	89.1
725.774	88.62
725.957	88.28
726.14	88.32
726.322	88.76
726.505	88.81
726.688	89.03
726.871	89.3
727.054	89.33
727.237	89.03
727.42	89.74
727.603	90.04
727.786	90.33
727.968	90.5
728.151	89.97
728.334	89.29
728.517	89.5
728.699	90.02
728.882	90.11
729.065	90.58
729.248	91.44
729.43	91.52
729.613	91.54
729.796	92.55
729.978	91.45
730.161	90.93
730.343	90.7
730.526	91.09
730.708	89.44
730.891	90.63
731.073	91.17
731.256	91.45
731.438	90.82
731.621	92.2
731.803	92.4
731.986	92.16
732.168	91.23
732.35	91.38
732.533	91.04
732.715	90.18
732.898	90.25
733.08	91.33
733.262	91.75
733.444	91.34
733.627	92.79
733.809	92.95
733.991	93.32
734.173	92.66
734.355	93.15
734.538	93.5
734.72	93.09
734.902	93.08
735.084	93.77
735.266	93.2
735.448	93.05
735.63	93.78
735.812	93.49
735.994	94.45
736.176	95.25
736.358	94.71
736.54	95.45
736.722	95.19
736.904	94.05
737.086	93.71
737.268	94.64
737.45	94.13
737.632	94.11
737.814	93.88
737.995	94.71
738.177	94.38
738.359	94.25
738.541	95.2
738.723	95.75
738.904	95.84
739.086	95.1
739.268	94.68
739.449	94.41
739.631	93.64
739.813	93.2
739.994	94.33
740.176	94.66
740.358	94.42
740.539	95.56
740.721	96.51
740.902	96.6
741.084	96.11
741.265	96.11
741.447	95.51
741.628	94.64
741.81	93.89
741.991	94.79
742.172	95.2
742.354	96.32
742.535	96.82
742.717	97.15
742.898	97.51
743.079	98.44
743.261	98.02
743.442	96.89
743.623	98.21
743.804	98.19
743.986	97.82
744.167	96.88
744.348	97.39
744.529	96.06
744.71	94.79
744.891	94.18
745.073	94.43
745.254	94.08
745.435	94.35
745.616	94.35
745.797	93.84
745.978	93.79
746.159	95.45
746.34	93.6
746.521	95.45
746.702	95.48
746.883	94.66
747.064	92.62
747.245	93.87
747.426	92.72
747.606	93.9
747.787	94.72
747.968	96
748.149	96.21
748.33	95.96
748.51	94.7
748.691	94.77
748.872	95
749.053	95.89
749.233	95.1
749.414	95.33
749.595	94.48
749.775	93.09
749.956	91.69
750.137	92.25
750.317	92.57
750.498	94.47
750.678	94.85
750.859	95.69
751.04	96.01
751.22	95.58
751.4	93.88
751.581	93.4
751.761	94
751.942	94.46
752.122	94.99
752.303	95.52
752.483	95.27
752.663	93.14
752.844	92.12
753.024	92.41
753.204	92.93
753.385	92.89
753.565	94.23
753.745	95.09
753.925	94.29
754.106	93.77
754.286	94.34
754.466	93.92
754.646	93.67
754.826	92.33
755.006	91.61
755.187	93.07
755.367	93.21
755.547	93.15
755.727	95.09
755.907	95.99
756.087	95.58
756.267	94.92
756.447	94.39
756.627	92.15
756.807	91.37
756.987	90.98
757.167	92.46
757.346	92.01
757.526	91.94
757.706	93.9
757.886	94.23
758.066	93.78
758.246	96.71
758.425	97.28
758.605	95.79
758.785	95.49
758.965	95.32
759.144	92.34
759.324	92.67
759.504	93.21
759.683	93.14
759.863	90.88
760.043	91.91
760.222	92.1
760.402	91.73
760.581	91.3
760.761	93.71
760.94	91.82
761.12	93.7
761.299	93.45
761.479	93.37
761.658	91.87
761.838	91.78
762.017	90.59
762.197	91.28
762.376	91.56
762.555	92.48
762.735	94.28
762.914	92.97
763.093	92.8
763.273	91.95
763.452	92.07
763.631	90.86
763.81	91.2
763.99	89.96
764.169	89.55
764.348	88.03
764.527	86.22
764.706	87.52
764.885	88.28
765.064	86.97
765.243	88.42
765.423	92.61
765.602	91.47
765.781	91.01
765.96	92.6
766.139	91.85
766.318	90.27
766.497	90.13
766.676	90.76
766.854	91.7
767.033	91.37
767.212	90.5
767.391	90.4
767.57	90.37
767.749	90.3
767.928	92.71
768.106	92.94
768.285	91.54
768.464	90.88
768.643	90.04
768.821	87.87
769	89.53
769.179	90.01
769.357	88.81
769.536	88.64
769.715	88.85
769.893	88.78
770.072	89.53
770.25	90.86
770.429	91.05
770.607	91.83
770.786	90.58
770.964	91.64
771.143	90.76
771.321	92.07
771.5	91.35
771.678	89.93
771.857	88.43
772.035	87.65
772.213	86.1
772.392	84.5
772.57	87.53
772.748	87.69
772.927	87.63
773.105	86.97
773.283	88.71
773.461	86.5
773.64	87.05
773.818	88.42
773.996	89.08
774.174	87.65
774.352	86.27
774.531	83.21
774.709	84.74
774.887	84.15
775.065	84.42
775.243	85.36
775.421	86.71
775.599	85.53
775.777	84.67
775.955	82.61
776.133	82.44
776.311	83.87
776.489	80.97
776.667	80.71
776.844	83.06
777.022	84.01
777.2	83.23
777.378	83.49
777.556	85.09
777.734	87.42
777.911	88.17
778.089	90.37
778.267	90.93
778.445	88.17
778.622	85.24
778.8	84.27
778.978	84.05
779.155	85.24
779.333	86.27
779.511	86.87
779.688	87.63
779.866	84.33
780.043	81.82
780.221	82.23
780.398	79.75
780.576	81.57
780.753	84.11
780.931	84.02
781.108	85.67
781.286	87.52
781.463	83.56
781.64	78.94
781.818	80.06
781.995	78.42
782.172	77.05
782.35	76.9
782.527	82.49
782.704	83.41
782.882	84.1
783.059	86.8
783.236	85.55
783.413	82.26
783.59	82.89
783.768	79.94
783.945	79.06
784.122	81.65
784.299	83.91
784.476	82.85
784.653	83.21
784.83	79.45
785.007	77.1
785.184	75.81
785.361	73.12
785.538	78.19
785.715	82.57
785.892	84.94
786.069	86.1
786.246	88.78
786.423	88.31
786.6	86.09
786.776	86.77
786.953	83.57
787.13	85.24
787.307	79.88
787.484	77.99
787.66	74.14
787.837	75.72
788.014	73.6
788.191	73.4
788.367	71.83
788.544	76.08
788.721	76.38
788.897	79.63
789.074	82.53
789.25	85.1
789.427	84.75
789.603	83.75
789.78	82.53
789.956	80.76
790.133	79.3
790.309	80.18
790.486	83.25
790.662	79.12
790.839	77.57
791.015	78.64
791.192	76.2
791.368	75.84
791.544	75.84
791.721	76.55
791.897	76.04
792.073	73.2
792.249	68.14
792.426	73.12
792.602	78.78
792.778	78.94
792.954	82.66
793.13	85.49
793.307	78.2
793.483	70.17
793.659	70.43
793.835	73.12
794.011	66.45
794.187	69.49
794.363	70.1
794.539	72.59
794.715	65.36
794.891	66.87
795.067	69.94
795.243	74.26
795.419	72.94
795.595	69.76
795.771	70.41
795.947	66.47
796.122	62.53
796.298	63.5
796.474	68.66
796.65	72.58
796.826	68.58
797.001	70.52
797.177	66.04
797.353	67.82
797.529	68.08
797.704	73.91
797.88	71.02
798.056	71.37
798.231	70.11
798.407	72.09
798.582	74.12
798.758	84.43
798.934	86.53
799.109	83.77
799.285	78.41
799.46	76.81
799.636	70.97
799.811	72.33
799.986	75.16
800.162	73.94
800.337	73.61
800.513	67.52
800.688	65.95
800.863	73.39
801.039	74.28
801.214	73.32
801.389	77.41
801.565	75.81
801.74	63.54
801.915	65.52
802.09	68.12
802.265	72.7
802.441	72.33
802.616	76.4
802.791	78.19
802.966	69.46
803.141	66.18
803.316	62.46
803.491	64.48
803.666	65.66
803.841	70.87
804.016	65.52
804.191	73.26
804.366	71.03
804.541	68.62
804.716	65.39
804.891	69.37
805.066	70.36
805.241	67.3
805.416	61.83
805.591	62.96
805.765	62.39
805.94	63.28
806.115	62.17
806.29	64.48
806.464	67.93
806.639	63.26
806.814	56.45
806.989	52.56
807.163	60.83
807.338	61.08
807.512	62.52
807.687	52.17
807.862	64.41
808.036	63.79
808.211	65.85
808.385	81.86
808.56	100.3
808.734	104.47
808.909	103.88
809.083	99.05
809.258	91.23
809.432	80.96
809.606	67.87
809.781	61.93
809.955	62.39
810.13	62.78
810.304	63.21
810.478	62.97
810.652	63.21
810.827	66.31
811.001	60.44
811.175	57.15
811.349	56.25
811.524	55.46
811.698	43.63
811.872	41.83
812.046	53.24
812.22	62.65
812.394	62.34
812.568	65.2
812.742	68.27
812.916	62.83
813.09	51.7
813.264	54.3
813.438	65.02
813.612	60.29
813.786	52.14
813.96	68.94
814.134	64.25
814.308	64.51
814.482	67.88
814.656	64.41
814.83	63.02
815.003	68.7
815.177	63.06
815.351	63.73
815.525	67.56
815.698	57.47
815.872	49.8
816.046	42.03
816.219	46.01
816.393	61.83
816.567	78.42
816.74	85.55
816.914	99.35
817.088	101.63
817.261	95.02
817.435	65.66
817.608	60.26
817.782	37.95
817.955	45.77
818.129	42.1
818.302	58.97
818.475	66.29
818.649	74.61
818.822	62.08
818.996	77.36
819.169	76.17
819.342	68.54
819.516	75.71
819.689	79.14
819.862	69.16
820.035	56.18
820.209	50.73
820.382	45.34
820.555	51.54
820.728	44.66
820.901	45.78
821.075	51.48
821.248	58.43
821.421	40.9
821.594	31.25
821.767	48.85
821.94	60.42
822.113	34.2
822.286	33.07
822.459	59.43
822.632	45.34
822.805	22.26
822.978	40.2
823.151	50.86
823.324	22.22
823.496	13.06
823.669	21.22
823.842	20.73
824.015	3.17
824.188	12.46
824.361	25.92
824.533	30.79
824.706	28.41
824.879	38.22
825.051	42.18
825.224	37.88
825.397	33.38
825.569	23.65
825.742	39.9
825.915	58.19
826.087	72.42
826.26	54.73
826.432	63.45
826.605	75.07
826.777	57.71
826.95	62.6
827.122	62.32
827.295	79.12
827.467	65.04
827.64	45.65
827.812	36.05
827.984	44.75
828.157	12.38
828.329	-13.51
828.501	20.72
828.674	34.76
828.846	33.32
829.018	56.24
829.19	38.33
829.363	56.7
829.535	60.83
829.707	59.84
829.879	33.78
830.051	48.82
830.223	20.83
830.395	-10.05
830.568	-21.61
830.74	6.04
830.912	18.4
831.084	19.69
831.256	30.3
831.428	36.53
831.6	15.69
831.772	-21.02
831.943	-38.77
832.115	-25.9
832.287	-1.03
832.459	0.41
832.631	34.93
832.803	55.17
832.975	79.5
833.146	61.8
833.318	62.24
833.49	54.47
833.662	36.18
833.833	7.65
834.005	9.99
834.177	21.4
834.348	31.51
834.52	37.11
834.692	47.62
834.863	58.74
835.035	44.35
835.206	-19.66
835.378	-4.03
835.549	-3.73
835.721	-4.8
835.892	-11.83
836.064	11.39
836.235	-8.69
836.407	-1.8
836.578	-17.47
836.749	-28.74
836.921	-79.14
837.092	-56.41
837.264	-60.7
837.435	-59.93
837.606	-5.79
837.777	26.27
837.949	42.51
838.12	51.78
838.291	57.18
838.462	45.17
838.633	16.76
838.805	7.01
838.976	-3.29
839.147	-68.42
839.318	-85.65
839.489	-118.8
839.66	-122.35
839.831	-49.34
840.002	-31.85
840.173	-36.77
840.344	14.19
840.515	30.92
840.686	-163.94
840.857	-95.85
841.028	-65.32
841.199	-36.5
841.369	-55.17
841.54	-31.92
841.711	-7.41
841.882	11.05
842.053	-4.96
842.223	4.84
842.394	14.59
842.565	10.2
842.736	13
842.906	18.33
843.077	24.67
843.248	56.32
843.418	72.71
843.589	54.46
843.759	94.43
843.93	71.59
844.101	12.98
844.271	4.91
844.442	21.57
844.612	20.26
844.783	-4.81
844.953	-39.8
845.123	-47.18
845.294	-55.67
845.464	-186.72
845.635	-30.55
845.805	17.91
845.975	-0.15
846.146	-51.7
846.316	-49.37
846.486	-27.8
846.656	8.49
846.827	5.03
846.997	18.52
847.167	50.79
847.337	17.63
847.507	-1.94
847.677	18.26
847.848	54.42
848.018	40.79
848.188	46.92
848.358	24.04
848.528	0.81
848.698	-55.09
848.868	-118.14
849.038	-232.25
849.208	-73.65
849.378	-20.6
849.548	-4.61
849.718	11.95
849.887	40.14
850.057	8.98
850.227	-7.59
850.397	-16.11
850.567	-114.05
850.737	-337.17
850.906	-845.63
851.076	-664.45
851.246	-272.51
851.415	-23.75
851.585	-28.79
851.755	-47.4
851.924	-27.03
852.094	-77.05
852.264	-143.69
852.433	-985.1
852.603	-252.1
852.772	-195.05
852.942	-81.43
853.111	-87.14
853.281	-38.11
853.45	8.56
853.62	-99.94
853.789	-95.95
853.959	-130.82
854.128	-119.86
854.297	-110.33
854.467	-93.31
854.636	-89.45
854.805	18.83
854.975	8.6
855.144	-34.93
855.313	391.26
855.482	93.07
855.652	-88.2
855.821	-89.39
855.99	40.01
856.159	28.61
856.328	30.95
856.497	23.01
856.667	38.2
856.836	29.63
857.005	-14.36
857.174	-27.35
857.343	-37.55
857.512	-34.67
857.681	-70.52
857.85	-86.13
858.019	-12.09
858.188	-21.18
858.356	-22.68
858.525	-73.76
858.694	-63.03
858.863	-200.1
859.032	-140.92
859.201	-164.7
859.369	-69.26
859.538	13.72
859.707	58.85
859.876	60.28
860.044	26.99
860.213	42.49
860.382	-1.46
860.55	-29.29
860.719	2.87
860.888	13.21
861.056	-4.75
861.225	2.89
861.393	36.68
861.562	36.84
861.73	-32.52
861.899	-170.42
862.067	-1225.86
862.236	-37.32
862.404	-148.27
862.572	-53.7
862.741	21.43
862.909	-1.12
863.078	-103
863.246	-80.62
863.414	-80.98
863.582	-61.54
863.751	-54.04
863.919	-38.29
864.087	16.36
864.255	20.9
864.424	-299.4
864.592	-19.9
864.76	-22.6
864.928	-104.4
865.096	-55.89
865.264	1.21
865.432	-1182.95
865.6	32.25
865.768	-61.46
865.936	-113.05
866.104	-105.9
866.272	-105.47
866.44	-434.06
866.608	615.49
866.776	258.72
866.944	2731.4
867.112	-581.57
867.28	-187.04
867.448	-96.61
867.615	-36.62
867.783	-8.7
867.951	-6.88
868.119	13.55
868.286	-15.53
868.454	-163
868.622	-140.69
868.789	-44.55
868.957	-975
869.125	-690.79
869.292	28.38
869.46	-54.84
869.627	3.25
869.795	-23.21
869.963	2.07
870.13	17.19
870.298	37.97
870.465	-43.84
870.632	-37.86
870.8	-29.87
870.967	-82.3
871.135	-150.79
871.302	-109.21
871.469	-149.67
871.637	-176.69
871.804	-99.34
871.971	-97.53
872.139	-367.67
872.306	-30.35
872.473	-76.77
872.64	-339.27
872.807	-197.24
872.975	-42.76
873.142	-334.36
873.309	2825.68
873.476	14.83
873.643	56.03
873.81	10.18
873.977	58.64
874.144	64.12
874.311	-133.06
874.478	-147.71
874.645	-154.41
874.812	-133.3
874.979	-61.94
875.146	-58.38
875.313	-70.1
875.48	19.86
875.647	-2.7
875.813	-29.58
875.98	2.1
876.147	-13.59
876.314	-69.52
876.481	650.83
876.647	-800.56
876.814	339.64
876.981	58.27
877.147	51.89
877.314	81.28
877.481	93.18
877.647	71.55
877.814	37.29
877.98	-35.2
878.147	-25.77
878.314	51.61
878.48	2.7
878.647	55.38
878.813	102.78
878.979	75.15
879.146	-5.54
879.312	23.44
879.479	-47.59
879.645	-140.11
879.811	-255.05
879.978	-534.73
880.144	-152.95
880.31	-73.24
880.477	-281.31
880.643	-389.26
880.809	-173.47
880.975	-181.56
881.142	-1294.09
881.308	-218.26
881.474	-110.08
881.64	-85.92
881.806	-122.85
881.972	-6.31
882.138	9.72
882.304	-3.89
882.47	-169.1
882.636	-837.3
882.802	-297.61
882.968	-98.99
883.134	-56.88
883.3	-56.8
883.466	15.63
883.632	41.04
883.798	21.39
883.964	9.47
884.129	2.82
884.295	6.93
884.461	-35.57
884.627	-82.12
884.793	-113.22
884.958	-70.28
885.124	-158.99
885.29	-265.88
885.455	-363.35
885.621	-75.35
885.787	-102.96
885.952	-43.81
886.118	-48.04
886.283	-71.53
886.449	-185.34
886.614	-161.52
886.78	-279.81
886.945	1045.08
887.111	-373.7
887.276	-340.06
887.442	-879.55
887.607	-426.65
887.773	-296.66
887.938	-327.81
888.103	-320.9
888.269	-167.62
888.434	-273.24
888.599	-49.41
888.764	24.32
888.93	41.24
889.095	1.82
889.26	-28.23
889.425	-27.11
889.59	15.6
889.756	-2.41
889.921	-12.97
890.086	21.4
890.251	19.61
890.416	-169.91
890.581	-1497.58
890.746	188.04
890.911	329.62
891.076	204.98
891.241	-254.1
891.406	13.08
891.571	3.2
891.736	-285.55
891.901	-415.49
892.065	367.58
892.23	122.16
892.395	198.73
892.56	251.01
892.725	-198.05
892.889	-1379.27
893.054	-243.69
893.219	-103.09
893.384	-31.95
893.548	-70.05
893.713	-61.83
893.878	-14.72
