Data from Ofra_PS_T2_1A_4HS15.2_Reflection_2.txt Node
Date: Wed Jul 21 18:08:20 EDT 2021
User: Adam
Spectrometer: FLMT01687
Trigger mode: 0
Integration Time (sec): 1.100000E0
Scans to average: 2
Electric dark correction enabled: true
Nonlinearity correction enabled: false
Boxcar width: 2
XAxis mode: Wavelengths
Number of Pixels in Spectrum: 3648
>>>>>Begin Spectral Data<<<<<
179.494	580.6
179.716	650.59
179.937	606.4
180.158	548.69
180.38	803.59
180.601	256.22
180.823	94.82
181.044	-36.14
181.265	102.76
181.486	68.83
181.708	105.72
181.929	505.61
182.15	-361.62
182.372	41.98
182.593	-4.79
182.814	30.68
183.035	61.26
183.257	64.62
183.478	-6.76
183.699	58.35
183.92	23.69
184.141	10.25
184.363	-40.51
184.584	7.83
184.805	10.29
185.026	26.17
185.247	55.33
185.468	42.43
185.689	41.11
185.91	29.41
186.132	48.64
186.353	25.14
186.574	74.38
186.795	59.07
187.016	32.64
187.237	-1.57
187.458	10.75
187.679	-0.92
187.9	28.28
188.121	18.74
188.342	39.9
188.563	41.43
188.784	51.31
189.005	46.68
189.226	88.86
189.447	106.59
189.667	48.67
189.888	-135.34
190.109	-859.42
190.33	-455.97
190.551	-922.79
190.772	-150.06
190.993	-93.5
191.214	-76.36
191.434	-67.49
191.655	-21.93
191.876	-101.02
192.097	-172.86
192.318	-216.14
192.538	-331.3
192.759	-177.01
192.98	-63.79
193.201	8.34
193.421	28.32
193.642	48.73
193.863	49.56
194.083	25.83
194.304	12.13
194.525	-3.17
194.745	-26.84
194.966	-45.87
195.187	-31.97
195.407	-79.66
195.628	-138.07
195.848	-124.25
196.069	-97.41
196.29	-47.69
196.51	-36.9
196.731	-17.61
196.951	-64.89
197.172	-109.87
197.392	-177.07
197.613	-181.2
197.833	-201.93
198.054	-143.04
198.274	-68.14
198.495	-71.66
198.715	-26.93
198.936	-28.84
199.156	-27.38
199.377	-134.48
199.597	-102.69
199.817	-117.58
200.038	-41.23
200.258	-70.96
200.479	5.4
200.699	-6.14
200.919	9.83
201.14	-42.47
201.36	-61.31
201.58	1.28
201.801	42.72
202.021	19.64
202.241	21.74
202.461	35.94
202.682	-45.65
202.902	-121.51
203.122	-59.18
203.342	-27.83
203.563	-11.28
203.783	14.06
204.003	-8.64
204.223	-9.78
204.443	55.69
204.663	50.35
204.884	63.89
205.104	105.57
205.324	133.39
205.544	80.28
205.764	76.87
205.984	77.36
206.204	64.43
206.424	41.58
206.644	6
206.864	27.84
207.084	-3.38
207.304	8.72
207.525	-1.48
207.745	26.69
207.964	38.35
208.184	-23.57
208.404	-79.55
208.624	-103.63
208.844	-106.35
209.064	-422.06
209.284	-378.95
209.504	-161.3
209.724	-26.19
209.944	-21.02
210.164	13.32
210.384	23.32
210.604	25.97
210.823	4.29
211.043	9.99
211.263	1.17
211.483	-16.51
211.703	-72.01
211.922	-46.36
212.142	3.12
212.362	15.5
212.582	18.1
212.801	31.86
213.021	1.8
213.241	-5.23
213.461	-36.24
213.68	-57.49
213.9	-53.49
214.12	-28.45
214.339	-69.02
214.559	-51.46
214.779	10.32
214.998	7.95
215.218	-45.62
215.438	-28.49
215.657	-31.49
215.877	-38.47
216.096	-2.33
216.316	28.19
216.535	8.07
216.755	7.83
216.974	-67.31
217.194	-84.55
217.413	-116.59
217.633	-91.42
217.852	-160.41
218.072	-56.78
218.291	-30.38
218.511	18.73
218.73	0.09
218.95	-3.27
219.169	-12.22
219.389	-56.17
219.608	-42.77
219.827	-38.72
220.047	-24.82
220.266	-11.19
220.485	1.86
220.705	12.79
220.924	-21.79
221.143	16.78
221.363	-15.3
221.582	-0.78
221.801	-11.4
222.021	32.26
222.24	-50.94
222.459	16.74
222.678	-14.44
222.897	-67.68
223.117	-156.69
223.336	-61.04
223.555	-27.48
223.774	11.91
223.993	-1.82
224.213	79.96
224.432	38.35
224.651	45.88
224.87	8.2
225.089	37.03
225.308	13.22
225.527	25.63
225.746	30.54
225.965	35.45
226.184	4.52
226.404	19.37
226.623	-5.47
226.842	-13.79
227.061	9.46
227.28	21.8
227.499	6.84
227.718	17.92
227.936	8.87
228.155	12.97
228.374	-5.15
228.593	11.58
228.812	32.79
229.031	23.28
229.25	-17.3
229.469	-15
229.688	13.95
229.907	12.66
230.125	43.45
230.344	42.33
230.563	53.6
230.782	45.53
231.001	-25.5
231.22	-29.53
231.438	4.1
231.657	4.97
231.876	-13.84
232.095	34.89
232.313	32.8
232.532	16.94
232.751	-3.59
232.969	-4.34
233.188	-57.39
233.407	-12.76
233.625	-8.51
233.844	-28.68
234.063	-24.92
234.281	3.81
234.5	-5.77
234.719	-1.81
234.937	15.62
235.156	14.44
235.374	2.36
235.593	-5.25
235.811	-21.12
236.03	-28.24
236.249	-47.66
236.467	-24.83
236.686	-7.67
236.904	7.06
237.123	-0.1
237.341	-2.14
237.559	-10.36
237.778	-21.41
237.996	-22.5
238.215	2.56
238.433	17.77
238.652	17.64
238.87	7.1
239.088	4.06
239.307	-8.12
239.525	-9.38
239.743	-14.24
239.962	-18.77
240.18	-51.28
240.398	-76.47
240.617	-80.89
240.835	-74.59
241.053	-24.48
241.271	26.66
241.49	41.21
241.708	15.05
241.926	14.41
242.144	-10.43
242.363	-50.36
242.581	-58.89
242.799	-19.36
243.017	15.93
243.235	1.07
243.453	11.3
243.672	0.25
243.89	9.06
244.108	-20.87
244.326	-8.49
244.544	-7.14
244.762	11.54
244.98	3.94
245.198	12.54
245.416	-1.93
245.634	-8.46
245.852	-42.14
246.07	-42.78
246.288	-37.53
246.506	-56.18
246.724	-33.34
246.942	-22.52
247.16	16
247.378	31.67
247.596	52.83
247.814	37.34
248.032	13.08
248.25	-7.79
248.468	-5.09
248.685	-9.94
248.903	22.39
249.121	40.48
249.339	17.93
249.557	7.46
249.775	18.81
249.992	-33.63
250.21	-42.22
250.428	-16.78
250.646	-23.75
250.863	-40.74
251.081	-12.24
251.299	17.88
251.517	6.58
251.734	2.16
251.952	-14.42
252.17	-5.43
252.387	-0.93
252.605	-6.1
252.823	-3.43
253.04	24.63
253.258	35.68
253.475	32.56
253.693	40.6
253.911	43.08
254.128	31.53
254.346	42.06
254.563	14.58
254.781	5.3
254.998	-21.68
255.216	-8.8
255.433	-23.62
255.651	26.12
255.868	22.78
256.086	69.27
256.303	45.65
256.521	35.92
256.738	6.13
256.956	-9.74
257.173	-41.81
257.39	-54.04
257.608	-68.94
257.825	-28.34
258.043	9.7
258.26	21.13
258.477	58.39
258.695	52.94
258.912	17.39
259.129	14.78
259.346	-16.4
259.564	-57.51
259.781	-84.98
259.998	-19.13
260.216	-4.27
260.433	35.24
260.65	42.75
260.867	62.21
261.084	47.04
261.302	32.33
261.519	16.53
261.736	-20.42
261.953	-42.4
262.17	-26.12
262.387	-31.65
262.604	-57.56
262.822	-33.25
263.039	-14.6
263.256	-24.11
263.473	-14.14
263.69	-3.42
263.907	19.83
264.124	28.15
264.341	33.01
264.558	26.1
264.775	33.15
264.992	26.73
265.209	25.93
265.426	27.97
265.643	25.48
265.86	30.39
266.077	9.85
266.294	4.41
266.51	-29.34
266.727	-36.89
266.944	-20.63
267.161	-4.26
267.378	-12.88
267.595	10.51
267.812	-6.65
268.028	-35.16
268.245	-6.62
268.462	-19.23
268.679	-31.34
268.896	23.4
269.112	27.13
269.329	14.45
269.546	15.55
269.763	18.14
269.979	-4.82
270.196	-9.47
270.413	-44.04
270.629	-58.18
270.846	-62.46
271.063	-58.77
271.279	-70.23
271.496	-54.65
271.712	-7.06
271.929	4.52
272.146	-2.28
272.362	7.48
272.579	37.29
272.795	15
273.012	25.22
273.228	29.53
273.445	21.53
273.661	-11.81
273.878	-58.5
274.094	-36.93
274.311	-73.76
274.527	-14.19
274.744	-4.3
274.96	19.98
275.177	9.98
275.393	29.18
275.609	22.62
275.826	35.48
276.042	27.48
276.259	12.05
276.475	35.87
276.691	33.2
276.908	8.04
277.124	25.65
277.34	33.09
277.557	1.03
277.773	-10.84
277.989	-1.79
278.205	-9.97
278.422	6.18
278.638	18.38
278.854	51.64
279.07	48.46
279.286	55.05
279.503	24.19
279.719	10.78
279.935	-30.53
280.151	-32.93
280.367	-26.92
280.583	-33.5
280.799	-23.69
281.016	-42.34
281.232	-5.47
281.448	-11.7
281.664	10.04
281.88	0.59
282.096	30.17
282.312	44.82
282.528	67.4
282.744	93.49
282.96	64.58
283.176	51.69
283.392	37.41
283.608	17.8
283.824	-7.28
284.04	0.65
284.256	11.17
284.471	7.87
284.687	8.68
284.903	33.43
285.119	58.56
285.335	20.3
285.551	18.69
285.767	-3.01
285.982	-11.66
286.198	-54.93
286.414	-2.75
286.63	0.57
286.846	43.19
287.061	26.8
287.277	60.59
287.493	41.78
287.709	66.46
287.924	43
288.14	68.03
288.356	59.37
288.571	75.02
288.787	43.92
289.003	41.33
289.218	26.7
289.434	-15.45
289.65	-26.7
289.865	-23.35
290.081	7.65
290.296	14.05
290.512	16.53
290.727	-15.33
290.943	-14.96
291.159	-29.08
291.374	-33.49
291.59	-31.63
291.805	-0.58
292.021	2.28
292.236	1.79
292.451	18.74
292.667	26.98
292.882	36.39
293.098	37.63
293.313	19.6
293.529	3.83
293.744	-35.61
293.959	-48.44
294.175	-43.96
294.39	-3.27
294.605	9.42
294.821	38.55
295.036	42.09
295.251	45.24
295.467	7.17
295.682	-25.54
295.897	-83.11
296.112	-85.43
296.328	-72.73
296.543	-56.37
296.758	-31.54
296.973	10.83
297.188	32.62
297.404	11.74
297.619	4.4
297.834	-5.7
298.049	-13.28
298.264	-35.45
298.479	9.09
298.694	21.51
298.909	34.57
299.125	41.96
299.34	62.5
299.555	38.27
299.77	47.89
299.985	-0.82
300.2	-62.21
300.415	-83.7
300.63	-35.86
300.845	-56.03
301.06	-48.98
301.275	-14.84
301.49	1.25
301.704	-19.23
301.919	-33.4
302.134	-24.46
302.349	-30.97
302.564	-97.85
302.779	-109.87
302.994	-104.19
303.209	-53.79
303.423	7.39
303.638	41.02
303.853	10.11
304.068	22.13
304.283	9.83
304.497	-6.49
304.712	-2.47
304.927	3.12
305.142	-9.3
305.356	-7.21
305.571	-10.78
305.786	-22.04
306	-34.24
306.215	-24.54
306.43	-64.82
306.644	-40.15
306.859	-16.45
307.074	-0.89
307.288	-12.91
307.503	-11.38
307.717	-30.87
307.932	-32.21
308.147	-51.97
308.361	-31.17
308.576	-13.14
308.79	-40.77
309.005	-31.17
309.219	-2.33
309.434	-14.73
309.648	-12.43
309.863	4.63
310.077	5.36
310.292	1.16
310.506	5.43
310.72	0.35
310.935	7.13
311.149	4.43
311.364	20.14
311.578	28.92
311.792	26.84
312.007	22.39
312.221	5.93
312.435	7.68
312.649	-9.32
312.864	26.69
313.078	54.76
313.292	126.05
313.507	82.86
313.721	129.21
313.935	44.7
314.149	12.73
314.363	3.52
314.578	14.81
314.792	7.56
315.006	-3.97
315.22	16.33
315.434	5.74
315.648	7.02
315.862	8.91
316.077	12.53
316.291	-5.43
316.505	17.31
316.719	17.69
316.933	-9.87
317.147	-13.49
317.361	-39.19
317.575	-51.05
317.789	-69.7
318.003	-100.35
318.217	-65.17
318.431	13.47
318.645	38.67
318.859	32.07
319.073	55.94
319.287	25.81
319.5	-12.52
319.714	-67.36
319.928	-95.19
320.142	-125
320.356	-49.53
320.57	-11.07
320.784	-25.05
320.997	-26.08
321.211	-0.48
321.425	-74.28
321.639	-86.32
321.853	2.39
322.066	18.97
322.28	10.73
322.494	20.88
322.707	22.17
322.921	-8.31
323.135	-4.65
323.349	-0.59
323.562	-6.96
323.776	-12.82
323.989	-16.77
324.203	-54.81
324.417	-65.48
324.63	-67.39
324.844	-69.96
325.057	-51.41
325.271	-22.61
325.485	4.79
325.698	18.32
325.912	27.28
326.125	1.98
326.339	10.66
326.552	-17.59
326.766	-6.76
326.979	10.92
327.193	46.29
327.406	32.44
327.619	43.02
327.833	52.19
328.046	30.79
328.26	2.53
328.473	18.26
328.686	0.95
328.9	-3.39
329.113	6.69
329.326	-31.44
329.54	-12.04
329.753	-23.52
329.966	-53.84
330.179	-36.06
330.393	6.52
330.606	11.15
330.819	29.04
331.032	41.59
331.246	35.48
331.459	51.79
331.672	50.2
331.885	37.27
332.098	15.57
332.311	23.48
332.525	-29.45
332.738	-34.04
332.951	-0.56
333.164	29.74
333.377	28.49
333.59	56.37
333.803	57.64
334.016	54.49
334.229	47.01
334.442	49.04
334.655	61.89
334.868	62.96
335.081	35.46
335.294	17.51
335.507	16.5
335.72	-3.86
335.933	-19.39
336.146	-23.51
336.359	-8.52
336.572	-27.37
336.785	-43.25
336.997	-30.17
337.21	1.19
337.423	3.56
337.636	4.65
337.849	15.1
338.062	2.53
338.274	4.63
338.487	-17.57
338.7	-11.19
338.913	-44.01
339.125	-44.55
339.338	-120.58
339.551	-103.37
339.763	-72.3
339.976	-37.25
340.189	-25.88
340.402	9.95
340.614	9.75
340.827	-3.77
341.039	-18.95
341.252	-10.98
341.465	2.42
341.677	-6.14
341.89	-41.66
342.102	-12.96
342.315	-30.41
342.527	-73.54
342.74	-39.74
342.952	22.81
343.165	8.18
343.377	22.87
343.59	26.84
343.802	36.7
344.015	25.59
344.227	39.05
344.44	21.58
344.652	18.29
344.864	2.52
345.077	20.42
345.289	24.7
345.502	35.25
345.714	34.63
345.926	36.99
346.139	22.77
346.351	26.49
346.563	34.32
346.775	43.66
346.988	29.53
347.2	22.35
347.412	-32.03
347.624	-54.55
347.837	-92.32
348.049	-53.63
348.261	-28.01
348.473	4.74
348.685	-5.9
348.897	13.69
349.11	-3.36
349.322	-9.36
349.534	16.39
349.746	25.27
349.958	17.88
350.17	22.03
350.382	21.36
350.594	-7.21
350.806	-0.1
351.018	-5.4
351.23	-19.49
351.442	-62.81
351.654	-58
351.866	-50.19
352.078	-40.41
352.29	-12.11
352.502	16.2
352.714	29.26
352.926	12.85
353.138	9.37
353.35	-2.99
353.561	-7.74
353.773	-28.7
353.985	-7.04
354.197	-13.96
354.409	-12.4
354.621	-25.46
354.832	-13.13
355.044	-31.66
355.256	-34.44
355.468	-21.18
355.679	-15.25
355.891	-9.06
356.103	-14.12
356.314	1.27
356.526	2.98
356.738	15.79
356.949	8.88
357.161	28.87
357.373	29.07
357.584	19.48
357.796	17.19
358.008	8.43
358.219	35.61
358.431	34.3
358.642	41.25
358.854	42.05
359.065	44.71
359.277	-2.49
359.488	-9.32
359.7	-26.85
359.911	-40.44
360.123	-25.14
360.334	-37.7
360.546	-57.65
360.757	-52.02
360.969	-63.69
361.18	-48.99
361.391	-25.18
361.603	-34.06
361.814	-32.24
362.025	-1.47
362.237	-8.11
362.448	15.12
362.659	38.44
362.871	29.84
363.082	24.57
363.293	19.56
363.504	6.3
363.716	-20.4
363.927	-16.96
364.138	-39.15
364.349	-46.46
364.56	-48.21
364.772	-39.4
364.983	-14.92
365.194	-10.06
365.405	13.63
365.616	28.19
365.827	30.06
366.038	11.65
366.25	9.02
366.461	-38.92
366.672	-18.03
366.883	9.65
367.094	13.79
367.305	8.03
367.516	17.53
367.727	-13.36
367.938	-32.94
368.149	-34.42
368.36	-24.13
368.571	-13.46
368.781	-9.49
368.992	-21.4
369.203	-39.17
369.414	-58.46
369.625	-70.04
369.836	-66.17
370.047	-79.04
370.258	-50.95
370.468	-53.24
370.679	-69.35
370.89	-72.92
371.101	-50.31
371.312	-62.77
371.522	-40.55
371.733	-24.75
371.944	-2.62
372.155	9.53
372.365	10.41
372.576	-2.18
372.787	-1.43
372.997	-29.94
373.208	-36.33
373.419	-15.3
373.629	-34.04
373.84	-36.81
374.05	-38.43
374.261	-29
374.472	-45.71
374.682	6.65
374.893	12.39
375.103	39.71
375.314	31.77
375.524	31.83
375.735	11
375.945	15.25
376.156	-6.14
376.366	-3.85
376.577	1.87
376.787	3.77
376.997	7.48
377.208	5.71
377.418	-3.47
377.629	0.52
377.839	-2.05
378.049	-3.66
378.26	14.36
378.47	24.25
378.68	12.19
378.89	8.58
379.101	3.35
379.311	-39.68
379.521	-69.17
379.732	-52.01
379.942	-52.71
380.152	-69.84
380.362	-22.53
380.572	-16.29
380.783	-15.59
380.993	-4.27
381.203	14.6
381.413	24.84
381.623	30.71
381.833	26.56
382.043	18.84
382.253	13.5
382.463	8.63
382.674	-1.77
382.884	-17.29
383.094	-15.66
383.304	-17.41
383.514	-13.95
383.724	3.55
383.934	-0.29
384.144	-10.14
384.353	-17.44
384.563	-20.94
384.773	-20.9
384.983	-21.96
385.193	-2.42
385.403	3.95
385.613	4.43
385.823	-9.24
386.033	-1.93
386.242	-12.79
386.452	-13.19
386.662	-18.59
386.872	-3.25
387.082	-7.26
387.291	-8.89
387.501	-12.69
387.711	-10.21
387.921	-20.41
388.13	-16.9
388.34	-4.25
388.55	-4.68
388.759	-5.21
388.969	0.07
389.179	-2.21
389.388	-4.38
389.598	-1.56
389.807	-7.54
390.017	-10.79
390.227	-9.03
390.436	-10.56
390.646	-10.34
390.855	-5.33
391.065	-4.72
391.274	-5.42
391.484	-6.84
391.693	-5.38
391.903	-4.02
392.112	0.53
392.322	1.9
392.531	4.99
392.74	6.99
392.95	3.23
393.159	1.17
393.369	0.35
393.578	0.51
393.787	-0.7
393.997	1.04
394.206	-1.33
394.415	-1.89
394.625	-4.1
394.834	-6.58
395.043	-5.54
395.252	-1.74
395.462	1.72
395.671	3.77
395.88	4.61
396.089	4.68
396.298	2.15
396.508	1.23
396.717	0.71
396.926	0.99
397.135	1.19
397.344	1.34
397.553	1.21
397.762	1.87
397.971	2.68
398.181	2.61
398.39	2.36
398.599	2.24
398.808	2.65
399.017	3.17
399.226	4.32
399.435	5.43
399.644	5.39
399.853	4.17
400.062	3.12
400.27	2.18
400.479	1.92
400.688	1.43
400.897	1.83
401.106	1.88
401.315	1.56
401.524	1.52
401.733	2.12
401.941	2.61
402.15	2.8
402.359	2.78
402.568	2.82
402.777	2.97
402.985	2.61
403.194	2.41
403.403	2.42
403.612	2.17
403.82	1.85
404.029	1.97
404.238	1.98
404.446	2.47
404.655	2.4
404.864	2.27
405.072	2.07
405.281	2.18
405.489	1.79
405.698	1.8
405.906	1.86
406.115	1.77
406.324	1.79
406.532	2
406.741	2.23
406.949	2.16
407.158	2.24
407.366	2.26
407.574	2.09
407.783	2.1
407.991	2.11
408.2	2.34
408.408	2.34
408.617	2.24
408.825	2.03
409.033	2.05
409.242	1.92
409.45	2
409.658	2
409.867	2.17
410.075	2.18
410.283	2.1
410.491	2.04
410.7	1.96
410.908	1.94
411.116	2.14
411.324	2.13
411.533	1.96
411.741	2.25
411.949	2.24
412.157	1.94
412.365	1.92
412.573	2.05
412.781	2.01
412.99	1.92
413.198	2.15
413.406	2.16
413.614	2.15
413.822	2.02
414.03	2.03
414.238	1.86
414.446	1.97
414.654	1.76
414.862	1.79
415.07	1.84
415.278	2.04
415.486	1.83
415.694	1.98
415.902	1.96
416.109	1.85
416.317	1.73
416.525	1.75
416.733	1.65
416.941	1.74
417.149	1.7
417.357	1.72
417.564	1.82
417.772	2.14
417.98	2.06
418.188	2.12
418.395	2.16
418.603	2.28
418.811	1.91
419.019	1.82
419.226	1.92
419.434	1.83
419.642	1.61
419.849	1.78
420.057	1.78
420.265	1.69
420.472	1.62
420.68	1.71
420.887	1.52
421.095	1.71
421.302	1.76
421.51	2.01
421.717	2.07
421.925	2.23
422.132	1.99
422.34	1.69
422.547	1.68
422.755	1.59
422.962	1.53
423.17	1.56
423.377	1.74
423.585	1.57
423.792	1.46
423.999	1.47
424.207	1.54
424.414	1.66
424.621	1.73
424.829	1.75
425.036	1.73
425.243	1.74
425.451	1.59
425.658	1.38
425.865	1.6
426.072	1.63
426.28	1.8
426.487	1.91
426.694	1.94
426.901	1.72
427.108	1.67
427.315	1.49
427.523	1.52
427.73	1.65
427.937	1.57
428.144	1.52
428.351	1.52
428.558	1.64
428.765	1.44
428.972	1.47
429.179	1.71
429.386	2.09
429.593	1.88
429.8	1.93
430.007	2.07
430.214	2.11
430.421	1.74
430.628	1.57
430.835	1.45
431.042	1.55
431.249	1.53
431.456	1.64
431.662	1.88
431.869	2.13
432.076	2.13
432.283	2.05
432.49	1.92
432.697	1.86
432.903	1.57
433.11	1.52
433.317	1.6
433.524	1.78
433.73	1.83
433.937	2.15
434.144	2.05
434.35	1.99
434.557	1.83
434.764	1.75
434.97	1.6
435.177	1.83
435.384	1.72
435.59	1.8
435.797	2.03
436.003	2.08
436.21	1.99
436.416	2.06
436.623	2.1
436.829	2.05
437.036	2.19
437.242	2.02
437.449	1.97
437.655	1.93
437.862	1.82
438.068	1.61
438.275	1.77
438.481	2.03
438.687	1.97
438.894	2.02
439.1	2.17
439.307	2.31
439.513	2.09
439.719	2.11
439.926	2.19
440.132	2.1
440.338	1.9
440.544	2.06
440.751	1.99
440.957	2.02
441.163	1.95
441.369	2.1
441.575	1.89
441.782	1.94
441.988	1.77
442.194	1.79
442.4	1.73
442.606	1.97
442.812	2.06
443.018	2.2
443.224	2.31
443.431	2.37
443.637	2.13
443.843	2.01
444.049	1.99
444.255	1.94
444.461	1.97
444.667	2
444.873	2.16
445.079	2.13
445.284	2.19
445.49	1.96
445.696	1.89
445.902	1.75
446.108	1.78
446.314	1.73
446.52	1.84
446.726	2.04
446.931	2.11
447.137	2.11
447.343	2.14
447.549	2.12
447.755	2.03
447.96	2.03
448.166	1.91
448.372	1.9
448.578	1.99
448.783	1.96
448.989	2.07
449.195	2.24
449.4	2.19
449.606	2.09
449.812	2.05
450.017	2.02
450.223	1.89
450.428	1.82
450.634	1.99
450.84	2.19
451.045	2.13
451.251	2.15
451.456	2.45
451.662	2.36
451.867	2.31
452.073	2.3
452.278	2.39
452.483	2.41
452.689	2.41
452.894	2.43
453.1	2.44
453.305	2.35
453.51	2.21
453.716	2.18
453.921	2.16
454.127	2.09
454.332	2.1
454.537	2.03
454.742	2.07
454.948	2.06
455.153	2.12
455.358	2.23
455.563	2.39
455.769	2.42
455.974	2.37
456.179	2.28
456.384	2.15
456.589	2.1
456.795	1.95
457	1.95
457.205	2.18
457.41	2.15
457.615	2.04
457.82	2.15
458.025	2.13
458.23	1.96
458.435	1.99
458.64	1.96
458.845	2.01
459.05	2
459.255	2.01
459.46	2.09
459.665	2.11
459.87	2.09
460.075	2.07
460.28	2.11
460.485	2.21
460.69	2.29
460.895	2.19
461.099	2.2
461.304	2.3
461.509	2.18
461.714	2.02
461.919	2.19
462.123	2.12
462.328	2.15
462.533	2.09
462.738	2.22
462.942	2.13
463.147	2.24
463.352	2.17
463.556	2.22
463.761	2.2
463.966	2.25
464.17	2.29
464.375	2.2
464.58	2.17
464.784	2.14
464.989	2.03
465.193	1.99
465.398	2.02
465.602	2.19
465.807	2.14
466.011	2.15
466.216	2.19
466.42	2.27
466.625	2.25
466.829	2.37
467.034	2.44
467.238	2.54
467.443	2.44
467.647	2.36
467.851	2.38
468.056	2.43
468.26	2.3
468.464	2.29
468.669	2.35
468.873	2.44
469.077	2.37
469.282	2.51
469.486	2.6
469.69	2.61
469.894	2.45
470.099	2.48
470.303	2.48
470.507	2.37
470.711	2.28
470.915	2.28
471.119	2.21
471.324	2.12
471.528	2.19
471.732	2.23
471.936	2.2
472.14	2.3
472.344	2.33
472.548	2.36
472.752	2.55
472.956	2.8
473.16	2.8
473.364	2.72
473.568	2.64
473.772	2.64
473.976	2.54
474.18	2.5
474.384	2.62
474.588	2.64
474.792	2.47
474.995	2.54
475.199	2.6
475.403	2.59
475.607	2.62
475.811	2.6
476.015	2.56
476.218	2.6
476.422	2.5
476.626	2.56
476.83	2.63
477.033	2.53
477.237	2.44
477.441	2.52
477.644	2.47
477.848	2.47
478.052	2.5
478.255	2.49
478.459	2.46
478.663	2.59
478.866	2.61
479.07	2.66
479.273	2.82
479.477	2.85
479.681	2.77
479.884	2.71
480.088	2.67
480.291	2.55
480.495	2.56
480.698	2.59
480.901	2.66
481.105	2.75
481.308	2.73
481.512	2.68
481.715	2.73
481.919	2.73
482.122	2.68
482.325	2.67
482.529	2.78
482.732	2.74
482.935	2.68
483.138	2.6
483.342	2.73
483.545	2.74
483.748	2.71
483.952	2.8
484.155	2.96
484.358	2.96
484.561	2.89
484.764	2.86
484.967	2.91
485.171	2.97
485.374	2.9
485.577	3.01
485.78	3.08
485.983	3.02
486.186	2.84
486.389	2.82
486.592	2.74
486.795	2.73
486.998	2.68
487.201	2.75
487.404	2.83
487.607	2.88
487.81	2.92
488.013	3
488.216	2.99
488.419	2.91
488.622	2.81
488.825	2.7
489.028	2.66
489.231	2.66
489.433	2.59
489.636	2.57
489.839	2.59
490.042	2.5
490.245	2.46
490.447	2.57
490.65	2.62
490.853	2.55
491.056	2.65
491.258	2.65
491.461	2.66
491.664	2.68
491.866	2.72
492.069	2.78
492.272	2.75
492.474	2.74
492.677	2.8
492.879	2.84
493.082	2.84
493.285	3.01
493.487	2.99
493.69	2.9
493.892	2.8
494.095	2.74
494.297	2.64
494.5	2.69
494.702	2.77
494.905	2.83
495.107	2.83
495.309	2.85
495.512	2.86
495.714	2.86
495.917	2.87
496.119	2.88
496.321	2.96
496.524	2.96
496.726	2.93
496.928	3
497.13	2.94
497.333	2.85
497.535	2.86
497.737	2.84
497.939	2.86
498.142	2.94
498.344	2.93
498.546	2.86
498.748	2.92
498.95	2.99
499.152	2.92
499.355	2.96
499.557	3.04
499.759	3.12
499.961	3.01
500.163	3.08
500.365	3.07
500.567	3.1
500.769	2.99
500.971	2.99
501.173	2.91
501.375	2.95
501.577	2.87
501.779	2.91
501.981	2.96
502.183	3.06
502.385	3.01
502.587	2.93
502.788	2.97
502.99	2.98
503.192	2.98
503.394	2.96
503.596	3.06
503.798	3.08
503.999	3.08
504.201	3.05
504.403	3.14
504.605	3.16
504.806	3.01
505.008	3.02
505.21	3.13
505.411	3.1
505.613	3.09
505.815	3.19
506.016	3.25
506.218	3.23
506.42	3.21
506.621	3.27
506.823	3.26
507.024	3.14
507.226	3.06
507.427	3.06
507.629	3.05
507.83	3.1
508.032	3.13
508.233	3.26
508.435	3.32
508.636	3.38
508.838	3.33
509.039	3.32
509.24	3.24
509.442	3.24
509.643	3.11
509.845	3.14
510.046	3.21
510.247	3.21
510.448	3.21
510.65	3.32
510.851	3.4
511.052	3.39
511.254	3.44
511.455	3.52
511.656	3.52
511.857	3.54
512.058	3.57
512.26	3.55
512.461	3.45
512.662	3.46
512.863	3.36
513.064	3.35
513.265	3.4
513.466	3.46
513.667	3.42
513.868	3.47
514.069	3.58
514.27	3.56
514.471	3.51
514.672	3.52
514.873	3.51
515.074	3.46
515.275	3.36
515.476	3.41
515.677	3.43
515.878	3.5
516.079	3.47
516.28	3.55
516.481	3.61
516.682	3.58
516.882	3.51
517.083	3.51
517.284	3.46
517.485	3.35
517.686	3.4
517.886	3.41
518.087	3.43
518.288	3.46
518.488	3.46
518.689	3.48
518.89	3.47
519.091	3.51
519.291	3.52
519.492	3.59
519.692	3.59
519.893	3.67
520.094	3.65
520.294	3.61
520.495	3.6
520.695	3.63
520.896	3.61
521.096	3.61
521.297	3.66
521.497	3.62
521.698	3.56
521.898	3.5
522.099	3.49
522.299	3.58
522.499	3.6
522.7	3.63
522.9	3.6
523.101	3.66
523.301	3.67
523.501	3.65
523.702	3.71
523.902	3.82
524.102	3.89
524.302	3.77
524.503	3.84
524.703	3.82
524.903	3.83
525.103	3.69
525.304	3.82
525.504	3.87
525.704	3.93
525.904	3.9
526.104	3.94
526.304	3.91
526.504	3.86
526.705	3.8
526.905	3.9
527.105	3.94
527.305	3.92
527.505	3.88
527.705	3.87
527.905	3.82
528.105	3.81
528.305	3.78
528.505	3.9
528.705	3.99
528.905	3.92
529.105	3.94
529.304	4.03
529.504	4.08
529.704	3.96
529.904	4.04
530.104	4.05
530.304	4.08
530.503	3.96
530.703	3.97
530.903	3.92
531.103	3.93
531.303	3.83
531.502	3.91
531.702	4.06
531.902	4.12
532.101	4.07
532.301	4.12
532.501	4.1
532.7	3.99
532.9	4.01
533.1	4.05
533.299	4.05
533.499	4.05
533.698	4.08
533.898	4.05
534.097	4.09
534.297	4.18
534.496	4.19
534.696	4.22
534.895	4.31
535.095	4.41
535.294	4.35
535.494	4.3
535.693	4.34
535.892	4.31
536.092	4.18
536.291	4.17
536.491	4.29
536.69	4.25
536.889	4.21
537.088	4.2
537.288	4.3
537.487	4.34
537.686	4.34
537.886	4.42
538.085	4.48
538.284	4.56
538.483	4.52
538.682	4.61
538.882	4.6
539.081	4.66
539.28	4.51
539.479	4.52
539.678	4.46
539.877	4.55
540.076	4.51
540.275	4.54
540.474	4.62
540.673	4.7
540.872	4.65
541.071	4.75
541.27	4.82
541.469	4.81
541.668	4.8
541.867	4.82
542.066	4.78
542.265	4.8
542.464	4.78
542.663	4.77
542.862	4.85
543.06	4.92
543.259	4.96
543.458	5
543.657	5.09
543.856	5.16
544.054	5.16
544.253	5.17
544.452	5.16
544.651	5.23
544.849	5.13
545.048	5.19
545.247	5.22
545.445	5.3
545.644	5.3
545.843	5.33
546.041	5.29
546.24	5.35
546.438	5.4
546.637	5.37
546.836	5.5
547.034	5.58
547.233	5.57
547.431	5.58
547.63	5.63
547.828	5.65
548.027	5.69
548.225	5.72
548.423	5.72
548.622	5.79
548.82	5.77
549.019	5.8
549.217	5.93
549.415	5.99
549.614	6.05
549.812	6.07
550.01	6.06
550.209	6.02
550.407	6.05
550.605	6.03
550.803	6.12
551.002	6.24
551.2	6.27
551.398	6.38
551.596	6.51
551.794	6.57
551.993	6.57
552.191	6.61
552.389	6.65
552.587	6.72
552.785	6.74
552.983	6.8
553.181	6.91
553.379	6.97
553.577	6.94
553.775	7.04
553.973	7.13
554.171	7.22
554.369	7.23
554.567	7.29
554.765	7.32
554.963	7.37
555.161	7.4
555.359	7.42
555.557	7.51
555.755	7.59
555.952	7.65
556.15	7.65
556.348	7.75
556.546	7.86
556.744	7.86
556.941	7.91
557.139	8.04
557.337	8.11
557.535	8.09
557.732	8.21
557.93	8.33
558.128	8.37
558.325	8.48
558.523	8.51
558.721	8.6
558.918	8.62
559.116	8.65
559.313	8.69
559.511	8.82
559.708	8.83
559.906	8.89
560.104	9.01
560.301	9.1
560.498	9.14
560.696	9.19
560.893	9.29
561.091	9.32
561.288	9.45
561.486	9.53
561.683	9.63
561.88	9.72
562.078	9.82
562.275	9.72
562.473	9.78
562.67	9.94
562.867	10.05
563.064	10.07
563.262	10.14
563.459	10.21
563.656	10.3
563.853	10.27
564.051	10.33
564.248	10.5
564.445	10.58
564.642	10.52
564.839	10.68
565.036	10.91
565.234	10.97
565.431	11.01
565.628	11.07
565.825	11.18
566.022	11.18
566.219	11.3
566.416	11.42
566.613	11.51
566.81	11.53
567.007	11.46
567.204	11.35
567.401	11.35
567.598	11.39
567.795	11.37
567.991	11.45
568.188	11.59
568.385	11.64
568.582	11.71
568.779	11.79
568.976	11.89
569.172	12.03
569.369	12.11
569.566	12.14
569.763	12.16
569.96	12.21
570.156	12.14
570.353	12.12
570.55	12.18
570.746	12.21
570.943	12.14
571.14	12.14
571.336	12.28
571.533	12.31
571.729	12.27
571.926	12.41
572.123	12.56
572.319	12.57
572.516	12.58
572.712	12.71
572.909	12.7
573.105	12.74
573.302	12.76
573.498	12.84
573.695	12.79
573.891	12.86
574.087	12.81
574.284	12.82
574.48	12.78
574.677	12.83
574.873	12.8
575.069	12.86
575.266	12.84
575.462	12.78
575.658	12.87
575.854	12.92
576.051	12.9
576.247	12.94
576.443	13.05
576.639	13
576.835	12.92
577.032	12.9
577.228	12.92
577.424	12.94
577.62	12.9
577.816	12.97
578.012	12.97
578.208	12.97
578.404	12.93
578.6	12.93
578.796	12.89
578.993	12.9
579.189	12.9
579.384	12.82
579.58	12.73
579.776	12.76
579.972	12.72
580.168	12.61
580.364	12.62
580.56	12.74
580.756	12.67
580.952	12.65
581.148	12.7
581.343	12.74
581.539	12.76
581.735	12.84
581.931	12.92
582.127	12.94
582.322	12.92
582.518	12.81
582.714	12.78
582.909	12.7
583.105	12.69
583.301	12.7
583.496	12.75
583.692	12.65
583.888	12.59
584.083	12.64
584.279	12.59
584.474	12.5
584.67	12.54
584.866	12.48
585.061	12.27
585.257	12.29
585.452	12.3
585.648	12.21
585.843	12.3
586.039	12.43
586.234	12.34
586.429	12.28
586.625	12.32
586.82	12.29
587.015	12.26
587.211	12.22
587.406	12.31
587.601	12.4
587.797	12.34
587.992	12.32
588.187	12.4
588.383	12.33
588.578	12.22
588.773	12.31
588.968	12.35
589.163	12.33
589.359	12.35
589.554	12.36
589.749	12.34
589.944	12.4
590.139	12.43
590.334	12.45
590.529	12.46
590.724	12.47
590.919	12.43
591.114	12.37
591.309	12.42
591.504	12.47
591.699	12.45
591.894	12.5
592.089	12.59
592.284	12.57
592.479	12.66
592.674	12.67
592.869	12.7
593.064	12.78
593.259	12.91
593.454	12.88
593.648	12.96
593.843	12.98
594.038	12.98
594.233	12.91
594.428	12.89
594.622	12.89
594.817	12.98
595.012	13
595.206	13.01
595.401	13.16
595.596	13.21
595.79	13.23
595.985	13.28
596.18	13.37
596.374	13.41
596.569	13.49
596.763	13.45
596.958	13.51
597.153	13.59
597.347	13.55
597.542	13.65
597.736	13.7
597.931	13.76
598.125	13.87
598.319	14.01
598.514	13.95
598.708	14.05
598.903	14.02
599.097	13.99
599.291	13.94
599.486	14.03
599.68	14.04
599.874	14.19
600.069	14.2
600.263	14.29
600.457	14.36
600.651	14.44
600.846	14.36
601.04	14.46
601.234	14.41
601.428	14.45
601.622	14.47
601.817	14.51
602.011	14.44
602.205	14.62
602.399	14.59
602.593	14.59
602.787	14.61
602.981	14.67
603.175	14.66
603.369	14.59
603.563	14.61
603.757	14.6
603.951	14.57
604.145	14.47
604.339	14.54
604.533	14.4
604.727	14.43
604.921	14.41
605.115	14.43
605.309	14.5
605.502	14.61
605.696	14.5
605.89	14.5
606.084	14.5
606.278	14.35
606.471	14.25
606.665	14.22
606.859	14.17
607.053	14.08
607.246	14.05
607.44	14.08
607.634	13.97
607.827	14.02
608.021	13.97
608.214	13.93
608.408	13.8
608.602	13.88
608.795	13.8
608.989	13.74
609.182	13.7
609.376	13.69
609.569	13.57
609.763	13.43
609.956	13.31
610.15	13.19
610.343	13.15
610.537	13.12
610.73	13.11
610.923	13.11
611.117	13.15
611.31	13.1
611.504	13.03
611.697	12.91
611.89	12.81
612.083	12.7
612.277	12.62
612.47	12.47
612.663	12.46
612.856	12.47
613.05	12.44
613.243	12.4
613.436	12.37
613.629	12.32
613.822	12.18
614.015	12.1
614.209	12
614.402	11.95
614.595	11.96
614.788	11.95
614.981	11.82
615.174	11.69
615.367	11.62
615.56	11.52
615.753	11.49
615.946	11.49
616.139	11.54
616.332	11.68
616.525	11.61
616.718	11.61
616.911	11.58
617.103	11.52
617.296	11.4
617.489	11.36
617.682	11.22
617.875	11.19
618.067	11.11
618.26	11
618.453	11.06
618.646	11.07
618.838	11.02
619.031	11.16
619.224	11.15
619.417	11.06
619.609	11.1
619.802	11.05
619.994	10.93
620.187	10.98
620.38	10.93
620.572	10.83
620.765	10.91
620.957	10.79
621.15	10.67
621.342	10.65
621.535	10.66
621.727	10.58
621.92	10.63
622.112	10.59
622.305	10.64
622.497	10.56
622.69	10.57
622.882	10.62
623.074	10.72
623.267	10.63
623.459	10.58
623.651	10.46
623.844	10.47
624.036	10.46
624.228	10.41
624.42	10.42
624.613	10.55
624.805	10.45
624.997	10.37
625.189	10.3
625.381	10.34
625.574	10.2
625.766	10.15
625.958	10.19
626.15	10.23
626.342	10.17
626.534	10.2
626.726	10.22
626.918	10.18
627.11	10.19
627.302	10.21
627.494	10.09
627.686	10.06
627.878	9.99
628.07	9.93
628.262	9.92
628.454	10
628.646	10
628.838	10
629.029	10.01
629.221	10
629.413	9.92
629.605	9.77
629.797	9.71
629.989	9.71
630.18	9.63
630.372	9.6
630.564	9.63
630.755	9.7
630.947	9.72
631.139	9.62
631.33	9.56
631.522	9.66
631.714	9.56
631.905	9.46
632.097	9.44
632.289	9.49
632.48	9.39
632.672	9.34
632.863	9.29
633.055	9.3
633.246	9.26
633.438	9.2
633.629	9.22
633.821	9.26
634.012	9.24
634.203	9.14
634.395	9.19
634.586	9.23
634.777	9.14
634.969	9.14
635.16	9.2
635.351	9.09
635.543	9.07
635.734	9.1
635.925	9.07
636.117	9.1
636.308	9.13
636.499	8.99
636.69	8.87
636.881	8.86
637.073	8.89
637.264	8.88
637.455	9.05
637.646	9.18
637.837	9.2
638.028	9.03
638.219	9.05
638.41	8.87
638.601	8.72
638.792	8.7
638.983	8.77
639.174	8.69
639.365	8.8
639.556	8.86
639.747	8.81
639.938	8.79
640.129	8.74
640.32	8.66
640.511	8.63
640.701	8.68
640.892	8.58
641.083	8.63
641.274	8.7
641.465	8.81
641.655	8.73
641.846	8.8
642.037	8.76
642.228	8.59
642.418	8.56
642.609	8.58
642.8	8.57
642.99	8.54
643.181	8.55
643.372	8.51
643.562	8.49
643.753	8.4
643.943	8.39
644.134	8.35
644.324	8.32
644.515	8.29
644.705	8.33
644.896	8.34
645.086	8.38
645.277	8.3
645.467	8.28
645.658	8.28
645.848	8.26
646.038	8.21
646.229	8.24
646.419	8.19
646.61	8.17
646.8	8.12
646.99	8.1
647.18	8.01
647.371	8.08
647.561	7.96
647.751	7.98
647.941	7.9
648.132	7.95
648.322	7.81
648.512	7.91
648.702	7.92
648.892	7.9
649.082	7.9
649.272	7.79
649.462	7.71
649.653	7.58
649.843	7.6
650.033	7.54
650.223	7.64
650.413	7.56
650.603	7.63
650.793	7.7
650.983	7.64
651.172	7.68
651.362	7.71
651.552	7.66
651.742	7.55
651.932	7.63
652.122	7.65
652.312	7.69
652.502	7.67
652.691	7.69
652.881	7.56
653.071	7.47
653.261	7.35
653.45	7.23
653.64	7.24
653.83	7.15
654.019	7.17
654.209	7.15
654.399	7.16
654.588	7.02
654.778	7
654.968	6.85
655.157	6.85
655.347	6.78
655.536	6.66
655.726	6.61
655.915	6.57
656.105	6.44
656.294	6.39
656.484	6.33
656.673	6.2
656.863	6.17
657.052	6.05
657.241	5.86
657.431	5.71
657.62	5.66
657.809	5.38
657.999	5.29
658.188	5.26
658.377	5.24
658.567	5.2
658.756	5.16
658.945	5.21
659.134	5.15
659.324	5.11
659.513	5.03
659.702	4.98
659.891	4.84
660.08	4.75
660.269	4.72
660.458	4.59
660.648	4.51
660.837	4.41
661.026	4.38
661.215	4.29
661.404	4.21
661.593	4.24
661.782	4.1
661.971	4.08
662.16	3.98
662.349	4.02
662.538	3.88
662.726	3.95
662.915	3.85
663.104	3.82
663.293	3.79
663.482	3.88
663.671	3.75
663.86	3.7
664.048	3.66
664.237	3.68
664.426	3.49
664.615	3.59
664.803	3.51
664.992	3.49
665.181	3.45
665.369	3.42
665.558	3.24
665.747	3.2
665.935	3.23
666.124	3.23
666.312	3.34
666.501	3.4
666.69	3.34
666.878	3.36
667.067	3.28
667.255	3.38
667.444	3.63
667.632	3.75
667.82	3.77
668.009	3.74
668.197	3.62
668.386	3.37
668.574	3.53
668.762	3.4
668.951	3.41
669.139	3.44
669.327	3.48
669.516	3.46
669.704	3.5
669.892	3.6
670.08	3.59
670.269	3.47
670.457	3.29
670.645	3.22
670.833	3.33
671.021	3.45
671.21	3.58
671.398	3.95
671.586	4.11
671.774	4.02
671.962	4.01
672.15	4.14
672.338	3.96
672.526	3.95
672.714	3.91
672.902	3.81
673.09	3.86
673.278	4.01
673.466	4.05
673.654	4.27
673.842	4.38
674.03	4.41
674.218	4.21
674.405	4.27
674.593	4.2
674.781	4.28
674.969	4.25
675.157	4.43
675.344	4.56
675.532	4.59
675.72	4.75
675.908	4.83
676.095	4.86
676.283	4.89
676.471	5.15
676.658	5.02
676.846	5.03
677.033	5.2
677.221	5.2
677.409	4.94
677.596	5.06
677.784	5.18
677.971	5.14
678.159	5.24
678.346	5.42
678.534	5.45
678.721	5.55
678.909	5.51
679.096	5.52
679.283	5.59
679.471	5.72
679.658	5.73
679.846	6.02
680.033	6.22
680.22	6.26
680.408	6.26
680.595	6.31
680.782	6.11
680.969	6.07
681.157	6.13
681.344	6.1
681.531	5.99
681.718	5.92
681.905	5.93
682.093	6.03
682.28	6.32
682.467	6.6
682.654	6.79
682.841	6.85
683.028	6.95
683.215	6.95
683.402	6.79
683.589	7.03
683.776	7.21
683.963	7.19
684.15	7.33
684.337	7.59
684.524	7.53
684.711	7.64
684.898	7.54
685.085	7.56
685.271	7.87
685.458	7.94
685.645	7.94
685.832	8.43
686.019	8.6
686.205	8.57
686.392	8.86
686.579	9.04
686.766	9.29
686.952	9.42
687.139	9.82
687.326	9.91
687.512	10.07
687.699	10.11
687.886	10.38
688.072	10.41
688.259	10.74
688.445	11.15
688.632	11.28
688.818	11.71
689.005	12.06
689.191	12.38
689.378	12.85
689.564	13.41
689.751	13.55
689.937	13.98
690.124	14.43
690.31	14.44
690.496	14.67
690.683	15.15
690.869	15.21
691.055	15.66
691.242	16.32
691.428	16.93
691.614	17.27
691.8	18.01
691.987	18.45
692.173	18.98
692.359	19.57
692.545	20.32
692.731	20.64
692.918	21.2
693.104	21.6
693.29	21.99
693.476	22.49
693.662	23.22
693.848	23.64
694.034	24.4
694.22	24.59
694.406	25.22
694.592	25.77
694.778	26.44
694.964	26.77
695.15	27.84
695.336	28.26
695.522	29.23
695.708	29.92
695.894	30.74
696.08	31.36
696.265	32.07
696.451	32.44
696.637	33.2
696.823	33.73
697.009	34.12
697.194	34.59
697.38	34.95
697.566	35.21
697.751	35.95
697.937	36.91
698.123	37.5
698.308	38.38
698.494	39.25
698.68	39.66
698.865	40.04
699.051	40.97
699.236	41.19
699.422	41.82
699.607	42.37
699.793	42.97
699.978	43.32
700.164	44.04
700.349	44.72
700.535	45.28
700.72	45.92
700.906	46.65
701.091	47.22
701.276	47.48
701.462	48.23
701.647	48.9
701.832	49.49
702.018	50.05
702.203	50.49
702.388	50.84
702.573	51.14
702.759	52.01
702.944	52.62
703.129	53.16
703.314	53.75
703.499	54.3
703.684	54.3
703.87	55.3
704.055	56.23
704.24	56.9
704.425	57.69
704.61	58.24
704.795	58.22
704.98	58.32
705.165	58.45
705.35	58.71
705.535	59.17
705.72	59.69
705.905	60.13
706.09	60.67
706.275	60.72
706.459	60.7
706.644	60.65
706.829	61.15
707.014	61.31
707.199	61.99
707.384	62.71
707.568	63.27
707.753	63.99
707.938	64.54
708.123	64.66
708.307	64.95
708.492	65.59
708.677	65.63
708.861	65.85
709.046	66.24
709.231	66.91
709.415	67.41
709.6	67.26
709.784	67.27
709.969	67.69
710.153	67.41
710.338	67.58
710.522	68.14
710.707	68.6
710.891	68.63
711.076	69.06
711.26	68.89
711.445	69.03
711.629	69.52
711.813	69.74
711.998	70.14
712.182	70.06
712.366	70.74
712.551	71.56
712.735	71.92
712.919	71.91
713.103	72.63
713.288	72.15
713.472	71.82
713.656	72.43
713.84	72.92
714.024	73.57
714.208	73.69
714.393	74.17
714.577	74.07
714.761	74.46
714.945	74.21
715.129	74.91
715.313	74.86
715.497	75.12
715.681	75.75
715.865	76
716.049	76.14
716.233	76.03
716.417	76.19
716.601	75.46
716.785	75.5
716.968	75.87
717.152	76.1
717.336	76.4
717.52	76.44
717.704	76.89
717.888	76.96
718.071	77.49
718.255	77.29
718.439	77.39
718.622	77.47
718.806	77.53
718.99	77.14
719.174	77.3
719.357	77.86
719.541	78.09
719.724	78.17
719.908	78.92
720.092	79.64
720.275	79.66
720.459	79.32
720.642	79.44
720.826	79.01
721.009	78.74
721.193	78.41
721.376	79.19
721.559	79.39
721.743	79.7
721.926	79.96
722.11	80.51
722.293	79.99
722.476	79.97
722.66	80.34
722.843	79.97
723.026	79.77
723.21	80.09
723.393	81.12
723.576	81.28
723.759	81.19
723.942	81.45
724.126	81.26
724.309	80.75
724.492	80.49
724.675	81.03
724.858	81.7
725.041	82.35
725.224	82.4
725.407	82.28
725.59	82.39
725.774	81.98
725.957	81.76
726.14	81.89
726.322	82.53
726.505	82.02
726.688	82.22
726.871	81.77
727.054	81.98
727.237	81.53
727.42	82.86
727.603	82.77
727.786	83.48
727.968	83.06
728.151	83.78
728.334	83
728.517	83.06
728.699	83.73
728.882	83.68
729.065	84.31
729.248	84.89
729.43	85.58
729.613	85.66
729.796	86.5
729.978	85.37
730.161	85.47
730.343	85
730.526	85.07
730.708	84.31
730.891	85.19
731.073	85.11
731.256	85.16
731.438	85.13
731.621	86.15
731.803	85.54
731.986	85.89
732.168	85.69
732.35	85.34
732.533	84.66
732.715	85.32
732.898	85.61
733.08	86.35
733.262	86.87
733.444	87.3
733.627	87.15
733.809	87.49
733.991	87.79
734.173	86.94
734.355	86.83
734.538	87.65
734.72	86.69
734.902	86.43
735.084	87.14
735.266	87.63
735.448	87.43
735.63	87.35
735.812	87.49
735.994	88.31
736.176	87.91
736.358	87.48
736.54	88.69
736.722	87.67
736.904	86.95
737.086	86.71
737.268	87.63
737.45	86.99
737.632	87.79
737.814	87.53
737.995	88.41
738.177	88.04
738.359	87.33
738.541	87.82
738.723	87.92
738.904	88.21
739.086	87.68
739.268	88.34
739.449	88.02
739.631	88.13
739.813	88.09
739.994	88.75
740.176	88.9
740.358	88.72
740.539	89.63
740.721	89.74
740.902	91.09
741.084	91.33
741.265	91.77
741.447	92.1
741.628	91.98
741.81	90.19
741.991	90.64
742.172	90.89
742.354	90.58
742.535	90.37
742.717	91.3
742.898	91.01
743.079	91.49
743.261	91.39
743.442	90.91
743.623	91.25
743.804	91.7
743.986	92.07
744.167	90.41
744.348	90.42
744.529	89.43
744.71	88.19
744.891	86.94
745.073	87.46
745.254	87.55
745.435	87.17
745.616	86.34
745.797	86.3
745.978	86.85
746.159	87.71
746.34	86.52
746.521	89.28
746.702	89.27
746.883	88.75
747.064	88.39
747.245	90.3
747.426	89.5
747.606	90.15
747.787	90.78
747.968	90.03
748.149	90.55
748.33	90.92
748.51	91.08
748.691	90.23
748.872	90.86
749.053	90.06
749.233	89.05
749.414	87.99
749.595	87.92
749.775	87.51
749.956	86.62
750.137	86.99
750.317	88.52
750.498	90.19
750.678	89.73
750.859	91.77
751.04	90.6
751.22	87.63
751.4	86.54
751.581	86.58
751.761	86.13
751.942	87.32
752.122	88.25
752.303	87.73
752.483	87.96
752.663	87.01
752.844	85.7
753.024	87.36
753.204	88.27
753.385	86.92
753.565	87.76
753.745	88.91
753.925	88.56
754.106	87.49
754.286	88.15
754.466	87.57
754.646	87.85
754.826	87.17
755.006	86.59
755.187	88.76
755.367	88.97
755.547	88.75
755.727	90.09
755.907	91.92
756.087	90.8
756.267	88.99
756.447	89.34
756.627	87.27
756.807	86.78
756.987	87.03
757.167	88.81
757.346	88.56
757.526	87.52
757.706	88.66
757.886	88.73
758.066	89.29
758.246	90.81
758.425	91.52
758.605	89.72
758.785	89.49
758.965	88.42
759.144	85.78
759.324	86.95
759.504	87.39
759.683	87.66
759.863	86.97
760.043	86.03
760.222	85.92
760.402	84.24
760.581	82.4
760.761	84.26
760.94	84.65
761.12	85.42
761.299	88.04
761.479	88.98
761.658	87.3
761.838	87.02
762.017	86.6
762.197	85.37
762.376	85.51
762.555	86.41
762.735	88.04
762.914	86.45
763.093	86.88
763.273	85.05
763.452	84.9
763.631	84.99
763.81	85.52
763.99	85.39
764.169	86.54
764.348	84.48
764.527	82.53
764.706	83.98
764.885	84.39
765.064	83.35
765.243	85.42
765.423	87.18
765.602	86.33
765.781	84.61
765.96	84.67
766.139	83.77
766.318	83.68
766.497	84.31
766.676	85.8
766.854	87.29
767.033	86.25
767.212	85.8
767.391	85.28
767.57	84.03
767.749	83.83
767.928	86.48
768.106	84.58
768.285	82.43
768.464	82.21
768.643	81.87
768.821	80.68
769	82.85
769.179	82.94
769.357	82.99
769.536	82.89
769.715	82.52
769.893	82.37
770.072	83.33
770.25	83.98
770.429	85.06
770.607	84.24
770.786	84.03
770.964	85.36
771.143	83.8
771.321	82.88
771.5	85.19
771.678	83.58
771.857	81.05
772.035	81.56
772.213	82.37
772.392	79.73
772.57	82.23
772.748	84.34
772.927	84.26
773.105	84.53
773.283	86.47
773.461	86.53
773.64	86.69
773.818	87.65
773.996	86.88
774.174	83.44
774.352	80.74
774.531	77.53
774.709	77.75
774.887	76.39
775.065	76.77
775.243	77.54
775.421	78.62
775.599	79.53
775.777	79.61
775.955	79.58
776.133	78.19
776.311	78.11
776.489	74.37
776.667	73.41
776.844	74.54
777.022	74.88
777.2	74.16
777.378	74.9
777.556	76.7
777.734	78.34
777.911	81.23
778.089	82.38
778.267	83.75
778.445	82.84
778.622	82.47
778.8	78.45
778.978	79.01
779.155	77.46
779.333	78.28
779.511	76.7
779.688	79.84
779.866	78.38
780.043	78.53
780.221	77.14
780.398	75.67
780.576	75.2
780.753	77.85
780.931	76.79
781.108	78.13
781.286	82.11
781.463	80.68
781.64	76.7
781.818	80.49
781.995	80.76
782.172	78.84
782.35	78.91
782.527	84.34
782.704	80.99
782.882	78.3
783.059	76.75
783.236	77.1
783.413	75.54
783.59	77.9
783.768	77.3
783.945	79.52
784.122	80.65
784.299	80.43
784.476	77.63
784.653	76.15
784.83	73.33
785.007	70.17
785.184	68.79
785.361	69.22
785.538	75.45
785.715	77.92
785.892	80.43
786.069	81.49
786.246	83.66
786.423	80.74
786.6	77.84
786.776	78.84
786.953	77.09
787.13	78.42
787.307	78.37
787.484	80.31
787.66	77.85
787.837	80.55
788.014	78.89
788.191	76.7
788.367	74.92
788.544	75.3
788.721	71.95
788.897	71.18
789.074	73.79
789.25	71
789.427	74.91
789.603	76.26
789.78	80.64
789.956	81.21
790.133	81.94
790.309	78.88
790.486	81.97
790.662	74.63
790.839	74.52
791.015	75.93
791.192	73.4
791.368	71.73
791.544	70.03
791.721	66.9
791.897	69.47
792.073	70.45
792.249	64.42
792.426	70.65
792.602	73.21
792.778	71.26
792.954	69.09
793.13	72.12
793.307	64.75
793.483	55.19
793.659	53.86
793.835	58.17
794.011	55.93
794.187	58.03
794.363	65.89
794.539	69.55
794.715	63.09
794.891	65.64
795.067	65.21
795.243	67.55
795.419	66.36
795.595	69.16
795.771	69.68
795.947	71.9
796.122	66.58
796.298	71.87
796.474	71.61
796.65	68.52
796.826	67.89
797.001	72.31
797.177	63.71
797.353	69.11
797.529	72.28
797.704	71.99
797.88	68.21
798.056	66.05
798.231	61.09
798.407	63.93
798.582	65.87
798.758	71.48
798.934	80.59
799.109	80.32
799.285	77.74
799.46	79.57
799.636	77.44
799.811	76.23
799.986	75.68
800.162	76.69
800.337	79.65
800.513	74.65
800.688	73.11
800.863	80.06
801.039	70.87
801.214	57.91
801.389	62.37
801.565	62
801.74	49.06
801.915	56.16
802.09	63.71
802.265	71.93
802.441	66.11
802.616	71.53
802.791	76.37
802.966	75.72
803.141	70.51
803.316	69.99
803.491	74.91
803.666	78.92
803.841	72.94
804.016	67.37
804.191	74.2
804.366	68.75
804.541	59.11
804.716	64.8
804.891	63.5
805.066	64.2
805.241	63.89
805.416	61.06
805.591	56.6
805.765	60.72
805.94	60.14
806.115	59.95
806.29	56.5
806.464	56.42
806.639	53.02
806.814	50.36
806.989	49.28
807.163	64.11
807.338	69.03
807.512	68.74
807.687	56.63
807.862	68.24
808.036	70.17
808.211	70.92
808.385	79.17
808.56	98.18
808.734	97.69
808.909	91
809.083	93.07
809.258	91.13
809.432	81.84
809.606	66.72
809.781	59.12
809.955	62.6
810.13	60.32
810.304	51.55
810.478	51.54
810.652	59.87
810.827	58.75
811.001	55.2
811.175	61.29
811.349	61.85
811.524	51.92
811.698	39.01
811.872	47.68
812.046	56.29
812.22	73.62
812.394	77.3
812.568	87.65
812.742	85.5
812.916	77.09
813.09	60.75
813.264	60.36
813.438	64.3
813.612	61.2
813.786	61.71
813.96	71.79
814.134	78.6
814.308	86.83
814.482	90.16
814.656	84.36
814.83	85.74
815.003	87.38
815.177	71.48
815.351	63.8
815.525	65.53
815.698	53.71
815.872	38.34
816.046	31.52
816.219	44.84
816.393	60.87
816.567	69.23
816.74	76.42
816.914	85.87
817.088	79.64
817.261	62.71
817.435	49.02
817.608	61.52
817.782	57.41
817.955	54.26
818.129	51.82
818.302	62.14
818.475	67.63
818.649	60.93
818.822	54.03
818.996	66.95
819.169	59.46
819.342	34.94
819.516	47.35
819.689	65.01
819.862	56.29
820.035	55.09
820.209	56.71
820.382	60.38
820.555	61.45
820.728	45.8
820.901	46.27
821.075	53.29
821.248	47.76
821.421	29.46
821.594	36.94
821.767	52.23
821.94	72.39
822.113	48.53
822.286	41.92
822.459	51.11
822.632	41
822.805	16.45
822.978	43.7
823.151	50.57
823.324	40.66
823.496	21.85
823.669	30.73
823.842	20.43
824.015	21.25
824.188	24.29
824.361	40.65
824.533	25
824.706	24.43
824.879	23.94
825.051	31.44
825.224	31.17
825.397	32.52
825.569	14.02
825.742	33.08
825.915	54.32
826.087	69.6
826.26	52.58
826.432	58.04
826.605	60.99
826.777	36.82
826.95	31.88
827.122	27.85
827.295	44.19
827.467	39.77
827.64	35.1
827.812	31.95
827.984	42.14
828.157	40.76
828.329	-2.09
828.501	14.05
828.674	28.38
828.846	29.15
829.018	39.49
829.19	44.78
829.363	59.94
829.535	63.85
829.707	56.53
829.879	27.27
830.051	27.52
830.223	4.07
830.395	-30.17
830.568	-25.34
830.74	-18.33
830.912	21.72
831.084	7.69
831.256	1.58
831.428	-10.49
831.6	-10.17
831.772	-43.44
831.943	-60.44
832.115	-10.08
832.287	18.37
832.459	22.3
832.631	40.05
832.803	79.85
832.975	88.49
833.146	62.4
833.318	52.68
833.49	37.15
833.662	3.47
833.833	-14.11
834.005	-1.19
834.177	25.18
834.348	28.01
834.52	19.04
834.692	31.51
834.863	43.39
835.035	14.85
835.206	-33.23
835.378	-4.89
835.549	-27.42
835.721	-30.37
835.892	-32.36
836.064	-20.53
836.235	-21.68
836.407	19.25
836.578	15.87
836.749	11.28
836.921	4.84
837.092	-16.08
837.264	-44.11
837.435	-63.03
837.606	-12.03
837.777	9.93
837.949	30.73
838.12	32.73
838.291	47.36
838.462	34.3
838.633	26.3
838.805	14.27
838.976	38.09
839.147	6.46
839.318	-33.63
839.489	-90.03
839.66	-84.57
839.831	-43.46
840.002	-30.57
840.173	-43.6
840.344	30.6
840.515	41.1
840.686	-123.3
840.857	-96.48
841.028	-73.62
841.199	-66.06
841.369	-82.06
841.54	-46.17
841.711	-15.63
841.882	12.93
842.053	6.87
842.223	1.04
842.394	11.33
842.565	13.3
842.736	22.15
842.906	20.67
843.077	37.72
843.248	59.43
843.418	51.55
843.589	24.24
843.759	85.08
843.93	63.68
844.101	27.08
844.271	38.11
844.442	50.5
844.612	53.38
844.783	18.33
844.953	-19.6
845.123	-10.62
845.294	-49.65
845.464	-258.43
845.635	-38.16
845.805	35.51
845.975	7.69
846.146	-15.16
846.316	-3.24
846.486	17.42
846.656	41.12
846.827	36.38
846.997	39.06
847.167	67.54
847.337	32.16
847.507	1.91
847.677	11.27
847.848	53.45
848.018	35.43
848.188	31.39
848.358	20.92
848.528	7.8
848.698	-44.02
848.868	-133.48
849.038	-195.12
849.208	-70.08
849.378	-29.11
849.548	2.48
849.718	33.09
849.887	47.3
850.057	23.52
850.227	0.91
850.397	-32.77
850.567	-167.14
850.737	-337.28
850.906	-1097.19
851.076	-795.9
851.246	-239.66
851.415	28.88
851.585	-0.76
851.755	-20.8
851.924	20.71
852.094	-4.14
852.264	-88.66
852.433	-751.68
852.603	-73.21
852.772	-49.74
852.942	-38.61
853.111	-27.32
853.281	15.95
853.45	23.09
853.62	-35.38
853.789	-49.91
853.959	-35.83
854.128	-44.42
854.297	-41.05
854.467	-60.62
854.636	-39.4
854.805	-16.6
854.975	-18.35
855.144	-109.79
855.313	-26.4
855.482	-292.52
855.652	-135.83
855.821	-126.09
855.99	33.28
856.159	45.15
856.328	39.81
856.497	39.36
856.667	25.7
856.836	1.25
857.005	-37.02
857.174	-53.18
857.343	-100.84
857.512	-61.94
857.681	-103.64
857.85	-148.72
858.019	-59.45
858.188	-51.92
858.356	-61.21
858.525	-109.88
858.694	-95.58
858.863	-241.49
859.032	-192.34
859.201	-278.58
859.369	-161.16
859.538	-103.14
859.707	-81.5
859.876	-41.61
860.044	-56.54
860.213	17.94
860.382	4.88
860.55	28.99
860.719	28.79
860.888	36.6
861.056	-18.33
861.225	-0.71
861.393	33.07
861.562	34.15
861.73	-25.54
861.899	-139.14
862.067	-1992.24
862.236	-113.45
862.404	-316.93
862.572	-150.95
862.741	-14.26
862.909	-38.89
863.078	-139
863.246	-51.48
863.414	-34.55
863.582	-14.48
863.751	20.48
863.919	24.12
864.087	49.05
864.255	31.89
864.424	-246.91
864.592	-48.99
864.76	-122.22
864.928	-368.6
865.096	-205.02
865.264	-207.48
865.432	-1858.52
865.6	9.62
865.768	-52.84
865.936	-76.62
866.104	12.31
866.272	-32.42
866.44	-304.23
866.608	490.08
866.776	204.84
866.944	2292.44
867.112	-359.22
867.28	-154.22
867.448	-58.59
867.615	-23.81
867.783	-0.74
867.951	-29.29
868.119	-10.69
868.286	-62.87
868.454	-167.51
868.622	-196.6
868.789	-169.83
868.957	-2562.5
869.125	-1773.03
869.292	-75.61
869.46	-137.42
869.627	6.68
869.795	-32.08
869.963	7.03
870.13	13.86
870.298	39.02
870.465	-49.69
870.632	-42.55
870.8	-36.57
870.967	-105.99
871.135	-177.05
871.302	-119.06
871.469	-154.37
871.637	-134.07
871.804	-26.78
871.971	-45.41
872.139	-179.42
872.306	53
872.473	-19.86
872.64	-143.67
872.807	47.16
872.975	60.56
873.142	-74.82
873.309	547.97
873.476	125.05
873.643	154.4
873.81	128.49
873.977	138.54
874.144	108.29
874.311	-7.47
874.478	-92.84
874.645	-170.54
874.812	-158.4
874.979	-45.14
875.146	-44.95
875.313	-36.61
875.48	48.25
875.647	15.62
875.813	-32.99
875.98	-13.83
876.147	-45.63
876.314	-96.83
876.481	799.79
876.647	-1013.2
876.814	408.16
876.981	88.17
877.147	12.09
877.314	40.84
877.481	59.33
877.647	57.46
877.814	15.47
877.98	-28.15
878.147	-9.88
878.314	50.55
878.48	18.86
878.647	22.24
878.813	75.37
878.979	82.26
879.146	27.7
879.312	38.84
879.479	94.39
879.645	32.18
879.811	-69.64
879.978	-205.15
880.144	-95.72
880.31	-103.24
880.477	-324.24
880.643	-368.22
880.809	-139.27
880.975	-47.25
881.142	-421.59
881.308	11.38
881.474	32.14
881.64	12.48
881.806	-23.38
881.972	-10.01
882.138	-17.44
882.304	53.96
882.47	-59.35
882.636	-439.14
882.802	-79.86
882.968	-3.07
883.134	-4.12
883.3	3.51
883.466	33.38
883.632	71.83
883.798	45.06
883.964	31.26
884.129	23.49
884.295	27.46
884.461	-71.74
884.627	-79.93
884.793	-114.14
884.958	-56.15
885.124	-150.46
885.29	-211.22
885.455	-376.58
885.621	-84.52
885.787	-180.91
885.952	-84.42
886.118	-108.07
886.283	-90.06
886.449	-169.62
886.614	-157.28
886.78	-247.6
886.945	637.3
887.111	-375.58
887.276	-304.4
887.442	-555.23
887.607	-309.32
887.773	-141.96
887.938	-171.21
888.103	-203.95
888.269	-35.77
888.434	-26.89
888.599	-12.5
888.764	108.06
888.93	65.38
889.095	56.49
889.26	31.67
889.425	37.76
889.59	17.2
889.756	-6.74
889.921	-31.75
890.086	10.15
890.251	21.48
890.416	-84.84
890.581	-752.82
890.746	88.48
890.911	132.96
891.076	104.65
891.241	-111.01
891.406	97.08
891.571	50.77
891.736	-99.89
891.901	-203.32
892.065	163.46
892.23	118.19
892.395	206.41
892.56	333.45
892.725	-336.52
892.889	-1614.02
893.054	-286.36
893.219	-99.96
893.384	-34.43
893.548	-96.74
893.713	-85.5
893.878	-33.53
