Data from Ofra_1a_PS_2GT10_Reflection_1.txt Node
Date: Tue Jul 20 10:48:16 EDT 2021
User: Adam
Spectrometer: FLMT01687
Trigger mode: 0
Integration Time (sec): 1.004000E0
Scans to average: 2
Electric dark correction enabled: true
Nonlinearity correction enabled: false
Boxcar width: 2
XAxis mode: Wavelengths
Number of Pixels in Spectrum: 3648
>>>>>Begin Spectral Data<<<<<
179.494	-261.93
179.716	-336.64
179.937	878.93
180.158	-1276.43
180.38	180.87
180.601	113.15
180.823	64.57
181.044	-42.92
181.265	-94.51
181.486	201.03
181.708	163.5
181.929	-7854.55
182.15	165.87
182.372	-5.91
182.593	330.92
182.814	-154.84
183.035	-4.47
183.257	-10.17
183.478	1.5
183.699	-2.65
183.92	-58.54
184.141	-68.88
184.363	-51.93
184.584	-49.61
184.805	-46.89
185.026	12.68
185.247	-7.56
185.468	-47.29
185.689	-37.34
185.91	-43.37
186.132	-39.99
186.353	-14.18
186.574	3.39
186.795	3.77
187.016	27.85
187.237	-1.41
187.458	-5.88
187.679	-22.78
187.9	-2.74
188.121	-30.94
188.342	-11.68
188.563	-14.8
188.784	23.71
189.005	8.24
189.226	9.4
189.447	3.31
189.667	-6.27
189.888	-21.42
190.109	-21.29
190.33	6.82
190.551	-2.99
190.772	-5.7
190.993	4.02
191.214	-17.43
191.434	-58.65
191.655	-13.37
191.876	33.32
192.097	14.18
192.318	26.63
192.538	-1.43
192.759	-17.21
192.98	-16.97
193.201	-10.53
193.421	-12.25
193.642	-1.53
193.863	5.39
194.083	-3.36
194.304	-11.62
194.525	-14.93
194.745	-12.53
194.966	-3.99
195.187	-1.65
195.407	1.67
195.628	1.79
195.848	-6.8
196.069	-21.51
196.29	5.66
196.51	-19.41
196.731	-13.91
196.951	-31.95
197.172	-11.08
197.392	-51.28
197.613	-7.44
197.833	-18.83
198.054	-24.94
198.274	-44
198.495	-25.7
198.715	-30.72
198.936	-6.02
199.156	22.24
199.377	33.86
199.597	38.16
199.817	27.89
200.038	-11.71
200.258	10.94
200.479	32.84
200.699	5.83
200.919	-5.04
201.14	5.38
201.36	-2.34
201.58	-44.06
201.801	-49.2
202.021	-45.82
202.241	-38.33
202.461	-43.05
202.682	-11.14
202.902	-13.21
203.122	5.34
203.342	0
203.563	-10.93
203.783	-24.66
204.003	-17.01
204.223	-14.51
204.443	-23.44
204.663	-18.98
204.884	-6.97
205.104	13.72
205.324	13.96
205.544	11.11
205.764	23.52
205.984	-4.37
206.204	2.17
206.424	-28.84
206.644	-36.51
206.864	-84.83
207.084	-29.03
207.304	-68.08
207.525	-48.28
207.745	-12.45
207.964	4.9
208.184	-2.93
208.404	17.45
208.624	14.05
208.844	5.19
209.064	-2.11
209.284	-5.3
209.504	-26.05
209.724	-16.7
209.944	-38.05
210.164	-20.28
210.384	-22.34
210.604	-49.98
210.823	-58.12
211.043	-28.61
211.263	-163.25
211.483	-92.8
211.703	-31.45
211.922	-25.33
212.142	-7.67
212.362	41.9
212.582	31.52
212.801	7.76
213.021	-14.82
213.241	-26.63
213.461	-42.75
213.68	-15.24
213.9	-25.21
214.12	-22.52
214.339	-21.31
214.559	-7.63
214.779	-35.64
214.998	-5
215.218	-2.77
215.438	2.59
215.657	-6.25
215.877	-11.73
216.096	6.55
216.316	16.81
216.535	18.07
216.755	14.18
216.974	22.29
217.194	-8.07
217.413	-9.11
217.633	-14.78
217.852	-7.45
218.072	-8.89
218.291	-10.59
218.511	-28.26
218.73	-45.93
218.95	-75.98
219.169	-80.58
219.389	-51.49
219.608	-58.89
219.827	-35.98
220.047	-20
220.266	-25.53
220.485	-53.05
220.705	-22.82
220.924	-31.72
221.143	-7.41
221.363	-3.72
221.582	-13.7
221.801	1.28
222.021	12.07
222.24	-3.33
222.459	29.37
222.678	44.51
222.897	24.17
223.117	18.98
223.336	36.34
223.555	-8.21
223.774	-25.38
223.993	-19.65
224.213	4.26
224.432	12.03
224.651	28.04
224.87	28.04
225.089	20.33
225.308	3.79
225.527	-14.46
225.746	-23.01
225.965	-31.69
226.184	-39.87
226.404	-44.78
226.623	-33.45
226.842	-28.63
227.061	-42.78
227.28	-10.64
227.499	6.89
227.718	3.46
227.936	21.66
228.155	34.09
228.374	17.53
228.593	5.23
228.812	8.57
229.031	-1.66
229.25	-15.88
229.469	-12.31
229.688	-0.52
229.907	4.66
230.125	0.17
230.344	13.78
230.563	22.79
230.782	18.26
231.001	21.39
231.22	9.89
231.438	17.57
231.657	20.63
231.876	23.64
232.095	18.05
232.313	5.34
232.532	-10.83
232.751	-21.34
232.969	-24.36
233.188	-29.07
233.407	-3.68
233.625	9.28
233.844	8.23
234.063	6.39
234.281	12.08
234.5	7.85
234.719	-4.65
234.937	-39.33
235.156	-36.22
235.374	-37.17
235.593	-27.44
235.811	-3.02
236.03	24.33
236.249	19.97
236.467	23.95
236.686	16.53
236.904	18.88
237.123	10.42
237.341	2.37
237.559	6.99
237.778	47.36
237.996	15.16
238.215	-27.89
238.433	-61.3
238.652	-19.45
238.87	-51.42
239.088	-36.03
239.307	-0.81
239.525	7.43
239.743	-9.66
239.962	-29.52
240.18	-9.63
240.398	-11.15
240.617	-26.22
240.835	-51.14
241.053	-37.44
241.271	-53.08
241.49	-33.33
241.708	-29.36
241.926	-34.7
242.144	-24.09
242.363	-22.46
242.581	-79.88
242.799	-92.67
243.017	-53.08
243.235	-43.56
243.453	-71.38
243.672	-53.66
243.89	-26.82
244.108	-12.73
244.326	-0.96
244.544	18.9
244.762	11.9
244.98	18.13
245.198	18.83
245.416	3.76
245.634	-1.89
245.852	-4.74
246.07	-0.34
246.288	-2.96
246.506	1.63
246.724	2.22
246.942	4.82
247.16	13.16
247.378	12.63
247.596	46.58
247.814	38.78
248.032	42.89
248.25	23.78
248.468	23.74
248.685	6.17
248.903	12.13
249.121	18.03
249.339	14.88
249.557	9.5
249.775	13.27
249.992	8.53
250.21	1.58
250.428	9.52
250.646	8.08
250.863	4.59
251.081	6.92
251.299	-4.97
251.517	-0.76
251.734	12.21
251.952	14.04
252.17	13.86
252.387	26.24
252.605	4.2
252.823	-14.58
253.04	10.42
253.258	13.38
253.475	1.81
253.693	23.1
253.911	11.17
254.128	-3.39
254.346	-2.31
254.563	10.24
254.781	-14.05
254.998	-13.51
255.216	-56.24
255.433	-91.89
255.651	-101.73
255.868	-96.52
256.086	-92.87
256.303	-52.82
256.521	-36.63
256.738	-24.72
256.956	-7.03
257.173	1.03
257.39	5.1
257.608	5.78
257.825	7.75
258.043	14.54
258.26	21.26
258.477	26.46
258.695	30.11
258.912	18.76
259.129	-2.09
259.346	-34.26
259.564	-62.95
259.781	-85.04
259.998	-51.64
260.216	-17.73
260.433	-13.52
260.65	-13.12
260.867	-6.41
261.084	-13.84
261.302	-32.48
261.519	7.85
261.736	16.22
261.953	8.19
262.17	23.7
262.387	25.55
262.604	20.61
262.822	20.66
263.039	25.36
263.256	21.32
263.473	18.41
263.69	12.44
263.907	9.13
264.124	15.91
264.341	12.13
264.558	7.27
264.775	-1.97
264.992	11.42
265.209	-10.9
265.426	-23.41
265.643	-25.06
265.86	-15.14
266.077	-43.47
266.294	-3.17
266.51	25.54
266.727	37.35
266.944	44.94
267.161	46.5
267.378	36.1
267.595	10.03
267.812	-5.26
268.028	-34.99
268.245	-47.35
268.462	-32.02
268.679	-14.06
268.896	-12.52
269.112	-19.65
269.329	-37.65
269.546	-8.86
269.763	-21.13
269.979	-16.11
270.196	-8.35
270.413	-3.43
270.629	-26.42
270.846	-22.77
271.063	-9.89
271.279	-5.6
271.496	-6.13
271.712	12.31
271.929	21.5
272.146	12.13
272.362	17.25
272.579	4.04
272.795	-3.29
273.012	-9.01
273.228	5.48
273.445	-8.02
273.661	4.2
273.878	-23.51
274.094	-15.33
274.311	-10.23
274.527	-27.92
274.744	-4.38
274.96	-0.83
275.177	-11.31
275.393	1.82
275.609	21.25
275.826	15.06
276.042	11.03
276.259	21.19
276.475	10.03
276.691	7.53
276.908	-11.35
277.124	12.75
277.34	-2.31
277.557	-10.57
277.773	-21.81
277.989	-14.5
278.205	-14.39
278.422	-8.32
278.638	0.69
278.854	-5.38
279.07	9.3
279.286	0.79
279.503	2.89
279.719	-6.51
279.935	-3.63
280.151	-14.68
280.367	-12.16
280.583	-16
280.799	-23.48
281.016	-69.06
281.232	-35.44
281.448	-41.71
281.664	-29.51
281.88	-19.93
282.096	19.2
282.312	8.56
282.528	17.94
282.744	13.69
282.96	-1.54
283.176	-38.3
283.392	-75.75
283.608	-88.8
283.824	-116.8
284.04	-153
284.256	-59.85
284.471	-40.2
284.687	-26.13
284.903	-11.02
285.119	25.47
285.335	18.31
285.551	28.89
285.767	15.27
285.982	24.24
286.198	-28.44
286.414	-39.33
286.63	-75.46
286.846	-46.43
287.061	-55.61
287.277	-56.02
287.493	-55.3
287.709	-38.94
287.924	-19.71
288.14	4.77
288.356	26.26
288.571	20.51
288.787	3.8
289.003	1.38
289.218	-28.6
289.434	-23.64
289.65	6.4
289.865	9.43
290.081	12.89
290.296	19.95
290.512	12.98
290.727	-10.5
290.943	-10.69
291.159	-25.94
291.374	-46.12
291.59	-30.03
291.805	-37.99
292.021	-20.75
292.236	-23.89
292.451	-14.64
292.667	-17.96
292.882	7.72
293.098	-3.21
293.313	11.59
293.529	22.41
293.744	15.96
293.959	7.08
294.175	12.95
294.39	3.86
294.605	6.48
294.821	4.98
295.036	2.09
295.251	-2.94
295.467	-9.02
295.682	-8.69
295.897	-33.92
296.112	-26.05
296.328	-5.34
296.543	-10.33
296.758	-17.49
296.973	-0.83
297.188	-6.64
297.404	-30.48
297.619	-43.08
297.834	-67.64
298.049	-30.64
298.264	-37.29
298.479	-27.97
298.694	12.55
298.909	35.69
299.125	17.86
299.34	24.06
299.555	22.65
299.77	23.55
299.985	10.01
300.2	21.53
300.415	26.06
300.63	23.91
300.845	7.82
301.06	4.83
301.275	3
301.49	-3.83
301.704	-4.26
301.919	-4.75
302.134	-4.58
302.349	-11.21
302.564	-13.82
302.779	-26.2
302.994	-8.21
303.209	-8.93
303.423	-15.11
303.638	-16.41
303.853	-11.18
304.068	-26.59
304.283	-13.69
304.497	-4.24
304.712	13.89
304.927	-1.67
305.142	17.49
305.356	26.25
305.571	23.1
305.786	15
306	29.22
306.215	4.69
306.43	-18.94
306.644	-33.88
306.859	-55.84
307.074	-30.44
307.288	-22.38
307.503	-7.75
307.717	4.88
307.932	16.46
308.147	3.36
308.361	2.94
308.576	-19.42
308.79	-9.4
309.005	-45.37
309.219	-26.95
309.434	-14.83
309.648	0.67
309.863	-2.68
310.077	17.15
310.292	17.15
310.506	15.11
310.72	8.68
310.935	29.81
311.149	41.43
311.364	56.01
311.578	62.56
311.792	65.43
312.007	47.33
312.221	11.79
312.435	7.32
312.649	-5.81
312.864	8.7
313.078	18.27
313.292	20.53
313.507	18.95
313.721	18.48
313.935	23.56
314.149	6.49
314.363	7.14
314.578	1.08
314.792	-34.55
315.006	-51.29
315.22	-13.59
315.434	-6.63
315.648	-22.66
315.862	-3.9
316.077	-10.67
316.291	-33.27
316.505	-63.66
316.719	-40.29
316.933	-36.49
317.147	-31.81
317.361	-21.46
317.575	-10.01
317.789	-12.54
318.003	-19.5
318.217	-4.05
318.431	-9.54
318.645	-11.86
318.859	0.15
319.073	15.97
319.287	5.59
319.5	-0.66
319.714	-2.71
319.928	-10.73
320.142	-16.42
320.356	-2.76
320.57	-15.96
320.784	0.83
320.997	-7.38
321.211	-3.14
321.425	-29.52
321.639	11.49
321.853	8.26
322.066	4.99
322.28	4.15
322.494	7.28
322.707	3.19
322.921	-0.77
323.135	19.38
323.349	-0.71
323.562	4.57
323.776	-14.64
323.989	-0.13
324.203	-18.83
324.417	-7.78
324.63	-17.81
324.844	-15.01
325.057	-34.29
325.271	-26.25
325.485	-24.72
325.698	-9.88
325.912	1.41
326.125	-10.77
326.339	-2.03
326.552	-7.11
326.766	-17.07
326.979	-21.36
327.193	3.64
327.406	-15.5
327.619	-8.57
327.833	-0.99
328.046	4.07
328.26	-5.06
328.473	-0.54
328.686	-0.3
328.9	0.26
329.113	-7.39
329.326	-14.87
329.54	-1.54
329.753	7.04
329.966	0.24
330.179	-8.8
330.393	-3.29
330.606	0.26
330.819	-14.33
331.032	-17.73
331.246	1.03
331.459	11.03
331.672	-1.01
331.885	-1.55
332.098	19.25
332.311	13.42
332.525	6.07
332.738	6.55
332.951	-0.53
333.164	-2.5
333.377	-2.89
333.59	-10.77
333.803	-11.02
334.016	-4.04
334.229	-4.83
334.442	-12.52
334.655	-7.53
334.868	-9.21
335.081	-7
335.294	-16.61
335.507	0.51
335.72	-3.34
335.933	-8.39
336.146	-5.35
336.359	9.21
336.572	5.5
336.785	3.49
336.997	21.39
337.21	17.25
337.423	-18.39
337.636	-31.99
337.849	-34.86
338.062	-20.96
338.274	-9.8
338.487	-14.05
338.7	-20.42
338.913	-4.3
339.125	-12.24
339.338	-33.01
339.551	-21.8
339.763	-16.87
339.976	-23.65
340.189	-37.05
340.402	-15.05
340.614	-12.94
340.827	0.51
341.039	15.91
341.252	19.48
341.465	2.32
341.677	21.45
341.89	15.76
342.102	18.12
342.315	24.76
342.527	32.43
342.74	6.41
342.952	1.55
343.165	-10.03
343.377	-6.1
343.59	-14.31
343.802	-2.59
344.015	12.45
344.227	8.49
344.44	2.28
344.652	4.29
344.864	6.14
345.077	-2.59
345.289	17.05
345.502	25.64
345.714	28.57
345.926	34.88
346.139	34.28
346.351	20.34
346.563	10.26
346.775	7.57
346.988	10.78
347.2	10.32
347.412	6.89
347.624	5.49
347.837	24.52
348.049	19.89
348.261	2.85
348.473	-1.2
348.685	-11.15
348.897	-29.52
349.11	-23.88
349.322	-10.31
349.534	-10.37
349.746	-6.82
349.958	-25.68
350.17	-59.21
350.382	-59.51
350.594	-40.23
350.806	-16.21
351.018	-6.25
351.23	6.5
351.442	21.15
351.654	19.2
351.866	6.35
352.078	23.78
352.29	24.58
352.502	13.53
352.714	8.35
352.926	11.89
353.138	14.48
353.35	1.26
353.561	5.94
353.773	-2.35
353.985	6.67
354.197	3.04
354.409	8.72
354.621	0.87
354.832	3.64
355.044	-16.17
355.256	-36.14
355.468	-41.15
355.679	-9.88
355.891	1.64
356.103	0.12
356.314	4.68
356.526	-3.79
356.738	-26.25
356.949	-20.9
357.161	-1.42
357.373	-3.99
357.584	-1.74
357.796	9.79
358.008	4.42
358.219	-4.95
358.431	-4.14
358.642	13.3
358.854	6.7
359.065	-4.06
359.277	-2.45
359.488	-12.5
359.7	-20.3
359.911	-33.28
360.123	-17.67
360.334	-15.9
360.546	-14.79
360.757	-13.29
360.969	-4.75
361.18	-8.03
361.391	0.29
361.603	8.54
361.814	8.58
362.025	4.73
362.237	12.96
362.448	14.62
362.659	15.94
362.871	6.59
363.082	9.69
363.293	0.72
363.504	-19.38
363.716	-30.12
363.927	-0.15
364.138	-21.01
364.349	-32.23
364.56	-36.23
364.772	-13.37
364.983	-18.73
365.194	-5.11
365.405	3
365.616	10.47
365.827	-11.08
366.038	-1.71
366.25	7.39
366.461	9.32
366.672	10.46
366.883	16.31
367.094	6.68
367.305	1.56
367.516	-1.66
367.727	-20.79
367.938	-14.31
368.149	-21.72
368.36	-33.6
368.571	-42.77
368.781	-31.02
368.992	-34.35
369.203	-37.08
369.414	-36.2
369.625	-29.08
369.836	-1.79
370.047	5.91
370.258	32.2
370.468	34.53
370.679	18.94
370.89	4.96
371.101	13.84
371.312	-4.1
371.522	-0.91
371.733	7.94
371.944	0.72
372.155	-4.75
372.365	7.94
372.576	12.71
372.787	12.68
372.997	6.78
373.208	2.01
373.419	-8.68
373.629	-8.53
373.84	-14.14
374.05	-17.59
374.261	-32.74
374.472	-25.87
374.682	-21.97
374.893	-30.91
375.103	-18.51
375.314	-3.48
375.524	-1.04
375.735	-4.6
375.945	9.97
376.156	10.34
376.366	2.92
376.577	1
376.787	-4.88
376.997	-1.39
377.208	-0.19
377.418	1.23
377.629	-1.88
377.839	2.63
378.049	-3.86
378.26	-22.75
378.47	-21.36
378.68	-8.56
378.89	-6.52
379.101	-0.97
379.311	18.97
379.521	3.93
379.732	5.12
379.942	3.81
380.152	-13.75
380.362	-15.03
380.572	8.12
380.783	8.17
380.993	11.65
381.203	18.94
381.413	20.09
381.623	15.97
381.833	15.64
382.043	7.47
382.253	9.84
382.463	17.44
382.674	14.84
382.884	15.97
383.094	20.47
383.304	22
383.514	16.59
383.724	13.66
383.934	9.97
384.144	12.97
384.353	15.84
384.563	16.04
384.773	18.53
384.983	13.98
385.193	7.09
385.403	0.29
385.613	2.69
385.823	-4.79
386.033	-0.28
386.242	-5.99
386.452	-6.08
386.662	-11.89
386.872	-7.31
387.082	-7.94
387.291	-6.21
387.501	-4
387.711	-1.38
387.921	2.81
388.13	2.32
388.34	6.8
388.55	2.6
388.759	-1.63
388.969	-6.37
389.179	-6.62
389.388	-7.44
389.598	-8.97
389.807	-11.41
390.017	-11.64
390.227	-11.86
390.436	-8.38
390.646	-5.58
390.855	-1.08
391.065	-1.58
391.274	-0.69
391.484	-3.25
391.693	-4.43
391.903	-4.49
392.112	-1.48
392.322	-0.96
392.531	-0.81
392.74	-1.72
392.95	-1.89
393.159	-3.01
393.369	-4.03
393.578	-3.89
393.787	-2.18
393.997	-2.63
394.206	-1.91
394.415	-0.96
394.625	-0.98
394.834	0.14
395.043	1.11
395.252	2.11
395.462	3.13
395.671	2.47
395.88	3.54
396.089	3.55
396.298	3.08
396.508	2.49
396.717	2.56
396.926	1.14
397.135	1.27
397.344	1.01
397.553	0.38
397.762	1.45
397.971	1.11
398.181	1.45
398.39	0.99
398.599	1.36
398.808	1.02
399.017	1.74
399.226	1.12
399.435	1.36
399.644	1.74
399.853	1.71
400.062	1.95
400.27	1.92
400.479	2.06
400.688	2.04
400.897	1.88
401.106	1.79
401.315	1.79
401.524	1.64
401.733	1.47
401.941	1.58
402.15	1.18
402.359	1.29
402.568	1.45
402.777	1.5
402.985	1.44
403.194	1.41
403.403	1.71
403.612	1.52
403.82	1.32
404.029	1.44
404.238	1.74
404.446	1.74
404.655	1.95
404.864	2.05
405.072	2.1
405.281	2.05
405.489	1.65
405.698	1.72
405.906	1.82
406.115	1.64
406.324	1.68
406.532	1.98
406.741	1.75
406.949	1.74
407.158	1.9
407.366	1.83
407.574	1.73
407.783	1.78
407.991	1.71
408.2	1.82
408.408	1.76
408.617	1.8
408.825	1.78
409.033	1.76
409.242	1.72
409.45	1.83
409.658	1.72
409.867	1.78
410.075	1.8
410.283	1.66
410.491	1.51
410.7	1.5
410.908	1.47
411.116	1.6
411.324	1.65
411.533	1.63
411.741	1.63
411.949	1.66
412.157	1.51
412.365	1.47
412.573	1.57
412.781	1.54
412.99	1.53
413.198	1.61
413.406	1.76
413.614	1.8
413.822	1.9
414.03	1.9
414.238	1.84
414.446	1.75
414.654	1.64
414.862	1.53
415.07	1.48
415.278	1.56
415.486	1.42
415.694	1.54
415.902	1.58
416.109	1.52
416.317	1.32
416.525	1.21
416.733	1.02
416.941	1.05
417.149	1.09
417.357	1.14
417.564	1.27
417.772	1.46
417.98	1.43
418.188	1.44
418.395	1.28
418.603	1.24
418.811	1
419.019	1.02
419.226	1.03
419.434	1.24
419.642	1.34
419.849	1.26
420.057	1.16
420.265	1.09
420.472	1.16
420.68	1.1
420.887	1.3
421.095	1.41
421.302	1.44
421.51	1.34
421.717	1.46
421.925	1.46
422.132	1.48
422.34	1.33
422.547	1.33
422.755	1.38
422.962	1.48
423.17	1.16
423.377	1.25
423.585	1.38
423.792	1.23
423.999	1.13
424.207	1.33
424.414	1.48
424.621	1.49
424.829	1.61
425.036	1.66
425.243	1.64
425.451	1.55
425.658	1.52
425.865	1.4
426.072	1.4
426.28	1.4
426.487	1.43
426.694	1.13
426.901	1.18
427.108	1.12
427.315	1.16
427.523	1.13
427.73	1.31
427.937	1.23
428.144	1.21
428.351	1.25
428.558	1.27
428.765	1.25
428.972	1.3
429.179	1.27
429.386	1.16
429.593	1.06
429.8	1.03
430.007	0.96
430.214	1.03
430.421	1.19
430.628	1.12
430.835	1.15
431.042	1.19
431.249	1.17
431.456	1.11
431.662	1.31
431.869	1.49
432.076	1.45
432.283	1.5
432.49	1.51
432.697	1.39
432.903	1.22
433.11	1.34
433.317	1.46
433.524	1.54
433.73	1.61
433.937	1.85
434.144	1.58
434.35	1.4
434.557	1.37
434.764	1.34
434.97	1.21
435.177	1.46
435.384	1.58
435.59	1.52
435.797	1.66
436.003	1.61
436.21	1.54
436.416	1.48
436.623	1.54
436.829	1.41
437.036	1.44
437.242	1.56
437.449	1.58
437.655	1.6
437.862	1.66
438.068	1.58
438.275	1.6
438.481	1.62
438.687	1.54
438.894	1.67
439.1	1.72
439.307	1.77
439.513	1.82
439.719	1.85
439.926	1.71
440.132	1.78
440.338	1.69
440.544	1.66
440.751	1.6
440.957	1.66
441.163	1.48
441.369	1.49
441.575	1.41
441.782	1.52
441.988	1.57
442.194	1.65
442.4	1.68
442.606	1.84
442.812	1.77
443.018	1.7
443.224	1.79
443.431	1.68
443.637	1.57
443.843	1.67
444.049	1.74
444.255	1.76
444.461	1.76
444.667	1.76
444.873	1.7
445.079	1.6
445.284	1.55
445.49	1.55
445.696	1.55
445.902	1.61
446.108	1.72
446.314	1.77
446.52	1.95
446.726	2.03
446.931	1.94
447.137	1.86
447.343	1.86
447.549	1.83
447.755	1.76
447.96	1.79
448.166	1.84
448.372	1.77
448.578	1.7
448.783	1.82
448.989	1.9
449.195	1.96
449.4	2.06
449.606	2.05
449.812	1.98
450.017	1.89
450.223	1.78
450.428	1.79
450.634	1.83
450.84	1.82
451.045	1.91
451.251	2.01
451.456	2.06
451.662	2.12
451.867	2.18
452.073	2.22
452.278	2.16
452.483	2.14
452.689	2.08
452.894	2.05
453.1	2.03
453.305	2.1
453.51	2.07
453.716	2.09
453.921	2.15
454.127	2.07
454.332	2.03
454.537	2.02
454.742	1.96
454.948	1.95
455.153	1.98
455.358	1.94
455.563	1.98
455.769	2.02
455.974	1.94
456.179	1.85
456.384	1.85
456.589	1.69
456.795	1.66
457	1.65
457.205	1.7
457.41	1.68
457.615	1.78
457.82	1.91
458.025	1.92
458.23	1.95
458.435	2.05
458.64	2.07
458.845	1.99
459.05	2.05
459.255	2.03
459.46	2.03
459.665	2
459.87	1.94
460.075	1.99
460.28	2.06
460.485	2.05
460.69	2.05
460.895	2.1
461.099	1.99
461.304	1.94
461.509	1.91
461.714	1.97
461.919	1.93
462.123	1.99
462.328	1.92
462.533	1.83
462.738	1.78
462.942	1.76
463.147	1.74
463.352	1.93
463.556	2.11
463.761	2.13
463.966	2.14
464.17	2.31
464.375	2.23
464.58	2.11
464.784	2.1
464.989	2.12
465.193	1.98
465.398	2.04
465.602	2.16
465.807	2.18
466.011	2.21
466.216	2.26
466.42	2.25
466.625	2.31
466.829	2.26
467.034	2.33
467.238	2.37
467.443	2.37
467.647	2.19
467.851	2.28
468.056	2.25
468.26	2.19
468.464	2.23
468.669	2.37
468.873	2.33
469.077	2.29
469.282	2.28
469.486	2.18
469.69	2.12
469.894	2.19
470.099	2.27
470.303	2.32
470.507	2.27
470.711	2.32
470.915	2.37
471.119	2.42
471.324	2.44
471.528	2.57
471.732	2.56
471.936	2.49
472.14	2.44
472.344	2.47
472.548	2.49
472.752	2.42
472.956	2.45
473.16	2.47
473.364	2.49
473.568	2.45
473.772	2.55
473.976	2.64
474.18	2.68
474.384	2.54
474.588	2.56
474.792	2.56
474.995	2.52
475.199	2.4
475.403	2.57
475.607	2.61
475.811	2.59
476.015	2.52
476.218	2.55
476.422	2.49
476.626	2.45
476.83	2.56
477.033	2.62
477.237	2.66
477.441	2.67
477.644	2.64
477.848	2.6
478.052	2.58
478.255	2.59
478.459	2.59
478.663	2.76
478.866	2.78
479.07	2.78
479.273	2.83
479.477	2.87
479.681	2.8
479.884	2.85
480.088	2.87
480.291	2.85
480.495	2.82
480.698	2.8
480.901	2.74
481.105	2.76
481.308	2.77
481.512	2.78
481.715	2.86
481.919	2.93
482.122	2.93
482.325	3.03
482.529	3.06
482.732	3.02
482.935	2.92
483.138	2.91
483.342	2.85
483.545	2.92
483.748	2.92
483.952	3.07
484.155	3.15
484.358	3.21
484.561	3.17
484.764	3.16
484.967	3.07
485.171	3.01
485.374	2.93
485.577	2.91
485.78	2.94
485.983	2.91
486.186	2.91
486.389	2.94
486.592	3.01
486.795	3.05
486.998	3.08
487.201	3.14
487.404	3.25
487.607	3.28
487.81	3.18
488.013	3.16
488.216	3.14
488.419	3.04
488.622	2.96
488.825	2.99
489.028	2.99
489.231	2.95
489.433	3
489.636	2.94
489.839	3.04
490.042	3.02
490.245	3.07
490.447	3
490.65	3.08
490.853	2.98
491.056	3.03
491.258	3.03
491.461	3.03
491.664	3
491.866	2.96
492.069	3.02
492.272	2.94
492.474	3
492.677	3.03
492.879	3.09
493.082	3.03
493.285	3.12
493.487	3.13
493.69	3.17
493.892	3.11
494.095	3.08
494.297	3.1
494.5	3.05
494.702	3.06
494.905	3.13
495.107	3.2
495.309	3.2
495.512	3.24
495.714	3.26
495.917	3.31
496.119	3.32
496.321	3.29
496.524	3.19
496.726	3.09
496.928	3.09
497.13	3.04
497.333	3.06
497.535	3.17
497.737	3.21
497.939	3.19
498.142	3.21
498.344	3.23
498.546	3.16
498.748	3.24
498.95	3.26
499.152	3.3
499.355	3.28
499.557	3.35
499.759	3.39
499.961	3.33
500.163	3.32
500.365	3.37
500.567	3.4
500.769	3.37
500.971	3.42
501.173	3.38
501.375	3.39
501.577	3.38
501.779	3.36
501.981	3.38
502.183	3.38
502.385	3.34
502.587	3.37
502.788	3.42
502.99	3.41
503.192	3.5
503.394	3.57
503.596	3.56
503.798	3.49
503.999	3.55
504.201	3.52
504.403	3.55
504.605	3.61
504.806	3.66
505.008	3.64
505.21	3.64
505.411	3.59
505.613	3.55
505.815	3.58
506.016	3.68
506.218	3.75
506.42	3.8
506.621	3.85
506.823	3.85
507.024	3.83
507.226	3.84
507.427	3.87
507.629	3.79
507.83	3.78
508.032	3.73
508.233	3.69
508.435	3.67
508.636	3.83
508.838	3.89
509.039	3.94
509.24	3.98
509.442	4.03
509.643	3.97
509.845	3.94
510.046	3.96
510.247	4.07
510.448	4.07
510.65	4.07
510.851	4.12
511.052	4.15
511.254	4.08
511.455	4.09
511.656	4.07
511.857	4.08
512.058	4.12
512.26	4.12
512.461	4.09
512.662	4.17
512.863	4.1
513.064	4.04
513.265	4.03
513.466	4.09
513.667	4.1
513.868	4.16
514.069	4.2
514.27	4.27
514.471	4.24
514.672	4.26
514.873	4.31
515.074	4.37
515.275	4.33
515.476	4.39
515.677	4.36
515.878	4.37
516.079	4.35
516.28	4.38
516.481	4.32
516.682	4.34
516.882	4.28
517.083	4.27
517.284	4.28
517.485	4.34
517.686	4.34
517.886	4.36
518.087	4.37
518.288	4.36
518.488	4.32
518.689	4.33
518.89	4.37
519.091	4.41
519.291	4.42
519.492	4.47
519.692	4.47
519.893	4.49
520.094	4.47
520.294	4.52
520.495	4.51
520.695	4.54
520.896	4.54
521.096	4.56
521.297	4.56
521.497	4.53
521.698	4.54
521.898	4.53
522.099	4.52
522.299	4.54
522.499	4.56
522.7	4.57
522.9	4.59
523.101	4.59
523.301	4.58
523.501	4.63
523.702	4.65
523.902	4.64
524.102	4.73
524.302	4.78
524.503	4.78
524.703	4.72
524.903	4.73
525.103	4.65
525.304	4.68
525.504	4.74
525.704	4.81
525.904	4.81
526.104	4.87
526.304	4.82
526.504	4.81
526.705	4.77
526.905	4.81
527.105	4.79
527.305	4.8
527.505	4.75
527.705	4.75
527.905	4.76
528.105	4.78
528.305	4.77
528.505	4.82
528.705	4.91
528.905	4.94
529.105	4.99
529.304	5.03
529.504	5.05
529.704	5.04
529.904	5.02
530.104	5
530.304	4.99
530.503	4.99
530.703	4.95
530.903	4.99
531.103	5.04
531.303	5.09
531.502	5.15
531.702	5.21
531.902	5.3
532.101	5.26
532.301	5.3
532.501	5.36
532.7	5.37
532.9	5.35
533.1	5.41
533.299	5.4
533.499	5.31
533.698	5.31
533.898	5.29
534.097	5.27
534.297	5.31
534.496	5.35
534.696	5.41
534.895	5.36
535.095	5.41
535.294	5.4
535.494	5.42
535.693	5.45
535.892	5.51
536.092	5.48
536.291	5.5
536.491	5.53
536.69	5.53
536.889	5.51
537.088	5.56
537.288	5.54
537.487	5.56
537.686	5.52
537.886	5.56
538.085	5.53
538.284	5.62
538.483	5.62
538.682	5.69
538.882	5.74
539.081	5.79
539.28	5.75
539.479	5.75
539.678	5.76
539.877	5.81
540.076	5.8
540.275	5.86
540.474	5.85
540.673	5.88
540.872	5.88
541.071	5.96
541.27	5.99
541.469	6.05
541.668	6.05
541.867	6.1
542.066	6.13
542.265	6.17
542.464	6.19
542.663	6.25
542.862	6.27
543.06	6.31
543.259	6.34
543.458	6.41
543.657	6.44
543.856	6.5
544.054	6.5
544.253	6.51
544.452	6.53
544.651	6.57
544.849	6.57
545.048	6.65
545.247	6.71
545.445	6.7
545.644	6.75
545.843	6.79
546.041	6.75
546.24	6.74
546.438	6.83
546.637	6.86
546.836	6.96
547.034	7.05
547.233	7.13
547.431	7.11
547.63	7.14
547.828	7.13
548.027	7.13
548.225	7.18
548.423	7.29
548.622	7.36
548.82	7.41
549.019	7.47
549.217	7.53
549.415	7.57
549.614	7.72
549.812	7.81
550.01	7.86
550.209	7.93
550.407	8
550.605	7.87
550.803	7.9
551.002	7.94
551.2	7.91
551.398	8
551.596	8.12
551.794	8.2
551.993	8.3
552.191	8.43
552.389	8.47
552.587	8.53
552.785	8.59
552.983	8.65
553.181	8.73
553.379	8.83
553.577	8.9
553.775	8.99
553.973	9.05
554.171	9.11
554.369	9.13
554.567	9.23
554.765	9.26
554.963	9.32
555.161	9.35
555.359	9.43
555.557	9.51
555.755	9.63
555.952	9.73
556.15	9.85
556.348	9.97
556.546	10.11
556.744	10.15
556.941	10.15
557.139	10.25
557.337	10.31
557.535	10.27
557.732	10.33
557.93	10.51
558.128	10.56
558.325	10.65
558.523	10.82
558.721	10.95
558.918	11.02
559.116	11.13
559.313	11.24
559.511	11.32
559.708	11.42
559.906	11.56
560.104	11.66
560.301	11.74
560.498	11.81
560.696	11.91
560.893	11.97
561.091	12.07
561.288	12.2
561.486	12.3
561.683	12.39
561.88	12.5
562.078	12.57
562.275	12.6
562.473	12.71
562.67	12.77
562.867	12.86
563.064	12.98
563.262	13.11
563.459	13.28
563.656	13.47
563.853	13.53
564.051	13.7
564.248	13.87
564.445	13.92
564.642	13.95
564.839	14.1
565.036	14.17
565.234	14.18
565.431	14.31
565.628	14.37
565.825	14.46
566.022	14.58
566.219	14.71
566.416	14.79
566.613	14.94
566.81	15.05
567.007	15.12
567.204	15.18
567.401	15.29
567.598	15.36
567.795	15.48
567.991	15.52
568.188	15.65
568.385	15.74
568.582	15.8
568.779	15.85
568.976	15.97
569.172	16.01
569.369	16.1
569.566	16.24
569.763	16.23
569.96	16.28
570.156	16.31
570.353	16.34
570.55	16.38
570.746	16.52
570.943	16.6
571.14	16.7
571.336	16.73
571.533	16.79
571.729	16.87
571.926	16.92
572.123	17
572.319	17.08
572.516	17.15
572.712	17.2
572.909	17.25
573.105	17.3
573.302	17.33
573.498	17.28
573.695	17.3
573.891	17.28
574.087	17.22
574.284	17.24
574.48	17.36
574.677	17.3
574.873	17.37
575.069	17.53
575.266	17.66
575.462	17.67
575.658	17.89
575.854	17.96
576.051	17.99
576.247	18
576.443	18.01
576.639	17.89
576.835	17.84
577.032	17.76
577.228	17.75
577.424	17.78
577.62	17.81
577.816	17.83
578.012	17.87
578.208	17.9
578.404	17.92
578.6	17.98
578.796	18.04
578.993	18.12
579.189	18.11
579.384	18.09
579.58	18.05
579.776	17.99
579.972	17.92
580.168	17.9
580.364	17.91
580.56	17.84
580.756	17.86
580.952	17.87
581.148	17.92
581.343	17.85
581.539	17.91
581.735	17.88
581.931	17.86
582.127	17.83
582.322	17.9
582.518	17.92
582.714	17.93
582.909	17.88
583.105	17.83
583.301	17.82
583.496	17.8
583.692	17.75
583.888	17.76
584.083	17.73
584.279	17.69
584.474	17.62
584.67	17.66
584.866	17.64
585.061	17.66
585.257	17.68
585.452	17.75
585.648	17.74
585.843	17.79
586.039	17.85
586.234	17.89
586.429	17.85
586.625	17.88
586.82	17.94
587.015	17.94
587.211	17.92
587.406	17.96
587.601	17.96
587.797	17.96
587.992	18
588.187	17.96
588.383	18.02
588.578	18.09
588.773	18.14
588.968	18.09
589.163	18.24
589.359	18.16
589.554	18.11
589.749	18.14
589.944	18.17
590.139	18.14
590.334	18.26
590.529	18.28
590.724	18.3
590.919	18.39
591.114	18.36
591.309	18.39
591.504	18.45
591.699	18.48
591.894	18.42
592.089	18.51
592.284	18.51
592.479	18.54
592.674	18.62
592.869	18.73
593.064	18.73
593.259	18.9
593.454	18.95
593.648	18.96
593.843	19.01
594.038	19.21
594.233	19.18
594.428	19.33
594.622	19.44
594.817	19.61
595.012	19.59
595.206	19.68
595.401	19.72
595.596	19.74
595.79	19.72
595.985	19.79
596.18	19.9
596.374	19.99
596.569	20.08
596.763	20.21
596.958	20.33
597.153	20.42
597.347	20.39
597.542	20.51
597.736	20.61
597.931	20.65
598.125	20.73
598.319	20.93
598.514	20.92
598.708	20.98
598.903	21.03
599.097	21.14
599.291	21.15
599.486	21.31
599.68	21.34
599.874	21.37
600.069	21.45
600.263	21.55
600.457	21.57
600.651	21.57
600.846	21.73
601.04	21.71
601.234	21.73
601.428	21.85
601.622	21.98
601.817	22
602.011	21.98
602.205	22.06
602.399	21.94
602.593	21.96
602.787	21.89
602.981	21.92
603.175	21.9
603.369	21.91
603.563	22
603.757	22.02
603.951	22.09
604.145	22.05
604.339	22.12
604.533	22.05
604.727	22.17
604.921	22.11
605.115	22.19
605.309	22.09
605.502	22.14
605.696	22.03
605.89	22.1
606.084	22.01
606.278	21.99
606.471	21.87
606.665	21.84
606.859	21.72
607.053	21.59
607.246	21.58
607.44	21.52
607.634	21.48
607.827	21.42
608.021	21.36
608.214	21.28
608.408	21.17
608.602	20.95
608.795	20.9
608.989	20.92
609.182	20.93
609.376	20.94
609.569	21.05
609.763	20.96
609.956	20.87
610.15	20.72
610.343	20.69
610.537	20.61
610.73	20.49
610.923	20.44
611.117	20.43
611.31	20.19
611.504	20.1
611.697	20.15
611.89	20.04
612.083	19.9
612.277	19.86
612.47	19.69
612.663	19.59
612.856	19.49
613.05	19.45
613.243	19.4
613.436	19.34
613.629	19.2
613.822	19.26
614.015	19.18
614.209	19.12
614.402	19.09
614.595	19.08
614.788	19
614.981	18.89
615.174	18.8
615.367	18.75
615.56	18.58
615.753	18.56
615.946	18.56
616.139	18.5
616.332	18.49
616.525	18.47
616.718	18.39
616.911	18.28
617.103	18.32
617.296	18.22
617.489	18.07
617.682	17.97
617.875	17.98
618.067	17.88
618.26	17.85
618.453	17.82
618.646	17.78
618.838	17.72
619.031	17.65
619.224	17.53
619.417	17.57
619.609	17.56
619.802	17.46
619.994	17.45
620.187	17.37
620.38	17.35
620.572	17.24
620.765	17.24
620.957	17.16
621.15	17.22
621.342	17.19
621.535	17.19
621.727	17.17
621.92	17.19
622.112	17.19
622.305	17.21
622.497	17.21
622.69	17.21
622.882	17.2
623.074	17.23
623.267	17.17
623.459	17.05
623.651	17
623.844	17.04
624.036	17.02
624.228	16.92
624.42	16.93
624.613	16.89
624.805	16.77
624.997	16.71
625.189	16.76
625.381	16.71
625.574	16.69
625.766	16.72
625.958	16.65
626.15	16.59
626.342	16.57
626.534	16.54
626.726	16.5
626.918	16.5
627.11	16.43
627.302	16.45
627.494	16.4
627.686	16.36
627.878	16.34
628.07	16.44
628.262	16.49
628.454	16.47
628.646	16.4
628.838	16.44
629.029	16.24
629.221	16.07
629.413	16.07
629.605	15.98
629.797	15.8
629.989	15.87
630.18	15.99
630.372	15.93
630.564	15.96
630.755	16
630.947	15.95
631.139	15.81
631.33	15.76
631.522	15.75
631.714	15.75
631.905	15.76
632.097	15.71
632.289	15.68
632.48	15.65
632.672	15.58
632.863	15.5
633.055	15.55
633.246	15.55
633.438	15.54
633.629	15.5
633.821	15.51
634.012	15.51
634.203	15.5
634.395	15.55
634.586	15.58
634.777	15.57
634.969	15.51
635.16	15.52
635.351	15.46
635.543	15.43
635.734	15.39
635.925	15.37
636.117	15.35
636.308	15.35
636.499	15.34
636.69	15.35
636.881	15.3
637.073	15.38
637.264	15.35
637.455	15.24
637.646	15.25
637.837	15.28
638.028	15.11
638.219	15.17
638.41	15.28
638.601	15.29
638.792	15.31
638.983	15.36
639.174	15.21
639.365	15.16
639.556	15.07
639.747	15.01
639.938	15.04
640.129	15.07
640.32	15.06
640.511	15.09
640.701	15.11
640.892	15.1
641.083	15.1
641.274	15.05
641.465	15.07
641.655	15
641.846	14.96
642.037	14.95
642.228	14.86
642.418	14.78
642.609	14.79
642.8	14.72
642.99	14.6
643.181	14.67
643.372	14.53
643.562	14.51
643.753	14.5
643.943	14.46
644.134	14.36
644.324	14.39
644.515	14.34
644.705	14.33
644.896	14.44
645.086	14.48
645.277	14.49
645.467	14.49
645.658	14.45
645.848	14.34
646.038	14.38
646.229	14.42
646.419	14.28
646.61	14.31
646.8	14.28
646.99	14.22
647.18	14.18
647.371	14.22
647.561	14.1
647.751	14.17
647.941	14.1
648.132	14.05
648.322	14.04
648.512	14.11
648.702	14.12
648.892	14.14
649.082	14.15
649.272	14.08
649.462	14.08
649.653	13.97
649.843	13.92
650.033	13.87
650.223	13.85
650.413	13.81
650.603	13.87
650.793	13.94
650.983	13.92
651.172	13.99
651.362	13.85
651.552	13.65
651.742	13.51
651.932	13.41
652.122	13.34
652.312	13.36
652.502	13.3
652.691	13.27
652.881	13.25
653.071	13.22
653.261	13.08
653.45	13.01
653.64	12.88
653.83	12.71
654.019	12.47
654.209	12.47
654.399	12.3
654.588	12.21
654.778	12.11
654.968	12.06
655.157	11.85
655.347	11.77
655.536	11.63
655.726	11.5
655.915	11.39
656.105	11.27
656.294	11.08
656.484	10.92
656.673	10.8
656.863	10.73
657.052	10.54
657.241	10.57
657.431	10.5
657.62	10.37
657.809	10.13
657.999	10.06
658.188	9.85
658.377	9.65
658.567	9.51
658.756	9.38
658.945	9.23
659.134	9.11
659.324	8.95
659.513	8.78
659.702	8.55
659.891	8.47
660.08	8.31
660.269	8.21
660.458	8.09
660.648	8.05
660.837	7.8
661.026	7.65
661.215	7.57
661.404	7.43
661.593	7.32
661.782	7.32
661.971	7.13
662.16	6.93
662.349	6.86
662.538	6.67
662.726	6.58
662.915	6.6
663.104	6.52
663.293	6.45
663.482	6.39
663.671	6.25
663.86	6.09
664.048	6.1
664.237	6.01
664.426	5.97
664.615	5.88
664.803	5.82
664.992	5.71
665.181	5.59
665.369	5.45
665.558	5.47
665.747	5.6
665.935	5.56
666.124	5.57
666.312	5.59
666.501	5.47
666.69	5.39
666.878	5.33
667.067	5.33
667.255	5.34
667.444	5.45
667.632	5.41
667.82	5.46
668.009	5.46
668.197	5.33
668.386	5.2
668.574	5.21
668.762	5.15
668.951	5.08
669.139	5.12
669.327	5.15
669.516	5.1
669.704	5.2
669.892	5.25
670.08	5.34
670.269	5.45
670.457	5.46
670.645	5.34
670.833	5.39
671.021	5.49
671.21	5.34
671.398	5.33
671.586	5.47
671.774	5.53
671.962	5.45
672.15	5.64
672.338	5.74
672.526	5.78
672.714	5.84
672.902	5.97
673.09	5.95
673.278	6.12
673.466	6.15
673.654	6.18
673.842	6.24
674.03	6.35
674.218	6.34
674.405	6.35
674.593	6.46
674.781	6.54
674.969	6.66
675.157	6.72
675.344	6.82
675.532	6.85
675.72	6.93
675.908	6.86
676.095	6.86
676.283	6.94
676.471	6.95
676.658	6.99
676.846	7.07
677.033	7.07
677.221	7.19
677.409	7.22
677.596	7.22
677.784	7.38
677.971	7.44
678.159	7.45
678.346	7.6
678.534	7.75
678.721	7.86
678.909	8.08
679.096	8.23
679.283	8.29
679.471	8.4
679.658	8.46
679.846	8.52
680.033	8.73
680.22	8.99
680.408	8.96
680.595	9.05
680.782	9.17
680.969	9.3
681.157	9.36
681.344	9.5
681.531	9.6
681.718	9.72
681.905	9.74
682.093	9.83
682.28	10.13
682.467	10.32
682.654	10.45
682.841	10.64
683.028	10.72
683.215	11.01
683.402	11.1
683.589	11.32
683.776	11.39
683.963	11.72
684.15	11.85
684.337	12.17
684.524	12.49
684.711	12.83
684.898	12.91
685.085	13.02
685.271	13.38
685.458	13.51
685.645	13.72
685.832	14.01
686.019	14.24
686.205	14.42
686.392	14.72
686.579	15.03
686.766	15.53
686.952	15.95
687.139	16.29
687.326	16.71
687.512	17.13
687.699	17.48
687.886	17.78
688.072	18.1
688.259	18.44
688.445	19.01
688.632	19.48
688.818	20.05
689.005	20.61
689.191	21.31
689.378	21.61
689.564	22.29
689.751	22.9
689.937	23.65
690.124	24.2
690.31	24.79
690.496	25.19
690.683	25.75
690.869	26.17
691.055	26.82
691.242	27.56
691.428	28.16
691.614	29.03
691.8	29.83
691.987	30.58
692.173	31.34
692.359	32.41
692.545	33.16
692.731	33.89
692.918	34.35
693.104	35.11
693.29	35.57
693.476	36.14
693.662	36.74
693.848	37.71
694.034	38.47
694.22	39.26
694.406	39.97
694.592	40.98
694.778	41.62
694.964	42.43
695.15	43.32
695.336	44.15
695.522	44.63
695.708	45.44
695.894	46.06
696.08	46.79
696.265	47.54
696.451	48.46
696.637	49.39
696.823	50.3
697.009	50.83
697.194	51.46
697.38	52.27
697.566	52.86
697.751	53.55
697.937	54.44
698.123	55.15
698.308	55.65
698.494	56.36
698.68	57.09
698.865	57.64
699.051	58.43
699.236	59.16
699.422	59.58
699.607	60.17
699.793	60.98
699.978	61.24
700.164	61.61
700.349	62.4
700.535	62.65
700.72	62.95
700.906	63.74
701.091	64.29
701.276	64.63
701.462	65.15
701.647	65.63
701.832	66.02
702.018	66.73
702.203	67.35
702.388	68.06
702.573	68.66
702.759	69.13
702.944	69.17
703.129	69.44
703.314	69.73
703.499	70.08
703.684	70.44
703.87	71.12
704.055	71.75
704.24	71.83
704.425	71.92
704.61	72.47
704.795	73.09
704.98	72.91
705.165	73.28
705.35	73.66
705.535	73.94
705.72	73.94
705.905	74.91
706.09	75.56
706.275	76.16
706.459	76.37
706.644	76.66
706.829	76.49
707.014	76.71
707.199	76.92
707.384	77.09
707.568	77.11
707.753	77.82
707.938	78.08
708.123	78.35
708.307	78.5
708.492	79.37
708.677	79.23
708.861	79.28
709.046	78.89
709.231	79.14
709.415	78.95
709.6	79.28
709.784	79.4
709.969	80.2
710.153	80.24
710.338	80.3
710.522	80.25
710.707	80.32
710.891	80.28
711.076	80.63
711.26	80.89
711.445	80.91
711.629	81.12
711.813	81.14
711.998	81.38
712.182	81.31
712.366	81.79
712.551	82.05
712.735	82.51
712.919	82.88
713.103	83.54
713.288	83.56
713.472	84.28
713.656	84.27
713.84	84.07
714.024	84.19
714.208	84.02
714.393	83.64
714.577	83.88
714.761	84
714.945	83.77
715.129	84.23
715.313	84.39
715.497	84.11
715.681	84.21
715.865	83.95
716.049	83.69
716.233	83.47
716.417	83.8
716.601	83.9
716.785	84.09
716.968	84.32
717.152	84.87
717.336	84.94
717.52	85.13
717.704	85.7
717.888	86.05
718.071	85.68
718.255	86.04
718.439	86.48
718.622	86.53
718.806	86.71
718.99	86.73
719.174	86.61
719.357	86.32
719.541	86.4
719.724	86.25
719.908	86.44
720.092	86.1
720.275	86.24
720.459	86.43
720.642	86.57
720.826	86.76
721.009	87.05
721.193	86.9
721.376	86.94
721.559	86.99
721.743	87.44
721.926	87.42
722.11	87.75
722.293	87.81
722.476	87.72
722.66	88.28
722.843	88.54
723.026	88.27
723.21	88.09
723.393	88.47
723.576	88.03
723.759	88.81
723.942	89.09
724.126	88.91
724.309	88.9
724.492	88.79
724.675	88.12
724.858	88.68
725.041	89.04
725.224	89.19
725.407	89.31
725.59	89.57
725.774	89.14
725.957	89.69
726.14	89.66
726.322	89.97
726.505	90.07
726.688	90.42
726.871	89.99
727.054	90.31
727.237	90.04
727.42	90.1
727.603	90.11
727.786	90.34
727.968	89.94
728.151	90.28
728.334	90.31
728.517	90.11
728.699	89.79
728.882	89.84
729.065	89.48
729.248	89.35
729.43	89.47
729.613	89.36
729.796	89.72
729.978	89.81
730.161	89.51
730.343	89.91
730.526	90.66
730.708	90.74
730.891	91.53
731.073	91.93
731.256	91.94
731.438	92.21
731.621	92.61
731.803	91.72
731.986	92
732.168	92.48
732.35	92.7
732.533	92.34
732.715	92.67
732.898	93.37
733.08	92.74
733.262	91.96
733.444	92.2
733.627	92.32
733.809	92.14
733.991	92.6
734.173	92.74
734.355	92.49
734.538	93
734.72	92.49
734.902	92.48
735.084	93.23
735.266	93.82
735.448	94.27
735.63	95.27
735.812	95.88
735.994	95.71
736.176	96.09
736.358	96.22
736.54	96.05
736.722	95.39
736.904	95.67
737.086	95.02
737.268	95.14
737.45	95.53
737.632	96.2
737.814	96.47
737.995	96.44
738.177	96.07
738.359	96.03
738.541	95.44
738.723	95.18
738.904	95.87
739.086	95.71
739.268	95.09
739.449	95.12
739.631	95.28
739.813	94.74
739.994	94.08
740.176	94.68
740.358	94.33
740.539	93.6
740.721	93.92
740.902	95.06
741.084	95.23
741.265	95.6
741.447	96.08
741.628	96.21
741.81	95.94
741.991	95.37
742.172	95.04
742.354	94.95
742.535	94.58
742.717	93.6
742.898	93.89
743.079	94.94
743.261	95.48
743.442	94.46
743.623	95.44
743.804	95.54
743.986	94.66
744.167	93.84
744.348	94.17
744.529	93.88
744.71	93.01
744.891	92.91
745.073	93.17
745.254	93.76
745.435	93.33
745.616	93.04
745.797	93.43
745.978	93.19
746.159	93.35
746.34	94.24
746.521	94.32
746.702	94.77
746.883	95.38
747.064	95.59
747.245	95.72
747.426	96.91
747.606	95.96
747.787	96.66
747.968	95.5
748.149	94.22
748.33	93.06
748.51	92.66
748.691	91.6
748.872	93.63
749.053	93.47
749.233	93.73
749.414	94.47
749.595	94.78
749.775	93.11
749.956	93.78
750.137	95.47
750.317	94.89
750.498	93.56
750.678	93.6
750.859	93.44
751.04	92.29
751.22	92.25
751.4	93.45
751.581	94.21
751.761	94.49
751.942	95
752.122	96.38
752.303	97.11
752.483	96.34
752.663	95.88
752.844	95.29
753.024	96.07
753.204	94.82
753.385	95.21
753.565	95.16
753.745	94
753.925	91.51
754.106	92.24
754.286	92.18
754.466	92.52
754.646	93.44
754.826	94.61
755.006	94.07
755.187	93.83
755.367	93.05
755.547	92.77
755.727	92.25
755.907	91.38
756.087	91.54
756.267	91.48
756.447	92.62
756.627	92.34
756.807	94.1
756.987	93.49
757.167	94.17
757.346	93.1
757.526	94.19
757.706	93.32
757.886	93.66
758.066	93.49
758.246	92.64
758.425	91.42
758.605	90.76
758.785	90.58
758.965	91.36
759.144	89.49
759.324	91.29
759.504	92.42
759.683	91.58
759.863	91.42
760.043	93.28
760.222	92.49
760.402	91.53
760.581	92.02
760.761	90.75
760.94	91.64
761.12	91.88
761.299	93.18
761.479	93.44
761.658	93.65
761.838	92.99
762.017	93.24
762.197	90.12
762.376	89.89
762.555	89.99
762.735	90.36
762.914	89.17
763.093	90.36
763.273	89.87
763.452	87.56
763.631	86.68
763.81	86.95
763.99	86.5
764.169	85.96
764.348	87.73
764.527	87.92
764.706	87.67
764.885	88.56
765.064	91.38
765.243	90.83
765.423	91.08
765.602	91.75
765.781	89.53
765.96	87.58
766.139	89.05
766.318	89.29
766.497	88.62
766.676	90.55
766.854	91.02
767.033	90.57
767.212	90.9
767.391	90.77
767.57	91.92
767.749	90.8
767.928	90.08
768.106	88.48
768.285	86.81
768.464	86.06
768.643	86.23
768.821	86.36
769	87.33
769.179	88.36
769.357	88.07
769.536	87.98
769.715	86.31
769.893	85.7
770.072	84.92
770.25	83.55
770.429	84.43
770.607	86.64
770.786	85.98
770.964	86.92
771.143	87.31
771.321	85.65
771.5	87.51
771.678	87.69
771.857	86.1
772.035	86.47
772.213	87.53
772.392	82.82
772.57	82.31
772.748	83.43
772.927	81.94
773.105	82.62
773.283	84.14
773.461	85.26
773.64	84.79
773.818	86.37
773.996	85.76
774.174	86.14
774.352	86.41
774.531	85.7
774.709	85.79
774.887	85.46
775.065	86.53
775.243	86.75
775.421	86.83
775.599	86.79
775.777	84.53
775.955	82.67
776.133	83.51
776.311	83.05
776.489	83.28
776.667	84.98
776.844	85.78
777.022	83.07
777.2	82.99
777.378	80.07
777.556	81.27
777.734	82.34
777.911	84.09
778.089	86.23
778.267	88.24
778.445	90.41
778.622	89.73
778.8	88.96
778.978	88.36
779.155	91.32
779.333	90.75
779.511	88.61
779.688	88.18
779.866	88.3
780.043	87.62
780.221	85.6
780.398	85.34
780.576	85.98
780.753	85.48
780.931	83.48
781.108	84.2
781.286	87.56
781.463	86.74
781.64	87.42
781.818	90.28
781.995	91.08
782.172	89.92
782.35	90.35
782.527	88.76
782.704	85.66
782.882	80.75
783.059	79.75
783.236	79.14
783.413	81.3
783.59	81.78
783.768	83.82
783.945	83.07
784.122	81.14
784.299	78.99
784.476	76.65
784.653	75.87
784.83	74.84
785.007	77.14
785.184	75.76
785.361	78.62
785.538	77.54
785.715	78.85
785.892	78.87
786.069	79.55
786.246	79.22
786.423	80.91
786.6	79.93
786.776	78.95
786.953	77.41
787.13	78.25
787.307	78.09
787.484	77.1
787.66	77.91
787.837	77.85
788.014	77.56
788.191	75.57
788.367	76.47
788.544	75.22
788.721	76.54
788.897	74.37
789.074	77.3
789.25	75.66
789.427	75.56
789.603	74.22
789.78	75.24
789.956	72.17
790.133	73.24
790.309	72.08
790.486	75.11
790.662	75.21
790.839	78.82
791.015	82.37
791.192	85.12
791.368	82.12
791.544	82.29
791.721	78.3
791.897	75.56
792.073	73.82
792.249	74.74
792.426	73.11
792.602	78.97
792.778	76.04
792.954	78.59
793.13	77.2
793.307	80.37
793.483	76.22
793.659	79.7
793.835	79.88
794.011	82.33
794.187	82.21
794.363	83.46
794.539	84.34
794.715	82.95
794.891	81.8
795.067	80.01
795.243	75.35
795.419	73.81
795.595	77.67
795.771	74.63
795.947	71.76
796.122	67.87
796.298	65.6
796.474	61.13
796.65	64.53
796.826	67.87
797.001	75.67
797.177	73.02
797.353	75.97
797.529	74.9
797.704	75.04
797.88	72.33
798.056	74.16
798.231	69.69
798.407	71.41
798.582	72.02
798.758	74.26
798.934	77.7
799.109	81.68
799.285	80.08
799.46	77.24
799.636	76.73
799.811	76.97
799.986	72.71
800.162	66.51
800.337	69.12
800.513	69.78
800.688	65.93
800.863	76.19
801.039	84.7
801.214	81.06
801.389	75.79
801.565	77.05
801.74	69.15
801.915	65.28
802.09	60.01
802.265	65.87
802.441	69.06
802.616	69.86
802.791	71.52
802.966	75.28
803.141	69.76
803.316	67.34
803.491	68.18
803.666	69.38
803.841	70.81
804.016	73.12
804.191	71.88
804.366	68.27
804.541	68.02
804.716	63.87
804.891	64.95
805.066	67.73
805.241	66.75
805.416	69.83
805.591	78.03
805.765	79.15
805.94	76.51
806.115	77.18
806.29	69.27
806.464	59.2
806.639	59.13
806.814	57.98
806.989	62.67
807.163	69.74
807.338	76.88
807.512	71.96
807.687	77.27
807.862	71.75
808.036	68.46
808.211	74.18
808.385	74.72
808.56	65.21
808.734	66.33
808.909	69.54
809.083	70.87
809.258	76.4
809.432	78.96
809.606	77.5
809.781	70.72
809.955	65.56
810.13	59.14
810.304	62.9
810.478	64.31
810.652	66.4
810.827	64.1
811.001	67.43
811.175	68.83
811.349	72.22
811.524	73.7
811.698	72.24
811.872	74.84
812.046	66.42
812.22	66.04
812.394	62.34
812.568	67.41
812.742	54.4
812.916	70.76
813.09	63.15
813.264	61.49
813.438	60.65
813.612	73.32
813.786	65.5
813.96	77.16
814.134	80.48
814.308	73.8
814.482	72.73
814.656	71.41
814.83	65.69
815.003	67.3
815.177	68.23
815.351	67.16
815.525	68.39
815.698	65.35
815.872	58.32
816.046	51.95
816.219	52.23
816.393	51.29
816.567	45.5
816.74	46.37
816.914	61.76
817.088	67.48
817.261	60.91
817.435	70.48
817.608	74.5
817.782	62.48
817.955	53.6
818.129	54.42
818.302	54.09
818.475	52.94
818.649	61.83
818.822	53.85
818.996	62.01
819.169	65.27
819.342	69.85
819.516	67.72
819.689	75.22
819.862	71.45
820.035	69.53
820.209	62.86
820.382	57.71
820.555	51.69
820.728	45.71
820.901	38.45
821.075	37.79
821.248	48.83
821.421	48.37
821.594	48.05
821.767	54.28
821.94	52.65
822.113	49.8
822.286	57.96
822.459	69.93
822.632	67.24
822.805	64.53
822.978	60.8
823.151	51.78
823.324	38.93
823.496	31.34
823.669	38.99
823.842	44.93
824.015	37.66
824.188	28.13
824.361	33.28
824.533	33.29
824.706	38.58
824.879	51.48
825.051	60.3
825.224	61.67
825.397	57.62
825.569	46.2
825.742	59.46
825.915	59.08
826.087	53.34
826.26	56.34
826.432	58.7
826.605	40.4
826.777	55.25
826.95	64.02
827.122	54.18
827.295	63.64
827.467	58.98
827.64	37.52
827.812	38.35
827.984	67.37
828.157	64.5
828.329	75.44
828.501	70.53
828.674	68.79
828.846	58.11
829.018	59.93
829.19	45.79
829.363	55.87
829.535	59.04
829.707	50.85
829.879	32.78
830.051	40.7
830.223	40.06
830.395	27.73
830.568	37.75
830.74	51.82
830.912	61.73
831.084	58.54
831.256	63.11
831.428	56.71
831.6	49.44
831.772	30.71
831.943	19.02
832.115	19.8
832.287	32.1
832.459	30.5
832.631	52.51
832.803	64.98
832.975	60.67
833.146	60.18
833.318	61.49
833.49	62.68
833.662	76.95
833.833	81.98
834.005	82.91
834.177	90.84
834.348	64.9
834.52	48.24
834.692	34.75
834.863	34.17
835.035	34.56
835.206	44.93
835.378	48.89
835.549	57.29
835.721	47.32
835.892	40.63
836.064	38.03
836.235	38.85
836.407	34.87
836.578	44.35
836.749	39.99
836.921	35.13
837.092	24.65
837.264	33.74
837.435	28.02
837.606	42.83
837.777	49.2
837.949	50.17
838.12	47.14
838.291	49.03
838.462	43.05
838.633	35.75
838.805	27.81
838.976	30.78
839.147	29.27
839.318	29.57
839.489	41.09
839.66	54.93
839.831	55.78
840.002	61.22
840.173	62.66
840.344	64.13
840.515	38.56
840.686	44.5
840.857	36.77
841.028	40.59
841.199	32.48
841.369	46.54
841.54	37.73
841.711	42.16
841.882	51.86
842.053	54.78
842.223	69.92
842.394	54.62
842.565	45.07
842.736	38.58
842.906	34.36
843.077	36.31
843.248	47.7
843.418	53.32
843.589	47.13
843.759	49.43
843.93	59.65
844.101	67.02
844.271	77.49
844.442	82.05
844.612	79.3
844.783	46.2
844.953	35.48
845.123	40.64
845.294	46.16
845.464	42.39
845.635	74.17
845.805	75.38
845.975	63.4
846.146	53.91
846.316	46.63
846.486	41.04
846.656	70.33
846.827	62.88
846.997	67.39
847.167	71.62
847.337	66.01
847.507	57.96
847.677	59.66
847.848	57.48
848.018	64.62
848.188	76.2
848.358	53.82
848.528	48.06
848.698	21.61
848.868	9.74
849.038	-12.93
849.208	-2.66
849.378	6.71
849.548	1.11
849.718	-5.8
849.887	-30.31
850.057	-53.01
850.227	-72.62
850.397	-39.42
850.567	-30.32
850.737	14.55
850.906	9.81
851.076	14.37
851.246	25.98
851.415	37.1
851.585	28.68
851.755	46.58
851.924	39.05
852.094	40.81
852.264	25.26
852.433	11.75
852.603	7.9
852.772	34.55
852.942	31.07
853.111	30.91
853.281	38.99
853.45	21.38
853.62	-0.72
853.789	-17.03
853.959	-11.2
854.128	-16.88
854.297	14.79
854.467	28.64
854.636	49.82
854.805	45.8
854.975	30.27
855.144	13.64
855.313	5.75
855.482	-21.3
855.652	-36.18
855.821	-14.28
855.99	-13.11
856.159	0.53
856.328	25.66
856.497	51.84
856.667	48.27
856.836	44.17
857.005	26.76
857.174	25.72
857.343	-23.22
857.512	-20.3
857.681	-24.91
857.85	-19.72
858.019	-46.68
858.188	-7.45
858.356	18.15
858.525	31.99
858.694	66.03
858.863	44.57
859.032	54.95
859.201	82.07
859.369	81.23
859.538	46
859.707	65.07
859.876	52.14
860.044	56.29
860.213	54.62
860.382	57.13
860.55	39.25
860.719	40.28
860.888	14.53
861.056	-16.94
861.225	-28.13
861.393	-2.29
861.562	-14.87
861.73	-15.42
861.899	-16.42
862.067	-16.02
862.236	-5.09
862.404	1.18
862.572	4.03
862.741	33.19
862.909	42.32
863.078	23.93
863.246	15.01
863.414	26.27
863.582	34.45
863.751	16.52
863.919	22.36
864.087	20.17
864.255	3.12
864.424	-38.66
864.592	-2.67
864.76	3.81
864.928	10.97
865.096	10.33
865.264	9.59
865.432	-1.04
865.6	-4.78
865.768	-19.99
865.936	-9.46
866.104	-23.64
866.272	-90.16
866.44	-69.42
866.608	-28.14
866.776	5.55
866.944	27.48
867.112	40.55
867.28	36.59
867.448	39.91
867.615	18.07
867.783	-0.24
867.951	18.41
868.119	13.53
868.286	19.39
868.454	13.31
868.622	14.56
868.789	0.29
868.957	4.47
869.125	9.23
869.292	11.46
869.46	37.52
869.627	52.51
869.795	63.37
869.963	62.02
870.13	58.28
870.298	32.5
870.465	10.39
870.632	-14.12
870.8	-10.78
870.967	0.61
871.135	-3.11
871.302	-2.12
871.469	30.41
871.637	4.98
871.804	-12.58
871.971	-1.74
872.139	-4
872.306	-67.96
872.473	-55.44
872.64	-164.74
872.807	-124.92
872.975	-317.52
873.142	-57.55
873.309	-30.49
873.476	56.57
873.643	71.56
873.81	69.02
873.977	78.7
874.144	68.58
874.311	-26.46
874.478	-81.93
874.645	-117.76
874.812	-45.51
874.979	-61.97
875.146	-77.87
875.313	-37.37
875.48	6.25
875.647	-14.34
875.813	-40.25
875.98	-52.26
876.147	-141.94
876.314	-90.62
876.481	-66.63
876.647	-31.63
876.814	-10.05
876.981	7.65
877.147	-3.74
877.314	2.46
877.481	15.74
877.647	42.31
877.814	54.81
877.98	39.46
878.147	47.21
878.314	57.05
878.48	45.94
878.647	53.36
878.813	88.87
878.979	73.72
879.146	53
879.312	81.83
879.479	50.93
879.645	34.27
879.811	38.26
879.978	57.98
880.144	46.27
880.31	46.66
880.477	63.89
880.643	41.22
880.809	-18.32
880.975	-13.04
881.142	-45.8
881.308	321.4
881.474	398.29
881.64	-11.9
881.806	-92.59
881.972	-33.32
882.138	12.2
882.304	3.72
882.47	-33.92
882.636	-41.47
882.802	-42.84
882.968	-96.77
883.134	-40.91
883.3	-16.47
883.466	30.98
883.632	15.18
883.798	49.51
883.964	-29.45
884.129	-597.38
884.295	-50.4
884.461	-68.86
884.627	-38.9
884.793	-28.77
884.958	19.88
885.124	-13.88
885.29	-26.95
885.455	-40.54
885.621	8.23
885.787	-17.75
885.952	-6.75
886.118	20.36
886.283	-4.19
886.449	-23.46
886.614	-16.78
886.78	-1.52
886.945	-29.71
887.111	-14.28
887.276	-15.15
887.442	-48.71
887.607	-57.84
887.773	0.73
887.938	5.86
888.103	11.76
888.269	34.53
888.434	48.83
888.599	36.27
888.764	46.1
888.93	59.74
889.095	39.99
889.26	7.07
889.425	29.4
889.59	42.65
889.756	8.71
889.921	14.47
890.086	80.64
890.251	46.75
890.416	34.09
890.581	-5.95
890.746	43.24
890.911	20.76
891.076	-3.23
891.241	-30.66
891.406	-15.1
891.571	-93.7
891.736	-111.86
891.901	19.06
892.065	22.06
892.23	41.83
892.395	27.14
892.56	-18.03
892.725	-66.08
892.889	-18.82
893.054	-43.97
893.219	-0.75
893.384	104.58
893.548	65.32
893.713	42.19
893.878	93.68
