Data from Ofra_PS_T2_1A_0GT03_Reflection_1.txt Node
Date: Wed Jul 21 17:45:32 EDT 2021
User: Adam
Spectrometer: FLMT01687
Trigger mode: 0
Integration Time (sec): 1.100000E0
Scans to average: 2
Electric dark correction enabled: true
Nonlinearity correction enabled: false
Boxcar width: 2
XAxis mode: Wavelengths
Number of Pixels in Spectrum: 3648
>>>>>Begin Spectral Data<<<<<
179.494	554.6
179.716	676.47
179.937	612.35
180.158	571.06
180.38	861.41
180.601	332.18
180.823	74.74
181.044	3.44
181.265	230.33
181.486	141.09
181.708	142.32
181.929	620.92
182.15	-398.94
182.372	114.1
182.593	88.41
182.814	19.41
183.035	36.83
183.257	46.41
183.478	-108.14
183.699	-18.38
183.92	6.79
184.141	16.14
184.363	-52.32
184.584	34.37
184.805	30.98
185.026	60.21
185.247	57.54
185.468	49.84
185.689	48.79
185.91	55.77
186.132	42.35
186.353	39.37
186.574	95.54
186.795	70.5
187.016	15.14
187.237	-1.8
187.458	-12.38
187.679	-20.74
187.9	3.07
188.121	-4.01
188.342	46.45
188.563	61.44
188.784	79.87
189.005	95.5
189.226	157.25
189.447	109.07
189.667	41.63
189.888	-115.89
190.109	-1088.64
190.33	-689.84
190.551	-1254.2
190.772	-270.52
190.993	-251.61
191.214	-182.37
191.434	-115.43
191.655	-9.36
191.876	-28.46
192.097	-75.22
192.318	-110.3
192.538	-159.6
192.759	-165.85
192.98	-76.16
193.201	-14.01
193.421	-9.11
193.642	11.37
193.863	33.89
194.083	12.21
194.304	-11.16
194.525	0.73
194.745	-24.51
194.966	-68.36
195.187	-73.33
195.407	-68.35
195.628	-145.09
195.848	-122.32
196.069	-128.87
196.29	-41.99
196.51	-60.87
196.731	-40.11
196.951	-62.64
197.172	-52.23
197.392	-128.78
197.613	-149.4
197.833	-190.5
198.054	-152.8
198.274	-94.43
198.495	-96.52
198.715	-46.58
198.936	-47.82
199.156	-42.28
199.377	-124.56
199.597	-116.2
199.817	-137.54
200.038	-79.68
200.258	-117.38
200.479	-46.01
200.699	-32.02
200.919	17.62
201.14	-24.05
201.36	-45.37
201.58	-7.06
201.801	16.9
202.021	-24
202.241	-19.54
202.461	-14.35
202.682	-109.14
202.902	-178.89
203.122	-93.33
203.342	-49.42
203.563	-30.69
203.783	13.68
204.003	-1.64
204.223	-16.44
204.443	36.74
204.663	38.34
204.884	20.68
205.104	35.69
205.324	80.08
205.544	47.7
205.764	55.16
205.984	52.48
206.204	62.71
206.424	37.14
206.644	12.2
206.864	15.47
207.084	-33.12
207.304	-43.78
207.525	-196.33
207.745	-126.88
207.964	-63.57
208.184	-82.15
208.404	-111.89
208.624	-101.34
208.844	-87.81
209.064	-379.09
209.284	-399.81
209.504	-161.77
209.724	-18.99
209.944	-14.02
210.164	32.09
210.384	45.63
210.604	44.77
210.823	2.77
211.043	-24.94
211.263	-17.42
211.483	-22.31
211.703	-98.14
211.922	-69.68
212.142	22.01
212.362	30.63
212.582	23.97
212.801	54.27
213.021	11.03
213.241	-22.53
213.461	-65.08
213.68	-81.11
213.9	-74.77
214.12	-37.16
214.339	-108.9
214.559	-81.63
214.779	-31.67
214.998	-23.65
215.218	-75.57
215.438	-23.68
215.657	-39.76
215.877	-52.68
216.096	-11.99
216.316	13.74
216.535	6.46
216.755	16.96
216.974	-38.5
217.194	-140.81
217.413	-152.48
217.633	-162.58
217.852	-270.87
218.072	-120.18
218.291	-61.28
218.511	5.3
218.73	1.4
218.95	-1.82
219.169	-5.81
219.389	-37.79
219.608	-43.06
219.827	-44.12
220.047	-17.13
220.266	-7.85
220.485	-5.61
220.705	-11.92
220.924	-21.37
221.143	19.59
221.363	-7.75
221.582	11.67
221.801	24.98
222.021	33.76
222.24	-64.28
222.459	38.51
222.678	6.91
222.897	-53.84
223.117	-99.36
223.336	-60.01
223.555	-34.6
223.774	11.25
223.993	11.75
224.213	92.78
224.432	48.1
224.651	45.23
224.87	7.38
225.089	32.59
225.308	3.96
225.527	36.81
225.746	28.35
225.965	23.94
226.184	-1.57
226.404	16.35
226.623	-15.19
226.842	-6.15
227.061	8.88
227.28	14.99
227.499	-4.93
227.718	17.94
227.936	1.48
228.155	16.02
228.374	-3.37
228.593	11.1
228.812	-6.2
229.031	4.51
229.25	-47.31
229.469	-32.22
229.688	-17.26
229.907	20.7
230.125	36.8
230.344	42.36
230.563	44.91
230.782	36.21
231.001	-47.15
231.22	-46.52
231.438	-11.66
231.657	-5.34
231.876	-11.75
232.095	40.15
232.313	34.35
232.532	13.34
232.751	-24.92
232.969	-35.28
233.188	-87.85
233.407	-9.56
233.625	0.81
233.844	12.3
234.063	33.98
234.281	28.11
234.5	21.1
234.719	20.73
234.937	36.39
235.156	31.4
235.374	26.17
235.593	11.81
235.811	6.41
236.03	-12.9
236.249	-58.26
236.467	-32.04
236.686	-9.15
236.904	2.18
237.123	-27.25
237.341	-14.86
237.559	-7.27
237.778	-20.12
237.996	-51.01
238.215	-1.03
238.433	14.55
238.652	-14.29
238.87	-45.72
239.088	-10.41
239.307	-13.49
239.525	-27.6
239.743	-40.47
239.962	6.36
240.18	-37.84
240.398	-90.35
240.617	-92.71
240.835	-57.9
241.053	-48.74
241.271	15.25
241.49	37.55
241.708	31.58
241.926	30.65
242.144	10.43
242.363	-58.05
242.581	-67.81
242.799	-39.07
243.017	-0.69
243.235	-16.27
243.453	-4.45
243.672	-15.02
243.89	-10.59
244.108	-37.63
244.326	-20.88
244.544	-26.94
244.762	-24.27
244.98	-21.04
245.198	-11.09
245.416	-32.93
245.634	-15.72
245.852	-26.74
246.07	-35.87
246.288	-10.84
246.506	-31.41
246.724	-34.25
246.942	-20.38
247.16	15.81
247.378	6.58
247.596	49.74
247.814	40.25
248.032	7.97
248.25	0.13
248.468	-5.23
248.685	-13.25
248.903	25.19
249.121	37.43
249.339	-8.74
249.557	-14.24
249.775	-15.72
249.992	-96.49
250.21	-100.15
250.428	-55.03
250.646	-87.21
250.863	-107.14
251.081	-50.22
251.299	-29.12
251.517	-47.07
251.734	-25.06
251.952	-23.99
252.17	-30.25
252.387	-21.68
252.605	-25.65
252.823	-18.41
253.04	9.22
253.258	36.21
253.475	41.05
253.693	66.76
253.911	51.47
254.128	40.57
254.346	24.35
254.563	-2.46
254.781	-35.11
254.998	-45.62
255.216	-55.13
255.433	-27.61
255.651	38.75
255.868	83.34
256.086	92.37
256.303	92.16
256.521	56.87
256.738	26.71
256.956	-12.16
257.173	-36.2
257.39	-56.81
257.608	-80.02
257.825	-35.8
258.043	0.86
258.26	24.05
258.477	63.87
258.695	61.36
258.912	25.27
259.129	13.91
259.346	-27.68
259.564	-73.58
259.781	-90.7
259.998	-31.68
260.216	0.36
260.433	59.24
260.65	62.87
260.867	76.29
261.084	52.6
261.302	33.49
261.519	3.6
261.736	-29.96
261.953	-41.66
262.17	-3.99
262.387	-42.55
262.604	-82.61
262.822	-104.7
263.039	-94.52
263.256	-142.1
263.473	-102.17
263.69	-58.89
263.907	3.95
264.124	23.74
264.341	30.73
264.558	33.74
264.775	51.02
264.992	42.02
265.209	35.25
265.426	51.6
265.643	56.99
265.86	72.64
266.077	65.9
266.294	41.32
266.51	-1.41
266.727	-1.31
266.944	-12.49
267.161	-16.63
267.378	-18.63
267.595	12.15
267.812	-21.37
268.028	-38.85
268.245	-29.59
268.462	-32.35
268.679	-58.46
268.896	1.83
269.112	10.57
269.329	8.9
269.546	10.47
269.763	17.39
269.979	-6.3
270.196	-13.03
270.413	-39.48
270.629	-56.25
270.846	-62.63
271.063	-46.43
271.279	-78.53
271.496	-72.79
271.712	-17.85
271.929	7.5
272.146	-22.2
272.362	17.61
272.579	57.05
272.795	53.67
273.012	34.35
273.228	32.51
273.445	-1.75
273.661	-52.79
273.878	-92.74
274.094	-81.89
274.311	-106.74
274.527	-18.97
274.744	1.25
274.96	6.28
275.177	24.04
275.393	39.31
275.609	24.33
275.826	39.96
276.042	27.68
276.259	6.79
276.475	23.11
276.691	19.85
276.908	-3.66
277.124	5.42
277.34	4.81
277.557	-4.84
277.773	-3.23
277.989	-9.35
278.205	-15.7
278.422	-5.14
278.638	2.7
278.854	14.66
279.07	31.52
279.286	29.92
279.503	15.1
279.719	-16.7
279.935	-48.02
280.151	-62.26
280.367	-16.21
280.583	-36.32
280.799	-19.94
281.016	-39.95
281.232	-12.57
281.448	-30.06
281.664	5.77
281.88	-22.26
282.096	5.85
282.312	23.4
282.528	35.89
282.744	14.6
282.96	9.07
283.176	2.28
283.392	-9.2
283.608	-19.69
283.824	-9.47
284.04	10.87
284.256	21.43
284.471	8.73
284.687	13.02
284.903	26.83
285.119	62.29
285.335	38.97
285.551	57.98
285.767	43.86
285.982	16.32
286.198	-59.52
286.414	6.79
286.63	15.58
286.846	43.21
287.061	28.73
287.277	61.9
287.493	27.66
287.709	40.39
287.924	3.94
288.14	42.34
288.356	44.22
288.571	56.78
288.787	31.92
289.003	46.48
289.218	27.32
289.434	-11.08
289.65	-1.16
289.865	-0.29
290.081	11.58
290.296	10.86
290.512	10.27
290.727	-12.37
290.943	-12.34
291.159	-31.81
291.374	-13.96
291.59	-34.16
291.805	-28.1
292.021	-17.9
292.236	-4.54
292.451	1.49
292.667	16.52
292.882	33.87
293.098	26.39
293.313	13.84
293.529	-44.65
293.744	-62.12
293.959	-60.31
294.175	-51.77
294.39	-5.3
294.605	20.12
294.821	51.6
295.036	48.69
295.251	60.38
295.467	9.11
295.682	-17.53
295.897	-95.9
296.112	-116.48
296.328	-109.73
296.543	-116.62
296.758	-84
296.973	-10.64
297.188	33.06
297.404	10.94
297.619	13.46
297.834	-2.78
298.049	-29.13
298.264	-59.33
298.479	-5.93
298.694	8.38
298.909	33.81
299.125	37
299.34	52.22
299.555	21.13
299.77	12.69
299.985	-50.37
300.2	-102.52
300.415	-126.24
300.63	-68.93
300.845	-63.38
301.06	-44.66
301.275	8.73
301.49	30.2
301.704	2.36
301.919	-24.27
302.134	-32.19
302.349	-55.6
302.564	-131.41
302.779	-189.03
302.994	-112.58
303.209	-72.57
303.423	0.55
303.638	59.05
303.853	39.25
304.068	13.63
304.283	11.01
304.497	-15.06
304.712	-35.51
304.927	-20.59
305.142	-21.94
305.356	-14.31
305.571	-7.51
305.786	-21.34
306	-45.65
306.215	-44.47
306.43	-69.94
306.644	-68.24
306.859	-13.64
307.074	2.37
307.288	-11.11
307.503	-24.36
307.717	-38.43
307.932	-41.41
308.147	-44.76
308.361	-23.01
308.576	-15.59
308.79	-47.2
309.005	-37.83
309.219	-11.01
309.434	-23.1
309.648	-15.16
309.863	4.65
310.077	1.86
310.292	-3.5
310.506	-2.32
310.72	-7.25
310.935	16.31
311.149	2.85
311.364	15.24
311.578	31.58
311.792	25.17
312.007	19.47
312.221	6.35
312.435	18.79
312.649	-1.28
312.864	2.53
313.078	10.07
313.292	93.65
313.507	14.99
313.721	29.14
313.935	41.55
314.149	16.98
314.363	-4.3
314.578	1.35
314.792	10.22
315.006	-3.95
315.22	8.59
315.434	10.74
315.648	15.8
315.862	5.59
316.077	10.15
316.291	5.22
316.505	2.32
316.719	2.79
316.933	-27.01
317.147	-15.89
317.361	-75.83
317.575	-75.97
317.789	-86.75
318.003	-108.69
318.217	-121.8
318.431	-23.05
318.645	6.9
318.859	1.17
319.073	29.03
319.287	15.83
319.5	-10.88
319.714	-53.3
319.928	-79.88
320.142	-100.67
320.356	-17.19
320.57	-5.31
320.784	-23.13
320.997	-25
321.211	-50.33
321.425	-109.67
321.639	-111.76
321.853	-28.92
322.066	-9.87
322.28	-5.97
322.494	16.03
322.707	30.86
322.921	-5.66
323.135	-10.45
323.349	8.49
323.562	-24.35
323.776	-33.9
323.989	-22.85
324.203	-30.8
324.417	-57.12
324.63	-67.78
324.844	-81.54
325.057	-71.69
325.271	-65.63
325.485	-20.7
325.698	9.14
325.912	28.02
326.125	3.92
326.339	15.68
326.552	-12.19
326.766	-22.56
326.979	-0.66
327.193	36.28
327.406	27.11
327.619	24.99
327.833	48
328.046	6.88
328.26	-33.25
328.473	-4.22
328.686	-32.01
328.9	-32.76
329.113	1.72
329.326	3.87
329.54	4.03
329.753	4.04
329.966	-27.39
330.179	-31.94
330.393	-18.22
330.606	-10.98
330.819	20.56
331.032	33.74
331.246	39.09
331.459	70.85
331.672	59.74
331.885	47.1
332.098	29.13
332.311	29.03
332.525	-42.69
332.738	-25.82
332.951	-0.31
333.164	14.85
333.377	20.42
333.59	49.83
333.803	50.34
334.016	48.55
334.229	52.11
334.442	65.2
334.655	87.58
334.868	75.74
335.081	51.28
335.294	26.62
335.507	-0.08
335.72	-28.36
335.933	-32.34
336.146	-31.85
336.359	-27.7
336.572	-43.2
336.785	-66.66
336.997	-53.48
337.21	-42.78
337.423	-39.82
337.636	-34.89
337.849	-9.59
338.062	-15.37
338.274	-10.59
338.487	-15.85
338.7	-13.17
338.913	-53.15
339.125	-82.26
339.338	-133.58
339.551	-113.5
339.763	-81.49
339.976	-64.31
340.189	-35.04
340.402	-12.23
340.614	-10.1
340.827	-20.36
341.039	-27.21
341.252	-31.75
341.465	-23.43
341.677	-34.92
341.89	-62.6
342.102	-15.36
342.315	-27.01
342.527	-56.51
342.74	-41.54
342.952	5.87
343.165	-19.17
343.377	15.76
343.59	10
343.802	37.96
344.015	26.81
344.227	49.87
344.44	24.91
344.652	29.92
344.864	8.82
345.077	24.85
345.289	16.09
345.502	21.04
345.714	17.08
345.926	16.17
346.139	4.67
346.351	13.78
346.563	21.52
346.775	35.73
346.988	26.79
347.2	19.38
347.412	-28.64
347.624	-57.38
347.837	-78.53
348.049	-61.67
348.261	-22.85
348.473	0.67
348.685	10.91
348.897	-3.39
349.11	-14.46
349.322	-27.31
349.534	-3.31
349.746	-7.32
349.958	0.8
350.17	13.16
350.382	12.74
350.594	-7.7
350.806	-2.18
351.018	6.09
351.23	-12.59
351.442	-65.45
351.654	-63.61
351.866	-49.14
352.078	-46.8
352.29	-25.18
352.502	6.7
352.714	21.72
352.926	4.44
353.138	6.41
353.35	-1.27
353.561	-7.98
353.773	-33.45
353.985	-11.74
354.197	-24.69
354.409	-37.98
354.621	-45.04
354.832	-23.71
355.044	-41.95
355.256	-33.73
355.468	-7.91
355.679	-5.36
355.891	-0.64
356.103	-3.69
356.314	-7.93
356.526	-2.98
356.738	5.89
356.949	1.59
357.161	20.01
357.373	23.46
357.584	-0.85
357.796	-9.32
358.008	-11.22
358.219	-3.17
358.431	-3.02
358.642	4.73
358.854	10.79
359.065	-1.17
359.277	-36.72
359.488	-43.81
359.7	-58.13
359.911	-69.05
360.123	-45.5
360.334	-42.08
360.546	-63.28
360.757	-62.71
360.969	-39.72
361.18	-44.28
361.391	-29.77
361.603	-38.52
361.814	-12.74
362.025	-31.48
362.237	-36.72
362.448	-22.65
362.659	10.58
362.871	-11.04
363.082	3.5
363.293	13.65
363.504	-11.08
363.716	-37.88
363.927	-34.49
364.138	-73.44
364.349	-88.92
364.56	-66.61
364.772	-60.22
364.983	-28.92
365.194	-11.65
365.405	-2.85
365.616	18.52
365.827	28.84
366.038	-0.22
366.25	-16.01
366.461	-48.08
366.672	-39.51
366.883	-32.26
367.094	-16.77
367.305	-24.36
367.516	-13.13
367.727	-50.83
367.938	-58.23
368.149	-55.46
368.36	-27.27
368.571	-7.98
368.781	-21.24
368.992	-32.44
369.203	-51.61
369.414	-64.38
369.625	-91.89
369.836	-66.14
370.047	-84.62
370.258	-66.33
370.468	-70.63
370.679	-74.36
370.89	-62.71
371.101	-35.41
371.312	-27.23
371.522	-21.38
371.733	-14.86
371.944	-5.68
372.155	-6.46
372.365	-23.35
372.576	-24.51
372.787	-27.46
372.997	-63.31
373.208	-53.71
373.419	-18.38
373.629	-44.63
373.84	-46.25
374.05	-41.96
374.261	-39.96
374.472	-73.25
374.682	-11.49
374.893	-7.89
375.103	32.36
375.314	23.8
375.524	26.29
375.735	19.2
375.945	28.23
376.156	-0.53
376.366	11.53
376.577	19.37
376.787	13.08
376.997	20.84
377.208	20.98
377.418	-2.7
377.629	0.31
377.839	-11.23
378.049	-13.72
378.26	-4.88
378.47	6.48
378.68	-9.11
378.89	-3.69
379.101	-12.29
379.311	-34.69
379.521	-66.28
379.732	-50.72
379.942	-57.05
380.152	-70.41
380.362	-40.97
380.572	-19.61
380.783	-3
380.993	11.68
381.203	27.45
381.413	45.15
381.623	42.14
381.833	30.74
382.043	19.17
382.253	6.11
382.463	-0.78
382.674	-5.87
382.884	-19.43
383.094	-20.78
383.304	-8.32
383.514	-5.13
383.724	6.31
383.934	-0.44
384.144	-15.3
384.353	-30.53
384.563	-30.56
384.773	-24.3
384.983	-28.14
385.193	-0.44
385.403	10.57
385.613	7.56
385.823	-9.93
386.033	-0.18
386.242	-10.67
386.452	-17.52
386.662	-27.6
386.872	-7.95
387.082	-14.19
387.291	-20.84
387.501	-18.15
387.711	-9.39
387.921	-18.22
388.13	-16.95
388.34	-1.87
388.55	-7.73
388.759	-8.89
388.969	-0.98
389.179	-2.89
389.388	-7.36
389.598	2.85
389.807	-3.1
390.017	-13.77
390.227	-8.81
390.436	-13.07
390.646	-15.67
390.855	-9.11
391.065	-5.84
391.274	-9.16
391.484	-11.01
391.693	-10.74
391.903	-11.58
392.112	-6.28
392.322	-3.96
392.531	2.18
392.74	5
392.95	2.91
393.159	1.81
393.369	2.83
393.578	1.28
393.787	-1.93
393.997	-2.03
394.206	-4.42
394.415	-6.02
394.625	-7.21
394.834	-7.99
395.043	-6.9
395.252	-4.43
395.462	-1.71
395.671	0.61
395.88	1.46
396.089	3.11
396.298	1.16
396.508	-0.03
396.717	-1.4
396.926	0.07
397.135	-1.37
397.344	-1.23
397.553	-0.59
397.762	1.49
397.971	0.82
398.181	1.46
398.39	1.15
398.599	0.78
398.808	-0.04
399.017	0.71
399.226	2.17
399.435	3.55
399.644	4.12
399.853	3.43
400.062	2.79
400.27	2
400.479	1.26
400.688	0.13
400.897	0.56
401.106	0.76
401.315	0.2
401.524	0.13
401.733	1.01
401.941	1.02
402.15	1.12
402.359	1.3
402.568	2.03
402.777	1.94
402.985	2.12
403.194	1.94
403.403	1.97
403.612	1.21
403.82	0.94
404.029	1.19
404.238	0.93
404.446	1.11
404.655	1.03
404.864	1
405.072	0.41
405.281	0.86
405.489	0.56
405.698	0.79
405.906	0.86
406.115	0.97
406.324	0.86
406.532	1.12
406.741	1.3
406.949	1.38
407.158	1.37
407.366	1.33
407.574	1.2
407.783	1.06
407.991	0.88
408.2	0.99
408.408	1.01
408.617	0.89
408.825	0.78
409.033	0.94
409.242	1.04
409.45	1.14
409.658	1.09
409.867	1.3
410.075	1.11
410.283	0.95
410.491	0.85
410.7	0.85
410.908	0.95
411.116	1.48
411.324	1.4
411.533	1.28
411.741	1.55
411.949	1.42
412.157	0.88
412.365	0.96
412.573	1.08
412.781	1.1
412.99	0.98
413.198	1.32
413.406	1.36
413.614	1.34
413.822	1.04
414.03	1.04
414.238	0.79
414.446	0.84
414.654	0.65
414.862	0.83
415.07	0.87
415.278	1.01
415.486	0.87
415.694	1.12
415.902	1.01
416.109	0.96
416.317	0.98
416.525	0.87
416.733	0.83
416.941	0.91
417.149	0.87
417.357	0.78
417.564	0.97
417.772	1.1
417.98	1.09
418.188	1.09
418.395	1.2
418.603	1.27
418.811	0.88
419.019	0.82
419.226	1.02
419.434	1.06
419.642	0.97
419.849	1.11
420.057	1.14
420.265	1.16
420.472	1.03
420.68	1.04
420.887	0.99
421.095	1.16
421.302	1.04
421.51	1.19
421.717	1.23
421.925	1.44
422.132	1.21
422.34	1.08
422.547	1.13
422.755	1.03
422.962	0.79
423.17	0.76
423.377	0.8
423.585	0.8
423.792	0.72
423.999	0.87
424.207	0.95
424.414	1.19
424.621	1.08
424.829	1.12
425.036	1.09
425.243	1.07
425.451	0.85
425.658	0.61
425.865	0.81
426.072	0.91
426.28	1.34
426.487	1.32
426.694	1.58
426.901	1.4
427.108	1.26
427.315	0.9
427.523	1.12
427.73	0.98
427.937	0.92
428.144	0.83
428.351	0.79
428.558	0.93
428.765	0.99
428.972	0.97
429.179	1.2
429.386	1.51
429.593	1.17
429.8	1.05
430.007	1.2
430.214	1.19
430.421	0.93
430.628	0.84
430.835	0.86
431.042	1.07
431.249	1.13
431.456	1.16
431.662	1.24
431.869	1.45
432.076	1.37
432.283	1.35
432.49	1.33
432.697	1.33
432.903	1.06
433.11	1.04
433.317	1.09
433.524	1.34
433.73	1.31
433.937	1.56
434.144	1.4
434.35	1.33
434.557	1.07
434.764	1.09
434.97	0.96
435.177	1.05
435.384	1
435.59	1.06
435.797	1.31
436.003	1.35
436.21	1.43
436.416	1.43
436.623	1.48
436.829	1.38
437.036	1.45
437.242	1.42
437.449	1.42
437.655	1.37
437.862	1.49
438.068	1.44
438.275	1.47
438.481	1.67
438.687	1.63
438.894	1.47
439.1	1.57
439.307	1.82
439.513	1.65
439.719	1.75
439.926	1.9
440.132	1.81
440.338	1.41
440.544	1.6
440.751	1.57
440.957	1.57
441.163	1.49
441.369	1.74
441.575	1.39
441.782	1.32
441.988	1.2
442.194	1.27
442.4	1.15
442.606	1.53
442.812	1.64
443.018	1.73
443.224	1.72
443.431	1.92
443.637	1.71
443.843	1.6
444.049	1.58
444.255	1.52
444.461	1.5
444.667	1.41
444.873	1.58
445.079	1.58
445.284	1.65
445.49	1.37
445.696	1.26
445.902	1.17
446.108	1.05
446.314	1.01
446.52	1.14
446.726	1.45
446.931	1.45
447.137	1.57
447.343	1.64
447.549	1.59
447.755	1.41
447.96	1.46
448.166	1.36
448.372	1.27
448.578	1.31
448.783	1.36
448.989	1.41
449.195	1.65
449.4	1.7
449.606	1.7
449.812	1.63
450.017	1.59
450.223	1.41
450.428	1.3
450.634	1.44
450.84	1.61
451.045	1.52
451.251	1.45
451.456	1.76
451.662	1.78
451.867	1.8
452.073	1.81
452.278	1.98
452.483	2.04
452.689	1.95
452.894	1.85
453.1	1.89
453.305	1.7
453.51	1.48
453.716	1.32
453.921	1.39
454.127	1.37
454.332	1.44
454.537	1.4
454.742	1.48
454.948	1.46
455.153	1.51
455.358	1.59
455.563	1.79
455.769	1.98
455.974	1.96
456.179	1.87
456.384	1.84
456.589	1.73
456.795	1.52
457	1.49
457.205	1.73
457.41	1.65
457.615	1.65
457.82	1.76
458.025	1.81
458.23	1.57
458.435	1.74
458.64	1.6
458.845	1.71
459.05	1.74
459.255	1.77
459.46	1.7
459.665	1.82
459.87	1.78
460.075	1.75
460.28	1.81
460.485	1.89
460.69	1.9
460.895	1.73
461.099	1.69
461.304	1.79
461.509	1.8
461.714	1.72
461.919	1.92
462.123	1.79
462.328	1.88
462.533	1.7
462.738	1.85
462.942	1.74
463.147	1.96
463.352	1.92
463.556	2.04
463.761	2.08
463.966	2.11
464.17	2.08
464.375	1.9
464.58	1.83
464.784	1.69
464.989	1.56
465.193	1.56
465.398	1.64
465.602	1.78
465.807	1.75
466.011	1.81
466.216	1.8
466.42	1.87
466.625	1.88
466.829	2.06
467.034	2.2
467.238	2.48
467.443	2.38
467.647	2.26
467.851	2.22
468.056	2.23
468.26	1.99
468.464	2.02
468.669	2.11
468.873	2.23
469.077	2.16
469.282	2.23
469.486	2.33
469.69	2.33
469.894	2.2
470.099	2.27
470.303	2.34
470.507	2.18
470.711	2.07
470.915	2.05
471.119	1.98
471.324	1.93
471.528	1.99
471.732	2.08
471.936	2.07
472.14	2.09
472.344	2.1
472.548	2.15
472.752	2.29
472.956	2.6
473.16	2.6
473.364	2.46
473.568	2.38
473.772	2.32
473.976	2.1
474.18	2.06
474.384	2.13
474.588	2.17
474.792	2.07
474.995	2.12
475.199	2.17
475.403	2.25
475.607	2.21
475.811	2.17
476.015	2.18
476.218	2.18
476.422	2.09
476.626	2.2
476.83	2.29
477.033	2.24
477.237	2.16
477.441	2.24
477.644	2.22
477.848	2.24
478.052	2.19
478.255	2.24
478.459	2.25
478.663	2.41
478.866	2.4
479.07	2.46
479.273	2.66
479.477	2.66
479.681	2.51
479.884	2.47
480.088	2.39
480.291	2.2
480.495	2.19
480.698	2.25
480.901	2.29
481.105	2.41
481.308	2.4
481.512	2.38
481.715	2.42
481.919	2.4
482.122	2.35
482.325	2.34
482.529	2.4
482.732	2.31
482.935	2.28
483.138	2.27
483.342	2.39
483.545	2.43
483.748	2.48
483.952	2.54
484.155	2.72
484.358	2.73
484.561	2.68
484.764	2.65
484.967	2.68
485.171	2.63
485.374	2.56
485.577	2.62
485.78	2.67
485.983	2.67
486.186	2.51
486.389	2.5
486.592	2.47
486.795	2.47
486.998	2.44
487.201	2.52
487.404	2.65
487.607	2.71
487.81	2.71
488.013	2.78
488.216	2.81
488.419	2.74
488.622	2.63
488.825	2.55
489.028	2.5
489.231	2.43
489.433	2.39
489.636	2.4
489.839	2.39
490.042	2.34
490.245	2.32
490.447	2.39
490.65	2.43
490.853	2.42
491.056	2.49
491.258	2.56
491.461	2.49
491.664	2.57
491.866	2.53
492.069	2.58
492.272	2.51
492.474	2.59
492.677	2.57
492.879	2.68
493.082	2.7
493.285	2.91
493.487	2.84
493.69	2.76
493.892	2.61
494.095	2.51
494.297	2.41
494.5	2.47
494.702	2.47
494.905	2.6
495.107	2.61
495.309	2.59
495.512	2.65
495.714	2.76
495.917	2.78
496.119	2.76
496.321	2.85
496.524	2.83
496.726	2.75
496.928	2.75
497.13	2.73
497.333	2.65
497.535	2.63
497.737	2.63
497.939	2.62
498.142	2.65
498.344	2.62
498.546	2.51
498.748	2.52
498.95	2.59
499.152	2.54
499.355	2.62
499.557	2.71
499.759	2.83
499.961	2.73
500.163	2.8
500.365	2.79
500.567	2.86
500.769	2.73
500.971	2.75
501.173	2.67
501.375	2.73
501.577	2.64
501.779	2.64
501.981	2.67
502.183	2.68
502.385	2.57
502.587	2.47
502.788	2.55
502.99	2.57
503.192	2.66
503.394	2.71
503.596	2.8
503.798	2.81
503.999	2.81
504.201	2.73
504.403	2.74
504.605	2.77
504.806	2.66
505.008	2.61
505.21	2.75
505.411	2.71
505.613	2.69
505.815	2.74
506.016	2.77
506.218	2.79
506.42	2.81
506.621	2.87
506.823	2.93
507.024	2.88
507.226	2.78
507.427	2.74
507.629	2.73
507.83	2.74
508.032	2.7
508.233	2.78
508.435	2.82
508.636	2.83
508.838	2.77
509.039	2.81
509.24	2.77
509.442	2.77
509.643	2.71
509.845	2.77
510.046	2.82
510.247	2.84
510.448	2.84
510.65	2.88
510.851	2.95
511.052	2.95
511.254	2.9
511.455	3
511.656	3.04
511.857	3.08
512.058	3.07
512.26	3.12
512.461	3.04
512.662	3.06
512.863	2.94
513.064	2.94
513.265	2.95
513.466	3
513.667	2.96
513.868	2.93
514.069	2.98
514.27	3.02
514.471	2.96
514.672	2.95
514.873	3
515.074	3.02
515.275	2.88
515.476	2.89
515.677	2.93
515.878	3.04
516.079	2.99
516.28	3.09
516.481	3.2
516.682	3.24
516.882	3.13
517.083	3.15
517.284	3.07
517.485	3.03
517.686	2.96
517.886	2.93
518.087	2.95
518.288	2.99
518.488	2.93
518.689	2.91
518.89	2.92
519.091	2.91
519.291	2.88
519.492	2.95
519.692	3.02
519.893	3.11
520.094	3.04
520.294	3.07
520.495	3.03
520.695	3.06
520.896	3.01
521.096	3.07
521.297	3.11
521.497	3.1
521.698	3.03
521.898	3.02
522.099	3.06
522.299	3.11
522.499	3.17
522.7	3.19
522.9	3.12
523.101	3.16
523.301	3.12
523.501	3.06
523.702	3.01
523.902	3.19
524.102	3.22
524.302	3.2
524.503	3.29
524.703	3.34
524.903	3.32
525.103	3.18
525.304	3.28
525.504	3.31
525.704	3.36
525.904	3.3
526.104	3.34
526.304	3.25
526.504	3.21
526.705	3.19
526.905	3.25
527.105	3.27
527.305	3.27
527.505	3.2
527.705	3.17
527.905	3.17
528.105	3.15
528.305	3.11
528.505	3.18
528.705	3.27
528.905	3.2
529.105	3.24
529.304	3.35
529.504	3.4
529.704	3.3
529.904	3.33
530.104	3.32
530.304	3.34
530.503	3.26
530.703	3.22
530.903	3.19
531.103	3.24
531.303	3.17
531.502	3.26
531.702	3.41
531.902	3.45
532.101	3.37
532.301	3.38
532.501	3.31
532.7	3.23
532.9	3.27
533.1	3.36
533.299	3.39
533.499	3.44
533.698	3.45
533.898	3.42
534.097	3.38
534.297	3.46
534.496	3.41
534.696	3.46
534.895	3.55
535.095	3.69
535.294	3.61
535.494	3.58
535.693	3.6
535.892	3.56
536.092	3.38
536.291	3.35
536.491	3.48
536.69	3.47
536.889	3.39
537.088	3.41
537.288	3.53
537.487	3.57
537.686	3.57
537.886	3.61
538.085	3.69
538.284	3.76
538.483	3.67
538.682	3.72
538.882	3.73
539.081	3.76
539.28	3.64
539.479	3.62
539.678	3.58
539.877	3.7
540.076	3.66
540.275	3.68
540.474	3.78
540.673	3.79
540.872	3.65
541.071	3.71
541.27	3.73
541.469	3.76
541.668	3.79
541.867	3.87
542.066	3.88
542.265	3.92
542.464	3.88
542.663	3.9
542.862	4
543.06	4.02
543.259	4.07
543.458	4.13
543.657	4.22
543.856	4.22
544.054	4.19
544.253	4.18
544.452	4.14
544.651	4.16
544.849	4.14
545.048	4.18
545.247	4.16
545.445	4.22
545.644	4.17
545.843	4.17
546.041	4.19
546.24	4.32
546.438	4.37
546.637	4.4
546.836	4.54
547.034	4.59
547.233	4.56
547.431	4.54
547.63	4.57
547.828	4.54
548.027	4.53
548.225	4.53
548.423	4.53
548.622	4.6
548.82	4.55
549.019	4.59
549.217	4.73
549.415	4.78
549.614	4.81
549.812	4.85
550.01	4.79
550.209	4.76
550.407	4.82
550.605	4.81
550.803	4.95
551.002	5.07
551.2	5.04
551.398	5.09
551.596	5.17
551.794	5.2
551.993	5.23
552.191	5.3
552.389	5.42
552.587	5.48
552.785	5.45
552.983	5.47
553.181	5.6
553.379	5.58
553.577	5.53
553.775	5.64
553.973	5.7
554.171	5.72
554.369	5.68
554.567	5.76
554.765	5.77
554.963	5.82
555.161	5.78
555.359	5.87
555.557	5.95
555.755	6.04
555.952	6.16
556.15	6.24
556.348	6.28
556.546	6.35
556.744	6.35
556.941	6.33
557.139	6.45
557.337	6.53
557.535	6.53
557.732	6.65
557.93	6.77
558.128	6.76
558.325	6.85
558.523	6.85
558.721	6.89
558.918	6.89
559.116	6.93
559.313	6.86
559.511	6.98
559.708	6.98
559.906	7.06
560.104	7.12
560.301	7.24
560.498	7.3
560.696	7.34
560.893	7.41
561.091	7.47
561.288	7.59
561.486	7.63
561.683	7.72
561.88	7.78
562.078	7.82
562.275	7.82
562.473	7.9
562.67	8.02
562.867	8.09
563.064	8.23
563.262	8.25
563.459	8.38
563.656	8.42
563.853	8.42
564.051	8.4
564.248	8.54
564.445	8.54
564.642	8.61
564.839	8.77
565.036	8.92
565.234	9.05
565.431	9.09
565.628	9.17
565.825	9.22
566.022	9.28
566.219	9.28
566.416	9.36
566.613	9.4
566.81	9.48
567.007	9.5
567.204	9.51
567.401	9.61
567.598	9.57
567.795	9.52
567.991	9.52
568.188	9.67
568.385	9.73
568.582	9.93
568.779	10.02
568.976	10.16
569.172	10.23
569.369	10.19
569.566	10.22
569.763	10.3
569.96	10.26
570.156	10.21
570.353	10.16
570.55	10.12
570.746	10.16
570.943	10.31
571.14	10.4
571.336	10.52
571.533	10.63
571.729	10.6
571.926	10.62
572.123	10.65
572.319	10.75
572.516	10.74
572.712	10.85
572.909	10.81
573.105	10.89
573.302	10.85
573.498	10.95
573.695	10.86
573.891	10.96
574.087	10.95
574.284	10.92
574.48	10.85
574.677	10.9
574.873	10.84
575.069	10.84
575.266	10.95
575.462	10.93
575.658	11.02
575.854	11.11
576.051	11.05
576.247	11
576.443	11.04
576.639	10.99
576.835	10.91
577.032	10.96
577.228	11.08
577.424	11.11
577.62	11.06
577.816	11.18
578.012	11.19
578.208	11.12
578.404	11.11
578.6	11.2
578.796	11.12
578.993	11.11
579.189	11.12
579.384	11.03
579.58	10.95
579.776	11.03
579.972	10.99
580.168	10.94
580.364	11.01
580.56	11.03
580.756	10.95
580.952	10.94
581.148	10.91
581.343	10.96
581.539	10.94
581.735	10.96
581.931	11.08
582.127	11.13
582.322	11.01
582.518	11.09
582.714	11.1
582.909	11.01
583.105	10.98
583.301	11.01
583.496	10.93
583.692	10.86
583.888	10.83
584.083	10.91
584.279	10.9
584.474	10.93
584.67	10.97
584.866	11
585.061	10.86
585.257	11.01
585.452	10.98
585.648	10.85
585.843	10.86
586.039	10.97
586.234	10.84
586.429	10.82
586.625	10.99
586.82	10.87
587.015	10.78
587.211	10.66
587.406	10.71
587.601	10.59
587.797	10.64
587.992	10.6
588.187	10.7
588.383	10.6
588.578	10.55
588.773	10.6
588.968	10.69
589.163	10.81
589.359	10.86
589.554	10.92
589.749	10.94
589.944	11.01
590.139	10.9
590.334	10.98
590.529	11.02
590.724	11.02
590.919	11.04
591.114	11.1
591.309	11.12
591.504	11.14
591.699	11.15
591.894	11.14
592.089	11.13
592.284	11.11
592.479	11.17
592.674	11.16
592.869	11.25
593.064	11.39
593.259	11.51
593.454	11.6
593.648	11.61
593.843	11.62
594.038	11.64
594.233	11.56
594.428	11.52
594.622	11.57
594.817	11.65
595.012	11.61
595.206	11.66
595.401	11.72
595.596	11.74
595.79	11.78
595.985	11.89
596.18	12.07
596.374	12.2
596.569	12.32
596.763	12.34
596.958	12.39
597.153	12.39
597.347	12.33
597.542	12.49
597.736	12.49
597.931	12.6
598.125	12.64
598.319	12.81
598.514	12.71
598.708	12.81
598.903	12.82
599.097	12.9
599.291	12.85
599.486	12.91
599.68	12.91
599.874	12.93
600.069	12.95
600.263	12.94
600.457	13.02
600.651	13.1
600.846	13.14
601.04	13.19
601.234	13.23
601.428	13.3
601.622	13.36
601.817	13.4
602.011	13.44
602.205	13.56
602.399	13.55
602.593	13.5
602.787	13.55
602.981	13.48
603.175	13.44
603.369	13.38
603.563	13.5
603.757	13.52
603.951	13.58
604.145	13.51
604.339	13.61
604.533	13.44
604.727	13.42
604.921	13.41
605.115	13.48
605.309	13.52
605.502	13.54
605.696	13.46
605.89	13.37
606.084	13.32
606.278	13.18
606.471	13.14
606.665	13.07
606.859	13.01
607.053	13.02
607.246	13.04
607.44	13
607.634	12.95
607.827	13.06
608.021	12.95
608.214	12.84
608.408	12.77
608.602	12.8
608.795	12.69
608.989	12.69
609.182	12.65
609.376	12.62
609.569	12.53
609.763	12.4
609.956	12.37
610.15	12.24
610.343	12.18
610.537	12.11
610.73	12.16
610.923	12.1
611.117	12.12
611.31	12.09
611.504	12.11
611.697	11.96
611.89	11.88
612.083	11.9
612.277	11.86
612.47	11.79
612.663	11.79
612.856	11.73
613.05	11.59
613.243	11.55
613.436	11.42
613.629	11.33
613.822	11.26
614.015	11.16
614.209	11.02
614.402	11.08
614.595	11.09
614.788	11.02
614.981	10.96
615.174	10.87
615.367	10.71
615.56	10.58
615.753	10.62
615.946	10.57
616.139	10.63
616.332	10.84
616.525	10.85
616.718	10.86
616.911	10.88
617.103	10.82
617.296	10.58
617.489	10.51
617.682	10.33
617.875	10.26
618.067	10.2
618.26	10.04
618.453	10.13
618.646	10.12
618.838	10.15
619.031	10.33
619.224	10.4
619.417	10.32
619.609	10.39
619.802	10.35
619.994	10.19
620.187	10.24
620.38	10.12
620.572	9.97
620.765	10.02
620.957	9.93
621.15	9.79
621.342	9.79
621.535	9.84
621.727	9.75
621.92	9.71
622.112	9.71
622.305	9.73
622.497	9.62
622.69	9.63
622.882	9.71
623.074	9.76
623.267	9.77
623.459	9.76
623.651	9.63
623.844	9.62
624.036	9.58
624.228	9.52
624.42	9.5
624.613	9.68
624.805	9.61
624.997	9.57
625.189	9.6
625.381	9.65
625.574	9.54
625.766	9.48
625.958	9.46
626.15	9.44
626.342	9.33
626.534	9.33
626.726	9.36
626.918	9.39
627.11	9.34
627.302	9.36
627.494	9.22
627.686	9.16
627.878	9.04
628.07	9.03
628.262	8.97
628.454	9.12
628.646	9.18
628.838	9.27
629.029	9.22
629.221	9.35
629.413	9.2
629.605	9.1
629.797	9.05
629.989	9.01
630.18	8.92
630.372	8.96
630.564	8.96
630.755	8.98
630.947	9.08
631.139	8.94
631.33	8.84
631.522	8.98
631.714	8.97
631.905	8.92
632.097	8.95
632.289	8.99
632.48	8.87
632.672	8.73
632.863	8.61
633.055	8.59
633.246	8.58
633.438	8.45
633.629	8.48
633.821	8.53
634.012	8.55
634.203	8.48
634.395	8.55
634.586	8.57
634.777	8.47
634.969	8.48
635.16	8.57
635.351	8.48
635.543	8.46
635.734	8.55
635.925	8.54
636.117	8.56
636.308	8.61
636.499	8.53
636.69	8.38
636.881	8.32
637.073	8.34
637.264	8.33
637.455	8.42
637.646	8.63
637.837	8.66
638.028	8.56
638.219	8.57
638.41	8.52
638.601	8.42
638.792	8.44
638.983	8.37
639.174	8.27
639.365	8.28
639.556	8.22
639.747	8.16
639.938	8.22
640.129	8.23
640.32	8.18
640.511	8.23
640.701	8.36
640.892	8.34
641.083	8.46
641.274	8.48
641.465	8.43
641.655	8.24
641.846	8.2
642.037	8.12
642.228	8.06
642.418	8.12
642.609	8.23
642.8	8.24
642.99	8.17
643.181	8.24
643.372	8.26
643.562	8.21
643.753	8.11
643.943	8.07
644.134	7.96
644.324	7.85
644.515	7.84
644.705	7.99
644.896	8.04
645.086	8.14
645.277	8.12
645.467	8.12
645.658	8.04
645.848	8.08
646.038	8.03
646.229	8.06
646.419	7.99
646.61	7.94
646.8	7.93
646.99	7.88
647.18	7.76
647.371	7.84
647.561	7.82
647.751	7.77
647.941	7.71
648.132	7.79
648.322	7.74
648.512	7.79
648.702	7.82
648.892	7.87
649.082	7.8
649.272	7.73
649.462	7.53
649.653	7.42
649.843	7.34
650.033	7.39
650.223	7.4
650.413	7.48
650.603	7.61
650.793	7.65
650.983	7.51
651.172	7.47
651.362	7.43
651.552	7.28
651.742	7.23
651.932	7.35
652.122	7.39
652.312	7.49
652.502	7.46
652.691	7.43
652.881	7.28
653.071	7.25
653.261	7.05
653.45	6.96
653.64	6.99
653.83	6.88
654.019	6.79
654.209	6.81
654.399	6.84
654.588	6.69
654.778	6.66
654.968	6.46
655.157	6.4
655.347	6.34
655.536	6.23
655.726	6.15
655.915	6.16
656.105	6.07
656.294	5.97
656.484	5.89
656.673	5.87
656.863	5.83
657.052	5.72
657.241	5.63
657.431	5.49
657.62	5.36
657.809	5.15
657.999	5.09
658.188	4.97
658.377	4.91
658.567	4.95
658.756	4.94
658.945	4.83
659.134	4.72
659.324	4.73
659.513	4.61
659.702	4.48
659.891	4.42
660.08	4.39
660.269	4.37
660.458	4.25
660.648	4.24
660.837	4.19
661.026	4.12
661.215	3.98
661.404	3.83
661.593	3.89
661.782	3.72
661.971	3.74
662.16	3.62
662.349	3.66
662.538	3.51
662.726	3.59
662.915	3.49
663.104	3.5
663.293	3.52
663.482	3.62
663.671	3.56
663.86	3.48
664.048	3.43
664.237	3.48
664.426	3.31
664.615	3.36
664.803	3.34
664.992	3.24
665.181	3.09
665.369	3.02
665.558	2.92
665.747	2.88
665.935	2.99
666.124	3.01
666.312	3.07
666.501	3.01
666.69	2.93
666.878	2.89
667.067	2.74
667.255	2.9
667.444	3.24
667.632	3.35
667.82	3.51
668.009	3.62
668.197	3.44
668.386	3.26
668.574	3.4
668.762	3.24
668.951	3.19
669.139	3.26
669.327	3.03
669.516	3.01
669.704	2.97
669.892	3.16
670.08	3.15
670.269	3.16
670.457	3.04
670.645	3
670.833	2.98
671.021	2.94
671.21	3.09
671.398	3.34
671.586	3.34
671.774	3.2
671.962	3.27
672.15	3.3
672.338	3.08
672.526	3.14
672.714	3.11
672.902	3.08
673.09	3.15
673.278	3.44
673.466	3.5
673.654	3.66
673.842	3.69
674.03	3.68
674.218	3.49
674.405	3.5
674.593	3.43
674.781	3.53
674.969	3.57
675.157	3.68
675.344	3.78
675.532	3.91
675.72	3.98
675.908	4.04
676.095	3.93
676.283	3.95
676.471	4.16
676.658	4.07
676.846	4.08
677.033	4.25
677.221	4.26
677.409	4.06
677.596	4.14
677.784	4.16
677.971	4.17
678.159	4.26
678.346	4.41
678.534	4.45
678.721	4.56
678.909	4.51
679.096	4.53
679.283	4.64
679.471	4.77
679.658	4.82
679.846	5.04
680.033	5.21
680.22	5.17
680.408	5.03
680.595	4.9
680.782	4.73
680.969	4.73
681.157	4.73
681.344	4.83
681.531	4.87
681.718	4.9
681.905	4.98
682.093	5.16
682.28	5.34
682.467	5.65
682.654	5.8
682.841	5.83
683.028	5.86
683.215	5.89
683.402	5.65
683.589	5.78
683.776	5.93
683.963	5.96
684.15	6.12
684.337	6.33
684.524	6.39
684.711	6.5
684.898	6.51
685.085	6.6
685.271	6.79
685.458	6.96
685.645	7
685.832	7.36
686.019	7.44
686.205	7.66
686.392	7.77
686.579	8.02
686.766	8.25
686.952	8.49
687.139	8.85
687.326	9.05
687.512	9.23
687.699	9.33
687.886	9.44
688.072	9.51
688.259	9.83
688.445	10.19
688.632	10.3
688.818	11
689.005	11.15
689.191	11.41
689.378	11.87
689.564	12.36
689.751	12.46
689.937	13
690.124	13.44
690.31	13.6
690.496	14
690.683	14.55
690.869	14.87
691.055	15.3
691.242	15.92
691.428	16.45
691.614	16.81
691.8	17.43
691.987	17.95
692.173	18.46
692.359	19.04
692.545	19.69
692.731	20.29
692.918	21.02
693.104	21.48
693.29	22.13
693.476	22.71
693.662	23.33
693.848	23.86
694.034	24.54
694.22	25.03
694.406	25.69
694.592	26.35
694.778	26.93
694.964	27.47
695.15	28.19
695.336	28.69
695.522	29.36
695.708	30.1
695.894	30.78
696.08	31.52
696.265	32.28
696.451	32.96
696.637	33.96
696.823	34.79
697.009	35.41
697.194	36.05
697.38	36.55
697.566	37.04
697.751	37.69
697.937	38.73
698.123	39.56
698.308	40.45
698.494	41.24
698.68	42.17
698.865	42.65
699.051	43.39
699.236	44.04
699.422	44.49
699.607	44.91
699.793	45.47
699.978	45.93
700.164	46.67
700.349	47.55
700.535	48.18
700.72	48.75
700.906	49.53
701.091	49.74
701.276	50.18
701.462	51.06
701.647	52.04
701.832	52.63
702.018	53.4
702.203	53.92
702.388	53.95
702.573	54.32
702.759	54.99
702.944	55.55
703.129	55.94
703.314	56.9
703.499	57.25
703.684	57.61
703.87	58.5
704.055	59.52
704.24	59.83
704.425	60.38
704.61	61.04
704.795	61.22
704.98	61.11
705.165	61.33
705.35	61.65
705.535	61.82
705.72	62.13
705.905	62.67
706.09	63.55
706.275	64.07
706.459	64.28
706.644	64.44
706.829	64.91
707.014	64.68
707.199	65.24
707.384	65.83
707.568	66.44
707.753	66.82
707.938	67.52
708.123	67.41
708.307	67.43
708.492	67.7
708.677	68.07
708.861	68.07
709.046	68.31
709.231	69.29
709.415	69.88
709.6	69.92
709.784	70.19
709.969	70.38
710.153	70.07
710.338	70.01
710.522	70.13
710.707	70.59
710.891	70.69
711.076	70.93
711.26	70.62
711.445	71.02
711.629	71.39
711.813	71.93
711.998	72.39
712.182	72.83
712.366	73.3
712.551	73.71
712.735	73.96
712.919	73.87
713.103	74.44
713.288	74.43
713.472	74.07
713.656	74.76
713.84	75.14
714.024	74.86
714.208	74.59
714.393	75.05
714.577	74.57
714.761	74.74
714.945	75.29
715.129	75.65
715.313	75.89
715.497	76.02
715.681	76.62
715.865	76.44
716.049	76.66
716.233	76.33
716.417	76.66
716.601	76
716.785	76.25
716.968	76.57
717.152	77.29
717.336	77.78
717.52	77.81
717.704	78.18
717.888	78.61
718.071	78.47
718.255	78.55
718.439	78.76
718.622	78.82
718.806	78.84
718.99	78.47
719.174	77.83
719.357	78.26
719.541	78.05
719.724	77.46
719.908	78.82
720.092	79.47
720.275	79.7
720.459	79.74
720.642	80.05
720.826	78.94
721.009	78.42
721.193	77.69
721.376	77.95
721.559	78.71
721.743	79
721.926	79.93
722.11	80.36
722.293	80.03
722.476	79.33
722.66	79.44
722.843	78.77
723.026	78.89
723.21	79.35
723.393	79.99
723.576	79.59
723.759	79.47
723.942	79.46
724.126	79.76
724.309	79.4
724.492	80.02
724.675	80.57
724.858	81.15
725.041	81.44
725.224	81.5
725.407	81.55
725.59	81.92
725.774	81.3
725.957	80.35
726.14	80.32
726.322	80.62
726.505	80.06
726.688	81.06
726.871	81.54
727.054	81.53
727.237	80.78
727.42	81.49
727.603	81.21
727.786	81.42
727.968	81.52
728.151	82.25
728.334	81.56
728.517	81.35
728.699	81.65
728.882	81.32
729.065	81.37
729.248	82.41
729.43	83.04
729.613	83.74
729.796	84.68
729.978	84.2
730.161	83.28
730.343	82.62
730.526	82.51
730.708	81.95
730.891	82.54
731.073	82.94
731.256	82.89
731.438	82.37
731.621	83.26
731.803	83.08
731.986	82.74
732.168	82.33
732.35	82.58
732.533	82.13
732.715	82.63
732.898	83.59
733.08	83.86
733.262	84.42
733.444	84.49
733.627	84.46
733.809	84.18
733.991	86.03
734.173	85.33
734.355	85.47
734.538	85.91
734.72	85.45
734.902	84.35
735.084	83.85
735.266	84.07
735.448	83.66
735.63	83.56
735.812	83.4
735.994	85.02
736.176	84.86
736.358	84.92
736.54	86.28
736.722	85.75
736.904	85.28
737.086	86.02
737.268	86.56
737.45	86.51
737.632	86.76
737.814	85.58
737.995	84.91
738.177	84.54
738.359	83.4
738.541	84.02
738.723	84.7
738.904	85.3
739.086	85.11
739.268	85.7
739.449	86.71
739.631	87.06
739.813	87.08
739.994	87.51
740.176	88.16
740.358	87.44
740.539	88.63
740.721	87.83
740.902	88.78
741.084	87.78
741.265	87.45
741.447	86.57
741.628	87.76
741.81	85.76
741.991	87.16
742.172	87.79
742.354	88.53
742.535	87.84
742.717	88.43
742.898	88.08
743.079	88.04
743.261	87.19
743.442	86.95
743.623	88.25
743.804	88.33
743.986	88.59
744.167	87.01
744.348	86.78
744.529	86.3
744.71	85.09
744.891	84.92
745.073	85.13
745.254	84.99
745.435	84.18
745.616	83.79
745.797	83.15
745.978	83.98
746.159	84.55
746.34	83.78
746.521	86.07
746.702	85.05
746.883	84.78
747.064	83.82
747.245	84.63
747.426	82.78
747.606	83.61
747.787	84.38
747.968	84.83
748.149	85
748.33	86.31
748.51	85.71
748.691	85.52
748.872	86.68
749.053	86.08
749.233	84.68
749.414	85.06
749.595	83.44
749.775	81.87
749.956	81.77
750.137	81.97
750.317	83.54
750.498	86.37
750.678	87.12
750.859	87.71
751.04	88.5
751.22	85.9
751.4	83.66
751.581	82.08
751.761	82.42
751.942	82.27
752.122	83.5
752.303	83.49
752.483	83.87
752.663	84.25
752.844	83.05
753.024	83.82
753.204	85.25
753.385	85.28
753.565	85.01
753.745	85.61
753.925	84.72
754.106	84.22
754.286	84.74
754.466	83.79
754.646	84.61
754.826	84.09
755.006	82.9
755.187	83.76
755.367	84.7
755.547	85.01
755.727	86.62
755.907	86.84
756.087	87.45
756.267	86.81
756.447	85.6
756.627	83.56
756.807	84.86
756.987	84.35
757.167	84.72
757.346	84.56
757.526	84.7
757.706	84.63
757.886	84.16
758.066	84.44
758.246	86.08
758.425	86.93
758.605	85.51
758.785	85.6
758.965	85.05
759.144	81.19
759.324	80.93
759.504	81.9
759.683	81.5
759.863	79.45
760.043	81.09
760.222	81.57
760.402	81.07
760.581	81.32
760.761	84.13
760.94	83.34
761.12	85.08
761.299	85.32
761.479	85.87
761.658	84.02
761.838	84.47
762.017	82.19
762.197	82.39
762.376	80.47
762.555	81.97
762.735	83.92
762.914	82.63
763.093	82.63
763.273	82.3
763.452	82.27
763.631	80.65
763.81	80.29
763.99	78.68
764.169	79.65
764.348	77.08
764.527	76.81
764.706	80.39
764.885	82.94
765.064	82.3
765.243	83.08
765.423	83.31
765.602	79.73
765.781	76.01
765.96	74.36
766.139	74.12
766.318	75.48
766.497	75.44
766.676	77.73
766.854	81.53
767.033	83.23
767.212	82.26
767.391	83.36
767.57	84.74
767.749	83.2
767.928	83.49
768.106	82.45
768.285	80.37
768.464	78.59
768.643	77.25
768.821	76.09
769	78.36
769.179	79.27
769.357	79.48
769.536	79.67
769.715	81.62
769.893	81.49
770.072	82.3
770.25	82.58
770.429	82.66
770.607	80.83
770.786	78.8
770.964	81.33
771.143	80.92
771.321	83.22
771.5	82.57
771.678	81.83
771.857	79.23
772.035	79.14
772.213	77.58
772.392	75.54
772.57	79.28
772.748	79.7
772.927	78.27
773.105	78.1
773.283	81.33
773.461	80.35
773.64	81.23
773.818	82.18
773.996	83.25
774.174	81.85
774.352	78.28
774.531	74.23
774.709	76.42
774.887	74.68
775.065	74.41
775.243	75.99
775.421	78.46
775.599	78.25
775.777	77.58
775.955	76.52
776.133	74.16
776.311	72.05
776.489	68.09
776.667	70.43
776.844	73.27
777.022	73.39
777.2	76.13
777.378	77.88
777.556	76.72
777.734	76.8
777.911	81.61
778.089	79.62
778.267	79.81
778.445	77.04
778.622	74.08
778.8	73.41
778.978	75.78
779.155	74.21
779.333	77.64
779.511	78.77
779.688	78.34
779.866	73.82
780.043	72.62
780.221	69.11
780.398	68.25
780.576	68.81
780.753	71.73
780.931	71.77
781.108	73.5
781.286	74.51
781.463	69.78
781.64	66.72
781.818	68.66
781.995	69.21
782.172	66.93
782.35	69.9
782.527	74.72
782.704	74.74
782.882	75.87
783.059	77.62
783.236	78.65
783.413	78.11
783.59	79.22
783.768	76.09
783.945	77.22
784.122	75.39
784.299	74.57
784.476	73.52
784.653	73.5
784.83	70.58
785.007	68.58
785.184	69.07
785.361	69.05
785.538	74.33
785.715	79.58
785.892	82.85
786.069	84.53
786.246	85.2
786.423	83.41
786.6	78.77
786.776	82.01
786.953	79.85
787.13	82.04
787.307	79.67
787.484	79.44
787.66	73.87
787.837	71.38
788.014	66.6
788.191	67.64
788.367	66.09
788.544	69.25
788.721	70.92
788.897	73.58
789.074	73.2
789.25	73.86
789.427	73.67
789.603	72.69
789.78	75.04
789.956	73.07
790.133	72.01
790.309	72.52
790.486	79.62
790.662	74.45
790.839	75.44
791.015	77.07
791.192	72.86
791.368	69.02
791.544	67.45
791.721	67.26
791.897	66.02
792.073	67.07
792.249	58.96
792.426	62.61
792.602	67.17
792.778	67.23
792.954	68.43
793.13	69.89
793.307	62.73
793.483	50.75
793.659	51.6
793.835	52.79
794.011	51.34
794.187	55.99
794.363	60.73
794.539	64.84
794.715	56.87
794.891	62.93
795.067	61.2
795.243	64.9
795.419	60.89
795.595	62.66
795.771	61.81
795.947	65.62
796.122	60.97
796.298	63.5
796.474	66.43
796.65	65.08
796.826	63.4
797.001	66.43
797.177	59.02
797.353	62.16
797.529	61.7
797.704	61.95
797.88	58.71
798.056	60.9
798.231	59.28
798.407	63.78
798.582	63.55
798.758	75.45
798.934	81.89
799.109	78.81
799.285	74.4
799.46	77.57
799.636	68.07
799.811	62.92
799.986	69.87
800.162	74.37
800.337	73.62
800.513	69.87
800.688	71.61
800.863	73.1
801.039	63.27
801.214	55.76
801.389	56.15
801.565	51.38
801.74	42.34
801.915	52.34
802.09	58.13
802.265	66.71
802.441	67.15
802.616	69.25
802.791	72.57
802.966	71.79
803.141	67.38
803.316	66.12
803.491	71.26
803.666	72.96
803.841	68.68
804.016	63.41
804.191	67.12
804.366	62.9
804.541	53.51
804.716	56.09
804.891	58.36
805.066	60.97
805.241	55.03
805.416	56.09
805.591	53.07
805.765	60.08
805.94	62.09
806.115	63.7
806.29	60.43
806.464	68.14
806.639	60.81
806.814	50.23
806.989	46.79
807.163	60.61
807.338	55.1
807.512	52.44
807.687	42.09
807.862	62.06
808.036	59.14
808.211	60.71
808.385	66.5
808.56	84.21
808.734	70.99
808.909	64.53
809.083	59.92
809.258	70.37
809.432	62.5
809.606	55.26
809.781	54.31
809.955	57.96
810.13	55.43
810.304	50.46
810.478	46.28
810.652	58.5
810.827	61.39
811.001	56.99
811.175	58.23
811.349	61.21
811.524	48.55
811.698	35.55
811.872	36.66
812.046	50.1
812.22	64.41
812.394	61.82
812.568	71.17
812.742	77.07
812.916	71.72
813.09	56.24
813.264	54.13
813.438	64.32
813.612	54.48
813.786	53.05
813.96	65.86
814.134	70.42
814.308	77.41
814.482	87.44
814.656	77.78
814.83	71.03
815.003	78.43
815.177	56.88
815.351	42.42
815.525	45.9
815.698	44.95
815.872	29.4
816.046	25.38
816.219	37.38
816.393	56.34
816.567	61.35
816.74	68.28
816.914	82.27
817.088	89.87
817.261	66.12
817.435	52.08
817.608	59.7
817.782	41.86
817.955	38.96
818.129	34.65
818.302	46.17
818.475	56.11
818.649	60.33
818.822	41.5
818.996	73.76
819.169	70.46
819.342	40.44
819.516	50.84
819.689	71.65
819.862	48.95
820.035	45.54
820.209	50.93
820.382	43.66
820.555	43.44
820.728	30.94
820.901	27.66
821.075	30.92
821.248	39.2
821.421	25.86
821.594	42.93
821.767	79.25
821.94	86.08
822.113	53.88
822.286	53.2
822.459	53.55
822.632	28.45
822.805	13.08
822.978	17.48
823.151	13.58
823.324	1.54
823.496	-27.63
823.669	-28.05
823.842	2.15
824.015	-18.93
824.188	-14.75
824.361	-3.54
824.533	2.37
824.706	10.85
824.879	26.7
825.051	48.89
825.224	58.5
825.397	62.97
825.569	43.83
825.742	63.49
825.915	68.56
826.087	73.56
826.26	57.31
826.432	67.16
826.605	60.73
826.777	40.55
826.95	35.72
827.122	30.09
827.295	24.49
827.467	20.15
827.64	6.89
827.812	6.07
827.984	12.91
828.157	-9.14
828.329	-44.42
828.501	-44.33
828.674	-17.52
828.846	-26.87
829.018	7.66
829.19	18.79
829.363	56.4
829.535	54.26
829.707	60.03
829.879	32.43
830.051	32.03
830.223	-2.36
830.395	-32.29
830.568	-36.68
830.74	-26.07
830.912	-1.37
831.084	-21.01
831.256	-5.78
831.428	-2.72
831.6	-5.62
831.772	-39.99
831.943	-23.95
832.115	-6.73
832.287	16.16
832.459	32.12
832.631	54.55
832.803	77.66
832.975	97.53
833.146	98.33
833.318	76.46
833.49	69.58
833.662	44.98
833.833	13.56
834.005	-6.04
834.177	0.83
834.348	-1.44
834.52	-25.28
834.692	-27.68
834.863	-46.11
835.035	-48.47
835.206	-141.88
835.378	-96.04
835.549	-67.26
835.721	-34.79
835.892	-14.74
836.064	11.41
836.235	12.88
836.407	28.44
836.578	-12.72
836.749	-36.12
836.921	-59.58
837.092	-80.85
837.264	-92.76
837.435	-90.05
837.606	-30.88
837.777	12.86
837.949	40.05
838.12	39.34
838.291	47.78
838.462	28.73
838.633	5.14
838.805	-5.04
838.976	26.93
839.147	13.94
839.318	-24.14
839.489	-78.66
839.66	-62.46
839.831	-50.45
840.002	-48.98
840.173	-37.72
840.344	29.76
840.515	11.54
840.686	-163.88
840.857	-163.56
841.028	-133.43
841.199	-97.91
841.369	-98.32
841.54	-52.81
841.711	-19.7
841.882	-0.66
842.053	-17.75
842.223	-13.32
842.394	9.2
842.565	24.62
842.736	29.15
842.906	26.29
843.077	41.99
843.248	95.54
843.418	80.51
843.589	27.74
843.759	68.2
843.93	51.18
844.101	-10.44
844.271	0.96
844.442	36.53
844.612	55.04
844.783	26.01
844.953	-8.92
845.123	12.55
845.294	2.14
845.464	-157.09
845.635	-0.97
845.805	72.45
845.975	48.26
846.146	-15.41
846.316	-23.17
846.486	-11.39
846.656	19.49
846.827	5.21
846.997	3.41
847.167	28.14
847.337	15.6
847.507	-36.77
847.677	-27.44
847.848	46.05
848.018	41.37
848.188	45.24
848.358	32.14
848.528	20.76
848.698	-34.86
848.868	-128.86
849.038	-278.83
849.208	-114.32
849.378	-70.25
849.548	-43.04
849.718	-25.69
849.887	7.74
850.057	-27.84
850.227	-80.5
850.397	-121.39
850.567	-283.74
850.737	-637.07
850.906	-1692.81
851.076	-1121.29
851.246	-577.09
851.415	-77.31
851.585	-58.88
851.755	-73.64
851.924	-16.42
852.094	-54.14
852.264	-162.22
852.433	-1068.51
852.603	-267.64
852.772	-276.88
852.942	-119.29
853.111	-101.41
853.281	-64.43
853.45	1.3
853.62	-49.08
853.789	-38.97
853.959	10.64
854.128	-13.49
854.297	-55.23
854.467	-85.88
854.636	-42.61
854.805	32.38
854.975	51.43
855.144	140.21
855.313	668.36
855.482	183.03
855.652	-50.09
855.821	-19.55
855.99	6.17
856.159	6.96
856.328	33.41
856.497	11.33
856.667	18.42
856.836	21.15
857.005	-2.15
857.174	-66.89
857.343	-115.7
857.512	-132.75
857.681	-164.2
857.85	-211.17
858.019	-112.51
858.188	-85.71
858.356	-100.19
858.525	-154.39
858.694	-97.72
858.863	-190.66
859.032	-129.97
859.201	-166.9
859.369	-66.14
859.538	-97.93
859.707	-88.35
859.876	-76.19
860.044	-14.15
860.213	34.33
860.382	32.99
860.55	58.73
860.719	83.22
860.888	60.9
861.056	-0.11
861.225	-19.64
861.393	8.02
861.562	-40.33
861.73	-136.18
861.899	-349.35
862.067	-3138.79
862.236	-189.4
862.404	-399.78
862.572	-207.25
862.741	-63.54
862.909	-48.75
863.078	-165.62
863.246	-77.83
863.414	-48.91
863.582	-26.29
863.751	-34.6
863.919	-7.23
864.087	45.96
864.255	22.32
864.424	-201.29
864.592	-0.63
864.76	-65.78
864.928	-303.4
865.096	-198.17
865.264	-90.09
865.432	-1359.66
865.6	90.88
865.768	-72.79
865.936	-95.5
866.104	-123.22
866.272	-178.52
866.44	-498.92
866.608	809.37
866.776	324.86
866.944	3093.6
867.112	-478.5
867.28	-180.74
867.448	-33.77
867.615	-5.37
867.783	0.74
867.951	-19.81
868.119	-5.93
868.286	-16.89
868.454	-142.14
868.622	-143.5
868.789	-237.31
868.957	-2687.5
869.125	-2300.66
869.292	-82.86
869.46	-126.95
869.627	48.81
869.795	17.87
869.963	23.11
870.13	33.51
870.298	66.97
870.465	-30.51
870.632	-80.17
870.8	-32.84
870.967	-90.61
871.135	-205.81
871.302	-132.4
871.469	-62
871.637	-162.72
871.804	-62.15
871.971	-68.43
872.139	-274.07
872.306	-29.81
872.473	-60.63
872.64	-340.45
872.807	-182.55
872.975	-40.43
873.142	-316.82
873.309	2857.43
873.476	-20.94
873.643	28.8
873.81	19.04
873.977	57.36
874.144	80.55
874.311	-68.76
874.478	-115.13
874.645	-174.61
874.812	-167.76
874.979	-83.92
875.146	-100.69
875.313	-114.61
875.48	-7.88
875.647	-40.2
875.813	-89.77
875.98	-55.76
876.147	-98.86
876.314	-223.73
876.481	1352.27
876.647	-1774.44
876.814	659.72
876.981	32.98
877.147	18.89
877.314	44.87
877.481	100.99
877.647	80.07
877.814	7.35
877.98	-62.56
878.147	-23.22
878.314	-1.87
878.48	-89.57
878.647	-10.8
878.813	59.68
878.979	55.35
879.146	20.85
879.312	34.35
879.479	-38.08
879.645	-156.01
879.811	-404.5
879.978	-1026.91
880.144	-230.41
880.31	-94.27
880.477	-297.64
880.643	-319.45
880.809	-83.35
880.975	-83.06
881.142	-873.86
881.308	-84.03
881.474	-4.56
881.64	-63.74
881.806	-140.2
881.972	-51.05
882.138	-19.11
882.304	-11.6
882.47	-139.59
882.636	-618.24
882.802	-178.11
882.968	-26.28
883.134	-28.34
883.3	-17.67
883.466	19.92
883.632	70.07
883.798	17.06
883.964	5.64
884.129	17.16
884.295	72.69
884.461	-37.05
884.627	-48.7
884.793	-74.63
884.958	-52.72
885.124	-178.21
885.29	-283.66
885.455	-463.71
885.621	-54.96
885.787	-107.52
885.952	-51.12
886.118	-33.28
886.283	-40.12
886.449	-150.21
886.614	-120.76
886.78	-222.02
886.945	739.75
887.111	-481.07
887.276	-438.78
887.442	-892.95
887.607	-333.14
887.773	-248.81
887.938	-279.18
888.103	-362.62
888.269	-247.06
888.434	-625
888.599	-259.06
888.764	-105.13
888.93	-23.56
889.095	-39.92
889.26	-60.42
889.425	-20.75
889.59	-11.18
889.756	-93.44
889.921	-28.89
890.086	40.96
890.251	25.35
890.416	-103.95
890.581	-548.79
890.746	62.59
890.911	224.36
891.076	158.69
891.241	-256.16
891.406	60.44
891.571	-28.02
891.736	-244.15
891.901	-322.35
892.065	314.56
892.23	120.61
892.395	218.64
892.56	267.41
892.725	-29.1
892.889	311.59
893.054	-84.62
893.219	-22.48
893.384	-27.04
893.548	-154.41
893.713	-207.18
893.878	-157.13
