Data from Ofra_2a_PS_1GT37_Reflection_2.txt Node
Date: Tue Jul 20 09:34:04 EDT 2021
User: Adam
Spectrometer: FLMT01687
Trigger mode: 0
Integration Time (sec): 9.450000E-1
Scans to average: 3
Electric dark correction enabled: true
Nonlinearity correction enabled: false
Boxcar width: 3
XAxis mode: Wavelengths
Number of Pixels in Spectrum: 3648
>>>>>Begin Spectral Data<<<<<
179.494	576.33
179.716	376.41
179.937	420.88
180.158	1189.06
180.38	-316.28
180.601	-44.24
180.823	-42.47
181.044	-55.78
181.265	-140.19
181.486	32.48
181.708	-2317.39
181.929	-208.84
182.15	-1122.73
182.372	61.37
182.593	113.7
182.814	70.66
183.035	-75.21
183.257	22.26
183.478	21.48
183.699	34.69
183.92	22.68
184.141	30
184.363	28.86
184.584	12.64
184.805	19.37
185.026	-19.14
185.247	-16.65
185.468	-23.7
185.689	-5.53
185.91	-8.66
186.132	4.66
186.353	-16.56
186.574	-14.41
186.795	-37.48
187.016	-21.8
187.237	-23.19
187.458	-47.13
187.679	-59.5
187.9	-36.88
188.121	-22.07
188.342	8.95
188.563	6.36
188.784	6.79
189.005	25.77
189.226	27.86
189.447	10.55
189.667	18.84
189.888	30
190.109	20.53
190.33	0.17
190.551	-13.63
190.772	-13.69
190.993	8.02
191.214	9.02
191.434	-0.55
191.655	20.7
191.876	32.41
192.097	30.29
192.318	37.63
192.538	40.97
192.759	40.41
192.98	25.12
193.201	25.34
193.421	22.82
193.642	29.24
193.863	10.88
194.083	4.57
194.304	6.6
194.525	35.39
194.745	6.79
194.966	17.81
195.187	19.31
195.407	21.25
195.628	16.92
195.848	6.96
196.069	-2.78
196.29	0.74
196.51	-16.91
196.731	-2.53
196.951	-2.78
197.172	-20.53
197.392	5.75
197.613	-7.58
197.833	-3.32
198.054	2.92
198.274	-16.05
198.495	-31.07
198.715	-22.62
198.936	-58.53
199.156	-34.9
199.377	-46.36
199.597	-57.41
199.817	-51.3
200.038	-28.86
200.258	-28.56
200.479	-15.46
200.699	-9.38
200.919	-22.01
201.14	-12.2
201.36	1.61
201.58	10.13
201.801	1.19
202.021	17.1
202.241	17.71
202.461	30.64
202.682	32.75
202.902	26.38
203.122	15.08
203.342	34.66
203.563	33.66
203.783	30.91
204.003	34.32
204.223	29.19
204.443	25.72
204.663	31.15
204.884	19.64
205.104	4.43
205.324	0.04
205.544	4.51
205.764	29.93
205.984	42.14
206.204	47.41
206.424	48.1
206.644	54.03
206.864	55.81
207.084	57.41
207.304	34.36
207.525	34.91
207.745	32.12
207.964	37.85
208.184	24.67
208.404	21.81
208.624	-1.5
208.844	-1.69
209.064	-5.73
209.284	-4.74
209.504	-19.4
209.724	-39.25
209.944	-48.7
210.164	-24.2
210.384	-0.22
210.604	-23.27
210.823	-18.03
211.043	-7.94
211.263	9.2
211.483	15.93
211.703	10.01
211.922	0.58
212.142	21.5
212.362	22
212.582	25.91
212.801	13.75
213.021	8.42
213.241	6.24
213.461	9.91
213.68	5.02
213.9	19.21
214.12	14.27
214.339	29.3
214.559	45.89
214.779	53.25
214.998	45.28
215.218	54.22
215.438	53.9
215.657	58.16
215.877	47.55
216.096	32.19
216.316	27.9
216.535	26.05
216.755	-3.03
216.974	-26.92
217.194	-47.79
217.413	-31.22
217.633	-22.55
217.852	-40.74
218.072	-53.04
218.291	-9.56
218.511	1.76
218.73	-1.56
218.95	-7.36
219.169	-13.82
219.389	0.04
219.608	7.8
219.827	-12.53
220.047	-14.5
220.266	-4.93
220.485	-0.6
220.705	-1.44
220.924	-0.95
221.143	-1.87
221.363	1.96
221.582	3.99
221.801	7.16
222.021	13.18
222.24	11.61
222.459	1.23
222.678	-8.34
222.897	-15.38
223.117	-28.71
223.336	-16.18
223.555	-25.93
223.774	-24.81
223.993	-8.23
224.213	-0.07
224.432	18.6
224.651	24.02
224.87	22.65
225.089	19.02
225.308	17.63
225.527	18.56
225.746	23.19
225.965	19.02
226.184	21.84
226.404	3.26
226.623	20.86
226.842	22.04
227.061	15.39
227.28	37.01
227.499	35.82
227.718	30.02
227.936	25.26
228.155	14.89
228.374	12.76
228.593	14.37
228.812	-3.4
229.031	-16.44
229.25	-7.84
229.469	4.12
229.688	14.78
229.907	9.4
230.125	13.58
230.344	19.84
230.563	27.99
230.782	23.73
231.001	15.95
231.22	17.48
231.438	27.59
231.657	26.67
231.876	23.63
232.095	19.06
232.313	23.03
232.532	34.12
232.751	32.07
232.969	30.75
233.188	30.66
233.407	29.16
233.625	25.25
233.844	23.19
234.063	5.36
234.281	0.36
234.5	2.62
234.719	-1.26
234.937	7.66
235.156	4.12
235.374	3.66
235.593	8.7
235.811	3.78
236.03	-18.39
236.249	-7
236.467	-12.03
236.686	-4
236.904	-7.57
237.123	0.9
237.341	2.02
237.559	4.58
237.778	10.74
237.996	12.21
238.215	14.66
238.433	22.75
238.652	24.98
238.87	31.12
239.088	34.68
239.307	25.31
239.525	20.34
239.743	8.76
239.962	7.63
240.18	2.4
240.398	6.34
240.617	18.38
240.835	25.66
241.053	25.44
241.271	34.91
241.49	24.66
241.708	24.51
241.926	11.65
242.144	2.41
242.363	-10.84
242.581	0.32
242.799	-4.48
243.017	7.86
243.235	6.04
243.453	5.98
243.672	10.73
243.89	13.05
244.108	25.83
244.326	25.8
244.544	22.46
244.762	18.53
244.98	23.37
245.198	5.11
245.416	11.16
245.634	-8.34
245.852	0.58
246.07	3.77
246.288	-7.13
246.506	-2.94
246.724	14.15
246.942	19.03
247.16	16.87
247.378	7.79
247.596	-2.02
247.814	2.53
248.032	-2.11
248.25	-5.63
248.468	-4.79
248.685	3.43
248.903	1.2
249.121	6.05
249.339	8.96
249.557	10.69
249.775	-9.28
249.992	-10.28
250.21	-17.98
250.428	-20.05
250.646	-21.65
250.863	-16.9
251.081	-18.3
251.299	14.77
251.517	18.83
251.734	22.05
251.952	34.02
252.17	25.99
252.387	25.69
252.605	21.57
252.823	-1.58
253.04	-3.65
253.258	0.55
253.475	4.53
253.693	21.77
253.911	21.47
254.128	20.51
254.346	20.7
254.563	12.12
254.781	10.41
254.998	13.84
255.216	12.93
255.433	11.94
255.651	14.74
255.868	19.11
256.086	29.25
256.303	26.09
256.521	8.93
256.738	1.57
256.956	-2.42
257.173	-3.18
257.39	4
257.608	0.02
257.825	-5.67
258.043	4.46
258.26	-2.42
258.477	-0.34
258.695	11.4
258.912	16.55
259.129	17.18
259.346	18.13
259.564	13.63
259.781	24.63
259.998	25.52
260.216	24.27
260.433	15.26
260.65	25.37
260.867	25.22
261.084	38.4
261.302	39.97
261.519	32.57
261.736	13.83
261.953	33.61
262.17	24.31
262.387	28.65
262.604	8.23
262.822	5.43
263.039	19.92
263.256	21.66
263.473	1.26
263.69	-0.84
263.907	-3.42
264.124	0.84
264.341	-7.77
264.558	0.54
264.775	-2.45
264.992	1.24
265.209	9.81
265.426	14.04
265.643	15.77
265.86	22.44
266.077	19.49
266.294	21.62
266.51	27.99
266.727	19.7
266.944	-24.67
267.161	-28.72
267.378	-42.49
267.595	-48.44
267.812	-48.64
268.028	-43.27
268.245	-32.26
268.462	12.04
268.679	9.15
268.896	14.41
269.112	24.78
269.329	30.06
269.546	19.16
269.763	25.5
269.979	20.68
270.196	23.29
270.413	17.51
270.629	9.84
270.846	8.75
271.063	9.51
271.279	2.26
271.496	-4.1
271.712	-0.81
271.929	11.17
272.146	9.49
272.362	-5.27
272.579	-4.43
272.795	-9.27
273.012	-3.85
273.228	-8.97
273.445	-10.11
273.661	-1.01
273.878	8.03
274.094	4.03
274.311	6.89
274.527	8.14
274.744	7.97
274.96	3.28
275.177	3.66
275.393	5.99
275.609	5.47
275.826	5.62
276.042	14.97
276.259	17.35
276.475	23.28
276.691	22
276.908	22.57
277.124	28.97
277.34	27.47
277.557	22.57
277.773	19.71
277.989	12.56
278.205	10.23
278.422	16.13
278.638	25.61
278.854	14.11
279.07	5.39
279.286	4.49
279.503	11.07
279.719	15.16
279.935	3.49
280.151	1.87
280.367	13.05
280.583	16.43
280.799	19.86
281.016	16.76
281.232	9.7
281.448	17.46
281.664	9.71
281.88	15.44
282.096	23.28
282.312	24.6
282.528	25.72
282.744	15.89
282.96	11.32
283.176	11.08
283.392	11.68
283.608	3.75
283.824	-3.4
284.04	6.07
284.256	8.49
284.471	8.03
284.687	11.9
284.903	10.91
285.119	5.99
285.335	5.18
285.551	9.75
285.767	13.09
285.982	12.85
286.198	14.1
286.414	21.71
286.63	25.77
286.846	33.44
287.061	28.86
287.277	31.28
287.493	35.59
287.709	30.67
287.924	23.81
288.14	32.74
288.356	30.67
288.571	21.41
288.787	26.55
289.003	17.2
289.218	13.8
289.434	11.82
289.65	6.68
289.865	11.31
290.081	15.61
290.296	11.14
290.512	18.44
290.727	20.32
290.943	10.91
291.159	1.96
291.374	4.49
291.59	9.51
291.805	10.82
292.021	5.76
292.236	13.33
292.451	30.09
292.667	34.9
292.882	30.5
293.098	26.89
293.313	21.65
293.529	26.16
293.744	18.88
293.959	15.31
294.175	10.1
294.39	8.37
294.605	9.06
294.821	11.08
295.036	9.8
295.251	12.78
295.467	8.2
295.682	8.37
295.897	9.14
296.112	13.66
296.328	16.98
296.543	3.39
296.758	-0.97
296.973	-3.31
297.188	-8.05
297.404	-0.76
297.619	-7.92
297.834	-5.53
298.049	1.92
298.264	6.84
298.479	3.64
298.694	11.11
298.909	-0.77
299.125	5.26
299.34	3.78
299.555	10.83
299.77	9.1
299.985	10.48
300.2	7.93
300.415	19.9
300.63	12.76
300.845	9.7
301.06	5.83
301.275	13.6
301.49	18.69
301.704	16.03
301.919	7.6
302.134	3.31
302.349	-2.34
302.564	-6.13
302.779	-9.84
302.994	-21.66
303.209	-28.53
303.423	-17.1
303.638	-6.87
303.853	12.98
304.068	15.94
304.283	8.89
304.497	16.12
304.712	26.46
304.927	19.24
305.142	16.7
305.356	10.86
305.571	17.74
305.786	14.84
306	16.53
306.215	12.87
306.43	24.86
306.644	24.79
306.859	27.65
307.074	20.07
307.288	23.09
307.503	22.92
307.717	22.31
307.932	22.38
308.147	25.08
308.361	21.89
308.576	21.89
308.79	18.97
309.005	20.23
309.219	24.6
309.434	17.61
309.648	10.47
309.863	14.53
310.077	14.01
310.292	21.12
310.506	26.29
310.72	21.86
310.935	19.41
311.149	27.91
311.364	21.21
311.578	18.99
311.792	10.47
312.007	3.26
312.221	11.33
312.435	11.55
312.649	10.76
312.864	16.6
313.078	16.04
313.292	35.47
313.507	36.57
313.721	33.8
313.935	49.37
314.149	36.38
314.363	40.18
314.578	44.07
314.792	37.66
315.006	36.08
315.22	34.58
315.434	27.82
315.648	17.26
315.862	15.88
316.077	18.22
316.291	13.2
316.505	11.22
316.719	-6.38
316.933	-13.93
317.147	-1.5
317.361	-4.41
317.575	-3.47
317.789	5.36
318.003	12.08
318.217	24.38
318.431	32.68
318.645	37.91
318.859	29.16
319.073	25.57
319.287	30.26
319.5	27.74
319.714	26.04
319.928	25.77
320.142	22.75
320.356	41.17
320.57	35.56
320.784	31.44
320.997	34.65
321.211	24.05
321.425	18.02
321.639	14.29
321.853	-0.76
322.066	2.38
322.28	-0.39
322.494	-8.14
322.707	2.12
322.921	7.51
323.135	13.35
323.349	19.12
323.562	16.37
323.776	16.33
323.989	19.21
324.203	16.62
324.417	11.93
324.63	2.18
324.844	-6.62
325.057	0.67
325.271	-13.75
325.485	-13.05
325.698	-14
325.912	-8.39
326.125	-5.62
326.339	3.83
326.552	3.87
326.766	25.75
326.979	27.46
327.193	21.25
327.406	17.83
327.619	13.34
327.833	0.8
328.046	-2.08
328.26	-25.33
328.473	-17.96
328.686	-5.18
328.9	-6.38
329.113	3.35
329.326	19.09
329.54	17.84
329.753	24.74
329.966	16.53
330.179	22.77
330.393	20.17
330.606	22.82
330.819	17.45
331.032	21.62
331.246	24.16
331.459	25.61
331.672	20.51
331.885	23.98
332.098	22.16
332.311	13.3
332.525	20.53
332.738	13.28
332.951	13.66
333.164	8.24
333.377	-7.56
333.59	-4.77
333.803	5.5
334.016	-19.04
334.229	-15.5
334.442	0.77
334.655	15.82
334.868	31.05
335.081	32.09
335.294	25.82
335.507	38.58
335.72	36.78
335.933	26.15
336.146	21.14
336.359	17.5
336.572	14.44
336.785	23.27
336.997	21.86
337.21	28.38
337.423	27.24
337.636	24.83
337.849	22.05
338.062	17.38
338.274	11.9
338.487	3.13
338.7	7.68
338.913	3.76
339.125	1.62
339.338	11.19
339.551	14.38
339.763	9.01
339.976	11.58
340.189	0.59
340.402	0.97
340.614	8
340.827	-1.02
341.039	1.3
341.252	3.22
341.465	-5.22
341.677	-5.92
341.89	-4.82
342.102	-0.88
342.315	1.12
342.527	-5.88
342.74	0.56
342.952	12
343.165	24.86
343.377	35.51
343.59	28.55
343.802	39.05
344.015	39.01
344.227	35.52
344.44	33.11
344.652	36.33
344.864	30.22
345.077	23.85
345.289	9.69
345.502	12.12
345.714	5.52
345.926	-0.23
346.139	-15.29
346.351	-31.27
346.563	-20.26
346.775	-17.65
346.988	-16.79
347.2	-5.36
347.412	-0.77
347.624	5.03
347.837	8.03
348.049	8.44
348.261	11.63
348.473	6.56
348.685	6.81
348.897	6.61
349.11	10.21
349.322	11.47
349.534	5.06
349.746	4.76
349.958	12.21
350.17	9.43
350.382	6.21
350.594	0.03
350.806	10.37
351.018	19.4
351.23	21.54
351.442	18.65
351.654	21.92
351.866	24.1
352.078	21.92
352.29	25.5
352.502	20.89
352.714	22.54
352.926	27.76
353.138	26.97
353.35	14.6
353.561	10.72
353.773	6.13
353.985	11.8
354.197	5.52
354.409	1.81
354.621	-1.67
354.832	1.26
355.044	12.89
355.256	2.04
355.468	-4.64
355.679	5.38
355.891	8.81
356.103	12.35
356.314	12.14
356.526	5.16
356.738	9.52
356.949	7.51
357.161	4.25
357.373	5.94
357.584	7.74
357.796	13.2
358.008	15.98
358.219	24.69
358.431	28.25
358.642	24.96
358.854	19.5
359.065	16.99
359.277	14.54
359.488	10.66
359.7	9.87
359.911	9.05
360.123	15.2
360.334	16.25
360.546	12.6
360.757	18.71
360.969	26.84
361.18	24.49
361.391	25.12
361.603	17.7
361.814	16.56
362.025	16.76
362.237	19.8
362.448	18.76
362.659	7.04
362.871	2.37
363.082	8.95
363.293	12.57
363.504	17.23
363.716	15.79
363.927	13.42
364.138	24.07
364.349	31.33
364.56	27.68
364.772	31.58
364.983	26.05
365.194	20.68
365.405	19.72
365.616	7.69
365.827	-7.99
366.038	10.82
366.25	1.41
366.461	8.87
366.672	5.98
366.883	11.94
367.094	14.03
367.305	21.17
367.516	5.06
367.727	7.6
367.938	4.79
368.149	12.67
368.36	6.75
368.571	13.6
368.781	6.74
368.992	11.42
369.203	15.62
369.414	14.01
369.625	13.21
369.836	15.62
370.047	18.45
370.258	19.47
370.468	15.36
370.679	16.03
370.89	20.83
371.101	18.15
371.312	12.48
371.522	10.33
371.733	3.81
371.944	5.86
372.155	-7.06
372.365	-11.54
372.576	-13.6
372.787	-5.55
372.997	-8.71
373.208	7.68
373.419	5.43
373.629	19.48
373.84	12.36
374.05	19.9
374.261	7.96
374.472	3.58
374.682	-3.07
374.893	-1.25
375.103	-2.7
375.314	7.39
375.524	5.92
375.735	12.53
375.945	20.97
376.156	27.75
376.366	29.33
376.577	27.01
376.787	29.75
376.997	29.28
377.208	24.41
377.418	18.51
377.629	13.89
377.839	17.61
378.049	17.77
378.26	15.24
378.47	15.25
378.68	15.9
378.89	17.05
379.101	8.42
379.311	-2.64
379.521	3.63
379.732	-3.4
379.942	-3.41
380.152	4.13
380.362	10.82
380.572	23.49
380.783	31.13
380.993	23.6
381.203	22.99
381.413	24.25
381.623	20.53
381.833	16.1
382.043	6.81
382.253	4.73
382.463	9.48
382.674	13.38
382.884	10.09
383.094	9.29
383.304	2.96
383.514	3.12
383.724	0.09
383.934	-2.39
384.144	-2.17
384.353	-0.26
384.563	-1.96
384.773	0.91
384.983	4.37
385.193	6.76
385.403	6.63
385.613	2.74
385.823	1.36
386.033	4.8
386.242	4.86
386.452	3.67
386.662	4.97
386.872	6.91
387.082	9.65
387.291	16.01
387.501	13.5
387.711	11.21
387.921	8.6
388.13	5.71
388.34	3.26
388.55	4
388.759	0.32
388.969	-0.99
389.179	4.22
389.388	7.19
389.598	6.94
389.807	5.45
390.017	5.3
390.227	4.42
390.436	4.65
390.646	3.65
390.855	1.85
391.065	2.43
391.274	3.77
391.484	4.03
391.693	3.52
391.903	3.05
392.112	1.67
392.322	3.39
392.531	3.94
392.74	2.51
392.95	2.95
393.159	3.84
393.369	5.06
393.578	4.71
393.787	3.63
393.997	3.96
394.206	4.88
394.415	4.34
394.625	3.4
394.834	2.25
395.043	2.23
395.252	3.61
395.462	2.71
395.671	3.2
395.88	3.8
396.089	3.82
396.298	3.92
396.508	4.06
396.717	2.82
396.926	2.93
397.135	2.46
397.344	2.02
397.553	2.26
397.762	2.46
397.971	2.61
398.181	2.48
398.39	2.37
398.599	2.9
398.808	3
399.017	3.14
399.226	3.25
399.435	3.12
399.644	3.34
399.853	3.46
400.062	3.36
400.27	3.12
400.479	2.93
400.688	3.13
400.897	3.53
401.106	3.68
401.315	3.69
401.524	3.65
401.733	3.84
401.941	3.81
402.15	3.45
402.359	3.25
402.568	3.26
402.777	3.17
402.985	3.06
403.194	3.1
403.403	3.02
403.612	3.17
403.82	3.18
404.029	3.17
404.238	3.27
404.446	3.31
404.655	3.09
404.864	3.19
405.072	3.17
405.281	3.11
405.489	3.09
405.698	2.97
405.906	2.88
406.115	3.02
406.324	2.93
406.532	2.91
406.741	2.97
406.949	2.87
407.158	3.03
407.366	3.02
407.574	2.91
407.783	2.88
407.991	2.85
408.2	2.77
408.408	2.82
408.617	2.74
408.825	2.79
409.033	2.83
409.242	2.85
409.45	2.79
409.658	2.76
409.867	2.74
410.075	2.7
410.283	2.66
410.491	2.6
410.7	2.63
410.908	2.71
411.116	2.69
411.324	2.68
411.533	2.58
411.741	2.54
411.949	2.58
412.157	2.54
412.365	2.52
412.573	2.55
412.781	2.59
412.99	2.73
413.198	2.81
413.406	2.81
413.614	2.85
413.822	2.88
414.03	2.79
414.238	2.83
414.446	2.73
414.654	2.65
414.862	2.54
415.07	2.58
415.278	2.57
415.486	2.7
415.694	2.55
415.902	2.63
416.109	2.61
416.317	2.66
416.525	2.71
416.733	2.71
416.941	2.6
417.149	2.67
417.357	2.64
417.564	2.64
417.772	2.68
417.98	2.55
418.188	2.48
418.395	2.49
418.603	2.31
418.811	2.21
419.019	2.29
419.226	2.32
419.434	2.3
419.642	2.29
419.849	2.36
420.057	2.51
420.265	2.55
420.472	2.5
420.68	2.42
420.887	2.41
421.095	2.43
421.302	2.39
421.51	2.43
421.717	2.49
421.925	2.32
422.132	2.25
422.34	2.3
422.547	2.2
422.755	2.12
422.962	1.96
423.17	1.85
423.377	2.05
423.585	2.12
423.792	2.06
423.999	2.11
424.207	2.03
424.414	2.19
424.621	2.23
424.829	2.14
425.036	2.06
425.243	2.08
425.451	2.1
425.658	2.33
425.865	2.23
426.072	2.22
426.28	2.3
426.487	2.34
426.694	2.35
426.901	2.24
427.108	2.17
427.315	2.16
427.523	2.15
427.73	2.14
427.937	2.21
428.144	2.22
428.351	2.36
428.558	2.28
428.765	2.25
428.972	2.3
429.179	2.23
429.386	2.28
429.593	2.26
429.8	2.31
430.007	2.39
430.214	2.5
430.421	2.53
430.628	2.44
430.835	2.33
431.042	2.38
431.249	2.33
431.456	2.38
431.662	2.3
431.869	2.3
432.076	2.46
432.283	2.52
432.49	2.47
432.697	2.5
432.903	2.51
433.11	2.6
433.317	2.66
433.524	2.62
433.73	2.66
433.937	2.67
434.144	2.67
434.35	2.54
434.557	2.46
434.764	2.43
434.97	2.47
435.177	2.44
435.384	2.51
435.59	2.51
435.797	2.58
436.003	2.61
436.21	2.56
436.416	2.52
436.623	2.58
436.829	2.54
437.036	2.55
437.242	2.6
437.449	2.56
437.655	2.56
437.862	2.58
438.068	2.53
438.275	2.56
438.481	2.65
438.687	2.69
438.894	2.78
439.1	2.84
439.307	2.87
439.513	2.88
439.719	2.89
439.926	2.86
440.132	2.82
440.338	2.86
440.544	2.89
440.751	2.84
440.957	2.85
441.163	2.83
441.369	2.87
441.575	2.9
441.782	2.9
441.988	2.87
442.194	2.98
442.4	3.01
442.606	3.06
442.812	3.04
443.018	2.99
443.224	3
443.431	3.03
443.637	2.97
443.843	2.99
444.049	2.98
444.255	2.94
444.461	2.92
444.667	2.92
444.873	2.91
445.079	2.93
445.284	2.92
445.49	2.9
445.696	2.95
445.902	3.04
446.108	3.01
446.314	3.09
446.52	3.14
446.726	3.16
446.931	3.17
447.137	3.16
447.343	3.17
447.549	3.16
447.755	3.07
447.96	3
448.166	3
448.372	3.03
448.578	3.05
448.783	2.97
448.989	2.98
449.195	3.07
449.4	3.14
449.606	3.1
449.812	3.12
450.017	3.14
450.223	3.21
450.428	3.24
450.634	3.26
450.84	3.23
451.045	3.28
451.251	3.29
451.456	3.24
451.662	3.16
451.867	3.15
452.073	3.09
452.278	3.03
452.483	3.08
452.689	3.1
452.894	3.13
453.1	3.14
453.305	3.21
453.51	3.22
453.716	3.29
453.921	3.22
454.127	3.19
454.332	3.2
454.537	3.26
454.742	3.21
454.948	3.21
455.153	3.23
455.358	3.3
455.563	3.27
455.769	3.26
455.974	3.22
456.179	3.19
456.384	3.23
456.589	3.24
456.795	3.2
457	3.25
457.205	3.25
457.41	3.31
457.615	3.38
457.82	3.39
458.025	3.38
458.23	3.4
458.435	3.38
458.64	3.49
458.845	3.45
459.05	3.41
459.255	3.4
459.46	3.37
459.665	3.44
459.87	3.46
460.075	3.41
460.28	3.44
460.485	3.49
460.69	3.46
460.895	3.53
461.099	3.46
461.304	3.5
461.509	3.47
461.714	3.49
461.919	3.45
462.123	3.52
462.328	3.53
462.533	3.53
462.738	3.5
462.942	3.56
463.147	3.56
463.352	3.62
463.556	3.6
463.761	3.57
463.966	3.6
464.17	3.63
464.375	3.59
464.58	3.57
464.784	3.52
464.989	3.54
465.193	3.57
465.398	3.59
465.602	3.6
465.807	3.61
466.011	3.69
466.216	3.72
466.42	3.68
466.625	3.73
466.829	3.8
467.034	3.81
467.238	3.85
467.443	3.83
467.647	3.85
467.851	3.92
468.056	3.9
468.26	3.86
468.464	3.88
468.669	3.88
468.873	3.89
469.077	3.92
469.282	3.94
469.486	4.01
469.69	4.03
469.894	4.1
470.099	4.13
470.303	4.16
470.507	4.19
470.711	4.17
470.915	4.15
471.119	4.18
471.324	4.11
471.528	4.14
471.732	4.17
471.936	4.18
472.14	4.22
472.344	4.2
472.548	4.26
472.752	4.31
472.956	4.31
473.16	4.32
473.364	4.31
473.568	4.38
473.772	4.47
473.976	4.4
474.18	4.39
474.384	4.37
474.588	4.39
474.792	4.38
474.995	4.32
475.199	4.29
475.403	4.32
475.607	4.34
475.811	4.36
476.015	4.41
476.218	4.45
476.422	4.48
476.626	4.44
476.83	4.46
477.033	4.47
477.237	4.52
477.441	4.48
477.644	4.5
477.848	4.52
478.052	4.59
478.255	4.59
478.459	4.67
478.663	4.67
478.866	4.7
479.07	4.74
479.273	4.7
479.477	4.72
479.681	4.76
479.884	4.7
480.088	4.7
480.291	4.75
480.495	4.75
480.698	4.81
480.901	4.83
481.105	4.82
481.308	4.88
481.512	4.88
481.715	4.89
481.919	4.91
482.122	4.91
482.325	4.96
482.529	5.04
482.732	5.04
482.935	5.04
483.138	5.03
483.342	5.03
483.545	5.06
483.748	5.02
483.952	4.99
484.155	5.01
484.358	5.02
484.561	5.06
484.764	5.05
484.967	5.08
485.171	5.08
485.374	5.11
485.577	5.11
485.78	5.12
485.983	5.12
486.186	5.11
486.389	5.06
486.592	5.11
486.795	5.09
486.998	5.1
487.201	5.12
487.404	5.18
487.607	5.18
487.81	5.23
488.013	5.2
488.216	5.21
488.419	5.22
488.622	5.2
488.825	5.14
489.028	5.11
489.231	5.1
489.433	5.13
489.636	5.07
489.839	5.05
490.042	5.1
490.245	5.12
490.447	5.13
490.65	5.17
490.853	5.15
491.056	5.16
491.258	5.19
491.461	5.14
491.664	5.13
491.866	5.17
492.069	5.15
492.272	5.15
492.474	5.16
492.677	5.13
492.879	5.15
493.082	5.17
493.285	5.17
493.487	5.16
493.69	5.14
493.892	5.22
494.095	5.23
494.297	5.28
494.5	5.29
494.702	5.29
494.905	5.34
495.107	5.37
495.309	5.33
495.512	5.36
495.714	5.36
495.917	5.38
496.119	5.44
496.321	5.44
496.524	5.44
496.726	5.49
496.928	5.5
497.13	5.51
497.333	5.52
497.535	5.52
497.737	5.5
497.939	5.53
498.142	5.49
498.344	5.49
498.546	5.51
498.748	5.5
498.95	5.49
499.152	5.47
499.355	5.47
499.557	5.54
499.759	5.61
499.961	5.62
500.163	5.67
500.365	5.67
500.567	5.74
500.769	5.77
500.971	5.74
501.173	5.71
501.375	5.71
501.577	5.72
501.779	5.74
501.981	5.73
502.183	5.72
502.385	5.75
502.587	5.74
502.788	5.72
502.99	5.72
503.192	5.74
503.394	5.81
503.596	5.86
503.798	5.95
503.999	6.01
504.201	6.04
504.403	6.06
504.605	6.09
504.806	6.08
505.008	6.08
505.21	6.03
505.411	6.02
505.613	6.05
505.815	6.1
506.016	6.12
506.218	6.08
506.42	6.1
506.621	6.13
506.823	6.18
507.024	6.18
507.226	6.16
507.427	6.17
507.629	6.24
507.83	6.23
508.032	6.27
508.233	6.27
508.435	6.29
508.636	6.33
508.838	6.34
509.039	6.33
509.24	6.38
509.442	6.36
509.643	6.36
509.845	6.38
510.046	6.38
510.247	6.45
510.448	6.47
510.65	6.48
510.851	6.57
511.052	6.59
511.254	6.61
511.455	6.63
511.656	6.59
511.857	6.6
512.058	6.63
512.26	6.62
512.461	6.62
512.662	6.6
512.863	6.57
513.064	6.58
513.265	6.64
513.466	6.65
513.667	6.62
513.868	6.66
514.069	6.72
514.27	6.77
514.471	6.84
514.672	6.81
514.873	6.84
515.074	6.87
515.275	6.88
515.476	6.91
515.677	6.94
515.878	6.97
516.079	7
516.28	6.97
516.481	6.98
516.682	6.99
516.882	6.93
517.083	6.93
517.284	6.87
517.485	6.85
517.686	6.89
517.886	6.87
518.087	6.87
518.288	6.92
518.488	6.93
518.689	6.94
518.89	7.01
519.091	7.01
519.291	7.02
519.492	7.03
519.692	7.04
519.893	7.03
520.094	7.1
520.294	7.07
520.495	7.07
520.695	7.11
520.896	7.12
521.096	7.13
521.297	7.14
521.497	7.1
521.698	7.12
521.898	7.15
522.099	7.15
522.299	7.14
522.499	7.18
522.7	7.2
522.9	7.21
523.101	7.23
523.301	7.22
523.501	7.24
523.702	7.24
523.902	7.24
524.102	7.25
524.302	7.29
524.503	7.31
524.703	7.34
524.903	7.36
525.103	7.39
525.304	7.39
525.504	7.39
525.704	7.36
525.904	7.37
526.104	7.36
526.304	7.34
526.504	7.33
526.705	7.36
526.905	7.39
527.105	7.41
527.305	7.4
527.505	7.43
527.705	7.44
527.905	7.46
528.105	7.47
528.305	7.46
528.505	7.51
528.705	7.52
528.905	7.51
529.105	7.58
529.304	7.61
529.504	7.6
529.704	7.65
529.904	7.65
530.104	7.64
530.304	7.64
530.503	7.61
530.703	7.62
530.903	7.62
531.103	7.6
531.303	7.64
531.502	7.66
531.702	7.68
531.902	7.68
532.101	7.69
532.301	7.73
532.501	7.77
532.7	7.79
532.9	7.81
533.1	7.83
533.299	7.86
533.499	7.88
533.698	7.91
533.898	7.9
534.097	7.9
534.297	7.91
534.496	7.92
534.696	7.92
534.895	7.93
535.095	7.93
535.294	7.93
535.494	7.94
535.693	7.99
535.892	8.02
536.092	8.04
536.291	8.07
536.491	8.06
536.69	8.09
536.889	8.09
537.088	8.1
537.288	8.14
537.487	8.17
537.686	8.19
537.886	8.24
538.085	8.31
538.284	8.37
538.483	8.4
538.682	8.39
538.882	8.42
539.081	8.43
539.28	8.44
539.479	8.41
539.678	8.43
539.877	8.48
540.076	8.5
540.275	8.52
540.474	8.52
540.673	8.54
540.872	8.6
541.071	8.61
541.27	8.61
541.469	8.65
541.668	8.68
541.867	8.74
542.066	8.76
542.265	8.8
542.464	8.8
542.663	8.87
542.862	8.89
543.06	8.95
543.259	8.99
543.458	9.05
543.657	9.07
543.856	9.11
544.054	9.14
544.253	9.2
544.452	9.17
544.651	9.19
544.849	9.19
545.048	9.23
545.247	9.27
545.445	9.28
545.644	9.29
545.843	9.37
546.041	9.43
546.24	9.51
546.438	9.55
546.637	9.62
546.836	9.71
547.034	9.76
547.233	9.81
547.431	9.84
547.63	9.87
547.828	9.94
548.027	9.93
548.225	9.95
548.423	10.02
548.622	10.07
548.82	10.12
549.019	10.15
549.217	10.24
549.415	10.34
549.614	10.36
549.812	10.43
550.01	10.47
550.209	10.55
550.407	10.64
550.605	10.68
550.803	10.73
551.002	10.82
551.2	10.87
551.398	10.93
551.596	11
551.794	11.08
551.993	11.13
552.191	11.24
552.389	11.35
552.587	11.39
552.785	11.52
552.983	11.56
553.181	11.59
553.379	11.68
553.577	11.73
553.775	11.8
553.973	11.92
554.171	11.95
554.369	12.05
554.567	12.17
554.765	12.21
554.963	12.27
555.161	12.34
555.359	12.41
555.557	12.5
555.755	12.62
555.952	12.68
556.15	12.78
556.348	12.88
556.546	13
556.744	13.07
556.941	13.16
557.139	13.25
557.337	13.34
557.535	13.44
557.732	13.54
557.93	13.61
558.128	13.68
558.325	13.83
558.523	13.93
558.721	14.05
558.918	14.14
559.116	14.23
559.313	14.36
559.511	14.53
559.708	14.58
559.906	14.67
560.104	14.75
560.301	14.85
560.498	14.94
560.696	14.99
560.893	15.06
561.091	15.17
561.288	15.27
561.486	15.37
561.683	15.49
561.88	15.6
562.078	15.73
562.275	15.84
562.473	15.9
562.67	15.95
562.867	16.06
563.064	16.17
563.262	16.29
563.459	16.38
563.656	16.48
563.853	16.6
564.051	16.7
564.248	16.81
564.445	16.93
564.642	17.03
564.839	17.18
565.036	17.33
565.234	17.49
565.431	17.63
565.628	17.77
565.825	17.88
566.022	17.95
566.219	17.98
566.416	18.07
566.613	18.17
566.81	18.26
567.007	18.33
567.204	18.42
567.401	18.51
567.598	18.59
567.795	18.65
567.991	18.68
568.188	18.75
568.385	18.86
568.582	18.94
568.779	19
568.976	19.18
569.172	19.28
569.369	19.35
569.566	19.43
569.763	19.49
569.96	19.56
570.156	19.6
570.353	19.61
570.55	19.68
570.746	19.79
570.943	19.86
571.14	19.92
571.336	19.96
571.533	20.07
571.729	20.15
571.926	20.18
572.123	20.2
572.319	20.25
572.516	20.3
572.712	20.35
572.909	20.43
573.105	20.48
573.302	20.51
573.498	20.59
573.695	20.62
573.891	20.65
574.087	20.7
574.284	20.7
574.48	20.69
574.677	20.75
574.873	20.72
575.069	20.81
575.266	20.81
575.462	20.81
575.658	20.82
575.854	20.9
576.051	20.93
576.247	20.97
576.443	20.99
576.639	21.02
576.835	21.09
577.032	21.08
577.228	21.06
577.424	21.07
577.62	21.07
577.816	21.06
578.012	21.06
578.208	21.03
578.404	21.09
578.6	21.13
578.796	21.09
578.993	21.07
579.189	21.1
579.384	21.06
579.58	21.09
579.776	21.03
579.972	21
580.168	21.02
580.364	21.04
580.56	21.04
580.756	21.09
580.952	21.05
581.148	21.08
581.343	21.07
581.539	21.06
581.735	21.06
581.931	21.06
582.127	21.06
582.322	21.1
582.518	21.1
582.714	21.07
582.909	21.08
583.105	21.09
583.301	21.03
583.496	21.05
583.692	21.05
583.888	21.07
584.083	21.11
584.279	21.13
584.474	21.09
584.67	21.15
584.866	21.13
585.061	21.11
585.257	21.09
585.452	21.1
585.648	21.07
585.843	21.12
586.039	21.07
586.234	21.05
586.429	21.02
586.625	21.01
586.82	20.96
587.015	20.94
587.211	20.97
587.406	20.97
587.601	20.96
587.797	20.98
587.992	20.98
588.187	21.07
588.383	21.12
588.578	21.09
588.773	21.12
588.968	21.21
589.163	21.27
589.359	21.29
589.554	21.28
589.749	21.3
589.944	21.34
590.139	21.37
590.334	21.33
590.529	21.39
590.724	21.43
590.919	21.51
591.114	21.5
591.309	21.54
591.504	21.58
591.699	21.66
591.894	21.73
592.089	21.76
592.284	21.82
592.479	21.89
592.674	21.9
592.869	21.95
593.064	22.03
593.259	21.98
593.454	22.06
593.648	22.07
593.843	22.13
594.038	22.22
594.233	22.29
594.428	22.36
594.622	22.43
594.817	22.48
595.012	22.62
595.206	22.72
595.401	22.79
595.596	22.9
595.79	22.95
595.985	23.09
596.18	23.21
596.374	23.28
596.569	23.32
596.763	23.47
596.958	23.5
597.153	23.59
597.347	23.63
597.542	23.73
597.736	23.77
597.931	23.83
598.125	23.85
598.319	23.95
598.514	23.96
598.708	24.04
598.903	24.1
599.097	24.15
599.291	24.26
599.486	24.35
599.68	24.39
599.874	24.54
600.069	24.55
600.263	24.54
600.457	24.59
600.651	24.64
600.846	24.63
601.04	24.67
601.234	24.7
601.428	24.75
601.622	24.77
601.817	24.82
602.011	24.84
602.205	24.9
602.399	24.92
602.593	24.86
602.787	24.88
602.981	24.92
603.175	24.94
603.369	24.94
603.563	24.98
603.757	25
603.951	25.07
604.145	25.06
604.339	25.08
604.533	25.04
604.727	25.05
604.921	24.99
605.115	24.93
605.309	24.95
605.502	24.98
605.696	24.92
605.89	24.95
606.084	24.86
606.278	24.86
606.471	24.83
606.665	24.73
606.859	24.66
607.053	24.62
607.246	24.53
607.44	24.53
607.634	24.49
607.827	24.42
608.021	24.39
608.214	24.38
608.408	24.31
608.602	24.28
608.795	24.19
608.989	24.1
609.182	24.11
609.376	24
609.569	23.93
609.763	23.91
609.956	23.8
610.15	23.77
610.343	23.72
610.537	23.63
610.73	23.62
610.923	23.51
611.117	23.41
611.31	23.39
611.504	23.33
611.697	23.23
611.89	23.1
612.083	23
612.277	22.9
612.47	22.83
612.663	22.77
612.856	22.67
613.05	22.61
613.243	22.57
613.436	22.49
613.629	22.43
613.822	22.37
614.015	22.24
614.209	22.18
614.402	22.1
614.595	22
614.788	21.92
614.981	21.86
615.174	21.81
615.367	21.77
615.56	21.72
615.753	21.65
615.946	21.67
616.139	21.68
616.332	21.64
616.525	21.56
616.718	21.52
616.911	21.46
617.103	21.38
617.296	21.27
617.489	21.21
617.682	21.16
617.875	21.11
618.067	21.04
618.26	20.97
618.453	20.92
618.646	20.89
618.838	20.79
619.031	20.72
619.224	20.73
619.417	20.7
619.609	20.64
619.802	20.65
619.994	20.58
620.187	20.57
620.38	20.51
620.572	20.45
620.765	20.37
620.957	20.33
621.15	20.26
621.342	20.31
621.535	20.26
621.727	20.23
621.92	20.18
622.112	20.24
622.305	20.2
622.497	20.18
622.69	20.11
622.882	20.11
623.074	20.11
623.267	20.1
623.459	20.05
623.651	20.08
623.844	20.11
624.036	20.09
624.228	20.09
624.42	20.07
624.613	20.03
624.805	20
624.997	20
625.189	19.94
625.381	19.91
625.574	19.84
625.766	19.82
625.958	19.76
626.15	19.78
626.342	19.76
626.534	19.73
626.726	19.7
626.918	19.71
627.11	19.68
627.302	19.68
627.494	19.62
627.686	19.56
627.878	19.54
628.07	19.51
628.262	19.44
628.454	19.42
628.646	19.39
628.838	19.3
629.029	19.19
629.221	19.18
629.413	19.14
629.605	19.06
629.797	19
629.989	18.98
630.18	18.91
630.372	18.95
630.564	18.88
630.755	18.82
630.947	18.83
631.139	18.75
631.33	18.73
631.522	18.76
631.714	18.74
631.905	18.71
632.097	18.71
632.289	18.62
632.48	18.61
632.672	18.54
632.863	18.51
633.055	18.49
633.246	18.49
633.438	18.49
633.629	18.57
633.821	18.53
634.012	18.54
634.203	18.55
634.395	18.53
634.586	18.49
634.777	18.43
634.969	18.31
635.16	18.3
635.351	18.26
635.543	18.24
635.734	18.2
635.925	18.21
636.117	18.24
636.308	18.27
636.499	18.26
636.69	18.31
636.881	18.33
637.073	18.29
637.264	18.25
637.455	18.24
637.646	18.24
637.837	18.24
638.028	18.28
638.219	18.26
638.41	18.25
638.601	18.27
638.792	18.26
638.983	18.19
639.174	18.22
639.365	18.07
639.556	17.97
639.747	18.04
639.938	18
640.129	17.97
640.32	17.93
640.511	17.91
640.701	17.91
640.892	17.89
641.083	17.79
641.274	17.74
641.465	17.71
641.655	17.76
641.846	17.69
642.037	17.73
642.228	17.72
642.418	17.67
642.609	17.67
642.8	17.67
642.99	17.68
643.181	17.66
643.372	17.6
643.562	17.57
643.753	17.59
643.943	17.56
644.134	17.55
644.324	17.5
644.515	17.52
644.705	17.48
644.896	17.47
645.086	17.42
645.277	17.43
645.467	17.45
645.658	17.44
645.848	17.4
646.038	17.38
646.229	17.41
646.419	17.45
646.61	17.32
646.8	17.27
646.99	17.22
647.18	17.21
647.371	17.22
647.561	17.18
647.751	17.09
647.941	17.11
648.132	17.09
648.322	17.11
648.512	17.1
648.702	17.07
648.892	17.04
649.082	17.06
649.272	17
649.462	16.94
649.653	16.87
649.843	16.81
650.033	16.74
650.223	16.71
650.413	16.7
650.603	16.72
650.793	16.68
650.983	16.65
651.172	16.61
651.362	16.6
651.552	16.5
651.742	16.41
651.932	16.42
652.122	16.41
652.312	16.37
652.502	16.32
652.691	16.25
652.881	16.26
653.071	16.17
653.261	16
653.45	15.88
653.64	15.82
653.83	15.72
654.019	15.56
654.209	15.41
654.399	15.35
654.588	15.25
654.778	15.14
654.968	14.99
655.157	14.85
655.347	14.75
655.536	14.58
655.726	14.41
655.915	14.27
656.105	14.13
656.294	14.02
656.484	13.93
656.673	13.8
656.863	13.7
657.052	13.56
657.241	13.43
657.431	13.3
657.62	13.05
657.809	12.85
657.999	12.76
658.188	12.62
658.377	12.48
658.567	12.31
658.756	12.14
658.945	12.02
659.134	11.88
659.324	11.67
659.513	11.54
659.702	11.38
659.891	11.2
660.08	11.05
660.269	10.98
660.458	10.83
660.648	10.65
660.837	10.47
661.026	10.36
661.215	10.23
661.404	10.08
661.593	9.89
661.782	9.76
661.971	9.7
662.16	9.55
662.349	9.39
662.538	9.27
662.726	9.14
662.915	9.02
663.104	8.82
663.293	8.68
663.482	8.55
663.671	8.45
663.86	8.4
664.048	8.28
664.237	8.16
664.426	8.16
664.615	8.01
664.803	7.96
664.992	7.93
665.181	7.83
665.369	7.77
665.558	7.69
665.747	7.69
665.935	7.67
666.124	7.64
666.312	7.54
666.501	7.48
666.69	7.44
666.878	7.36
667.067	7.26
667.255	7.26
667.444	7.23
667.632	7.19
667.82	7.12
668.009	7.11
668.197	7.12
668.386	7.09
668.574	7.01
668.762	6.96
668.951	6.99
669.139	7.01
669.327	7.01
669.516	7.01
669.704	7.06
669.892	7.08
670.08	7.07
670.269	7.02
670.457	7
670.645	7.01
670.833	7.02
671.021	6.96
671.21	7.02
671.398	7.04
671.586	7.06
671.774	7.11
671.962	7.1
672.15	7.1
672.338	7.15
672.526	7.12
672.714	7.15
672.902	7.16
673.09	7.24
673.278	7.24
673.466	7.33
673.654	7.35
673.842	7.46
674.03	7.57
674.218	7.69
674.405	7.73
674.593	7.83
674.781	7.82
674.969	7.89
675.157	7.83
675.344	7.87
675.532	7.91
675.72	7.93
675.908	7.96
676.095	8.07
676.283	8.12
676.471	8.25
676.658	8.33
676.846	8.41
677.033	8.49
677.221	8.63
677.409	8.69
677.596	8.81
677.784	8.86
677.971	8.93
678.159	8.95
678.346	9.03
678.534	9.12
678.721	9.24
678.909	9.3
679.096	9.42
679.283	9.48
679.471	9.65
679.658	9.76
679.846	9.83
680.033	9.9
680.22	9.96
680.408	10.08
680.595	10.13
680.782	10.13
680.969	10.21
681.157	10.29
681.344	10.47
681.531	10.61
681.718	10.78
681.905	10.99
682.093	11.28
682.28	11.49
682.467	11.63
682.654	11.73
682.841	11.91
683.028	12.05
683.215	12.26
683.402	12.3
683.589	12.46
683.776	12.71
683.963	12.9
684.15	13.15
684.337	13.34
684.524	13.48
684.711	13.71
684.898	13.92
685.085	14.15
685.271	14.42
685.458	14.64
685.645	14.84
685.832	15.19
686.019	15.51
686.205	15.78
686.392	16.12
686.579	16.38
686.766	16.72
686.952	17.24
687.139	17.49
687.326	17.94
687.512	18.41
687.699	18.77
687.886	19.19
688.072	19.63
688.259	19.94
688.445	20.35
688.632	20.8
688.818	21.16
689.005	21.72
689.191	22.25
689.378	22.72
689.564	23.22
689.751	23.94
689.937	24.44
690.124	25.01
690.31	25.44
690.496	26.02
690.683	26.65
690.869	27.28
691.055	27.85
691.242	28.3
691.428	28.85
691.614	29.56
691.8	30.15
691.987	30.69
692.173	31.38
692.359	31.94
692.545	32.74
692.731	33.44
692.918	34.12
693.104	34.73
693.29	35.5
693.476	36.06
693.662	36.75
693.848	37.28
694.034	37.83
694.22	38.38
694.406	39.08
694.592	39.61
694.778	40.16
694.964	40.84
695.15	41.53
695.336	42.36
695.522	43.04
695.708	43.63
695.894	44.3
696.08	44.98
696.265	45.48
696.451	46.34
696.637	46.94
696.823	47.54
697.009	48.15
697.194	48.79
697.38	49.39
697.566	49.96
697.751	50.26
697.937	50.73
698.123	51.38
698.308	51.86
698.494	52.28
698.68	52.78
698.865	53.42
699.051	53.97
699.236	54.53
699.422	54.86
699.607	55.26
699.793	55.75
699.978	56.15
700.164	56.66
700.349	57.07
700.535	57.53
700.72	58.07
700.906	58.65
701.091	59.12
701.276	59.82
701.462	60.16
701.647	60.47
701.832	60.82
702.018	61.21
702.203	61.48
702.388	61.71
702.573	61.96
702.759	62.32
702.944	62.83
703.129	63.18
703.314	63.56
703.499	63.99
703.684	64.36
703.87	64.61
704.055	64.86
704.24	65.1
704.425	65.54
704.61	65.61
704.795	65.75
704.98	66.02
705.165	66.24
705.35	66.45
705.535	66.94
705.72	67.1
705.905	67.35
706.09	67.62
706.275	67.85
706.459	68.14
706.644	68.45
706.829	68.65
707.014	68.86
707.199	68.91
707.384	69.21
707.568	69.43
707.753	69.73
707.938	69.9
708.123	69.84
708.307	70.25
708.492	70.59
708.677	70.87
708.861	71.11
709.046	71.11
709.231	71.26
709.415	71.48
709.6	71.39
709.784	71.68
709.969	71.91
710.153	72.22
710.338	72.42
710.522	72.39
710.707	72.19
710.891	72.48
711.076	72.63
711.26	72.68
711.445	72.49
711.629	72.63
711.813	72.91
711.998	73.37
712.182	73.28
712.366	73.41
712.551	73.55
712.735	73.81
712.919	73.9
713.103	74.11
713.288	74.29
713.472	74.29
713.656	74.18
713.84	74.4
714.024	74.69
714.208	74.92
714.393	75.19
714.577	75.29
714.761	75.84
714.945	76.19
715.129	76.15
715.313	76.07
715.497	76.24
715.681	76.24
715.865	76.21
716.049	76.12
716.233	76.43
716.417	76.64
716.601	76.9
716.785	76.94
716.968	76.84
717.152	77.04
717.336	77.03
717.52	76.77
717.704	76.91
717.888	76.84
718.071	76.83
718.255	76.82
718.439	76.79
718.622	77.14
718.806	77.04
718.99	77.09
719.174	77.02
719.357	77.13
719.541	77.57
719.724	77.7
719.908	77.64
720.092	77.8
720.275	77.93
720.459	78.08
720.642	78.28
720.826	78.29
721.009	78.2
721.193	78.16
721.376	78.28
721.559	78.24
721.743	78.48
721.926	78.32
722.11	78.28
722.293	78.16
722.476	77.95
722.66	78.23
722.843	78.38
723.026	78.36
723.21	78.33
723.393	78.34
723.576	78.64
723.759	79.08
723.942	79.16
724.126	79.05
724.309	79.24
724.492	79.33
724.675	79.39
724.858	79.87
725.041	79.69
725.224	79.75
725.407	79.52
725.59	79.55
725.774	79.68
725.957	79.95
726.14	79.95
726.322	79.99
726.505	80.1
726.688	80.64
726.871	80.65
727.054	80.86
727.237	80.62
727.42	80.61
727.603	80.88
727.786	80.93
727.968	80.95
728.151	81.16
728.334	81.52
728.517	82.01
728.699	82.24
728.882	82.44
729.065	82.1
729.248	81.92
729.43	81.49
729.613	81.32
729.796	80.93
729.978	80.89
730.161	81.24
730.343	81.76
730.526	82.24
730.708	83.08
730.891	83.1
731.073	83
731.256	83.01
731.438	83.3
731.621	83.67
731.803	83.61
731.986	83.48
732.168	83.76
732.35	84.29
732.533	84.31
732.715	83.68
732.898	83.42
733.08	83.79
733.262	83.73
733.444	83.61
733.627	83.67
733.809	83.66
733.991	83.88
734.173	83.68
734.355	83.46
734.538	83.45
734.72	83.85
734.902	83.95
735.084	84.13
735.266	83.78
735.448	84.2
735.63	84.22
735.812	84.43
735.994	84.12
736.176	84.33
736.358	84.52
736.54	84.73
736.722	84.58
736.904	84.56
737.086	84.46
737.268	84.48
737.45	84.45
737.632	84.23
737.814	84.48
737.995	84.46
738.177	84.75
738.359	85.03
738.541	85.16
738.723	85.19
738.904	85.32
739.086	85.69
739.268	86.16
739.449	86.11
739.631	86.11
739.813	85.87
739.994	86.15
740.176	86.12
740.358	85.51
740.539	85.61
740.721	85.05
740.902	84.8
741.084	85.46
741.265	85.23
741.447	85.13
741.628	85.38
741.81	85.42
741.991	86.26
742.172	86.23
742.354	85.93
742.535	85.69
742.717	85.78
742.898	86.17
743.079	85.85
743.261	85.81
743.442	86.33
743.623	86.26
743.804	86.9
743.986	86.83
744.167	86.1
744.348	86.38
744.529	85.73
744.71	84.93
744.891	85.02
745.073	84.39
745.254	84.82
745.435	85.13
745.616	84.82
745.797	85.24
745.978	86.56
746.159	86.61
746.34	86.64
746.521	86.53
746.702	86.29
746.883	86.74
747.064	86.9
747.245	86.86
747.426	87.11
747.606	87.29
747.787	87.73
747.968	88.28
748.149	88.19
748.33	88.34
748.51	86.93
748.691	87.05
748.872	86.63
749.053	86.05
749.233	85.72
749.414	85.52
749.595	84.38
749.775	84.91
749.956	84.32
750.137	84.07
750.317	84.02
750.498	84.62
750.678	84.34
750.859	84.94
751.04	85.1
751.22	84.64
751.4	85.58
751.581	85.61
751.761	85.81
751.942	86.47
752.122	86.63
752.303	86.57
752.483	87.95
752.663	88.03
752.844	87.75
753.024	87.04
753.204	86.09
753.385	86.07
753.565	85.49
753.745	84.42
753.925	83.54
754.106	83.8
754.286	84.19
754.466	84.08
754.646	83.8
754.826	84.16
755.006	83.9
755.187	84.58
755.367	84.21
755.547	84.26
755.727	84.61
755.907	85.06
756.087	85.35
756.267	85.5
756.447	85.12
756.627	84.71
756.807	84.71
756.987	84.78
757.167	84.56
757.346	83.81
757.526	84.36
757.706	84.88
757.886	85.24
758.066	84.42
758.246	84.45
758.425	84.35
758.605	84.5
758.785	84.28
758.965	82.92
759.144	83.5
759.324	84.41
759.504	84.7
759.683	84.03
759.863	84.21
760.043	83.88
760.222	84.35
760.402	84.52
760.581	83.65
760.761	83.4
760.94	83.84
761.12	83.71
761.299	82.82
761.479	83.7
761.658	83.29
761.838	83.02
762.017	82.6
762.197	83.33
762.376	83.15
762.555	84.33
762.735	83.41
762.914	83.58
763.093	83.39
763.273	83.32
763.452	82.45
763.631	82.49
763.81	83.44
763.99	84
764.169	84.36
764.348	85.6
764.527	85.66
764.706	85.75
764.885	86.17
765.064	85.04
765.243	84.36
765.423	84.22
765.602	83.28
765.781	82.83
765.96	82.78
766.139	82.02
766.318	82.38
766.497	82.16
766.676	81.93
766.854	81.74
767.033	82.14
767.212	81.49
767.391	82.05
767.57	81.02
767.749	81.46
767.928	80.74
768.106	81.18
768.285	81.82
768.464	82.71
768.643	82.91
768.821	83.68
769	84.45
769.179	84.17
769.357	83.91
769.536	82.39
769.715	81.03
769.893	80.18
770.072	79.27
770.25	78.48
770.429	79.32
770.607	79.37
770.786	80.95
770.964	81.57
771.143	82.01
771.321	81.78
771.5	81.33
771.678	81.07
771.857	80.79
772.035	79.18
772.213	79.34
772.392	80.03
772.57	80.76
772.748	80.75
772.927	80.27
773.105	80.66
773.283	79.76
773.461	80.04
773.64	78.54
773.818	77.79
773.996	77.97
774.174	77.57
774.352	76.85
774.531	77.33
774.709	77.86
774.887	77.61
775.065	78.42
775.243	78.53
775.421	79.29
775.599	78.42
775.777	80.28
775.955	79.07
776.133	78.82
776.311	78.68
776.489	77.88
776.667	78.29
776.844	79.39
777.022	77.4
777.2	77.76
777.378	80.18
777.556	81.02
777.734	81.8
777.911	81.86
778.089	80.99
778.267	82.53
778.445	81.77
778.622	79.68
778.8	78.63
778.978	78.64
779.155	76.73
779.333	76.22
779.511	74.76
779.688	74.33
779.866	74.71
780.043	74.5
780.221	74.88
780.398	76.47
780.576	76.32
780.753	77.07
780.931	78.57
781.108	78.1
781.286	78.27
781.463	77.65
781.64	76.86
781.818	77.29
781.995	78.92
782.172	77.99
782.35	78.14
782.527	78.32
782.704	78.51
782.882	79.18
783.059	79.06
783.236	77.52
783.413	79
783.59	77.88
783.768	76.77
783.945	76.73
784.122	75.65
784.299	76.66
784.476	76.91
784.653	75.41
784.83	76.61
785.007	77.54
785.184	77.12
785.361	77.41
785.538	78.44
785.715	77.9
785.892	77.56
786.069	78.41
786.246	77.44
786.423	80.6
786.6	81.21
786.776	79.48
786.953	78.87
787.13	79.98
787.307	78.86
787.484	79.13
787.66	75.73
787.837	75.72
788.014	75.85
788.191	75.44
788.367	74.08
788.544	75.55
788.721	75.42
788.897	76.69
789.074	75.75
789.25	76.99
789.427	76.93
789.603	78.51
789.78	78.68
789.956	77.73
790.133	77.67
790.309	77.27
790.486	79.19
790.662	81.35
790.839	81.93
791.015	80.32
791.192	82.1
791.368	82.5
791.544	84.56
791.721	80.75
791.897	79.01
792.073	77.77
792.249	79.4
792.426	79.06
792.602	78.06
792.778	74.75
792.954	75.56
793.13	78.67
793.307	75.6
793.483	72.86
793.659	73.51
793.835	72.79
794.011	73.53
794.187	70.93
794.363	70.78
794.539	74.12
794.715	74.02
794.891	72.21
795.067	71.77
795.243	70.95
795.419	74.12
795.595	70.62
795.771	69.53
795.947	69.82
796.122	70.75
796.298	71.28
796.474	72.9
796.65	72.26
796.826	73.86
797.001	74.92
797.177	74.86
797.353	74.46
797.529	73.95
797.704	75.69
797.88	73.56
798.056	74.77
798.231	74
798.407	74.46
798.582	75.66
798.758	77.4
798.934	76.41
799.109	76.08
799.285	75.5
799.46	74.44
799.636	75.48
799.811	75.39
799.986	75.59
800.162	74.42
800.337	75.72
800.513	72.06
800.688	73.1
800.863	73.74
801.039	70.78
801.214	68.42
801.389	68.44
801.565	70.53
801.74	73.42
801.915	74.4
802.09	72.9
802.265	75.85
802.441	77.69
802.616	78.03
802.791	76.63
802.966	75.29
803.141	73.4
803.316	72.62
803.491	70.97
803.666	70.02
803.841	69.09
804.016	67.87
804.191	66.74
804.366	66.49
804.541	65.19
804.716	59.59
804.891	62.47
805.066	65.38
805.241	64.5
805.416	65.72
805.591	71.09
805.765	73.76
805.94	79.48
806.115	74.36
806.29	73.39
806.464	73.98
806.639	76.45
806.814	70.18
806.989	67.05
807.163	68.63
807.338	66.95
807.512	62.82
807.687	64.32
807.862	60.35
808.036	60.45
808.211	63.81
808.385	59.52
808.56	65.21
808.734	66.74
808.909	66.42
809.083	66.19
809.258	72.42
809.432	67.87
809.606	71.82
809.781	68.93
809.955	70.38
810.13	74.42
810.304	78.05
810.478	74.87
810.652	80.65
810.827	78.31
811.001	78.67
811.175	75.61
811.349	70.75
811.524	67.8
811.698	65.98
811.872	64.51
812.046	65.42
812.22	65.59
812.394	67.83
812.568	68.36
812.742	68.16
812.916	68.84
813.09	64.2
813.264	62.95
813.438	66.77
813.612	62.8
813.786	67.97
813.96	70.14
814.134	70.61
814.308	70.24
814.482	73.01
814.656	70.6
814.83	74.87
815.003	74.02
815.177	76.01
815.351	77.51
815.525	78.83
815.698	77.5
815.872	74.89
816.046	73.31
816.219	74.22
816.393	72.06
816.567	64.93
816.74	67.28
816.914	68.52
817.088	66.97
817.261	68.19
817.435	64.07
817.608	64.37
817.782	74.22
817.955	73.34
818.129	73.19
818.302	78.35
818.475	77.31
818.649	74.4
818.822	77.16
818.996	76.01
819.169	75.65
819.342	72.76
819.516	74.37
819.689	76.49
819.862	77.78
820.035	73.74
820.209	68.92
820.382	71.54
820.555	72.93
820.728	66.66
820.901	62.31
821.075	63.49
821.248	63.45
821.421	62.69
821.594	58.93
821.767	58.23
821.94	54.41
822.113	54.14
822.286	51.08
822.459	49.2
822.632	48.65
822.805	51.51
822.978	49.95
823.151	55.24
823.324	53.75
823.496	52.13
823.669	55.7
823.842	54.35
824.015	53.94
824.188	55.24
824.361	52.18
824.533	60.74
824.706	65.2
824.879	66.88
825.051	73.95
825.224	69.47
825.397	68.61
825.569	74.3
825.742	69.01
825.915	67.42
826.087	57.53
826.26	52.81
826.432	58.02
826.605	59.15
826.777	59.49
826.95	54.44
827.122	54.28
827.295	60.15
827.467	52.46
827.64	44.03
827.812	41.1
827.984	37.98
828.157	43.1
828.329	40.17
828.501	41.78
828.674	49.68
828.846	46.12
829.018	45.52
829.19	42.14
829.363	41.81
829.535	46.77
829.707	47.26
829.879	49.13
830.051	59.08
830.223	54.83
830.395	58.14
830.568	66.04
830.74	60.19
830.912	60.53
831.084	50.61
831.256	48.36
831.428	54.93
831.6	58.56
831.772	51.37
831.943	54.2
832.115	50.67
832.287	54.68
832.459	55.5
832.631	43.53
832.803	49.06
832.975	57.2
833.146	52.63
833.318	57.74
833.49	65.12
833.662	63.26
833.833	67.96
834.005	64.04
834.177	58.69
834.348	61.47
834.52	61.37
834.692	63.21
834.863	58.81
835.035	57.86
835.206	46.23
835.378	36.26
835.549	37.91
835.721	40.69
835.892	38.2
836.064	46.62
836.235	54.65
836.407	52.7
836.578	61.06
836.749	62.61
836.921	58.01
837.092	59.44
837.264	48.67
837.435	29.8
837.606	44.48
837.777	38.89
837.949	30.98
838.12	35.93
838.291	37.76
838.462	49.76
838.633	64.16
838.805	56.28
838.976	59.19
839.147	60.86
839.318	43.31
839.489	34.63
839.66	32.9
839.831	24.15
840.002	15.46
840.173	6.73
840.344	13
840.515	34.73
840.686	38.18
840.857	27.63
841.028	38.27
841.199	42.55
841.369	46.13
841.54	43.71
841.711	45.99
841.882	42.26
842.053	49.36
842.223	41.59
842.394	43.03
842.565	46.54
842.736	36.03
842.906	18.83
843.077	37.95
843.248	36.8
843.418	40.76
843.589	41.22
843.759	36.87
843.93	54.11
844.101	61.83
844.271	52.91
844.442	53.7
844.612	52.97
844.783	42.66
844.953	37.61
845.123	34.92
845.294	24.38
845.464	50.06
845.635	48.11
845.805	50.2
845.975	49.95
846.146	39.6
846.316	43.09
846.486	55.36
846.656	50.44
846.827	54.6
846.997	68.26
847.167	75.8
847.337	96.92
847.507	92.22
847.677	93.52
847.848	87.19
848.018	87.35
848.188	65.44
848.358	78.31
848.528	66.42
848.698	44.6
848.868	42.06
849.038	56.06
849.208	57.82
849.378	61.67
849.548	54.44
849.718	53.63
849.887	68.84
850.057	65.46
850.227	55.4
850.397	37.65
850.567	45.1
850.737	37
850.906	37.19
851.076	16.91
851.246	17.94
851.415	25.69
851.585	28.24
851.755	31.32
851.924	47.81
852.094	42.17
852.264	56.64
852.433	61.74
852.603	63.75
852.772	73.87
852.942	60.16
853.111	60.79
853.281	56.29
853.45	59.6
853.62	56.69
853.789	53.16
853.959	45.25
854.128	40.14
854.297	23.54
854.467	31.42
854.636	19.11
854.805	22.6
854.975	20.36
855.144	32.89
855.313	36.49
855.482	45.95
855.652	44.98
855.821	51.5
855.99	45.65
856.159	42.76
856.328	38.32
856.497	43.36
856.667	41.77
856.836	35.73
857.005	36.68
857.174	41.9
857.343	43.51
857.512	34.94
857.681	19.49
857.85	15.47
858.019	20.05
858.188	22.05
858.356	13.04
858.525	24.25
858.694	38.73
858.863	44.71
859.032	39.45
859.201	27.59
859.369	17.28
859.538	9.75
859.707	1.82
859.876	1.29
860.044	-4.96
860.213	-8.87
860.382	10.32
860.55	20.88
860.719	48.73
860.888	43.94
861.056	54.24
861.225	66.59
861.393	58.02
861.562	56.64
861.73	44.63
861.899	15.51
862.067	27.48
862.236	29.71
862.404	32.93
862.572	41.16
862.741	33.92
862.909	35.06
863.078	42.61
863.246	47.2
863.414	47.1
863.582	41.01
863.751	32.59
863.919	40.37
864.087	29.07
864.255	23.37
864.424	30.88
864.592	24.75
864.76	44.12
864.928	47.4
865.096	49.63
865.264	67.02
865.432	73.46
865.6	52.39
865.768	38.01
865.936	26.99
866.104	31.93
866.272	43.33
866.44	1.13
866.608	-2.06
866.776	35.54
866.944	37.29
867.112	8.89
867.28	-21.42
867.448	0.95
867.615	35.42
867.783	25.43
867.951	2.22
868.119	31.11
868.286	35.63
868.454	45.76
868.622	30.59
868.789	23.27
868.957	34.55
869.125	43.33
869.292	56.42
869.46	51.7
869.627	51.97
869.795	52.66
869.963	49.18
870.13	50
870.298	45.61
870.465	-3.59
870.632	6.62
870.8	16.61
870.967	27.3
871.135	39.08
871.302	29.56
871.469	18.82
871.637	23.22
871.804	28.09
871.971	28.29
872.139	25.65
872.306	17.55
872.473	12.54
872.64	27.37
872.807	37.72
872.975	54.69
873.142	25.64
873.309	14.85
873.476	-27.83
873.643	-5.84
873.81	16.52
873.977	-21.92
874.144	-64.09
874.311	-36.65
874.478	-39.68
874.645	12.54
874.812	60.41
874.979	25.17
875.146	12.76
875.313	-1.67
875.48	68.28
875.647	20.3
875.813	-16.24
875.98	-56.46
876.147	17.51
876.314	44.62
876.481	25.35
876.647	17.83
876.814	28.64
876.981	28.81
877.147	14.34
877.314	0.05
877.481	9.4
877.647	17.64
877.814	-3.2
877.98	2.89
878.147	-9.17
878.314	-3.19
878.48	8.34
878.647	20.98
878.813	21.71
878.979	34.22
879.146	35.82
879.312	55.85
879.479	62.43
879.645	58.18
879.811	39.18
879.978	64.98
880.144	71
880.31	44.39
880.477	5.68
880.643	-10.3
880.809	42.08
880.975	30.21
881.142	10.08
881.308	45.14
881.474	104.72
881.64	125.74
881.806	88.42
881.972	93.38
882.138	113.78
882.304	103.24
882.47	46.14
882.636	-20.48
882.802	-81.65
882.968	-189.14
883.134	-376.99
883.3	-157.37
883.466	-25.93
883.632	-29.22
883.798	-4.88
883.964	27.2
884.129	33.13
884.295	45.82
884.461	33.12
884.627	-1.32
884.793	-2
884.958	14.38
885.124	-31.73
885.29	-1.17
885.455	-5.94
885.621	3.59
885.787	-3.53
885.952	8.97
886.118	7.37
886.283	21
886.449	-8.74
886.614	-6.94
886.78	0.25
886.945	-4.26
887.111	-11.02
887.276	-35.96
887.442	-27.15
887.607	-20.75
887.773	-26.07
887.938	-32.17
888.103	-3.3
888.269	0.22
888.434	6.17
888.599	13.07
888.764	13.07
888.93	18.35
889.095	-9.1
889.26	11.77
889.425	14.48
889.59	12.98
889.756	30.29
889.921	16.04
890.086	14
890.251	20
890.416	-24.48
890.581	-44.19
890.746	-48.9
890.911	-142.2
891.076	-179.42
891.241	-213.88
891.406	-69.6
891.571	-37.57
891.736	-5.41
891.901	35.02
892.065	74.31
892.23	73.21
892.395	54.08
892.56	45.17
892.725	30.51
892.889	5.46
893.054	-34.54
893.219	-63.06
893.384	-78.4
893.548	-190
893.713	330.69
893.878	151.09
