Data from Ofra_2a_PS_4HS13_Reflection_2.txt Node
Date: Tue Jul 20 09:50:22 EDT 2021
User: Adam
Spectrometer: FLMT01687
Trigger mode: 0
Integration Time (sec): 9.450000E-1
Scans to average: 3
Electric dark correction enabled: true
Nonlinearity correction enabled: false
Boxcar width: 3
XAxis mode: Wavelengths
Number of Pixels in Spectrum: 3648
>>>>>Begin Spectral Data<<<<<
179.494	868.05
179.716	558.27
179.937	654.95
180.158	2721.09
180.38	-894.77
180.601	-142.19
180.823	-80.96
181.044	-34.06
181.265	-15.07
181.486	59.93
181.708	736.96
181.929	-131.86
182.15	-467.05
182.372	25.45
182.593	110.45
182.814	-87.13
183.035	-52.69
183.257	-17.63
183.478	-13.62
183.699	3.66
183.92	15.64
184.141	33.9
184.363	32.99
184.584	32.77
184.805	28.29
185.026	29.82
185.247	-1.93
185.468	-6.88
185.689	-12.1
185.91	-13.91
186.132	-13.28
186.353	-12.7
186.574	-5.58
186.795	-29.48
187.016	-22.95
187.237	-24.22
187.458	-30.99
187.679	-35.29
187.9	-22.74
188.121	-29.15
188.342	7.68
188.563	5.63
188.784	7.54
189.005	16.31
189.226	10.78
189.447	2.22
189.667	17.64
189.888	36.63
190.109	36.68
190.33	23.91
190.551	21.93
190.772	17.62
190.993	24.51
191.214	13.75
191.434	-1.47
191.655	11.33
191.876	25.36
192.097	29.46
192.318	27.5
192.538	23.29
192.759	29.37
192.98	15.55
193.201	18
193.421	17.78
193.642	12.04
193.863	6.94
194.083	4.29
194.304	-8.23
194.525	18.07
194.745	-2.76
194.966	7.81
195.187	5.85
195.407	6.13
195.628	10.34
195.848	8.73
196.069	3.86
196.29	4.01
196.51	-11.47
196.731	0.2
196.951	14.39
197.172	12.91
197.392	34.12
197.613	38.81
197.833	30.16
198.054	28.41
198.274	1.43
198.495	-12
198.715	-25.62
198.936	-62
199.156	-56.07
199.377	-35.23
199.597	-37.44
199.817	-13.17
200.038	0.31
200.258	15.55
200.479	31.58
200.699	25.67
200.919	9.05
201.14	11.54
201.36	19.54
201.58	14.32
201.801	2.81
202.021	1.39
202.241	2.43
202.461	15.91
202.682	20.27
202.902	23.12
203.122	26
203.342	28.61
203.563	30.91
203.783	35.12
204.003	26.7
204.223	27.68
204.443	21.93
204.663	22.85
204.884	17.45
205.104	2.35
205.324	22.09
205.544	26.27
205.764	19.29
205.984	7.64
206.204	-1.63
206.424	14.86
206.644	20.03
206.864	-4.52
207.084	13.6
207.304	4.45
207.525	9.3
207.745	12.61
207.964	4.08
208.184	-1.24
208.404	9.36
208.624	-25.93
208.844	-24.68
209.064	-3.16
209.284	2.55
209.504	-2.9
209.724	-24.98
209.944	-34.49
210.164	3
210.384	17.16
210.604	-10.28
210.823	-19.69
211.043	-21.26
211.263	10.57
211.483	19.29
211.703	10.84
211.922	8.21
212.142	13.22
212.362	21.55
212.582	28.25
212.801	15.47
213.021	0.27
213.241	-11.63
213.461	-9.69
213.68	-7.13
213.9	-11.85
214.12	-13.53
214.339	-3.96
214.559	13.28
214.779	18.47
214.998	13.54
215.218	14.24
215.438	32.55
215.657	30.81
215.877	25.53
216.096	26.12
216.316	22.66
216.535	22.02
216.755	13.99
216.974	-5.97
217.194	-9.35
217.413	10.25
217.633	1.2
217.852	-8.02
218.072	-24.94
218.291	-3.97
218.511	-2.87
218.73	-9.82
218.95	-18.54
219.169	-18.5
219.389	-7.23
219.608	10.81
219.827	8.52
220.047	7.88
220.266	24.33
220.485	27.88
220.705	20.73
220.924	22.14
221.143	16.15
221.363	5.02
221.582	9.96
221.801	12.68
222.021	8.15
222.24	2.87
222.459	-12.65
222.678	-23.64
222.897	-22.88
223.117	-12.31
223.336	-14.67
223.555	-28.77
223.774	-23.38
223.993	16.12
224.213	9.35
224.432	37.88
224.651	26.42
224.87	17.64
225.089	40.58
225.308	41.86
225.527	39.96
225.746	43.64
225.965	15.94
226.184	7.57
226.404	-15.32
226.623	-27.83
226.842	-23.17
227.061	-24.37
227.28	-3.31
227.499	16.45
227.718	18.37
227.936	27.21
228.155	30.28
228.374	28.63
228.593	20.79
228.812	10.32
229.031	9.24
229.25	17.67
229.469	26.08
229.688	19.39
229.907	15.17
230.125	17.34
230.344	20.67
230.563	18.05
230.782	9
231.001	11.54
231.22	2.91
231.438	15.54
231.657	23.57
231.876	22.5
232.095	28.85
232.313	35.44
232.532	38.15
232.751	48.31
232.969	46.88
233.188	35.41
233.407	41.06
233.625	33.49
233.844	38.44
234.063	24.59
234.281	24.11
234.5	28.38
234.719	28.67
234.937	33.3
235.156	34.06
235.374	28.91
235.593	29.52
235.811	20.31
236.03	14.51
236.249	15.99
236.467	2.29
236.686	1.25
236.904	-1.9
237.123	7.61
237.341	10.45
237.559	7.14
237.778	19.16
237.996	27.9
238.215	24.24
238.433	30.71
238.652	19.05
238.87	17.82
239.088	11.52
239.307	7.7
239.525	-2.33
239.743	-7.67
239.962	-13.65
240.18	2.41
240.398	9.33
240.617	19.02
240.835	11
241.053	25.37
241.271	35.56
241.49	32.46
241.708	24.78
241.926	14.8
242.144	16.08
242.363	19.1
242.581	12.36
242.799	5.28
243.017	10.78
243.235	8.97
243.453	15.48
243.672	8.13
243.89	8.41
244.108	8.91
244.326	5.3
244.544	3.93
244.762	8.93
244.98	11.46
245.198	13.53
245.416	19.92
245.634	36.42
245.852	38.68
246.07	35.09
246.288	30.75
246.506	36.8
246.724	51.63
246.942	45.63
247.16	30.16
247.378	24.69
247.596	29.68
247.814	24.36
248.032	16.48
248.25	-8.49
248.468	0.05
248.685	-0.9
248.903	-7.23
249.121	-13.84
249.339	-0.53
249.557	1.21
249.775	-11.76
249.992	-19.77
250.21	-28.83
250.428	-26.1
250.646	-20.93
250.863	-28.11
251.081	-23.73
251.299	14.06
251.517	20.97
251.734	21.95
251.952	29.55
252.17	12
252.387	18.09
252.605	16.26
252.823	0.44
253.04	-1.98
253.258	4.22
253.475	4
253.693	24.1
253.911	28.57
254.128	12.17
254.346	2.7
254.563	-2.97
254.781	-1.88
254.998	-0.45
255.216	-4.82
255.433	-10.16
255.651	-5.64
255.868	0.8
256.086	6.37
256.303	5.98
256.521	-6.09
256.738	-8.67
256.956	-13.87
257.173	-2.18
257.39	11.3
257.608	10.44
257.825	6.62
258.043	20.74
258.26	22.22
258.477	28.8
258.695	37.12
258.912	35.04
259.129	36.17
259.346	36.67
259.564	29.98
259.781	37.53
259.998	32.19
260.216	25.1
260.433	22.09
260.65	29.14
260.867	16.85
261.084	25.27
261.302	4.28
261.519	-4.39
261.736	-12.28
261.953	-12.99
262.17	-8.7
262.387	-4.04
262.604	-24.64
262.822	-21.95
263.039	-13.54
263.256	-13.13
263.473	-18.7
263.69	-25.18
263.907	-14.14
264.124	-9.39
264.341	-4.7
264.558	3.96
264.775	9.1
264.992	15.3
265.209	20.9
265.426	15.57
265.643	19.62
265.86	24.7
266.077	21.5
266.294	24.02
266.51	24.8
266.727	9.46
266.944	5.98
267.161	7.76
267.378	0.79
267.595	-12.15
267.812	-17.1
268.028	-13.38
268.245	-7.68
268.462	-3.78
268.679	-10.52
268.896	-8.92
269.112	6.82
269.329	14.15
269.546	12.39
269.763	17.02
269.979	12.96
270.196	20.2
270.413	17.03
270.629	10.71
270.846	4.43
271.063	6.7
271.279	1.78
271.496	-2.42
271.712	-5.93
271.929	-3.1
272.146	-4.89
272.362	-9.23
272.579	-9.99
272.795	-4.16
273.012	6.24
273.228	-4.75
273.445	1.27
273.661	3.86
273.878	7.23
274.094	8.73
274.311	8.71
274.527	4.84
274.744	15.15
274.96	14.62
275.177	21.1
275.393	28.8
275.609	27.6
275.826	24.42
276.042	33.8
276.259	27.89
276.475	16.94
276.691	20.78
276.908	16.77
277.124	11.57
277.34	13.3
277.557	11.73
277.773	14.42
277.989	23.76
278.205	5.73
278.422	5.67
278.638	12.47
278.854	16.01
279.07	10.61
279.286	13.67
279.503	12.78
279.719	31.06
279.935	28.79
280.151	26.95
280.367	22.25
280.583	20.64
280.799	21.76
281.016	20.09
281.232	15.8
281.448	7.79
281.664	-2.26
281.88	7.53
282.096	13.17
282.312	4.18
282.528	4.22
282.744	-4.57
282.96	9.24
283.176	16.79
283.392	12.65
283.608	6.91
283.824	7.47
284.04	9.9
284.256	14.98
284.471	20.61
284.687	21.24
284.903	17.32
285.119	13.85
285.335	17.49
285.551	25.19
285.767	21.9
285.982	12.15
286.198	6.74
286.414	20.75
286.63	33.03
286.846	23.2
287.061	20.65
287.277	25.65
287.493	28.47
287.709	32.63
287.924	25.65
288.14	26.18
288.356	37.01
288.571	38.17
288.787	43.92
289.003	45.57
289.218	39.85
289.434	38.66
289.65	37.91
289.865	41.85
290.081	37.37
290.296	26.72
290.512	20.43
290.727	37.65
290.943	37.94
291.159	24.15
291.374	16.05
291.59	15.16
291.805	13.19
292.021	-5.14
292.236	-12.45
292.451	-11.25
292.667	2.69
292.882	1.45
293.098	-7.38
293.313	-6.55
293.529	10.85
293.744	0.55
293.959	1.66
294.175	-5.8
294.39	-0.89
294.605	11.52
294.821	7.76
295.036	2
295.251	7.89
295.467	7.16
295.682	9.8
295.897	10.38
296.112	6.41
296.328	14.21
296.543	18.94
296.758	11.22
296.973	18.8
297.188	20.92
297.404	16.28
297.619	21.68
297.834	23.13
298.049	18.78
298.264	22.45
298.479	10.81
298.694	15.61
298.909	5.47
299.125	6.3
299.34	-2.47
299.555	6.73
299.77	7.32
299.985	7.14
300.2	2.09
300.415	14.4
300.63	13.16
300.845	23.12
301.06	22.15
301.275	24.57
301.49	26.7
301.704	24.26
301.919	14.69
302.134	8.32
302.349	-1
302.564	-16.95
302.779	-15.89
302.994	-19.94
303.209	-28.62
303.423	-14.8
303.638	-10.9
303.853	-9.37
304.068	6.76
304.283	3.38
304.497	13.61
304.712	23.37
304.927	16.48
305.142	12.9
305.356	13.53
305.571	14.92
305.786	11.63
306	8.87
306.215	10.52
306.43	21.77
306.644	24.88
306.859	23.05
307.074	17.74
307.288	22.46
307.503	21.92
307.717	16.72
307.932	12
308.147	13.49
308.361	14.73
308.576	15.38
308.79	10.73
309.005	10.3
309.219	10.76
309.434	6.25
309.648	-0.81
309.863	1.46
310.077	-6.1
310.292	-6.61
310.506	4.89
310.72	-4.98
310.935	3.24
311.149	8.83
311.364	18.2
311.578	19.69
311.792	22.82
312.007	10.38
312.221	23.05
312.435	21.19
312.649	-4.05
312.864	-23.47
313.078	-22.48
313.292	-11.76
313.507	4.32
313.721	0.17
313.935	10.49
314.149	46.86
314.363	49.79
314.578	78.15
314.792	67.3
315.006	64.01
315.22	59.19
315.434	51.68
315.648	35.01
315.862	30.01
316.077	12.85
316.291	14.28
316.505	12.07
316.719	2.79
316.933	7.67
317.147	11.02
317.361	23.32
317.575	18.67
317.789	23.8
318.003	25.84
318.217	34.64
318.431	30.98
318.645	33.22
318.859	17.91
319.073	16.53
319.287	18.74
319.5	11.17
319.714	8.41
319.928	14.49
320.142	14.65
320.356	26.87
320.57	22.93
320.784	17.2
320.997	25.47
321.211	21.96
321.425	7.18
321.639	7.49
321.853	-2.63
322.066	2.25
322.28	3.21
322.494	-3.69
322.707	0.1
322.921	5.82
323.135	5.59
323.349	11.37
323.562	8.98
323.776	9.95
323.989	16.58
324.203	18.61
324.417	20.28
324.63	19.08
324.844	14.68
325.057	17.75
325.271	4.91
325.485	-0.65
325.698	0.3
325.912	9.6
326.125	9.86
326.339	16.62
326.552	21.78
326.766	33.37
326.979	33.87
327.193	28.52
327.406	33.64
327.619	22.35
327.833	12.46
328.046	8.38
328.26	5.35
328.473	2.38
328.686	6.98
328.9	-7.68
329.113	1.5
329.326	15.94
329.54	0.99
329.753	-0.12
329.966	4.02
330.179	1.52
330.393	8.41
330.606	16.3
330.819	16.34
331.032	29.07
331.246	31.84
331.459	31.81
331.672	45.18
331.885	33.66
332.098	27.76
332.311	6.94
332.525	10.22
332.738	7.46
332.951	9.89
333.164	-9.87
333.377	-19.75
333.59	-12.69
333.803	11.67
334.016	-7.12
334.229	10.64
334.442	22.44
334.655	47.31
334.868	58.65
335.081	54.32
335.294	47.29
335.507	54.37
335.72	38.46
335.933	29.18
336.146	22.33
336.359	17.65
336.572	13.27
336.785	17.1
336.997	11.86
337.21	20.96
337.423	23.02
337.636	20.33
337.849	17.45
338.062	20.28
338.274	14.18
338.487	16.14
338.7	13.9
338.913	7.01
339.125	6.92
339.338	17.92
339.551	26.16
339.763	21.86
339.976	21.71
340.189	22.43
340.402	18.81
340.614	20.41
340.827	6.91
341.039	3.63
341.252	7.69
341.465	-2.31
341.677	-11.65
341.89	-3.13
342.102	-4.09
342.315	8.7
342.527	-2.66
342.74	-3.6
342.952	-0.68
343.165	9.91
343.377	9.85
343.59	10.64
343.802	4.94
344.015	13.16
344.227	16.92
344.44	20.28
344.652	19.64
344.864	17.39
345.077	19.43
345.289	16.28
345.502	17.06
345.714	4.2
345.926	1
346.139	0.36
346.351	-21.19
346.563	-21.3
346.775	-12.3
346.988	-13.79
347.2	-4.32
347.412	-4.27
347.624	-3.48
347.837	10.49
348.049	6.33
348.261	1.74
348.473	-1.95
348.685	-0.57
348.897	2.92
349.11	1.42
349.322	0.6
349.534	-2.6
349.746	9.17
349.958	11.76
350.17	12.53
350.382	7.98
350.594	5.75
350.806	11.79
351.018	17.54
351.23	12.96
351.442	9.19
351.654	15.13
351.866	22.79
352.078	20.11
352.29	21.82
352.502	25.89
352.714	21.78
352.926	32.63
353.138	21.36
353.35	14.61
353.561	17.56
353.773	12.8
353.985	16.36
354.197	13.25
354.409	5.72
354.621	7.61
354.832	6.46
355.044	10.21
355.256	-0.1
355.468	-7.94
355.679	-0.91
355.891	8.06
356.103	5.68
356.314	4.97
356.526	-5.24
356.738	-1.8
356.949	-6.45
357.161	-12.51
357.373	-17.86
357.584	-8.94
357.796	-13.06
358.008	-3.99
358.219	8.26
358.431	18.87
358.642	22.79
358.854	22.68
359.065	13.86
359.277	9.87
359.488	5.68
359.7	1.99
359.911	-5.14
360.123	2.63
360.334	-0.47
360.546	0.3
360.757	9.76
360.969	15.27
361.18	11.69
361.391	7.54
361.603	4.14
361.814	-1.39
362.025	-0.85
362.237	-1.26
362.448	5.93
362.659	-3.38
362.871	3.95
363.082	1.03
363.293	13.22
363.504	17.99
363.716	19
363.927	11.31
364.138	18.33
364.349	17.11
364.56	16.95
364.772	8.04
364.983	1.07
365.194	-1.35
365.405	-1.77
365.616	-9.66
365.827	-12.51
366.038	0.71
366.25	11.19
366.461	17.58
366.672	16.88
366.883	17.57
367.094	11.68
367.305	14.45
367.516	3.5
367.727	1.55
367.938	-2.13
368.149	-3.9
368.36	-7.99
368.571	5.77
368.781	1.03
368.992	1.66
369.203	-4.24
369.414	-9.62
369.625	-9.83
369.836	-8.87
370.047	-14.9
370.258	-14.08
370.468	-11.67
370.679	-9.09
370.89	-2.35
371.101	1.51
371.312	-0.44
371.522	2.06
371.733	-6.45
371.944	-1.71
372.155	-9.64
372.365	-11.98
372.576	-14.31
372.787	-10.06
372.997	-13.15
373.208	-0.88
373.419	-5.25
373.629	7.1
373.84	5.29
374.05	7.08
374.261	3.75
374.472	8.71
374.682	6.21
374.893	8.69
375.103	9.84
375.314	12.22
375.524	16.82
375.735	20.33
375.945	19.65
376.156	18.86
376.366	18.58
376.577	16.56
376.787	24.06
376.997	23.13
377.208	19.36
377.418	14.68
377.629	17.48
377.839	21.32
378.049	27.25
378.26	25.85
378.47	26.42
378.68	29.03
378.89	26.95
379.101	14.05
379.311	4.52
379.521	0.64
379.732	-6.41
379.942	-10.5
380.152	-5.37
380.362	2.98
380.572	11.48
380.783	12.78
380.993	12
381.203	8.77
381.413	16.96
381.623	19.18
381.833	16.2
382.043	13.9
382.253	19.56
382.463	22.78
382.674	27.17
382.884	18.18
383.094	16.77
383.304	15.79
383.514	21.94
383.724	13.07
383.934	11.69
384.144	13.04
384.353	10.63
384.563	2.81
384.773	5.86
384.983	1.91
385.193	7.6
385.403	7.55
385.613	3.93
385.823	8.37
386.033	11.18
386.242	9.11
386.452	7.66
386.662	3.85
386.872	-0.22
387.082	-1.47
387.291	-1.12
387.501	3.49
387.711	2.9
387.921	0.76
388.13	0.09
388.34	2.01
388.55	3.79
388.759	0.06
388.969	-4.02
389.179	-2.24
389.388	1.96
389.598	2.51
389.807	3.74
390.017	4.77
390.227	4.69
390.436	5.62
390.646	5.78
390.855	3.36
391.065	4.16
391.274	2.4
391.484	1.73
391.693	2.12
391.903	2.14
392.112	2.68
392.322	4.73
392.531	4.79
392.74	4.53
392.95	4.45
393.159	6.28
393.369	5.59
393.578	5.08
393.787	5.22
393.997	5.42
394.206	5.75
394.415	6.12
394.625	4.21
394.834	3.97
395.043	3.82
395.252	3.14
395.462	3.11
395.671	3.64
395.88	3.31
396.089	3.62
396.298	4.4
396.508	4.29
396.717	4.32
396.926	3.89
397.135	3.27
397.344	2.91
397.553	3
397.762	2.69
397.971	2.67
398.181	2.26
398.39	2.76
398.599	2.85
398.808	3.26
399.017	3.46
399.226	3.62
399.435	3.73
399.644	3.87
399.853	3.46
400.062	3.39
400.27	3.26
400.479	3.12
400.688	3.07
400.897	3.23
401.106	3.29
401.315	3.2
401.524	3.38
401.733	3.57
401.941	3.54
402.15	3.34
402.359	3.15
402.568	3.31
402.777	3.25
402.985	3.11
403.194	2.89
403.403	2.68
403.612	2.77
403.82	2.81
404.029	2.58
404.238	2.7
404.446	2.62
404.655	2.55
404.864	2.61
405.072	2.55
405.281	2.41
405.489	2.37
405.698	2.28
405.906	2.28
406.115	2.44
406.324	2.46
406.532	2.46
406.741	2.47
406.949	2.52
407.158	2.62
407.366	2.71
407.574	2.67
407.783	2.64
407.991	2.59
408.2	2.54
408.408	2.52
408.617	2.44
408.825	2.45
409.033	2.36
409.242	2.34
409.45	2.37
409.658	2.41
409.867	2.44
410.075	2.43
410.283	2.34
410.491	2.38
410.7	2.4
410.908	2.37
411.116	2.32
411.324	2.35
411.533	2.25
411.741	2.26
411.949	2.31
412.157	2.39
412.365	2.45
412.573	2.51
412.781	2.46
412.99	2.61
413.198	2.62
413.406	2.56
413.614	2.5
413.822	2.39
414.03	2.31
414.238	2.42
414.446	2.32
414.654	2.3
414.862	2.22
415.07	2.21
415.278	2.2
415.486	2.26
415.694	2.02
415.902	1.97
416.109	1.95
416.317	1.95
416.525	1.98
416.733	2.09
416.941	2.06
417.149	2.2
417.357	2.26
417.564	2.23
417.772	2.28
417.98	2.23
418.188	2.06
418.395	2.05
418.603	1.9
418.811	1.86
419.019	1.91
419.226	1.93
419.434	1.85
419.642	1.89
419.849	1.93
420.057	2.03
420.265	2.08
420.472	2.02
420.68	1.91
420.887	2.02
421.095	2.04
421.302	2.06
421.51	2.05
421.717	2.09
421.925	2.04
422.132	2.01
422.34	1.97
422.547	1.95
422.755	1.83
422.962	1.73
423.17	1.67
423.377	1.82
423.585	1.83
423.792	1.8
423.999	1.77
424.207	1.72
424.414	1.83
424.621	1.91
424.829	1.75
425.036	1.68
425.243	1.65
425.451	1.78
425.658	1.94
425.865	1.91
426.072	1.82
426.28	1.84
426.487	1.95
426.694	1.98
426.901	1.84
427.108	1.84
427.315	1.82
427.523	1.86
427.73	1.98
427.937	1.94
428.144	1.92
428.351	1.99
428.558	1.87
428.765	1.87
428.972	1.8
429.179	1.7
429.386	1.78
429.593	1.77
429.8	1.83
430.007	1.89
430.214	1.89
430.421	1.9
430.628	1.81
430.835	1.82
431.042	1.86
431.249	1.82
431.456	1.81
431.662	1.85
431.869	1.88
432.076	1.98
432.283	1.89
432.49	1.9
432.697	1.92
432.903	1.93
433.11	1.93
433.317	1.97
433.524	1.92
433.73	1.97
433.937	1.95
434.144	1.97
434.35	1.93
434.557	1.86
434.764	1.8
434.97	1.92
435.177	1.92
435.384	1.98
435.59	1.88
435.797	1.88
436.003	1.88
436.21	1.81
436.416	1.7
436.623	1.75
436.829	1.7
437.036	1.74
437.242	1.78
437.449	1.83
437.655	1.88
437.862	1.92
438.068	1.96
438.275	1.93
438.481	1.96
438.687	1.99
438.894	1.95
439.1	1.96
439.307	1.98
439.513	1.87
439.719	1.95
439.926	1.96
440.132	1.96
440.338	1.98
440.544	1.97
440.751	1.99
440.957	1.96
441.163	1.94
441.369	1.93
441.575	1.94
441.782	1.95
441.988	1.98
442.194	2.02
442.4	2.11
442.606	2.15
442.812	2.1
443.018	2.1
443.224	2.09
443.431	2.09
443.637	2.02
443.843	1.99
444.049	1.9
444.255	1.9
444.461	1.89
444.667	1.88
444.873	1.85
445.079	1.8
445.284	1.8
445.49	1.79
445.696	1.85
445.902	1.91
446.108	1.92
446.314	1.97
446.52	2.08
446.726	2.11
446.931	2.13
447.137	2.11
447.343	2.04
447.549	2
447.755	1.91
447.96	1.88
448.166	1.85
448.372	1.87
448.578	1.87
448.783	1.88
448.989	1.93
449.195	1.96
449.4	1.95
449.606	1.92
449.812	1.95
450.017	1.95
450.223	1.93
450.428	1.9
450.634	1.95
450.84	1.95
451.045	1.96
451.251	1.96
451.456	1.98
451.662	2.02
451.867	2.02
452.073	1.99
452.278	2.01
452.483	1.99
452.689	2
452.894	2.04
453.1	1.97
453.305	2
453.51	1.98
453.716	1.94
453.921	1.99
454.127	1.93
454.332	1.88
454.537	1.95
454.742	1.96
454.948	1.95
455.153	1.96
455.358	1.98
455.563	2.01
455.769	2
455.974	1.95
456.179	1.87
456.384	1.91
456.589	1.93
456.795	1.85
457	1.82
457.205	1.82
457.41	1.86
457.615	1.97
457.82	1.96
458.025	1.94
458.23	1.95
458.435	1.9
458.64	1.95
458.845	1.91
459.05	1.86
459.255	1.87
459.46	1.89
459.665	2.02
459.87	2.03
460.075	1.97
460.28	2.02
460.485	2.04
460.69	2
460.895	2
461.099	1.91
461.304	1.96
461.509	1.89
461.714	1.87
461.919	1.85
462.123	1.9
462.328	1.88
462.533	1.9
462.738	1.86
462.942	1.97
463.147	1.99
463.352	2.01
463.556	2
463.761	2.01
463.966	2.06
464.17	2.08
464.375	2.04
464.58	2
464.784	2.01
464.989	2
465.193	2.02
465.398	2
465.602	2.02
465.807	2.04
466.011	2.08
466.216	2.09
466.42	2.09
466.625	2.07
466.829	2.11
467.034	2.13
467.238	2.17
467.443	2.15
467.647	2.16
467.851	2.14
468.056	2.12
468.26	2.06
468.464	2
468.669	1.98
468.873	1.97
469.077	1.97
469.282	2
469.486	2.03
469.69	2.04
469.894	2.11
470.099	2.16
470.303	2.18
470.507	2.2
470.711	2.2
470.915	2.23
471.119	2.28
471.324	2.23
471.528	2.2
471.732	2.17
471.936	2.14
472.14	2.15
472.344	2.18
472.548	2.14
472.752	2.21
472.956	2.27
473.16	2.28
473.364	2.28
473.568	2.33
473.772	2.33
473.976	2.36
474.18	2.3
474.384	2.26
474.588	2.28
474.792	2.28
474.995	2.28
475.199	2.26
475.403	2.26
475.607	2.32
475.811	2.33
476.015	2.38
476.218	2.36
476.422	2.34
476.626	2.32
476.83	2.33
477.033	2.33
477.237	2.34
477.441	2.29
477.644	2.33
477.848	2.32
478.052	2.32
478.255	2.31
478.459	2.35
478.663	2.31
478.866	2.34
479.07	2.36
479.273	2.38
479.477	2.39
479.681	2.4
479.884	2.31
480.088	2.35
480.291	2.34
480.495	2.33
480.698	2.31
480.901	2.34
481.105	2.36
481.308	2.39
481.512	2.43
481.715	2.51
481.919	2.54
482.122	2.54
482.325	2.54
482.529	2.58
482.732	2.62
482.935	2.6
483.138	2.6
483.342	2.58
483.545	2.63
483.748	2.65
483.952	2.62
484.155	2.65
484.358	2.65
484.561	2.64
484.764	2.63
484.967	2.64
485.171	2.61
485.374	2.63
485.577	2.64
485.78	2.63
485.983	2.64
486.186	2.65
486.389	2.61
486.592	2.63
486.795	2.64
486.998	2.58
487.201	2.58
487.404	2.62
487.607	2.62
487.81	2.66
488.013	2.66
488.216	2.67
488.419	2.68
488.622	2.65
488.825	2.62
489.028	2.61
489.231	2.59
489.433	2.57
489.636	2.52
489.839	2.56
490.042	2.56
490.245	2.57
490.447	2.59
490.65	2.6
490.853	2.63
491.056	2.67
491.258	2.68
491.461	2.69
491.664	2.63
491.866	2.64
492.069	2.68
492.272	2.65
492.474	2.63
492.677	2.6
492.879	2.6
493.082	2.65
493.285	2.64
493.487	2.58
493.69	2.57
493.892	2.61
494.095	2.61
494.297	2.68
494.5	2.7
494.702	2.71
494.905	2.74
495.107	2.8
495.309	2.73
495.512	2.76
495.714	2.73
495.917	2.69
496.119	2.71
496.321	2.76
496.524	2.76
496.726	2.79
496.928	2.81
497.13	2.82
497.333	2.86
497.535	2.86
497.737	2.84
497.939	2.86
498.142	2.88
498.344	2.85
498.546	2.92
498.748	2.9
498.95	2.87
499.152	2.84
499.355	2.81
499.557	2.85
499.759	2.91
499.961	2.88
500.163	2.94
500.365	2.99
500.567	3
500.769	3.06
500.971	3.04
501.173	2.99
501.375	2.98
501.577	2.98
501.779	3
501.981	3.02
502.183	2.99
502.385	2.98
502.587	2.99
502.788	3.03
502.99	3.03
503.192	3.02
503.394	3.05
503.596	3.11
503.798	3.19
503.999	3.24
504.201	3.26
504.403	3.27
504.605	3.31
504.806	3.32
505.008	3.32
505.21	3.31
505.411	3.33
505.613	3.32
505.815	3.36
506.016	3.38
506.218	3.36
506.42	3.38
506.621	3.36
506.823	3.36
507.024	3.35
507.226	3.34
507.427	3.29
507.629	3.36
507.83	3.33
508.032	3.39
508.233	3.4
508.435	3.42
508.636	3.45
508.838	3.53
509.039	3.53
509.24	3.57
509.442	3.55
509.643	3.56
509.845	3.58
510.046	3.56
510.247	3.58
510.448	3.61
510.65	3.63
510.851	3.67
511.052	3.69
511.254	3.7
511.455	3.7
511.656	3.68
511.857	3.66
512.058	3.69
512.26	3.68
512.461	3.67
512.662	3.67
512.863	3.7
513.064	3.7
513.265	3.75
513.466	3.77
513.667	3.78
513.868	3.81
514.069	3.87
514.27	3.9
514.471	3.95
514.672	3.98
514.873	4
515.074	4.04
515.275	4.05
515.476	4.03
515.677	4.05
515.878	4.09
516.079	4.1
516.28	4.08
516.481	4.07
516.682	4.09
516.882	4.12
517.083	4.11
517.284	4.07
517.485	4.07
517.686	4.09
517.886	4.13
518.087	4.17
518.288	4.15
518.488	4.18
518.689	4.21
518.89	4.25
519.091	4.29
519.291	4.27
519.492	4.25
519.692	4.31
519.893	4.29
520.094	4.28
520.294	4.24
520.495	4.26
520.695	4.28
520.896	4.3
521.096	4.31
521.297	4.36
521.497	4.4
521.698	4.43
521.898	4.43
522.099	4.44
522.299	4.44
522.499	4.47
522.7	4.47
522.9	4.46
523.101	4.49
523.301	4.47
523.501	4.5
523.702	4.52
523.902	4.52
524.102	4.54
524.302	4.56
524.503	4.58
524.703	4.64
524.903	4.66
525.103	4.67
525.304	4.71
525.504	4.71
525.704	4.7
525.904	4.71
526.104	4.72
526.304	4.71
526.504	4.71
526.705	4.72
526.905	4.74
527.105	4.78
527.305	4.78
527.505	4.78
527.705	4.8
527.905	4.81
528.105	4.78
528.305	4.79
528.505	4.83
528.705	4.83
528.905	4.84
529.105	4.87
529.304	4.91
529.504	4.92
529.704	4.94
529.904	4.96
530.104	4.95
530.304	4.97
530.503	4.96
530.703	4.96
530.903	4.98
531.103	4.98
531.303	5
531.502	5.01
531.702	5.05
531.902	5.07
532.101	5.11
532.301	5.13
532.501	5.16
532.7	5.14
532.9	5.22
533.1	5.22
533.299	5.25
533.499	5.26
533.698	5.31
533.898	5.34
534.097	5.37
534.297	5.38
534.496	5.42
534.696	5.44
534.895	5.47
535.095	5.46
535.294	5.45
535.494	5.45
535.693	5.46
535.892	5.45
536.092	5.44
536.291	5.45
536.491	5.45
536.69	5.51
536.889	5.54
537.088	5.56
537.288	5.62
537.487	5.68
537.686	5.71
537.886	5.74
538.085	5.77
538.284	5.81
538.483	5.84
538.682	5.83
538.882	5.85
539.081	5.87
539.28	5.9
539.479	5.94
539.678	5.96
539.877	6
540.076	6.02
540.275	6.07
540.474	6.06
540.673	6.12
540.872	6.15
541.071	6.19
541.27	6.2
541.469	6.23
541.668	6.27
541.867	6.34
542.066	6.33
542.265	6.37
542.464	6.4
542.663	6.46
542.862	6.52
543.06	6.53
543.259	6.54
543.458	6.6
543.657	6.64
543.856	6.68
544.054	6.72
544.253	6.74
544.452	6.76
544.651	6.8
544.849	6.85
545.048	6.87
545.247	6.91
545.445	6.9
545.644	6.95
545.843	7.03
546.041	7.12
546.24	7.15
546.438	7.2
546.637	7.25
546.836	7.33
547.034	7.35
547.233	7.4
547.431	7.4
547.63	7.48
547.828	7.5
548.027	7.56
548.225	7.62
548.423	7.69
548.622	7.75
548.82	7.84
549.019	7.87
549.217	7.96
549.415	8.07
549.614	8.09
549.812	8.16
550.01	8.2
550.209	8.25
550.407	8.33
550.605	8.38
550.803	8.41
551.002	8.48
551.2	8.59
551.398	8.65
551.596	8.7
551.794	8.77
551.993	8.81
552.191	8.91
552.389	8.99
552.587	9.01
552.785	9.11
552.983	9.2
553.181	9.26
553.379	9.37
553.577	9.39
553.775	9.48
553.973	9.57
554.171	9.62
554.369	9.66
554.567	9.75
554.765	9.79
554.963	9.86
555.161	9.94
555.359	10.03
555.557	10.12
555.755	10.25
555.952	10.29
556.15	10.39
556.348	10.48
556.546	10.55
556.744	10.63
556.941	10.74
557.139	10.82
557.337	10.97
557.535	11.07
557.732	11.19
557.93	11.32
558.128	11.38
558.325	11.43
558.523	11.52
558.721	11.57
558.918	11.66
559.116	11.71
559.313	11.76
559.511	11.89
559.708	11.97
559.906	12.02
560.104	12.16
560.301	12.27
560.498	12.4
560.696	12.48
560.893	12.56
561.091	12.69
561.288	12.82
561.486	12.87
561.683	12.95
561.88	13
562.078	13.12
562.275	13.21
562.473	13.3
562.67	13.37
562.867	13.47
563.064	13.62
563.262	13.77
563.459	13.84
563.656	13.94
563.853	14.06
564.051	14.12
564.248	14.2
564.445	14.25
564.642	14.35
564.839	14.48
565.036	14.6
565.234	14.68
565.431	14.81
565.628	14.94
565.825	15.04
566.022	15.04
566.219	15.12
566.416	15.18
566.613	15.27
566.81	15.34
567.007	15.39
567.204	15.44
567.401	15.59
567.598	15.64
567.795	15.66
567.991	15.75
568.188	15.8
568.385	15.89
568.582	15.99
568.779	16.04
568.976	16.14
569.172	16.24
569.369	16.28
569.566	16.36
569.763	16.41
569.96	16.43
570.156	16.5
570.353	16.5
570.55	16.58
570.746	16.62
570.943	16.65
571.14	16.67
571.336	16.76
571.533	16.81
571.729	16.85
571.926	16.9
572.123	16.98
572.319	17.01
572.516	17.09
572.712	17.16
572.909	17.2
573.105	17.29
573.302	17.31
573.498	17.33
573.695	17.37
573.891	17.35
574.087	17.26
574.284	17.26
574.48	17.26
574.677	17.23
574.873	17.24
575.069	17.27
575.266	17.32
575.462	17.43
575.658	17.46
575.854	17.46
576.051	17.5
576.247	17.52
576.443	17.54
576.639	17.54
576.835	17.49
577.032	17.49
577.228	17.52
577.424	17.55
577.62	17.56
577.816	17.59
578.012	17.62
578.208	17.68
578.404	17.72
578.6	17.7
578.796	17.68
578.993	17.65
579.189	17.58
579.384	17.53
579.58	17.55
579.776	17.48
579.972	17.41
580.168	17.4
580.364	17.41
580.56	17.43
580.756	17.4
580.952	17.3
581.148	17.29
581.343	17.3
581.539	17.3
581.735	17.27
581.931	17.27
582.127	17.28
582.322	17.31
582.518	17.29
582.714	17.28
582.909	17.25
583.105	17.2
583.301	17.2
583.496	17.13
583.692	17.12
583.888	17.11
584.083	17.12
584.279	17.12
584.474	17.13
584.67	17.1
584.866	17.18
585.061	17.17
585.257	17.2
585.452	17.19
585.648	17.16
585.843	17.15
586.039	17.11
586.234	17.06
586.429	17.07
586.625	17.02
586.82	17
587.015	16.94
587.211	16.97
587.406	17.03
587.601	17.02
587.797	16.98
587.992	17
588.187	17.02
588.383	17.1
588.578	17.08
588.773	17.02
588.968	17.05
589.163	17.12
589.359	17.14
589.554	17.13
589.749	17.14
589.944	17.18
590.139	17.27
590.334	17.26
590.529	17.28
590.724	17.26
590.919	17.31
591.114	17.31
591.309	17.29
591.504	17.27
591.699	17.34
591.894	17.34
592.089	17.4
592.284	17.41
592.479	17.43
592.674	17.48
592.869	17.55
593.064	17.61
593.259	17.62
593.454	17.67
593.648	17.68
593.843	17.76
594.038	17.82
594.233	17.89
594.428	17.94
594.622	18
594.817	18.04
595.012	18.15
595.206	18.19
595.401	18.21
595.596	18.27
595.79	18.32
595.985	18.43
596.18	18.56
596.374	18.64
596.569	18.7
596.763	18.88
596.958	18.97
597.153	19.03
597.347	19.11
597.542	19.14
597.736	19.21
597.931	19.35
598.125	19.37
598.319	19.41
598.514	19.45
598.708	19.45
598.903	19.55
599.097	19.56
599.291	19.59
599.486	19.6
599.68	19.6
599.874	19.7
600.069	19.79
600.263	19.81
600.457	19.89
600.651	19.92
600.846	19.98
601.04	20.05
601.234	20.07
601.428	20.03
601.622	20.07
601.817	20.11
602.011	20.17
602.205	20.23
602.399	20.25
602.593	20.28
602.787	20.38
602.981	20.38
603.175	20.37
603.369	20.32
603.563	20.31
603.757	20.28
603.951	20.27
604.145	20.21
604.339	20.18
604.533	20.14
604.727	20.12
604.921	20.1
605.115	20.06
605.309	20.07
605.502	20.09
605.696	20.04
605.89	20.06
606.084	20.06
606.278	19.99
606.471	19.94
606.665	19.84
606.859	19.84
607.053	19.83
607.246	19.76
607.44	19.66
607.634	19.61
607.827	19.52
608.021	19.45
608.214	19.36
608.408	19.28
608.602	19.18
608.795	19.16
608.989	19.14
609.182	19.23
609.376	19.2
609.569	19.08
609.763	19.07
609.956	18.98
610.15	18.89
610.343	18.83
610.537	18.7
610.73	18.63
610.923	18.59
611.117	18.46
611.31	18.44
611.504	18.4
611.697	18.33
611.89	18.25
612.083	18.2
612.277	18.09
612.47	18.02
612.663	18.03
612.856	17.9
613.05	17.81
613.243	17.74
613.436	17.66
613.629	17.64
613.822	17.54
614.015	17.41
614.209	17.46
614.402	17.38
614.595	17.29
614.788	17.2
614.981	17.13
615.174	17.07
615.367	17
615.56	16.83
615.753	16.73
615.946	16.69
616.139	16.65
616.332	16.54
616.525	16.51
616.718	16.43
616.911	16.38
617.103	16.34
617.296	16.25
617.489	16.17
617.682	16.2
617.875	16.12
618.067	16.1
618.26	16.09
618.453	16.01
618.646	15.98
618.838	15.95
619.031	15.85
619.224	15.86
619.417	15.83
619.609	15.81
619.802	15.82
619.994	15.74
620.187	15.72
620.38	15.7
620.572	15.64
620.765	15.57
620.957	15.49
621.15	15.46
621.342	15.52
621.535	15.5
621.727	15.5
621.92	15.47
622.112	15.48
622.305	15.45
622.497	15.41
622.69	15.32
622.882	15.3
623.074	15.28
623.267	15.21
623.459	15.17
623.651	15.17
623.844	15.17
624.036	15.16
624.228	15.11
624.42	15.03
624.613	15.06
624.805	15.05
624.997	15
625.189	14.99
625.381	14.98
625.574	14.97
625.766	14.96
625.958	14.91
626.15	14.9
626.342	14.9
626.534	14.87
626.726	14.85
626.918	14.81
627.11	14.77
627.302	14.76
627.494	14.75
627.686	14.71
627.878	14.64
628.07	14.59
628.262	14.59
628.454	14.57
628.646	14.53
628.838	14.44
629.029	14.33
629.221	14.28
629.413	14.22
629.605	14.12
629.797	14.1
629.989	14.06
630.18	14.05
630.372	14.1
630.564	14.13
630.755	14.12
630.947	14.09
631.139	14.01
631.33	13.98
631.522	13.97
631.714	13.95
631.905	13.85
632.097	13.77
632.289	13.79
632.48	13.77
632.672	13.73
632.863	13.69
633.055	13.66
633.246	13.72
633.438	13.76
633.629	13.74
633.821	13.74
634.012	13.77
634.203	13.78
634.395	13.74
634.586	13.7
634.777	13.69
634.969	13.66
635.16	13.63
635.351	13.59
635.543	13.53
635.734	13.5
635.925	13.49
636.117	13.48
636.308	13.42
636.499	13.42
636.69	13.48
636.881	13.51
637.073	13.55
637.264	13.51
637.455	13.53
637.646	13.52
637.837	13.48
638.028	13.42
638.219	13.34
638.41	13.31
638.601	13.33
638.792	13.25
638.983	13.24
639.174	13.23
639.365	13.19
639.556	13.21
639.747	13.18
639.938	13.14
640.129	13.14
640.32	13.13
640.511	13.14
640.701	13.1
640.892	13.06
641.083	13.04
641.274	13.05
641.465	13.04
641.655	13.04
641.846	12.97
642.037	12.98
642.228	12.96
642.418	12.94
642.609	12.87
642.8	12.83
642.99	12.81
643.181	12.84
643.372	12.79
643.562	12.76
643.753	12.73
643.943	12.69
644.134	12.66
644.324	12.64
644.515	12.61
644.705	12.56
644.896	12.52
645.086	12.51
645.277	12.53
645.467	12.53
645.658	12.48
645.848	12.44
646.038	12.47
646.229	12.52
646.419	12.51
646.61	12.45
646.8	12.4
646.99	12.43
647.18	12.38
647.371	12.31
647.561	12.26
647.751	12.18
647.941	12.18
648.132	12.23
648.322	12.21
648.512	12.28
648.702	12.29
648.892	12.33
649.082	12.36
649.272	12.28
649.462	12.23
649.653	12.22
649.843	12.16
650.033	12.11
650.223	12.04
650.413	12.02
650.603	12.09
650.793	12.06
650.983	12.02
651.172	11.96
651.362	11.93
651.552	11.86
651.742	11.81
651.932	11.78
652.122	11.76
652.312	11.66
652.502	11.64
652.691	11.61
652.881	11.57
653.071	11.48
653.261	11.38
653.45	11.25
653.64	11.25
653.83	11.17
654.019	11.05
654.209	10.98
654.399	10.93
654.588	10.87
654.778	10.8
654.968	10.64
655.157	10.52
655.347	10.43
655.536	10.27
655.726	10.2
655.915	10.06
656.105	9.98
656.294	9.85
656.484	9.76
656.673	9.65
656.863	9.54
657.052	9.35
657.241	9.2
657.431	9.02
657.62	8.86
657.809	8.7
657.999	8.54
658.188	8.43
658.377	8.33
658.567	8.17
658.756	8.01
658.945	7.93
659.134	7.78
659.324	7.64
659.513	7.51
659.702	7.35
659.891	7.21
660.08	7.13
660.269	6.98
660.458	6.9
660.648	6.78
660.837	6.7
661.026	6.54
661.215	6.47
661.404	6.35
661.593	6.24
661.782	6.11
661.971	5.99
662.16	5.85
662.349	5.78
662.538	5.72
662.726	5.58
662.915	5.51
663.104	5.4
663.293	5.32
663.482	5.24
663.671	5.13
663.86	5.04
664.048	5.02
664.237	4.93
664.426	4.91
664.615	4.84
664.803	4.77
664.992	4.77
665.181	4.7
665.369	4.62
665.558	4.6
665.747	4.56
665.935	4.55
666.124	4.53
666.312	4.4
666.501	4.37
666.69	4.34
666.878	4.3
667.067	4.29
667.255	4.25
667.444	4.26
667.632	4.29
667.82	4.22
668.009	4.24
668.197	4.23
668.386	4.15
668.574	4.16
668.762	4.1
668.951	4.12
669.139	4.18
669.327	4.15
669.516	4.21
669.704	4.27
669.892	4.23
670.08	4.25
670.269	4.28
670.457	4.31
670.645	4.36
670.833	4.35
671.021	4.33
671.21	4.42
671.398	4.46
671.586	4.51
671.774	4.49
671.962	4.53
672.15	4.54
672.338	4.63
672.526	4.72
672.714	4.7
672.902	4.75
673.09	4.81
673.278	4.81
673.466	4.91
673.654	4.89
673.842	4.85
674.03	4.95
674.218	4.98
674.405	5.09
674.593	5.13
674.781	5.12
674.969	5.25
675.157	5.31
675.344	5.35
675.532	5.44
675.72	5.46
675.908	5.55
676.095	5.7
676.283	5.68
676.471	5.75
676.658	5.83
676.846	5.86
677.033	5.96
677.221	6.02
677.409	6.03
677.596	6.17
677.784	6.28
677.971	6.4
678.159	6.46
678.346	6.45
678.534	6.52
678.721	6.62
678.909	6.67
679.096	6.64
679.283	6.69
679.471	6.81
679.658	6.89
679.846	7
680.033	7.06
680.22	7.09
680.408	7.22
680.595	7.27
680.782	7.37
680.969	7.46
681.157	7.53
681.344	7.67
681.531	7.8
681.718	7.89
681.905	8.03
682.093	8.18
682.28	8.4
682.467	8.51
682.654	8.57
682.841	8.73
683.028	8.97
683.215	9.1
683.402	9.17
683.589	9.29
683.776	9.51
683.963	9.66
684.15	9.8
684.337	9.94
684.524	10.16
684.711	10.27
684.898	10.42
685.085	10.56
685.271	10.85
685.458	11.11
685.645	11.32
685.832	11.48
686.019	11.78
686.205	12.05
686.392	12.32
686.579	12.5
686.766	12.77
686.952	13.17
687.139	13.54
687.326	13.94
687.512	14.27
687.699	14.58
687.886	14.99
688.072	15.36
688.259	15.57
688.445	15.92
688.632	16.37
688.818	16.8
689.005	17.36
689.191	17.85
689.378	18.29
689.564	18.92
689.751	19.56
689.937	19.96
690.124	20.49
690.31	20.86
690.496	21.37
690.683	21.98
690.869	22.49
691.055	23.1
691.242	23.66
691.428	24.3
691.614	24.99
691.8	25.67
691.987	26.3
692.173	26.96
692.359	27.5
692.545	28.23
692.731	28.93
692.918	29.65
693.104	30.24
693.29	30.85
693.476	31.46
693.662	32.1
693.848	32.67
694.034	33.15
694.22	33.91
694.406	34.6
694.592	35.29
694.778	36.04
694.964	36.73
695.15	37.49
695.336	38.42
695.522	39.05
695.708	39.84
695.894	40.55
696.08	41.14
696.265	41.86
696.451	42.67
696.637	43.27
696.823	43.83
697.009	44.38
697.194	45
697.38	45.71
697.566	46.18
697.751	46.74
697.937	47.32
698.123	48
698.308	48.5
698.494	49.17
698.68	49.7
698.865	50.6
699.051	51.11
699.236	51.71
699.422	52.27
699.607	52.89
699.793	53.36
699.978	53.77
700.164	54.15
700.349	54.63
700.535	55.12
700.72	55.61
700.906	56.15
701.091	56.6
701.276	57.31
701.462	57.84
701.647	58.18
701.832	58.62
702.018	59
702.203	59.29
702.388	59.73
702.573	60.32
702.759	60.75
702.944	61.47
703.129	61.86
703.314	62.4
703.499	63.08
703.684	63.46
703.87	63.77
704.055	64
704.24	64.28
704.425	64.84
704.61	65.03
704.795	65.21
704.98	65.57
705.165	65.75
705.35	66.12
705.535	66.45
705.72	66.64
705.905	66.99
706.09	67.34
706.275	67.64
706.459	68
706.644	68.2
706.829	68.5
707.014	68.61
707.199	68.86
707.384	69.11
707.568	69.45
707.753	69.83
707.938	70.23
708.123	70.22
708.307	70.73
708.492	71.09
708.677	71.3
708.861	71.37
709.046	71.37
709.231	71.69
709.415	72.2
709.6	72.17
709.784	72.28
709.969	72.75
710.153	73.39
710.338	73.56
710.522	73.5
710.707	73.28
710.891	73.65
711.076	73.75
711.26	73.75
711.445	73.64
711.629	73.78
711.813	73.89
711.998	74.25
712.182	74.65
712.366	74.77
712.551	74.83
712.735	74.99
712.919	75.24
713.103	75.58
713.288	75.93
713.472	75.59
713.656	75.54
713.84	75.62
714.024	75.85
714.208	75.87
714.393	76.11
714.577	76.11
714.761	76.52
714.945	76.91
715.129	77.21
715.313	77.19
715.497	77.48
715.681	77.47
715.865	77.69
716.049	77.62
716.233	77.78
716.417	77.82
716.601	77.86
716.785	77.98
716.968	78.1
717.152	78.1
717.336	78.15
717.52	78.31
717.704	78.61
717.888	78.95
718.071	78.94
718.255	78.98
718.439	79.01
718.622	79.27
718.806	79.02
718.99	79.03
719.174	78.91
719.357	79
719.541	79.12
719.724	79.29
719.908	79.49
720.092	80.04
720.275	79.98
720.459	79.99
720.642	80.06
720.826	80.17
721.009	80.15
721.193	80.07
721.376	79.81
721.559	79.81
721.743	80.17
721.926	79.95
722.11	80.06
722.293	79.64
722.476	79.47
722.66	79.54
722.843	79.74
723.026	79.66
723.21	80.18
723.393	80.08
723.576	80.52
723.759	80.97
723.942	81.48
724.126	81.76
724.309	81.85
724.492	82.02
724.675	82.3
724.858	82.83
725.041	82.73
725.224	82.49
725.407	82.09
725.59	81.91
725.774	81.79
725.957	81.88
726.14	81.63
726.322	81.63
726.505	81.71
726.688	82.16
726.871	82.75
727.054	82.96
727.237	82.95
727.42	83.28
727.603	83.47
727.786	83.85
727.968	83.89
728.151	83.95
728.334	84.06
728.517	84.49
728.699	84.46
728.882	84.76
729.065	84.74
729.248	84.84
729.43	84.72
729.613	84.72
729.796	84.28
729.978	84.34
730.161	84.54
730.343	84.6
730.526	84.71
730.708	84.92
730.891	85.23
731.073	85.33
731.256	85.6
731.438	85.69
731.621	86.19
731.803	86.13
731.986	86.01
732.168	85.58
732.35	85.98
732.533	86.2
732.715	86.29
732.898	86.03
733.08	86.43
733.262	86.66
733.444	86.85
733.627	86.86
733.809	86.58
733.991	86.47
734.173	86.14
734.355	86.25
734.538	85.71
734.72	86.38
734.902	86.24
735.084	86.34
735.266	86.5
735.448	87.07
735.63	87.02
735.812	87.86
735.994	87.59
736.176	88.28
736.358	88.79
736.54	88.8
736.722	88.52
736.904	88.4
737.086	88.37
737.268	88.62
737.45	88.35
737.632	87.63
737.814	87.62
737.995	88.09
738.177	88.15
738.359	88.11
738.541	87.79
738.723	87.49
738.904	87.75
739.086	87.61
739.268	87.39
739.449	87.98
739.631	88.04
739.813	87.89
739.994	88.57
740.176	88.72
740.358	88.91
740.539	88.72
740.721	88.68
740.902	88.71
741.084	88.89
741.265	88.29
741.447	88.16
741.628	87.88
741.81	88.29
741.991	88.49
742.172	88.34
742.354	88.88
742.535	89.39
742.717	89.52
742.898	90.28
743.079	90.15
743.261	90.14
743.442	90.77
743.623	90.49
743.804	90.51
743.986	90.44
744.167	89.47
744.348	89.41
744.529	88.68
744.71	87.71
744.891	87.98
745.073	87.58
745.254	88.11
745.435	88.15
745.616	88.19
745.797	88.07
745.978	89.04
746.159	88.4
746.34	88.79
746.521	88.49
746.702	88.38
746.883	88.63
747.064	88.79
747.245	88.55
747.426	89.24
747.606	88.95
747.787	89
747.968	90.04
748.149	89.49
748.33	89.93
748.51	89.49
748.691	89.21
748.872	89.68
749.053	89.21
749.233	88.62
749.414	88.54
749.595	88.09
749.775	88.28
749.956	88.04
750.137	87.81
750.317	88.35
750.498	88.34
750.678	88.88
750.859	88.64
751.04	88.54
751.22	88.2
751.4	88.24
751.581	87.86
751.761	88.34
751.942	87.67
752.122	88.16
752.303	87.96
752.483	89.12
752.663	89.12
752.844	88.88
753.024	89.11
753.204	89.54
753.385	88.74
753.565	88.79
753.745	87.99
753.925	87.94
754.106	88.3
754.286	87.71
754.466	87.78
754.646	88.07
754.826	88.61
755.006	88.51
755.187	88.11
755.367	88.16
755.547	88.09
755.727	87.93
755.907	88.44
756.087	88.17
756.267	88.12
756.447	88.96
756.627	88.77
756.807	89.53
756.987	90.11
757.167	90.47
757.346	90.37
757.526	90.44
757.706	89.75
757.886	89.48
758.066	88.92
758.246	88.15
758.425	87.6
758.605	87.79
758.785	88.16
758.965	86.74
759.144	87.59
759.324	87.81
759.504	87.76
759.683	88.04
759.863	87.35
760.043	87.05
760.222	88.09
760.402	87.94
760.581	87.79
760.761	87.41
760.94	86.5
761.12	87.09
761.299	86.51
761.479	87.13
761.658	85.97
761.838	85.83
762.017	86.47
762.197	87.04
762.376	86.98
762.555	87.88
762.735	87.14
762.914	87.52
763.093	87.4
763.273	87.27
763.452	86.7
763.631	85.81
763.81	85.52
763.99	86.23
764.169	86.67
764.348	87.5
764.527	86.95
764.706	87.45
764.885	88.35
765.064	88.04
765.243	87.67
765.423	87.44
765.602	86
765.781	86.71
765.96	86.64
766.139	86.4
766.318	87.38
766.497	87.23
766.676	88.34
766.854	88.55
767.033	88.24
767.212	88.04
767.391	86.99
767.57	86.28
767.749	86.25
767.928	84.28
768.106	85.06
768.285	85.2
768.464	86.14
768.643	87.33
768.821	87.65
769	87.75
769.179	87.68
769.357	86.91
769.536	86.9
769.715	86.11
769.893	85.36
770.072	84.4
770.25	83.81
770.429	85.76
770.607	85.7
770.786	85.39
770.964	84.59
771.143	84.02
771.321	85.11
771.5	84.8
771.678	83.74
771.857	83.5
772.035	83.44
772.213	84.1
772.392	84.82
772.57	83.86
772.748	83.2
772.927	82.44
773.105	83.42
773.283	82.35
773.461	81.51
773.64	81.01
773.818	79.48
773.996	80.03
774.174	80.88
774.352	79.96
774.531	80.15
774.709	80.93
774.887	80.31
775.065	81.51
775.243	82.36
775.421	81.64
775.599	80.65
775.777	80.67
775.955	80.09
776.133	80.64
776.311	80.11
776.489	79.94
776.667	80.45
776.844	80.79
777.022	80.85
777.2	80.9
777.378	82.52
777.556	83.34
777.734	83.7
777.911	83
778.089	82.67
778.267	83.1
778.445	82.13
778.622	80.2
778.8	79.77
778.978	79.13
779.155	78.94
779.333	77.59
779.511	78.1
779.688	77.63
779.866	77.79
780.043	78.12
780.221	78.31
780.398	78.8
780.576	79.96
780.753	78.7
780.931	79.79
781.108	81.24
781.286	80.09
781.463	80.56
781.64	81.18
781.818	81.07
781.995	81.68
782.172	82.91
782.35	80.79
782.527	82.86
782.704	81.07
782.882	80.93
783.059	81.15
783.236	80.9
783.413	80.35
783.59	79.74
783.768	77.65
783.945	79.38
784.122	79.44
784.299	79.8
784.476	81.63
784.653	80.46
784.83	80.13
785.007	81.07
785.184	80.7
785.361	81.06
785.538	80.72
785.715	78.09
785.892	77.63
786.069	78.36
786.246	76.69
786.423	75.84
786.6	75.19
786.776	75.79
786.953	75.71
787.13	77.63
787.307	77.91
787.484	78.9
787.66	79.24
787.837	78.97
788.014	78.43
788.191	78.75
788.367	77.3
788.544	77.85
788.721	78.08
788.897	79.52
789.074	77.87
789.25	79.6
789.427	78.76
789.603	80.81
789.78	82.59
789.956	80.6
790.133	78.87
790.309	78.76
790.486	77.79
790.662	80.75
790.839	79.7
791.015	78.68
791.192	80.12
791.368	81.62
791.544	82.6
791.721	80.68
791.897	80.11
792.073	78.77
792.249	80.62
792.426	81.23
792.602	79.88
792.778	79.37
792.954	80.65
793.13	80.92
793.307	78.33
793.483	74.72
793.659	78.36
793.835	77.22
794.011	77.78
794.187	77.1
794.363	74.6
794.539	76.06
794.715	75.19
794.891	68.41
795.067	69
795.243	69.97
795.419	72.05
795.595	73.59
795.771	76.54
795.947	77.92
796.122	80.74
796.298	82.23
796.474	82.95
796.65	82
796.826	84.4
797.001	81.14
797.177	81.07
797.353	84.97
797.529	84.26
797.704	81.57
797.88	78.92
798.056	77.84
798.231	79.88
798.407	81.02
798.582	79.06
798.758	79.19
798.934	79.38
799.109	78.95
799.285	79.65
799.46	81.69
799.636	79.63
799.811	79.37
799.986	79.34
800.162	80.7
800.337	83.13
800.513	82.57
800.688	81.59
800.863	83.14
801.039	79.76
801.214	77.25
801.389	77.3
801.565	78.45
801.74	74.43
801.915	76.32
802.09	75.33
802.265	75.83
802.441	74.69
802.616	74.25
802.791	73.73
802.966	75.61
803.141	68.34
803.316	69.67
803.491	70.81
803.666	73.72
803.841	72.52
804.016	70.5
804.191	70.93
804.366	73.58
804.541	72.93
804.716	68.94
804.891	72.41
805.066	73.05
805.241	71.99
805.416	71.45
805.591	75.72
805.765	74.73
805.94	77.23
806.115	68.75
806.29	68.45
806.464	67.67
806.639	69
806.814	62.52
806.989	64.28
807.163	68.29
807.338	74.2
807.512	67.61
807.687	68.49
807.862	63.15
808.036	63.71
808.211	63.63
808.385	58.1
808.56	55.28
808.734	60.82
808.909	62.01
809.083	66.04
809.258	71.87
809.432	70.35
809.606	73.31
809.781	77.29
809.955	82.22
810.13	86.87
810.304	87.48
810.478	85.31
810.652	86.49
810.827	83.15
811.001	81.47
811.175	76.72
811.349	70.76
811.524	69.38
811.698	68.47
811.872	71.01
812.046	71.28
812.22	69.21
812.394	70.41
812.568	74.54
812.742	75.41
812.916	75.4
813.09	70.31
813.264	72.25
813.438	76.02
813.612	72.05
813.786	72.9
813.96	73.56
814.134	70.92
814.308	70
814.482	70.29
814.656	72.36
814.83	77.7
815.003	76.35
815.177	75.45
815.351	78.1
815.525	76.24
815.698	72.88
815.872	68.52
816.046	65.94
816.219	66.21
816.393	62.46
816.567	60.1
816.74	66.08
816.914	72.02
817.088	69.84
817.261	65.73
817.435	59.87
817.608	65.56
817.782	70.96
817.955	66.35
818.129	72.57
818.302	72.68
818.475	77.11
818.649	80.88
818.822	81.58
818.996	73.71
819.169	72.73
819.342	64.1
819.516	66.47
819.689	64.91
819.862	60.52
820.035	53.63
820.209	54.92
820.382	57.3
820.555	56.1
820.728	49.8
820.901	52.14
821.075	55.84
821.248	57.58
821.421	54
821.594	53.37
821.767	58.55
821.94	58.65
822.113	58.98
822.286	61.68
822.459	73.72
822.632	80.49
822.805	80.48
822.978	75.97
823.151	77.11
823.324	72.21
823.496	62.52
823.669	63.06
823.842	60.98
824.015	55.26
824.188	53.92
824.361	61.05
824.533	57.41
824.706	72.19
824.879	59.74
825.051	62.85
825.224	66.31
825.397	62.48
825.569	68.68
825.742	72.77
825.915	69.04
826.087	64.27
826.26	63.92
826.432	74.02
826.605	72.51
826.777	59.97
826.95	52.46
827.122	56.51
827.295	61.2
827.467	53.3
827.64	42
827.812	46.76
827.984	52.04
828.157	61.1
828.329	55.93
828.501	54.04
828.674	61.11
828.846	61.34
829.018	50.51
829.19	45.35
829.363	43.96
829.535	37.37
829.707	37.63
829.879	36.14
830.051	29.99
830.223	33.26
830.395	30.59
830.568	31.7
830.74	40.34
830.912	39.48
831.084	40.8
831.256	42.01
831.428	40.12
831.6	51.15
831.772	49.75
831.943	51.7
832.115	56.07
832.287	45.11
832.459	55.02
832.631	66.49
832.803	65.26
832.975	63.16
833.146	51.14
833.318	43.44
833.49	72.8
833.662	66.33
833.833	68.22
834.005	59.36
834.177	60.71
834.348	68.26
834.52	73.38
834.692	64.23
834.863	70.77
835.035	58.74
835.206	62.14
835.378	59.07
835.549	58.34
835.721	58.59
835.892	51.17
836.064	59.45
836.235	64.47
836.407	55.9
836.578	61.26
836.749	64.78
836.921	64.87
837.092	80.18
837.264	65.61
837.435	59.31
837.606	74.06
837.777	61.12
837.949	53.94
838.12	51.79
838.291	46.25
838.462	50.33
838.633	49.85
838.805	44.85
838.976	50.81
839.147	46.26
839.318	44.58
839.489	37.47
839.66	31.73
839.831	32.41
840.002	31.74
840.173	30.71
840.344	48.23
840.515	45.1
840.686	52.78
840.857	52.24
841.028	57.02
841.199	55.59
841.369	50.84
841.54	44.19
841.711	43.74
841.882	29.01
842.053	22.3
842.223	15.36
842.394	27.31
842.565	41.68
842.736	31.25
842.906	36.39
843.077	63.79
843.248	70.82
843.418	68.58
843.589	66.96
843.759	67.79
843.93	67.57
844.101	59.8
844.271	50.23
844.442	46.31
844.612	34.72
844.783	23.17
844.953	16.35
845.123	36.87
845.294	40.11
845.464	37.35
845.635	43.21
845.805	58.88
845.975	54.22
846.146	55.04
846.316	55.49
846.486	58.49
846.656	62.89
846.827	63.71
846.997	78.88
847.167	86.6
847.337	93.45
847.507	82.86
847.677	91.9
847.848	101.13
848.018	100.3
848.188	80.16
848.358	89.86
848.528	89.55
848.698	81.02
848.868	77.67
849.038	64.2
849.208	62.08
849.378	54.22
849.548	66.54
849.718	61.92
849.887	64.23
850.057	56.88
850.227	54.05
850.397	44.66
850.567	60.94
850.737	39.6
850.906	35.68
851.076	38.99
851.246	47.14
851.415	50.64
851.585	54.67
851.755	57.26
851.924	73.81
852.094	72.29
852.264	59.65
852.433	59.92
852.603	61.75
852.772	61.93
852.942	43.64
853.111	32.73
853.281	40.25
853.45	50.86
853.62	45.76
853.789	38.93
853.959	33.59
854.128	24.02
854.297	20.61
854.467	11.49
854.636	14.4
854.805	16.52
854.975	26.93
855.144	38.17
855.313	60.35
855.482	52.61
855.652	65.09
855.821	65.89
855.99	66.59
856.159	44.89
856.328	37.05
856.497	37.65
856.667	35.73
856.836	23.01
857.005	-0.74
857.174	15.41
857.343	19.27
857.512	8.84
857.681	5.47
857.85	10.8
858.019	20.71
858.188	45.6
858.356	15.47
858.525	30.05
858.694	53.14
858.863	33.33
859.032	39.93
859.201	34.78
859.369	32.12
859.538	28.91
859.707	39.6
859.876	31.92
860.044	47.12
860.213	27.57
860.382	26.12
860.55	40.32
860.719	61.1
860.888	50.35
861.056	48.35
861.225	55.96
861.393	67.1
861.562	61.83
861.73	57.77
861.899	32.36
862.067	31.45
862.236	27.87
862.404	26.01
862.572	29.35
862.741	25.28
862.909	22.21
863.078	31.31
863.246	29.45
863.414	43.85
863.582	22.26
863.751	18.05
863.919	46.68
864.087	44.21
864.255	40.48
864.424	43.04
864.592	34.28
864.76	61.62
864.928	59.97
865.096	42.35
865.264	39.31
865.432	37.5
865.6	24.17
865.768	17.22
865.936	-5.77
866.104	-6.74
866.272	-1.5
866.44	-53.94
866.608	-56.1
866.776	-22.45
866.944	-32.94
867.112	-55
867.28	-91.41
867.448	-47.29
867.615	1.5
867.783	-7.43
867.951	17.22
868.119	27.68
868.286	54.83
868.454	55.37
868.622	43.39
868.789	52.32
868.957	58.58
869.125	46.99
869.292	61.56
869.46	57.12
869.627	51.67
869.795	57.4
869.963	60.21
870.13	66.56
870.298	60.88
870.465	24.16
870.632	29.04
870.8	7.89
870.967	4.92
871.135	-4.16
871.302	16.39
871.469	12.66
871.637	15.43
871.804	14.43
871.971	34.64
872.139	31.9
872.306	31.16
872.473	0.52
872.64	11.36
872.807	18.22
872.975	31.29
873.142	8.92
873.309	-12.7
873.476	-59.34
873.643	1.37
873.81	-19.77
873.977	-32.69
874.144	-63.54
874.311	-98.99
874.478	-83.9
874.645	-79.86
874.812	-35.37
874.979	-79.31
875.146	-98.19
875.313	-151.37
875.48	-25.14
875.647	-22.4
875.813	-39.83
875.98	-81.33
876.147	-5.32
876.314	3.77
876.481	1.18
876.647	-2.15
876.814	23.38
876.981	32.51
877.147	20.65
877.314	7.15
877.481	17.86
877.647	25.9
877.814	14.78
877.98	-0.11
878.147	-7.6
878.314	-3.97
878.48	5.43
878.647	16.3
878.813	5.31
878.979	-13.58
879.146	-1.2
879.312	33.64
879.479	53.82
879.645	46.93
879.811	34.84
879.978	62.73
880.144	77.22
880.31	45.01
880.477	-3.67
880.643	-48.62
880.809	12.81
880.975	-23.15
881.142	-11.26
881.308	-39.04
881.474	18.81
881.64	-26.42
881.806	2.62
881.972	26.51
882.138	14.32
882.304	-74.15
882.47	-38.14
882.636	-77.18
882.802	-55.25
882.968	-180.43
883.134	-450.46
883.3	-214.67
883.466	-58.11
883.632	-50.04
883.798	-45.82
883.964	-40.92
884.129	-15.97
884.295	6.23
884.461	2.81
884.627	-26.47
884.793	16.55
884.958	7.27
885.124	-15.46
885.29	26.98
885.455	29.19
885.621	39.27
885.787	28.93
885.952	16.3
886.118	38.32
886.283	43.16
886.449	9.11
886.614	18.8
886.78	17.14
886.945	-10.32
887.111	-11.21
887.276	-11.02
887.442	-7.93
887.607	-12.34
887.773	-34.39
887.938	-60.55
888.103	7.51
888.269	18.78
888.434	18.61
888.599	37.19
888.764	54.16
888.93	71.15
889.095	85.09
889.26	95.52
889.425	91.7
889.59	61.57
889.756	42.75
889.921	16.71
890.086	26.76
890.251	19.81
890.416	-35.21
890.581	-47.09
890.746	-47.54
890.911	-92.75
891.076	-105.97
891.241	-124.69
891.406	-37.14
891.571	-26.41
891.736	-29.36
891.901	-26.98
892.065	-15.66
892.23	-36.46
892.395	-39.45
892.56	-38.31
892.725	-27.83
892.889	-37.16
893.054	-51.98
893.219	-66.54
893.384	-89.7
893.548	-218.33
893.713	556.93
893.878	334.24
