Data from Ofra_2a_PS_8HS24_Reflection_2.txt Node
Date: Tue Jul 20 09:57:41 EDT 2021
User: Adam
Spectrometer: FLMT01687
Trigger mode: 0
Integration Time (sec): 9.450000E-1
Scans to average: 3
Electric dark correction enabled: true
Nonlinearity correction enabled: false
Boxcar width: 3
XAxis mode: Wavelengths
Number of Pixels in Spectrum: 3648
>>>>>Begin Spectral Data<<<<<
179.494	606.51
179.716	345.77
179.937	496.7
180.158	1681.25
180.38	-679.07
180.601	-136.8
180.823	-37.53
181.044	-52.19
181.265	-66.99
181.486	127.1
181.708	904.35
181.929	-33.02
182.15	104.55
182.372	-38.27
182.593	-45.55
182.814	313.17
183.035	226.03
183.257	138.87
183.478	139.9
183.699	151.85
183.92	108.31
184.141	118.59
184.363	101.94
184.584	86.85
184.805	93.4
185.026	106.81
185.247	49.63
185.468	49.91
185.689	44.21
185.91	43.54
186.132	46.2
186.353	6.15
186.574	9.91
186.795	17.78
187.016	12.95
187.237	11.66
187.458	10.47
187.679	7.34
187.9	35.89
188.121	47.59
188.342	64.78
188.563	84.18
188.784	87.89
189.005	82.9
189.226	75.84
189.447	78.43
189.667	72.55
189.888	65.67
190.109	56.55
190.33	45.14
190.551	41.43
190.772	24.23
190.993	31.7
191.214	34.74
191.434	31.74
191.655	32.88
191.876	33.25
192.097	38.26
192.318	49.59
192.538	50.36
192.759	55.3
192.98	59.97
193.201	67.31
193.421	71.62
193.642	66.9
193.863	70.67
194.083	53.97
194.304	24.08
194.525	28.13
194.745	11.1
194.966	9.22
195.187	15.88
195.407	11.7
195.628	17.62
195.848	38.17
196.069	39.89
196.29	32.22
196.51	30.55
196.731	47.36
196.951	57.31
197.172	57.42
197.392	39.27
197.613	30.3
197.833	46.35
198.054	41.87
198.274	26.49
198.495	37.28
198.715	24.99
198.936	26.69
199.156	31.53
199.377	20.07
199.597	33.18
199.817	27.12
200.038	31.88
200.258	48.88
200.479	50.44
200.699	45.29
200.919	24.82
201.14	22.6
201.36	27.48
201.58	33.93
201.801	21.95
202.021	18.13
202.241	11.92
202.461	29.33
202.682	41.08
202.902	48.45
203.122	42.48
203.342	52.74
203.563	64.81
203.783	71.56
204.003	75.9
204.223	63.34
204.443	58.43
204.663	55.56
204.884	53.3
205.104	47.18
205.324	57.03
205.544	56.58
205.764	57.86
205.984	62.96
206.204	60.79
206.424	59.13
206.644	56.11
206.864	46.95
207.084	51.12
207.304	39.53
207.525	21.65
207.745	42.66
207.964	37.1
208.184	30.91
208.404	26.69
208.624	17.33
208.844	19.57
209.064	37.74
209.284	32.15
209.504	23.51
209.724	14.59
209.944	11.52
210.164	13.7
210.384	37.68
210.604	26.32
210.823	14.48
211.043	15.87
211.263	29.72
211.483	35.27
211.703	36.16
211.922	27.63
212.142	30.14
212.362	33.07
212.582	37.55
212.801	34.95
213.021	26.16
213.241	19.24
213.461	5.77
213.68	8.15
213.9	6.96
214.12	8.77
214.339	9.05
214.559	23.06
214.779	30.47
214.998	35.92
215.218	36.26
215.438	38.29
215.657	30.61
215.877	30
216.096	20.41
216.316	6.13
216.535	14.61
216.755	3.55
216.974	-6.23
217.194	7.78
217.413	21.81
217.633	26.5
217.852	40.96
218.072	19.39
218.291	41.9
218.511	39.2
218.73	26.56
218.95	17.51
219.169	24.89
219.389	26.61
219.608	44.57
219.827	39.55
220.047	55.25
220.266	48.34
220.485	45.17
220.705	30.55
220.924	34.69
221.143	15.75
221.363	1.56
221.582	-4.59
221.801	7.98
222.021	17.03
222.24	15.77
222.459	4.27
222.678	16.39
222.897	12.08
223.117	28.55
223.336	20.94
223.555	6.26
223.774	20.54
223.993	35.47
224.213	26.24
224.432	44.05
224.651	28.28
224.87	43.43
225.089	54.11
225.308	54.64
225.527	47.14
225.746	55.39
225.965	51.37
226.184	43.04
226.404	21.32
226.623	20.08
226.842	10.24
227.061	15.51
227.28	21.15
227.499	19.67
227.718	25.11
227.936	25.03
228.155	18.04
228.374	27.42
228.593	19.81
228.812	22.71
229.031	21.87
229.25	26.96
229.469	38.05
229.688	45.73
229.907	32.14
230.125	43.02
230.344	38.16
230.563	42.24
230.782	32.84
231.001	30.08
231.22	32.74
231.438	39.41
231.657	33.21
231.876	31.69
232.095	31.68
232.313	44.78
232.532	45.78
232.751	41.73
232.969	51.38
233.188	57.3
233.407	54.17
233.625	47.73
233.844	41.52
234.063	38.37
234.281	33.4
234.5	26.84
234.719	18.6
234.937	31.59
235.156	36.18
235.374	39.5
235.593	39.09
235.811	49.58
236.03	51.07
236.249	63.65
236.467	50
236.686	52.79
236.904	46.42
237.123	38.61
237.341	33.34
237.559	30.69
237.778	38.71
237.996	38.99
238.215	33.2
238.433	36.89
238.652	39.89
238.87	43.52
239.088	37.68
239.307	28
239.525	16.63
239.743	9.42
239.962	6.21
240.18	4.31
240.398	3.91
240.617	15.32
240.835	15.48
241.053	26.73
241.271	37.59
241.49	30.94
241.708	31.68
241.926	19.48
242.144	19.03
242.363	13.3
242.581	12.25
242.799	15.31
243.017	22.46
243.235	31.5
243.453	46.42
243.672	50
243.89	47.25
244.108	44.08
244.326	36.61
244.544	37.01
244.762	23.43
244.98	16.35
245.198	5.2
245.416	3.95
245.634	15.58
245.852	26.67
246.07	20.57
246.288	19.31
246.506	19.73
246.724	37.94
246.942	51.76
247.16	40.15
247.378	26.81
247.596	40.03
247.814	28.69
248.032	26.28
248.25	11.56
248.468	14.29
248.685	14.45
248.903	12.59
249.121	10.5
249.339	21.38
249.557	32.09
249.775	19.76
249.992	7.98
250.21	5.68
250.428	0.97
250.646	6.63
250.863	5.55
251.081	0.87
251.299	26.51
251.517	41.85
251.734	48.84
251.952	65.2
252.17	44.81
252.387	45.12
252.605	49.29
252.823	23.74
253.04	17.5
253.258	22.72
253.475	18.88
253.693	30.02
253.911	23.13
254.128	15.61
254.346	24.63
254.563	19.89
254.781	15.75
254.998	12.17
255.216	14.67
255.433	11.39
255.651	14.65
255.868	16.42
256.086	23.02
256.303	20.34
256.521	25.34
256.738	23.43
256.956	25.12
257.173	17.41
257.39	21.56
257.608	24.19
257.825	25.29
258.043	28.41
258.26	30.5
258.477	32.13
258.695	43.04
258.912	54.53
259.129	40.37
259.346	38.49
259.564	34.93
259.781	34.52
259.998	42.25
260.216	42.54
260.433	31.72
260.65	43.29
260.867	36.42
261.084	36.81
261.302	34.66
261.519	26.13
261.736	13.38
261.953	9.85
262.17	16.03
262.387	32.74
262.604	20.3
262.822	21.72
263.039	19.61
263.256	23.08
263.473	23.08
263.69	7.6
263.907	-4.07
264.124	8.97
264.341	-1.5
264.558	6.54
264.775	12.04
264.992	7.98
265.209	24.35
265.426	29.84
265.643	27.16
265.86	37.24
266.077	44.22
266.294	42.27
266.51	42.35
266.727	30.96
266.944	23.84
267.161	21.63
267.378	11.16
267.595	-6.92
267.812	-4.56
268.028	8.47
268.245	15.76
268.462	24.15
268.679	31.3
268.896	25.67
269.112	37.7
269.329	39.6
269.546	41.44
269.763	46.42
269.979	38.59
270.196	35.54
270.413	40.33
270.629	34.63
270.846	39.52
271.063	33.36
271.279	23.32
271.496	24.54
271.712	25.33
271.929	36.69
272.146	44.94
272.362	26.53
272.579	27.18
272.795	37.36
273.012	30.5
273.228	31.83
273.445	22.27
273.661	15.08
273.878	30.06
274.094	30.95
274.311	28.72
274.527	25.01
274.744	23.55
274.96	19.64
275.177	26.49
275.393	26.59
275.609	31.84
275.826	27.58
276.042	45.56
276.259	51.57
276.475	57.64
276.691	60.1
276.908	48.92
277.124	52.18
277.34	55.78
277.557	49.62
277.773	41.22
277.989	31.6
278.205	17.17
278.422	31.3
278.638	32.83
278.854	34.86
279.07	18.35
279.286	19.8
279.503	20.25
279.719	27.41
279.935	18.47
280.151	19.97
280.367	14.49
280.583	26.77
280.799	27.57
281.016	31.6
281.232	22.84
281.448	15.69
281.664	4.46
281.88	11.48
282.096	15.21
282.312	11.63
282.528	14.57
282.744	28.48
282.96	38.99
283.176	42.58
283.392	49.19
283.608	44.24
283.824	42.25
284.04	40.1
284.256	40.04
284.471	35.51
284.687	29.75
284.903	24.17
285.119	16.3
285.335	22.87
285.551	31.05
285.767	30.6
285.982	29.16
286.198	31.41
286.414	46.37
286.63	50.53
286.846	47.93
287.061	38.53
287.277	43.79
287.493	42.48
287.709	36.09
287.924	23.07
288.14	30.77
288.356	35.66
288.571	36.42
288.787	38.39
289.003	46.84
289.218	52.86
289.434	54.37
289.65	52.56
289.865	46.49
290.081	52.11
290.296	50.24
290.512	44.6
290.727	54.95
290.943	55.03
291.159	43.95
291.374	43.17
291.59	28.05
291.805	16.21
292.021	4.81
292.236	0.12
292.451	-0.15
292.667	16.1
292.882	14.77
293.098	16.29
293.313	20.07
293.529	29.06
293.744	25.84
293.959	22.26
294.175	21.69
294.39	32.55
294.605	39.89
294.821	33.28
295.036	33.34
295.251	34.36
295.467	38.18
295.682	31.65
295.897	20.56
296.112	10.11
296.328	13.42
296.543	10.11
296.758	9.55
296.973	8.51
297.188	3.75
297.404	9.19
297.619	16.82
297.834	27.22
298.049	21.89
298.264	23.73
298.479	12.95
298.694	26.23
298.909	27.67
299.125	27.29
299.34	20.11
299.555	29.05
299.77	25.6
299.985	31.18
300.2	26.39
300.415	23.44
300.63	13.61
300.845	15.71
301.06	8.18
301.275	15.92
301.49	23.78
301.704	18.94
301.919	13.11
302.134	18.93
302.349	12.28
302.564	8.78
302.779	4.1
302.994	-0.73
303.209	4.71
303.423	21.65
303.638	28.41
303.853	35.24
304.068	50.05
304.283	46.1
304.497	50.24
304.712	46.09
304.927	39.14
305.142	37.47
305.356	38.75
305.571	37.73
305.786	38.62
306	35.18
306.215	33.34
306.43	38.2
306.644	39.29
306.859	43.67
307.074	36.46
307.288	33.2
307.503	25.95
307.717	23.39
307.932	22.52
308.147	24.23
308.361	19.89
308.576	28.23
308.79	30.63
309.005	29.79
309.219	33.57
309.434	29.41
309.648	21.61
309.863	26.41
310.077	15.1
310.292	9.63
310.506	29.76
310.72	33.65
310.935	36.74
311.149	34.58
311.364	34.49
311.578	35.88
311.792	34.4
312.007	22.51
312.221	16.7
312.435	14.31
312.649	30.43
312.864	15.68
313.078	25.83
313.292	35.26
313.507	35.74
313.721	47.67
313.935	60.12
314.149	40.89
314.363	48.88
314.578	65.08
314.792	63.2
315.006	62.28
315.22	61.65
315.434	51.67
315.648	49.01
315.862	44.63
316.077	27.03
316.291	34.38
316.505	38.35
316.719	23.66
316.933	28.37
317.147	30.48
317.361	35.5
317.575	41.7
317.789	32.45
318.003	32.93
318.217	39.61
318.431	38.42
318.645	39.72
318.859	27.25
319.073	17.38
319.287	19.49
319.5	13.79
319.714	15.22
319.928	18.67
320.142	19.72
320.356	37.13
320.57	40.52
320.784	40.06
320.997	52.66
321.211	56.5
321.425	44.84
321.639	43.85
321.853	33.82
322.066	32.85
322.28	34.42
322.494	31.76
322.707	23.14
322.921	31.32
323.135	25.03
323.349	26.41
323.562	31.97
323.776	33.3
323.989	24.03
324.203	27.08
324.417	19.39
324.63	19.43
324.844	15.91
325.057	19.5
325.271	7.93
325.485	18.95
325.698	19.98
325.912	29.77
326.125	38.29
326.339	43.43
326.552	41.74
326.766	50.47
326.979	46.8
327.193	53.9
327.406	52.34
327.619	39.57
327.833	37.83
328.046	16.95
328.26	9.21
328.473	13.36
328.686	4.24
328.9	-7.7
329.113	-4.42
329.326	1.8
329.54	13
329.753	17.5
329.966	18.91
330.179	25.22
330.393	37.34
330.606	41.45
330.819	47.45
331.032	49.22
331.246	48.78
331.459	48.81
331.672	47.44
331.885	37.78
332.098	39.55
332.311	24.26
332.525	22.22
332.738	24.66
332.951	26.2
333.164	20.35
333.377	19.39
333.59	23.92
333.803	24.04
334.016	23.86
334.229	18.39
334.442	20.85
334.655	34.35
334.868	40.37
335.081	36.78
335.294	54.43
335.507	54.29
335.72	50.87
335.933	56.04
336.146	57.54
336.359	55.61
336.572	55.75
336.785	49.81
336.997	57.79
337.21	62.94
337.423	43.92
337.636	37.42
337.849	42.1
338.062	45.01
338.274	37.44
338.487	23.97
338.7	19.75
338.913	26.86
339.125	18.8
339.338	15.57
339.551	17.31
339.763	16.03
339.976	20.19
340.189	15.62
340.402	16.97
340.614	22.53
340.827	16.97
341.039	15.87
341.252	24.7
341.465	20.63
341.677	15.99
341.89	16.39
342.102	12.39
342.315	22.91
342.527	13.57
342.74	-2.78
342.952	6.55
343.165	24.7
343.377	31.82
343.59	32.25
343.802	30.05
344.015	36.87
344.227	45.59
344.44	51.38
344.652	47.59
344.864	41.39
345.077	37.93
345.289	35.09
345.502	32.9
345.714	19.65
345.926	12
346.139	14.15
346.351	6.62
346.563	12.5
346.775	15.43
346.988	20.24
347.2	30.32
347.412	25.34
347.624	27.4
347.837	30.73
348.049	27.92
348.261	23.52
348.473	16.81
348.685	20.19
348.897	18.46
349.11	14.42
349.322	12.34
349.534	12.04
349.746	24.73
349.958	29.18
350.17	24.82
350.382	27.86
350.594	24.36
350.806	37.55
351.018	48.09
351.23	38.36
351.442	37.85
351.654	44.54
351.866	51.11
352.078	46.14
352.29	44.44
352.502	39.03
352.714	42.83
352.926	44.79
353.138	28.89
353.35	15.66
353.561	17.48
353.773	7.47
353.985	16.83
354.197	8.42
354.409	3.93
354.621	8.61
354.832	10.22
355.044	16.83
355.256	19.88
355.468	5.97
355.679	9.8
355.891	12.88
356.103	10.53
356.314	13.1
356.526	9.37
356.738	10.8
356.949	11.77
357.161	15.6
357.373	15.32
357.584	25.92
357.796	20.61
358.008	21.94
358.219	27.56
358.431	30.03
358.642	26.39
358.854	26.43
359.065	23.74
359.277	25.82
359.488	18.37
359.7	16.95
359.911	19.39
360.123	25.58
360.334	22.02
360.546	14.39
360.757	21.93
360.969	34.46
361.18	35.63
361.391	34.46
361.603	32.75
361.814	39.26
362.025	40.67
362.237	40.94
362.448	37.68
362.659	27.02
362.871	29.62
363.082	33.8
363.293	35.6
363.504	38.15
363.716	29.67
363.927	26.6
364.138	34.17
364.349	31.28
364.56	23.18
364.772	23.05
364.983	16.48
365.194	22.4
365.405	23.54
365.616	16.92
365.827	18.98
366.038	34.71
366.25	32.98
366.461	43.53
366.672	36.95
366.883	38.92
367.094	44.6
367.305	45.11
367.516	36.97
367.727	30.35
367.938	24.14
368.149	31.89
368.36	26.18
368.571	17.42
368.781	13.19
368.992	10.77
369.203	13.8
369.414	15.99
369.625	12.97
369.836	13.16
370.047	17.56
370.258	19.66
370.468	21.86
370.679	16.46
370.89	18.06
371.101	13.66
371.312	16.86
371.522	21.56
371.733	11.52
371.944	9.51
372.155	-1.46
372.365	0.34
372.576	4.28
372.787	3.57
372.997	-4.06
373.208	9.2
373.419	9.94
373.629	30.51
373.84	24.32
374.05	30.48
374.261	28.18
374.472	35.39
374.682	27.31
374.893	26.89
375.103	24.71
375.314	25.29
375.524	17.95
375.735	21.11
375.945	19.64
376.156	20.47
376.366	17.79
376.577	15.13
376.787	21.83
376.997	26.87
377.208	19.84
377.418	15.03
377.629	13.94
377.839	25.57
378.049	26.86
378.26	26.59
378.47	26.7
378.68	33.03
378.89	29.25
379.101	21.61
379.311	11.65
379.521	12.29
379.732	-4.13
379.942	-8.65
380.152	-6.17
380.362	4.35
380.572	15.9
380.783	14.17
380.993	8.69
381.203	21.39
381.413	26.78
381.623	25.01
381.833	21.77
382.043	17.28
382.253	24.01
382.463	29.24
382.674	25.51
382.884	19.42
383.094	19.1
383.304	15.19
383.514	22.25
383.724	18.49
383.934	14.13
384.144	13.39
384.353	16.54
384.563	10.97
384.773	14.31
384.983	12.7
385.193	15.42
385.403	18.06
385.613	17.94
385.823	14.51
386.033	19.27
386.242	20.17
386.452	19.91
386.662	16.86
386.872	14.41
387.082	9.52
387.291	11.97
387.501	11.19
387.711	8.33
387.921	6.67
388.13	5.92
388.34	5.4
388.55	10.01
388.759	7.62
388.969	5.39
389.179	8.07
389.388	7.98
389.598	7.05
389.807	9.1
390.017	7.08
390.227	6.64
390.436	7.52
390.646	7.22
390.855	6.19
391.065	7.01
391.274	4.3
391.484	5.21
391.693	5.22
391.903	4.46
392.112	3.26
392.322	4.53
392.531	5.5
392.74	6.14
392.95	6.93
393.159	7.47
393.369	7.35
393.578	7.87
393.787	7.03
393.997	7.74
394.206	8.12
394.415	7.47
394.625	5.86
394.834	4.71
395.043	4.85
395.252	4.67
395.462	3.61
395.671	3.51
395.88	3.35
396.089	4.01
396.298	4.42
396.508	3.86
396.717	3.49
396.926	3.18
397.135	2.92
397.344	2.78
397.553	3
397.762	3.09
397.971	3.22
398.181	3.02
398.39	2.96
398.599	3.12
398.808	3.24
399.017	3.29
399.226	3.52
399.435	3.64
399.644	3.78
399.853	3.97
400.062	3.61
400.27	3.45
400.479	3.15
400.688	3.13
400.897	3.16
401.106	3.3
401.315	3.09
401.524	3.44
401.733	3.39
401.941	3.55
402.15	3.3
402.359	3.17
402.568	3
402.777	3.01
402.985	2.84
403.194	2.87
403.403	2.7
403.612	2.77
403.82	2.71
404.029	2.81
404.238	2.87
404.446	2.78
404.655	2.71
404.864	2.72
405.072	2.63
405.281	2.54
405.489	2.57
405.698	2.49
405.906	2.42
406.115	2.48
406.324	2.48
406.532	2.57
406.741	2.74
406.949	2.64
407.158	2.77
407.366	2.94
407.574	2.96
407.783	2.98
407.991	2.89
408.2	2.77
408.408	2.78
408.617	2.69
408.825	2.65
409.033	2.62
409.242	2.57
409.45	2.64
409.658	2.7
409.867	2.7
410.075	2.67
410.283	2.58
410.491	2.54
410.7	2.6
410.908	2.56
411.116	2.52
411.324	2.53
411.533	2.45
411.741	2.48
411.949	2.51
412.157	2.45
412.365	2.51
412.573	2.51
412.781	2.51
412.99	2.67
413.198	2.69
413.406	2.65
413.614	2.72
413.822	2.68
414.03	2.55
414.238	2.59
414.446	2.47
414.654	2.46
414.862	2.42
415.07	2.42
415.278	2.3
415.486	2.48
415.694	2.39
415.902	2.33
416.109	2.31
416.317	2.22
416.525	2.25
416.733	2.41
416.941	2.26
417.149	2.39
417.357	2.5
417.564	2.52
417.772	2.65
417.98	2.55
418.188	2.45
418.395	2.58
418.603	2.35
418.811	2.19
419.019	2.18
419.226	2.22
419.434	2.1
419.642	2.06
419.849	1.98
420.057	2.06
420.265	2.07
420.472	2.06
420.68	1.93
420.887	2.02
421.095	2.13
421.302	2.17
421.51	2.23
421.717	2.29
421.925	2.17
422.132	2.25
422.34	2.22
422.547	2.16
422.755	2.09
422.962	1.96
423.17	1.89
423.377	2.01
423.585	2.02
423.792	2.01
423.999	1.95
424.207	1.94
424.414	2.1
424.621	2.12
424.829	2
425.036	1.93
425.243	2.02
425.451	2.09
425.658	2.16
425.865	2.01
426.072	2.16
426.28	2.29
426.487	2.28
426.694	2.25
426.901	2.15
427.108	2.1
427.315	2.1
427.523	2.01
427.73	1.93
427.937	1.92
428.144	1.85
428.351	1.99
428.558	1.99
428.765	2.01
428.972	2.04
429.179	2.01
429.386	2.14
429.593	2.11
429.8	2.07
430.007	2.1
430.214	2.09
430.421	2.09
430.628	2
430.835	1.94
431.042	1.98
431.249	1.98
431.456	1.98
431.662	2.02
431.869	2.13
432.076	2.3
432.283	2.27
432.49	2.27
432.697	2.27
432.903	2.31
433.11	2.42
433.317	2.36
433.524	2.24
433.73	2.3
433.937	2.24
434.144	2.37
434.35	2.31
434.557	2.2
434.764	2.15
434.97	2.25
435.177	2.2
435.384	2.35
435.59	2.29
435.797	2.36
436.003	2.4
436.21	2.44
436.416	2.43
436.623	2.48
436.829	2.44
437.036	2.45
437.242	2.45
437.449	2.47
437.655	2.47
437.862	2.46
438.068	2.51
438.275	2.55
438.481	2.57
438.687	2.62
438.894	2.6
439.1	2.62
439.307	2.64
439.513	2.6
439.719	2.6
439.926	2.54
440.132	2.49
440.338	2.49
440.544	2.49
440.751	2.45
440.957	2.37
441.163	2.43
441.369	2.41
441.575	2.41
441.782	2.4
441.988	2.42
442.194	2.54
442.4	2.64
442.606	2.62
442.812	2.68
443.018	2.71
443.224	2.77
443.431	2.77
443.637	2.67
443.843	2.72
444.049	2.7
444.255	2.63
444.461	2.57
444.667	2.51
444.873	2.48
445.079	2.57
445.284	2.49
445.49	2.43
445.696	2.53
445.902	2.62
446.108	2.68
446.314	2.74
446.52	2.7
446.726	2.74
446.931	2.8
447.137	2.78
447.343	2.72
447.549	2.69
447.755	2.61
447.96	2.61
448.166	2.67
448.372	2.65
448.578	2.66
448.783	2.69
448.989	2.75
449.195	2.79
449.4	2.81
449.606	2.77
449.812	2.87
450.017	2.86
450.223	2.85
450.428	2.81
450.634	2.85
450.84	2.87
451.045	2.83
451.251	2.79
451.456	2.8
451.662	2.81
451.867	2.8
452.073	2.78
452.278	2.8
452.483	2.84
452.689	2.84
452.894	2.82
453.1	2.81
453.305	2.85
453.51	2.87
453.716	2.83
453.921	2.83
454.127	2.8
454.332	2.8
454.537	2.88
454.742	2.87
454.948	2.83
455.153	2.85
455.358	2.87
455.563	2.92
455.769	2.94
455.974	2.89
456.179	2.87
456.384	2.91
456.589	2.92
456.795	2.87
457	2.87
457.205	2.83
457.41	2.82
457.615	2.88
457.82	2.95
458.025	2.96
458.23	2.99
458.435	2.94
458.64	2.99
458.845	3.01
459.05	2.97
459.255	2.89
459.46	2.88
459.665	2.94
459.87	2.96
460.075	2.95
460.28	2.96
460.485	3.02
460.69	2.96
460.895	3.01
461.099	3.01
461.304	3.01
461.509	2.97
461.714	3
461.919	2.96
462.123	3.08
462.328	3.06
462.533	3.06
462.738	3.07
462.942	3.17
463.147	3.12
463.352	3.17
463.556	3.16
463.761	3.17
463.966	3.15
464.17	3.18
464.375	3.1
464.58	3.1
464.784	3.12
464.989	3.14
465.193	3.21
465.398	3.27
465.602	3.26
465.807	3.35
466.011	3.38
466.216	3.37
466.42	3.44
466.625	3.4
466.829	3.41
467.034	3.42
467.238	3.45
467.443	3.48
467.647	3.45
467.851	3.39
468.056	3.38
468.26	3.32
468.464	3.33
468.669	3.36
468.873	3.36
469.077	3.41
469.282	3.45
469.486	3.44
469.69	3.53
469.894	3.59
470.099	3.54
470.303	3.55
470.507	3.54
470.711	3.48
470.915	3.55
471.119	3.48
471.324	3.45
471.528	3.5
471.732	3.52
471.936	3.58
472.14	3.65
472.344	3.65
472.548	3.71
472.752	3.75
472.956	3.77
473.16	3.76
473.364	3.75
473.568	3.77
473.772	3.8
473.976	3.8
474.18	3.79
474.384	3.76
474.588	3.78
474.792	3.78
474.995	3.74
475.199	3.69
475.403	3.71
475.607	3.74
475.811	3.76
476.015	3.78
476.218	3.77
476.422	3.81
476.626	3.87
476.83	3.84
477.033	3.86
477.237	3.86
477.441	3.88
477.644	3.9
477.848	3.89
478.052	3.89
478.255	3.9
478.459	3.95
478.663	3.99
478.866	4.03
479.07	4.11
479.273	4.16
479.477	4.2
479.681	4.22
479.884	4.16
480.088	4.18
480.291	4.21
480.495	4.19
480.698	4.17
480.901	4.17
481.105	4.23
481.308	4.26
481.512	4.25
481.715	4.24
481.919	4.22
482.122	4.23
482.325	4.23
482.529	4.27
482.732	4.27
482.935	4.25
483.138	4.26
483.342	4.31
483.545	4.31
483.748	4.35
483.952	4.32
484.155	4.38
484.358	4.41
484.561	4.4
484.764	4.41
484.967	4.48
485.171	4.44
485.374	4.42
485.577	4.44
485.78	4.47
485.983	4.5
486.186	4.44
486.389	4.4
486.592	4.45
486.795	4.49
486.998	4.44
487.201	4.43
487.404	4.46
487.607	4.48
487.81	4.54
488.013	4.51
488.216	4.51
488.419	4.53
488.622	4.49
488.825	4.46
489.028	4.46
489.231	4.41
489.433	4.4
489.636	4.35
489.839	4.35
490.042	4.4
490.245	4.43
490.447	4.46
490.65	4.5
490.853	4.51
491.056	4.54
491.258	4.55
491.461	4.51
491.664	4.48
491.866	4.49
492.069	4.46
492.272	4.49
492.474	4.49
492.677	4.47
492.879	4.51
493.082	4.55
493.285	4.54
493.487	4.52
493.69	4.48
493.892	4.5
494.095	4.51
494.297	4.55
494.5	4.54
494.702	4.57
494.905	4.63
495.107	4.66
495.309	4.61
495.512	4.65
495.714	4.68
495.917	4.66
496.119	4.68
496.321	4.68
496.524	4.7
496.726	4.71
496.928	4.69
497.13	4.65
497.333	4.69
497.535	4.67
497.737	4.65
497.939	4.66
498.142	4.66
498.344	4.68
498.546	4.76
498.748	4.71
498.95	4.72
499.152	4.75
499.355	4.76
499.557	4.83
499.759	4.88
499.961	4.88
500.163	4.96
500.365	4.99
500.567	5.01
500.769	5.05
500.971	5.01
501.173	4.99
501.375	4.96
501.577	4.98
501.779	4.97
501.981	4.99
502.183	4.99
502.385	5.04
502.587	5.08
502.788	5.07
502.99	5.03
503.192	5.05
503.394	5.07
503.596	5.09
503.798	5.18
503.999	5.16
504.201	5.2
504.403	5.26
504.605	5.32
504.806	5.34
505.008	5.34
505.21	5.3
505.411	5.34
505.613	5.37
505.815	5.36
506.016	5.35
506.218	5.34
506.42	5.38
506.621	5.41
506.823	5.43
507.024	5.46
507.226	5.46
507.427	5.44
507.629	5.49
507.83	5.49
508.032	5.53
508.233	5.56
508.435	5.57
508.636	5.59
508.838	5.68
509.039	5.73
509.24	5.76
509.442	5.71
509.643	5.72
509.845	5.73
510.046	5.77
510.247	5.81
510.448	5.82
510.65	5.85
510.851	5.89
511.052	5.92
511.254	5.94
511.455	5.96
511.656	5.91
511.857	5.9
512.058	5.95
512.26	5.97
512.461	5.99
512.662	5.98
512.863	6
513.064	6.01
513.265	6.04
513.466	6.04
513.667	6.02
513.868	6.04
514.069	6.09
514.27	6.05
514.471	6.09
514.672	6.1
514.873	6.1
515.074	6.17
515.275	6.18
515.476	6.14
515.677	6.21
515.878	6.25
516.079	6.28
516.28	6.25
516.481	6.23
516.682	6.26
516.882	6.29
517.083	6.28
517.284	6.23
517.485	6.24
517.686	6.25
517.886	6.27
518.087	6.25
518.288	6.28
518.488	6.31
518.689	6.31
518.89	6.35
519.091	6.37
519.291	6.36
519.492	6.37
519.692	6.36
519.893	6.35
520.094	6.38
520.294	6.33
520.495	6.33
520.695	6.36
520.896	6.37
521.096	6.39
521.297	6.42
521.497	6.43
521.698	6.46
521.898	6.49
522.099	6.5
522.299	6.51
522.499	6.52
522.7	6.54
522.9	6.54
523.101	6.52
523.301	6.51
523.501	6.54
523.702	6.53
523.902	6.55
524.102	6.52
524.302	6.53
524.503	6.57
524.703	6.6
524.903	6.6
525.103	6.61
525.304	6.62
525.504	6.65
525.704	6.66
525.904	6.65
526.104	6.68
526.304	6.67
526.504	6.65
526.705	6.63
526.905	6.66
527.105	6.63
527.305	6.63
527.505	6.59
527.705	6.6
527.905	6.64
528.105	6.66
528.305	6.63
528.505	6.67
528.705	6.69
528.905	6.69
529.105	6.72
529.304	6.76
529.504	6.73
529.704	6.78
529.904	6.8
530.104	6.81
530.304	6.85
530.503	6.82
530.703	6.81
530.903	6.85
531.103	6.85
531.303	6.86
531.502	6.86
531.702	6.86
531.902	6.87
532.101	6.89
532.301	6.87
532.501	6.88
532.7	6.86
532.9	6.89
533.1	6.9
533.299	6.95
533.499	6.96
533.698	7.04
533.898	7.05
534.097	7.08
534.297	7.07
534.496	7.07
534.696	7.06
534.895	7.12
535.095	7.1
535.294	7.07
535.494	7.06
535.693	7.09
535.892	7.1
536.092	7.12
536.291	7.09
536.491	7.1
536.69	7.13
536.889	7.14
537.088	7.16
537.288	7.21
537.487	7.22
537.686	7.24
537.886	7.25
538.085	7.29
538.284	7.33
538.483	7.34
538.682	7.34
538.882	7.38
539.081	7.4
539.28	7.44
539.479	7.47
539.678	7.51
539.877	7.55
540.076	7.58
540.275	7.59
540.474	7.57
540.673	7.59
540.872	7.62
541.071	7.63
541.27	7.61
541.469	7.68
541.668	7.72
541.867	7.74
542.066	7.78
542.265	7.8
542.464	7.83
542.663	7.92
542.862	7.93
543.06	7.99
543.259	8.04
543.458	8.04
543.657	8.05
543.856	8.08
544.054	8.09
544.253	8.11
544.452	8.06
544.651	8.08
544.849	8.11
545.048	8.17
545.247	8.18
545.445	8.17
545.644	8.21
545.843	8.28
546.041	8.32
546.24	8.38
546.438	8.45
546.637	8.51
546.836	8.56
547.034	8.59
547.233	8.64
547.431	8.69
547.63	8.77
547.828	8.77
548.027	8.77
548.225	8.83
548.423	8.88
548.622	8.89
548.82	8.93
549.019	8.93
549.217	9
549.415	9.09
549.614	9.12
549.812	9.16
550.01	9.25
550.209	9.3
550.407	9.35
550.605	9.41
550.803	9.44
551.002	9.51
551.2	9.63
551.398	9.69
551.596	9.79
551.794	9.87
551.993	9.9
552.191	10.01
552.389	10.1
552.587	10.07
552.785	10.1
552.983	10.14
553.181	10.17
553.379	10.23
553.577	10.28
553.775	10.31
553.973	10.4
554.171	10.44
554.369	10.48
554.567	10.58
554.765	10.65
554.963	10.69
555.161	10.78
555.359	10.82
555.557	10.94
555.755	11.04
555.952	11.08
556.15	11.13
556.348	11.23
556.546	11.27
556.744	11.4
556.941	11.47
557.139	11.54
557.337	11.63
557.535	11.73
557.732	11.8
557.93	11.93
558.128	11.94
558.325	12.03
558.523	12.07
558.721	12.14
558.918	12.19
559.116	12.22
559.313	12.34
559.511	12.48
559.708	12.53
559.906	12.63
560.104	12.74
560.301	12.82
560.498	12.93
560.696	12.93
560.893	12.99
561.091	13.08
561.288	13.17
561.486	13.21
561.683	13.32
561.88	13.42
562.078	13.5
562.275	13.59
562.473	13.68
562.67	13.76
562.867	13.86
563.064	13.94
563.262	14.04
563.459	14.15
563.656	14.27
563.853	14.39
564.051	14.45
564.248	14.55
564.445	14.64
564.642	14.69
564.839	14.79
565.036	14.83
565.234	14.91
565.431	15.01
565.628	15.08
565.825	15.18
566.022	15.24
566.219	15.26
566.416	15.34
566.613	15.41
566.81	15.48
567.007	15.52
567.204	15.53
567.401	15.63
567.598	15.71
567.795	15.73
567.991	15.78
568.188	15.84
568.385	15.96
568.582	16.07
568.779	16.13
568.976	16.23
569.172	16.33
569.369	16.38
569.566	16.4
569.763	16.46
569.96	16.47
570.156	16.52
570.353	16.56
570.55	16.63
570.746	16.66
570.943	16.78
571.14	16.78
571.336	16.82
571.533	16.88
571.729	16.92
571.926	16.94
572.123	16.94
572.319	16.96
572.516	17.01
572.712	17.05
572.909	17.05
573.105	17.06
573.302	17.06
573.498	17.12
573.695	17.16
573.891	17.18
574.087	17.17
574.284	17.17
574.48	17.21
574.677	17.24
574.873	17.3
575.069	17.35
575.266	17.39
575.462	17.49
575.658	17.54
575.854	17.54
576.051	17.56
576.247	17.53
576.443	17.51
576.639	17.45
576.835	17.42
577.032	17.41
577.228	17.43
577.424	17.46
577.62	17.47
577.816	17.48
578.012	17.54
578.208	17.54
578.404	17.55
578.6	17.53
578.796	17.56
578.993	17.61
579.189	17.61
579.384	17.55
579.58	17.54
579.776	17.5
579.972	17.48
580.168	17.44
580.364	17.39
580.56	17.4
580.756	17.41
580.952	17.41
581.148	17.44
581.343	17.47
581.539	17.48
581.735	17.5
581.931	17.52
582.127	17.49
582.322	17.48
582.518	17.46
582.714	17.46
582.909	17.42
583.105	17.33
583.301	17.28
583.496	17.29
583.692	17.27
583.888	17.23
584.083	17.24
584.279	17.28
584.474	17.29
584.67	17.29
584.866	17.31
585.061	17.34
585.257	17.4
585.452	17.38
585.648	17.32
585.843	17.32
586.039	17.29
586.234	17.27
586.429	17.25
586.625	17.21
586.82	17.16
587.015	17.17
587.211	17.21
587.406	17.28
587.601	17.31
587.797	17.31
587.992	17.29
588.187	17.36
588.383	17.39
588.578	17.35
588.773	17.34
588.968	17.37
589.163	17.44
589.359	17.45
589.554	17.45
589.749	17.47
589.944	17.55
590.139	17.57
590.334	17.53
590.529	17.54
590.724	17.61
590.919	17.64
591.114	17.65
591.309	17.67
591.504	17.7
591.699	17.72
591.894	17.74
592.089	17.75
592.284	17.73
592.479	17.76
592.674	17.8
592.869	17.82
593.064	17.95
593.259	17.98
593.454	18
593.648	18.09
593.843	18.14
594.038	18.17
594.233	18.21
594.428	18.25
594.622	18.29
594.817	18.35
595.012	18.39
595.206	18.43
595.401	18.47
595.596	18.55
595.79	18.63
595.985	18.71
596.18	18.82
596.374	18.87
596.569	18.97
596.763	19.05
596.958	19.07
597.153	19.06
597.347	19.11
597.542	19.16
597.736	19.26
597.931	19.32
598.125	19.38
598.319	19.46
598.514	19.56
598.708	19.6
598.903	19.63
599.097	19.68
599.291	19.74
599.486	19.82
599.68	19.91
599.874	19.96
600.069	19.96
600.263	19.97
600.457	19.94
600.651	19.93
600.846	19.93
601.04	19.87
601.234	19.9
601.428	19.96
601.622	20.06
601.817	20.14
602.011	20.22
602.205	20.24
602.399	20.29
602.593	20.26
602.787	20.3
602.981	20.28
603.175	20.26
603.369	20.25
603.563	20.22
603.757	20.21
603.951	20.22
604.145	20.18
604.339	20.15
604.533	20.14
604.727	20.11
604.921	20.13
605.115	20.08
605.309	20.09
605.502	20.12
605.696	20.07
605.89	20.06
606.084	20.01
606.278	19.95
606.471	19.95
606.665	19.89
606.859	19.82
607.053	19.82
607.246	19.78
607.44	19.72
607.634	19.72
607.827	19.67
608.021	19.6
608.214	19.59
608.408	19.52
608.602	19.46
608.795	19.41
608.989	19.39
609.182	19.38
609.376	19.32
609.569	19.22
609.763	19.21
609.956	19.13
610.15	19.11
610.343	19
610.537	18.91
610.73	18.88
610.923	18.8
611.117	18.69
611.31	18.61
611.504	18.55
611.697	18.52
611.89	18.41
612.083	18.32
612.277	18.27
612.47	18.28
612.663	18.28
612.856	18.18
613.05	18.15
613.243	18.11
613.436	18.05
613.629	18.04
613.822	17.94
614.015	17.87
614.209	17.86
614.402	17.8
614.595	17.72
614.788	17.69
614.981	17.59
615.174	17.54
615.367	17.44
615.56	17.35
615.753	17.25
615.946	17.22
616.139	17.21
616.332	17.16
616.525	17.1
616.718	17.06
616.911	17.06
617.103	17.08
617.296	17.01
617.489	16.92
617.682	16.91
617.875	16.88
618.067	16.84
618.26	16.8
618.453	16.69
618.646	16.66
618.838	16.61
619.031	16.56
619.224	16.53
619.417	16.51
619.609	16.48
619.802	16.51
619.994	16.5
620.187	16.46
620.38	16.44
620.572	16.42
620.765	16.38
620.957	16.32
621.15	16.24
621.342	16.23
621.535	16.23
621.727	16.18
621.92	16.15
622.112	16.15
622.305	16.09
622.497	16.08
622.69	16.02
622.882	16.02
623.074	16
623.267	15.96
623.459	15.9
623.651	15.91
623.844	15.9
624.036	15.91
624.228	15.85
624.42	15.87
624.613	15.79
624.805	15.82
624.997	15.82
625.189	15.81
625.381	15.75
625.574	15.72
625.766	15.67
625.958	15.7
626.15	15.69
626.342	15.64
626.534	15.57
626.726	15.58
626.918	15.51
627.11	15.5
627.302	15.51
627.494	15.41
627.686	15.38
627.878	15.39
628.07	15.35
628.262	15.33
628.454	15.3
628.646	15.23
628.838	15.23
629.029	15.2
629.221	15.17
629.413	15.1
629.605	15.08
629.797	15.07
629.989	15.07
630.18	15.02
630.372	14.99
630.564	14.94
630.755	14.93
630.947	14.91
631.139	14.81
631.33	14.75
631.522	14.72
631.714	14.7
631.905	14.66
632.097	14.69
632.289	14.67
632.48	14.69
632.672	14.62
632.863	14.62
633.055	14.6
633.246	14.63
633.438	14.55
633.629	14.59
633.821	14.57
634.012	14.63
634.203	14.7
634.395	14.71
634.586	14.67
634.777	14.7
634.969	14.63
635.16	14.58
635.351	14.55
635.543	14.48
635.734	14.45
635.925	14.52
636.117	14.5
636.308	14.48
636.499	14.5
636.69	14.57
636.881	14.59
637.073	14.57
637.264	14.49
637.455	14.48
637.646	14.52
637.837	14.47
638.028	14.45
638.219	14.43
638.41	14.42
638.601	14.39
638.792	14.37
638.983	14.29
639.174	14.35
639.365	14.25
639.556	14.21
639.747	14.21
639.938	14.25
640.129	14.25
640.32	14.27
640.511	14.23
640.701	14.2
640.892	14.21
641.083	14.21
641.274	14.16
641.465	14.13
641.655	14.15
641.846	14.1
642.037	14.1
642.228	14.05
642.418	13.99
642.609	13.97
642.8	13.96
642.99	13.91
643.181	13.93
643.372	13.95
643.562	13.91
643.753	13.91
643.943	13.87
644.134	13.83
644.324	13.81
644.515	13.79
644.705	13.78
644.896	13.81
645.086	13.76
645.277	13.81
645.467	13.83
645.658	13.83
645.848	13.79
646.038	13.76
646.229	13.71
646.419	13.76
646.61	13.7
646.8	13.64
646.99	13.58
647.18	13.58
647.371	13.57
647.561	13.51
647.751	13.47
647.941	13.45
648.132	13.47
648.322	13.53
648.512	13.52
648.702	13.48
648.892	13.54
649.082	13.47
649.272	13.44
649.462	13.36
649.653	13.34
649.843	13.26
650.033	13.25
650.223	13.21
650.413	13.22
650.603	13.22
650.793	13.18
650.983	13.11
651.172	13.15
651.362	13.13
651.552	13.08
651.742	13.06
651.932	13.06
652.122	13.03
652.312	12.99
652.502	12.92
652.691	12.91
652.881	12.9
653.071	12.78
653.261	12.68
653.45	12.66
653.64	12.66
653.83	12.56
654.019	12.41
654.209	12.28
654.399	12.23
654.588	12.15
654.778	12.05
654.968	11.94
655.157	11.87
655.347	11.78
655.536	11.69
655.726	11.62
655.915	11.51
656.105	11.41
656.294	11.28
656.484	11.15
656.673	11.08
656.863	10.95
657.052	10.82
657.241	10.68
657.431	10.59
657.62	10.46
657.809	10.37
657.999	10.22
658.188	10.14
658.377	10.1
658.567	9.97
658.756	9.82
658.945	9.67
659.134	9.55
659.324	9.44
659.513	9.27
659.702	9.15
659.891	9.02
660.08	8.93
660.269	8.9
660.458	8.77
660.648	8.67
660.837	8.67
661.026	8.54
661.215	8.48
661.404	8.35
661.593	8.2
661.782	8.1
661.971	8.03
662.16	7.85
662.349	7.72
662.538	7.68
662.726	7.62
662.915	7.57
663.104	7.43
663.293	7.35
663.482	7.28
663.671	7.22
663.86	7.12
664.048	7.02
664.237	6.93
664.426	6.94
664.615	6.82
664.803	6.75
664.992	6.73
665.181	6.68
665.369	6.65
665.558	6.62
665.747	6.6
665.935	6.62
666.124	6.63
666.312	6.52
666.501	6.44
666.69	6.41
666.878	6.41
667.067	6.38
667.255	6.34
667.444	6.34
667.632	6.33
667.82	6.35
668.009	6.38
668.197	6.32
668.386	6.25
668.574	6.23
668.762	6.14
668.951	6.19
669.139	6.21
669.327	6.2
669.516	6.26
669.704	6.32
669.892	6.29
670.08	6.33
670.269	6.32
670.457	6.28
670.645	6.26
670.833	6.23
671.021	6.21
671.21	6.27
671.398	6.31
671.586	6.41
671.774	6.4
671.962	6.41
672.15	6.44
672.338	6.51
672.526	6.54
672.714	6.54
672.902	6.54
673.09	6.69
673.278	6.78
673.466	6.88
673.654	6.85
673.842	6.9
674.03	7
674.218	6.98
674.405	7.03
674.593	7.06
674.781	7.08
674.969	7.2
675.157	7.33
675.344	7.34
675.532	7.43
675.72	7.46
675.908	7.53
676.095	7.65
676.283	7.66
676.471	7.7
676.658	7.82
676.846	7.92
677.033	7.98
677.221	8.07
677.409	8.08
677.596	8.25
677.784	8.32
677.971	8.38
678.159	8.5
678.346	8.64
678.534	8.74
678.721	8.8
678.909	8.86
679.096	8.96
679.283	9.07
679.471	9.16
679.658	9.22
679.846	9.29
680.033	9.45
680.22	9.46
680.408	9.51
680.595	9.55
680.782	9.62
680.969	9.66
681.157	9.71
681.344	9.83
681.531	10
681.718	10.09
681.905	10.22
682.093	10.33
682.28	10.62
682.467	10.73
682.654	10.8
682.841	10.95
683.028	11.24
683.215	11.4
683.402	11.49
683.589	11.55
683.776	11.74
683.963	11.94
684.15	12.05
684.337	12.06
684.524	12.23
684.711	12.37
684.898	12.54
685.085	12.77
685.271	12.93
685.458	13.19
685.645	13.42
685.832	13.72
686.019	13.97
686.205	14.13
686.392	14.42
686.579	14.69
686.766	14.91
686.952	15.21
687.139	15.36
687.326	15.76
687.512	16.09
687.699	16.3
687.886	16.58
688.072	16.92
688.259	17.32
688.445	17.77
688.632	18.12
688.818	18.49
689.005	18.95
689.191	19.43
689.378	19.79
689.564	20.07
689.751	20.49
689.937	20.76
690.124	21.16
690.31	21.6
690.496	22.02
690.683	22.54
690.869	22.99
691.055	23.53
691.242	24.04
691.428	24.65
691.614	25.18
691.8	25.71
691.987	26.26
692.173	26.97
692.359	27.43
692.545	28.06
692.731	28.65
692.918	29.05
693.104	29.6
693.29	30.13
693.476	30.56
693.662	31.21
693.848	31.75
694.034	32.22
694.22	32.91
694.406	33.43
694.592	33.99
694.778	34.57
694.964	34.97
695.15	35.54
695.336	36.26
695.522	36.81
695.708	37.5
695.894	38.23
696.08	38.85
696.265	39.54
696.451	40.2
696.637	40.74
696.823	41.38
697.009	42
697.194	42.52
697.38	43.16
697.566	43.68
697.751	44.24
697.937	44.85
698.123	45.41
698.308	45.91
698.494	46.4
698.68	46.95
698.865	47.72
699.051	48.3
699.236	48.86
699.422	49.32
699.607	49.82
699.793	50.2
699.978	50.69
700.164	51.07
700.349	51.55
700.535	51.92
700.72	52.53
700.906	53.24
701.091	53.72
701.276	54.24
701.462	54.77
701.647	55.24
701.832	55.85
702.018	56.24
702.203	56.4
702.388	56.96
702.573	57.49
702.759	57.69
702.944	58.11
703.129	58.47
703.314	58.85
703.499	59.43
703.684	60.06
703.87	60.28
704.055	60.83
704.24	61.37
704.425	61.76
704.61	62.07
704.795	62.43
704.98	62.56
705.165	63.01
705.35	63.3
705.535	63.63
705.72	63.8
705.905	64.17
706.09	64.33
706.275	64.57
706.459	64.87
706.644	65.3
706.829	65.49
707.014	65.96
707.199	66.3
707.384	66.73
707.568	67.23
707.753	67.52
707.938	67.77
708.123	67.79
708.307	68.09
708.492	68.36
708.677	68.7
708.861	68.88
709.046	69.02
709.231	69.37
709.415	69.91
709.6	69.9
709.784	70.12
709.969	70.4
710.153	70.82
710.338	71.09
710.522	71.19
710.707	71.02
710.891	71.38
711.076	71.56
711.26	71.69
711.445	71.49
711.629	71.85
711.813	71.9
711.998	72.36
712.182	72.66
712.366	73.08
712.551	73.27
712.735	73.6
712.919	73.95
713.103	74.12
713.288	74.46
713.472	74.53
713.656	74.23
713.84	74.28
714.024	74.65
714.208	74.36
714.393	74.71
714.577	74.76
714.761	75.12
714.945	75.54
715.129	75.6
715.313	75.62
715.497	76.13
715.681	76.45
715.865	76.6
716.049	76.63
716.233	76.72
716.417	77.14
716.601	77.3
716.785	77.28
716.968	77.1
717.152	77.25
717.336	77.4
717.52	77.65
717.704	77.96
717.888	78.14
718.071	78.1
718.255	78.3
718.439	78.36
718.622	78.53
718.806	78.28
718.99	78.47
719.174	78.6
719.357	78.78
719.541	78.96
719.724	79.26
719.908	79.23
720.092	79.72
720.275	79.6
720.459	79.68
720.642	80
720.826	79.98
721.009	79.75
721.193	80.02
721.376	80.13
721.559	79.91
721.743	80
721.926	79.96
722.11	80.19
722.293	80.29
722.476	80.13
722.66	80.11
722.843	80.51
723.026	80.75
723.21	80.9
723.393	81.24
723.576	81.7
723.759	82.16
723.942	82.42
724.126	82.67
724.309	82.85
724.492	83.01
724.675	82.77
724.858	83.03
725.041	83.03
725.224	83.02
725.407	82.91
725.59	82.78
725.774	82.72
725.957	83.07
726.14	82.85
726.322	82.88
726.505	83.26
726.688	83.25
726.871	83.52
727.054	83.94
727.237	83.64
727.42	84.03
727.603	84.12
727.786	84.13
727.968	84.22
728.151	84.34
728.334	84.42
728.517	84.99
728.699	85.25
728.882	85.76
729.065	85.74
729.248	85.69
729.43	85.66
729.613	85.77
729.796	85.54
729.978	85.49
730.161	85.25
730.343	85.58
730.526	86.02
730.708	86.37
730.891	86.54
731.073	86.89
731.256	86.99
731.438	87.25
731.621	87.34
731.803	87.6
731.986	87.74
732.168	87.46
732.35	87.94
732.533	87.96
732.715	88.45
732.898	88.72
733.08	89.13
733.262	89.01
733.444	89.43
733.627	89.29
733.809	89.66
733.991	89.45
734.173	89.25
734.355	89.41
734.538	89.44
734.72	89.74
734.902	89.94
735.084	90.49
735.266	90.63
735.448	90.97
735.63	90.8
735.812	91.24
735.994	90.8
736.176	90.7
736.358	90.26
736.54	90.22
736.722	90
736.904	90.12
737.086	90.09
737.268	90.51
737.45	90.6
737.632	90.25
737.814	90.58
737.995	90.66
738.177	90.82
738.359	91.25
738.541	90.97
738.723	91.26
738.904	91.48
739.086	91.7
739.268	92.62
739.449	92.75
739.631	92.34
739.813	92.9
739.994	93.46
740.176	93.64
740.358	93.57
740.539	92.92
740.721	92.81
740.902	92.81
741.084	93.04
741.265	92.5
741.447	92.67
741.628	92.43
741.81	92.92
741.991	93.1
742.172	93.1
742.354	93.47
742.535	93.74
742.717	93.51
742.898	93.77
743.079	93.77
743.261	93.68
743.442	93.71
743.623	93.15
743.804	92.97
743.986	93.1
744.167	92.74
744.348	93.11
744.529	92.93
744.71	92.8
744.891	93
745.073	93.04
745.254	93.32
745.435	93.3
745.616	92.3
745.797	91.85
745.978	92.7
746.159	92.52
746.34	93.02
746.521	92.77
746.702	92.82
746.883	93.28
747.064	93.63
747.245	93.52
747.426	93.86
747.606	92.88
747.787	93.49
747.968	94.05
748.149	94.45
748.33	94.91
748.51	94.52
748.691	94.13
748.872	94.58
749.053	93.94
749.233	93.5
749.414	92.8
749.595	91.91
749.775	92.01
749.956	91.08
750.137	90.91
750.317	91.42
750.498	91.11
750.678	91.6
750.859	92.05
751.04	92.12
751.22	92.27
751.4	92.34
751.581	92.15
751.761	93.33
751.942	93.48
752.122	93.29
752.303	92.96
752.483	94.59
752.663	95.64
752.844	95.35
753.024	94.29
753.204	93.67
753.385	93.97
753.565	93.63
753.745	93.26
753.925	92.19
754.106	92.22
754.286	92.19
754.466	92.28
754.646	91.66
754.826	92.73
755.006	92.79
755.187	93.17
755.367	93.53
755.547	94.53
755.727	93.63
755.907	94.37
756.087	94.25
756.267	93.5
756.447	92.93
756.627	91.96
756.807	91.69
756.987	93.93
757.167	93.3
757.346	92.58
757.526	92.49
757.706	92.58
757.886	93.23
758.066	92.6
758.246	91.96
758.425	92.7
758.605	93.44
758.785	93.58
758.965	92.43
759.144	92.81
759.324	93.21
759.504	92.61
759.683	91.78
759.863	91.48
760.043	91.45
760.222	92.08
760.402	91.88
760.581	91.08
760.761	90
760.94	89.22
761.12	89.25
761.299	89
761.479	89.66
761.658	88.74
761.838	89.38
762.017	91.42
762.197	92.96
762.376	92.77
762.555	92.94
762.735	92.29
762.914	93.29
763.093	93.5
763.273	92.27
763.452	91.41
763.631	90.46
763.81	90.77
763.99	91.46
764.169	90.61
764.348	89.67
764.527	89.12
764.706	89.8
764.885	90.19
765.064	89.47
765.243	88.75
765.423	89.56
765.602	88.81
765.781	89.33
765.96	89.38
766.139	88.95
766.318	90.11
766.497	90.29
766.676	90.52
766.854	91.41
767.033	90.87
767.212	90.19
767.391	90.53
767.57	90
767.749	89.68
767.928	87.78
768.106	87.46
768.285	88.35
768.464	88.57
768.643	89.14
768.821	88.37
769	89.04
769.179	89.09
769.357	89.7
769.536	88.44
769.715	88.73
769.893	88.03
770.072	87.85
770.25	86.92
770.429	88.62
770.607	88.29
770.786	88.77
770.964	88.35
771.143	87.63
771.321	87.86
771.5	88.23
771.678	87.87
771.857	87.89
772.035	87.7
772.213	87.58
772.392	88.06
772.57	88.54
772.748	88.09
772.927	87.09
773.105	87.73
773.283	87.75
773.461	87.13
773.64	86.63
773.818	86.21
773.996	85.93
774.174	86.59
774.352	85.81
774.531	84.82
774.709	85.38
774.887	85.29
775.065	85.24
775.243	86.03
775.421	85.76
775.599	84.81
775.777	84.83
775.955	84.37
776.133	84.97
776.311	84.09
776.489	83.42
776.667	83
776.844	83.39
777.022	84.48
777.2	84.88
777.378	84.79
777.556	84.74
777.734	85.15
777.911	85.14
778.089	84.61
778.267	84.19
778.445	83.88
778.622	84.17
778.8	84.98
778.978	84.57
779.155	84.23
779.333	83.63
779.511	84.61
779.688	83.28
779.866	83.35
780.043	85.38
780.221	85.7
780.398	86.12
780.576	86.46
780.753	85.14
780.931	86.25
781.108	86.72
781.286	83.57
781.463	83.52
781.64	84.92
781.818	86.14
781.995	86.87
782.172	88.21
782.35	87.39
782.527	88.78
782.704	88.51
782.882	87.48
783.059	86.6
783.236	87.07
783.413	86.89
783.59	86.45
783.768	85.86
783.945	85.61
784.122	85.5
784.299	85.96
784.476	85.59
784.653	83.83
784.83	83.23
785.007	82.99
785.184	83.37
785.361	82.66
785.538	82.93
785.715	81.18
785.892	82.68
786.069	83.75
786.246	83.44
786.423	83.55
786.6	83.19
786.776	82.77
786.953	83.78
787.13	83.71
787.307	83.77
787.484	84.86
787.66	83
787.837	83.89
788.014	83.43
788.191	82.82
788.367	81.57
788.544	79.77
788.721	79
788.897	82.3
789.074	81.03
789.25	81.98
789.427	83.33
789.603	85.95
789.78	89.64
789.956	88.42
790.133	85.51
790.309	86.36
790.486	88.51
790.662	88.61
790.839	87.73
791.015	85.83
791.192	86.98
791.368	88.97
791.544	88.29
791.721	85.87
791.897	85.66
792.073	84.34
792.249	87.59
792.426	88.04
792.602	86.05
792.778	86.93
792.954	87.67
793.13	86.83
793.307	84.24
793.483	80.25
793.659	82.24
793.835	83.02
794.011	82.58
794.187	78.55
794.363	79.98
794.539	82.29
794.715	81.65
794.891	76.16
795.067	76.07
795.243	76.93
795.419	79.05
795.595	77.14
795.771	76.57
795.947	76.58
796.122	81.65
796.298	82.62
796.474	82.16
796.65	82.6
796.826	86.22
797.001	85.98
797.177	87.75
797.353	87.72
797.529	87.54
797.704	84.57
797.88	83.51
798.056	80.18
798.231	80.73
798.407	79.67
798.582	78.86
798.758	78.1
798.934	79.68
799.109	77.19
799.285	77.31
799.46	77.95
799.636	79.56
799.811	79.81
799.986	81.63
800.162	82.51
800.337	84.33
800.513	85.23
800.688	86.57
800.863	84.31
801.039	78.33
801.214	75.53
801.389	74.87
801.565	78.47
801.74	78.47
801.915	76.56
802.09	78.23
802.265	83.71
802.441	86.31
802.616	88.7
802.791	86.16
802.966	87
803.141	82.5
803.316	82.18
803.491	80.73
803.666	78.54
803.841	78.07
804.016	78.75
804.191	78.3
804.366	80.28
804.541	78.95
804.716	73.43
804.891	77.33
805.066	77.74
805.241	75.71
805.416	73.01
805.591	77.78
805.765	80.15
805.94	87.18
806.115	83.26
806.29	82.92
806.464	84.95
806.639	85.52
806.814	83.46
806.989	81.75
807.163	80.53
807.338	80.74
807.512	76.33
807.687	72.63
807.862	75.39
808.036	75.49
808.211	75.21
808.385	71.34
808.56	71.99
808.734	73.99
808.909	77.78
809.083	76.59
809.258	80.21
809.432	78.07
809.606	79.61
809.781	79.06
809.955	84.14
810.13	86.76
810.304	84.72
810.478	84.82
810.652	92.19
810.827	92.07
811.001	91.79
811.175	83.39
811.349	80.23
811.524	82.6
811.698	82.33
811.872	77.62
812.046	78.57
812.22	75.97
812.394	79.5
812.568	81.63
812.742	78.76
812.916	69.77
813.09	71.69
813.264	70.89
813.438	81.71
813.612	79.25
813.786	83.43
813.96	84.07
814.134	92.66
814.308	90.57
814.482	89.48
814.656	83.52
814.83	84.47
815.003	79.24
815.177	79.87
815.351	82.89
815.525	79.85
815.698	75.69
815.872	73.35
816.046	76.19
816.219	81.71
816.393	77.24
816.567	69.03
816.74	68.17
816.914	77.17
817.088	72.3
817.261	72.39
817.435	67.38
817.608	69.1
817.782	73.94
817.955	75.1
818.129	69.43
818.302	79.21
818.475	78.43
818.649	76.98
818.822	85.34
818.996	81.91
819.169	80.9
819.342	83.4
819.516	81.03
819.689	82.8
819.862	80.36
820.035	74.58
820.209	75.06
820.382	75.74
820.555	74.33
820.728	67.92
820.901	62.17
821.075	68.73
821.248	68.76
821.421	63.84
821.594	69.61
821.767	66.99
821.94	67.41
822.113	65.19
822.286	63.28
822.459	71.84
822.632	77.33
822.805	71.48
822.978	73.26
823.151	75.29
823.324	78.7
823.496	67.75
823.669	66.36
823.842	66.14
824.015	59.67
824.188	63.59
824.361	58.89
824.533	62.52
824.706	74.44
824.879	75.85
825.051	80.76
825.224	84.53
825.397	77.98
825.569	91.3
825.742	92.59
825.915	85.98
826.087	73.42
826.26	75.61
826.432	87.46
826.605	86.5
826.777	81.86
826.95	74.76
827.122	87.97
827.295	95.5
827.467	83.37
827.64	67.32
827.812	71.54
827.984	79.95
828.157	78.21
828.329	66.32
828.501	65.31
828.674	72.77
828.846	82.09
829.018	72.32
829.19	58.82
829.363	67.28
829.535	69.36
829.707	63.31
829.879	60.9
830.051	63.3
830.223	63.24
830.395	59.09
830.568	54.52
830.74	59.93
830.912	64.38
831.084	61.75
831.256	53.78
831.428	58.5
831.6	67.37
831.772	66.66
831.943	71.99
832.115	70.41
832.287	76.83
832.459	83.4
832.631	81.34
832.803	82.3
832.975	86.69
833.146	79.38
833.318	83.95
833.49	84.4
833.662	84.82
833.833	91.73
834.005	84.53
834.177	81.76
834.348	76.68
834.52	74.95
834.692	73.02
834.863	69.21
835.035	60.71
835.206	63.87
835.378	65.15
835.549	68.42
835.721	66.86
835.892	62.32
836.064	63.57
836.235	72.97
836.407	68.37
836.578	73.19
836.749	69.69
836.921	70.41
837.092	78.06
837.264	73.33
837.435	51.08
837.606	59
837.777	43.51
837.949	42.3
838.12	42.96
838.291	43.49
838.462	52.98
838.633	61.38
838.805	52.7
838.976	59.58
839.147	53.29
839.318	41.31
839.489	36.81
839.66	33.13
839.831	30.36
840.002	32.73
840.173	37.19
840.344	49.64
840.515	52.66
840.686	52.38
840.857	49.03
841.028	57.79
841.199	58.66
841.369	55.8
841.54	64.48
841.711	71.75
841.882	78.01
842.053	87.56
842.223	100.26
842.394	93.3
842.565	92.7
842.736	90.36
842.906	111.22
843.077	102.41
843.248	105.29
843.418	96.18
843.589	97.98
843.759	97
843.93	97.45
844.101	85.39
844.271	85.32
844.442	83.54
844.612	73.77
844.783	62.27
844.953	57.94
845.123	65.94
845.294	74.98
845.464	74.4
845.635	67.68
845.805	80.52
845.975	83.15
846.146	76.06
846.316	67.13
846.486	68.27
846.656	68.11
846.827	67.83
846.997	66.06
847.167	57.86
847.337	77.14
847.507	71.94
847.677	76.75
847.848	75.87
848.018	76.56
848.188	75.58
848.358	103.47
848.528	81.21
848.698	63.56
848.868	37.32
849.038	47.36
849.208	48.14
849.378	47.4
849.548	39.19
849.718	42.38
849.887	65.4
850.057	71.23
850.227	53.29
850.397	48.49
850.567	49.3
850.737	44.58
850.906	42.83
851.076	46.4
851.246	57.41
851.415	69.01
851.585	68.8
851.755	79.01
851.924	84.34
852.094	88.33
852.264	73.31
852.433	69.81
852.603	72.71
852.772	73.27
852.942	51.28
853.111	54.61
853.281	55.37
853.45	60.07
853.62	50.91
853.789	36.65
853.959	36.67
854.128	31.17
854.297	39.98
854.467	49.86
854.636	52.89
854.805	61.63
854.975	84.49
855.144	92.7
855.313	122.45
855.482	113.35
855.652	92.28
855.821	97.51
855.99	114.9
856.159	103.61
856.328	86.22
856.497	70.9
856.667	69.12
856.836	70.03
857.005	66.29
857.174	62.98
857.343	66.55
857.512	55.72
857.681	57.83
857.85	51.14
858.019	70.52
858.188	58.4
858.356	33.24
858.525	24.79
858.694	35.07
858.863	25.67
859.032	19.75
859.201	-11
859.369	18.72
859.538	15.91
859.707	30.93
859.876	42.75
860.044	55.61
860.213	65.87
860.382	64.46
860.55	81.25
860.719	89.79
860.888	77.68
861.056	72.3
861.225	73.98
861.393	83.91
861.562	80.09
861.73	62.64
861.899	51.89
862.067	50.57
862.236	41.16
862.404	36.74
862.572	32.01
862.741	30.24
862.909	30.59
863.078	29.28
863.246	39.23
863.414	37.57
863.582	37.45
863.751	25.17
863.919	41.78
864.087	47.82
864.255	53.93
864.424	50.42
864.592	60.72
864.76	62.59
864.928	64.24
865.096	56.5
865.264	52.23
865.432	59.6
865.6	46.45
865.768	33.87
865.936	26.37
866.104	43.69
866.272	51.84
866.44	29.72
866.608	-13.63
866.776	43.54
866.944	46.53
867.112	18.37
867.28	12.22
867.448	38.26
867.615	61.38
867.783	69.42
867.951	73.75
868.119	75.62
868.286	109.51
868.454	83.84
868.622	61.47
868.789	54.58
868.957	54.53
869.125	47.21
869.292	61.65
869.46	54.08
869.627	41.95
869.795	45.36
869.963	47.54
870.13	66.03
870.298	47.94
870.465	9.92
870.632	20.96
870.8	36.59
870.967	37.59
871.135	32.12
871.302	27.38
871.469	41.87
871.637	40.87
871.804	31.28
871.971	29.33
872.139	31.31
872.306	24.29
872.473	9.12
872.64	-6.93
872.807	-3.76
872.975	39.69
873.142	27.51
873.309	75.95
873.476	191.05
873.643	230.66
873.81	230.05
873.977	149.19
874.144	95.59
874.311	99.84
874.478	-13.05
874.645	-54.41
874.812	-30.21
874.979	-43.29
875.146	-72.95
875.313	-92.26
875.48	-10.25
875.647	-16.95
875.813	8.8
875.98	24.27
876.147	68.23
876.314	63.99
876.481	65.74
876.647	38.12
876.814	59.59
876.981	50.33
877.147	32.17
877.314	20.76
877.481	33.04
877.647	31.57
877.814	21.24
877.98	17.44
878.147	52.41
878.314	56.41
878.48	46.05
878.647	79.02
878.813	86.41
878.979	131.21
879.146	75.48
879.312	82.88
879.479	97.12
879.645	76.6
879.811	66.33
879.978	78.29
880.144	83.11
880.31	75.17
880.477	17.12
880.643	-47.99
880.809	83.54
880.975	58.31
881.142	50
881.308	11.77
881.474	76.41
881.64	61.45
881.806	53.04
881.972	31.85
882.138	-10.53
882.304	-110.14
882.47	-53.33
882.636	-71.31
882.802	-54.92
882.968	-133.2
883.134	-166.26
883.3	-31.44
883.466	38.22
883.632	31.87
883.798	29.39
883.964	14
884.129	36.71
884.295	22.78
884.461	21.62
884.627	13.45
884.793	29.54
884.958	22.72
885.124	6.84
885.29	8.55
885.455	19.02
885.621	19.26
885.787	15.99
885.952	-0.92
886.118	12.8
886.283	35.32
886.449	13.48
886.614	33.36
886.78	61.21
886.945	44.69
887.111	74.79
887.276	41.04
887.442	40.99
887.607	54.19
887.773	18.9
887.938	-30.49
888.103	18.09
888.269	10.72
888.434	34.14
888.599	50.88
888.764	64.86
888.93	96.87
889.095	131.73
889.26	171.94
889.425	194.81
889.59	148.31
889.756	128
889.921	99.93
890.086	91.52
890.251	60.98
890.416	-5
890.581	0.63
890.746	-9.66
890.911	-53.22
891.076	-75.83
891.241	-65.73
891.406	11.28
891.571	37.24
891.736	15.84
891.901	31.22
892.065	83.07
892.23	76.5
892.395	40.53
892.56	66.45
892.725	60.32
892.889	39.8
893.054	20.77
893.219	-39.02
893.384	-77.2
893.548	-153.33
893.713	773.27
893.878	433.15
