Data from Ofra_1a_PS_8HS24_Reflection_1.txt Node
Date: Tue Jul 20 11:03:26 EDT 2021
User: Adam
Spectrometer: FLMT01687
Trigger mode: 0
Integration Time (sec): 1.004000E0
Scans to average: 2
Electric dark correction enabled: true
Nonlinearity correction enabled: false
Boxcar width: 2
XAxis mode: Wavelengths
Number of Pixels in Spectrum: 3648
>>>>>Begin Spectral Data<<<<<
179.494	-362.44
179.716	-581.68
179.937	1282.27
180.158	-1410.19
180.38	198.78
180.601	81.21
180.823	-36.05
181.044	-177.94
181.265	-213.37
181.486	194.24
181.708	136.75
181.929	-818.18
182.15	-121.02
182.372	659.11
182.593	472.98
182.814	-483.87
183.035	-103.02
183.257	-20.12
183.478	-32.48
183.699	-38.96
183.92	-82.68
184.141	-70.47
184.363	-86.99
184.584	-68.45
184.805	-40.56
185.026	13.82
185.247	-10.69
185.468	-17.43
185.689	-4.3
185.91	2
186.132	22.67
186.353	33.6
186.574	58.7
186.795	46.1
187.016	49.88
187.237	36.01
187.458	40.75
187.679	4.59
187.9	17.28
188.121	26.01
188.342	46.57
188.563	56.33
188.784	77.87
189.005	40.67
189.226	27.94
189.447	10.02
189.667	-5.8
189.888	-29.69
190.109	-33.63
190.33	-22.47
190.551	-13.71
190.772	-6.09
190.993	4.18
191.214	15.12
191.434	12.49
191.655	-53.79
191.876	4.06
192.097	-11.09
192.318	17.55
192.538	-28.71
192.759	-8.25
192.98	1.11
193.201	19.95
193.421	0.27
193.642	19.34
193.863	40.24
194.083	17.18
194.304	10.94
194.525	24.43
194.745	22.62
194.966	6.62
195.187	17.44
195.407	9.73
195.628	13.33
195.848	10.3
196.069	-5.26
196.29	10.96
196.51	-23.66
196.731	-41.07
196.951	-59.08
197.172	-41.49
197.392	-71.51
197.613	-5.53
197.833	-6.8
198.054	-1.8
198.274	2.5
198.495	5.12
198.715	-14.73
198.936	0.11
199.156	4.18
199.377	8.35
199.597	14.81
199.817	26.41
200.038	17
200.258	37.08
200.479	39.82
200.699	61.66
200.919	29.84
201.14	42.68
201.36	29.78
201.58	-3.22
201.801	-27.74
202.021	-0.8
202.241	-16.13
202.461	-8.52
202.682	32.25
202.902	27.77
203.122	24.03
203.342	14.67
203.563	5.57
203.783	-29.25
204.003	-33.21
204.223	-32.25
204.443	-20.45
204.663	-31.01
204.884	36.37
205.104	48.19
205.324	88.46
205.544	44.24
205.764	51.19
205.984	18.12
206.204	11.24
206.424	-37.11
206.644	-28.79
206.864	-63.89
207.084	-40.75
207.304	-56.96
207.525	-17.68
207.745	4.39
207.964	8.26
208.184	21.46
208.404	14.16
208.624	14.87
208.844	6.53
209.064	0.53
209.284	-14.87
209.504	-27.34
209.724	-29.06
209.944	-48.33
210.164	-42.1
210.384	-33.37
210.604	-43.54
210.823	-65.68
211.043	-35.35
211.263	-81.12
211.483	-59.66
211.703	-48.2
211.922	-44.15
212.142	-36.25
212.362	-15.32
212.582	-8.91
212.801	-7.31
213.021	-27.08
213.241	-35.89
213.461	-34.22
213.68	-25.23
213.9	-20.39
214.12	-11.26
214.339	-6.1
214.559	-5.26
214.779	10.52
214.998	17.37
215.218	20.57
215.438	23.24
215.657	26.4
215.877	12.03
216.096	18.9
216.316	13.5
216.535	0.69
216.755	7.09
216.974	-7.47
217.194	-25.05
217.413	-22.01
217.633	-10.98
217.852	-10.71
218.072	6.06
218.291	12.3
218.511	22.02
218.73	13.14
218.95	0.43
219.169	-6.12
219.389	-0.12
219.608	-11.91
219.827	-3.87
220.047	8.39
220.266	-9.71
220.485	-35.73
220.705	-27.47
220.924	-35.53
221.143	22.64
221.363	30.52
221.582	34.58
221.801	29.22
222.021	22.17
222.24	3.44
222.459	7.19
222.678	13.04
222.897	14.33
223.117	37.86
223.336	37.95
223.555	32.51
223.774	46.32
223.993	51.7
224.213	44.45
224.432	28.18
224.651	17.42
224.87	20.57
225.089	24.45
225.308	23.55
225.527	27.57
225.746	62.89
225.965	57.35
226.184	30.69
226.404	11.96
226.623	17.72
226.842	7.27
227.061	-8.01
227.28	12.84
227.499	17.56
227.718	5.6
227.936	2.74
228.155	2.64
228.374	5.61
228.593	9.23
228.812	9.91
229.031	8.03
229.25	6.56
229.469	-16.27
229.688	-14.37
229.907	-4.88
230.125	-6.26
230.344	4.15
230.563	15.4
230.782	25.7
231.001	29.15
231.22	21.33
231.438	16.06
231.657	18.55
231.876	13.14
232.095	20.08
232.313	15.74
232.532	18.02
232.751	13.75
232.969	3.41
233.188	-16.37
233.407	-1.09
233.625	4.47
233.844	10.67
234.063	21.59
234.281	36.16
234.5	38.07
234.719	29.84
234.937	13.97
235.156	-0.76
235.374	-16.58
235.593	-22.87
235.811	-2.32
236.03	6.72
236.249	22.99
236.467	39
236.686	40.41
236.904	38.71
237.123	40.78
237.341	37.64
237.559	15.03
237.778	40.98
237.996	30.75
238.215	9.65
238.433	-30.88
238.652	24.79
238.87	-3
239.088	19.06
239.307	27.17
239.525	24.07
239.743	-4.66
239.962	-18.4
240.18	-13.7
240.398	-17.32
240.617	-20.49
240.835	-13.07
241.053	-7.92
241.271	-15.53
241.49	-5.99
241.708	-18.2
241.926	-29.01
242.144	-28.31
242.363	-43.14
242.581	-70.77
242.799	-58.56
243.017	-25.13
243.235	-8.19
243.453	-16.54
243.672	-8.57
243.89	-0.89
244.108	14.11
244.326	24.44
244.544	41.08
244.762	34.87
244.98	43.66
245.198	33.31
245.416	23.12
245.634	-1.97
245.852	-20.65
246.07	-7.67
246.288	-10.61
246.506	-23.09
246.724	-8.05
246.942	17.81
247.16	13.93
247.378	15.59
247.596	49.28
247.814	64.93
248.032	42.05
248.25	43.09
248.468	52.89
248.685	50.41
248.903	42.52
249.121	40.16
249.339	31.92
249.557	6.92
249.775	0.08
249.992	6.36
250.21	-0.87
250.428	15.85
250.646	25.6
250.863	12.79
251.081	9.2
251.299	16.43
251.517	1.62
251.734	3.23
251.952	12.4
252.17	11.66
252.387	-3.88
252.605	-14.98
252.823	-26.95
253.04	-15.35
253.258	2.4
253.475	22.03
253.693	24.02
253.911	15.16
254.128	7.23
254.346	7.21
254.563	4.31
254.781	5.82
254.998	1.92
255.216	3.78
255.433	-21.27
255.651	-1.63
255.868	-18.07
256.086	7.42
256.303	8.22
256.521	21.93
256.738	5.36
256.956	19.55
257.173	-1.64
257.39	-1.83
257.608	-6.48
257.825	3.14
258.043	13.92
258.26	24.89
258.477	21.52
258.695	19.67
258.912	-2.76
259.129	-9.71
259.346	-33.88
259.564	-41.73
259.781	-49.56
259.998	-9.12
260.216	-5.05
260.433	7.5
260.65	15.7
260.867	11.87
261.084	1.18
261.302	-3.6
261.519	6.61
261.736	-0.92
261.953	9.03
262.17	34.3
262.387	25.03
262.604	19.52
262.822	25.92
263.039	33.76
263.256	16.08
263.473	18.11
263.69	12.86
263.907	2.58
264.124	-5.15
264.341	13.35
264.558	10.99
264.775	14.6
264.992	31.37
265.209	9.46
265.426	-0.96
265.643	4.34
265.86	-20.94
266.077	-33.27
266.294	-13.32
266.51	11.5
266.727	8.66
266.944	34.33
267.161	35.42
267.378	40.2
267.595	17.75
267.812	13.95
268.028	-6.14
268.245	1.95
268.462	5.79
268.679	6.04
268.896	11.9
269.112	18.7
269.329	-11.44
269.546	-5.67
269.763	5.19
269.979	-6.39
270.196	-11.31
270.413	-3.19
270.629	-12.15
270.846	-23.98
271.063	-5.5
271.279	-6.81
271.496	-26.89
271.712	-22.15
271.929	-5.13
272.146	-12.42
272.362	-16.12
272.579	7.2
272.795	-9.77
273.012	6.48
273.228	13.08
273.445	7.93
273.661	3.5
273.878	10
274.094	-11.14
274.311	-25.68
274.527	-36.78
274.744	-32.14
274.96	-17.69
275.177	-10.73
275.393	2.31
275.609	17.23
275.826	21.2
276.042	20.1
276.259	8.89
276.475	0.25
276.691	-23.37
276.908	-31.27
277.124	-22.82
277.34	-3.26
277.557	-14.94
277.773	3.55
277.989	-12.2
278.205	-9.94
278.422	-17.55
278.638	-1.13
278.854	-10.84
279.07	11.05
279.286	-5.14
279.503	-0.65
279.719	-1.59
279.935	3
280.151	-7.27
280.367	4.03
280.583	-2.77
280.799	-4.77
281.016	-30.22
281.232	-20.8
281.448	-18.1
281.664	-9.04
281.88	-8.46
282.096	5.09
282.312	12.1
282.528	20.87
282.744	18.44
282.96	0.29
283.176	-4.5
283.392	-26.78
283.608	-65.05
283.824	-81.29
284.04	-73.83
284.256	-47.21
284.471	-22.21
284.687	-17.45
284.903	-11.09
285.119	2.09
285.335	13.9
285.551	21.7
285.767	38.26
285.982	35.54
286.198	25.77
286.414	24.42
286.63	-21.98
286.846	-36.43
287.061	-14.84
287.277	-14.7
287.493	-30.73
287.709	-31.53
287.924	-5.7
288.14	10.16
288.356	25.23
288.571	36.29
288.787	20.74
289.003	15.97
289.218	-12.47
289.434	-29.36
289.65	-13.52
289.865	1.52
290.081	8.98
290.296	23.68
290.512	33.09
290.727	18.02
290.943	18.47
291.159	6.23
291.374	-10.6
291.59	-11.79
291.805	-12.42
292.021	-5.75
292.236	1.39
292.451	14.06
292.667	4.49
292.882	13.31
293.098	8.58
293.313	-2.46
293.529	-13.5
293.744	-22.49
293.959	-30.76
294.175	-24.95
294.39	-33.68
294.605	6.25
294.821	8.42
295.036	9.01
295.251	15.69
295.467	18.91
295.682	2.28
295.897	8.52
296.112	3.96
296.328	1.19
296.543	-8.61
296.758	-8.56
296.973	-21.18
297.188	-10.36
297.404	-33.18
297.619	-42.59
297.834	-78.03
298.049	-38.22
298.264	-49.06
298.479	-59.23
298.694	-5.31
298.909	-3.09
299.125	-8.12
299.34	5.75
299.555	25.25
299.77	31.72
299.985	37.98
300.2	47.47
300.415	46.58
300.63	49.88
300.845	39.17
301.06	37.55
301.275	37.91
301.49	31.5
301.704	14.19
301.919	11.01
302.134	8.89
302.349	4.53
302.564	-1.69
302.779	-16.86
302.994	7.97
303.209	17.44
303.423	12.48
303.638	21.66
303.853	28.55
304.068	1.93
304.283	9.44
304.497	4.36
304.712	12.5
304.927	13.54
305.142	26.9
305.356	23.4
305.571	26.04
305.786	6.14
306	25.5
306.215	15.52
306.43	13.93
306.644	16.66
306.859	36.15
307.074	24.41
307.288	24.68
307.503	20.23
307.717	2.51
307.932	3.93
308.147	-7.32
308.361	-9.19
308.576	-33.17
308.79	-12.07
309.005	-29.21
309.219	-16.85
309.434	-1.24
309.648	8.11
309.863	15.42
310.077	37.13
310.292	34.71
310.506	9.44
310.72	-0.3
310.935	17.87
311.149	7.76
311.364	8.12
311.578	19.23
311.792	31.52
312.007	11.23
312.221	2.44
312.435	3.76
312.649	7.95
312.864	9.34
313.078	9.57
313.292	18.36
313.507	20.72
313.721	11.43
313.935	7.14
314.149	7.95
314.363	5.73
314.578	2.44
314.792	-14.53
315.006	-19.26
315.22	-10.97
315.434	-12.65
315.648	-26.52
315.862	-10.93
316.077	-13.05
316.291	-4.49
316.505	-22.42
316.719	8.54
316.933	4
317.147	9.56
317.361	-11.72
317.575	4.85
317.789	12.62
318.003	8.97
318.217	30.65
318.431	23.76
318.645	25.61
318.859	14.53
319.073	24.76
319.287	14.46
319.5	24.31
319.714	16.78
319.928	12.01
320.142	6.03
320.356	6.17
320.57	-5.29
320.784	-12.41
320.997	-21.41
321.211	13.7
321.425	2.8
321.639	13.63
321.853	18.54
322.066	22.04
322.28	-4.07
322.494	5.3
322.707	7.69
322.921	15.95
323.135	22.07
323.349	25.92
323.562	19.1
323.776	26.85
323.989	23.15
324.203	0.06
324.417	0.62
324.63	-1.72
324.844	-23.4
325.057	-41.63
325.271	-17.93
325.485	-3.83
325.698	21.21
325.912	37.89
326.125	41.19
326.339	49.42
326.552	30.69
326.766	25.94
326.979	21.82
327.193	28.5
327.406	1.8
327.619	17.54
327.833	10.99
328.046	10.97
328.26	-4.99
328.473	22.24
328.686	13.15
328.9	19.6
329.113	16.66
329.326	31.48
329.54	20.12
329.753	23.01
329.966	12.48
330.179	11.34
330.393	4.11
330.606	-2.8
330.819	-25.44
331.032	-16.89
331.246	-8.28
331.459	10.96
331.672	11.03
331.885	29.46
332.098	30.93
332.311	18.54
332.525	12.73
332.738	12.92
332.951	9.13
333.164	9.94
333.377	19.38
333.59	-6.54
333.803	3.3
334.016	4.58
334.229	9.11
334.442	7.89
334.655	9.11
334.868	-6.71
335.081	-9.27
335.294	-22.65
335.507	-19.27
335.72	0.23
335.933	7.02
336.146	10.78
336.359	16.33
336.572	17.84
336.785	14.06
336.997	-1.05
337.21	11.68
337.423	-5.31
337.636	-27.44
337.849	-29.98
338.062	-15.08
338.274	-16.42
338.487	-24.09
338.7	-36.22
338.913	-17.88
339.125	-16.92
339.338	-25.64
339.551	-11.72
339.763	5.76
339.976	-0.76
340.189	-4.99
340.402	10.66
340.614	3.58
340.827	14.32
341.039	6.78
341.252	7.97
341.465	-4.87
341.677	6.52
341.89	-4.02
342.102	8.98
342.315	9.56
342.527	16.22
342.74	-12.74
342.952	-8.62
343.165	-9.94
343.377	-0.4
343.59	4.58
343.802	27.93
344.015	31.44
344.227	30.7
344.44	17.52
344.652	23.5
344.864	22.76
345.077	21.26
345.289	26.8
345.502	41.1
345.714	20.22
345.926	7.07
346.139	-27.71
346.351	-28.15
346.563	-17.07
346.775	0.72
346.988	16.45
347.2	20.92
347.412	24.6
347.624	17.37
347.837	18.73
348.049	22.89
348.261	21.13
348.473	-1.12
348.685	-7.46
348.897	-36.32
349.11	-33.36
349.322	-20.98
349.534	-8.83
349.746	-3.33
349.958	2.06
350.17	-7.74
350.382	10.32
350.594	16.38
350.806	26.5
351.018	29.96
351.23	38.44
351.442	35.95
351.654	28.24
351.866	10.1
352.078	9.57
352.29	-6.56
352.502	-8.94
352.714	-10.15
352.926	-5.62
353.138	5.96
353.35	-2.3
353.561	-2.78
353.773	-6.29
353.985	-2.68
354.197	-5.57
354.409	2.45
354.621	-14.4
354.832	-15.25
355.044	-20.99
355.256	-22.47
355.468	-18.41
355.679	-0.07
355.891	16.6
356.103	16.29
356.314	6.83
356.526	-9.55
356.738	-12.82
356.949	-18.64
357.161	5.3
357.373	16.29
357.584	23.32
357.796	32.96
358.008	33.5
358.219	24.82
358.431	24.28
358.642	33.13
358.854	30.02
359.065	13.07
359.277	6.4
359.488	3.58
359.7	-4.54
359.911	-18.45
360.123	-11.59
360.334	-15.24
360.546	-15.26
360.757	-5.89
360.969	1.02
361.18	6.15
361.391	17.93
361.603	17.15
361.814	21.91
362.025	27.09
362.237	27.9
362.448	28.22
362.659	19.44
362.871	5.23
363.082	-3.61
363.293	-6.59
363.504	-23.19
363.716	-15.16
363.927	5.56
364.138	-10.22
364.349	-17.93
364.56	-33.62
364.772	-6.68
364.983	-5.94
365.194	-1.82
365.405	2.92
365.616	21.16
365.827	1.14
366.038	-11.9
366.25	2.35
366.461	9.13
366.672	10.04
366.883	11.82
367.094	11.79
367.305	-5.21
367.516	-9.15
367.727	-19.28
367.938	-19.1
368.149	-15.76
368.36	-6.57
368.571	-28.05
368.781	-35.3
368.992	-32.73
369.203	-27.12
369.414	-39.89
369.625	-26.91
369.836	5.3
370.047	15.56
370.258	26.36
370.468	24.93
370.679	29.17
370.89	17.6
371.101	30.14
371.312	16.76
371.522	31.94
371.733	18.03
371.944	3.69
372.155	1.34
372.365	6.27
372.576	-8.5
372.787	2.07
372.997	11.72
373.208	-7.09
373.419	-14.25
373.629	-12.72
373.84	-10.49
374.05	-18.07
374.261	-22.5
374.472	-9.06
374.682	0.23
374.893	-20.42
375.103	-7.97
375.314	-3.28
375.524	-3.32
375.735	2.67
375.945	11.95
376.156	7.64
376.366	11.75
376.577	11.23
376.787	15.37
376.997	18.25
377.208	15.48
377.418	6.62
377.629	7.05
377.839	6.04
378.049	8.81
378.26	-0.16
378.47	0.68
378.68	0.06
378.89	-0.5
379.101	-3.07
379.311	3.25
379.521	0.45
379.732	0.84
379.942	-0.57
380.152	-10.21
380.362	-11.03
380.572	1.79
380.783	6.86
380.993	11.33
381.203	13.96
381.413	14.47
381.623	13.64
381.833	15.23
382.043	2.92
382.253	10.8
382.463	24.32
382.674	27.83
382.884	18.64
383.094	16.86
383.304	17.12
383.514	12.73
383.724	5.44
383.934	4.66
384.144	10.55
384.353	9.29
384.563	9.12
384.773	16.11
384.983	9.73
385.193	13.11
385.403	10.66
385.613	11.17
385.823	8.3
386.033	15.67
386.242	7.77
386.452	5.39
386.662	1.03
386.872	3.48
387.082	1.82
387.291	0.97
387.501	8.15
387.711	9.97
387.921	7.12
388.13	8.08
388.34	14.39
388.55	4.97
388.759	-1.44
388.969	-2.08
389.179	-1.71
389.388	-6
389.598	-3.08
389.807	-4.09
390.017	-2.17
390.227	-5.76
390.436	-3.14
390.646	-3.65
390.855	0.45
391.065	-0.4
391.274	2.37
391.484	0.62
391.693	1.03
391.903	-0.31
392.112	0.18
392.322	-0.51
392.531	-0.49
392.74	0.04
392.95	1.99
393.159	1.12
393.369	3.7
393.578	1.62
393.787	1.38
393.997	0.86
394.206	0.9
394.415	-0.16
394.625	0.88
394.834	0.94
395.043	1.74
395.252	3.47
395.462	3.39
395.671	4.04
395.88	5.51
396.089	5.07
396.298	3.53
396.508	4.65
396.717	4.9
396.926	3.79
397.135	4.28
397.344	4.42
397.553	2.92
397.762	3.38
397.971	3.75
398.181	3.53
398.39	3.73
398.599	4.2
398.808	3.92
399.017	4.4
399.226	4.41
399.435	4.06
399.644	4.7
399.853	4.5
400.062	4.31
400.27	3.75
400.479	4.27
400.688	3.92
400.897	3.93
401.106	3.81
401.315	4.06
401.524	3.85
401.733	3.6
401.941	3.77
402.15	3.69
402.359	3.68
402.568	3.78
402.777	3.93
402.985	3.6
403.194	3.54
403.403	3.74
403.612	3.6
403.82	3.41
404.029	3.74
404.238	3.85
404.446	3.83
404.655	3.88
404.864	3.86
405.072	3.77
405.281	3.58
405.489	3.39
405.698	3.35
405.906	3.43
406.115	3.32
406.324	3.53
406.532	3.75
406.741	3.7
406.949	3.66
407.158	3.84
407.366	3.71
407.574	3.71
407.783	3.82
407.991	3.8
408.2	3.77
408.408	3.8
408.617	3.68
408.825	3.54
409.033	3.55
409.242	3.66
409.45	3.71
409.658	3.73
409.867	3.79
410.075	3.81
410.283	3.51
410.491	3.29
410.7	3.12
410.908	3.31
411.116	3.35
411.324	3.47
411.533	3.54
411.741	3.7
411.949	3.53
412.157	3.41
412.365	3.45
412.573	3.45
412.781	3.31
412.99	3.28
413.198	3.39
413.406	3.46
413.614	3.5
413.822	3.61
414.03	3.59
414.238	3.57
414.446	3.46
414.654	3.47
414.862	3.39
415.07	3.31
415.278	3.34
415.486	3.19
415.694	3.22
415.902	3.17
416.109	3.08
416.317	3.11
416.525	2.99
416.733	2.97
416.941	3
417.149	3.13
417.357	3.04
417.564	3.17
417.772	3.28
417.98	3.41
418.188	3.28
418.395	2.97
418.603	2.91
418.811	2.62
419.019	2.42
419.226	2.65
419.434	2.98
419.642	2.85
419.849	3.01
420.057	3.03
420.265	2.8
420.472	2.71
420.68	2.9
420.887	2.78
421.095	2.99
421.302	3.01
421.51	2.89
421.717	3.07
421.925	3.06
422.132	2.93
422.34	2.85
422.547	2.81
422.755	2.7
422.962	2.66
423.17	2.55
423.377	2.62
423.585	3
423.792	2.94
423.999	3.09
424.207	3.09
424.414	3.21
424.621	2.99
424.829	2.99
425.036	2.98
425.243	2.99
425.451	2.94
425.658	2.82
425.865	2.92
426.072	2.81
426.28	3.03
426.487	3.12
426.694	3.06
426.901	2.99
427.108	2.98
427.315	2.79
427.523	2.67
427.73	2.89
427.937	2.73
428.144	2.88
428.351	2.9
428.558	2.98
428.765	3
428.972	3.14
429.179	2.95
429.386	3.05
429.593	2.88
429.8	2.77
430.007	2.77
430.214	2.89
430.421	2.96
430.628	3.12
430.835	3.16
431.042	3.06
431.249	3.03
431.456	2.8
431.662	2.78
431.869	2.82
432.076	2.91
432.283	3.03
432.49	3.15
432.697	3.12
432.903	3.15
433.11	3.25
433.317	3.26
433.524	3.36
433.73	3.31
433.937	3.51
434.144	3.3
434.35	3.18
434.557	3.14
434.764	3.19
434.97	2.91
435.177	3.16
435.384	3.23
435.59	3.26
435.797	3.35
436.003	3.49
436.21	3.41
436.416	3.34
436.623	3.32
436.829	3.33
437.036	3.26
437.242	3.29
437.449	3.29
437.655	3.33
437.862	3.33
438.068	3.32
438.275	3.33
438.481	3.46
438.687	3.34
438.894	3.49
439.1	3.53
439.307	3.58
439.513	3.64
439.719	3.72
439.926	3.72
440.132	3.71
440.338	3.58
440.544	3.43
440.751	3.36
440.957	3.28
441.163	3.21
441.369	3.3
441.575	3.32
441.782	3.45
441.988	3.5
442.194	3.62
442.4	3.6
442.606	3.76
442.812	3.8
443.018	3.75
443.224	3.84
443.431	3.87
443.637	3.73
443.843	3.7
444.049	3.77
444.255	3.73
444.461	3.73
444.667	3.74
444.873	3.63
445.079	3.63
445.284	3.63
445.49	3.65
445.696	3.74
445.902	3.8
446.108	3.83
446.314	3.8
446.52	3.88
446.726	3.96
446.931	3.94
447.137	3.91
447.343	4.01
447.549	3.94
447.755	3.79
447.96	3.92
448.166	3.9
448.372	3.92
448.578	3.92
448.783	3.95
448.989	3.93
449.195	3.93
449.4	3.92
449.606	3.89
449.812	3.86
450.017	3.84
450.223	3.79
450.428	3.78
450.634	3.8
450.84	3.91
451.045	3.93
451.251	4.03
451.456	4.03
451.662	4.07
451.867	4.05
452.073	4.04
452.278	3.99
452.483	3.98
452.689	4
452.894	4.07
453.1	4.03
453.305	4.13
453.51	4.24
453.716	4.2
453.921	4.13
454.127	4.22
454.332	4.1
454.537	4.06
454.742	4.02
454.948	4.11
455.153	4.03
455.358	4.15
455.563	4.19
455.769	4.31
455.974	4.27
456.179	4.24
456.384	4.19
456.589	4.03
456.795	3.98
457	3.91
457.205	3.98
457.41	3.94
457.615	4.01
457.82	4.03
458.025	4.06
458.23	4.02
458.435	4.18
458.64	4.15
458.845	4.15
459.05	4.26
459.255	4.29
459.46	4.25
459.665	4.29
459.87	4.29
460.075	4.3
460.28	4.36
460.485	4.37
460.69	4.3
460.895	4.36
461.099	4.18
461.304	4.14
461.509	4.01
461.714	4.12
461.919	4.03
462.123	4.08
462.328	3.97
462.533	3.99
462.738	3.96
462.942	3.94
463.147	3.97
463.352	4.11
463.556	4.19
463.761	4.23
463.966	4.24
464.17	4.38
464.375	4.5
464.58	4.37
464.784	4.4
464.989	4.41
465.193	4.34
465.398	4.21
465.602	4.41
465.807	4.42
466.011	4.44
466.216	4.34
466.42	4.43
466.625	4.42
466.829	4.36
467.034	4.4
467.238	4.52
467.443	4.48
467.647	4.42
467.851	4.47
468.056	4.5
468.26	4.54
468.464	4.57
468.669	4.64
468.873	4.75
469.077	4.68
469.282	4.72
469.486	4.69
469.69	4.61
469.894	4.58
470.099	4.68
470.303	4.63
470.507	4.69
470.711	4.74
470.915	4.84
471.119	4.88
471.324	4.96
471.528	5.06
471.732	5.14
471.936	5.09
472.14	5.1
472.344	5.12
472.548	5.12
472.752	5.05
472.956	5.1
473.16	5.03
473.364	5.04
473.568	4.98
473.772	5
473.976	4.99
474.18	5.06
474.384	5.03
474.588	5.11
474.792	5.1
474.995	5.08
475.199	5.08
475.403	5.11
475.607	5.11
475.811	5.14
476.015	5.11
476.218	5.08
476.422	5.05
476.626	5.02
476.83	5.1
477.033	5.21
477.237	5.3
477.441	5.34
477.644	5.37
477.848	5.35
478.052	5.29
478.255	5.25
478.459	5.23
478.663	5.33
478.866	5.39
479.07	5.39
479.273	5.49
479.477	5.56
479.681	5.58
479.884	5.58
480.088	5.61
480.291	5.56
480.495	5.52
480.698	5.42
480.901	5.38
481.105	5.44
481.308	5.5
481.512	5.55
481.715	5.69
481.919	5.77
482.122	5.78
482.325	5.82
482.529	5.8
482.732	5.73
482.935	5.63
483.138	5.57
483.342	5.57
483.545	5.71
483.748	5.75
483.952	5.92
484.155	5.99
484.358	5.94
484.561	5.84
484.764	5.79
484.967	5.77
485.171	5.8
485.374	5.83
485.577	5.89
485.78	5.89
485.983	5.86
486.186	5.76
486.389	5.78
486.592	5.73
486.795	5.76
486.998	5.75
487.201	5.81
487.404	5.92
487.607	6.02
487.81	6.04
488.013	6.07
488.216	6.1
488.419	6.07
488.622	5.97
488.825	6.03
489.028	6.01
489.231	6.06
489.433	5.95
489.636	5.94
489.839	5.87
490.042	5.85
490.245	5.72
490.447	5.74
490.65	5.81
490.853	5.84
491.056	5.9
491.258	5.96
491.461	5.97
491.664	5.95
491.866	5.91
492.069	5.93
492.272	5.84
492.474	5.88
492.677	5.88
492.879	5.93
493.082	5.95
493.285	6.12
493.487	6.11
493.69	6.07
493.892	6.07
494.095	6.09
494.297	6.09
494.5	6.12
494.702	6.22
494.905	6.27
495.107	6.2
495.309	6.2
495.512	6.23
495.714	6.29
495.917	6.32
496.119	6.43
496.321	6.42
496.524	6.41
496.726	6.32
496.928	6.31
497.13	6.26
497.333	6.26
497.535	6.33
497.737	6.36
497.939	6.3
498.142	6.31
498.344	6.34
498.546	6.28
498.748	6.33
498.95	6.43
499.152	6.42
499.355	6.38
499.557	6.41
499.759	6.46
499.961	6.48
500.163	6.49
500.365	6.58
500.567	6.59
500.769	6.61
500.971	6.59
501.173	6.59
501.375	6.61
501.577	6.66
501.779	6.59
501.981	6.59
502.183	6.64
502.385	6.62
502.587	6.62
502.788	6.77
502.99	6.83
503.192	6.88
503.394	6.87
503.596	6.89
503.798	6.78
503.999	6.82
504.201	6.81
504.403	6.84
504.605	6.89
504.806	6.96
505.008	6.97
505.21	7.01
505.411	7.06
505.613	7.02
505.815	7.02
506.016	7.09
506.218	7.13
506.42	7.17
506.621	7.29
506.823	7.28
507.024	7.23
507.226	7.22
507.427	7.22
507.629	7.2
507.83	7.3
508.032	7.32
508.233	7.35
508.435	7.38
508.636	7.38
508.838	7.37
509.039	7.4
509.24	7.44
509.442	7.46
509.643	7.41
509.845	7.43
510.046	7.46
510.247	7.45
510.448	7.49
510.65	7.58
510.851	7.68
511.052	7.66
511.254	7.72
511.455	7.75
511.656	7.76
511.857	7.69
512.058	7.77
512.26	7.8
512.461	7.8
512.662	7.82
512.863	7.79
513.064	7.8
513.265	7.78
513.466	7.81
513.667	7.85
513.868	7.87
514.069	7.88
514.27	7.91
514.471	7.88
514.672	7.89
514.873	7.98
515.074	8.06
515.275	8.08
515.476	8.14
515.677	8.19
515.878	8.23
516.079	8.18
516.28	8.19
516.481	8.22
516.682	8.2
516.882	8.18
517.083	8.21
517.284	8.26
517.485	8.26
517.686	8.32
517.886	8.31
518.087	8.33
518.288	8.32
518.488	8.25
518.689	8.18
518.89	8.24
519.091	8.27
519.291	8.28
519.492	8.39
519.692	8.48
519.893	8.49
520.094	8.51
520.294	8.56
520.495	8.57
520.695	8.62
520.896	8.61
521.096	8.65
521.297	8.7
521.497	8.71
521.698	8.7
521.898	8.74
522.099	8.72
522.299	8.69
522.499	8.7
522.7	8.68
522.9	8.73
523.101	8.73
523.301	8.74
523.501	8.78
523.702	8.83
523.902	8.79
524.102	8.85
524.302	8.87
524.503	8.85
524.703	8.82
524.903	8.86
525.103	8.84
525.304	8.84
525.504	8.97
525.704	9
525.904	9
526.104	9.01
526.304	9.06
526.504	8.99
526.705	8.97
526.905	9
527.105	9.02
527.305	9.04
527.505	8.96
527.705	8.97
527.905	9
528.105	8.95
528.305	8.94
528.505	9.01
528.705	9.09
528.905	9.06
529.105	9.17
529.304	9.19
529.504	9.21
529.704	9.21
529.904	9.24
530.104	9.24
530.304	9.29
530.503	9.33
530.703	9.27
530.903	9.29
531.103	9.33
531.303	9.37
531.502	9.41
531.702	9.52
531.902	9.56
532.101	9.54
532.301	9.6
532.501	9.68
532.7	9.71
532.9	9.74
533.1	9.76
533.299	9.71
533.499	9.61
533.698	9.56
533.898	9.54
534.097	9.52
534.297	9.52
534.496	9.56
534.696	9.59
534.895	9.63
535.095	9.72
535.294	9.75
535.494	9.78
535.693	9.87
535.892	9.87
536.092	9.88
536.291	9.94
536.491	10
536.69	9.99
536.889	9.97
537.088	9.97
537.288	9.93
537.487	9.91
537.686	9.87
537.886	9.96
538.085	9.98
538.284	10.05
538.483	10.06
538.682	10.09
538.882	10.09
539.081	10.14
539.28	10.14
539.479	10.17
539.678	10.26
539.877	10.3
540.076	10.34
540.275	10.4
540.474	10.47
540.673	10.47
540.872	10.47
541.071	10.52
541.27	10.52
541.469	10.49
541.668	10.58
541.867	10.65
542.066	10.61
542.265	10.69
542.464	10.74
542.663	10.73
542.862	10.83
543.06	10.93
543.259	10.97
543.458	11.01
543.657	11.04
543.856	11.09
544.054	11.1
544.253	11.13
544.452	11.25
544.651	11.31
544.849	11.31
545.048	11.38
545.247	11.41
545.445	11.37
545.644	11.43
545.843	11.44
546.041	11.49
546.24	11.57
546.438	11.67
546.637	11.66
546.836	11.77
547.034	11.8
547.233	11.85
547.431	11.87
547.63	11.94
547.828	11.92
548.027	12.01
548.225	12
548.423	12.05
548.622	12.13
548.82	12.21
549.019	12.19
549.217	12.28
549.415	12.31
549.614	12.45
549.812	12.45
550.01	12.5
550.209	12.59
550.407	12.69
550.605	12.59
550.803	12.7
551.002	12.86
551.2	12.83
551.398	12.93
551.596	13.1
551.794	13.19
551.993	13.25
552.191	13.42
552.389	13.49
552.587	13.59
552.785	13.67
552.983	13.69
553.181	13.7
553.379	13.67
553.577	13.64
553.775	13.75
553.973	13.91
554.171	14
554.369	14.12
554.567	14.28
554.765	14.29
554.963	14.29
555.161	14.42
555.359	14.48
555.557	14.59
555.755	14.74
555.952	14.91
556.15	15.03
556.348	15.2
556.546	15.32
556.744	15.28
556.941	15.25
557.139	15.27
557.337	15.4
557.535	15.4
557.732	15.55
557.93	15.73
558.128	15.86
558.325	15.93
558.523	16.05
558.721	16.12
558.918	16.18
559.116	16.27
559.313	16.34
559.511	16.41
559.708	16.56
559.906	16.67
560.104	16.68
560.301	16.78
560.498	16.91
560.696	17.03
560.893	17.17
561.091	17.37
561.288	17.54
561.486	17.64
561.683	17.69
561.88	17.79
562.078	17.88
562.275	17.92
562.473	18.05
562.67	18.11
562.867	18.19
563.064	18.25
563.262	18.32
563.459	18.48
563.656	18.68
563.853	18.72
564.051	18.91
564.248	19.06
564.445	19.04
564.642	19.12
564.839	19.33
565.036	19.45
565.234	19.53
565.431	19.71
565.628	19.82
565.825	19.83
566.022	19.93
566.219	20
566.416	20.1
566.613	20.13
566.81	20.29
567.007	20.31
567.204	20.39
567.401	20.42
567.598	20.62
567.795	20.64
567.991	20.68
568.188	20.76
568.385	20.89
568.582	20.97
568.779	21.07
568.976	21.2
569.172	21.28
569.369	21.26
569.566	21.27
569.763	21.29
569.96	21.33
570.156	21.46
570.353	21.56
570.55	21.51
570.746	21.62
570.943	21.75
571.14	21.71
571.336	21.78
571.533	21.96
571.729	22
571.926	22
572.123	22.09
572.319	22.13
572.516	22.2
572.712	22.19
572.909	22.14
573.105	22.24
573.302	22.3
573.498	22.24
573.695	22.3
573.891	22.37
574.087	22.3
574.284	22.3
574.48	22.33
574.677	22.41
574.873	22.5
575.069	22.61
575.266	22.65
575.462	22.76
575.658	22.74
575.854	22.76
576.051	22.79
576.247	22.75
576.443	22.69
576.639	22.61
576.835	22.45
577.032	22.37
577.228	22.39
577.424	22.43
577.62	22.42
577.816	22.51
578.012	22.54
578.208	22.56
578.404	22.5
578.6	22.7
578.796	22.75
578.993	22.78
579.189	22.87
579.384	22.92
579.58	22.96
579.776	22.92
579.972	22.95
580.168	22.88
580.364	22.93
580.56	22.79
580.756	22.8
580.952	22.7
581.148	22.69
581.343	22.6
581.539	22.66
581.735	22.66
581.931	22.67
582.127	22.67
582.322	22.59
582.518	22.51
582.714	22.51
582.909	22.59
583.105	22.54
583.301	22.59
583.496	22.53
583.692	22.42
583.888	22.33
584.083	22.42
584.279	22.34
584.474	22.36
584.67	22.37
584.866	22.29
585.061	22.18
585.257	22.27
585.452	22.36
585.648	22.32
585.843	22.34
586.039	22.4
586.234	22.47
586.429	22.4
586.625	22.57
586.82	22.67
587.015	22.65
587.211	22.56
587.406	22.54
587.601	22.55
587.797	22.51
587.992	22.49
588.187	22.46
588.383	22.51
588.578	22.55
588.773	22.59
588.968	22.7
589.163	22.81
589.359	22.75
589.554	22.66
589.749	22.66
589.944	22.62
590.139	22.53
590.334	22.71
590.529	22.68
590.724	22.77
590.919	22.84
591.114	22.96
591.309	22.98
591.504	23.09
591.699	23.07
591.894	23.05
592.089	23.1
592.284	23.16
592.479	23.17
592.674	23.27
592.869	23.28
593.064	23.3
593.259	23.28
593.454	23.27
593.648	23.27
593.843	23.27
594.038	23.3
594.233	23.31
594.428	23.46
594.622	23.56
594.817	23.78
595.012	23.85
595.206	23.97
595.401	24.03
595.596	24
595.79	23.94
595.985	24
596.18	24.05
596.374	24.14
596.569	24.21
596.763	24.38
596.958	24.47
597.153	24.56
597.347	24.61
597.542	24.83
597.736	24.92
597.931	24.93
598.125	24.98
598.319	24.99
598.514	24.94
598.708	25
598.903	25.1
599.097	25.23
599.291	25.33
599.486	25.49
599.68	25.52
599.874	25.66
600.069	25.64
600.263	25.75
600.457	25.73
600.651	25.76
600.846	25.78
601.04	25.85
601.234	25.8
601.428	25.82
601.622	25.82
601.817	25.84
602.011	25.9
602.205	26.02
602.399	25.98
602.593	26.04
602.787	26.07
602.981	26.03
603.175	26.02
603.369	26.08
603.563	26.13
603.757	25.96
603.951	25.88
604.145	25.75
604.339	25.8
604.533	25.77
604.727	25.84
604.921	25.85
605.115	25.93
605.309	25.77
605.502	25.73
605.696	25.84
605.89	25.9
606.084	25.88
606.278	25.93
606.471	25.86
606.665	25.77
606.859	25.66
607.053	25.48
607.246	25.45
607.44	25.38
607.634	25.32
607.827	25.26
608.021	25.3
608.214	25.24
608.408	25.19
608.602	24.97
608.795	24.99
608.989	24.87
609.182	24.86
609.376	24.82
609.569	24.82
609.763	24.73
609.956	24.78
610.15	24.65
610.343	24.51
610.537	24.46
610.73	24.26
610.923	24.12
611.117	24.12
611.31	24.11
611.504	24.04
611.697	24.07
611.89	23.97
612.083	23.8
612.277	23.76
612.47	23.71
612.663	23.75
612.856	23.69
613.05	23.67
613.243	23.54
613.436	23.54
613.629	23.35
613.822	23.41
614.015	23.32
614.209	23.29
614.402	23.24
614.595	23.17
614.788	22.98
614.981	22.85
615.174	22.72
615.367	22.58
615.56	22.44
615.753	22.51
615.946	22.49
616.139	22.43
616.332	22.33
616.525	22.31
616.718	22.11
616.911	22.12
617.103	22.18
617.296	22.2
617.489	22.1
617.682	22.11
617.875	22.02
618.067	21.96
618.26	21.86
618.453	21.93
618.646	21.97
618.838	21.89
619.031	21.79
619.224	21.8
619.417	21.78
619.609	21.61
619.802	21.63
619.994	21.61
620.187	21.52
620.38	21.44
620.572	21.47
620.765	21.43
620.957	21.35
621.15	21.3
621.342	21.37
621.535	21.33
621.727	21.29
621.92	21.23
622.112	21.25
622.305	21.16
622.497	21.03
622.69	21.04
622.882	21.1
623.074	21.03
623.267	20.94
623.459	20.97
623.651	20.94
623.844	20.94
624.036	20.98
624.228	20.96
624.42	20.98
624.613	20.97
624.805	20.86
624.997	20.85
625.189	20.89
625.381	20.79
625.574	20.72
625.766	20.66
625.958	20.59
626.15	20.54
626.342	20.55
626.534	20.49
626.726	20.53
626.918	20.46
627.11	20.44
627.302	20.39
627.494	20.39
627.686	20.39
627.878	20.42
628.07	20.44
628.262	20.46
628.454	20.42
628.646	20.43
628.838	20.44
629.029	20.32
629.221	20.26
629.413	20.19
629.605	20.08
629.797	20.01
629.989	20.02
630.18	20.03
630.372	20.08
630.564	19.97
630.755	19.83
630.947	19.75
631.139	19.68
631.33	19.59
631.522	19.6
631.714	19.6
631.905	19.62
632.097	19.5
632.289	19.49
632.48	19.47
632.672	19.48
632.863	19.31
633.055	19.35
633.246	19.33
633.438	19.35
633.629	19.34
633.821	19.44
634.012	19.44
634.203	19.41
634.395	19.34
634.586	19.31
634.777	19.26
634.969	19.19
635.16	19.14
635.351	19.06
635.543	19.04
635.734	18.99
635.925	19.03
636.117	19.06
636.308	19.12
636.499	19.11
636.69	19.08
636.881	18.97
637.073	18.93
637.264	18.87
637.455	18.78
637.646	18.77
637.837	18.79
638.028	18.74
638.219	18.79
638.41	18.89
638.601	18.82
638.792	18.83
638.983	18.82
639.174	18.8
639.365	18.8
639.556	18.72
639.747	18.68
639.938	18.63
640.129	18.58
640.32	18.47
640.511	18.53
640.701	18.5
640.892	18.56
641.083	18.55
641.274	18.52
641.465	18.5
641.655	18.49
641.846	18.4
642.037	18.31
642.228	18.22
642.418	18.07
642.609	18.02
642.8	17.99
642.99	17.96
643.181	17.99
643.372	18.03
643.562	17.99
643.753	17.93
643.943	17.88
644.134	17.73
644.324	17.73
644.515	17.71
644.705	17.76
644.896	17.77
645.086	17.86
645.277	17.81
645.467	17.83
645.658	17.69
645.848	17.68
646.038	17.65
646.229	17.67
646.419	17.53
646.61	17.51
646.8	17.43
646.99	17.44
647.18	17.34
647.371	17.43
647.561	17.43
647.751	17.39
647.941	17.29
648.132	17.3
648.322	17.19
648.512	17.22
648.702	17.3
648.892	17.33
649.082	17.33
649.272	17.31
649.462	17.27
649.653	17.11
649.843	16.96
650.033	16.93
650.223	16.91
650.413	16.95
650.603	17.06
650.793	17.19
650.983	17.1
651.172	17.1
651.362	16.92
651.552	16.81
651.742	16.68
651.932	16.77
652.122	16.65
652.312	16.67
652.502	16.56
652.691	16.64
652.881	16.54
653.071	16.57
653.261	16.44
653.45	16.4
653.64	16.21
653.83	16.1
654.019	15.99
654.209	15.97
654.399	15.88
654.588	15.74
654.778	15.63
654.968	15.54
655.157	15.42
655.347	15.27
655.536	15.18
655.726	15.03
655.915	14.88
656.105	14.74
656.294	14.67
656.484	14.56
656.673	14.55
656.863	14.5
657.052	14.37
657.241	14.24
657.431	14.09
657.62	13.89
657.809	13.61
657.999	13.48
658.188	13.38
658.377	13.2
658.567	13.11
658.756	13
658.945	12.89
659.134	12.69
659.324	12.58
659.513	12.44
659.702	12.26
659.891	12.09
660.08	12
660.269	11.85
660.458	11.71
660.648	11.63
660.837	11.49
661.026	11.31
661.215	11.25
661.404	10.99
661.593	10.79
661.782	10.63
661.971	10.51
662.16	10.37
662.349	10.29
662.538	10.13
662.726	10.02
662.915	10.01
663.104	9.85
663.293	9.8
663.482	9.76
663.671	9.68
663.86	9.48
664.048	9.43
664.237	9.31
664.426	9.33
664.615	9.27
664.803	9.19
664.992	9.04
665.181	8.94
665.369	8.74
665.558	8.66
665.747	8.6
665.935	8.6
666.124	8.52
666.312	8.47
666.501	8.39
666.69	8.3
666.878	8.2
667.067	8.12
667.255	8.14
667.444	8.23
667.632	8.3
667.82	8.3
668.009	8.34
668.197	8.33
668.386	8.14
668.574	8.03
668.762	7.98
668.951	7.98
669.139	7.91
669.327	7.95
669.516	7.97
669.704	8.07
669.892	8.1
670.08	8.16
670.269	8.17
670.457	8.13
670.645	8.02
670.833	7.99
671.021	8.04
671.21	8.05
671.398	8.18
671.586	8.12
671.774	8.22
671.962	8.15
672.15	8.2
672.338	8.17
672.526	8.4
672.714	8.38
672.902	8.5
673.09	8.54
673.278	8.65
673.466	8.7
673.654	8.76
673.842	8.74
674.03	8.87
674.218	8.83
674.405	8.83
674.593	8.91
674.781	9
674.969	9.07
675.157	9.21
675.344	9.26
675.532	9.31
675.72	9.31
675.908	9.22
676.095	9.21
676.283	9.47
676.471	9.62
676.658	9.75
676.846	9.87
677.033	9.84
677.221	9.7
677.409	9.74
677.596	9.85
677.784	10.01
677.971	10.14
678.159	10.29
678.346	10.33
678.534	10.48
678.721	10.56
678.909	10.85
679.096	10.89
679.283	10.93
679.471	11.08
679.658	11.12
679.846	11.16
680.033	11.44
680.22	11.66
680.408	11.67
680.595	11.9
680.782	12.08
680.969	12.23
681.157	12.24
681.344	12.25
681.531	12.3
681.718	12.33
681.905	12.34
682.093	12.58
682.28	12.84
682.467	13.09
682.654	13.2
682.841	13.39
683.028	13.44
683.215	13.7
683.402	13.78
683.589	14.12
683.776	14.17
683.963	14.61
684.15	14.75
684.337	14.96
684.524	15.08
684.711	15.44
684.898	15.44
685.085	15.58
685.271	16.04
685.458	16.32
685.645	16.59
685.832	17.01
686.019	17.35
686.205	17.59
686.392	17.9
686.579	18.33
686.766	18.54
686.952	18.93
687.139	19.25
687.326	19.63
687.512	19.73
687.699	20.28
687.886	20.64
688.072	21.07
688.259	21.42
688.445	22.24
688.632	22.51
688.818	23.06
689.005	23.54
689.191	24.08
689.378	24.39
689.564	25.01
689.751	25.55
689.937	26.26
690.124	26.88
690.31	27.28
690.496	27.87
690.683	28.63
690.869	29
691.055	29.57
691.242	30.44
691.428	31.14
691.614	31.62
691.8	32.4
691.987	33.12
692.173	33.7
692.359	34.42
692.545	35.34
692.731	35.82
692.918	36.37
693.104	36.94
693.29	37.54
693.476	38.03
693.662	38.94
693.848	39.76
694.034	40.58
694.22	41.33
694.406	41.98
694.592	42.58
694.778	43.11
694.964	43.66
695.15	44.28
695.336	44.62
695.522	45.26
695.708	46.12
695.894	46.9
696.08	47.54
696.265	48.48
696.451	48.9
696.637	49.56
696.823	50.19
697.009	50.84
697.194	51.61
697.38	52.42
697.566	52.91
697.751	53.62
697.937	54.44
698.123	55.13
698.308	55.55
698.494	56.66
698.68	57.44
698.865	57.67
699.051	58.24
699.236	58.99
699.422	59.02
699.607	59.48
699.793	60.49
699.978	60.88
700.164	61.31
700.349	61.99
700.535	62.14
700.72	62.37
700.906	63
701.091	63.93
701.276	64.38
701.462	65.41
701.647	66.04
701.832	66.56
702.018	67.1
702.203	67.73
702.388	68.02
702.573	68.64
702.759	69.4
702.944	69.66
703.129	69.85
703.314	70.09
703.499	70.22
703.684	70.28
703.87	70.7
704.055	71.24
704.24	71.91
704.425	72.58
704.61	72.85
704.795	73.48
704.98	73.8
705.165	74.09
705.35	74.4
705.535	75.06
705.72	75.22
705.905	76.12
706.09	76.75
706.275	76.86
706.459	77.27
706.644	77.85
706.829	78.01
707.014	78.23
707.199	78.76
707.384	78.57
707.568	78.66
707.753	78.79
707.938	79
708.123	79.35
708.307	80.01
708.492	80.67
708.677	80.79
708.861	81.34
709.046	81.14
709.231	80.96
709.415	80.6
709.6	80.94
709.784	80.94
709.969	81.46
710.153	81.85
710.338	82.88
710.522	83.51
710.707	83.83
710.891	83.71
711.076	83.97
711.26	83.72
711.445	83.57
711.629	83.18
711.813	83.92
711.998	84.34
712.182	84.35
712.366	84.96
712.551	85.67
712.735	85.37
712.919	85.86
713.103	85.83
713.288	85.57
713.472	85.56
713.656	85.97
713.84	85.81
714.024	86.16
714.208	86.27
714.393	86.75
714.577	87.23
714.761	87.3
714.945	87.73
715.129	87.92
715.313	87.86
715.497	87.53
715.681	87.6
715.865	87.65
716.049	87.71
716.233	87.44
716.417	87.43
716.601	87.9
716.785	87.98
716.968	88.03
717.152	88.38
717.336	88.89
717.52	88.96
717.704	89.21
717.888	89.85
718.071	89.5
718.255	89.71
718.439	89.84
718.622	89.71
718.806	89.36
718.99	89.9
719.174	89.92
719.357	89.93
719.541	90.22
719.724	90.15
719.908	90.42
720.092	90.55
720.275	91.2
720.459	91.47
720.642	91.96
720.826	91.95
721.009	91.9
721.193	90.99
721.376	90.66
721.559	90.74
721.743	91.5
721.926	91.69
722.11	92.74
722.293	93.6
722.476	93.33
722.66	93.6
722.843	93.87
723.026	93.85
723.21	93.02
723.393	93.7
723.576	93.35
723.759	93.08
723.942	93.17
724.126	93.75
724.309	93.52
724.492	93.56
724.675	93.68
724.858	93.61
725.041	93.6
725.224	93.96
725.407	93.81
725.59	94.25
725.774	94.04
725.957	94.26
726.14	93.97
726.322	94.91
726.505	95.32
726.688	95.59
726.871	95.3
727.054	95.85
727.237	95
727.42	94.54
727.603	94.66
727.786	94.79
727.968	94.55
728.151	94.71
728.334	95.45
728.517	95.28
728.699	95.68
728.882	96.32
729.065	96.32
729.248	95.98
729.43	96.76
729.613	96.65
729.796	96.67
729.978	97.09
730.161	97.28
730.343	96.99
730.526	97.29
730.708	96.44
730.891	96.52
731.073	96.28
731.256	96.41
731.438	97.66
731.621	98.63
731.803	98.46
731.986	98.61
732.168	98.57
732.35	97.99
732.533	97.94
732.715	98.13
732.898	98.72
733.08	99.05
733.262	98.21
733.444	98.46
733.627	98.66
733.809	98.95
733.991	98.79
734.173	98.86
734.355	98.87
734.538	99.61
734.72	99.06
734.902	99.23
735.084	99.81
735.266	100.17
735.448	99.87
735.63	100.05
735.812	100.49
735.994	100.55
736.176	100.59
736.358	100.69
736.54	101.56
736.722	100.29
736.904	100.41
737.086	99.63
737.268	100.54
737.45	100.52
737.632	101.83
737.814	102.6
737.995	103.42
738.177	102.6
738.359	101.98
738.541	101.5
738.723	101.11
738.904	101.08
739.086	101.46
739.268	101.42
739.449	101.08
739.631	101.2
739.813	100.35
739.994	100.32
740.176	101.34
740.358	102.03
740.539	101.19
740.721	102.04
740.902	101.61
741.084	101.48
741.265	101.43
741.447	102.41
741.628	102.94
741.81	103.51
741.991	103.16
742.172	102.44
742.354	102.92
742.535	102.86
742.717	102.26
742.898	102.03
743.079	103.09
743.261	102.19
743.442	101.15
743.623	101.34
743.804	101.3
743.986	101.11
744.167	100.73
744.348	101.31
744.529	101.06
744.71	101.28
744.891	101.2
745.073	101.31
745.254	101.11
745.435	101.57
745.616	101.44
745.797	100.98
745.978	100.98
746.159	100.46
746.34	100.58
746.521	100.77
746.702	101.85
746.883	102.2
747.064	102.72
747.245	103.25
747.426	104.51
747.606	104.4
747.787	104.35
747.968	104.54
748.149	103.45
748.33	101.71
748.51	101.12
748.691	101.41
748.872	102.68
749.053	101.94
749.233	102.27
749.414	103.33
749.595	103.2
749.775	101.76
749.956	102.96
750.137	102.32
750.317	102.01
750.498	101.93
750.678	101.61
750.859	101.37
751.04	101.91
751.22	99.93
751.4	99.06
751.581	100.49
751.761	100.41
751.942	100.43
752.122	100.63
752.303	101.39
752.483	100.58
752.663	100.61
752.844	100.15
753.024	102.09
753.204	101.99
753.385	101.48
753.565	100.77
753.745	99.8
753.925	98.76
754.106	98.59
754.286	97.53
754.466	97.51
754.646	97.97
754.826	98.59
755.006	98.55
755.187	100.87
755.367	100.95
755.547	102.19
755.727	101.31
755.907	101.32
756.087	99.47
756.267	99.34
756.447	98.83
756.627	99.33
756.807	100.91
756.987	100.95
757.167	101.68
757.346	99.78
757.526	100.93
757.706	99.53
757.886	101.17
758.066	101.27
758.246	102.6
758.425	99.3
758.605	98.45
758.785	98.06
758.965	98.1
759.144	96.91
759.324	99.33
759.504	100.05
759.683	98.66
759.863	99.72
760.043	101.43
760.222	100.22
760.402	98.2
760.581	98.5
760.761	96.8
760.94	96.83
761.12	98.06
761.299	101.12
761.479	100.73
761.658	100.38
761.838	99.81
762.017	100.09
762.197	97.78
762.376	98.54
762.555	97.64
762.735	97.19
762.914	94.52
763.093	95.16
763.273	94.45
763.452	96.23
763.631	95.21
763.81	96.99
763.99	96.56
764.169	97.22
764.348	95.61
764.527	97.4
764.706	97.4
764.885	99.1
765.064	99.22
765.243	99.3
765.423	98.86
765.602	99.68
765.781	98.26
765.96	97.46
766.139	96.96
766.318	97.97
766.497	96.68
766.676	95.48
766.854	97.93
767.033	99.15
767.212	99.56
767.391	100.05
767.57	102.44
767.749	99.78
767.928	100.27
768.106	98.6
768.285	96.02
768.464	95.07
768.643	94.53
768.821	93.73
769	93.1
769.179	93.74
769.357	93.32
769.536	92.4
769.715	91.28
769.893	91.92
770.072	91.86
770.25	90.92
770.429	91.97
770.607	92.61
770.786	91.6
770.964	93.33
771.143	95.23
771.321	94.31
771.5	95.06
771.678	95.54
771.857	93.6
772.035	94.6
772.213	94.83
772.392	93.66
772.57	93.67
772.748	93.53
772.927	92.69
773.105	96.07
773.283	96.93
773.461	97.74
773.64	99
773.818	99.06
773.996	96.45
774.174	95.58
774.352	94.23
774.531	94.28
774.709	94.81
774.887	92.94
775.065	93.32
775.243	93.65
775.421	92.7
775.599	91.64
775.777	93.15
775.955	91.59
776.133	90.77
776.311	91.06
776.489	90.14
776.667	89.6
776.844	91.41
777.022	91.06
777.2	90.92
777.378	90.03
777.556	92.18
777.734	92.36
777.911	96.69
778.089	98.04
778.267	99.23
778.445	100.3
778.622	99.9
778.8	93.28
778.978	93.49
779.155	93.64
779.333	92.95
779.511	91.56
779.688	95.64
779.866	94.42
780.043	94.48
780.221	92.52
780.398	92.44
780.576	91.25
780.753	89.96
780.931	89.25
781.108	91.69
781.286	92.37
781.463	91.48
781.64	93.71
781.818	95.35
781.995	92.59
782.172	91.87
782.35	92.69
782.527	91.61
782.704	89.64
782.882	85.6
783.059	87.34
783.236	88.16
783.413	88.39
783.59	89.55
783.768	91.76
783.945	91.92
784.122	91.54
784.299	88.99
784.476	85.01
784.653	85.09
784.83	80.99
785.007	80.48
785.184	82.78
785.361	85.94
785.538	85.79
785.715	90.9
785.892	88.68
786.069	87.77
786.246	85.92
786.423	83.25
786.6	81.88
786.776	84.02
786.953	83.12
787.13	83.67
787.307	87.04
787.484	81.34
787.66	80.08
787.837	81.2
788.014	81.02
788.191	80.41
788.367	82.82
788.544	83.34
788.721	82.08
788.897	84.07
789.074	84.25
789.25	84.5
789.427	85.27
789.603	84.85
789.78	81.89
789.956	80.78
790.133	80.05
790.309	80.67
790.486	82.13
790.662	82.47
790.839	81.25
791.015	83.41
791.192	80.09
791.368	79.33
791.544	80.71
791.721	85.16
791.897	83.45
792.073	83.72
792.249	84.27
792.426	83.32
792.602	84.02
792.778	83.41
792.954	82.01
793.13	82.22
793.307	84.08
793.483	77.54
793.659	81.01
793.835	84.93
794.011	86.64
794.187	86.49
794.363	88.17
794.539	89.54
794.715	85.59
794.891	84.45
795.067	79.86
795.243	83.05
795.419	79.92
795.595	87.55
795.771	86.15
795.947	90.39
796.122	84.91
796.298	84.13
796.474	85.8
796.65	86.36
796.826	83.23
797.001	88.83
797.177	82.02
797.353	78.38
797.529	78.04
797.704	77.46
797.88	74.41
798.056	82.69
798.231	78.01
798.407	77.94
798.582	77.81
798.758	79.11
798.934	77.33
799.109	75.24
799.285	76.93
799.46	75.71
799.636	74.92
799.811	76.48
799.986	79.39
800.162	74.71
800.337	80.96
800.513	82.31
800.688	75.76
800.863	85.76
801.039	90.5
801.214	80.76
801.389	80.17
801.565	89.18
801.74	80.84
801.915	82.09
802.09	89.15
802.265	89.08
802.441	84.86
802.616	80.91
802.791	77.88
802.966	76.67
803.141	79.9
803.316	73.7
803.491	73.2
803.666	76.55
803.841	74.64
804.016	65.12
804.191	69.11
804.366	75.2
804.541	68.96
804.716	65.68
804.891	72.3
805.066	81.02
805.241	82.37
805.416	86.54
805.591	92.13
805.765	101.56
805.94	93.29
806.115	86.33
806.29	78.61
806.464	75.44
806.639	64.38
806.814	64.3
806.989	63.65
807.163	69
807.338	63.73
807.512	63.69
807.687	61.36
807.862	62.68
808.036	71.43
808.211	80.58
808.385	80.64
808.56	75.55
808.734	72.48
808.909	62.46
809.083	61.54
809.258	67.18
809.432	78.53
809.606	78.81
809.781	82.16
809.955	80.62
810.13	80.22
810.304	73.22
810.478	73.46
810.652	70.15
810.827	71.41
811.001	71.17
811.175	69.45
811.349	72.07
811.524	78.46
811.698	73.74
811.872	78.67
812.046	80.86
812.22	80.38
812.394	72.12
812.568	76.06
812.742	66.43
812.916	73.76
813.09	70.12
813.264	71.93
813.438	68.43
813.612	68.58
813.786	61.82
813.96	71.12
814.134	67.79
814.308	71.55
814.482	74.27
814.656	70.34
814.83	71.37
815.003	74.14
815.177	74.77
815.351	75.82
815.525	77.09
815.698	62.21
815.872	50.8
816.046	42.97
816.219	45.52
816.393	51.52
816.567	61.6
816.74	74.63
816.914	77.39
817.088	74.54
817.261	62.46
817.435	53.2
817.608	51.25
817.782	49.54
817.955	55.91
818.129	62.71
818.302	73.39
818.475	78.96
818.649	74.75
818.822	64.69
818.996	74.75
819.169	73
819.342	65.96
819.516	73.28
819.689	81.96
819.862	74.95
820.035	76.01
820.209	73.42
820.382	68.23
820.555	52.72
820.728	49.57
820.901	30.53
821.075	40.79
821.248	65.31
821.421	74.49
821.594	74.48
821.767	89.22
821.94	75.58
822.113	62.22
822.286	68.71
822.459	72.89
822.632	74.97
822.805	77.83
822.978	74.21
823.151	63.54
823.324	57.48
823.496	45.87
823.669	61.07
823.842	70.06
824.015	64.12
824.188	62.3
824.361	69.35
824.533	50.72
824.706	50.79
824.879	54.77
825.051	61.65
825.224	61.37
825.397	64.46
825.569	53.85
825.742	69.91
825.915	71.58
826.087	70.73
826.26	62.75
826.432	63.72
826.605	55.13
826.777	62.68
826.95	65.83
827.122	66.25
827.295	74.51
827.467	74.43
827.64	51.59
827.812	29.33
827.984	42.97
828.157	37.15
828.329	38.44
828.501	46.21
828.674	57.79
828.846	51.06
829.018	46.7
829.19	40.44
829.363	44.19
829.535	47.06
829.707	48.29
829.879	54.71
830.051	63.59
830.223	54.26
830.395	37.76
830.568	37.55
830.74	30.92
830.912	32.91
831.084	32.97
831.256	45.09
831.428	53.81
831.6	55.82
831.772	47.69
831.943	43.19
832.115	49.29
832.287	46.21
832.459	41.14
832.631	51.76
832.803	58.48
832.975	57.43
833.146	46.24
833.318	45.93
833.49	48.05
833.662	51.01
833.833	39.47
834.005	59.85
834.177	66.36
834.348	64.53
834.52	55.59
834.692	48.9
834.863	40.33
835.035	42.46
835.206	32.05
835.378	39.88
835.549	45.53
835.721	51.95
835.892	51.31
836.064	49.38
836.235	44.8
836.407	37.78
836.578	26.56
836.749	22.65
836.921	30.22
837.092	18.62
837.264	30.66
837.435	26
837.606	30.33
837.777	37.86
837.949	53.66
838.12	53.25
838.291	63.08
838.462	61.59
838.633	56.66
838.805	38.32
838.976	42.91
839.147	36.31
839.318	45.24
839.489	34.65
839.66	51.13
839.831	43.19
840.002	46.59
840.173	43.8
840.344	53.79
840.515	43.38
840.686	45.86
840.857	38.29
841.028	41.75
841.199	33.2
841.369	37.72
841.54	28.51
841.711	42.33
841.882	33.57
842.053	32.4
842.223	25.85
842.394	28.04
842.565	21.67
842.736	36.57
842.906	49.54
843.077	67.96
843.248	86.87
843.418	73.49
843.589	72.72
843.759	69.26
843.93	59.97
844.101	44.57
844.271	67.06
844.442	64.48
844.612	70.97
844.783	58.02
844.953	53.4
845.123	45.05
845.294	30.55
845.464	8.4
845.635	25.36
845.805	11.49
845.975	11.47
846.146	11.27
846.316	30.02
846.486	38.15
846.656	55.74
846.827	60.05
846.997	76.37
847.167	49.02
847.337	41.38
847.507	36.88
847.677	44.63
847.848	54.26
848.018	71.64
848.188	71.1
848.358	68.41
848.528	68.93
848.698	38.28
848.868	41.08
849.038	31.78
849.208	45.25
849.378	46.05
849.548	54.14
849.718	36.28
849.887	19.68
850.057	-7.38
850.227	-8.76
850.397	-12.46
850.567	-16.66
850.737	37.69
850.906	56.77
851.076	1.95
851.246	35.35
851.415	49.79
851.585	45.76
851.755	55.24
851.924	110.92
852.094	121.98
852.264	107.82
852.433	87
852.603	74.03
852.772	60.55
852.942	53.61
853.111	41.36
853.281	28.1
853.45	15.25
853.62	-4.66
853.789	-36.12
853.959	-20.02
854.128	-11.36
854.297	11.54
854.467	22.1
854.636	26.61
854.805	35.18
854.975	31.77
855.144	31.14
855.313	42.32
855.482	28.83
855.652	15.71
855.821	11.46
855.99	5.94
856.159	-4.64
856.328	24.49
856.497	27.19
856.667	39.28
856.836	56.52
857.005	66.02
857.174	40.6
857.343	40.36
857.512	38.71
857.681	8.36
857.85	5.97
858.019	6.4
858.188	15.13
858.356	21.87
858.525	28.55
858.694	65.36
858.863	64.92
859.032	61.2
859.201	65.02
859.369	72.96
859.538	34.98
859.707	37.42
859.876	33.37
860.044	47.04
860.213	55.64
860.382	42.53
860.55	25.54
860.719	34.1
860.888	27.49
861.056	-10.34
861.225	8.64
861.393	27.61
861.562	17.81
861.73	-10.05
861.899	13.11
862.067	-4.33
862.236	-4.94
862.404	11.32
862.572	31.68
862.741	4.1
862.909	13.32
863.078	16.23
863.246	-1.56
863.414	35.92
863.582	46.73
863.751	44.48
863.919	45.38
864.087	46.43
864.255	36.51
864.424	5.66
864.592	16.87
864.76	1.61
864.928	18.02
865.096	-0.46
865.264	22.23
865.432	36.97
865.6	65.91
865.768	18.36
865.936	9.26
866.104	-1.87
866.272	-59.76
866.44	-81.68
866.608	-19.61
866.776	-34.19
866.944	-20.44
867.112	-7.01
867.28	4.47
867.448	-10.83
867.615	-1.91
867.783	-35.6
867.951	-35.77
868.119	-31.38
868.286	-30.09
868.454	-17.18
868.622	-2.94
868.789	13.69
868.957	23.15
869.125	24.94
869.292	5.57
869.46	21.11
869.627	0.84
869.795	-50.97
869.963	-22.07
870.13	-16.4
870.298	3.91
870.465	12.72
870.632	-12.82
870.8	-13.56
870.967	-10.55
871.135	-53.87
871.302	-50.74
871.469	-24.24
871.637	-46.36
871.804	-8.91
871.971	-6.83
872.139	-3.17
872.306	-8.1
872.473	-38.43
872.64	-173.72
872.807	-120.15
872.975	-234.78
873.142	-56.29
873.309	-19.32
873.476	52.49
873.643	46.48
873.81	27.69
873.977	-11.08
874.144	-1.57
874.311	-76.14
874.478	-52.71
874.645	-101.96
874.812	0.93
874.979	-31.74
875.146	-78.18
875.313	-60.11
875.48	25.18
875.647	-9.22
875.813	-24.45
875.98	5.6
876.147	-30.05
876.314	-88.15
876.481	-53.89
876.647	1.05
876.814	5.3
876.981	7.52
877.147	13.55
877.314	-6
877.481	-12.19
877.647	-18.65
877.814	-19.82
877.98	-4.11
878.147	31.24
878.314	33.57
878.48	45.02
878.647	62.01
878.813	76.33
878.979	23.91
879.146	20.9
879.312	40.28
879.479	11.97
879.645	7.79
879.811	23.96
879.978	40.23
880.144	12.9
880.31	23.33
880.477	15.53
880.643	21.86
880.809	-20.27
880.975	-21.42
881.142	-113.67
881.308	469.18
881.474	651.39
881.64	-124.12
881.806	-166.39
881.972	-76.86
882.138	-17.41
882.304	-36.61
882.47	-72.96
882.636	-45.73
882.802	-41.11
882.968	-6.65
883.134	-24.37
883.3	-29.39
883.466	16.66
883.632	54.09
883.798	-9.45
883.964	-2.63
884.129	138.86
884.295	-18.68
884.461	-116.31
884.627	-1.05
884.793	-17.8
884.958	3.65
885.124	-0.17
885.29	-5
885.455	-63.25
885.621	1.47
885.787	-7.24
885.952	-29.04
886.118	18.99
886.283	4.35
886.449	-22.27
886.614	-35.83
886.78	-28.72
886.945	-75.21
887.111	-76.62
887.276	-82.87
887.442	-147.71
887.607	-112.59
887.773	-65.36
887.938	-44.3
888.103	-21.25
888.269	27.89
888.434	14.7
888.599	10.77
888.764	30.43
888.93	37.21
889.095	10
889.26	-11.24
889.425	-17.48
889.59	-42.97
889.756	-44.85
889.921	-37.05
890.086	18.85
890.251	87.55
890.416	38
890.581	14.58
890.746	28.13
890.911	35.92
891.076	8.2
891.241	-6.23
891.406	9.9
891.571	13.43
891.736	-87.42
891.901	19.76
892.065	70.5
892.23	69.22
892.395	56.77
892.56	55.86
892.725	72.93
892.889	39.81
893.054	31.58
893.219	-12.31
893.384	-25.18
893.548	-70.88
893.713	-178.12
893.878	-256.51
