Data from Ofra_PS_T2_1A_0GT05_Reflection_2.txt Node
Date: Wed Jul 21 17:46:58 EDT 2021
User: Adam
Spectrometer: FLMT01687
Trigger mode: 0
Integration Time (sec): 1.100000E0
Scans to average: 2
Electric dark correction enabled: true
Nonlinearity correction enabled: false
Boxcar width: 2
XAxis mode: Wavelengths
Number of Pixels in Spectrum: 3648
>>>>>Begin Spectral Data<<<<<
179.494	566
179.716	659.53
179.937	613.41
180.158	612.12
180.38	956.56
180.601	326.8
180.823	108.31
181.044	-50.95
181.265	48.9
181.486	40.35
181.708	124.83
181.929	576.53
182.15	-664.08
182.372	48.48
182.593	18.64
182.814	47.93
183.035	82.35
183.257	47.39
183.478	-41.6
183.699	3.03
183.92	-45.36
184.141	-21.8
184.363	-34.83
184.584	4.92
184.805	-13.6
185.026	26.55
185.247	22.87
185.468	-0.04
185.689	-8.7
185.91	8.4
186.132	5.74
186.353	14.69
186.574	85.07
186.795	72.89
187.016	19.77
187.237	-7.9
187.458	-54.61
187.679	-66.09
187.9	-52.51
188.121	-20.9
188.342	-26.82
188.563	28.23
188.784	41.23
189.005	53.16
189.226	83.95
189.447	83.79
189.667	-137.14
189.888	-341.63
190.109	-1340.91
190.33	-817.1
190.551	-1399.56
190.772	-350.97
190.993	-294.39
191.214	-265.39
191.434	-193.06
191.655	-58.59
191.876	-74.69
192.097	-124.91
192.318	-159.94
192.538	-143.55
192.759	-145.51
192.98	-46.47
193.201	1.65
193.421	17.04
193.642	13.97
193.863	19.87
194.083	-1.2
194.304	-10.52
194.525	-17.32
194.745	-21.18
194.966	-60.47
195.187	-65.86
195.407	-111.79
195.628	-193.72
195.848	-203.67
196.069	-209.73
196.29	-150.87
196.51	-133.54
196.731	-108.57
196.951	-115.53
197.172	-110.45
197.392	-157.55
197.613	-162.53
197.833	-192.6
198.054	-182.72
198.274	-103.95
198.495	-121.36
198.715	-68.51
198.936	-84.97
199.156	-77.45
199.377	-210.94
199.597	-184.33
199.817	-206.85
200.038	-120.1
200.258	-179.27
200.479	-74.06
200.699	-58.92
200.919	2.26
201.14	-40.24
201.36	-39.76
201.58	2.16
201.801	26.77
202.021	-18.45
202.241	-1.24
202.461	-10.44
202.682	-134.26
202.902	-187.57
203.122	-114.91
203.342	-128.11
203.563	-70.71
203.783	-38.25
204.003	-94.71
204.223	-84.17
204.443	5.29
204.663	-34.29
204.884	8.55
205.104	26.46
205.324	38.16
205.544	18.95
205.764	49.89
205.984	22.34
206.204	23.18
206.424	-1.52
206.644	-68.29
206.864	-52.86
207.084	-100.22
207.304	-76.71
207.525	-130.47
207.745	-87.9
207.964	-44.56
208.184	-108.58
208.404	-139.54
208.624	-136.13
208.844	-115.78
209.064	-451.5
209.284	-345.98
209.504	-183.58
209.724	-29.31
209.944	-19
210.164	21.57
210.384	7.46
210.604	6.65
210.823	-76.61
211.043	-94.3
211.263	-78.88
211.483	-78.8
211.703	-130.41
211.922	-107.29
212.142	-36.35
212.362	-35.93
212.582	-34.25
212.801	-34.44
213.021	-31.04
213.241	-37.94
213.461	-82.2
213.68	-112.12
213.9	-73.61
214.12	-64.62
214.339	-151.35
214.559	-134.52
214.779	-60.08
214.998	-65.56
215.218	-131.04
215.438	-53.72
215.657	-32.49
215.877	-33.32
216.096	-10.4
216.316	17.26
216.535	-6.13
216.755	-20.05
216.974	-111.97
217.194	-156.58
217.413	-158.96
217.633	-149.46
217.852	-232.73
218.072	-118.32
218.291	-65.31
218.511	-9.15
218.73	-35.09
218.95	-31.68
219.169	-28.11
219.389	-59.14
219.608	-64.84
219.827	-57.13
220.047	-47.23
220.266	-36.56
220.485	-40.1
220.705	-25.44
220.924	-43.19
221.143	6.8
221.363	-14.23
221.582	1.84
221.801	15.22
222.021	39.45
222.24	-41.55
222.459	-24.87
222.678	-72.3
222.897	-167.17
223.117	-227
223.336	-197.55
223.555	-126.38
223.774	-69.18
223.993	-25.5
224.213	36.26
224.432	27.25
224.651	62.77
224.87	34.53
225.089	37.28
225.308	17.84
225.527	43.68
225.746	37.08
225.965	21.91
226.184	-1.27
226.404	28.75
226.623	-11.51
226.842	-10.85
227.061	24.13
227.28	13.28
227.499	-25.69
227.718	-8.44
227.936	-22.8
228.155	-28.83
228.374	-24.51
228.593	7.42
228.812	19.15
229.031	11.04
229.25	-45.67
229.469	-40.78
229.688	-42.43
229.907	-10.78
230.125	1.11
230.344	11.04
230.563	21.69
230.782	19.03
231.001	-82.88
231.22	-62.33
231.438	-26.72
231.657	-25.8
231.876	-37.05
232.095	25.83
232.313	25.32
232.532	-8.18
232.751	-30.73
232.969	-44.44
233.188	-128.8
233.407	-49.59
233.625	-17.92
233.844	-41.51
234.063	-21.49
234.281	2.4
234.5	-18.59
234.719	-14.6
234.937	19.33
235.156	31.61
235.374	28.33
235.593	28.47
235.811	17.56
236.03	-28.39
236.249	-69.81
236.467	-58.66
236.686	-28.78
236.904	-0.44
237.123	-14.27
237.341	-18.92
237.559	-21.13
237.778	-51.4
237.996	-114.28
238.215	-47.96
238.433	-31.86
238.652	-42.24
238.87	-48.02
239.088	-21.78
239.307	-20.34
239.525	-28.93
239.743	-54.09
239.962	-61.34
240.18	-73.09
240.398	-135.54
240.617	-117.15
240.835	-96.94
241.053	-31.22
241.271	6.28
241.49	13.02
241.708	-35.8
241.926	-52.82
242.144	-77.24
242.363	-139.15
242.581	-166.46
242.799	-97.16
243.017	-49.57
243.235	-60.23
243.453	-39.6
243.672	-40.65
243.89	-33.27
244.108	-51.05
244.326	-26.98
244.544	-15.72
244.762	-9.85
244.98	-9.66
245.198	-5.85
245.416	-43.89
245.634	-46.32
245.852	-69.16
246.07	-92.11
246.288	-98.62
246.506	-113.92
246.724	-105.9
246.942	-63.8
247.16	-20.36
247.378	-10.04
247.596	26.03
247.814	32.15
248.032	-7.87
248.25	-30.02
248.468	-14.81
248.685	-12.36
248.903	8.94
249.121	9.99
249.339	-6.45
249.557	-22.16
249.775	-17.56
249.992	-84.11
250.21	-63.67
250.428	-47.84
250.646	-65.79
250.863	-100.74
251.081	-61.27
251.299	-66.42
251.517	-62.75
251.734	-48.13
251.952	-29.48
252.17	-33.88
252.387	-12.88
252.605	-21.65
252.823	-18.08
253.04	-8.71
253.258	-2.35
253.475	-12.94
253.693	18.6
253.911	25.92
254.128	26.09
254.346	35.47
254.563	3.27
254.781	-28.8
254.998	-65.13
255.216	-61.09
255.433	-52.92
255.651	3.59
255.868	46.13
256.086	104.65
256.303	83.01
256.521	66.19
256.738	29.62
256.956	-7.21
257.173	-59.55
257.39	-80.7
257.608	-136.34
257.825	-75.32
258.043	-49
258.26	-28.92
258.477	25.17
258.695	19.86
258.912	-41.54
259.129	-18.32
259.346	-53.64
259.564	-109.89
259.781	-107.93
259.998	-21.91
260.216	-2.1
260.433	38.91
260.65	43.59
260.867	58.43
261.084	16.54
261.302	-8.32
261.519	-22.82
261.736	-49.05
261.953	-90.36
262.17	-47.26
262.387	-92.13
262.604	-120.56
262.822	-139.11
263.039	-107.61
263.256	-174.76
263.473	-107.41
263.69	-69.77
263.907	-10.83
264.124	8.5
264.341	18.49
264.558	1.19
264.775	7.01
264.992	-24.64
265.209	-31.97
265.426	-0.77
265.643	-4.18
265.86	5.73
266.077	18.5
266.294	6.9
266.51	-52.95
266.727	-41.14
266.944	-53.42
267.161	-63.71
267.378	-56.33
267.595	-1.64
267.812	-35.43
268.028	-62.87
268.245	-20.22
268.462	-49.97
268.679	-87.06
268.896	-15.58
269.112	4.16
269.329	-6.21
269.546	5.09
269.763	5.12
269.979	-12.28
270.196	-32.07
270.413	-69.57
270.629	-76.46
270.846	-64.83
271.063	-67.09
271.279	-70.81
271.496	-62.26
271.712	-45.98
271.929	-50.33
272.146	-66.86
272.362	-56.23
272.579	-3.04
272.795	18.94
273.012	20.76
273.228	14.23
273.445	-4.75
273.661	-46.02
273.878	-91.01
274.094	-85.12
274.311	-92.06
274.527	-14.88
274.744	-9.73
274.96	-2.22
275.177	4.27
275.393	25.26
275.609	10.78
275.826	28.24
276.042	21.22
276.259	9.19
276.475	23.31
276.691	39.64
276.908	13.42
277.124	27.23
277.34	35.28
277.557	18.07
277.773	-10.77
277.989	-17.07
278.205	-19.78
278.422	-5.4
278.638	-4.39
278.854	1.51
279.07	-0.62
279.286	-18.23
279.503	-69.5
279.719	-77.82
279.935	-91.24
280.151	-93.52
280.367	-50.91
280.583	-52.46
280.799	-55.54
281.016	-84.25
281.232	-36.44
281.448	-42.52
281.664	-1.92
281.88	-21.71
282.096	10.2
282.312	11.48
282.528	11.54
282.744	-2.62
282.96	0.59
283.176	5.67
283.392	0.76
283.608	-11.8
283.824	-23.13
284.04	-16.28
284.256	-30.38
284.471	-36.7
284.687	-27.11
284.903	-4.96
285.119	35.73
285.335	17.38
285.551	32.79
285.767	20.6
285.982	-0.44
286.198	-63.35
286.414	-6.91
286.63	-4.86
286.846	14.64
287.061	1.74
287.277	36.66
287.493	-4.93
287.709	8
287.924	-11.89
288.14	22.41
288.356	5.62
288.571	32.02
288.787	-2.52
289.003	-4.01
289.218	-26.07
289.434	-62.85
289.65	-54.49
289.865	-53.02
290.081	-38.97
290.296	-21.73
290.512	-5.92
290.727	-30.27
290.943	-23.36
291.159	-29.6
291.374	-34.83
291.59	-58.12
291.805	-58.69
292.021	-55.42
292.236	-60.72
292.451	-35.19
292.667	-16.32
292.882	5.23
293.098	4.1
293.313	-9.79
293.529	-44.83
293.744	-72.87
293.959	-72.34
294.175	-57.66
294.39	-10.64
294.605	5.2
294.821	45.46
295.036	52.08
295.251	54.99
295.467	11.67
295.682	-7.09
295.897	-79.42
296.112	-96.14
296.328	-89.49
296.543	-110.13
296.758	-96.6
296.973	-29.74
297.188	6.1
297.404	-26.38
297.619	-32.21
297.834	-40.49
298.049	-72.11
298.264	-105.18
298.479	-46.97
298.694	-28.67
298.909	-5.75
299.125	-9.63
299.34	-10.17
299.555	-29.64
299.77	-10.68
299.985	-70.84
300.2	-127.39
300.415	-144.83
300.63	-99.53
300.845	-100.25
301.06	-90.36
301.275	-39.73
301.49	-10.45
301.704	-32.14
301.919	-55.64
302.134	-66.03
302.349	-59.64
302.564	-133.95
302.779	-168.4
302.994	-148.2
303.209	-74.69
303.423	-36.65
303.638	39.18
303.853	4.79
304.068	-7.07
304.283	-9.45
304.497	-26.53
304.712	-54.97
304.927	-40.95
305.142	-33.74
305.356	-23.72
305.571	-33.22
305.786	-37.92
306	-51.03
306.215	-61.5
306.43	-95.2
306.644	-77.34
306.859	-32.6
307.074	-4.98
307.288	-43.24
307.503	-40.64
307.717	-49.97
307.932	-47.93
308.147	-56.28
308.361	-8.34
308.576	-12.74
308.79	-46.73
309.005	-53.22
309.219	-45.8
309.434	-77.28
309.648	-71.4
309.863	-37.62
310.077	-37.55
310.292	-19.86
310.506	-2.62
310.72	9.66
310.935	21.17
311.149	9.88
311.364	24.19
311.578	29.81
311.792	10.75
312.007	10.81
312.221	2.46
312.435	-6.26
312.649	-24.22
312.864	4.32
313.078	41.75
313.292	121.22
313.507	122.59
313.721	171.71
313.935	76.88
314.149	39.46
314.363	7.81
314.578	4.68
314.792	9.84
315.006	-8.37
315.22	11.5
315.434	28.54
315.648	38.14
315.862	34.34
316.077	32.12
316.291	11.61
316.505	10.14
316.719	-34.18
316.933	-54.39
317.147	-34.59
317.361	-98.3
317.575	-126.81
317.789	-145.84
318.003	-189.24
318.217	-174.09
318.431	-50.71
318.645	-9.53
318.859	-14.41
319.073	13.52
319.287	-1.5
319.5	-39.56
319.714	-91.52
319.928	-111.28
320.142	-157.52
320.356	-88.12
320.57	-45.54
320.784	-44.51
320.997	-41.94
321.211	-27.74
321.425	-98.78
321.639	-119.57
321.853	-57.07
322.066	-46.56
322.28	-52.02
322.494	-36.76
322.707	-10.99
322.921	-28.32
323.135	-27.87
323.349	-15.17
323.562	-38.52
323.776	-58.19
323.989	-56.33
324.203	-81.67
324.417	-106.39
324.63	-110.34
324.844	-109.51
325.057	-116.85
325.271	-79.35
325.485	-32.27
325.698	-8.32
325.912	4.54
326.125	-4.49
326.339	-6.69
326.552	-26.24
326.766	-38.14
326.979	-25.58
327.193	16.09
327.406	1.36
327.619	3.33
327.833	24.95
328.046	-8.05
328.26	-69.54
328.473	-32.58
328.686	-70.13
328.9	-63.34
329.113	-31.85
329.326	-31.08
329.54	-30.04
329.753	-29.75
329.966	-69.39
330.179	-65.32
330.393	-28.32
330.606	-26.51
330.819	0.99
331.032	20.21
331.246	32.4
331.459	58.83
331.672	46.01
331.885	35.42
332.098	4.08
332.311	-21.91
332.525	-98.05
332.738	-87.49
332.951	-41.24
333.164	3.48
333.377	8.39
333.59	33.51
333.803	27.94
334.016	-3.9
334.229	-22.75
334.442	-10.33
334.655	-16.71
334.868	-7.64
335.081	-4.79
335.294	-38.17
335.507	-76.45
335.72	-64.47
335.933	-68.5
336.146	-76.13
336.359	-57.47
336.572	-62.27
336.785	-86.71
336.997	-74.98
337.21	-41.62
337.423	-37.86
337.636	-35.55
337.849	-24.75
338.062	-24.01
338.274	-26.14
338.487	-44.9
338.7	-55.81
338.913	-94.74
339.125	-131.16
339.338	-209.53
339.551	-173.66
339.763	-71.96
339.976	-38.44
340.189	4.36
340.402	16.11
340.614	9.13
340.827	-27.04
341.039	-48.46
341.252	-65.05
341.465	-46.13
341.677	-57.99
341.89	-119.2
342.102	-58.22
342.315	-76.15
342.527	-126.55
342.74	-92.75
342.952	-31.69
343.165	-44.82
343.377	-3.44
343.59	-1.44
343.802	17.13
344.015	28.62
344.227	40.64
344.44	15.68
344.652	29.21
344.864	-0.03
345.077	18.2
345.289	15.1
345.502	25.81
345.714	18.91
345.926	24.69
346.139	15.6
346.351	20.04
346.563	16.06
346.775	21.91
346.988	12.02
347.2	-13.94
347.412	-61.45
347.624	-72.89
347.837	-94.93
348.049	-50.91
348.261	0.99
348.473	25.31
348.685	15.2
348.897	-3
349.11	-32.75
349.322	-76.83
349.534	-74.64
349.746	-60.26
349.958	-42.51
350.17	-51.45
350.382	-30.32
350.594	-29.34
350.806	-26.41
351.018	-22.78
351.23	-42.6
351.442	-89.43
351.654	-109.28
351.866	-106.44
352.078	-78.67
352.29	-15.35
352.502	6.46
352.714	13.94
352.926	6.92
353.138	6.32
353.35	-13.29
353.561	-18
353.773	-35.67
353.985	-21.99
354.197	-34.05
354.409	-32.21
354.621	-36.93
354.832	-24.41
355.044	-34.65
355.256	-38.66
355.468	-27.88
355.679	-31.89
355.891	-24.06
356.103	-40.36
356.314	-42.86
356.526	-37.73
356.738	-13.4
356.949	-17.83
357.161	6.37
357.373	13.35
357.584	-9.73
357.796	-15.78
358.008	-26.33
358.219	-10.97
358.431	-8.11
358.642	-5.36
358.854	-2.56
359.065	-8.1
359.277	-50.82
359.488	-68.07
359.7	-95.13
359.911	-107.44
360.123	-67.4
360.334	-70.33
360.546	-79.84
360.757	-67.55
360.969	-45.75
361.18	-63.77
361.391	-34.74
361.603	-39.55
361.814	-30.14
362.025	-42.08
362.237	-36.34
362.448	-22.61
362.659	-3.91
362.871	1.21
363.082	12.8
363.293	4.36
363.504	-22.21
363.716	-40.15
363.927	-55.2
364.138	-93.73
364.349	-99.54
364.56	-87.06
364.772	-76.31
364.983	-41.6
365.194	-41.71
365.405	-22.47
365.616	2.7
365.827	7.68
366.038	-27.11
366.25	-22.32
366.461	-60.07
366.672	-42.2
366.883	-25.04
367.094	-15.83
367.305	-27.6
367.516	-20.63
367.727	-61.34
367.938	-79.35
368.149	-74.29
368.36	-41.11
368.571	-22.63
368.781	-29.45
368.992	-47.41
369.203	-73.16
369.414	-109.9
369.625	-138.28
369.836	-108.67
370.047	-124.03
370.258	-87.66
370.468	-86.38
370.679	-93.71
370.89	-97.42
371.101	-63.08
371.312	-75.31
371.522	-60.09
371.733	-41.14
371.944	-17.57
372.155	-10.03
372.365	-14.78
372.576	-17.11
372.787	-14.33
372.997	-45.64
373.208	-52.51
373.419	-17.36
373.629	-42.02
373.84	-39.31
374.05	-52.6
374.261	-43.8
374.472	-68.87
374.682	-12.66
374.893	-22.64
375.103	21.08
375.314	20.97
375.524	23.1
375.735	19.86
375.945	27.44
376.156	-10.02
376.366	-14.92
376.577	-9.27
376.787	-35.69
376.997	-46.58
377.208	-34.79
377.418	-48.72
377.629	-40.34
377.839	-30.3
378.049	-22.53
378.26	-3.81
378.47	10.11
378.68	-1.86
378.89	-9.04
379.101	-16.15
379.311	-52.83
379.521	-92.76
379.732	-92.35
379.942	-69.82
380.152	-89.27
380.362	-41.19
380.572	-30.59
380.783	-21.34
380.993	-13.08
381.203	8.23
381.413	8.87
381.623	13.83
381.833	10.38
382.043	-5.66
382.253	-22.65
382.463	-28.74
382.674	-43.61
382.884	-58.06
383.094	-56.2
383.304	-41.08
383.514	-33.33
383.724	-18.61
383.934	-20.92
384.144	-28.36
384.353	-41.43
384.563	-46.83
384.773	-37.41
384.983	-40.69
385.193	-24.63
385.403	-12.15
385.613	-6.99
385.823	-23.35
386.033	-11.75
386.242	-20.02
386.452	-22.05
386.662	-32.38
386.872	-14.83
387.082	-28.4
387.291	-32.41
387.501	-28.68
387.711	-19.17
387.921	-33
388.13	-23.73
388.34	-6.48
388.55	-15.17
388.759	-15.44
388.969	-3.15
389.179	-7.88
389.388	-13.82
389.598	-6.8
389.807	-12.1
390.017	-21.35
390.227	-17.21
390.436	-16.78
390.646	-18.59
390.855	-12.18
391.065	-10.31
391.274	-13.07
391.484	-15.46
391.693	-9.58
391.903	-10.82
392.112	-2.52
392.322	1.17
392.531	6.09
392.74	4.32
392.95	-0.31
393.159	-3.61
393.369	-2.53
393.578	-3.89
393.787	-4.98
393.997	-1.65
394.206	-2.87
394.415	-4.19
394.625	-4.61
394.834	-6.12
395.043	-4.85
395.252	-2.25
395.462	1.42
395.671	2.62
395.88	4.35
396.089	3.29
396.298	0.88
396.508	-1.2
396.717	-1.83
396.926	-1.2
397.135	-0.37
397.344	-0.49
397.553	0.87
397.762	1.98
397.971	1.64
398.181	1.03
398.39	0.72
398.599	0.25
398.808	0.28
399.017	1.62
399.226	2.76
399.435	4.17
399.644	4.36
399.853	3.59
400.062	2.72
400.27	2.6
400.479	1.96
400.688	1.3
400.897	1.59
401.106	1.42
401.315	0.92
401.524	1.09
401.733	1.59
401.941	2
402.15	2.54
402.359	2.71
402.568	3.06
402.777	3.29
402.985	3.2
403.194	2.93
403.403	2.97
403.612	2.45
403.82	1.97
404.029	1.95
404.238	1.87
404.446	2.03
404.655	2.03
404.864	2.17
405.072	1.85
405.281	2.15
405.489	1.83
405.698	2.01
405.906	2.06
406.115	2.24
406.324	1.97
406.532	2.23
406.741	2.46
406.949	2.39
407.158	2.33
407.366	2.45
407.574	2.42
407.783	2.34
407.991	2.15
408.2	2.45
408.408	2.38
408.617	2.24
408.825	1.98
409.033	2.18
409.242	2.08
409.45	2.17
409.658	2.06
409.867	2.32
410.075	2.14
410.283	1.97
410.491	1.81
410.7	1.88
410.908	1.78
411.116	2.04
411.324	2
411.533	1.94
411.741	2.07
411.949	2.12
412.157	1.88
412.365	1.98
412.573	2.11
412.781	2.08
412.99	1.99
413.198	2.23
413.406	2.24
413.614	2.26
413.822	2.2
414.03	2.07
414.238	1.77
414.446	1.84
414.654	1.58
414.862	1.81
415.07	1.95
415.278	2.26
415.486	2.01
415.694	2.15
415.902	1.82
416.109	1.59
416.317	1.45
416.525	1.35
416.733	1.25
416.941	1.53
417.149	1.64
417.357	1.7
417.564	1.87
417.772	2.3
417.98	2.09
418.188	2.13
418.395	2.14
418.603	2.41
418.811	1.88
419.019	1.89
419.226	2.13
419.434	2.24
419.642	1.87
419.849	2.17
420.057	2.27
420.265	2.2
420.472	1.96
420.68	2.16
420.887	2
421.095	2.03
421.302	1.92
421.51	2.18
421.717	2.32
421.925	2.42
422.132	2.19
422.34	1.96
422.547	1.74
422.755	1.48
422.962	1.3
423.17	1.26
423.377	1.48
423.585	1.5
423.792	1.39
423.999	1.52
424.207	1.61
424.414	1.62
424.621	1.68
424.829	1.79
425.036	1.85
425.243	1.93
425.451	1.78
425.658	1.56
425.865	1.81
426.072	1.78
426.28	1.98
426.487	2.05
426.694	2.19
426.901	1.95
427.108	1.84
427.315	1.55
427.523	1.88
427.73	1.92
427.937	1.77
428.144	1.72
428.351	1.84
428.558	1.82
428.765	1.66
428.972	1.69
429.179	1.88
429.386	2.09
429.593	1.74
429.8	1.64
430.007	1.71
430.214	1.71
430.421	1.52
430.628	1.41
430.835	1.4
431.042	1.63
431.249	1.68
431.456	1.65
431.662	1.76
431.869	1.93
432.076	1.95
432.283	2.03
432.49	2.11
432.697	2.32
432.903	2.11
433.11	1.97
433.317	1.99
433.524	2.14
433.73	1.94
433.937	2.34
434.144	2.17
434.35	2.14
434.557	1.93
434.764	1.99
434.97	1.78
435.177	2.11
435.384	1.92
435.59	2.07
435.797	2.2
436.003	2.33
436.21	2.18
436.416	2.35
436.623	2.19
436.829	2.23
437.036	2.25
437.242	2.18
437.449	2.12
437.655	2.14
437.862	2.12
438.068	2.06
438.275	2.26
438.481	2.39
438.687	2.35
438.894	2.33
439.1	2.35
439.307	2.42
439.513	2.39
439.719	2.4
439.926	2.44
440.132	2.43
440.338	2.29
440.544	2.47
440.751	2.39
440.957	2.43
441.163	2.36
441.369	2.4
441.575	2.11
441.782	2.19
441.988	1.99
442.194	2.06
442.4	2.06
442.606	2.34
442.812	2.36
443.018	2.55
443.224	2.57
443.431	2.62
443.637	2.36
443.843	2.3
444.049	2.22
444.255	2.22
444.461	2.28
444.667	2.26
444.873	2.48
445.079	2.51
445.284	2.56
445.49	2.26
445.696	2.11
445.902	1.95
446.108	1.92
446.314	1.76
446.52	1.96
446.726	2.24
446.931	2.2
447.137	2.25
447.343	2.41
447.549	2.32
447.755	2.18
447.96	2.32
448.166	2.21
448.372	2.03
448.578	2.13
448.783	2.25
448.989	2.22
449.195	2.43
449.4	2.44
449.606	2.38
449.812	2.21
450.017	2.24
450.223	2.05
450.428	2.07
450.634	2.26
450.84	2.44
451.045	2.42
451.251	2.34
451.456	2.58
451.662	2.52
451.867	2.58
452.073	2.6
452.278	2.79
452.483	2.83
452.689	2.67
452.894	2.65
453.1	2.57
453.305	2.45
453.51	2.33
453.716	2.29
453.921	2.27
454.127	2.31
454.332	2.34
454.537	2.23
454.742	2.27
454.948	2.28
455.153	2.35
455.358	2.43
455.563	2.75
455.769	2.9
455.974	2.78
456.179	2.65
456.384	2.64
456.589	2.46
456.795	2.24
457	2.3
457.205	2.54
457.41	2.43
457.615	2.35
457.82	2.46
458.025	2.45
458.23	2.25
458.435	2.36
458.64	2.34
458.845	2.42
459.05	2.42
459.255	2.49
459.46	2.54
459.665	2.54
459.87	2.57
460.075	2.55
460.28	2.53
460.485	2.48
460.69	2.51
460.895	2.29
461.099	2.24
461.304	2.38
461.509	2.38
461.714	2.32
461.919	2.5
462.123	2.5
462.328	2.52
462.533	2.45
462.738	2.54
462.942	2.45
463.147	2.51
463.352	2.47
463.556	2.49
463.761	2.48
463.966	2.54
464.17	2.54
464.375	2.43
464.58	2.44
464.784	2.43
464.989	2.31
465.193	2.27
465.398	2.3
465.602	2.44
465.807	2.38
466.011	2.53
466.216	2.61
466.42	2.68
466.625	2.69
466.829	2.84
467.034	2.94
467.238	3.12
467.443	3.05
467.647	2.93
467.851	2.87
468.056	2.84
468.26	2.71
468.464	2.64
468.669	2.79
468.873	3.05
469.077	2.95
469.282	3.08
469.486	3.23
469.69	3.21
469.894	3.01
470.099	3.05
470.303	3.08
470.507	3.02
470.711	2.85
470.915	2.75
471.119	2.69
471.324	2.55
471.528	2.51
471.732	2.57
471.936	2.66
472.14	2.78
472.344	2.82
472.548	2.93
472.752	3.16
472.956	3.44
473.16	3.38
473.364	3.28
473.568	3.22
473.772	3.22
473.976	2.94
474.18	2.92
474.384	3.03
474.588	2.98
474.792	2.82
474.995	2.92
475.199	2.99
475.403	3.05
475.607	3.11
475.811	3.1
476.015	3.11
476.218	3.17
476.422	3.08
476.626	3.19
476.83	3.28
477.033	3.22
477.237	3.08
477.441	3.11
477.644	3.04
477.848	3
478.052	2.98
478.255	2.98
478.459	3.01
478.663	3.16
478.866	3.23
479.07	3.27
479.273	3.48
479.477	3.47
479.681	3.35
479.884	3.22
480.088	3.22
480.291	3.16
480.495	3.17
480.698	3.21
480.901	3.28
481.105	3.42
481.308	3.39
481.512	3.36
481.715	3.42
481.919	3.46
482.122	3.32
482.325	3.33
482.529	3.43
482.732	3.38
482.935	3.28
483.138	3.3
483.342	3.41
483.545	3.44
483.748	3.5
483.952	3.65
484.155	3.79
484.358	3.74
484.561	3.65
484.764	3.59
484.967	3.63
485.171	3.6
485.374	3.56
485.577	3.7
485.78	3.78
485.983	3.8
486.186	3.68
486.389	3.73
486.592	3.65
486.795	3.69
486.998	3.62
487.201	3.74
487.404	3.81
487.607	3.95
487.81	3.91
488.013	3.96
488.216	3.95
488.419	3.9
488.622	3.79
488.825	3.73
489.028	3.71
489.231	3.74
489.433	3.72
489.636	3.71
489.839	3.79
490.042	3.71
490.245	3.66
490.447	3.71
490.65	3.79
490.853	3.78
491.056	3.88
491.258	3.92
491.461	3.93
491.664	4
491.866	3.95
492.069	4.12
492.272	4.16
492.474	4.22
492.677	4.29
492.879	4.44
493.082	4.44
493.285	4.61
493.487	4.65
493.69	4.55
493.892	4.53
494.095	4.49
494.297	4.46
494.5	4.48
494.702	4.6
494.905	4.66
495.107	4.77
495.309	4.81
495.512	4.9
495.714	4.97
495.917	5.07
496.119	5.06
496.321	5.15
496.524	5.21
496.726	5.25
496.928	5.29
497.13	5.35
497.333	5.32
497.535	5.39
497.737	5.44
497.939	5.47
498.142	5.53
498.344	5.55
498.546	5.46
498.748	5.52
498.95	5.64
499.152	5.61
499.355	5.68
499.557	5.87
499.759	6
499.961	5.94
500.163	6.03
500.365	6.07
500.567	6.1
500.769	5.97
500.971	6.01
501.173	5.97
501.375	6.07
501.577	5.98
501.779	6.03
501.981	6.08
502.183	6.09
502.385	5.98
502.587	5.95
502.788	5.99
502.99	6.01
503.192	6.08
503.394	6.14
503.596	6.2
503.798	6.24
503.999	6.26
504.201	6.28
504.403	6.32
504.605	6.32
504.806	6.24
505.008	6.2
505.21	6.18
505.411	6.12
505.613	6.09
505.815	6.1
506.016	6.13
506.218	6.18
506.42	6.18
506.621	6.17
506.823	6.22
507.024	6.15
507.226	6.12
507.427	6.11
507.629	6.13
507.83	6.13
508.032	6.13
508.233	6.17
508.435	6.21
508.636	6.25
508.838	6.15
509.039	6.16
509.24	6.16
509.442	6.12
509.643	6.01
509.845	6.04
510.046	6.11
510.247	6.06
510.448	6.05
510.65	6.1
510.851	6.17
511.052	6.06
511.254	6.02
511.455	6.09
511.656	6.14
511.857	6.19
512.058	6.15
512.26	6.2
512.461	6.12
512.662	6.11
512.863	5.94
513.064	5.94
513.265	5.94
513.466	5.94
513.667	5.83
513.868	5.89
514.069	5.96
514.27	6.02
514.471	5.98
514.672	6.03
514.873	6.04
515.074	6.06
515.275	5.87
515.476	5.88
515.677	5.89
515.878	5.94
516.079	5.84
516.28	5.94
516.481	5.97
516.682	5.99
516.882	5.89
517.083	5.88
517.284	5.81
517.485	5.74
517.686	5.69
517.886	5.7
518.087	5.8
518.288	5.83
518.488	5.79
518.689	5.79
518.89	5.74
519.091	5.72
519.291	5.7
519.492	5.77
519.692	5.77
519.893	5.85
520.094	5.8
520.294	5.76
520.495	5.67
520.695	5.73
520.896	5.67
521.096	5.69
521.297	5.74
521.497	5.73
521.698	5.67
521.898	5.7
522.099	5.68
522.299	5.73
522.499	5.75
522.7	5.74
522.9	5.7
523.101	5.77
523.301	5.7
523.501	5.67
523.702	5.67
523.902	5.73
524.102	5.74
524.302	5.72
524.503	5.77
524.703	5.8
524.903	5.79
525.103	5.71
525.304	5.8
525.504	5.91
525.704	5.97
525.904	5.96
526.104	5.93
526.304	5.85
526.504	5.82
526.705	5.74
526.905	5.81
527.105	5.85
527.305	5.89
527.505	5.75
527.705	5.73
527.905	5.71
528.105	5.75
528.305	5.67
528.505	5.78
528.705	5.91
528.905	5.82
529.105	5.79
529.304	5.88
529.504	5.98
529.704	5.86
529.904	5.91
530.104	5.95
530.304	5.98
530.503	5.9
530.703	5.88
530.903	5.94
531.103	5.95
531.303	5.88
531.502	5.9
531.702	6.01
531.902	5.96
532.101	5.9
532.301	5.95
532.501	5.9
532.7	5.84
532.9	5.86
533.1	5.89
533.299	5.9
533.499	5.93
533.698	5.88
533.898	5.84
534.097	5.83
534.297	5.9
534.496	5.93
534.696	6.02
534.895	6.15
535.095	6.23
535.294	6.13
535.494	6.07
535.693	6.09
535.892	6.03
536.092	5.94
536.291	5.95
536.491	6.03
536.69	6.07
536.889	6.01
537.088	6
537.288	6.1
537.487	6.17
537.686	6.13
537.886	6.2
538.085	6.29
538.284	6.37
538.483	6.28
538.682	6.35
538.882	6.36
539.081	6.39
539.28	6.27
539.479	6.32
539.678	6.24
539.877	6.34
540.076	6.29
540.275	6.34
540.474	6.45
540.673	6.49
540.872	6.39
541.071	6.43
541.27	6.41
541.469	6.4
541.668	6.42
541.867	6.46
542.066	6.52
542.265	6.61
542.464	6.57
542.663	6.61
542.862	6.73
543.06	6.75
543.259	6.69
543.458	6.73
543.657	6.82
543.856	6.8
544.054	6.73
544.253	6.77
544.452	6.76
544.651	6.76
544.849	6.69
545.048	6.79
545.247	6.83
545.445	6.9
545.644	6.88
545.843	6.91
546.041	6.92
546.24	7.01
546.438	7.07
546.637	7.11
546.836	7.25
547.034	7.28
547.233	7.23
547.431	7.18
547.63	7.21
547.828	7.2
548.027	7.25
548.225	7.26
548.423	7.32
548.622	7.38
548.82	7.34
549.019	7.38
549.217	7.48
549.415	7.51
549.614	7.49
549.812	7.5
550.01	7.48
550.209	7.5
550.407	7.51
550.605	7.52
550.803	7.69
551.002	7.75
551.2	7.79
551.398	7.91
551.596	8.03
551.794	8.02
551.993	8.07
552.191	8.1
552.389	8.17
552.587	8.3
552.785	8.36
552.983	8.41
553.181	8.51
553.379	8.49
553.577	8.39
553.775	8.47
553.973	8.48
554.171	8.59
554.369	8.54
554.567	8.59
554.765	8.6
554.963	8.74
555.161	8.67
555.359	8.81
555.557	8.93
555.755	8.96
555.952	9.05
556.15	9.11
556.348	9.18
556.546	9.25
556.744	9.3
556.941	9.28
557.139	9.38
557.337	9.4
557.535	9.37
557.732	9.43
557.93	9.52
558.128	9.57
558.325	9.68
558.523	9.73
558.721	9.89
558.918	9.91
559.116	10.03
559.313	9.99
559.511	10.17
559.708	10.2
559.906	10.3
560.104	10.26
560.301	10.47
560.498	10.47
560.696	10.5
560.893	10.56
561.091	10.67
561.288	10.74
561.486	10.83
561.683	10.91
561.88	11.01
562.078	11.05
562.275	11.03
562.473	11.16
562.67	11.39
562.867	11.42
563.064	11.53
563.262	11.61
563.459	11.62
563.656	11.69
563.853	11.73
564.051	11.83
564.248	11.96
564.445	12.05
564.642	12
564.839	12.21
565.036	12.37
565.234	12.5
565.431	12.55
565.628	12.73
565.825	12.79
566.022	12.85
566.219	12.93
566.416	13.09
566.613	13.15
566.81	13.18
567.007	13.16
567.204	13.18
567.401	13.18
567.598	13.2
567.795	13.28
567.991	13.33
568.188	13.49
568.385	13.66
568.582	13.84
568.779	13.99
568.976	14.15
569.172	14.21
569.369	14.26
569.566	14.27
569.763	14.29
569.96	14.3
570.156	14.28
570.353	14.25
570.55	14.34
570.746	14.42
570.943	14.56
571.14	14.7
571.336	14.91
571.533	15.04
571.729	15.05
571.926	15.16
572.123	15.29
572.319	15.34
572.516	15.3
572.712	15.43
572.909	15.45
573.105	15.52
573.302	15.55
573.498	15.75
573.695	15.75
573.891	15.82
574.087	15.82
574.284	15.85
574.48	15.77
574.677	15.9
574.873	15.99
575.069	16.09
575.266	16.15
575.462	16.22
575.658	16.31
575.854	16.47
576.051	16.59
576.247	16.69
576.443	16.78
576.639	16.74
576.835	16.6
577.032	16.54
577.228	16.6
577.424	16.67
577.62	16.64
577.816	16.81
578.012	16.83
578.208	16.86
578.404	16.83
578.6	16.98
578.796	16.91
578.993	17.01
579.189	16.96
579.384	16.93
579.58	16.85
579.776	16.86
579.972	16.75
580.168	16.68
580.364	16.7
580.56	16.73
580.756	16.71
580.952	16.73
581.148	16.81
581.343	16.86
581.539	16.91
581.735	17.01
581.931	17.04
582.127	17.03
582.322	17
582.518	17.02
582.714	17.01
582.909	16.99
583.105	16.95
583.301	16.92
583.496	16.89
583.692	16.75
583.888	16.67
584.083	16.81
584.279	16.84
584.474	16.86
584.67	16.99
584.866	17.08
585.061	16.9
585.257	16.96
585.452	16.91
585.648	16.79
585.843	16.74
586.039	16.87
586.234	16.88
586.429	16.77
586.625	16.95
586.82	16.91
587.015	16.78
587.211	16.67
587.406	16.79
587.601	16.65
587.797	16.68
587.992	16.7
588.187	16.7
588.383	16.65
588.578	16.69
588.773	16.69
588.968	16.76
589.163	16.79
589.359	16.68
589.554	16.62
589.749	16.62
589.944	16.63
590.139	16.64
590.334	16.72
590.529	16.73
590.724	16.81
590.919	16.86
591.114	16.88
591.309	16.96
591.504	17.07
591.699	17.03
591.894	17.01
592.089	16.95
592.284	16.89
592.479	16.87
592.674	16.93
592.869	17.03
593.064	17.12
593.259	17.27
593.454	17.32
593.648	17.36
593.843	17.28
594.038	17.36
594.233	17.25
594.428	17.26
594.622	17.15
594.817	17.28
595.012	17.32
595.206	17.37
595.401	17.45
595.596	17.67
595.79	17.68
595.985	17.8
596.18	17.98
596.374	18.1
596.569	18.1
596.763	18.11
596.958	18.08
597.153	18.14
597.347	18.08
597.542	18.21
597.736	18.31
597.931	18.39
598.125	18.46
598.319	18.59
598.514	18.51
598.708	18.57
598.903	18.63
599.097	18.57
599.291	18.6
599.486	18.62
599.68	18.63
599.874	18.7
600.069	18.75
600.263	18.8
600.457	18.86
600.651	18.91
600.846	18.87
601.04	18.89
601.234	18.89
601.428	18.95
601.622	19.04
601.817	19.04
602.011	19.05
602.205	19.13
602.399	19.13
602.593	19.12
602.787	19.22
602.981	19.23
603.175	19.19
603.369	19.15
603.563	19.17
603.757	19.17
603.951	19.2
604.145	19.2
604.339	19.29
604.533	19.22
604.727	19.17
604.921	19.09
605.115	19.12
605.309	19.24
605.502	19.21
605.696	19.18
605.89	19.21
606.084	19.09
606.278	18.91
606.471	18.8
606.665	18.61
606.859	18.53
607.053	18.54
607.246	18.48
607.44	18.48
607.634	18.55
607.827	18.59
608.021	18.45
608.214	18.42
608.408	18.35
608.602	18.37
608.795	18.16
608.989	18.17
609.182	18.13
609.376	18.15
609.569	18.08
609.763	18.04
609.956	17.9
610.15	17.81
610.343	17.73
610.537	17.6
610.73	17.63
610.923	17.61
611.117	17.56
611.31	17.46
611.504	17.45
611.697	17.31
611.89	17.26
612.083	17.21
612.277	17.19
612.47	17.12
612.663	17.12
612.856	17.03
613.05	16.88
613.243	16.81
613.436	16.7
613.629	16.62
613.822	16.6
614.015	16.49
614.209	16.39
614.402	16.35
614.595	16.3
614.788	16.24
614.981	16.2
615.174	16.11
615.367	15.96
615.56	15.85
615.753	15.8
615.946	15.78
616.139	15.82
616.332	15.99
616.525	16.04
616.718	16.06
616.911	15.99
617.103	15.91
617.296	15.82
617.489	15.7
617.682	15.55
617.875	15.54
618.067	15.45
618.26	15.31
618.453	15.34
618.646	15.32
618.838	15.4
619.031	15.51
619.224	15.54
619.417	15.47
619.609	15.51
619.802	15.4
619.994	15.27
620.187	15.23
620.38	15.2
620.572	15.12
620.765	15.18
620.957	15.12
621.15	14.99
621.342	14.96
621.535	15
621.727	14.91
621.92	14.9
622.112	14.93
622.305	14.99
622.497	14.82
622.69	14.82
622.882	14.86
623.074	14.93
623.267	14.81
623.459	14.81
623.651	14.73
623.844	14.72
624.036	14.68
624.228	14.62
624.42	14.64
624.613	14.76
624.805	14.67
624.997	14.59
625.189	14.64
625.381	14.71
625.574	14.53
625.766	14.49
625.958	14.53
626.15	14.64
626.342	14.48
626.534	14.56
626.726	14.56
626.918	14.54
627.11	14.35
627.302	14.44
627.494	14.31
627.686	14.26
627.878	14.14
628.07	14.17
628.262	14.12
628.454	14.19
628.646	14.25
628.838	14.32
629.029	14.2
629.221	14.22
629.413	14.13
629.605	13.99
629.797	13.89
629.989	13.94
630.18	13.86
630.372	13.85
630.564	13.96
630.755	14
630.947	14.07
631.139	14
631.33	13.91
631.522	13.92
631.714	13.87
631.905	13.76
632.097	13.75
632.289	13.82
632.48	13.72
632.672	13.62
632.863	13.53
633.055	13.45
633.246	13.46
633.438	13.36
633.629	13.41
633.821	13.44
634.012	13.42
634.203	13.28
634.395	13.35
634.586	13.43
634.777	13.41
634.969	13.47
635.16	13.54
635.351	13.4
635.543	13.3
635.734	13.32
635.925	13.35
636.117	13.37
636.308	13.45
636.499	13.43
636.69	13.33
636.881	13.27
637.073	13.37
637.264	13.33
637.455	13.39
637.646	13.56
637.837	13.51
638.028	13.31
638.219	13.39
638.41	13.28
638.601	13.09
638.792	13.03
638.983	13.05
639.174	12.99
639.365	13.04
639.556	13.07
639.747	13.17
639.938	13.28
640.129	13.2
640.32	13.18
640.511	13.23
640.701	13.33
640.892	13.2
641.083	13.27
641.274	13.34
641.465	13.31
641.655	13.11
641.846	13.1
642.037	13.03
642.228	12.93
642.418	13.02
642.609	13.08
642.8	13.15
642.99	13.13
643.181	13.17
643.372	13.1
643.562	13.1
643.753	13.05
643.943	12.99
644.134	12.85
644.324	12.77
644.515	12.69
644.705	12.66
644.896	12.7
645.086	12.74
645.277	12.73
645.467	12.79
645.658	12.71
645.848	12.71
646.038	12.68
646.229	12.63
646.419	12.52
646.61	12.53
646.8	12.5
646.99	12.5
647.18	12.49
647.371	12.46
647.561	12.38
647.751	12.3
647.941	12.17
648.132	12.16
648.322	12.22
648.512	12.26
648.702	12.32
648.892	12.38
649.082	12.4
649.272	12.25
649.462	12.11
649.653	11.94
649.843	11.87
650.033	11.79
650.223	11.83
650.413	11.82
650.603	11.92
650.793	12.01
650.983	11.94
651.172	11.84
651.362	11.8
651.552	11.67
651.742	11.51
651.932	11.51
652.122	11.56
652.312	11.71
652.502	11.7
652.691	11.72
652.881	11.64
653.071	11.58
653.261	11.35
653.45	11.28
653.64	11.2
653.83	11.09
654.019	10.98
654.209	10.95
654.399	10.91
654.588	10.83
654.778	10.74
654.968	10.58
655.157	10.51
655.347	10.39
655.536	10.27
655.726	10.18
655.915	10.11
656.105	9.94
656.294	9.81
656.484	9.66
656.673	9.56
656.863	9.56
657.052	9.39
657.241	9.23
657.431	9.09
657.62	9
657.809	8.68
657.999	8.68
658.188	8.58
658.377	8.42
658.567	8.32
658.756	8.25
658.945	8.02
659.134	7.88
659.324	7.84
659.513	7.73
659.702	7.6
659.891	7.55
660.08	7.52
660.269	7.44
660.458	7.3
660.648	7.24
660.837	7.13
661.026	7.12
661.215	6.95
661.404	6.85
661.593	6.85
661.782	6.66
661.971	6.51
662.16	6.48
662.349	6.41
662.538	6.14
662.726	6.2
662.915	6.05
663.104	5.94
663.293	5.91
663.482	6.06
663.671	5.93
663.86	5.85
664.048	5.85
664.237	5.79
664.426	5.59
664.615	5.64
664.803	5.57
664.992	5.43
665.181	5.32
665.369	5.24
665.558	5.09
665.747	5.06
665.935	5.18
666.124	5.26
666.312	5.34
666.501	5.28
666.69	5.16
666.878	5
667.067	4.8
667.255	4.79
667.444	5.11
667.632	5.23
667.82	5.31
668.009	5.28
668.197	5.16
668.386	4.97
668.574	5.13
668.762	5.04
668.951	5.07
669.139	5.12
669.327	4.96
669.516	4.9
669.704	4.93
669.892	5.09
670.08	5.06
670.269	5.11
670.457	4.94
670.645	4.78
670.833	4.78
671.021	4.81
671.21	4.81
671.398	5.06
671.586	5.17
671.774	5.08
671.962	5.04
672.15	5
672.338	4.8
672.526	4.79
672.714	4.69
672.902	4.77
673.09	4.99
673.278	5.29
673.466	5.38
673.654	5.6
673.842	5.62
674.03	5.6
674.218	5.45
674.405	5.46
674.593	5.32
674.781	5.41
674.969	5.39
675.157	5.46
675.344	5.51
675.532	5.7
675.72	5.74
675.908	5.81
676.095	5.71
676.283	5.87
676.471	5.94
676.658	5.88
676.846	5.83
677.033	5.96
677.221	5.98
677.409	5.89
677.596	6.07
677.784	6.18
677.971	6.27
678.159	6.34
678.346	6.4
678.534	6.32
678.721	6.58
678.909	6.58
679.096	6.58
679.283	6.78
679.471	6.95
679.658	6.83
679.846	7.02
680.033	7.3
680.22	7.24
680.408	7.24
680.595	7.38
680.782	7.3
680.969	7.17
681.157	7.35
681.344	7.38
681.531	7.38
681.718	7.44
681.905	7.54
682.093	7.68
682.28	7.98
682.467	8.28
682.654	8.36
682.841	8.57
683.028	8.78
683.215	8.83
683.402	8.76
683.589	8.95
683.776	9.04
683.963	8.94
684.15	9.1
684.337	9.25
684.524	9.4
684.711	9.61
684.898	9.71
685.085	9.85
685.271	10.13
685.458	10.38
685.645	10.58
685.832	10.92
686.019	11.28
686.205	11.47
686.392	11.68
686.579	11.77
686.766	12.05
686.952	12.14
687.139	12.39
687.326	12.54
687.512	12.8
687.699	13.08
687.886	13.41
688.072	13.5
688.259	13.79
688.445	14.1
688.632	14.3
688.818	14.8
689.005	15.41
689.191	15.83
689.378	16.41
689.564	16.78
689.751	17.07
689.937	17.33
690.124	17.91
690.31	18.18
690.496	18.73
690.683	19.17
690.869	19.69
691.055	20.12
691.242	20.82
691.428	21.4
691.614	22.11
691.8	22.81
691.987	23.26
692.173	23.86
692.359	24.41
692.545	24.75
692.731	25.34
692.918	26.1
693.104	26.47
693.29	27.14
693.476	27.8
693.662	28.37
693.848	28.78
694.034	29.58
694.22	30.04
694.406	30.81
694.592	31.47
694.778	32.15
694.964	32.53
695.15	33.02
695.336	33.47
695.522	34.23
695.708	35.02
695.894	35.87
696.08	36.89
696.265	37.59
696.451	37.96
696.637	38.5
696.823	39.01
697.009	39.31
697.194	39.77
697.38	40.37
697.566	40.93
697.751	41.68
697.937	42.69
698.123	43.29
698.308	43.99
698.494	44.7
698.68	45.17
698.865	45.51
699.051	46.27
699.236	46.73
699.422	47.37
699.607	47.84
699.793	48.34
699.978	48.69
700.164	49.25
700.349	49.99
700.535	50.64
700.72	51.37
700.906	52.27
701.091	52.83
701.276	52.88
701.462	53.79
701.647	54.52
701.832	54.88
702.018	55.55
702.203	56.06
702.388	56.08
702.573	56.31
702.759	57.22
702.944	57.53
703.129	57.98
703.314	58.35
703.499	58.6
703.684	58.61
703.87	59.78
704.055	60.74
704.24	61.21
704.425	61.96
704.61	62.32
704.795	61.84
704.98	61.84
705.165	62.15
705.35	62.45
705.535	62.72
705.72	63.29
705.905	63.78
706.09	64.63
706.275	64.82
706.459	65.02
706.644	65.36
706.829	65.55
707.014	65.29
707.199	65.77
707.384	66.33
707.568	66.54
707.753	67.15
707.938	67.65
708.123	67.59
708.307	67.69
708.492	67.93
708.677	67.65
708.861	67.68
709.046	67.86
709.231	68.7
709.415	69.21
709.6	69.3
709.784	69.56
709.969	70.14
710.153	69.87
710.338	69.75
710.522	70.15
710.707	70.46
710.891	70.39
711.076	70.61
711.26	70.65
711.445	71.07
711.629	71.35
711.813	71.48
711.998	71.82
712.182	71.87
712.366	72.1
712.551	72.81
712.735	73.11
712.919	73.13
713.103	73.55
713.288	73.32
713.472	72.89
713.656	73.62
713.84	73.85
714.024	74.06
714.208	74.62
714.393	75.01
714.577	74.62
714.761	74.62
714.945	74.76
715.129	74.59
715.313	74.68
715.497	75.3
715.681	76.02
715.865	76.15
716.049	76.79
716.233	76.6
716.417	76.62
716.601	76.28
716.785	76.15
716.968	76.37
717.152	76.4
717.336	76.43
717.52	76.07
717.704	76.74
717.888	76.94
718.071	77.44
718.255	77.41
718.439	77.84
718.622	77.69
718.806	77.73
718.99	76.79
719.174	76.98
719.357	76.96
719.541	77.2
719.724	76.82
719.908	78.33
720.092	78.66
720.275	78.9
720.459	78.44
720.642	78.5
720.826	77.6
721.009	77
721.193	76.71
721.376	77.1
721.559	77.5
721.743	78.36
721.926	78.85
722.11	79.59
722.293	79.28
722.476	78.95
722.66	78.58
722.843	78.43
723.026	77.26
723.21	77.64
723.393	78.46
723.576	78.45
723.759	77.89
723.942	79.13
724.126	78.93
724.309	78.12
724.492	78.22
724.675	78.46
724.858	78.49
725.041	79.3
725.224	79.68
725.407	79.78
725.59	80.5
725.774	80.02
725.957	79.39
726.14	79.26
726.322	79.97
726.505	79.47
726.688	80.56
726.871	80.88
727.054	80.91
727.237	80.48
727.42	81.33
727.603	80.35
727.786	80.37
727.968	81.13
728.151	81.15
728.334	80.46
728.517	81.2
728.699	81.58
728.882	81.23
729.065	81.39
729.248	82
729.43	82.3
729.613	83.03
729.796	83.5
729.978	83.28
730.161	83.16
730.343	82.95
730.526	82.77
730.708	82.02
730.891	82.46
731.073	81.42
731.256	81.25
731.438	81.1
731.621	82.31
731.803	82.04
731.986	83.06
732.168	82.76
732.35	83.09
732.533	82.26
732.715	82.6
732.898	83.32
733.08	83.37
733.262	83.4
733.444	83.21
733.627	83.37
733.809	83.27
733.991	84.66
734.173	83.38
734.355	83.53
734.538	83.98
734.72	83.38
734.902	83.24
735.084	83.85
735.266	83.78
735.448	84.16
735.63	84.32
735.812	83.53
735.994	84.94
736.176	85.44
736.358	84.84
736.54	85.45
736.722	84.9
736.904	84.04
737.086	84.14
737.268	85.2
737.45	85.1
737.632	85.64
737.814	84.93
737.995	85.19
738.177	84.22
738.359	83.38
738.541	83.39
738.723	84.13
738.904	84.08
739.086	84.17
739.268	85.1
739.449	85.72
739.631	85.29
739.813	85.26
739.994	85.31
740.176	84.87
740.358	84.04
740.539	85.34
740.721	85.12
740.902	85.7
741.084	86.13
741.265	86.65
741.447	86.39
741.628	87.44
741.81	85.92
741.991	86.59
742.172	87.86
742.354	88.26
742.535	87.55
742.717	89
742.898	89.24
743.079	88.41
743.261	87.67
743.442	86.39
743.623	86.87
743.804	86.41
743.986	87.69
744.167	86.58
744.348	86.62
744.529	85.83
744.71	84.31
744.891	82.14
745.073	82.37
745.254	83.24
745.435	83.09
745.616	83.43
745.797	83.51
745.978	83.13
746.159	83.01
746.34	82.18
746.521	84.05
746.702	83.05
746.883	84.1
747.064	83.74
747.245	84.18
747.426	83.4
747.606	84.96
747.787	84.89
747.968	85.02
748.149	85.57
748.33	85.25
748.51	84.29
748.691	83.56
748.872	84.51
749.053	83.41
749.233	82.2
749.414	82.63
749.595	82.49
749.775	81.31
749.956	81.09
750.137	81.59
750.317	83.06
750.498	84.29
750.678	84.48
750.859	85.76
751.04	86.42
751.22	84.44
751.4	83.4
751.581	83.14
751.761	82.7
751.942	82.67
752.122	82.47
752.303	82.99
752.483	82.73
752.663	82.67
752.844	82.3
753.024	83.3
753.204	82.84
753.385	81.33
753.565	80.27
753.745	80
753.925	79.89
754.106	78.24
754.286	80.48
754.466	81.25
754.646	81.35
754.826	80.58
755.006	80.29
755.187	80.53
755.367	81.19
755.547	81.91
755.727	83.47
755.907	85.14
756.087	86.32
756.267	84.1
756.447	83.41
756.627	80.89
756.807	80.45
756.987	78.75
757.167	80.09
757.346	79.82
757.526	78.87
757.706	81.02
757.886	82.18
758.066	83.91
758.246	86.55
758.425	88.35
758.605	85.91
758.785	84
758.965	81.74
759.144	78.6
759.324	78.5
759.504	79.48
759.683	80.38
759.863	79.56
760.043	79.48
760.222	79.75
760.402	78.96
760.581	78.39
760.761	81.33
760.94	81.1
761.12	82.67
761.299	83.59
761.479	82.85
761.658	79.76
761.838	79.99
762.017	79.29
762.197	79.19
762.376	80.07
762.555	82.19
762.735	82.76
762.914	80.37
763.093	80.8
763.273	80
763.452	78.31
763.631	77.42
763.81	77.96
763.99	76.62
764.169	76.69
764.348	75.51
764.527	74.69
764.706	76.23
764.885	77.87
765.064	76.27
765.243	78.47
765.423	80.82
765.602	79.72
765.781	77.18
765.96	78.49
766.139	77.59
766.318	77.64
766.497	76.29
766.676	76.99
766.854	77.64
767.033	78.17
767.212	76.79
767.391	78.28
767.57	80.67
767.749	81.35
767.928	80.89
768.106	79.23
768.285	78.84
768.464	77.42
768.643	76.98
768.821	77.91
769	80.06
769.179	78.78
769.357	76.11
769.536	75.3
769.715	74.06
769.893	75.53
770.072	76.17
770.25	77.33
770.429	77.94
770.607	77.96
770.786	76.29
770.964	76.29
771.143	75.51
771.321	77.85
771.5	79.2
771.678	77.47
771.857	76.35
772.035	77
772.213	74.81
772.392	71.52
772.57	73.95
772.748	75.88
772.927	75.81
773.105	73.55
773.283	75.11
773.461	75.23
773.64	75.9
773.818	75.2
773.996	77.13
774.174	78.03
774.352	74.38
774.531	71.32
774.709	73.6
774.887	72.2
775.065	70.84
775.243	70.6
775.421	70.87
775.599	72.63
775.777	71.51
775.955	68.87
776.133	69.65
776.311	69.95
776.489	65.47
776.667	66.64
776.844	68.76
777.022	67.54
777.2	67.71
777.378	68.72
777.556	68.48
777.734	69.83
777.911	72.78
778.089	71.53
778.267	71.8
778.445	72.13
778.622	70.64
778.8	68.81
778.978	72.78
779.155	72.28
779.333	72.41
779.511	72.94
779.688	75.82
779.866	69.34
780.043	65.58
780.221	65.28
780.398	62.25
780.576	63.73
780.753	68.5
780.931	70.26
781.108	68.68
781.286	71.14
781.463	63.08
781.64	60.6
781.818	63.21
781.995	64.88
782.172	66.31
782.35	69.85
782.527	74.94
782.704	72.65
782.882	74.33
783.059	72.9
783.236	72.47
783.413	69.14
783.59	69.91
783.768	64.01
783.945	67.15
784.122	69.59
784.299	69.38
784.476	66.64
784.653	67.55
784.83	64.42
785.007	60.44
785.184	60.12
785.361	61.95
785.538	69.93
785.715	70.68
785.892	73.73
786.069	73.73
786.246	75.81
786.423	71.37
786.6	69.03
786.776	71.31
786.953	72.32
787.13	73.81
787.307	73.62
787.484	73.7
787.66	70.81
787.837	71.84
788.014	64.64
788.191	62.28
788.367	58.81
788.544	60.83
788.721	58.27
788.897	63.44
789.074	64.21
789.25	65.11
789.427	62.64
789.603	61.9
789.78	60.61
789.956	57.29
790.133	59.37
790.309	60.95
790.486	62.49
790.662	61.11
790.839	63.54
791.015	67.69
791.192	67.24
791.368	68.53
791.544	68.18
791.721	69.51
791.897	64.75
792.073	62.05
792.249	54.42
792.426	56.47
792.602	57.81
792.778	59.65
792.954	60.65
793.13	61.88
793.307	54.8
793.483	50.46
793.659	47.6
793.835	48.71
794.011	49.06
794.187	50.3
794.363	46.55
794.539	49.45
794.715	43.35
794.891	44.68
795.067	45.85
795.243	52.45
795.419	51.94
795.595	49.47
795.771	54.57
795.947	56.21
796.122	50.74
796.298	53.84
796.474	58.32
796.65	52.74
796.826	54.42
797.001	55.95
797.177	47.84
797.353	53.91
797.529	61.38
797.704	58.63
797.88	59.76
798.056	58.73
798.231	52.11
798.407	53.55
798.582	55.15
798.758	61.71
798.934	76.54
799.109	73.92
799.285	64.2
799.46	64.1
799.636	58.45
799.811	50.11
799.986	59.25
800.162	63.34
800.337	64.6
800.513	64.27
800.688	61.18
800.863	65.39
801.039	56.14
801.214	53.44
801.389	51.95
801.565	50.23
801.74	35.24
801.915	50.53
802.09	49.34
802.265	54.11
802.441	56.04
802.616	61.99
802.791	57.59
802.966	58.78
803.141	58.68
803.316	53.49
803.491	56.31
803.666	64.73
803.841	54.83
804.016	45.93
804.191	48.26
804.366	44.31
804.541	36.71
804.716	44.55
804.891	43.41
805.066	51.28
805.241	53.46
805.416	46.74
805.591	46.67
805.765	52.04
805.94	51.44
806.115	50.92
806.29	50.71
806.464	53.06
806.639	49.26
806.814	35.52
806.989	21.73
807.163	33.89
807.338	34.41
807.512	26.55
807.687	26.74
807.862	44.77
808.036	43.32
808.211	46.66
808.385	62.2
808.56	76.57
808.734	82.17
808.909	79.7
809.083	73.58
809.258	77.35
809.432	68.95
809.606	51.35
809.781	47.43
809.955	54.95
810.13	54.99
810.304	52.46
810.478	49.37
810.652	60.47
810.827	59.63
811.001	50.48
811.175	45.74
811.349	53.5
811.524	40.54
811.698	26.5
811.872	25.18
812.046	38.71
812.22	39.4
812.394	43.13
812.568	51.43
812.742	58
812.916	48.16
813.09	43.48
813.264	37.55
813.438	38.32
813.612	33.25
813.786	29.74
813.96	37.68
814.134	44.17
814.308	53.2
814.482	62.91
814.656	59.21
814.83	61.6
815.003	62.81
815.177	52.49
815.351	43.93
815.525	49.56
815.698	39.26
815.872	29.86
816.046	11.25
816.219	15.1
816.393	35.1
816.567	45.95
816.74	48.58
816.914	63.84
817.088	69.56
817.261	50.67
817.435	28.75
817.608	33.94
817.782	22.43
817.955	12.73
818.129	7.54
818.302	19.43
818.475	27.12
818.649	33.85
818.822	31.09
818.996	54.14
819.169	63.48
819.342	50.24
819.516	52.35
819.689	61.86
819.862	42.85
820.035	26.92
820.209	20.05
820.382	22.41
820.555	22.97
820.728	9.55
820.901	12.04
821.075	15.92
821.248	11.85
821.421	-11.59
821.594	-1.35
821.767	29.85
821.94	45.46
822.113	26.41
822.286	27.53
822.459	40.41
822.632	21.36
822.805	7.18
822.978	20.6
823.151	21.27
823.324	4.62
823.496	-19.85
823.669	-17.59
823.842	-17.44
824.015	-26.01
824.188	-34.33
824.361	-22.57
824.533	-31.2
824.706	-13.49
824.879	-5.92
825.051	22.24
825.224	19.41
825.397	31.07
825.569	12.97
825.742	41.36
825.915	40.87
826.087	47.75
826.26	25.1
826.432	27.83
826.605	18.41
826.777	5.49
826.95	9.85
827.122	9.43
827.295	20.98
827.467	20.04
827.64	9.08
827.812	3.89
827.984	11.05
828.157	-16.95
828.329	-60.19
828.501	-47.92
828.674	-21.98
828.846	-32.63
829.018	-4.17
829.19	-4.39
829.363	24.02
829.535	15.66
829.707	11.61
829.879	-10.63
830.051	-11.42
830.223	-26.85
830.395	-55.37
830.568	-46.97
830.74	-46.69
830.912	-2.81
831.084	-27.24
831.256	-14.63
831.428	-31.56
831.6	-39.2
831.772	-94.13
831.943	-99.67
832.115	-69.22
832.287	-36.81
832.459	-27.41
832.631	-5.94
832.803	33.22
832.975	40.89
833.146	30.91
833.318	40.35
833.49	49.67
833.662	1.54
833.833	-26.2
834.005	-18.9
834.177	-18.09
834.348	-27.96
834.52	-35.48
834.692	-25.32
834.863	-49.77
835.035	-48.41
835.206	-97.85
835.378	-84.01
835.549	-89.58
835.721	-63.79
835.892	-70.14
836.064	-53.14
836.235	-31.54
836.407	-8.92
836.578	-22.4
836.749	-9.33
836.921	-48.44
837.092	-86.49
837.264	-78.57
837.435	-93.07
837.606	-55.22
837.777	-5.2
837.949	0.44
838.12	2.61
838.291	15.48
838.462	6.39
838.633	-30.95
838.805	-33.74
838.976	-46.55
839.147	-117.99
839.318	-110.15
839.489	-159.83
839.66	-108.93
839.831	-77.09
840.002	-66.07
840.173	-78.78
840.344	-28.44
840.515	-119.17
840.686	-241.33
840.857	-189.48
841.028	-180.29
841.199	-109.77
841.369	-115.83
841.54	-111.57
841.711	-57.03
841.882	-26.23
842.053	-44.28
842.223	-32.14
842.394	-0.04
842.565	-0.28
842.736	1.67
842.906	-4
843.077	12.01
843.248	39.42
843.418	24.14
843.589	-23.38
843.759	34.95
843.93	20.89
844.101	-4.83
844.271	3.52
844.442	24.7
844.612	31.14
844.783	-0.03
844.953	-31.94
845.123	-45.12
845.294	-67.62
845.464	-371.79
845.635	-182.72
845.805	-103.37
845.975	-56.91
846.146	-121.73
846.316	-79.47
846.486	-50.16
846.656	-8.43
846.827	-20.82
846.997	-9.53
847.167	8.49
847.337	-3.68
847.507	-68.87
847.677	-65.01
847.848	14.07
848.018	15.34
848.188	17.33
848.358	11.96
848.528	7.34
848.698	-71.53
848.868	-194.14
849.038	-344.85
849.208	-159.96
849.378	-113.67
849.548	-68
849.718	-52.29
849.887	-27.01
850.057	-46.66
850.227	-87.36
850.397	-117.84
850.567	-212.28
850.737	-538.91
850.906	-1676.88
851.076	-1106.64
851.246	-593.98
851.415	-90.36
851.585	-60.29
851.755	-98.76
851.924	-44.09
852.094	-66.12
852.264	-158.08
852.433	-1047.6
852.603	-218.44
852.772	-221.33
852.942	-86.69
853.111	-88.9
853.281	-67.86
853.45	-18.63
853.62	-102.1
853.789	-124.49
853.959	-155.25
854.128	-95.02
854.297	-132.16
854.467	-127.47
854.636	-89.82
854.805	-27.74
854.975	-131.1
855.144	-226.16
855.313	-377.97
855.482	-933.21
855.652	-511.44
855.821	-285.32
855.99	-56.64
856.159	-6.13
856.328	4.62
856.497	-10.96
856.667	-8.43
856.836	-41.45
857.005	-108.85
857.174	-125.63
857.343	-183.24
857.512	-176.8
857.681	-187.52
857.85	-190.37
858.019	-130.82
858.188	-85.92
858.356	-106.71
858.525	-165.27
858.694	-148.42
858.863	-255.64
859.032	-216
859.201	-260.18
859.369	-181.51
859.538	-147.55
859.707	-118.23
859.876	-107.43
860.044	-119.2
860.213	-4.5
860.382	-6.4
860.55	8.48
860.719	30.49
860.888	42.05
861.056	-23.1
861.225	-56.42
861.393	-27.77
861.562	-43.31
861.73	-158.3
861.899	-383.51
862.067	-1925.86
862.236	-128.79
862.404	-337.32
862.572	-181.9
862.741	-58.04
862.909	-79.05
863.078	-223.54
863.246	-147.11
863.414	-116.02
863.582	-76.06
863.751	-77.28
863.919	-55.04
864.087	-23.32
864.255	-52.91
864.424	-479.48
864.592	-94.86
864.76	-170.41
864.928	-528.4
865.096	-282.01
865.264	-237.06
865.432	-2871.59
865.6	-304.75
865.768	-195.04
865.936	-202.84
866.104	-205.9
866.272	-357.34
866.44	-668.7
866.608	1051.9
866.776	520.03
866.944	4773.26
867.112	-745.13
867.28	-319.91
867.448	-137.5
867.615	-48.78
867.783	-38.55
867.951	-78.82
868.119	-39.46
868.286	-65.46
868.454	-241.46
868.622	-254.3
868.789	-197.56
868.957	-1782.14
869.125	-2914.47
869.292	-182.92
869.46	-218.59
869.627	-36.49
869.795	-95.11
869.963	-41.8
870.13	-29.33
870.298	-23.39
870.465	-142.59
870.632	-158.67
870.8	-121.86
870.967	-206.41
871.135	-279.11
871.302	-229.86
871.469	-233.74
871.637	-301.25
871.804	-155.44
871.971	-201.68
872.139	-623.95
872.306	-68.17
872.473	-104.52
872.64	-474.03
872.807	-194.97
872.975	-3.28
873.142	-331.82
873.309	2847.3
873.476	12.78
873.643	80.53
873.81	-1.74
873.977	28.04
874.144	40.12
874.311	-160.35
874.478	-183.14
874.645	-204.58
874.812	-157.05
874.979	-96.76
875.146	-87.53
875.313	-130.04
875.48	-33.96
875.647	-30.66
875.813	-90.49
875.98	-74.71
876.147	-107.67
876.314	-197.24
876.481	1592.15
876.647	-1601.69
876.814	640.67
876.981	-135.19
877.147	-109.55
877.314	-42.91
877.481	-31.17
877.647	-15.18
877.814	-61.35
877.98	-103.07
878.147	-21.02
878.314	34.46
878.48	11.21
878.647	30.99
878.813	73.92
878.979	47.68
879.146	-10.54
879.312	-9.43
879.479	-100.25
879.645	-205
879.811	-463.88
879.978	-1150
880.144	-377.67
880.31	-154.99
880.477	-469.76
880.643	-451.23
880.809	-152.96
880.975	-117.08
881.142	-1023.18
881.308	-141.31
881.474	-87.18
881.64	-136.41
881.806	-194.32
881.972	-68.45
882.138	-13.65
882.304	-26.08
882.47	-234.88
882.636	-1060.25
882.802	-366.08
882.968	-175.23
883.134	-137.46
883.3	-139.61
883.466	-24.55
883.632	10.98
883.798	-27.36
883.964	-27.97
884.129	-29.8
884.295	-86.36
884.461	-148.37
884.627	-176.78
884.793	-186.19
884.958	-81.63
885.124	-186.66
885.29	-313.01
885.455	-547.82
885.621	-213.2
885.787	-300.13
885.952	-131.73
886.118	-110.12
886.283	-87.28
886.449	-180.59
886.614	-225.63
886.78	-484.81
886.945	2100.82
887.111	-1132.66
887.276	-941.19
887.442	-1590.45
887.607	-628.54
887.773	-420.54
887.938	-300.91
888.103	-348.45
888.269	-160.99
888.434	-407.3
888.599	-115.28
888.764	-24.12
888.93	-21.16
889.095	-48.45
889.26	-92.9
889.425	-72.1
889.59	-96.99
889.756	-91.7
889.921	-81.85
890.086	-13.37
890.251	-29
890.416	-217.05
890.581	-2139.52
890.746	310.89
890.911	577.39
891.076	240.32
891.241	-557.84
891.406	22.17
891.571	-88.98
891.736	-425.46
891.901	-860.62
892.065	643.41
892.23	197.24
892.395	267.22
892.56	421.53
892.725	-558.2
892.889	-1867.07
893.054	-296.37
893.219	-132.07
893.384	-55.83
893.548	-128.06
893.713	-176.03
893.878	-127.34
