Data from Ofra_2a_PS_OGT5C_Reflection_2.txt Node
Date: Tue Jul 20 09:30:43 EDT 2021
User: Adam
Spectrometer: FLMT01687
Trigger mode: 0
Integration Time (sec): 9.450000E-1
Scans to average: 3
Electric dark correction enabled: true
Nonlinearity correction enabled: false
Boxcar width: 3
XAxis mode: Wavelengths
Number of Pixels in Spectrum: 3648
>>>>>Begin Spectral Data<<<<<
179.494	553.85
179.716	392.17
179.937	382.97
180.158	1480.08
180.38	-815.41
180.601	-194.89
180.823	-169.11
181.044	-175.4
181.265	-166.15
181.486	-67.82
181.708	-1940.22
181.929	-70.81
182.15	-386.93
182.372	-113.99
182.593	-67.04
182.814	284.28
183.035	16.43
183.257	17.99
183.478	19.67
183.699	17.81
183.92	3.35
184.141	3.19
184.363	-6.78
184.584	19.89
184.805	20.41
185.026	-0.76
185.247	-4.36
185.468	-17.29
185.689	-5.39
185.91	-4.05
186.132	-13.94
186.353	-34.31
186.574	-25.14
186.795	-38.56
187.016	-33.43
187.237	-54.48
187.458	-66.5
187.679	-86.84
187.9	-57.69
188.121	-56.91
188.342	-8.29
188.563	-3.57
188.784	4.63
189.005	8.16
189.226	10.62
189.447	11.18
189.667	14.16
189.888	16.32
190.109	18.34
190.33	18.69
190.551	19.67
190.772	30.27
190.993	31.4
191.214	35.36
191.434	27.72
191.655	36.46
191.876	44.69
192.097	40.96
192.318	39.93
192.538	49.72
192.759	54.74
192.98	53.74
193.201	57.4
193.421	50.09
193.642	54.27
193.863	53.57
194.083	37.13
194.304	13.58
194.525	23.37
194.745	0.98
194.966	10.28
195.187	19.9
195.407	17
195.628	14.27
195.848	18.73
196.069	13.15
196.29	13.97
196.51	5.17
196.731	7.49
196.951	7.64
197.172	2.74
197.392	12.85
197.613	11.02
197.833	8.94
198.054	16.72
198.274	-8.7
198.495	-1.42
198.715	-10.99
198.936	-35.23
199.156	-20
199.377	-12.74
199.597	-25.99
199.817	-17.03
200.038	-17.48
200.258	-5.71
200.479	6.41
200.699	4.54
200.919	-2.14
201.14	-5.25
201.36	-6.22
201.58	-2.79
201.801	-19.24
202.021	-11.18
202.241	-10
202.461	0.12
202.682	4.98
202.902	12.79
203.122	8.51
203.342	29.26
203.563	29.45
203.783	30.17
204.003	21.7
204.223	31.68
204.443	32.23
204.663	33.47
204.884	26.23
205.104	23.34
205.324	20.04
205.544	29.89
205.764	12.38
205.984	15.31
206.204	7.62
206.424	17.55
206.644	4
206.864	0.98
207.084	3.52
207.304	0.98
207.525	-10.67
207.745	8.79
207.964	5.37
208.184	18.29
208.404	20.56
208.624	11.14
208.844	4.18
209.064	11.23
209.284	2.52
209.504	3.23
209.724	-13.93
209.944	-16.85
210.164	-0.61
210.384	3.61
210.604	-10.15
210.823	-0.25
211.043	-11.8
211.263	-0.21
211.483	3.06
211.703	-2.62
211.922	11.76
212.142	17.39
212.362	8.35
212.582	12.74
212.801	12.99
213.021	15.7
213.241	10.76
213.461	-3.87
213.68	-3.33
213.9	12.39
214.12	5.74
214.339	8.95
214.559	12.66
214.779	22.51
214.998	20.08
215.218	14.81
215.438	14.27
215.657	16.82
215.877	16.52
216.096	5.82
216.316	4.25
216.535	-1.09
216.755	-1.62
216.974	-7.3
217.194	-7.7
217.413	-1.24
217.633	-1
217.852	-6.38
218.072	-16.99
218.291	3.12
218.511	8.04
218.73	-0.17
218.95	-4.68
219.169	4.35
219.389	4.85
219.608	20.95
219.827	6.92
220.047	1.09
220.266	13.64
220.485	8.31
220.705	3.7
220.924	7.58
221.143	11.46
221.363	18.08
221.582	18.9
221.801	20.6
222.021	26.52
222.24	18.57
222.459	4.59
222.678	-12.54
222.897	-1.6
223.117	2.39
223.336	6.99
223.555	2.52
223.774	20.91
223.993	41.37
224.213	43.04
224.432	59.91
224.651	53.38
224.87	42.62
225.089	47.1
225.308	41.19
225.527	25.18
225.746	20.21
225.965	-9.16
226.184	-15.84
226.404	-11.16
226.623	-5.07
226.842	6.3
227.061	9.34
227.28	25.39
227.499	39.82
227.718	39.34
227.936	26.82
228.155	24.11
228.374	17.64
228.593	26.93
228.812	11.84
229.031	-13.72
229.25	-0.42
229.469	8.95
229.688	14.96
229.907	5.59
230.125	3.85
230.344	16.29
230.563	28.96
230.782	18.73
231.001	18.58
231.22	6.89
231.438	21.83
231.657	23.23
231.876	15.4
232.095	13.27
232.313	16.07
232.532	10.15
232.751	16
232.969	13.21
233.188	6.09
233.407	9.99
233.625	4.56
233.844	1.23
234.063	9.03
234.281	4.63
234.5	10.23
234.719	7.9
234.937	8.76
235.156	10.73
235.374	8.76
235.593	4
235.811	-8.05
236.03	-28.41
236.249	-13.55
236.467	-13.83
236.686	-4.72
236.904	-12.9
237.123	-7.34
237.341	10.95
237.559	12.72
237.778	18.7
237.996	25.72
238.215	22.97
238.433	39.43
238.652	37.69
238.87	27.57
239.088	22.1
239.307	19.73
239.525	10.07
239.743	2.44
239.962	-9.16
240.18	-2.71
240.398	15.43
240.617	30.22
240.835	25.31
241.053	35.1
241.271	41.35
241.49	39.23
241.708	30.84
241.926	14.87
242.144	8.04
242.363	8.3
242.581	7.79
242.799	-5.71
243.017	-7.72
243.235	-4.02
243.453	-2.49
243.672	-13.1
243.89	-8.53
244.108	-9.54
244.326	-12.61
244.544	1.32
244.762	-8.32
244.98	-3.02
245.198	-2.34
245.416	-7.27
245.634	-2.76
245.852	13.67
246.07	13.35
246.288	13.69
246.506	11.13
246.724	19.59
246.942	21.55
247.16	18.45
247.378	6.82
247.596	3.94
247.814	6.49
248.032	2.75
248.25	-6.77
248.468	4.94
248.685	5.11
248.903	10.68
249.121	15.37
249.339	23.6
249.557	27.07
249.775	23.63
249.992	9.6
250.21	3.59
250.428	-1.94
250.646	-2.83
250.863	-4.85
251.081	-13.7
251.299	0.64
251.517	16.33
251.734	22.9
251.952	40.4
252.17	13.92
252.387	16.23
252.605	21.23
252.823	11.38
253.04	7.04
253.258	8.1
253.475	5.62
253.693	25.46
253.911	27.81
254.128	29.59
254.346	25.67
254.563	19.25
254.781	19.02
254.998	15.43
255.216	11.91
255.433	3.99
255.651	6.96
255.868	13.55
256.086	17.15
256.303	12.34
256.521	2.46
256.738	1.36
256.956	-1.1
257.173	3.32
257.39	7.97
257.608	5.03
257.825	8.6
258.043	8.89
258.26	17.47
258.477	23.99
258.695	15.89
258.912	18.5
259.129	24.69
259.346	26.55
259.564	37.87
259.781	42.78
259.998	30.26
260.216	34.57
260.433	18.97
260.65	14.1
260.867	-1.32
261.084	9.28
261.302	-11.48
261.519	-10.3
261.736	-18.48
261.953	-12.13
262.17	1.72
262.387	1.64
262.604	-12.38
262.822	-5.27
263.039	1.55
263.256	5.18
263.473	-0.15
263.69	-4.83
263.907	-0.35
264.124	-8.93
264.341	-19.14
264.558	-6.57
264.775	-11.06
264.992	-5.83
265.209	-0.41
265.426	7.26
265.643	19.93
265.86	25.23
266.077	21.95
266.294	16.17
266.51	20.23
266.727	13.72
266.944	-40.35
267.161	-48.47
267.378	-56.88
267.595	-77.31
267.812	-53.92
268.028	-52.02
268.245	-47.81
268.462	-5.98
268.679	-10.97
268.896	-6.8
269.112	13.03
269.329	15
269.546	9.22
269.763	16.61
269.979	19.23
270.196	20.6
270.413	19.28
270.629	17.57
270.846	16.65
271.063	18.72
271.279	12.61
271.496	6.21
271.712	1.37
271.929	6.23
272.146	5.04
272.362	-6.13
272.579	-10.3
272.795	-11.14
273.012	-3.16
273.228	-3.34
273.445	-3.74
273.661	-5.24
273.878	3.4
274.094	7.28
274.311	1.61
274.527	-8.1
274.744	-4.58
274.96	-8.98
275.177	-14.95
275.393	-17.69
275.609	-13.25
275.826	0.35
276.042	13.56
276.259	15.73
276.475	17.48
276.691	18.76
276.908	15.67
277.124	13.22
277.34	3.97
277.557	1.55
277.773	-2.33
277.989	-6.33
278.205	-13.61
278.422	-11.06
278.638	-0.22
278.854	-4.29
279.07	-2.54
279.286	-3.68
279.503	12.31
279.719	23.4
279.935	18.14
280.151	18.12
280.367	25.83
280.583	25.79
280.799	33.17
281.016	26.06
281.232	25.68
281.448	26.71
281.664	20.86
281.88	31.7
282.096	36.57
282.312	29.01
282.528	18.05
282.744	18.92
282.96	19.68
283.176	24.36
283.392	25.8
283.608	23.36
283.824	14.87
284.04	22.04
284.256	16.31
284.471	13.45
284.687	9.78
284.903	-8.11
285.119	-23.07
285.335	-9.02
285.551	-4.79
285.767	-6.65
285.982	-3.47
286.198	-7.35
286.414	16.38
286.63	30.29
286.846	29.74
287.061	30.67
287.277	40.81
287.493	40.65
287.709	32.85
287.924	24.47
288.14	14.9
288.356	15.52
288.571	-2.58
288.787	-1.85
289.003	8.05
289.218	11.3
289.434	12.86
289.65	21
289.865	22.34
290.081	29.18
290.296	29.38
290.512	27.17
290.727	39.88
290.943	36.59
291.159	28.74
291.374	21.68
291.59	13.69
291.805	-0.37
292.021	-11.54
292.236	-17.65
292.451	-24.48
292.667	-16.77
292.882	-13.81
293.098	-13.14
293.313	-12.55
293.529	-11.3
293.744	-5.5
293.959	16.52
294.175	14.13
294.39	12.63
294.605	14.88
294.821	18.51
295.036	23.75
295.251	19.05
295.467	-2.09
295.682	5.61
295.897	10.36
296.112	8.09
296.328	11.55
296.543	10.02
296.758	6.89
296.973	12.95
297.188	6.92
297.404	5.7
297.619	7.4
297.834	16.35
298.049	19.66
298.264	23.26
298.479	12.41
298.694	13.08
298.909	15.76
299.125	21.66
299.34	13.85
299.555	17.46
299.77	17.96
299.985	23.04
300.2	16.35
300.415	17.44
300.63	12.3
300.845	15.77
301.06	13.92
301.275	16.6
301.49	20.75
301.704	30
301.919	24.47
302.134	16.53
302.349	8.73
302.564	1.24
302.779	-11.47
302.994	-19.49
303.209	-39.37
303.423	-31.66
303.638	-15.42
303.853	-11.26
304.068	-4.94
304.283	6.6
304.497	9.53
304.712	23.96
304.927	15.99
305.142	9.06
305.356	11.62
305.571	17.25
305.786	16.56
306	16.91
306.215	12.86
306.43	29.58
306.644	27.26
306.859	28.14
307.074	25.34
307.288	22.59
307.503	25.95
307.717	23.86
307.932	17.9
308.147	17.25
308.361	19.09
308.576	20.06
308.79	19.93
309.005	14.9
309.219	10.81
309.434	6.02
309.648	0.48
309.863	0.39
310.077	-8.74
310.292	-12
310.506	0.42
310.72	-4.58
310.935	-2.36
311.149	9.84
311.364	10.68
311.578	11.58
311.792	12.15
312.007	5.91
312.221	18.4
312.435	21.1
312.649	26.53
312.864	14.87
313.078	17.51
313.292	27.06
313.507	36.46
313.721	32.09
313.935	37.87
314.149	29.56
314.363	38.69
314.578	35.51
314.792	28.07
315.006	18.95
315.22	24.33
315.434	13.54
315.648	7.69
315.862	7.87
316.077	5.77
316.291	7.71
316.505	-0.15
316.719	-17.56
316.933	-6.74
317.147	-0.22
317.361	0.28
317.575	13.21
317.789	14.27
318.003	30.07
318.217	38.83
318.431	38.21
318.645	38.31
318.859	29.29
319.073	26.37
319.287	27.14
319.5	24.87
319.714	21.23
319.928	17.46
320.142	15.41
320.356	33.53
320.57	30.53
320.784	22.55
320.997	21.77
321.211	21.79
321.425	20.37
321.639	23.06
321.853	11.69
322.066	12.8
322.28	14.22
322.494	2.81
322.707	4.82
322.921	9.75
323.135	9.64
323.349	12.98
323.562	12.86
323.776	17.79
323.989	21.04
324.203	23.19
324.417	17.48
324.63	6.34
324.844	-2.72
325.057	-0.62
325.271	-8.52
325.485	-5.47
325.698	-12.18
325.912	3.78
326.125	19.73
326.339	23.62
326.552	22.38
326.766	30.15
326.979	29.63
327.193	28.58
327.406	15.23
327.619	-14.14
327.833	-16.87
328.046	-14.29
328.26	-18.81
328.473	-17.78
328.686	-12.62
328.9	-11.22
329.113	4.96
329.326	13.29
329.54	19.73
329.753	11.82
329.966	13.7
330.179	20.69
330.393	20.94
330.606	19.48
330.819	19.99
331.032	11.3
331.246	14.53
331.459	17.1
331.672	12.75
331.885	14.73
332.098	21.61
332.311	6.57
332.525	20.67
332.738	21.47
332.951	21.92
333.164	15.36
333.377	0.2
333.59	7.63
333.803	16
334.016	-3.35
334.229	-3.91
334.442	-1.64
334.655	6.81
334.868	26.61
335.081	27.7
335.294	23.69
335.507	34.02
335.72	24.79
335.933	26.88
336.146	30.09
336.359	23.82
336.572	9.42
336.785	15.47
336.997	6.67
337.21	6.8
337.423	5.36
337.636	3.73
337.849	-2.76
338.062	8.29
338.274	6.4
338.487	8.28
338.7	13.61
338.913	9.88
339.125	11.33
339.338	19.74
339.551	13.27
339.763	14.11
339.976	17.3
340.189	16.37
340.402	12.58
340.614	12.3
340.827	7.57
341.039	8.67
341.252	7.36
341.465	-5.5
341.677	-5.79
341.89	-4.41
342.102	-4.66
342.315	5.9
342.527	1.62
342.74	-3.09
342.952	8.69
343.165	19.76
343.377	25.98
343.59	28.2
343.802	29.16
344.015	31.17
344.227	30
344.44	24.99
344.652	17.19
344.864	15.36
345.077	4.77
345.289	-3.14
345.502	-5.99
345.714	-11.37
345.926	-16.93
346.139	-11.79
346.351	-27.16
346.563	-18.16
346.775	-24.13
346.988	-22.78
347.2	-7.61
347.412	3.95
347.624	2.81
347.837	11.9
348.049	14.73
348.261	18.2
348.473	9.05
348.685	8.67
348.897	11.86
349.11	8.37
349.322	0.26
349.534	-0.4
349.746	4.07
349.958	19.3
350.17	15.32
350.382	0.19
350.594	6.65
350.806	10.91
351.018	11.9
351.23	7.04
351.442	4.07
351.654	4.91
351.866	11.96
352.078	7.68
352.29	15.79
352.502	12.64
352.714	13.46
352.926	18.42
353.138	15.73
353.35	1.64
353.561	-3.72
353.773	-5.3
353.985	-0.46
354.197	-0.48
354.409	-1.5
354.621	11.17
354.832	11.45
355.044	21.43
355.256	11.54
355.468	7.55
355.679	16.53
355.891	13.32
356.103	2.94
356.314	11.94
356.526	14.11
356.738	11.82
356.949	12.4
357.161	7.08
357.373	8.89
357.584	21.61
357.796	16.34
358.008	13.69
358.219	23.86
358.431	28.59
358.642	23.46
358.854	21.41
359.065	12.24
359.277	11.37
359.488	12.08
359.7	16.88
359.911	16.77
360.123	24.12
360.334	25.27
360.546	24.18
360.757	28.32
360.969	33.75
361.18	22.57
361.391	15.04
361.603	9.23
361.814	11.18
362.025	11.91
362.237	9.94
362.448	9.47
362.659	5.2
362.871	5.5
363.082	5.14
363.293	7.26
363.504	13.17
363.716	13.19
363.927	7.12
364.138	15.52
364.349	19.21
364.56	21.33
364.772	21.77
364.983	15.73
365.194	15.09
365.405	12.23
365.616	3.38
365.827	-3.38
366.038	0.69
366.25	0.16
366.461	10.8
366.672	8.18
366.883	17.16
367.094	17.56
367.305	17.48
367.516	9.68
367.727	6.28
367.938	0.65
368.149	2.35
368.36	2.11
368.571	5.35
368.781	6.79
368.992	10.6
369.203	12.88
369.414	7.32
369.625	6.49
369.836	7.69
370.047	8.31
370.258	4.83
370.468	4.96
370.679	-4.33
370.89	8.21
371.101	7.04
371.312	2.88
371.522	1.79
371.733	-0.41
371.944	-0.97
372.155	-4.11
372.365	-20.03
372.576	-23.74
372.787	-25.74
372.997	-24.87
373.208	-13.54
373.419	-16.79
373.629	-1.72
373.84	0.7
374.05	13.54
374.261	10.85
374.472	4.29
374.682	-0.56
374.893	-7.88
375.103	-6.82
375.314	-0.64
375.524	-2.2
375.735	2.4
375.945	5.57
376.156	10.55
376.366	19.35
376.577	14.74
376.787	9.07
376.997	9.91
377.208	6.56
377.418	5.86
377.629	1.57
377.839	6.74
378.049	9.6
378.26	11.68
378.47	9.4
378.68	7.29
378.89	6.89
379.101	-1.21
379.311	-9.96
379.521	-8.82
379.732	-10.68
379.942	-9.12
380.152	-2.24
380.362	4.95
380.572	11.57
380.783	11.51
380.993	10.85
381.203	10.88
381.413	14.41
381.623	12.07
381.833	5.89
382.043	0.65
382.253	4.32
382.463	7.33
382.674	11.15
382.884	3.61
383.094	4.77
383.304	8.6
383.514	13.01
383.724	10.79
383.934	5.73
384.144	4.3
384.353	8.91
384.563	3.62
384.773	3.52
384.983	3.12
385.193	4.48
385.403	7.15
385.613	5.53
385.823	2.68
386.033	8.86
386.242	10.5
386.452	11.48
386.662	13.68
386.872	10.88
387.082	10.62
387.291	11.72
387.501	9.11
387.711	8.32
387.921	5.54
388.13	2.3
388.34	1.03
388.55	1.55
388.759	-0.23
388.969	-1.39
389.179	1.35
389.388	3.05
389.598	3.47
389.807	5.55
390.017	4.08
390.227	3.32
390.436	3.97
390.646	1.84
390.855	3.35
391.065	3.22
391.274	3.15
391.484	4.18
391.693	6.52
391.903	5.42
392.112	4.82
392.322	4.37
392.531	5.14
392.74	3.03
392.95	4.92
393.159	4.03
393.369	4.92
393.578	4.01
393.787	3.35
393.997	4.67
394.206	5.62
394.415	4.72
394.625	4.35
394.834	3.42
395.043	4.32
395.252	4.74
395.462	3.95
395.671	4.58
395.88	4.74
396.089	4.95
396.298	5.42
396.508	5.12
396.717	4.53
396.926	3.96
397.135	3.37
397.344	2.67
397.553	2.63
397.762	2.55
397.971	2.51
398.181	2.35
398.39	2.74
398.599	3.16
398.808	3.68
399.017	4.17
399.226	4.3
399.435	4.38
399.644	4.5
399.853	4.37
400.062	4.33
400.27	4.04
400.479	3.89
400.688	3.76
400.897	4.05
401.106	4.14
401.315	4.06
401.524	3.85
401.733	3.99
401.941	3.77
402.15	3.67
402.359	3.64
402.568	3.69
402.777	3.62
402.985	3.7
403.194	3.68
403.403	3.49
403.612	3.54
403.82	3.45
404.029	3.46
404.238	3.45
404.446	3.45
404.655	3.34
404.864	3.48
405.072	3.52
405.281	3.49
405.489	3.54
405.698	3.56
405.906	3.47
406.115	3.56
406.324	3.55
406.532	3.52
406.741	3.57
406.949	3.42
407.158	3.45
407.366	3.52
407.574	3.56
407.783	3.52
407.991	3.41
408.2	3.24
408.408	3.21
408.617	3.23
408.825	3.24
409.033	3.12
409.242	3.06
409.45	3.12
409.658	3.19
409.867	3.24
410.075	3.14
410.283	3.04
410.491	3.03
410.7	3.05
410.908	3.03
411.116	2.94
411.324	2.99
411.533	2.88
411.741	2.83
411.949	2.86
412.157	2.93
412.365	2.96
412.573	3.01
412.781	2.94
412.99	3.13
413.198	3.24
413.406	3.21
413.614	3.16
413.822	3.11
414.03	3.09
414.238	3.17
414.446	3.06
414.654	2.99
414.862	3
415.07	3.03
415.278	3
415.486	3.1
415.694	2.97
415.902	2.93
416.109	2.94
416.317	2.88
416.525	2.91
416.733	2.96
416.941	2.84
417.149	2.98
417.357	3.04
417.564	2.97
417.772	3.07
417.98	2.97
418.188	2.94
418.395	3
418.603	2.82
418.811	2.78
419.019	2.85
419.226	2.8
419.434	2.77
419.642	2.67
419.849	2.62
420.057	2.67
420.265	2.68
420.472	2.63
420.68	2.6
420.887	2.59
421.095	2.65
421.302	2.61
421.51	2.65
421.717	2.68
421.925	2.59
422.132	2.58
422.34	2.6
422.547	2.57
422.755	2.59
422.962	2.53
423.17	2.39
423.377	2.53
423.585	2.58
423.792	2.53
423.999	2.56
424.207	2.49
424.414	2.62
424.621	2.67
424.829	2.65
425.036	2.6
425.243	2.66
425.451	2.73
425.658	2.86
425.865	2.7
426.072	2.78
426.28	2.81
426.487	2.77
426.694	2.72
426.901	2.56
427.108	2.54
427.315	2.53
427.523	2.47
427.73	2.49
427.937	2.53
428.144	2.53
428.351	2.72
428.558	2.59
428.765	2.56
428.972	2.54
429.179	2.4
429.386	2.42
429.593	2.46
429.8	2.47
430.007	2.56
430.214	2.67
430.421	2.73
430.628	2.67
430.835	2.64
431.042	2.59
431.249	2.5
431.456	2.51
431.662	2.58
431.869	2.63
432.076	2.72
432.283	2.69
432.49	2.76
432.697	2.76
432.903	2.74
433.11	2.72
433.317	2.72
433.524	2.67
433.73	2.72
433.937	2.68
434.144	2.78
434.35	2.77
434.557	2.67
434.764	2.68
434.97	2.8
435.177	2.76
435.384	2.79
435.59	2.72
435.797	2.78
436.003	2.83
436.21	2.75
436.416	2.68
436.623	2.75
436.829	2.73
437.036	2.76
437.242	2.71
437.449	2.72
437.655	2.73
437.862	2.74
438.068	2.72
438.275	2.71
438.481	2.71
438.687	2.81
438.894	2.85
439.1	2.89
439.307	2.94
439.513	2.97
439.719	3.03
439.926	3.04
440.132	2.96
440.338	2.94
440.544	2.91
440.751	2.9
440.957	2.83
441.163	2.87
441.369	2.86
441.575	2.88
441.782	2.84
441.988	2.88
442.194	2.96
442.4	3.08
442.606	3.07
442.812	3.06
443.018	3.04
443.224	3.1
443.431	3.12
443.637	3.07
443.843	3.04
444.049	2.99
444.255	3.02
444.461	3.07
444.667	3.06
444.873	3.06
445.079	3.09
445.284	3.09
445.49	3.07
445.696	3.11
445.902	3.16
446.108	3.2
446.314	3.23
446.52	3.21
446.726	3.25
446.931	3.29
447.137	3.28
447.343	3.26
447.549	3.19
447.755	3.18
447.96	3.18
448.166	3.2
448.372	3.2
448.578	3.23
448.783	3.18
448.989	3.26
449.195	3.24
449.4	3.27
449.606	3.23
449.812	3.29
450.017	3.26
450.223	3.3
450.428	3.29
450.634	3.35
450.84	3.38
451.045	3.39
451.251	3.37
451.456	3.39
451.662	3.37
451.867	3.41
452.073	3.35
452.278	3.34
452.483	3.38
452.689	3.36
452.894	3.35
453.1	3.35
453.305	3.33
453.51	3.36
453.716	3.3
453.921	3.28
454.127	3.27
454.332	3.28
454.537	3.35
454.742	3.32
454.948	3.29
455.153	3.34
455.358	3.35
455.563	3.39
455.769	3.39
455.974	3.33
456.179	3.3
456.384	3.32
456.589	3.39
456.795	3.35
457	3.37
457.205	3.36
457.41	3.41
457.615	3.49
457.82	3.54
458.025	3.5
458.23	3.48
458.435	3.38
458.64	3.39
458.845	3.35
459.05	3.33
459.255	3.3
459.46	3.3
459.665	3.39
459.87	3.47
460.075	3.46
460.28	3.56
460.485	3.61
460.69	3.59
460.895	3.6
461.099	3.6
461.304	3.59
461.509	3.57
461.714	3.54
461.919	3.49
462.123	3.53
462.328	3.52
462.533	3.51
462.738	3.52
462.942	3.61
463.147	3.59
463.352	3.71
463.556	3.8
463.761	3.8
463.966	3.86
464.17	3.89
464.375	3.84
464.58	3.83
464.784	3.8
464.989	3.69
465.193	3.74
465.398	3.76
465.602	3.72
465.807	3.77
466.011	3.83
466.216	3.83
466.42	3.93
466.625	3.91
466.829	3.93
467.034	3.98
467.238	4.04
467.443	4.1
467.647	4.1
467.851	4.07
468.056	4.05
468.26	3.98
468.464	3.98
468.669	3.93
468.873	3.86
469.077	3.91
469.282	3.97
469.486	4.01
469.69	4.09
469.894	4.12
470.099	4.17
470.303	4.22
470.507	4.21
470.711	4.15
470.915	4.23
471.119	4.26
471.324	4.26
471.528	4.28
471.732	4.28
471.936	4.31
472.14	4.36
472.344	4.34
472.548	4.36
472.752	4.4
472.956	4.44
473.16	4.47
473.364	4.45
473.568	4.47
473.772	4.52
473.976	4.5
474.18	4.47
474.384	4.45
474.588	4.47
474.792	4.52
474.995	4.53
475.199	4.53
475.403	4.6
475.607	4.64
475.811	4.64
476.015	4.69
476.218	4.68
476.422	4.73
476.626	4.69
476.83	4.69
477.033	4.74
477.237	4.75
477.441	4.75
477.644	4.77
477.848	4.75
478.052	4.81
478.255	4.8
478.459	4.79
478.663	4.82
478.866	4.83
479.07	4.84
479.273	4.86
479.477	4.87
479.681	4.9
479.884	4.89
480.088	4.87
480.291	4.91
480.495	4.97
480.698	4.99
480.901	5
481.105	5.05
481.308	5.07
481.512	5.09
481.715	5.12
481.919	5.09
482.122	5.12
482.325	5.11
482.529	5.1
482.732	5.15
482.935	5.17
483.138	5.12
483.342	5.13
483.545	5.13
483.748	5.19
483.952	5.24
484.155	5.24
484.358	5.26
484.561	5.32
484.764	5.36
484.967	5.38
485.171	5.34
485.374	5.29
485.577	5.27
485.78	5.28
485.983	5.28
486.186	5.27
486.389	5.25
486.592	5.28
486.795	5.28
486.998	5.31
487.201	5.32
487.404	5.34
487.607	5.35
487.81	5.37
488.013	5.36
488.216	5.36
488.419	5.38
488.622	5.36
488.825	5.3
489.028	5.28
489.231	5.32
489.433	5.33
489.636	5.31
489.839	5.29
490.042	5.36
490.245	5.39
490.447	5.39
490.65	5.4
490.853	5.39
491.056	5.41
491.258	5.42
491.461	5.38
491.664	5.35
491.866	5.36
492.069	5.34
492.272	5.32
492.474	5.36
492.677	5.34
492.879	5.38
493.082	5.44
493.285	5.49
493.487	5.49
493.69	5.5
493.892	5.53
494.095	5.57
494.297	5.59
494.5	5.58
494.702	5.55
494.905	5.58
495.107	5.59
495.309	5.54
495.512	5.56
495.714	5.57
495.917	5.61
496.119	5.66
496.321	5.69
496.524	5.71
496.726	5.77
496.928	5.78
497.13	5.8
497.333	5.8
497.535	5.79
497.737	5.77
497.939	5.83
498.142	5.83
498.344	5.83
498.546	5.83
498.748	5.81
498.95	5.82
499.152	5.81
499.355	5.79
499.557	5.8
499.759	5.88
499.961	5.92
500.163	5.98
500.365	5.97
500.567	6.01
500.769	6.05
500.971	6.08
501.173	6.03
501.375	6.02
501.577	6.02
501.779	6.03
501.981	6.05
502.183	6.03
502.385	6.02
502.587	6.07
502.788	6.06
502.99	6.08
503.192	6.13
503.394	6.14
503.596	6.2
503.798	6.26
503.999	6.26
504.201	6.28
504.403	6.32
504.605	6.33
504.806	6.36
505.008	6.39
505.21	6.39
505.411	6.43
505.613	6.5
505.815	6.51
506.016	6.52
506.218	6.5
506.42	6.49
506.621	6.5
506.823	6.52
507.024	6.54
507.226	6.56
507.427	6.58
507.629	6.66
507.83	6.65
508.032	6.71
508.233	6.72
508.435	6.72
508.636	6.75
508.838	6.76
509.039	6.77
509.24	6.8
509.442	6.73
509.643	6.74
509.845	6.75
510.046	6.75
510.247	6.78
510.448	6.77
510.65	6.82
510.851	6.92
511.052	6.96
511.254	6.97
511.455	6.99
511.656	7.02
511.857	7.06
512.058	7.09
512.26	7.08
512.461	7.11
512.662	7.14
512.863	7.13
513.064	7.12
513.265	7.14
513.466	7.16
513.667	7.18
513.868	7.2
514.069	7.21
514.27	7.23
514.471	7.27
514.672	7.3
514.873	7.32
515.074	7.33
515.275	7.3
515.476	7.32
515.677	7.35
515.878	7.38
516.079	7.38
516.28	7.35
516.481	7.36
516.682	7.41
516.882	7.45
517.083	7.43
517.284	7.41
517.485	7.44
517.686	7.49
517.886	7.52
518.087	7.51
518.288	7.5
518.488	7.54
518.689	7.57
518.89	7.6
519.091	7.62
519.291	7.63
519.492	7.64
519.692	7.67
519.893	7.65
520.094	7.66
520.294	7.63
520.495	7.64
520.695	7.63
520.896	7.64
521.096	7.66
521.297	7.7
521.497	7.69
521.698	7.69
521.898	7.71
522.099	7.73
522.299	7.74
522.499	7.76
522.7	7.77
522.9	7.79
523.101	7.83
523.301	7.83
523.501	7.86
523.702	7.91
523.902	7.9
524.102	7.91
524.302	7.91
524.503	7.91
524.703	7.94
524.903	7.96
525.103	7.93
525.304	7.94
525.504	7.94
525.704	7.94
525.904	7.96
526.104	7.98
526.304	7.99
526.504	7.99
526.705	8.04
526.905	8.07
527.105	8.09
527.305	8.07
527.505	8.06
527.705	8.06
527.905	8.08
528.105	8.08
528.305	8.09
528.505	8.14
528.705	8.19
528.905	8.2
529.105	8.23
529.304	8.27
529.504	8.25
529.704	8.27
529.904	8.28
530.104	8.26
530.304	8.28
530.503	8.27
530.703	8.3
530.903	8.34
531.103	8.33
531.303	8.36
531.502	8.37
531.702	8.4
531.902	8.43
532.101	8.42
532.301	8.45
532.501	8.46
532.7	8.44
532.9	8.48
533.1	8.5
533.299	8.54
533.499	8.58
533.698	8.59
533.898	8.63
534.097	8.67
534.297	8.68
534.496	8.67
534.696	8.67
534.895	8.69
535.095	8.7
535.294	8.72
535.494	8.75
535.693	8.78
535.892	8.81
536.092	8.81
536.291	8.87
536.491	8.88
536.69	8.9
536.889	8.93
537.088	8.95
537.288	9.03
537.487	9.05
537.686	9.08
537.886	9.11
538.085	9.17
538.284	9.2
538.483	9.23
538.682	9.22
538.882	9.23
539.081	9.24
539.28	9.28
539.479	9.27
539.678	9.31
539.877	9.34
540.076	9.38
540.275	9.46
540.474	9.45
540.673	9.51
540.872	9.55
541.071	9.57
541.27	9.58
541.469	9.61
541.668	9.62
541.867	9.69
542.066	9.68
542.265	9.72
542.464	9.74
542.663	9.84
542.862	9.88
543.06	9.92
543.259	9.98
543.458	10.07
543.657	10.11
543.856	10.17
544.054	10.19
544.253	10.23
544.452	10.24
544.651	10.24
544.849	10.22
545.048	10.23
545.247	10.27
545.445	10.26
545.644	10.33
545.843	10.37
546.041	10.4
546.24	10.52
546.438	10.59
546.637	10.64
546.836	10.71
547.034	10.75
547.233	10.82
547.431	10.9
547.63	10.91
547.828	10.98
548.027	11.02
548.225	11.09
548.423	11.15
548.622	11.21
548.82	11.28
549.019	11.35
549.217	11.42
549.415	11.54
549.614	11.54
549.812	11.59
550.01	11.65
550.209	11.7
550.407	11.76
550.605	11.84
550.803	11.89
551.002	12
551.2	12.1
551.398	12.17
551.596	12.27
551.794	12.39
551.993	12.42
552.191	12.5
552.389	12.58
552.587	12.64
552.785	12.71
552.983	12.77
553.181	12.82
553.379	12.91
553.577	13
553.775	13.07
553.973	13.16
554.171	13.27
554.369	13.37
554.567	13.42
554.765	13.47
554.963	13.5
555.161	13.6
555.359	13.66
555.557	13.73
555.755	13.83
555.952	13.97
556.15	14.08
556.348	14.23
556.546	14.35
556.744	14.47
556.941	14.59
557.139	14.66
557.337	14.71
557.535	14.86
557.732	14.92
557.93	15
558.128	15.09
558.325	15.17
558.523	15.24
558.721	15.34
558.918	15.42
559.116	15.51
559.313	15.63
559.511	15.73
559.708	15.83
559.906	15.93
560.104	16.02
560.301	16.11
560.498	16.21
560.696	16.28
560.893	16.37
561.091	16.45
561.288	16.59
561.486	16.7
561.683	16.8
561.88	16.94
562.078	17.08
562.275	17.22
562.473	17.34
562.67	17.45
562.867	17.58
563.064	17.71
563.262	17.82
563.459	17.89
563.656	17.97
563.853	18.06
564.051	18.17
564.248	18.27
564.445	18.34
564.642	18.42
564.839	18.56
565.036	18.69
565.234	18.85
565.431	18.97
565.628	19.08
565.825	19.21
566.022	19.35
566.219	19.42
566.416	19.51
566.613	19.57
566.81	19.64
567.007	19.76
567.204	19.88
567.401	19.95
567.598	20.07
567.795	20.15
567.991	20.22
568.188	20.31
568.385	20.37
568.582	20.47
568.779	20.57
568.976	20.63
569.172	20.77
569.369	20.85
569.566	20.85
569.763	20.92
569.96	20.97
570.156	21
570.353	21.07
570.55	21.1
570.746	21.18
570.943	21.35
571.14	21.4
571.336	21.45
571.533	21.54
571.729	21.62
571.926	21.69
572.123	21.74
572.319	21.78
572.516	21.84
572.712	21.96
572.909	22.02
573.105	22.06
573.302	22.06
573.498	22.12
573.695	22.14
573.891	22.17
574.087	22.15
574.284	22.23
574.48	22.26
574.677	22.34
574.873	22.4
575.069	22.46
575.266	22.49
575.462	22.54
575.658	22.57
575.854	22.61
576.051	22.62
576.247	22.62
576.443	22.68
576.639	22.69
576.835	22.69
577.032	22.67
577.228	22.69
577.424	22.71
577.62	22.76
577.816	22.75
578.012	22.78
578.208	22.78
578.404	22.81
578.6	22.82
578.796	22.86
578.993	22.88
579.189	22.93
579.384	22.95
579.58	22.99
579.776	22.99
579.972	23
580.168	22.95
580.364	22.9
580.56	22.81
580.756	22.81
580.952	22.8
581.148	22.8
581.343	22.81
581.539	22.83
581.735	22.8
581.931	22.85
582.127	22.85
582.322	22.85
582.518	22.83
582.714	22.8
582.909	22.78
583.105	22.83
583.301	22.79
583.496	22.78
583.692	22.74
583.888	22.73
584.083	22.74
584.279	22.74
584.474	22.73
584.67	22.75
584.866	22.76
585.061	22.8
585.257	22.83
585.452	22.85
585.648	22.82
585.843	22.85
586.039	22.83
586.234	22.81
586.429	22.81
586.625	22.81
586.82	22.79
587.015	22.81
587.211	22.8
587.406	22.9
587.601	22.88
587.797	22.89
587.992	22.87
588.187	22.92
588.383	22.97
588.578	22.93
588.773	22.88
588.968	23
589.163	23.06
589.359	23.09
589.554	23.1
589.749	23.12
589.944	23.15
590.139	23.19
590.334	23.17
590.529	23.22
590.724	23.25
590.919	23.3
591.114	23.34
591.309	23.46
591.504	23.46
591.699	23.49
591.894	23.52
592.089	23.59
592.284	23.56
592.479	23.55
592.674	23.53
592.869	23.66
593.064	23.74
593.259	23.75
593.454	23.79
593.648	23.92
593.843	24.02
594.038	24.08
594.233	24.13
594.428	24.21
594.622	24.28
594.817	24.33
595.012	24.35
595.206	24.43
595.401	24.53
595.596	24.62
595.79	24.65
595.985	24.73
596.18	24.81
596.374	24.91
596.569	25.02
596.763	25.11
596.958	25.17
597.153	25.26
597.347	25.3
597.542	25.35
597.736	25.43
597.931	25.53
598.125	25.62
598.319	25.64
598.514	25.7
598.708	25.84
598.903	25.97
599.097	26.08
599.291	26.17
599.486	26.17
599.68	26.23
599.874	26.32
600.069	26.33
600.263	26.35
600.457	26.33
600.651	26.3
600.846	26.32
601.04	26.38
601.234	26.44
601.428	26.44
601.622	26.45
601.817	26.53
602.011	26.57
602.205	26.7
602.399	26.7
602.593	26.68
602.787	26.74
602.981	26.83
603.175	26.85
603.369	26.85
603.563	26.82
603.757	26.85
603.951	26.83
604.145	26.79
604.339	26.73
604.533	26.71
604.727	26.74
604.921	26.71
605.115	26.65
605.309	26.69
605.502	26.72
605.696	26.76
605.89	26.7
606.084	26.68
606.278	26.63
606.471	26.62
606.665	26.51
606.859	26.47
607.053	26.36
607.246	26.31
607.44	26.21
607.634	26.18
607.827	26.1
608.021	26.05
608.214	25.95
608.408	25.91
608.602	25.84
608.795	25.74
608.989	25.72
609.182	25.71
609.376	25.68
609.569	25.62
609.763	25.56
609.956	25.47
610.15	25.47
610.343	25.34
610.537	25.28
610.73	25.25
610.923	25.22
611.117	25.11
611.31	25.07
611.504	24.98
611.697	24.92
611.89	24.82
612.083	24.66
612.277	24.5
612.47	24.43
612.663	24.35
612.856	24.23
613.05	24.13
613.243	24
613.436	23.94
613.629	23.94
613.822	23.92
614.015	23.83
614.209	23.79
614.402	23.7
614.595	23.6
614.788	23.52
614.981	23.43
615.174	23.32
615.367	23.23
615.56	23.14
615.753	23.05
615.946	23.09
616.139	23.06
616.332	22.99
616.525	22.93
616.718	22.87
616.911	22.81
617.103	22.81
617.296	22.72
617.489	22.64
617.682	22.61
617.875	22.56
618.067	22.51
618.26	22.48
618.453	22.35
618.646	22.3
618.838	22.23
619.031	22.16
619.224	22.16
619.417	22.11
619.609	22.05
619.802	22.08
619.994	22.03
620.187	21.98
620.38	21.93
620.572	21.86
620.765	21.8
620.957	21.74
621.15	21.7
621.342	21.66
621.535	21.69
621.727	21.64
621.92	21.63
622.112	21.68
622.305	21.66
622.497	21.64
622.69	21.62
622.882	21.61
623.074	21.55
623.267	21.54
623.459	21.5
623.651	21.51
623.844	21.49
624.036	21.42
624.228	21.36
624.42	21.4
624.613	21.29
624.805	21.25
624.997	21.25
625.189	21.26
625.381	21.28
625.574	21.23
625.766	21.23
625.958	21.24
626.15	21.3
626.342	21.25
626.534	21.14
626.726	21.15
626.918	21.13
627.11	21.08
627.302	21.06
627.494	20.96
627.686	20.88
627.878	20.89
628.07	20.84
628.262	20.82
628.454	20.8
628.646	20.74
628.838	20.67
629.029	20.63
629.221	20.58
629.413	20.5
629.605	20.46
629.797	20.41
629.989	20.41
630.18	20.37
630.372	20.35
630.564	20.35
630.755	20.32
630.947	20.26
631.139	20.2
631.33	20.17
631.522	20.14
631.714	20.07
631.905	20.01
632.097	20
632.289	19.97
632.48	19.96
632.672	19.94
632.863	19.9
633.055	19.91
633.246	19.88
633.438	19.84
633.629	19.87
633.821	19.89
634.012	19.83
634.203	19.91
634.395	19.92
634.586	19.94
634.777	19.93
634.969	19.88
635.16	19.82
635.351	19.81
635.543	19.74
635.734	19.71
635.925	19.67
636.117	19.66
636.308	19.67
636.499	19.63
636.69	19.7
636.881	19.72
637.073	19.76
637.264	19.78
637.455	19.84
637.646	19.82
637.837	19.85
638.028	19.82
638.219	19.77
638.41	19.71
638.601	19.7
638.792	19.62
638.983	19.56
639.174	19.58
639.365	19.47
639.556	19.48
639.747	19.48
639.938	19.47
640.129	19.45
640.32	19.44
640.511	19.44
640.701	19.45
640.892	19.44
641.083	19.4
641.274	19.39
641.465	19.39
641.655	19.44
641.846	19.35
642.037	19.38
642.228	19.34
642.418	19.31
642.609	19.29
642.8	19.23
642.99	19.2
643.181	19.25
643.372	19.21
643.562	19.17
643.753	19.16
643.943	19.12
644.134	19.12
644.324	19.1
644.515	19.02
644.705	18.97
644.896	18.94
645.086	18.9
645.277	18.9
645.467	18.87
645.658	18.86
645.848	18.86
646.038	18.85
646.229	18.86
646.419	18.9
646.61	18.88
646.8	18.88
646.99	18.84
647.18	18.84
647.371	18.82
647.561	18.74
647.751	18.62
647.941	18.56
648.132	18.53
648.322	18.5
648.512	18.5
648.702	18.46
648.892	18.48
649.082	18.51
649.272	18.44
649.462	18.41
649.653	18.38
649.843	18.27
650.033	18.21
650.223	18.2
650.413	18.16
650.603	18.17
650.793	18.15
650.983	18.15
651.172	18.15
651.362	18.12
651.552	18.06
651.742	17.95
651.932	17.91
652.122	17.81
652.312	17.65
652.502	17.58
652.691	17.59
652.881	17.57
653.071	17.53
653.261	17.4
653.45	17.32
653.64	17.29
653.83	17.12
654.019	16.89
654.209	16.72
654.399	16.65
654.588	16.54
654.778	16.44
654.968	16.24
655.157	16.08
655.347	15.97
655.536	15.79
655.726	15.63
655.915	15.48
656.105	15.32
656.294	15.22
656.484	15.18
656.673	15.06
656.863	14.91
657.052	14.69
657.241	14.5
657.431	14.33
657.62	14.11
657.809	13.89
657.999	13.74
658.188	13.63
658.377	13.54
658.567	13.41
658.756	13.21
658.945	13.06
659.134	12.88
659.324	12.7
659.513	12.44
659.702	12.24
659.891	12.05
660.08	11.91
660.269	11.77
660.458	11.61
660.648	11.45
660.837	11.32
661.026	11.12
661.215	10.99
661.404	10.81
661.593	10.64
661.782	10.45
661.971	10.29
662.16	10.12
662.349	9.99
662.538	9.85
662.726	9.67
662.915	9.58
663.104	9.43
663.293	9.27
663.482	9.18
663.671	9.12
663.86	9.02
664.048	8.97
664.237	8.85
664.426	8.82
664.615	8.7
664.803	8.56
664.992	8.47
665.181	8.38
665.369	8.3
665.558	8.24
665.747	8.15
665.935	8.17
666.124	8.11
666.312	7.94
666.501	7.85
666.69	7.76
666.878	7.63
667.067	7.6
667.255	7.49
667.444	7.49
667.632	7.47
667.82	7.39
668.009	7.4
668.197	7.4
668.386	7.3
668.574	7.23
668.762	7.2
668.951	7.17
669.139	7.19
669.327	7.15
669.516	7.17
669.704	7.21
669.892	7.23
670.08	7.14
670.269	7.16
670.457	7.14
670.645	7.15
670.833	7.07
671.021	7.04
671.21	7.1
671.398	7.15
671.586	7.16
671.774	7.19
671.962	7.25
672.15	7.28
672.338	7.32
672.526	7.37
672.714	7.41
672.902	7.41
673.09	7.45
673.278	7.41
673.466	7.48
673.654	7.52
673.842	7.53
674.03	7.62
674.218	7.69
674.405	7.73
674.593	7.77
674.781	7.8
674.969	7.89
675.157	7.89
675.344	7.93
675.532	7.98
675.72	7.99
675.908	8.08
676.095	8.21
676.283	8.23
676.471	8.32
676.658	8.37
676.846	8.47
677.033	8.62
677.221	8.66
677.409	8.71
677.596	8.86
677.784	8.97
677.971	9.07
678.159	9.17
678.346	9.24
678.534	9.35
678.721	9.44
678.909	9.46
679.096	9.53
679.283	9.6
679.471	9.71
679.658	9.82
679.846	10.01
680.033	10.1
680.22	10.28
680.408	10.42
680.595	10.55
680.782	10.58
680.969	10.66
681.157	10.66
681.344	10.84
681.531	10.93
681.718	11.08
681.905	11.21
682.093	11.45
682.28	11.63
682.467	11.82
682.654	11.91
682.841	12.14
683.028	12.33
683.215	12.52
683.402	12.62
683.589	12.85
683.776	13.07
683.963	13.27
684.15	13.42
684.337	13.61
684.524	13.81
684.711	14.05
684.898	14.22
685.085	14.5
685.271	14.82
685.458	15.14
685.645	15.42
685.832	15.77
686.019	16.11
686.205	16.45
686.392	16.82
686.579	17.14
686.766	17.5
686.952	17.94
687.139	18.32
687.326	18.81
687.512	19.25
687.699	19.57
687.886	19.96
688.072	20.4
688.259	20.8
688.445	21.19
688.632	21.63
688.818	22.09
689.005	22.72
689.191	23.32
689.378	23.73
689.564	24.19
689.751	24.76
689.937	25.22
690.124	25.84
690.31	26.33
690.496	26.9
690.683	27.62
690.869	28.27
691.055	29
691.242	29.57
691.428	30.2
691.614	30.86
691.8	31.43
691.987	32.04
692.173	32.79
692.359	33.41
692.545	34.21
692.731	34.87
692.918	35.37
693.104	35.99
693.29	36.76
693.476	37.29
693.662	37.85
693.848	38.33
694.034	38.89
694.22	39.62
694.406	40.25
694.592	40.68
694.778	41.31
694.964	41.92
695.15	42.64
695.336	43.41
695.522	44.12
695.708	44.86
695.894	45.7
696.08	46.26
696.265	47.01
696.451	47.66
696.637	48.23
696.823	48.86
697.009	49.49
697.194	50.07
697.38	50.67
697.566	51.09
697.751	51.64
697.937	52.18
698.123	52.77
698.308	53.22
698.494	53.7
698.68	54.38
698.865	55
699.051	55.67
699.236	56.24
699.422	56.76
699.607	57.18
699.793	57.64
699.978	58
700.164	58.48
700.349	58.74
700.535	59.1
700.72	59.38
700.906	59.82
701.091	60.08
701.276	60.59
701.462	60.99
701.647	61.58
701.832	62.01
702.018	62.52
702.203	62.81
702.388	63.26
702.573	63.73
702.759	64.25
702.944	64.57
703.129	64.95
703.314	65.29
703.499	65.9
703.684	66.41
703.87	66.49
704.055	66.81
704.24	67.21
704.425	67.53
704.61	67.64
704.795	67.98
704.98	68.05
705.165	68.54
705.35	68.64
705.535	68.89
705.72	69.1
705.905	69.38
706.09	69.59
706.275	69.91
706.459	70.27
706.644	70.59
706.829	70.68
707.014	70.91
707.199	71.06
707.384	71.14
707.568	71.48
707.753	71.63
707.938	71.81
708.123	71.86
708.307	72.28
708.492	72.57
708.677	72.86
708.861	73.01
709.046	72.9
709.231	73.2
709.415	73.5
709.6	73.35
709.784	73.53
709.969	73.73
710.153	73.98
710.338	74.35
710.522	74.23
710.707	74.16
710.891	74.6
711.076	74.79
711.26	75.05
711.445	74.92
711.629	75.01
711.813	75.19
711.998	75.46
712.182	75.65
712.366	75.75
712.551	75.69
712.735	75.9
712.919	76.12
713.103	76.34
713.288	76.73
713.472	76.52
713.656	76.72
713.84	76.81
714.024	76.91
714.208	76.69
714.393	76.88
714.577	76.65
714.761	76.89
714.945	76.99
715.129	77.1
715.313	77.28
715.497	77.73
715.681	77.76
715.865	78.04
716.049	78.12
716.233	78.24
716.417	78.45
716.601	78.55
716.785	78.5
716.968	78.35
717.152	78.38
717.336	78.47
717.52	78.45
717.704	78.47
717.888	78.33
718.071	78.52
718.255	78.74
718.439	78.53
718.622	78.77
718.806	78.53
718.99	78.65
719.174	78.86
719.357	79.06
719.541	79.4
719.724	79.84
719.908	79.7
720.092	80.04
720.275	80.24
720.459	80.44
720.642	80.09
720.826	80.02
721.009	79.82
721.193	79.93
721.376	80.14
721.559	80.21
721.743	80.23
721.926	80.39
722.11	80.49
722.293	80.45
722.476	80.69
722.66	80.73
722.843	80.68
723.026	80.9
723.21	81.17
723.393	81.28
723.576	81.47
723.759	81.57
723.942	81.69
724.126	81.73
724.309	81.68
724.492	81.8
724.675	81.8
724.858	82.26
725.041	82.09
725.224	82.25
725.407	82.12
725.59	82.32
725.774	82.4
725.957	82.81
726.14	82.65
726.322	82.58
726.505	82.86
726.688	83.24
726.871	83.38
727.054	83.44
727.237	83.09
727.42	83.59
727.603	84.06
727.786	83.99
727.968	84.31
728.151	84.42
728.334	84.25
728.517	84.61
728.699	84.76
728.882	85.12
729.065	84.96
729.248	84.58
729.43	84.3
729.613	84.78
729.796	84.69
729.978	84.82
730.161	84.76
730.343	85.16
730.526	85.53
730.708	86.23
730.891	86.08
731.073	86.19
731.256	85.99
731.438	86.27
731.621	86.46
731.803	86.43
731.986	86.15
732.168	86.21
732.35	86.18
732.533	86.13
732.715	85.86
732.898	85.85
733.08	86.28
733.262	86.46
733.444	86.58
733.627	86.9
733.809	86.96
733.991	87.13
734.173	86.84
734.355	87.17
734.538	86.81
734.72	87.11
734.902	87.18
735.084	87.24
735.266	87
735.448	87.27
735.63	86.92
735.812	87.17
735.994	86.73
736.176	86.88
736.358	87.19
736.54	87.31
736.722	87.05
736.904	87.18
737.086	87.41
737.268	87.82
737.45	87.69
737.632	87.19
737.814	87.46
737.995	87.85
738.177	87.9
738.359	88.07
738.541	87.86
738.723	87.42
738.904	87.29
739.086	87.4
739.268	87.85
739.449	87.64
739.631	87.59
739.813	87.83
739.994	88.66
740.176	89.26
740.358	88.93
740.539	88.61
740.721	88.46
740.902	87.94
741.084	88.12
741.265	87.59
741.447	87.26
741.628	87.61
741.81	87.38
741.991	87.71
742.172	88.05
742.354	88.25
742.535	88.71
742.717	88.89
742.898	89.07
743.079	89.2
743.261	89.13
743.442	89.22
743.623	89.08
743.804	88.93
743.986	88.94
744.167	88.57
744.348	88.79
744.529	88.45
744.71	88.24
744.891	88.15
745.073	88.15
745.254	88.51
745.435	88.06
745.616	87.67
745.797	87.58
745.978	88.55
746.159	87.9
746.34	87.56
746.521	87.31
746.702	87.15
746.883	87.7
747.064	88.08
747.245	86.6
747.426	87.47
747.606	87.87
747.787	88.25
747.968	89.53
748.149	89.44
748.33	90.21
748.51	90.54
748.691	90.4
748.872	90.58
749.053	90.02
749.233	89.58
749.414	89.02
749.595	87.36
749.775	87.97
749.956	86.89
750.137	86.87
750.317	86.71
750.498	86.36
750.678	86.83
750.859	87.3
751.04	86.79
751.22	86.8
751.4	86.62
751.581	86.95
751.761	87.48
751.942	87.16
752.122	87.31
752.303	87.43
752.483	89.26
752.663	89.15
752.844	89.21
753.024	88.72
753.204	88.81
753.385	89.25
753.565	89.12
753.745	87.78
753.925	88.47
754.106	88.69
754.286	88.79
754.466	88.51
754.646	88.04
754.826	88.85
755.006	88.76
755.187	88.31
755.367	87.97
755.547	87.35
755.727	87.9
755.907	88.57
756.087	88.1
756.267	88.49
756.447	88.33
756.627	88.32
756.807	88.97
756.987	89.53
757.167	88.6
757.346	88.12
757.526	88.2
757.706	87.97
757.886	88
758.066	87.2
758.246	86.17
758.425	86.82
758.605	86.48
758.785	86.77
758.965	85.6
759.144	85.68
759.324	86.02
759.504	86.52
759.683	85.53
759.863	85.87
760.043	84.87
760.222	85.67
760.402	86.47
760.581	86.8
760.761	85.45
760.94	85.32
761.12	85.12
761.299	84.84
761.479	84.97
761.658	83.3
761.838	83.56
762.017	84.74
762.197	85.46
762.376	86.02
762.555	86.91
762.735	85.83
762.914	86.46
763.093	86.19
763.273	85.78
763.452	85.52
763.631	84.55
763.81	84.64
763.99	86.32
764.169	86.09
764.348	86.32
764.527	86.34
764.706	86.58
764.885	88.1
765.064	87.86
765.243	87.45
765.423	87.91
765.602	86.88
765.781	86.91
765.96	86.61
766.139	85.23
766.318	85.97
766.497	86.35
766.676	86.76
766.854	86.14
767.033	85.76
767.212	85.52
767.391	85.94
767.57	85
767.749	84.8
767.928	83.28
768.106	83.6
768.285	84.11
768.464	84.15
768.643	84.27
768.821	84.01
769	83.13
769.179	82.46
769.357	82.76
769.536	81.87
769.715	81.8
769.893	81.7
770.072	81.56
770.25	82.24
770.429	83.21
770.607	83.78
770.786	83.9
770.964	84
771.143	83.92
771.321	83.77
771.5	83.39
771.678	84.2
771.857	82.99
772.035	83.47
772.213	83.89
772.392	83.56
772.57	83.78
772.748	82.85
772.927	82.11
773.105	83.02
773.283	81.99
773.461	82.16
773.64	81.34
773.818	80.72
773.996	81.42
774.174	81.24
774.352	81.57
774.531	80.95
774.709	79.87
774.887	80.37
775.065	80.47
775.243	81.45
775.421	81.61
775.599	80.46
775.777	82.05
775.955	82.12
776.133	81.05
776.311	82.14
776.489	80.54
776.667	79.85
776.844	79.98
777.022	79.72
777.2	80.36
777.378	82.18
777.556	81.82
777.734	82.2
777.911	83.68
778.089	82.27
778.267	81.41
778.445	80.74
778.622	78.98
778.8	78.7
778.978	79.28
779.155	77.86
779.333	77.98
779.511	78.02
779.688	78.03
779.866	78.29
780.043	77.33
780.221	76.54
780.398	76.96
780.576	78.24
780.753	77.59
780.931	78.07
781.108	79.63
781.286	78.88
781.463	79.55
781.64	78.64
781.818	77.92
781.995	78.62
782.172	78.41
782.35	77.28
782.527	79.86
782.704	77.17
782.882	78.5
783.059	78.71
783.236	79.12
783.413	77.71
783.59	77.74
783.768	75.88
783.945	79.4
784.122	79.07
784.299	79.06
784.476	79.39
784.653	79.51
784.83	78.37
785.007	77.82
785.184	76.14
785.361	74.91
785.538	75.84
785.715	75.22
785.892	74.7
786.069	76.09
786.246	76.19
786.423	76.65
786.6	78.36
786.776	77.77
786.953	77.85
787.13	79.43
787.307	78.94
787.484	80.07
787.66	79.5
787.837	77.69
788.014	77.22
788.191	76.45
788.367	75.46
788.544	75.11
788.721	75.77
788.897	76.02
789.074	77.37
789.25	78.85
789.427	79.04
789.603	82.47
789.78	83.51
789.956	80.96
790.133	80.81
790.309	79.65
790.486	79.91
790.662	80.71
790.839	77.62
791.015	77.56
791.192	78.8
791.368	79.07
791.544	80.85
791.721	77.9
791.897	77.2
792.073	75.48
792.249	75.15
792.426	75.72
792.602	74.79
792.778	73.24
792.954	74.95
793.13	75.86
793.307	77.43
793.483	76.37
793.659	76.97
793.835	77.1
794.011	76.71
794.187	74.12
794.363	74.83
794.539	73.97
794.715	73.8
794.891	71.1
795.067	72.67
795.243	72.15
795.419	75.76
795.595	72.93
795.771	73.88
795.947	74.42
796.122	76.67
796.298	75.33
796.474	77.39
796.65	76.56
796.826	79.14
797.001	81.22
797.177	81.54
797.353	81.42
797.529	82.43
797.704	80.82
797.88	79.23
798.056	82.02
798.231	80.61
798.407	81.23
798.582	82.06
798.758	81.82
798.934	79.78
799.109	77.95
799.285	76.52
799.46	74.67
799.636	74.48
799.811	73.3
799.986	73.44
800.162	75.62
800.337	76.34
800.513	77.56
800.688	79.71
800.863	78.58
801.039	76.6
801.214	74.88
801.389	73.15
801.565	75.34
801.74	71.93
801.915	71
802.09	72.54
802.265	74.56
802.441	74.51
802.616	73.16
802.791	74.76
802.966	73.95
803.141	70.34
803.316	69.58
803.491	68.99
803.666	70.1
803.841	72.76
804.016	71.65
804.191	71.29
804.366	75.19
804.541	74.35
804.716	71.29
804.891	75.19
805.066	74.96
805.241	69.8
805.416	68.16
805.591	68.23
805.765	69.06
805.94	74.46
806.115	67.07
806.29	69.07
806.464	71.4
806.639	75.05
806.814	71.19
806.989	70.26
807.163	65.49
807.338	68.32
807.512	63.78
807.687	63.17
807.862	61.03
808.036	63.52
808.211	67.3
808.385	68.59
808.56	66.76
808.734	69.88
808.909	72.26
809.083	74.53
809.258	78.98
809.432	74.67
809.606	74.06
809.781	73.93
809.955	75.81
810.13	76.02
810.304	75.76
810.478	70.89
810.652	70.03
810.827	69.28
811.001	72.22
811.175	67.07
811.349	65.12
811.524	61.47
811.698	62.18
811.872	62.32
812.046	63.04
812.22	64.83
812.394	67.32
812.568	69.06
812.742	73.82
812.916	71.74
813.09	73.84
813.264	75.29
813.438	73.32
813.612	72.35
813.786	75.97
813.96	74.82
814.134	77.76
814.308	74.55
814.482	73.41
814.656	73.23
814.83	73.14
815.003	71.16
815.177	71.25
815.351	73.11
815.525	70.72
815.698	69.57
815.872	68.62
816.046	67.52
816.219	66.41
816.393	62.69
816.567	59.03
816.74	64.82
816.914	68.02
817.088	61.6
817.261	60.99
817.435	60.16
817.608	61.91
817.782	62.74
817.955	59.24
818.129	57.93
818.302	63.62
818.475	63.02
818.649	62.51
818.822	63.56
818.996	66.94
819.169	65.35
819.342	61.89
819.516	60.65
819.689	62.81
819.862	59.46
820.035	61.68
820.209	55.87
820.382	53.54
820.555	57.06
820.728	49.31
820.901	52.76
821.075	57.8
821.248	50.53
821.421	54.56
821.594	55.2
821.767	53.97
821.94	60.8
822.113	63.3
822.286	68.87
822.459	80.65
822.632	81.68
822.805	88.48
822.978	84.4
823.151	87.63
823.324	76.92
823.496	65.24
823.669	58.27
823.842	63.83
824.015	60.15
824.188	64.58
824.361	65.4
824.533	73.59
824.706	89.8
824.879	84.21
825.051	75.51
825.224	72.31
825.397	65.24
825.569	67.85
825.742	66.3
825.915	60.88
826.087	58.81
826.26	62.27
826.432	70.6
826.605	76.39
826.777	71.74
826.95	62.14
827.122	65.18
827.295	69.16
827.467	64.08
827.64	53.34
827.812	51.79
827.984	56.38
828.157	66.85
828.329	61.28
828.501	60.6
828.674	57.99
828.846	59.67
829.018	64.42
829.19	57.41
829.363	49.23
829.535	50.26
829.707	45.98
829.879	44.69
830.051	42.84
830.223	33.45
830.395	32.83
830.568	41.96
830.74	44.26
830.912	51.82
831.084	52.05
831.256	57.4
831.428	60.41
831.6	58.63
831.772	55.2
831.943	59.07
832.115	59.76
832.287	57.05
832.459	51.96
832.631	56.85
832.803	63.76
832.975	62.54
833.146	56.37
833.318	44.94
833.49	51.11
833.662	52.18
833.833	49.55
834.005	54.65
834.177	54.32
834.348	54.54
834.52	60.26
834.692	68.3
834.863	76.16
835.035	68.84
835.206	65.02
835.378	67.32
835.549	66.97
835.721	65.13
835.892	60.25
836.064	66.07
836.235	70.27
836.407	66.09
836.578	62.03
836.749	61.46
836.921	57.69
837.092	57.16
837.264	42.99
837.435	29.52
837.606	31.16
837.777	36.27
837.949	39.23
838.12	35.92
838.291	36.19
838.462	37.75
838.633	49.15
838.805	50.95
838.976	45.48
839.147	32.1
839.318	27.1
839.489	26.24
839.66	35.24
839.831	27.68
840.002	36.14
840.173	39.9
840.344	59.64
840.515	66.26
840.686	68.87
840.857	53.96
841.028	57.78
841.199	43.95
841.369	39.69
841.54	36.07
841.711	44.09
841.882	45.54
842.053	52.93
842.223	45.9
842.394	59.9
842.565	64.79
842.736	73.92
842.906	57.78
843.077	46.79
843.248	42.58
843.418	51.65
843.589	51.18
843.759	51.87
843.93	55.65
844.101	57.37
844.271	63.67
844.442	50.69
844.612	37.67
844.783	16.68
844.953	18.02
845.123	13.87
845.294	13.42
845.464	22.92
845.635	51.19
845.805	62.08
845.975	65.09
846.146	62.18
846.316	64.24
846.486	61.11
846.656	65.7
846.827	54.8
846.997	67.73
847.167	80.62
847.337	80.18
847.507	75.97
847.677	79.58
847.848	82.46
848.018	90.34
848.188	72.04
848.358	56.52
848.528	64.01
848.698	56.63
848.868	46.78
849.038	49.49
849.208	38.46
849.378	47.92
849.548	75.27
849.718	66.88
849.887	63.75
850.057	59.93
850.227	44.47
850.397	46.43
850.567	46.91
850.737	23.05
850.906	26.36
851.076	27.04
851.246	39.16
851.415	45.42
851.585	47.35
851.755	45.18
851.924	56.76
852.094	55.61
852.264	58.53
852.433	60.33
852.603	60.71
852.772	51.96
852.942	46.16
853.111	35.43
853.281	34.29
853.45	41.99
853.62	35.7
853.789	37.3
853.959	33.91
854.128	25.65
854.297	32.27
854.467	30.45
854.636	21.33
854.805	34.22
854.975	39.21
855.144	53.31
855.313	66.57
855.482	64.96
855.652	64.39
855.821	67.42
855.99	59.15
856.159	57.79
856.328	40.66
856.497	44.43
856.667	52.93
856.836	45.39
857.005	46.77
857.174	53.49
857.343	45.21
857.512	44.82
857.681	30.77
857.85	15.99
858.019	31.26
858.188	26.01
858.356	9.5
858.525	13.61
858.694	27.32
858.863	41.76
859.032	41.52
859.201	37.23
859.369	26.91
859.538	26.52
859.707	31.94
859.876	30.41
860.044	30.86
860.213	20.95
860.382	23.34
860.55	25.4
860.719	35.88
860.888	30.64
861.056	17.62
861.225	7.95
861.393	28.47
861.562	30.52
861.73	45.4
861.899	21.87
862.067	37.68
862.236	40.06
862.404	35.78
862.572	33.44
862.741	31.42
862.909	29.23
863.078	44.5
863.246	30.12
863.414	29.96
863.582	21.09
863.751	27.3
863.919	32.01
864.087	2.45
864.255	-8.95
864.424	2.22
864.592	3.43
864.76	33.23
864.928	35.45
865.096	31.01
865.264	56.57
865.432	60.57
865.6	43.35
865.768	42.99
865.936	30.36
866.104	19.08
866.272	36.64
866.44	16.7
866.608	0.61
866.776	28.55
866.944	4.22
867.112	3.36
867.28	-5.45
867.448	-5.43
867.615	5.44
867.783	3.81
867.951	36.37
868.119	61.7
868.286	46.04
868.454	49.64
868.622	54.21
868.789	46.02
868.957	62.28
869.125	47.32
869.292	56.87
869.46	58.35
869.627	55.24
869.795	42.61
869.963	53.44
870.13	42.22
870.298	30.53
870.465	0.29
870.632	-3.21
870.8	2.71
870.967	10.63
871.135	20.78
871.302	20.23
871.469	23.22
871.637	16.36
871.804	21.79
871.971	17.06
872.139	18.49
872.306	16.07
872.473	3.9
872.64	3.06
872.807	14.75
872.975	34.75
873.142	21.89
873.309	47.58
873.476	46.07
873.643	163.28
873.81	163.05
873.977	78.18
874.144	39.33
874.311	53.22
874.478	20.94
874.645	9.01
874.812	3.37
874.979	-36
875.146	-55.06
875.313	-103.22
875.48	-48.93
875.647	-92.99
875.813	-73.18
875.98	-87.76
876.147	20.66
876.314	40.51
876.481	52.62
876.647	62.42
876.814	63.73
876.981	56.79
877.147	54.05
877.314	48.84
877.481	46.94
877.647	53.35
877.814	38.38
877.98	65.18
878.147	55.66
878.314	66.76
878.48	59.46
878.647	55.45
878.813	55.39
878.979	60.06
879.146	30.25
879.312	71.93
879.479	64.8
879.645	54.51
879.811	49.98
879.978	47.49
880.144	39.11
880.31	27.4
880.477	-12.55
880.643	-27.7
880.809	61.61
880.975	40.47
881.142	48.27
881.308	57.75
881.474	111.25
881.64	79.9
881.806	44.64
881.972	46.86
882.138	15.43
882.304	-43.84
882.47	-24.7
882.636	-96.6
882.802	-110.01
882.968	-207.63
883.134	-448.85
883.3	-108.31
883.466	-34.32
883.632	-25.27
883.798	10.99
883.964	8.94
884.129	49.2
884.295	47.38
884.461	49
884.627	45.47
884.793	43.07
884.958	30.32
885.124	0.38
885.29	2.53
885.455	-7.46
885.621	-2.42
885.787	5.12
885.952	-7.09
886.118	6.98
886.283	29.4
886.449	22.67
886.614	50.38
886.78	61.01
886.945	48.8
887.111	43.98
887.276	34.03
887.442	29.42
887.607	12.06
887.773	8.4
887.938	-28.36
888.103	-2.78
888.269	5.13
888.434	2.02
888.599	7.43
888.764	18.42
888.93	28.86
889.095	22.06
889.26	42.15
889.425	80.78
889.59	78.51
889.756	114.48
889.921	93.1
890.086	84.54
890.251	83.83
890.416	51.32
890.581	4.9
890.746	-27.06
890.911	-105.59
891.076	-138.45
891.241	-182.29
891.406	-85.11
891.571	-36.84
891.736	-19.14
891.901	15.99
892.065	18.89
892.23	6.84
892.395	11.93
892.56	18.76
892.725	3.6
892.889	-12.01
893.054	-51.37
893.219	-39.95
893.384	-0.45
893.548	-17.5
893.713	86.88
893.878	42.39
