Data from Ofra_2a_PS_8HS23_Reflection_3.txt Node
Date: Tue Jul 20 09:57:05 EDT 2021
User: Adam
Spectrometer: FLMT01687
Trigger mode: 0
Integration Time (sec): 9.450000E-1
Scans to average: 3
Electric dark correction enabled: true
Nonlinearity correction enabled: false
Boxcar width: 3
XAxis mode: Wavelengths
Number of Pixels in Spectrum: 3648
>>>>>Begin Spectral Data<<<<<
179.494	1269.23
179.716	813.64
179.937	918.13
180.158	3420.7
180.38	-1903.78
180.601	-449.16
180.823	-239.79
181.044	-23.61
181.265	60.65
181.486	87.79
181.708	342.39
181.929	106.4
182.15	506.25
182.372	-18.68
182.593	41.87
182.814	221.41
183.035	209.81
183.257	152.94
183.478	94.04
183.699	93.47
183.92	97.2
184.141	93.49
184.363	82.06
184.584	63.54
184.805	54.5
185.026	63.12
185.247	45.76
185.468	21.31
185.689	11.92
185.91	2.8
186.132	19.99
186.353	8.55
186.574	14.58
186.795	1.58
187.016	6.37
187.237	27.49
187.458	28.02
187.679	16.96
187.9	14.34
188.121	17.56
188.342	38.94
188.563	36.84
188.784	24.72
189.005	33.88
189.226	35.25
189.447	35.24
189.667	29.77
189.888	45.03
190.109	55.2
190.33	38.26
190.551	18.42
190.772	13.41
190.993	17.98
191.214	26.16
191.434	1.33
191.655	10.21
191.876	27.29
192.097	27.49
192.318	32.51
192.538	31.58
192.759	27.06
192.98	31.03
193.201	17.68
193.421	13.95
193.642	23.35
193.863	14.37
194.083	5.65
194.304	-12.92
194.525	6.49
194.745	-1.31
194.966	3.37
195.187	7.12
195.407	12.37
195.628	22.46
195.848	31.03
196.069	18.3
196.29	12.46
196.51	-3.53
196.731	17.66
196.951	11.67
197.172	-2.49
197.392	7.9
197.613	10.37
197.833	16.12
198.054	27.2
198.274	-9.95
198.495	-15.52
198.715	-30.34
198.936	-24.3
199.156	-4.93
199.377	12.15
199.597	-10.61
199.817	28.87
200.038	35.54
200.258	49.61
200.479	46.55
200.699	46.61
200.919	26.44
201.14	38.58
201.36	22.21
201.58	13.21
201.801	13.11
202.021	6.91
202.241	6.23
202.461	8.98
202.682	27.29
202.902	22.82
203.122	27.03
203.342	35.9
203.563	36.9
203.783	36.29
204.003	46.39
204.223	36.01
204.443	32.23
204.663	31.31
204.884	25.37
205.104	24.59
205.324	28.24
205.544	23.54
205.764	31.21
205.984	48.92
206.204	44.87
206.424	40.23
206.644	41.51
206.864	43.23
207.084	58.84
207.304	49.27
207.525	46.04
207.745	45.61
207.964	54.43
208.184	42.57
208.404	33.71
208.624	1.16
208.844	-7.46
209.064	15
209.284	25.2
209.504	18.99
209.724	-0.83
209.944	-3.15
210.164	8.58
210.384	15.4
210.604	-18.62
210.823	-23.23
211.043	-33.41
211.263	-9.01
211.483	-7.57
211.703	-1.09
211.922	11.12
212.142	19.22
212.362	26.38
212.582	25.72
212.801	23.4
213.021	28
213.241	23.76
213.461	2.47
213.68	2.58
213.9	7.85
214.12	6.82
214.339	14.36
214.559	17.66
214.779	14.08
214.998	20.89
215.218	21.76
215.438	19.45
215.657	30.41
215.877	23
216.096	18.08
216.316	16.35
216.535	13.09
216.755	-8.09
216.974	-3.99
217.194	-7.7
217.413	7.32
217.633	8.47
217.852	18.5
218.072	12.47
218.291	36.33
218.511	24.44
218.73	18.68
218.95	19.97
219.169	28.54
219.389	23.78
219.608	39.18
219.827	36.04
220.047	40.54
220.266	45.85
220.485	44.73
220.705	31.65
220.924	32.71
221.143	20.89
221.363	31.68
221.582	26.82
221.801	27.63
222.021	19.2
222.24	28.35
222.459	19.69
222.678	22.73
222.897	-1.35
223.117	18.53
223.336	18.64
223.555	16.06
223.774	17.32
223.993	35.82
224.213	32.04
224.432	51.62
224.651	25.26
224.87	36.23
225.089	43.88
225.308	46.74
225.527	45.87
225.746	41.26
225.965	20.92
226.184	32.85
226.404	13.19
226.623	-0.88
226.842	-8.2
227.061	-12.42
227.28	14.39
227.499	32.67
227.718	37.49
227.936	29.8
228.155	40.8
228.374	47.51
228.593	40.14
228.812	26.65
229.031	18.41
229.25	19.89
229.469	28.75
229.688	29.53
229.907	22.48
230.125	30.79
230.344	34.29
230.563	43.36
230.782	36.16
231.001	37.39
231.22	28.63
231.438	29.18
231.657	39.5
231.876	38.92
232.095	32.48
232.313	38.71
232.532	38.62
232.751	41.15
232.969	45.61
233.188	30.18
233.407	20.43
233.625	12.78
233.844	21.89
234.063	20.25
234.281	15.87
234.5	20.05
234.719	13.77
234.937	21.06
235.156	20.3
235.374	10.23
235.593	11.14
235.811	9.07
236.03	-25.12
236.249	-5.16
236.467	0.36
236.686	8.7
236.904	0.57
237.123	8.94
237.341	11.73
237.559	22.71
237.778	32.16
237.996	36.29
238.215	27.38
238.433	36.44
238.652	29.49
238.87	29.77
239.088	25.39
239.307	17.77
239.525	5.15
239.743	-0.57
239.962	-4.82
240.18	2.94
240.398	10.84
240.617	24.81
240.835	24.79
241.053	38.18
241.271	48.66
241.49	44.25
241.708	37.83
241.926	30.45
242.144	26.44
242.363	18.68
242.581	7.98
242.799	2.18
243.017	2.22
243.235	-0.35
243.453	5.88
243.672	0.83
243.89	20.16
244.108	37.4
244.326	34.89
244.544	33.66
244.762	39.65
244.98	28.52
245.198	23.76
245.416	11.79
245.634	2.62
245.852	14.68
246.07	15.9
246.288	-2.44
246.506	7.93
246.724	21.15
246.942	32.09
247.16	36.47
247.378	16.42
247.596	27.31
247.814	26.37
248.032	36.48
248.25	32.24
248.468	33.37
248.685	34.25
248.903	39.91
249.121	39.83
249.339	37.96
249.557	36.56
249.775	23.71
249.992	13.5
250.21	2.2
250.428	5.83
250.646	-2.92
250.863	0.76
251.081	-7.41
251.299	17.64
251.517	31.51
251.734	44.91
251.952	50.27
252.17	45.97
252.387	41.89
252.605	33.74
252.823	1.65
253.04	-7.49
253.258	-8.03
253.475	-10.6
253.693	4.49
253.911	6.74
254.128	4.44
254.346	13.13
254.563	6.59
254.781	1.11
254.998	5.02
255.216	2.34
255.433	-0.76
255.651	6.37
255.868	7.42
256.086	15.87
256.303	13.68
256.521	5
256.738	4.54
256.956	7.6
257.173	12.5
257.39	16.66
257.608	22.91
257.825	29.22
258.043	35.45
258.26	37.99
258.477	43.17
258.695	42.1
258.912	47.15
259.129	37.06
259.346	41.4
259.564	37.16
259.781	45.59
259.998	36.63
260.216	45.33
260.433	41.89
260.65	48.16
260.867	31.54
261.084	40.16
261.302	31.3
261.519	28.9
261.736	10.91
261.953	17.43
262.17	6.05
262.387	19.52
262.604	6.29
262.822	19.22
263.039	18.49
263.256	23.61
263.473	14.8
263.69	20.69
263.907	21.02
264.124	14.58
264.341	3.07
264.558	9.13
264.775	11.49
264.992	10.25
265.209	19.3
265.426	12.7
265.643	20.19
265.86	20.06
266.077	24.34
266.294	16.57
266.51	25.94
266.727	21.29
266.944	18
267.161	12.5
267.378	24.44
267.595	9.61
267.812	13.93
268.028	3.88
268.245	1.33
268.462	16.41
268.679	27.54
268.896	30.27
269.112	41.8
269.329	47.87
269.546	48.3
269.763	53.26
269.979	43.35
270.196	38.43
270.413	31.65
270.629	24.09
270.846	18.68
271.063	23.53
271.279	20.37
271.496	13.66
271.712	9.18
271.929	13.89
272.146	15.16
272.362	10.62
272.579	2.63
272.795	-3.11
273.012	-4.02
273.228	-8.81
273.445	-10.53
273.661	-13.76
273.878	-4.17
274.094	0.25
274.311	0.38
274.527	7.22
274.744	0.8
274.96	-1.92
275.177	3.32
275.393	-0.42
275.609	2.66
275.826	4.53
276.042	7.05
276.259	20.83
276.475	18.21
276.691	20.22
276.908	24.93
277.124	24.53
277.34	21.27
277.557	23.94
277.773	16.07
277.989	17.63
278.205	7.88
278.422	3.51
278.638	7.8
278.854	11.84
279.07	0.43
279.286	2.54
279.503	6.79
279.719	14.32
279.935	-1.27
280.151	0.82
280.367	4.25
280.583	10.51
280.799	17.68
281.016	11.67
281.232	3.7
281.448	8.44
281.664	-3.57
281.88	-4.54
282.096	-7.53
282.312	-19.92
282.528	-20.14
282.744	-9.11
282.96	1.48
283.176	4.34
283.392	14.15
283.608	26.51
283.824	32.41
284.04	42.84
284.256	37.5
284.471	31.19
284.687	28.21
284.903	19.35
285.119	-3.98
285.335	-1.8
285.551	-13.62
285.767	0.86
285.982	5.22
286.198	14.09
286.414	26.7
286.63	45.69
286.846	35.85
287.061	41.61
287.277	38.67
287.493	44.53
287.709	38.03
287.924	39.47
288.14	39.47
288.356	56.94
288.571	44.89
288.787	43.72
289.003	47.09
289.218	44.73
289.434	36.36
289.65	29.53
289.865	19.66
290.081	26.27
290.296	19.16
290.512	17.57
290.727	26.79
290.943	26.6
291.159	24.8
291.374	31.54
291.59	30.52
291.805	34.64
292.021	21.14
292.236	14.12
292.451	15.15
292.667	13.84
292.882	6.73
293.098	0.91
293.313	-2.18
293.529	12.45
293.744	6.73
293.959	7.94
294.175	5.59
294.39	21.28
294.605	18.17
294.821	14.88
295.036	16.03
295.251	21.11
295.467	15.78
295.682	23.13
295.897	15.28
296.112	20.43
296.328	23.94
296.543	16.57
296.758	20.39
296.973	21.6
297.188	20.36
297.404	21.49
297.619	26.41
297.834	30.37
298.049	30.1
298.264	22.43
298.479	17.72
298.694	22.8
298.909	14.32
299.125	14.1
299.34	9.47
299.555	13.08
299.77	10.4
299.985	8.42
300.2	0.22
300.415	12.35
300.63	2.3
300.845	12.92
301.06	11.82
301.275	20.98
301.49	31.42
301.704	29.81
301.919	20.89
302.134	21.46
302.349	13.23
302.564	3.14
302.779	-6.04
302.994	-9.35
303.209	-1.46
303.423	14.67
303.638	30.71
303.853	25.81
304.068	36.16
304.283	36.26
304.497	37.07
304.712	36.3
304.927	23.36
305.142	21.99
305.356	26.79
305.571	29.25
305.786	27.66
306	24.97
306.215	21.88
306.43	29.51
306.644	32.95
306.859	39.47
307.074	33.82
307.288	37.39
307.503	33.36
307.717	32.91
307.932	37.65
308.147	28.42
308.361	18.52
308.576	18.56
308.79	15.81
309.005	8.47
309.219	15.5
309.434	11.05
309.648	10.85
309.863	13.85
310.077	17.2
310.292	25.44
310.506	48.42
310.72	46.1
310.935	44.37
311.149	38.28
311.364	34.83
311.578	32.69
311.792	24.89
312.007	9.07
312.221	8.87
312.435	11.34
312.649	-8.91
312.864	-8.76
313.078	-2.92
313.292	5.35
313.507	21.78
313.721	20.15
313.935	30.28
314.149	42.32
314.363	45.68
314.578	66.05
314.792	60.13
315.006	53.04
315.22	61.21
315.434	50.7
315.648	52.05
315.862	48.37
316.077	29.57
316.291	37.27
316.505	31.67
316.719	4.51
316.933	13.98
317.147	16.05
317.361	21
317.575	33.95
317.789	36.11
318.003	36.63
318.217	51.05
318.431	45.38
318.645	45.7
318.859	26.9
319.073	17.25
319.287	12.25
319.5	11.34
319.714	7.13
319.928	11.94
320.142	17.24
320.356	36.87
320.57	38.41
320.784	39.44
320.997	46.22
321.211	45.82
321.425	27.79
321.639	22.77
321.853	10.78
322.066	6.34
322.28	12.43
322.494	7.18
322.707	6.71
322.921	19.07
323.135	18.68
323.349	25.19
323.562	28.94
323.776	17.12
323.989	15.95
324.203	18.03
324.417	9.66
324.63	2.92
324.844	-8.88
325.057	0.02
325.271	-4.02
325.485	8.74
325.698	0.37
325.912	22
326.125	32.49
326.339	37.15
326.552	30.75
326.766	41.11
326.979	34.91
327.193	45.17
327.406	31.78
327.619	15.63
327.833	17.87
328.046	8.02
328.26	4.85
328.473	0.96
328.686	3.41
328.9	-6.83
329.113	0.83
329.326	13.68
329.54	14.29
329.753	18.36
329.966	25.93
330.179	28.03
330.393	34.99
330.606	36.72
330.819	33.75
331.032	38.77
331.246	24.15
331.459	20.31
331.672	15.38
331.885	14.73
332.098	25.96
332.311	1.97
332.525	8.8
332.738	24.73
332.951	25.44
333.164	21.89
333.377	13.02
333.59	4.65
333.803	21.1
334.016	16.37
334.229	9.91
334.442	14.46
334.655	24.62
334.868	34.86
335.081	38.69
335.294	34.84
335.507	34.61
335.72	21.52
335.933	21.44
336.146	16.13
336.359	15.5
336.572	5.94
336.785	9.74
336.997	4.17
337.21	13
337.423	10.77
337.636	10.35
337.849	5.87
338.062	14.79
338.274	12.62
338.487	15.56
338.7	17.33
338.913	10.09
339.125	6.54
339.338	17.41
339.551	16.85
339.763	17.52
339.976	20.49
340.189	13.54
340.402	15.78
340.614	21.09
340.827	7.94
341.039	7.33
341.252	14.14
341.465	0.71
341.677	-2.16
341.89	1.42
342.102	4.56
342.315	13.59
342.527	4.17
342.74	-9.37
342.952	2.67
343.165	12.9
343.377	11.82
343.59	14.53
343.802	17.37
344.015	23.2
344.227	23.25
344.44	19.27
344.652	28.86
344.864	31.46
345.077	23.84
345.289	18.68
345.502	25.63
345.714	22.22
345.926	26.14
346.139	13.74
346.351	2.4
346.563	8.8
346.775	3.7
346.988	2.45
347.2	15.95
347.412	18.19
347.624	20.96
347.837	24.57
348.049	24.56
348.261	28.72
348.473	20.58
348.685	20.45
348.897	20.9
349.11	19.55
349.322	17.5
349.534	13.74
349.746	16.12
349.958	25.01
350.17	16.99
350.382	9.46
350.594	11.94
350.806	24.3
351.018	36.28
351.23	37.79
351.442	32.36
351.654	37.31
351.866	48.47
352.078	45.22
352.29	40.94
352.502	33.78
352.714	28.83
352.926	28.19
353.138	23.83
353.35	9.71
353.561	7.83
353.773	9.12
353.985	10.79
354.197	6.32
354.409	15.17
354.621	18.38
354.832	9.69
355.044	18.47
355.256	10.78
355.468	6.49
355.679	10.3
355.891	5.22
356.103	0.15
356.314	12.45
356.526	5.36
356.738	10.8
356.949	9.48
357.161	15.6
357.373	16.47
357.584	30.81
357.796	26.52
358.008	22.54
358.219	30.04
358.431	36.67
358.642	24.55
358.854	25.63
359.065	10.24
359.277	12.67
359.488	11.87
359.7	10.88
359.911	11.12
360.123	23.93
360.334	22.95
360.546	21.8
360.757	23.48
360.969	36.47
361.18	25.37
361.391	21.53
361.603	24.94
361.814	23.65
362.025	31.39
362.237	32
362.448	24.01
362.659	24.36
362.871	27.26
363.082	26.36
363.293	31.76
363.504	23.89
363.716	17.96
363.927	19.78
364.138	25.87
364.349	26.7
364.56	16.73
364.772	11.44
364.983	13.52
365.194	14.95
365.405	6.68
365.616	-1.54
365.827	-12.94
366.038	3.74
366.25	2.21
366.461	5.77
366.672	5.68
366.883	18.23
367.094	20.64
367.305	22.75
367.516	11.24
367.727	12.41
367.938	12.42
368.149	9.96
368.36	9.64
368.571	13.76
368.781	10.46
368.992	12.84
369.203	10.72
369.414	7.38
369.625	16.96
369.836	10.45
370.047	6.41
370.258	5.02
370.468	-4.79
370.679	-3.27
370.89	13.8
371.101	-2.29
371.312	-4.2
371.522	-0.41
371.733	-3.78
371.944	5.34
372.155	-5.4
372.365	-21.57
372.576	-11.02
372.787	-5.12
372.997	-8.46
373.208	2.14
373.419	2.66
373.629	10.44
373.84	7.91
374.05	10.15
374.261	1.4
374.472	-0.96
374.682	-3.2
374.893	-8.01
375.103	-4.99
375.314	-3.08
375.524	4.27
375.735	10.7
375.945	10.55
376.156	17.66
376.366	21.97
376.577	23.94
376.787	31.57
376.997	24.57
377.208	19.22
377.418	21.11
377.629	14.34
377.839	19.51
378.049	25.98
378.26	23.14
378.47	26.16
378.68	25.75
378.89	23.45
379.101	17.38
379.311	10.11
379.521	11.18
379.732	5.11
379.942	9.14
380.152	17.45
380.362	18.76
380.572	28.51
380.783	27.89
380.993	24.42
381.203	26.3
381.413	19.58
381.623	15.86
381.833	15
382.043	8.77
382.253	11.6
382.463	12.16
382.674	11.48
382.884	13.64
383.094	14.33
383.304	12.63
383.514	20.42
383.724	14.66
383.934	10.34
384.144	14.55
384.353	15.9
384.563	14.13
384.773	15.85
384.983	11.09
385.193	15.91
385.403	20.14
385.613	13.36
385.823	8.19
386.033	8.55
386.242	7.73
386.452	7.93
386.662	7.02
386.872	4.96
387.082	6.15
387.291	7.5
387.501	8.56
387.711	10.32
387.921	7.07
388.13	7.19
388.34	7.12
388.55	10.41
388.759	9.48
388.969	6.5
389.179	8.57
389.388	8.72
389.598	5.35
389.807	2.74
390.017	1.41
390.227	1.37
390.436	4.15
390.646	2.53
390.855	4.16
391.065	6.73
391.274	7.14
391.484	6.17
391.693	8.4
391.903	5.35
392.112	4.03
392.322	4.79
392.531	4.47
392.74	2.87
392.95	4.01
393.159	3.32
393.369	4.33
393.578	4.92
393.787	4.45
393.997	4.9
394.206	6.19
394.415	5.43
394.625	4.41
394.834	4.15
395.043	4.08
395.252	3.86
395.462	3.95
395.671	4.41
395.88	4.29
396.089	4.8
396.298	4.89
396.508	4.74
396.717	4.44
396.926	3.62
397.135	3.09
397.344	3.23
397.553	3.32
397.762	3.25
397.971	2.91
398.181	2.65
398.39	2.98
398.599	3.32
398.808	3.29
399.017	3.31
399.226	3.53
399.435	3.61
399.644	3.73
399.853	3.79
400.062	3.63
400.27	3.64
400.479	3.56
400.688	3.62
400.897	3.89
401.106	3.98
401.315	3.73
401.524	3.91
401.733	4.15
401.941	4.17
402.15	3.96
402.359	3.93
402.568	3.96
402.777	4.09
402.985	3.99
403.194	3.71
403.403	3.4
403.612	3.43
403.82	3.35
404.029	3.29
404.238	3.29
404.446	3.19
404.655	3.11
404.864	3.2
405.072	3.28
405.281	3.13
405.489	3.11
405.698	3.04
405.906	3.05
406.115	3.15
406.324	3.14
406.532	3.08
406.741	3.13
406.949	3.08
407.158	3.18
407.366	3.29
407.574	3.3
407.783	3.32
407.991	3.21
408.2	3.16
408.408	3.18
408.617	3.07
408.825	2.93
409.033	2.84
409.242	2.83
409.45	2.82
409.658	2.87
409.867	2.83
410.075	2.74
410.283	2.68
410.491	2.68
410.7	2.7
410.908	2.72
411.116	2.65
411.324	2.68
411.533	2.65
411.741	2.68
411.949	2.72
412.157	2.66
412.365	2.67
412.573	2.72
412.781	2.71
412.99	2.83
413.198	2.86
413.406	2.78
413.614	2.83
413.822	2.79
414.03	2.66
414.238	2.72
414.446	2.57
414.654	2.52
414.862	2.53
415.07	2.64
415.278	2.59
415.486	2.79
415.694	2.65
415.902	2.74
416.109	2.78
416.317	2.72
416.525	2.58
416.733	2.66
416.941	2.57
417.149	2.7
417.357	2.68
417.564	2.73
417.772	2.82
417.98	2.78
418.188	2.66
418.395	2.65
418.603	2.44
418.811	2.39
419.019	2.3
419.226	2.4
419.434	2.39
419.642	2.41
419.849	2.36
420.057	2.48
420.265	2.45
420.472	2.44
420.68	2.27
420.887	2.31
421.095	2.43
421.302	2.54
421.51	2.65
421.717	2.69
421.925	2.67
422.132	2.63
422.34	2.56
422.547	2.44
422.755	2.31
422.962	2.09
423.17	2.06
423.377	2.18
423.585	2.21
423.792	2.24
423.999	2.3
424.207	2.23
424.414	2.28
424.621	2.34
424.829	2.18
425.036	2.17
425.243	2.25
425.451	2.28
425.658	2.38
425.865	2.35
426.072	2.43
426.28	2.5
426.487	2.49
426.694	2.39
426.901	2.29
427.108	2.29
427.315	2.37
427.523	2.36
427.73	2.36
427.937	2.39
428.144	2.48
428.351	2.57
428.558	2.58
428.765	2.53
428.972	2.44
429.179	2.38
429.386	2.44
429.593	2.35
429.8	2.4
430.007	2.47
430.214	2.52
430.421	2.5
430.628	2.44
430.835	2.39
431.042	2.42
431.249	2.35
431.456	2.4
431.662	2.4
431.869	2.51
432.076	2.61
432.283	2.63
432.49	2.61
432.697	2.59
432.903	2.57
433.11	2.62
433.317	2.62
433.524	2.57
433.73	2.56
433.937	2.57
434.144	2.69
434.35	2.73
434.557	2.69
434.764	2.64
434.97	2.77
435.177	2.74
435.384	2.85
435.59	2.76
435.797	2.79
436.003	2.75
436.21	2.78
436.416	2.75
436.623	2.81
436.829	2.79
437.036	2.88
437.242	2.82
437.449	2.94
437.655	2.93
437.862	2.93
438.068	3
438.275	3.03
438.481	3.05
438.687	3.15
438.894	3.1
439.1	3.19
439.307	3.2
439.513	3.14
439.719	3.15
439.926	3.17
440.132	3.14
440.338	3.19
440.544	3.13
440.751	3.17
440.957	3.19
441.163	3.24
441.369	3.2
441.575	3.21
441.782	3.18
441.988	3.24
442.194	3.28
442.4	3.35
442.606	3.31
442.812	3.35
443.018	3.38
443.224	3.41
443.431	3.41
443.637	3.39
443.843	3.37
444.049	3.37
444.255	3.34
444.461	3.29
444.667	3.3
444.873	3.27
445.079	3.32
445.284	3.28
445.49	3.29
445.696	3.33
445.902	3.4
446.108	3.42
446.314	3.48
446.52	3.48
446.726	3.55
446.931	3.57
447.137	3.6
447.343	3.59
447.549	3.57
447.755	3.53
447.96	3.48
448.166	3.51
448.372	3.54
448.578	3.53
448.783	3.56
448.989	3.6
449.195	3.65
449.4	3.7
449.606	3.68
449.812	3.71
450.017	3.74
450.223	3.72
450.428	3.79
450.634	3.82
450.84	3.83
451.045	3.85
451.251	3.86
451.456	3.87
451.662	3.89
451.867	3.85
452.073	3.83
452.278	3.84
452.483	3.83
452.689	3.85
452.894	3.87
453.1	3.83
453.305	3.84
453.51	3.87
453.716	3.88
453.921	3.91
454.127	3.86
454.332	3.86
454.537	3.99
454.742	3.99
454.948	3.95
455.153	4
455.358	4.05
455.563	4.09
455.769	4.09
455.974	4.01
456.179	3.95
456.384	3.96
456.589	3.98
456.795	3.91
457	3.92
457.205	3.89
457.41	3.92
457.615	4.03
457.82	4.1
458.025	4.11
458.23	4.14
458.435	4.1
458.64	4.19
458.845	4.16
459.05	4.13
459.255	4.1
459.46	4.08
459.665	4.15
459.87	4.18
460.075	4.12
460.28	4.18
460.485	4.23
460.69	4.19
460.895	4.23
461.099	4.19
461.304	4.24
461.509	4.19
461.714	4.18
461.919	4.15
462.123	4.21
462.328	4.16
462.533	4.2
462.738	4.21
462.942	4.28
463.147	4.32
463.352	4.38
463.556	4.42
463.761	4.49
463.966	4.54
464.17	4.58
464.375	4.61
464.58	4.63
464.784	4.63
464.989	4.63
465.193	4.61
465.398	4.65
465.602	4.63
465.807	4.67
466.011	4.66
466.216	4.67
466.42	4.72
466.625	4.78
466.829	4.74
467.034	4.8
467.238	4.88
467.443	4.93
467.647	4.96
467.851	4.96
468.056	4.94
468.26	4.95
468.464	4.94
468.669	4.87
468.873	4.85
469.077	4.87
469.282	4.91
469.486	4.99
469.69	5.04
469.894	5.08
470.099	5.09
470.303	5.13
470.507	5.18
470.711	5.16
470.915	5.18
471.119	5.2
471.324	5.16
471.528	5.25
471.732	5.23
471.936	5.27
472.14	5.31
472.344	5.28
472.548	5.32
472.752	5.39
472.956	5.41
473.16	5.48
473.364	5.42
473.568	5.5
473.772	5.59
473.976	5.61
474.18	5.6
474.384	5.61
474.588	5.63
474.792	5.69
474.995	5.65
475.199	5.66
475.403	5.7
475.607	5.73
475.811	5.75
476.015	5.78
476.218	5.82
476.422	5.89
476.626	5.91
476.83	5.94
477.033	5.99
477.237	6.04
477.441	6.04
477.644	6.06
477.848	6.06
478.052	6.04
478.255	6
478.459	6.04
478.663	6.05
478.866	6.08
479.07	6.12
479.273	6.16
479.477	6.21
479.681	6.26
479.884	6.22
480.088	6.24
480.291	6.27
480.495	6.26
480.698	6.25
480.901	6.22
481.105	6.27
481.308	6.31
481.512	6.34
481.715	6.35
481.919	6.35
482.122	6.38
482.325	6.43
482.529	6.47
482.732	6.48
482.935	6.45
483.138	6.48
483.342	6.54
483.545	6.5
483.748	6.54
483.952	6.5
484.155	6.57
484.358	6.57
484.561	6.57
484.764	6.59
484.967	6.62
485.171	6.59
485.374	6.63
485.577	6.64
485.78	6.67
485.983	6.69
486.186	6.66
486.389	6.67
486.592	6.73
486.795	6.71
486.998	6.68
487.201	6.73
487.404	6.76
487.607	6.75
487.81	6.78
488.013	6.76
488.216	6.78
488.419	6.79
488.622	6.75
488.825	6.75
489.028	6.76
489.231	6.74
489.433	6.73
489.636	6.65
489.839	6.67
490.042	6.71
490.245	6.7
490.447	6.71
490.65	6.75
490.853	6.74
491.056	6.82
491.258	6.85
491.461	6.83
491.664	6.8
491.866	6.84
492.069	6.81
492.272	6.84
492.474	6.83
492.677	6.83
492.879	6.86
493.082	6.92
493.285	6.93
493.487	6.95
493.69	6.93
493.892	6.96
494.095	6.95
494.297	6.98
494.5	7.01
494.702	7.01
494.905	7.02
495.107	7.06
495.309	7.02
495.512	7.05
495.714	7.03
495.917	7.01
496.119	7.03
496.321	7.08
496.524	7.09
496.726	7.12
496.928	7.11
497.13	7.17
497.333	7.2
497.535	7.18
497.737	7.14
497.939	7.16
498.142	7.14
498.344	7.14
498.546	7.14
498.748	7.12
498.95	7.12
499.152	7.14
499.355	7.16
499.557	7.23
499.759	7.31
499.961	7.31
500.163	7.33
500.365	7.35
500.567	7.39
500.769	7.41
500.971	7.4
501.173	7.37
501.375	7.39
501.577	7.46
501.779	7.48
501.981	7.5
502.183	7.53
502.385	7.55
502.587	7.57
502.788	7.59
502.99	7.56
503.192	7.6
503.394	7.63
503.596	7.66
503.798	7.74
503.999	7.75
504.201	7.75
504.403	7.79
504.605	7.83
504.806	7.83
505.008	7.82
505.21	7.8
505.411	7.87
505.613	7.94
505.815	7.95
506.016	7.98
506.218	8
506.42	8.08
506.621	8.13
506.823	8.15
507.024	8.11
507.226	8.14
507.427	8.1
507.629	8.12
507.83	8.08
508.032	8.08
508.233	8.08
508.435	8.13
508.636	8.12
508.838	8.18
509.039	8.21
509.24	8.21
509.442	8.21
509.643	8.23
509.845	8.26
510.046	8.31
510.247	8.37
510.448	8.43
510.65	8.51
510.851	8.57
511.052	8.61
511.254	8.6
511.455	8.6
511.656	8.62
511.857	8.62
512.058	8.64
512.26	8.64
512.461	8.68
512.662	8.69
512.863	8.71
513.064	8.66
513.265	8.71
513.466	8.74
513.667	8.77
513.868	8.75
514.069	8.8
514.27	8.84
514.471	8.89
514.672	8.89
514.873	8.88
515.074	8.88
515.275	8.9
515.476	8.92
515.677	8.95
515.878	8.99
516.079	9.03
516.28	9
516.481	9.01
516.682	9.03
516.882	9.02
517.083	9.03
517.284	9.04
517.485	9.03
517.686	9.09
517.886	9.11
518.087	9.13
518.288	9.15
518.488	9.16
518.689	9.14
518.89	9.18
519.091	9.2
519.291	9.21
519.492	9.23
519.692	9.28
519.893	9.29
520.094	9.34
520.294	9.3
520.495	9.28
520.695	9.3
520.896	9.31
521.096	9.27
521.297	9.29
521.497	9.3
521.698	9.32
521.898	9.39
522.099	9.39
522.299	9.43
522.499	9.46
522.7	9.49
522.9	9.48
523.101	9.49
523.301	9.51
523.501	9.52
523.702	9.5
523.902	9.51
524.102	9.52
524.302	9.54
524.503	9.55
524.703	9.55
524.903	9.6
525.103	9.64
525.304	9.68
525.504	9.69
525.704	9.68
525.904	9.72
526.104	9.7
526.304	9.67
526.504	9.65
526.705	9.65
526.905	9.68
527.105	9.67
527.305	9.65
527.505	9.67
527.705	9.69
527.905	9.71
528.105	9.73
528.305	9.75
528.505	9.79
528.705	9.84
528.905	9.84
529.105	9.88
529.304	9.91
529.504	9.9
529.704	9.9
529.904	9.93
530.104	9.94
530.304	9.98
530.503	9.97
530.703	10.01
530.903	10.04
531.103	10.04
531.303	10.09
531.502	10.09
531.702	10.07
531.902	10.09
532.101	10.06
532.301	10.08
532.501	10.11
532.7	10.07
532.9	10.07
533.1	10.09
533.299	10.12
533.499	10.14
533.698	10.18
533.898	10.21
534.097	10.27
534.297	10.31
534.496	10.32
534.696	10.36
534.895	10.41
535.095	10.42
535.294	10.39
535.494	10.43
535.693	10.47
535.892	10.49
536.092	10.49
536.291	10.51
536.491	10.51
536.69	10.54
536.889	10.52
537.088	10.54
537.288	10.61
537.487	10.64
537.686	10.65
537.886	10.67
538.085	10.71
538.284	10.77
538.483	10.81
538.682	10.81
538.882	10.85
539.081	10.89
539.28	10.91
539.479	10.95
539.678	10.99
539.877	11
540.076	11.04
540.275	11.06
540.474	11.06
540.673	11.14
540.872	11.16
541.071	11.15
541.27	11.17
541.469	11.21
541.668	11.27
541.867	11.31
542.066	11.32
542.265	11.38
542.464	11.45
542.663	11.53
542.862	11.55
543.06	11.58
543.259	11.64
543.458	11.67
543.657	11.73
543.856	11.75
544.054	11.78
544.253	11.8
544.452	11.81
544.651	11.8
544.849	11.86
545.048	11.88
545.247	11.88
545.445	11.91
545.644	11.98
545.843	12.07
546.041	12.16
546.24	12.2
546.438	12.28
546.637	12.34
546.836	12.38
547.034	12.41
547.233	12.47
547.431	12.49
547.63	12.57
547.828	12.61
548.027	12.66
548.225	12.75
548.423	12.84
548.622	12.84
548.82	12.95
549.019	12.97
549.217	13.05
549.415	13.15
549.614	13.16
549.812	13.22
550.01	13.34
550.209	13.41
550.407	13.49
550.605	13.53
550.803	13.6
551.002	13.72
551.2	13.83
551.398	13.89
551.596	13.92
551.794	14.02
551.993	14.09
552.191	14.21
552.389	14.26
552.587	14.3
552.785	14.37
552.983	14.46
553.181	14.49
553.379	14.62
553.577	14.69
553.775	14.78
553.973	14.89
554.171	14.99
554.369	15.07
554.567	15.14
554.765	15.17
554.963	15.19
555.161	15.29
555.359	15.37
555.557	15.49
555.755	15.62
555.952	15.77
556.15	15.86
556.348	16.03
556.546	16.13
556.744	16.23
556.941	16.31
557.139	16.39
557.337	16.44
557.535	16.58
557.732	16.68
557.93	16.78
558.128	16.86
558.325	16.95
558.523	17.06
558.721	17.22
558.918	17.31
559.116	17.38
559.313	17.49
559.511	17.56
559.708	17.65
559.906	17.73
560.104	17.8
560.301	17.95
560.498	18.03
560.696	18.14
560.893	18.26
561.091	18.41
561.288	18.56
561.486	18.68
561.683	18.77
561.88	18.88
562.078	19
562.275	19.18
562.473	19.24
562.67	19.35
562.867	19.47
563.064	19.59
563.262	19.77
563.459	19.9
563.656	20.03
563.853	20.2
564.051	20.32
564.248	20.4
564.445	20.51
564.642	20.6
564.839	20.71
565.036	20.81
565.234	20.89
565.431	21.02
565.628	21.14
565.825	21.28
566.022	21.34
566.219	21.4
566.416	21.49
566.613	21.64
566.81	21.74
567.007	21.82
567.204	21.9
567.401	22.06
567.598	22.14
567.795	22.18
567.991	22.22
568.188	22.29
568.385	22.4
568.582	22.51
568.779	22.6
568.976	22.74
569.172	22.87
569.369	22.97
569.566	23
569.763	23.08
569.96	23.14
570.156	23.15
570.353	23.21
570.55	23.27
570.746	23.29
570.943	23.45
571.14	23.5
571.336	23.52
571.533	23.61
571.729	23.64
571.926	23.66
572.123	23.72
572.319	23.77
572.516	23.83
572.712	23.94
572.909	24.04
573.105	24.08
573.302	24.16
573.498	24.24
573.695	24.27
573.891	24.28
574.087	24.28
574.284	24.27
574.48	24.31
574.677	24.35
574.873	24.39
575.069	24.45
575.266	24.48
575.462	24.54
575.658	24.63
575.854	24.65
576.051	24.65
576.247	24.65
576.443	24.7
576.639	24.74
576.835	24.76
577.032	24.71
577.228	24.77
577.424	24.8
577.62	24.83
577.816	24.78
578.012	24.78
578.208	24.82
578.404	24.87
578.6	24.85
578.796	24.86
578.993	24.85
579.189	24.89
579.384	24.87
579.58	24.84
579.776	24.81
579.972	24.84
580.168	24.81
580.364	24.82
580.56	24.84
580.756	24.81
580.952	24.79
581.148	24.81
581.343	24.76
581.539	24.8
581.735	24.82
581.931	24.78
582.127	24.79
582.322	24.75
582.518	24.76
582.714	24.78
582.909	24.74
583.105	24.72
583.301	24.71
583.496	24.73
583.692	24.75
583.888	24.71
584.083	24.77
584.279	24.8
584.474	24.8
584.67	24.86
584.866	24.87
585.061	24.86
585.257	24.92
585.452	24.83
585.648	24.89
585.843	24.92
586.039	24.86
586.234	24.86
586.429	24.93
586.625	24.9
586.82	24.89
587.015	24.82
587.211	24.87
587.406	24.91
587.601	24.95
587.797	24.89
587.992	24.91
588.187	24.99
588.383	25.03
588.578	25.01
588.773	25.06
588.968	25.09
589.163	25.27
589.359	25.28
589.554	25.28
589.749	25.34
589.944	25.37
590.139	25.36
590.334	25.35
590.529	25.33
590.724	25.41
590.919	25.48
591.114	25.47
591.309	25.55
591.504	25.59
591.699	25.66
591.894	25.7
592.089	25.74
592.284	25.74
592.479	25.75
592.674	25.75
592.869	25.86
593.064	25.95
593.259	25.97
593.454	25.98
593.648	26.08
593.843	26.18
594.038	26.26
594.233	26.31
594.428	26.4
594.622	26.45
594.817	26.56
595.012	26.65
595.206	26.78
595.401	26.84
595.596	26.94
595.79	26.98
595.985	27.09
596.18	27.24
596.374	27.32
596.569	27.34
596.763	27.49
596.958	27.53
597.153	27.62
597.347	27.74
597.542	27.79
597.736	27.85
597.931	27.98
598.125	28.01
598.319	28.12
598.514	28.14
598.708	28.21
598.903	28.31
599.097	28.41
599.291	28.53
599.486	28.59
599.68	28.62
599.874	28.76
600.069	28.81
600.263	28.8
600.457	28.85
600.651	28.83
600.846	28.89
601.04	28.96
601.234	29.02
601.428	28.98
601.622	29.01
601.817	29.08
602.011	29.14
602.205	29.19
602.399	29.16
602.593	29.16
602.787	29.27
602.981	29.31
603.175	29.23
603.369	29.19
603.563	29.19
603.757	29.23
603.951	29.17
604.145	29.12
604.339	29.09
604.533	29.11
604.727	29.06
604.921	29.02
605.115	29
605.309	29.06
605.502	29.08
605.696	29.07
605.89	29.06
606.084	29.06
606.278	29.02
606.471	28.96
606.665	28.91
606.859	28.85
607.053	28.78
607.246	28.76
607.44	28.71
607.634	28.73
607.827	28.68
608.021	28.58
608.214	28.58
608.408	28.53
608.602	28.47
608.795	28.36
608.989	28.24
609.182	28.23
609.376	28.19
609.569	28.07
609.763	28.07
609.956	28.01
610.15	28.06
610.343	28
610.537	27.94
610.73	27.89
610.923	27.79
611.117	27.64
611.31	27.56
611.504	27.47
611.697	27.43
611.89	27.29
612.083	27.21
612.277	27.16
612.47	27.11
612.663	27.04
612.856	26.95
613.05	26.87
613.243	26.81
613.436	26.75
613.629	26.7
613.822	26.61
614.015	26.52
614.209	26.5
614.402	26.4
614.595	26.37
614.788	26.3
614.981	26.18
615.174	26.13
615.367	26.07
615.56	25.95
615.753	25.88
615.946	25.84
616.139	25.78
616.332	25.75
616.525	25.73
616.718	25.69
616.911	25.66
617.103	25.59
617.296	25.48
617.489	25.39
617.682	25.4
617.875	25.29
618.067	25.16
618.26	25.07
618.453	25
618.646	25
618.838	24.97
619.031	24.87
619.224	24.85
619.417	24.86
619.609	24.88
619.802	24.91
619.994	24.87
620.187	24.87
620.38	24.84
620.572	24.86
620.765	24.85
620.957	24.74
621.15	24.68
621.342	24.67
621.535	24.65
621.727	24.61
621.92	24.5
622.112	24.49
622.305	24.48
622.497	24.42
622.69	24.32
622.882	24.24
623.074	24.22
623.267	24.25
623.459	24.15
623.651	24.2
623.844	24.2
624.036	24.21
624.228	24.21
624.42	24.17
624.613	24.15
624.805	24.19
624.997	24.16
625.189	24.21
625.381	24.17
625.574	24.12
625.766	24.1
625.958	24.09
626.15	24.09
626.342	24.03
626.534	23.94
626.726	23.88
626.918	23.88
627.11	23.83
627.302	23.78
627.494	23.74
627.686	23.71
627.878	23.64
628.07	23.65
628.262	23.56
628.454	23.57
628.646	23.52
628.838	23.4
629.029	23.3
629.221	23.3
629.413	23.26
629.605	23.21
629.797	23.18
629.989	23.15
630.18	23.13
630.372	23.09
630.564	23.09
630.755	23.07
630.947	23.05
631.139	22.96
631.33	22.91
631.522	22.92
631.714	22.93
631.905	22.89
632.097	22.84
632.289	22.87
632.48	22.85
632.672	22.79
632.863	22.72
633.055	22.7
633.246	22.7
633.438	22.68
633.629	22.65
633.821	22.67
634.012	22.66
634.203	22.7
634.395	22.72
634.586	22.63
634.777	22.6
634.969	22.56
635.16	22.49
635.351	22.5
635.543	22.48
635.734	22.45
635.925	22.56
636.117	22.61
636.308	22.61
636.499	22.59
636.69	22.59
636.881	22.63
637.073	22.6
637.264	22.49
637.455	22.5
637.646	22.55
637.837	22.54
638.028	22.56
638.219	22.46
638.41	22.44
638.601	22.41
638.792	22.31
638.983	22.17
639.174	22.24
639.365	22.18
639.556	22.21
639.747	22.24
639.938	22.29
640.129	22.31
640.32	22.32
640.511	22.26
640.701	22.19
640.892	22.2
641.083	22.18
641.274	22.16
641.465	22.11
641.655	22.17
641.846	22.16
642.037	22.18
642.228	22.11
642.418	22.03
642.609	21.95
642.8	21.95
642.99	21.93
643.181	21.96
643.372	21.98
643.562	21.95
643.753	21.97
643.943	21.97
644.134	21.97
644.324	21.91
644.515	21.86
644.705	21.86
644.896	21.85
645.086	21.79
645.277	21.77
645.467	21.71
645.658	21.69
645.848	21.66
646.038	21.55
646.229	21.48
646.419	21.55
646.61	21.51
646.8	21.5
646.99	21.46
647.18	21.39
647.371	21.35
647.561	21.36
647.751	21.26
647.941	21.21
648.132	21.21
648.322	21.18
648.512	21.23
648.702	21.19
648.892	21.2
649.082	21.16
649.272	21.14
649.462	21.1
649.653	21.08
649.843	21.01
650.033	21.03
650.223	20.97
650.413	20.97
650.603	20.94
650.793	20.82
650.983	20.8
651.172	20.72
651.362	20.65
651.552	20.55
651.742	20.41
651.932	20.36
652.122	20.37
652.312	20.25
652.502	20.21
652.691	20.16
652.881	20.17
653.071	20.11
653.261	20.05
653.45	19.97
653.64	19.94
653.83	19.82
654.019	19.68
654.209	19.53
654.399	19.43
654.588	19.3
654.778	19.15
654.968	18.95
655.157	18.83
655.347	18.66
655.536	18.51
655.726	18.4
655.915	18.21
656.105	18.08
656.294	17.92
656.484	17.76
656.673	17.67
656.863	17.47
657.052	17.24
657.241	17.1
657.431	16.9
657.62	16.72
657.809	16.55
657.999	16.35
658.188	16.12
658.377	16.08
658.567	15.87
658.756	15.67
658.945	15.48
659.134	15.26
659.324	15.1
659.513	14.94
659.702	14.7
659.891	14.51
660.08	14.37
660.269	14.25
660.458	14.1
660.648	13.86
660.837	13.76
661.026	13.63
661.215	13.44
661.404	13.28
661.593	13.07
661.782	12.91
661.971	12.82
662.16	12.62
662.349	12.41
662.538	12.34
662.726	12.2
662.915	12.08
663.104	11.88
663.293	11.64
663.482	11.49
663.671	11.34
663.86	11.16
664.048	11.02
664.237	10.92
664.426	10.87
664.615	10.78
664.803	10.65
664.992	10.61
665.181	10.52
665.369	10.44
665.558	10.29
665.747	10.26
665.935	10.25
666.124	10.2
666.312	10.05
666.501	9.91
666.69	9.79
666.878	9.72
667.067	9.65
667.255	9.54
667.444	9.53
667.632	9.46
667.82	9.44
668.009	9.4
668.197	9.32
668.386	9.2
668.574	9.15
668.762	9.05
668.951	9.05
669.139	9.08
669.327	9.02
669.516	9.07
669.704	9.1
669.892	9.07
670.08	9.04
670.269	9.04
670.457	8.96
670.645	9
670.833	8.96
671.021	8.93
671.21	8.98
671.398	8.99
671.586	9.04
671.774	9.02
671.962	9.01
672.15	9.03
672.338	9.08
672.526	9.1
672.714	9.13
672.902	9.07
673.09	9.1
673.278	9.09
673.466	9.19
673.654	9.21
673.842	9.28
674.03	9.35
674.218	9.43
674.405	9.53
674.593	9.61
674.781	9.57
674.969	9.6
675.157	9.61
675.344	9.65
675.532	9.76
675.72	9.82
675.908	9.9
676.095	10.05
676.283	10.06
676.471	10.1
676.658	10.22
676.846	10.23
677.033	10.23
677.221	10.34
677.409	10.43
677.596	10.63
677.784	10.77
677.971	10.82
678.159	10.97
678.346	11.13
678.534	11.19
678.721	11.24
678.909	11.31
679.096	11.33
679.283	11.47
679.471	11.6
679.658	11.72
679.846	11.86
680.033	12.02
680.22	12.08
680.408	12.26
680.595	12.32
680.782	12.36
680.969	12.43
681.157	12.57
681.344	12.69
681.531	12.84
681.718	13.01
681.905	13.24
682.093	13.46
682.28	13.73
682.467	13.89
682.654	14
682.841	14.23
683.028	14.43
683.215	14.57
683.402	14.74
683.589	14.87
683.776	15.05
683.963	15.34
684.15	15.59
684.337	15.81
684.524	16.16
684.711	16.47
684.898	16.75
685.085	17.13
685.271	17.44
685.458	17.77
685.645	18.08
685.832	18.35
686.019	18.7
686.205	19.05
686.392	19.32
686.579	19.65
686.766	19.97
686.952	20.41
687.139	20.84
687.326	21.17
687.512	21.59
687.699	22.03
687.886	22.43
688.072	22.92
688.259	23.35
688.445	23.72
688.632	24.3
688.818	24.83
689.005	25.38
689.191	26.01
689.378	26.63
689.564	27.08
689.751	27.8
689.937	28.31
690.124	28.88
690.31	29.48
690.496	30.03
690.683	30.62
690.869	31.31
691.055	31.97
691.242	32.62
691.428	33.29
691.614	34.04
691.8	34.6
691.987	35.25
692.173	36.08
692.359	36.67
692.545	37.25
692.731	37.98
692.918	38.56
693.104	39.34
693.29	40.03
693.476	40.49
693.662	41.15
693.848	41.8
694.034	42.3
694.22	42.98
694.406	43.62
694.592	44.12
694.778	44.77
694.964	45.3
695.15	46.04
695.336	46.92
695.522	47.42
695.708	48.09
695.894	48.86
696.08	49.5
696.265	50.24
696.451	50.9
696.637	51.37
696.823	52.02
697.009	52.58
697.194	53.25
697.38	53.76
697.566	54.32
697.751	54.84
697.937	55.38
698.123	56.02
698.308	56.52
698.494	56.97
698.68	57.62
698.865	58.34
699.051	58.99
699.236	59.48
699.422	60.02
699.607	60.65
699.793	61.06
699.978	61.36
700.164	61.8
700.349	62.14
700.535	62.61
700.72	62.91
700.906	63.3
701.091	63.68
701.276	64.3
701.462	64.68
701.647	64.95
701.832	65.38
702.018	65.75
702.203	66.11
702.388	66.51
702.573	66.87
702.759	67.19
702.944	67.67
703.129	67.99
703.314	68.57
703.499	69.07
703.684	69.51
703.87	69.95
704.055	70.32
704.24	70.8
704.425	71.36
704.61	71.65
704.795	71.97
704.98	72.11
705.165	72.26
705.35	72.57
705.535	72.84
705.72	73.02
705.905	73.11
706.09	73.18
706.275	73.52
706.459	73.93
706.644	74.05
706.829	74.3
707.014	74.34
707.199	74.57
707.384	74.89
707.568	75.44
707.753	75.75
707.938	75.98
708.123	76.15
708.307	76.75
708.492	76.95
708.677	77.36
708.861	77.32
709.046	77.24
709.231	77.52
709.415	77.6
709.6	77.45
709.784	77.64
709.969	77.74
710.153	77.89
710.338	78.17
710.522	78.28
710.707	78.36
710.891	78.73
711.076	78.86
711.26	79
711.445	79.28
711.629	79.52
711.813	79.6
711.998	79.87
712.182	80.13
712.366	80.66
712.551	80.69
712.735	80.67
712.919	80.75
713.103	81.02
713.288	81.24
713.472	81.02
713.656	80.78
713.84	80.86
714.024	81.16
714.208	81.32
714.393	81.45
714.577	81.3
714.761	81.74
714.945	81.84
715.129	81.95
715.313	81.91
715.497	81.95
715.681	82.07
715.865	82.31
716.049	82.22
716.233	82.46
716.417	82.74
716.601	83.02
716.785	83.21
716.968	83.13
717.152	83.41
717.336	83.37
717.52	83.56
717.704	83.81
717.888	83.94
718.071	83.97
718.255	84.16
718.439	84.08
718.622	84.36
718.806	84.09
718.99	84.15
719.174	84.12
719.357	84.18
719.541	84.27
719.724	84.59
719.908	84.63
720.092	84.98
720.275	85.02
720.459	85
720.642	85.09
720.826	85.09
721.009	84.86
721.193	84.83
721.376	84.95
721.559	84.91
721.743	84.8
721.926	84.69
722.11	85.1
722.293	84.79
722.476	84.92
722.66	85.03
722.843	85.14
723.026	85.39
723.21	85.41
723.393	85.33
723.576	86
723.759	86.16
723.942	86.28
724.126	86.1
724.309	86.31
724.492	86.55
724.675	86.69
724.858	87.07
725.041	87.07
725.224	86.91
725.407	86.84
725.59	86.9
725.774	87.05
725.957	87
726.14	86.74
726.322	86.79
726.505	87.14
726.688	87.55
726.871	87.54
727.054	87.72
727.237	87.53
727.42	87.73
727.603	87.82
727.786	88.02
727.968	88.48
728.151	88.84
728.334	89.07
728.517	89.51
728.699	89.38
728.882	89.81
729.065	89.72
729.248	89.45
729.43	89.54
729.613	89.68
729.796	89.58
729.978	89.8
730.161	89.93
730.343	90.18
730.526	89.99
730.708	90.29
730.891	90.13
731.073	90.34
731.256	90.61
731.438	90.54
731.621	90.91
731.803	91.45
731.986	91.22
732.168	91.07
732.35	90.98
732.533	90.85
732.715	91.1
732.898	90.77
733.08	90.99
733.262	90.9
733.444	91.4
733.627	91.78
733.809	92.11
733.991	92.13
734.173	91.79
734.355	91.72
734.538	91.96
734.72	92.02
734.902	92.08
735.084	91.95
735.266	91.87
735.448	91.99
735.63	92.14
735.812	92.06
735.994	91.67
736.176	91.87
736.358	92.24
736.54	92.33
736.722	92.74
736.904	92.66
737.086	92.69
737.268	93.15
737.45	92.92
737.632	92.41
737.814	92.2
737.995	92.32
738.177	92.44
738.359	92.65
738.541	92.74
738.723	93.24
738.904	93.47
739.086	94.19
739.268	94.78
739.449	94.77
739.631	95.04
739.813	94.81
739.994	94.83
740.176	95.42
740.358	95.24
740.539	94.53
740.721	94.43
740.902	93.81
741.084	94.21
741.265	94.05
741.447	93.07
741.628	92.9
741.81	93.44
741.991	93.69
742.172	94.42
742.354	94.54
742.535	94.54
742.717	94.84
742.898	95.33
743.079	95.44
743.261	95.49
743.442	95.6
743.623	95.24
743.804	95.49
743.986	95.69
744.167	95.12
744.348	94.77
744.529	94.52
744.71	93.55
744.891	93.88
745.073	93.49
745.254	93.55
745.435	93.66
745.616	93.25
745.797	93.43
745.978	94.5
746.159	94.03
746.34	94.61
746.521	94.87
746.702	94.21
746.883	95.05
747.064	94.66
747.245	94.52
747.426	95.42
747.606	94.99
747.787	95.85
747.968	96.99
748.149	96.3
748.33	97.25
748.51	96.81
748.691	96.35
748.872	96.3
749.053	94.63
749.233	94.09
749.414	94.12
749.595	93.15
749.775	93.51
749.956	92.79
750.137	93.09
750.317	93.9
750.498	93.99
750.678	94.45
750.859	95.1
751.04	94.93
751.22	95.26
751.4	95.17
751.581	94.51
751.761	94.84
751.942	94.45
752.122	93.84
752.303	93.98
752.483	94.08
752.663	94.06
752.844	93.62
753.024	93.44
753.204	92.97
753.385	93.04
753.565	92.71
753.745	92.22
753.925	91.83
754.106	92.96
754.286	92.95
754.466	93.54
754.646	93.5
754.826	93.58
755.006	93.72
755.187	94.41
755.367	93.87
755.547	93.75
755.727	93.32
755.907	93.58
756.087	93.87
756.267	93.78
756.447	93.28
756.627	93.88
756.807	94.41
756.987	95.46
757.167	95.05
757.346	94.51
757.526	95.51
757.706	95.35
757.886	95.13
758.066	94.1
758.246	93.11
758.425	94.11
758.605	94.34
758.785	93.94
758.965	93.13
759.144	93.37
759.324	94.29
759.504	94.37
759.683	93.36
759.863	93.22
760.043	92.96
760.222	92.78
760.402	93.06
760.581	92.14
760.761	91.67
760.94	91.48
761.12	91.34
761.299	91.04
761.479	91.96
761.658	90.46
761.838	91.13
762.017	91.59
762.197	92.21
762.376	92.02
762.555	91.65
762.735	90.68
762.914	92.19
763.093	91.25
763.273	91.61
763.452	90.51
763.631	89.76
763.81	90.83
763.99	92.18
764.169	91.12
764.348	91.49
764.527	90.51
764.706	91.73
764.885	92.92
765.064	92.15
765.243	91.77
765.423	91.88
765.602	92.06
765.781	92.72
765.96	92.79
766.139	92.12
766.318	92.64
766.497	92.8
766.676	93.51
766.854	92.94
767.033	91.95
767.212	91.54
767.391	92.26
767.57	91.66
767.749	91.82
767.928	90.38
768.106	91.03
768.285	92.19
768.464	92.19
768.643	92.17
768.821	92.96
769	93.13
769.179	92.35
769.357	91.31
769.536	90.82
769.715	90.58
769.893	89.54
770.072	88.87
770.25	88.13
770.429	89.91
770.607	90.67
770.786	90.75
770.964	90.03
771.143	90.22
771.321	89.69
771.5	88.36
771.678	88.45
771.857	87.94
772.035	87.69
772.213	87.98
772.392	88.63
772.57	88.34
772.748	88.11
772.927	87.36
773.105	88.31
773.283	87.99
773.461	88.11
773.64	87.2
773.818	86.6
773.996	87.06
774.174	86.88
774.352	85.66
774.531	84.99
774.709	85.36
774.887	85.15
775.065	85.66
775.243	87.74
775.421	88.29
775.599	87.58
775.777	88.22
775.955	86.86
776.133	86.93
776.311	86.99
776.489	85.88
776.667	85.38
776.844	86.06
777.022	86.15
777.2	86.47
777.378	87.08
777.556	87.85
777.734	88.14
777.911	88.19
778.089	87.19
778.267	87.32
778.445	86.75
778.622	86.04
778.8	86.34
778.978	86.06
779.155	85.08
779.333	84.63
779.511	84.59
779.688	85.44
779.866	86.29
780.043	86
780.221	85.96
780.398	87.57
780.576	89.32
780.753	87.34
780.931	87.61
781.108	87.5
781.286	85.85
781.463	85.66
781.64	84.8
781.818	83.53
781.995	85.37
782.172	85.57
782.35	84.66
782.527	86.72
782.704	86.3
782.882	86.81
783.059	86.96
783.236	87.78
783.413	87.4
783.59	86.77
783.768	85.49
783.945	85.49
784.122	85.5
784.299	86.48
784.476	87.14
784.653	85.92
784.83	86.24
785.007	85.92
785.184	86.37
785.361	85.41
785.538	85.17
785.715	82.52
785.892	81.23
786.069	82.21
786.246	81.53
786.423	83.24
786.6	84.37
786.776	82.84
786.953	83.75
787.13	86.87
787.307	86.04
787.484	86.35
787.66	83.52
787.837	83.97
788.014	85.85
788.191	85.54
788.367	83.63
788.544	81.59
788.721	82.13
788.897	84.31
789.074	82.82
789.25	82.74
789.427	82.35
789.603	87.51
789.78	90.18
789.956	90.89
790.133	88.66
790.309	87.84
790.486	89.22
790.662	90.26
790.839	87.91
791.015	88.21
791.192	89.82
791.368	91.32
791.544	92.67
791.721	88.7
791.897	88.68
792.073	85.3
792.249	86.05
792.426	84.51
792.602	82.83
792.778	80.34
792.954	82.05
793.13	81.18
793.307	80.66
793.483	79.43
793.659	81.27
793.835	81.61
794.011	81.43
794.187	78.51
794.363	78.73
794.539	79.45
794.715	78.52
794.891	73.62
795.067	74.43
795.243	75.91
795.419	80.39
795.595	79.28
795.771	79.54
795.947	80.34
796.122	80.49
796.298	79.76
796.474	80.81
796.65	76.74
796.826	78.53
797.001	78.04
797.177	78.19
797.353	80.6
797.529	80.94
797.704	79.37
797.88	81.51
798.056	81.95
798.231	84.08
798.407	82.24
798.582	80.69
798.758	82.28
798.934	80.95
799.109	80.07
799.285	79.69
799.46	79.95
799.636	80.39
799.811	81.75
799.986	80.8
800.162	83.43
800.337	84.61
800.513	85.75
800.688	86.17
800.863	90.09
801.039	86.73
801.214	85.1
801.389	82.71
801.565	82.64
801.74	79.32
801.915	76.39
802.09	70.38
802.265	73.27
802.441	73.43
802.616	75.31
802.791	74.49
802.966	74.82
803.141	69.71
803.316	72.81
803.491	70.01
803.666	70.78
803.841	70.34
804.016	71.71
804.191	69.99
804.366	74.11
804.541	73.32
804.716	72.26
804.891	74.7
805.066	72.99
805.241	69.83
805.416	69.09
805.591	71.44
805.765	74.23
805.94	78.42
806.115	73.29
806.29	74.81
806.464	74.76
806.639	75.54
806.814	72.39
806.989	72.11
807.163	71.95
807.338	71.9
807.512	66.93
807.687	69.38
807.862	71.44
808.036	73.51
808.211	75.46
808.385	72.7
808.56	74.07
808.734	77.32
808.909	76.31
809.083	74.91
809.258	77.39
809.432	74.5
809.606	75.7
809.781	75.03
809.955	78.23
810.13	81.31
810.304	77.35
810.478	77.82
810.652	78.03
810.827	75.03
811.001	78.64
811.175	75.08
811.349	72.82
811.524	73.85
811.698	71.05
811.872	71.87
812.046	72.15
812.22	67.43
812.394	70.14
812.568	72.85
812.742	76.55
812.916	79.6
813.09	78.3
813.264	81.42
813.438	87
813.612	79.51
813.786	80.18
813.96	80.18
814.134	76.55
814.308	73.6
814.482	74.05
814.656	69.61
814.83	75.85
815.003	72.61
815.177	70.8
815.351	73.65
815.525	72.1
815.698	68.5
815.872	67.38
816.046	66.38
816.219	66.53
816.393	62.29
816.567	59.78
816.74	63.97
816.914	70.01
817.088	70.42
817.261	69.16
817.435	65.09
817.608	70.37
817.782	72.08
817.955	68.5
818.129	69.06
818.302	79.2
818.475	82.42
818.649	81.37
818.822	84.23
818.996	84.91
819.169	86.85
819.342	83.27
819.516	76.12
819.689	76.4
819.862	81.84
820.035	77.25
820.209	73.92
820.382	72.54
820.555	74.6
820.728	70.27
820.901	66.87
821.075	69.18
821.248	65.95
821.421	64.01
821.594	64.98
821.767	62.29
821.94	63.04
822.113	65.54
822.286	62.67
822.459	74.56
822.632	78.87
822.805	76.19
822.978	71.63
823.151	72.56
823.324	64.8
823.496	56.22
823.669	56.93
823.842	50.64
824.015	52.08
824.188	57.88
824.361	60.84
824.533	68.46
824.706	85.69
824.879	75.77
825.051	86.96
825.224	86.49
825.397	78.45
825.569	81.92
825.742	77.92
825.915	67.31
826.087	67.18
826.26	65.05
826.432	66.94
826.605	68.26
826.777	60.28
826.95	57.48
827.122	64.44
827.295	62.7
827.467	55.19
827.64	45.25
827.812	49.36
827.984	55.74
828.157	62.83
828.329	55.73
828.501	57.63
828.674	61.79
828.846	72.68
829.018	68.83
829.19	67
829.363	64.6
829.535	67.38
829.707	60.97
829.879	61.62
830.051	52.57
830.223	48.07
830.395	48.01
830.568	50.79
830.74	52.52
830.912	57.77
831.084	52.91
831.256	47.71
831.428	50.16
831.6	43.7
831.772	38.35
831.943	46.59
832.115	57.07
832.287	58.96
832.459	61.07
832.631	64.32
832.803	70.87
832.975	76.68
833.146	60.95
833.318	49.86
833.49	64.78
833.662	70.32
833.833	70.84
834.005	68.43
834.177	63.4
834.348	63.34
834.52	62.39
834.692	51.07
834.863	44.79
835.035	46.32
835.206	42.83
835.378	49.78
835.549	57.52
835.721	56.72
835.892	59.28
836.064	63.37
836.235	63.22
836.407	67.33
836.578	65.79
836.749	58.69
836.921	61.39
837.092	58.5
837.264	61.38
837.435	52.25
837.606	51.95
837.777	43.5
837.949	46.3
838.12	44.98
838.291	50.62
838.462	38.7
838.633	40.81
838.805	37.44
838.976	39.38
839.147	32.95
839.318	23.17
839.489	20.51
839.66	38.77
839.831	32.39
840.002	36.31
840.173	43.59
840.344	56.98
840.515	61.21
840.686	69.92
840.857	57.84
841.028	69.25
841.199	69.61
841.369	61.13
841.54	59.82
841.711	55.42
841.882	37.58
842.053	32.1
842.223	24.59
842.394	27.54
842.565	51.64
842.736	45.25
842.906	53.61
843.077	66.61
843.248	72.98
843.418	66.99
843.589	67.6
843.759	56.31
843.93	59.04
844.101	60.57
844.271	64.53
844.442	62.82
844.612	57.03
844.783	36.51
844.953	27.44
845.123	35.02
845.294	37.63
845.464	35.2
845.635	26.01
845.805	48.78
845.975	56.37
846.146	55.25
846.316	71.58
846.486	73.44
846.656	76.72
846.827	84.46
846.997	85.47
847.167	91.41
847.337	99.7
847.507	85.75
847.677	89.13
847.848	92
848.018	80.4
848.188	70.44
848.358	78.72
848.528	83.31
848.698	67.15
848.868	25.24
849.038	32.53
849.208	64.56
849.378	53.39
849.548	55.63
849.718	42.08
849.887	39.82
850.057	71.09
850.227	49.31
850.397	22.21
850.567	44.39
850.737	22.78
850.906	40.35
851.076	43.68
851.246	42.92
851.415	55.08
851.585	52.53
851.755	46.6
851.924	67.81
852.094	55.51
852.264	49.74
852.433	56.24
852.603	61.09
852.772	76.85
852.942	59.33
853.111	57.22
853.281	58.12
853.45	66.18
853.62	44.11
853.789	37.96
853.959	24.18
854.128	25.27
854.297	16.73
854.467	10.49
854.636	33.69
854.805	46.54
854.975	53.43
855.144	59.2
855.313	69.07
855.482	65.41
855.652	66.42
855.821	56.95
855.99	59.41
856.159	52.59
856.328	46.76
856.497	42.27
856.667	47.53
856.836	44.18
857.005	33.8
857.174	44.47
857.343	41.29
857.512	35.49
857.681	28
857.85	17.07
858.019	31.26
858.188	39.14
858.356	-4.13
858.525	1.78
858.694	22.57
858.863	30.24
859.032	25.5
859.201	0.19
859.369	6.9
859.538	18.13
859.707	28.63
859.876	26.41
860.044	29.51
860.213	35
860.382	47.48
860.55	55.87
860.719	72.58
860.888	63.34
861.056	57.58
861.225	46.29
861.393	64.99
861.562	51
861.73	44.45
861.899	15.2
862.067	34.74
862.236	34.39
862.404	34.35
862.572	26.76
862.741	37.81
862.909	35.84
863.078	43.38
863.246	40.33
863.414	44.55
863.582	55.57
863.751	31.86
863.919	39.97
864.087	49.51
864.255	51.3
864.424	44.83
864.592	46.73
864.76	62.8
864.928	80.56
865.096	68.13
865.264	70.38
865.432	72.6
865.6	61.91
865.768	58.57
865.936	34.98
866.104	36.83
866.272	44.46
866.44	-6.43
866.608	-35.99
866.776	9.07
866.944	8.84
867.112	-1.27
867.28	-27.78
867.448	1.81
867.615	44.59
867.783	31.16
867.951	36.1
868.119	44.55
868.286	53.28
868.454	57.98
868.622	43
868.789	35.93
868.957	78.95
869.125	73.88
869.292	74.94
869.46	73.81
869.627	59.68
869.795	62.53
869.963	49.82
870.13	44.42
870.298	22.1
870.465	-5.9
870.632	15.15
870.8	37.14
870.967	27.28
871.135	47.67
871.302	41.16
871.469	35.94
871.637	35.58
871.804	32.47
871.971	40.75
872.139	57.38
872.306	44.72
872.473	21.44
872.64	36.09
872.807	31.26
872.975	62.17
873.142	22.16
873.309	3.4
873.476	41.3
873.643	97.03
873.81	106.11
873.977	78.92
874.144	25.63
874.311	3.84
874.478	-41.95
874.645	-70.38
874.812	-37.32
874.979	-48.54
875.146	-110.22
875.313	-143.74
875.48	-45.6
875.647	-22.02
875.813	-13.54
875.98	-9.8
876.147	36.06
876.314	75.16
876.481	60.26
876.647	47
876.814	51.95
876.981	50.1
877.147	43.17
877.314	39.31
877.481	47.46
877.647	54.11
877.814	35.68
877.98	44.34
878.147	41.04
878.314	40.32
878.48	38.86
878.647	39.62
878.813	33.34
878.979	43.25
879.146	23.21
879.312	39.35
879.479	41.87
879.645	1.95
879.811	-25.02
879.978	-23.67
880.144	-5.62
880.31	-25.24
880.477	-43.08
880.643	-158.86
880.809	13.16
880.975	-23.25
881.142	-29.87
881.308	-75.4
881.474	-23.39
881.64	-78.97
881.806	13.24
881.972	31.55
882.138	41.41
882.304	22.92
882.47	28.08
882.636	-33.29
882.802	7.28
882.968	-104.35
883.134	-352.22
883.3	-136.02
883.466	-40.21
883.632	-38.18
883.798	3.54
883.964	-31.38
884.129	-12.45
884.295	8.72
884.461	-12.42
884.627	-32.68
884.793	31.08
884.958	-4.23
885.124	-4.21
885.29	12.87
885.455	9.62
885.621	22.17
885.787	14.46
885.952	-11.96
886.118	34.71
886.283	50.21
886.449	28.27
886.614	55.79
886.78	41.37
886.945	38.38
887.111	49.64
887.276	17.76
887.442	17.48
887.607	25.87
887.773	-5.47
887.938	-13.32
888.103	15.78
888.269	13.82
888.434	-13.94
888.599	-1.01
888.764	-0.27
888.93	19.14
889.095	-1.58
889.26	18.53
889.425	31.22
889.59	32.17
889.756	11.2
889.921	25.6
890.086	36.06
890.251	42.62
890.416	-10.11
890.581	-25.42
890.746	-10.47
890.911	-52.92
891.076	-97.88
891.241	-146.44
891.406	-29.18
891.571	-6.51
891.736	3.26
891.901	40
892.065	69.25
892.23	71.88
892.395	41.07
892.56	29.6
892.725	30.7
892.889	6.51
893.054	-80.78
893.219	-158.35
893.384	-292.65
893.548	-639.17
893.713	1242.33
893.878	710.87
