Data from Ofra_1a_PS_OGT3_Reflection_2.txt Node
Date: Tue Jul 20 10:43:09 EDT 2021
User: Adam
Spectrometer: FLMT01687
Trigger mode: 0
Integration Time (sec): 1.004000E0
Scans to average: 2
Electric dark correction enabled: true
Nonlinearity correction enabled: false
Boxcar width: 2
XAxis mode: Wavelengths
Number of Pixels in Spectrum: 3648
>>>>>Begin Spectral Data<<<<<
179.494	-190.86
179.716	-275.57
179.937	552.51
180.158	117.2
180.38	31.83
180.601	13.6
180.823	-4.66
181.044	-113.26
181.265	147.97
181.486	43.58
181.708	112.36
181.929	-10290.91
182.15	34.41
182.372	157.64
182.593	252.92
182.814	-337.52
183.035	-60.68
183.257	-24
183.478	-6.19
183.699	-28.72
183.92	-46.11
184.141	-51.46
184.363	-49.14
184.584	-73.73
184.805	-20.39
185.026	5.47
185.247	-9
185.468	-30.71
185.689	-22.27
185.91	-31.89
186.132	-19.06
186.353	-10.85
186.574	3.95
186.795	35.25
187.016	40.2
187.237	40.76
187.458	41.54
187.679	30.48
187.9	24.95
188.121	33.1
188.342	48.23
188.563	62.02
188.784	77.84
189.005	58.41
189.226	46.72
189.447	31.49
189.667	16.79
189.888	0.27
190.109	-0.95
190.33	-9.8
190.551	-12.59
190.772	-23.22
190.993	-27.13
191.214	-52.53
191.434	-73.27
191.655	-78.73
191.876	-8.4
192.097	10.3
192.318	25.74
192.538	7.24
192.759	4.26
192.98	3.91
193.201	-10.82
193.421	-11.65
193.642	7.54
193.863	3.04
194.083	-8.57
194.304	-0.18
194.525	-10.29
194.745	-10.13
194.966	-3.39
195.187	14.93
195.407	7.6
195.628	16.16
195.848	-1.53
196.069	-8.47
196.29	-31.93
196.51	-32.92
196.731	-32.45
196.951	-29.1
197.172	-9.28
197.392	-13.06
197.613	22.2
197.833	-1.39
198.054	2
198.274	-14.09
198.495	-16.48
198.715	-46
198.936	-22.93
199.156	-32.17
199.377	-39.96
199.597	-1.13
199.817	-15.79
200.038	-26.47
200.258	-14.8
200.479	-5.06
200.699	-25.9
200.919	-11.75
201.14	-5.52
201.36	-4.59
201.58	-25.94
201.801	-56.93
202.021	-72.31
202.241	-74.31
202.461	-42.09
202.682	-22.97
202.902	-15.65
203.122	-9.54
203.342	-4.42
203.563	-13.09
203.783	-33.55
204.003	-22.3
204.223	-9.74
204.443	-27.91
204.663	-66.99
204.884	-49.71
205.104	-26.03
205.324	-36.47
205.544	-56.18
205.764	9.98
205.984	18.85
206.204	-5.87
206.424	-21.75
206.644	-18.44
206.864	-80.14
207.084	-28.74
207.304	-47.62
207.525	-32.35
207.745	-16.26
207.964	-12.38
208.184	-40.97
208.404	-13.82
208.624	-11.8
208.844	-22.96
209.064	-13.64
209.284	-19.82
209.504	-48.74
209.724	-46.01
209.944	-52.79
210.164	-52.59
210.384	-57.61
210.604	-65.86
210.823	-79.69
211.043	-44.29
211.263	-111.85
211.483	-61.87
211.703	-39.8
211.922	-37.21
212.142	-9.48
212.362	7.19
212.582	-7.15
212.801	-17.51
213.021	-28.21
213.241	-44.81
213.461	-33.56
213.68	-19.55
213.9	-16.35
214.12	-17.88
214.339	-17.18
214.559	-19.52
214.779	-27.14
214.998	-22.16
215.218	-18.9
215.438	-25.12
215.657	-32.47
215.877	-46.43
216.096	-29.18
216.316	-21.5
216.535	-24.88
216.755	-22.02
216.974	-25.68
217.194	-49.55
217.413	-52.85
217.633	-43.18
217.852	-26
218.072	-13.44
218.291	-6.94
218.511	-20.7
218.73	-24.92
218.95	-58.18
219.169	-59.59
219.389	-33.91
219.608	-14.05
219.827	-4.53
220.047	16.29
220.266	0.09
220.485	-21.36
220.705	-11.61
220.924	-15.12
221.143	-3.89
221.363	15.17
221.582	18.57
221.801	5.21
222.021	5.72
222.24	-1.04
222.459	22.57
222.678	18.16
222.897	20.33
223.117	12.2
223.336	19.85
223.555	6.42
223.774	27.92
223.993	31.43
224.213	55.48
224.432	27.9
224.651	10.38
224.87	-11.38
225.089	1.16
225.308	2.59
225.527	-13.86
225.746	-16.27
225.965	0.48
226.184	-20.18
226.404	-33.67
226.623	-3.58
226.842	-4.6
227.061	-17.19
227.28	-3.07
227.499	-4.77
227.718	-11.43
227.936	-5.86
228.155	-6.94
228.374	-24.11
228.593	-16.12
228.812	-22.44
229.031	-2.59
229.25	4.11
229.469	9.25
229.688	5.46
229.907	16.96
230.125	-6.96
230.344	-2.06
230.563	8.46
230.782	4.17
231.001	-7.43
231.22	2.08
231.438	-5.99
231.657	-4.1
231.876	10.78
232.095	10.13
232.313	0.8
232.532	10.38
232.751	13.14
232.969	-10.46
233.188	-10.01
233.407	0.89
233.625	-15.18
233.844	-20.61
234.063	-1.29
234.281	10.75
234.5	20.2
234.719	24.7
234.937	15.39
235.156	-3.4
235.374	-22.98
235.593	-30.99
235.811	-20.09
236.03	-4.9
236.249	-3.44
236.467	2.29
236.686	-9.2
236.904	2.11
237.123	21.36
237.341	15.48
237.559	15.93
237.778	45.4
237.996	13.8
238.215	-44.91
238.433	-44.64
238.652	-16.07
238.87	-32.18
239.088	-15.21
239.307	-8.42
239.525	1.24
239.743	-3.81
239.962	-37.14
240.18	-18.38
240.398	-19.5
240.617	-47.22
240.835	-56.5
241.053	-31.2
241.271	-40.25
241.49	-22.33
241.708	-15.71
241.926	-22.14
242.144	-8.59
242.363	-21.82
242.581	-68.51
242.799	-67.21
243.017	-37.82
243.235	-23.79
243.453	-11.85
243.672	1.86
243.89	20.97
244.108	23.49
244.326	27.44
244.544	29.4
244.762	14.34
244.98	8.04
245.198	10.02
245.416	-1.04
245.634	-4.98
245.852	-16.46
246.07	-2.64
246.288	-3.23
246.506	-12.98
246.724	-16.79
246.942	3.33
247.16	-1.65
247.378	-30.84
247.596	-5.3
247.814	-31.54
248.032	-24.88
248.25	3.92
248.468	20.29
248.685	11.97
248.903	10.15
249.121	6.09
249.339	-1.21
249.557	-11.61
249.775	7.17
249.992	18.16
250.21	18.66
250.428	16.42
250.646	19.9
250.863	-13.58
251.081	-22.9
251.299	-20.9
251.517	-17.72
251.734	-21.75
251.952	-2.76
252.17	12.16
252.387	-5.5
252.605	-20.35
252.823	-35.32
253.04	-23
253.258	-38.29
253.475	-12.61
253.693	-5.66
253.911	-3.66
254.128	-3.51
254.346	2.37
254.563	13.39
254.781	8.93
254.998	-5.58
255.216	-47.82
255.433	-83.18
255.651	-83.86
255.868	-70.91
256.086	-35.29
256.303	2.71
256.521	35.51
256.738	16.79
256.956	0.42
257.173	-13.56
257.39	-25.94
257.608	-43.85
257.825	-18.37
258.043	2.95
258.26	1.55
258.477	-1.9
258.695	-3.22
258.912	-28.25
259.129	-45.64
259.346	-42.62
259.564	-42.06
259.781	-27.2
259.998	0.51
260.216	14.06
260.433	-3.07
260.65	9.43
260.867	0.23
261.084	-11.05
261.302	-29.85
261.519	-8
261.736	-12.66
261.953	-1.06
262.17	29.93
262.387	21.04
262.604	33.23
262.822	36.54
263.039	30.96
263.256	18.35
263.473	17.36
263.69	6.8
263.907	-2.45
264.124	5.85
264.341	8.31
264.558	20.22
264.775	18.52
264.992	22.38
265.209	-6.05
265.426	-4.87
265.643	-7.86
265.86	-30.16
266.077	-37.67
266.294	-10.73
266.51	-7.73
266.727	-20.75
266.944	10.44
267.161	11.05
267.378	18.97
267.595	-0.11
267.812	-9.94
268.028	-37.22
268.245	-44.97
268.462	-43.54
268.679	-19.53
268.896	1.12
269.112	-7.7
269.329	-19.56
269.546	-4.67
269.763	3.34
269.979	-0.94
270.196	20.76
270.413	22.32
270.629	13.1
270.846	2.84
271.063	9.2
271.279	3.23
271.496	0.89
271.712	4.47
271.929	4.61
272.146	-10.67
272.362	-7.32
272.579	-8.68
272.795	-29.33
273.012	-31.35
273.228	-20.82
273.445	-27.03
273.661	-42.33
273.878	-46.73
274.094	-37.14
274.311	-35.95
274.527	-61
274.744	-29.64
274.96	-20.54
275.177	-16.41
275.393	3.41
275.609	13
275.826	4.85
276.042	17.32
276.259	4.17
276.475	-23.85
276.691	-16.55
276.908	-7.06
277.124	-9.92
277.34	-10.01
277.557	3.73
277.773	-1.14
277.989	-6.3
278.205	-4.86
278.422	7.87
278.638	10.47
278.854	13.34
279.07	28.55
279.286	24.42
279.503	25.66
279.719	18.47
279.935	5.63
280.151	-20.95
280.367	-9.29
280.583	-33.38
280.799	-28.89
281.016	-74.82
281.232	-49.72
281.448	-65.77
281.664	-46.87
281.88	-31.26
282.096	-2.92
282.312	1.03
282.528	4.07
282.744	8.59
282.96	-12.67
283.176	-16.36
283.392	-58.23
283.608	-62.61
283.824	-86.06
284.04	-138
284.256	-70.67
284.471	-52.98
284.687	-48.32
284.903	-32.72
285.119	0.93
285.335	5.45
285.551	12.79
285.767	15.89
285.982	7.07
286.198	-42.43
286.414	-70.69
286.63	-97.12
286.846	-84.95
287.061	-56.09
287.277	-27.05
287.493	-36.95
287.709	-18.51
287.924	-6.36
288.14	0.06
288.356	14.61
288.571	22.49
288.787	-0.11
289.003	-4.95
289.218	-23.86
289.434	-36.75
289.65	-6.51
289.865	12.38
290.081	20.48
290.296	25.01
290.512	30.37
290.727	7.89
290.943	1.11
291.159	-5.12
291.374	-24.71
291.59	-25.77
291.805	-35.63
292.021	-27.38
292.236	-26.79
292.451	-9.43
292.667	-7.51
292.882	7.3
293.098	2.33
293.313	-16.93
293.529	-13.35
293.744	-21.16
293.959	-27.16
294.175	-21.53
294.39	-30.82
294.605	-13.37
294.821	-23.52
295.036	-26.07
295.251	-24.39
295.467	-17.18
295.682	-20.5
295.897	-14.39
296.112	-7.23
296.328	-7.12
296.543	-9.12
296.758	-6.94
296.973	-14.73
297.188	-13.21
297.404	-28.67
297.619	-52.29
297.834	-114.38
298.049	-100.51
298.264	-81.64
298.479	-81.41
298.694	-11.46
298.909	6.68
299.125	5.76
299.34	-10.26
299.555	2.74
299.77	1.06
299.985	1.29
300.2	9.1
300.415	17.09
300.63	7.11
300.845	-9.72
301.06	-17.81
301.275	-25.11
301.49	-11.59
301.704	-6.13
301.919	-8.19
302.134	9.04
302.349	2.2
302.564	-9.75
302.779	-18.24
302.994	-0.27
303.209	-3.38
303.423	11.43
303.638	26.97
303.853	11.45
304.068	0.53
304.283	-6.98
304.497	-35.82
304.712	-34.93
304.927	-14.26
305.142	-7.03
305.356	-3.84
305.571	-4.54
305.786	-16.61
306	-6.65
306.215	-18.68
306.43	-36.36
306.644	-24.8
306.859	-43.35
307.074	-34.6
307.288	-23.6
307.503	1.6
307.717	-9.4
307.932	1.86
308.147	-10.98
308.361	-17.48
308.576	-41.08
308.79	-30.57
309.005	-33.06
309.219	-11.96
309.434	5.96
309.648	2.23
309.863	12.13
310.077	15.93
310.292	19.58
310.506	-10.47
310.72	-0.92
310.935	-5.22
311.149	6.13
311.364	-3.22
311.578	13.39
311.792	9.25
312.007	21.33
312.221	-6.07
312.435	-4.56
312.649	-0.28
312.864	2.9
313.078	-1.82
313.292	-8.75
313.507	-21.06
313.721	-22.66
313.935	-23.68
314.149	-22.5
314.363	-4.45
314.578	6.39
314.792	-19.8
315.006	-28.76
315.22	-12.75
315.434	-23.32
315.648	-29.61
315.862	-30.62
316.077	-39.18
316.291	-52.05
316.505	-68.19
316.719	-44.65
316.933	-14.09
317.147	3.78
317.361	10.08
317.575	17.22
317.789	14.18
318.003	8.32
318.217	1.91
318.431	-4.71
318.645	-8.02
318.859	-4.62
319.073	7.02
319.287	4.44
319.5	7.9
319.714	9.23
319.928	2.11
320.142	-7.64
320.356	-1.26
320.57	-26.33
320.784	-18.44
320.997	-43.17
321.211	-29.78
321.425	-46.23
321.639	-2.69
321.853	-0.55
322.066	4.33
322.28	-5.26
322.494	8.6
322.707	1.85
322.921	-13.66
323.135	0.71
323.349	-4.21
323.562	-16.17
323.776	-25.93
323.989	3.53
324.203	-1.1
324.417	10.88
324.63	3.98
324.844	-10.17
325.057	-52.19
325.271	-55.23
325.485	-58.78
325.698	-15.95
325.912	16.92
326.125	24.63
326.339	36.95
326.552	26.61
326.766	1.26
326.979	6.32
327.193	-1.21
327.406	-21.29
327.619	-5.71
327.833	-2.09
328.046	-9.98
328.26	-10.5
328.473	3.99
328.686	2.43
328.9	10.9
329.113	-1.91
329.326	0.05
329.54	0.19
329.753	9.47
329.966	4.86
330.179	7.85
330.393	7.5
330.606	5.26
330.819	-12.34
331.032	-7.44
331.246	8.9
331.459	30.09
331.672	27.49
331.885	31.32
332.098	31.09
332.311	2.91
332.525	-10.51
332.738	-0.43
332.951	-7.15
333.164	-5.71
333.377	-0.61
333.59	-4.56
333.803	-19.94
334.016	-18.27
334.229	-24.87
334.442	-18.15
334.655	-4.17
334.868	-6.19
335.081	-2.03
335.294	-8.1
335.507	-10.47
335.72	-15.12
335.933	-31.07
336.146	-28.46
336.359	-2.66
336.572	1.32
336.785	-10.78
336.997	4.26
337.21	-9.53
337.423	-49.64
337.636	-38.36
337.849	-27.13
338.062	-18.79
338.274	4.3
338.487	-0.55
338.7	-20.2
338.913	-14.49
339.125	-25.55
339.338	-32.95
339.551	-24.86
339.763	-14.77
339.976	-14.47
340.189	-17.54
340.402	-20.37
340.614	-2.56
340.827	6.84
341.039	0.78
341.252	9.07
341.465	-0.41
341.677	-1.92
341.89	-10.62
342.102	9.58
342.315	11.15
342.527	19.99
342.74	-3.73
342.952	-5.55
343.165	-25.12
343.377	-11.5
343.59	-13.13
343.802	0.05
344.015	5.29
344.227	11.18
344.44	-3.59
344.652	6.33
344.864	12.06
345.077	25.66
345.289	22.16
345.502	37.45
345.714	26.21
345.926	18.84
346.139	-15.36
346.351	-1.07
346.563	1.37
346.775	5.79
346.988	10.28
347.2	16.01
347.412	0.05
347.624	-10.94
347.837	-14.67
348.049	-14.51
348.261	-29.71
348.473	-41.62
348.685	-56.82
348.897	-68.05
349.11	-56.31
349.322	-27.49
349.534	-25.23
349.746	-12.97
349.958	-16.61
350.17	-36.01
350.382	-29.99
350.594	-18.96
350.806	2.9
351.018	11.46
351.23	34.69
351.442	28.34
351.654	26.08
351.866	16.56
352.078	25.82
352.29	10.96
352.502	16.07
352.714	12.77
352.926	7.38
353.138	-9.9
353.35	-11.11
353.561	-14.3
353.773	-6.31
353.985	8.86
354.197	13.08
354.409	15.96
354.621	10.47
354.832	9.46
355.044	-13.67
355.256	-6.73
355.468	-25.24
355.679	-0.75
355.891	-0.46
356.103	-3.99
356.314	-15.43
356.526	-19.48
356.738	-47.74
356.949	-49.86
357.161	-31.11
357.373	-18.17
357.584	-3.66
357.796	17.14
358.008	14.44
358.219	-0.68
358.431	-13.17
358.642	-12.05
358.854	-24.26
359.065	-32.2
359.277	-17.78
359.488	-19.62
359.7	-24.12
359.911	-41.59
360.123	-21.34
360.334	-27.34
360.546	-29.94
360.757	-25.65
360.969	-15.85
361.18	-31.42
361.391	-12.69
361.603	1.12
361.814	-4.32
362.025	7.31
362.237	13.11
362.448	1.97
362.659	-16.47
362.871	-28.89
363.082	-29.02
363.293	-52.1
363.504	-63.63
363.716	-47.2
363.927	-23.39
364.138	-59.4
364.349	-58.12
364.56	-56.32
364.772	-32.56
364.983	-29.26
365.194	-16.88
365.405	-5.32
365.616	-4.11
365.827	-24.68
366.038	-17.99
366.25	-3.99
366.461	-0.34
366.672	4.25
366.883	15.34
367.094	11.47
367.305	5.03
367.516	-5.09
367.727	-3.28
367.938	-11.9
368.149	-20.31
368.36	-22.18
368.571	-44.19
368.781	-61.24
368.992	-48.14
369.203	-39.61
369.414	-44.77
369.625	-25.43
369.836	5.53
370.047	7.79
370.258	13.49
370.468	6.81
370.679	8.12
370.89	-25.89
371.101	-2.47
371.312	-17.96
371.522	-14.36
371.733	-13.04
371.944	-14.57
372.155	-29.22
372.365	-17.41
372.576	2.04
372.787	13.58
372.997	23.94
373.208	14.95
373.419	19
373.629	7.34
373.84	-13.94
374.05	-21.83
374.261	-34.14
374.472	-25.52
374.682	-27.07
374.893	-18.08
375.103	-2.68
375.314	8.76
375.524	0.04
375.735	6.87
375.945	4.23
376.156	7.39
376.366	7.84
376.577	8.22
376.787	5.14
376.997	18.02
377.208	12.26
377.418	3.48
377.629	6.35
377.839	8.11
378.049	-1.29
378.26	-10.41
378.47	-18.23
378.68	-15.87
378.89	-16.2
379.101	-16.75
379.311	-7.11
379.521	1.14
379.732	-4.86
379.942	1.07
380.152	-0.29
380.362	-3.7
380.572	7.18
380.783	16.57
380.993	4.53
381.203	2.94
381.413	-1.98
381.623	1.26
381.833	-2.68
382.043	2.7
382.253	10.58
382.463	20.45
382.674	15.78
382.884	17.23
383.094	14.73
383.304	17.89
383.514	16.07
383.724	6.06
383.934	-1.79
384.144	1.96
384.353	0.63
384.563	-8.35
384.773	1.36
384.983	-2.86
385.193	-9.69
385.403	-9.49
385.613	-3.81
385.823	-9.34
386.033	-7.37
386.242	-5.9
386.452	-11.63
386.662	-8.81
386.872	-2.46
387.082	-4.28
387.291	-4.87
387.501	0.68
387.711	-0.1
387.921	2.21
388.13	7.2
388.34	10.88
388.55	2.72
388.759	-2.29
388.969	-9.04
389.179	-7.68
389.388	-13.35
389.598	-10.38
389.807	-13.68
390.017	-12.07
390.227	-13.55
390.436	-6.58
390.646	-5.37
390.855	0.41
391.065	0.93
391.274	0.93
391.484	-2.32
391.693	-3.37
391.903	-4.31
392.112	-5.43
392.322	-5.1
392.531	-4.17
392.74	-3.38
392.95	-2.73
393.159	-2.43
393.369	-2.11
393.578	-2.17
393.787	-1.31
393.997	-1.69
394.206	-0.82
394.415	0.07
394.625	-0.01
394.834	-1.4
395.043	-0.35
395.252	2.05
395.462	2.75
395.671	3.57
395.88	5.05
396.089	4.34
396.298	2.23
396.508	1.56
396.717	0.8
396.926	0.39
397.135	0.75
397.344	0.59
397.553	0.61
397.762	1.37
397.971	1.41
398.181	1.39
398.39	1.66
398.599	1.71
398.808	1.47
399.017	2.45
399.226	2.44
399.435	2.37
399.644	2.51
399.853	2.62
400.062	2.04
400.27	2.21
400.479	2.76
400.688	2.76
400.897	2.64
401.106	2.73
401.315	2.73
401.524	2.58
401.733	2.52
401.941	2.87
402.15	2.64
402.359	2.83
402.568	2.98
402.777	3.03
402.985	2.68
403.194	2.68
403.403	2.62
403.612	2.19
403.82	1.87
404.029	1.91
404.238	2.01
404.446	1.91
404.655	2
404.864	2.29
405.072	2.37
405.281	2.22
405.489	2.09
405.698	2.25
405.906	2.23
406.115	2.03
406.324	2.13
406.532	2.34
406.741	2.27
406.949	2.27
407.158	2.51
407.366	2.43
407.574	2.51
407.783	2.55
407.991	2.41
408.2	2.6
408.408	2.65
408.617	2.55
408.825	2.48
409.033	2.58
409.242	2.34
409.45	2.33
409.658	2.2
409.867	2.2
410.075	2.37
410.283	2.29
410.491	2.24
410.7	2.25
410.908	2.41
411.116	2.32
411.324	2.42
411.533	2.35
411.741	2.28
411.949	2.13
412.157	1.94
412.365	1.99
412.573	2.04
412.781	1.96
412.99	2.04
413.198	2.12
413.406	2.06
413.614	2.19
413.822	2.43
414.03	2.38
414.238	2.46
414.446	2.51
414.654	2.4
414.862	2.35
415.07	2.25
415.278	2.28
415.486	2.03
415.694	2.09
415.902	2.03
416.109	2.07
416.317	1.98
416.525	2.02
416.733	1.88
416.941	1.91
417.149	1.8
417.357	1.8
417.564	1.81
417.772	1.86
417.98	1.72
418.188	1.81
418.395	1.62
418.603	1.64
418.811	1.57
419.019	1.7
419.226	1.76
419.434	1.88
419.642	1.64
419.849	1.68
420.057	1.65
420.265	1.61
420.472	1.45
420.68	1.65
420.887	1.64
421.095	1.64
421.302	1.56
421.51	1.58
421.717	1.66
421.925	1.77
422.132	1.87
422.34	1.69
422.547	1.66
422.755	1.54
422.962	1.55
423.17	1.22
423.377	1.41
423.585	1.72
423.792	1.69
423.999	1.59
424.207	1.69
424.414	1.8
424.621	1.71
424.829	1.86
425.036	1.91
425.243	2.12
425.451	2.04
425.658	2
425.865	2.01
426.072	2.05
426.28	2.03
426.487	2.13
426.694	2.06
426.901	2.16
427.108	2.1
427.315	2.03
427.523	1.75
427.73	1.7
427.937	1.37
428.144	1.35
428.351	1.34
428.558	1.56
428.765	1.57
428.972	1.71
429.179	1.61
429.386	1.69
429.593	1.52
429.8	1.71
430.007	1.71
430.214	1.65
430.421	1.74
430.628	1.88
430.835	1.82
431.042	1.8
431.249	2.07
431.456	2.05
431.662	2.21
431.869	2.45
432.076	2.53
432.283	2.55
432.49	2.46
432.697	2.29
432.903	2.08
433.11	2.23
433.317	2.19
433.524	2.16
433.73	2.27
433.937	2.34
434.144	2.1
434.35	1.99
434.557	2.14
434.764	2.14
434.97	2.02
435.177	2.17
435.384	2.38
435.59	2.41
435.797	2.41
436.003	2.53
436.21	2.42
436.416	2.37
436.623	2.33
436.829	2.25
437.036	2.17
437.242	2.29
437.449	2.24
437.655	2.38
437.862	2.51
438.068	2.56
438.275	2.63
438.481	2.66
438.687	2.52
438.894	2.58
439.1	2.59
439.307	2.68
439.513	2.76
439.719	2.79
439.926	2.9
440.132	3.03
440.338	2.97
440.544	2.99
440.751	2.9
440.957	2.76
441.163	2.68
441.369	2.74
441.575	2.67
441.782	2.79
441.988	2.81
442.194	2.8
442.4	2.64
442.606	2.89
442.812	2.95
443.018	2.91
443.224	2.98
443.431	2.99
443.637	2.76
443.843	2.73
444.049	2.8
444.255	2.84
444.461	2.87
444.667	2.95
444.873	2.95
445.079	2.9
445.284	2.94
445.49	2.98
445.696	2.96
445.902	3.01
446.108	3.06
446.314	2.95
446.52	3.12
446.726	3.18
446.931	3.12
447.137	3.16
447.343	3.27
447.549	3.19
447.755	3.2
447.96	3.25
448.166	3.3
448.372	3.25
448.578	3.14
448.783	3.09
448.989	3.12
449.195	3.07
449.4	3.14
449.606	3.26
449.812	3.23
450.017	3.3
450.223	3.28
450.428	3.29
450.634	3.26
450.84	3.24
451.045	3.17
451.251	3.28
451.456	3.25
451.662	3.34
451.867	3.44
452.073	3.49
452.278	3.5
452.483	3.52
452.689	3.45
452.894	3.5
453.1	3.46
453.305	3.37
453.51	3.34
453.716	3.37
453.921	3.38
454.127	3.41
454.332	3.45
454.537	3.47
454.742	3.5
454.948	3.49
455.153	3.55
455.358	3.51
455.563	3.58
455.769	3.5
455.974	3.47
456.179	3.4
456.384	3.49
456.589	3.44
456.795	3.46
457	3.46
457.205	3.44
457.41	3.48
457.615	3.44
457.82	3.55
458.025	3.59
458.23	3.64
458.435	3.66
458.64	3.68
458.845	3.7
459.05	3.68
459.255	3.7
459.46	3.6
459.665	3.62
459.87	3.55
460.075	3.59
460.28	3.64
460.485	3.8
460.69	3.8
460.895	3.9
461.099	3.86
461.304	3.69
461.509	3.64
461.714	3.78
461.919	3.76
462.123	3.84
462.328	3.89
462.533	3.78
462.738	3.73
462.942	3.65
463.147	3.69
463.352	3.76
463.556	3.9
463.761	3.84
463.966	3.84
464.17	3.86
464.375	3.97
464.58	3.89
464.784	3.88
464.989	3.99
465.193	3.93
465.398	3.94
465.602	4.03
465.807	4.11
466.011	4.1
466.216	4.09
466.42	4.1
466.625	4.12
466.829	4.11
467.034	4.18
467.238	4.38
467.443	4.37
467.647	4.37
467.851	4.38
468.056	4.34
468.26	4.21
468.464	4.2
468.669	4.27
468.873	4.3
469.077	4.29
469.282	4.33
469.486	4.29
469.69	4.27
469.894	4.32
470.099	4.3
470.303	4.3
470.507	4.42
470.711	4.31
470.915	4.35
471.119	4.51
471.324	4.57
471.528	4.51
471.732	4.73
471.936	4.7
472.14	4.7
472.344	4.76
472.548	4.81
472.752	4.75
472.956	4.73
473.16	4.67
473.364	4.55
473.568	4.54
473.772	4.44
473.976	4.56
474.18	4.58
474.384	4.66
474.588	4.77
474.792	4.85
474.995	4.85
475.199	4.89
475.403	4.92
475.607	4.81
475.811	4.85
476.015	4.78
476.218	4.73
476.422	4.72
476.626	4.81
476.83	4.8
477.033	4.94
477.237	5.01
477.441	4.97
477.644	5
477.848	5.05
478.052	4.98
478.255	5
478.459	5
478.663	5.03
478.866	5
479.07	4.92
479.273	4.95
479.477	5.01
479.681	4.94
479.884	4.95
480.088	5.02
480.291	4.94
480.495	4.92
480.698	4.93
480.901	4.93
481.105	4.98
481.308	4.99
481.512	5.02
481.715	5.14
481.919	5.23
482.122	5.18
482.325	5.24
482.529	5.22
482.732	5.07
482.935	5.01
483.138	5.02
483.342	5.01
483.545	5.12
483.748	5.19
483.952	5.24
484.155	5.34
484.358	5.4
484.561	5.32
484.764	5.26
484.967	5.27
485.171	5.28
485.374	5.22
485.577	5.21
485.78	5.3
485.983	5.22
486.186	5.15
486.389	5.16
486.592	5.18
486.795	5.24
486.998	5.21
487.201	5.26
487.404	5.39
487.607	5.37
487.81	5.28
488.013	5.34
488.216	5.33
488.419	5.22
488.622	5.15
488.825	5.17
489.028	5.14
489.231	5.08
489.433	5.08
489.636	5.19
489.839	5.22
490.042	5.27
490.245	5.27
490.447	5.22
490.65	5.19
490.853	5.17
491.056	5.16
491.258	5.22
491.461	5.31
491.664	5.3
491.866	5.27
492.069	5.26
492.272	5.21
492.474	5.17
492.677	5.2
492.879	5.22
493.082	5.24
493.285	5.33
493.487	5.3
493.69	5.24
493.892	5.2
494.095	5.18
494.297	5.16
494.5	5.21
494.702	5.25
494.905	5.29
495.107	5.3
495.309	5.3
495.512	5.29
495.714	5.32
495.917	5.37
496.119	5.4
496.321	5.41
496.524	5.35
496.726	5.33
496.928	5.25
497.13	5.19
497.333	5.12
497.535	5.15
497.737	5.16
497.939	5.16
498.142	5.2
498.344	5.28
498.546	5.27
498.748	5.3
498.95	5.36
499.152	5.39
499.355	5.32
499.557	5.37
499.759	5.44
499.961	5.41
500.163	5.38
500.365	5.46
500.567	5.44
500.769	5.39
500.971	5.4
501.173	5.35
501.375	5.37
501.577	5.36
501.779	5.3
501.981	5.31
502.183	5.33
502.385	5.3
502.587	5.27
502.788	5.34
502.99	5.32
503.192	5.33
503.394	5.36
503.596	5.36
503.798	5.33
503.999	5.33
504.201	5.34
504.403	5.31
504.605	5.34
504.806	5.42
505.008	5.42
505.21	5.36
505.411	5.35
505.613	5.38
505.815	5.29
506.016	5.36
506.218	5.46
506.42	5.47
506.621	5.5
506.823	5.57
507.024	5.48
507.226	5.49
507.427	5.51
507.629	5.52
507.83	5.49
508.032	5.49
508.233	5.49
508.435	5.47
508.636	5.45
508.838	5.44
509.039	5.49
509.24	5.47
509.442	5.48
509.643	5.44
509.845	5.46
510.046	5.48
510.247	5.5
510.448	5.49
510.65	5.55
510.851	5.59
511.052	5.56
511.254	5.65
511.455	5.67
511.656	5.64
511.857	5.61
512.058	5.64
512.26	5.53
512.461	5.54
512.662	5.54
512.863	5.5
513.064	5.5
513.265	5.48
513.466	5.55
513.667	5.57
513.868	5.57
514.069	5.52
514.27	5.54
514.471	5.45
514.672	5.48
514.873	5.45
515.074	5.49
515.275	5.49
515.476	5.55
515.677	5.53
515.878	5.64
516.079	5.62
516.28	5.66
516.481	5.62
516.682	5.62
516.882	5.6
517.083	5.58
517.284	5.6
517.485	5.67
517.686	5.68
517.886	5.62
518.087	5.69
518.288	5.62
518.488	5.58
518.689	5.58
518.89	5.65
519.091	5.65
519.291	5.62
519.492	5.65
519.692	5.64
519.893	5.63
520.094	5.58
520.294	5.66
520.495	5.61
520.695	5.63
520.896	5.62
521.096	5.7
521.297	5.68
521.497	5.72
521.698	5.75
521.898	5.77
522.099	5.72
522.299	5.73
522.499	5.72
522.7	5.69
522.9	5.67
523.101	5.63
523.301	5.69
523.501	5.69
523.702	5.66
523.902	5.66
524.102	5.84
524.302	5.79
524.503	5.81
524.703	5.8
524.903	5.82
525.103	5.7
525.304	5.74
525.504	5.77
525.704	5.79
525.904	5.73
526.104	5.75
526.304	5.74
526.504	5.71
526.705	5.7
526.905	5.81
527.105	5.85
527.305	5.8
527.505	5.78
527.705	5.78
527.905	5.78
528.105	5.78
528.305	5.79
528.505	5.83
528.705	5.88
528.905	5.88
529.105	5.9
529.304	5.92
529.504	5.98
529.704	5.99
529.904	6.01
530.104	5.96
530.304	5.98
530.503	5.98
530.703	5.91
530.903	5.86
531.103	5.89
531.303	5.87
531.502	5.86
531.702	5.9
531.902	5.93
532.101	5.95
532.301	5.98
532.501	6.06
532.7	6.12
532.9	6.12
533.1	6.15
533.299	6.15
533.499	6.09
533.698	6.06
533.898	6.11
534.097	6.12
534.297	6.12
534.496	6.09
534.696	6.12
534.895	6.11
535.095	6.13
535.294	6.19
535.494	6.24
535.693	6.22
535.892	6.2
536.092	6.15
536.291	6.15
536.491	6.1
536.69	6.14
536.889	6.14
537.088	6.16
537.288	6.14
537.487	6.22
537.686	6.17
537.886	6.16
538.085	6.13
538.284	6.15
538.483	6.12
538.682	6.15
538.882	6.14
539.081	6.19
539.28	6.21
539.479	6.18
539.678	6.21
539.877	6.31
540.076	6.3
540.275	6.26
540.474	6.32
540.673	6.37
540.872	6.36
541.071	6.38
541.27	6.44
541.469	6.39
541.668	6.38
541.867	6.39
542.066	6.44
542.265	6.52
542.464	6.62
542.663	6.7
542.862	6.82
543.06	6.86
543.259	6.92
543.458	6.95
543.657	6.92
543.856	6.88
544.054	6.88
544.253	6.88
544.452	6.91
544.651	6.94
544.849	6.96
545.048	6.97
545.247	6.96
545.445	6.94
545.644	6.96
545.843	6.96
546.041	6.97
546.24	6.94
546.438	6.98
546.637	7.05
546.836	7.08
547.034	7.17
547.233	7.24
547.431	7.23
547.63	7.18
547.828	7.22
548.027	7.22
548.225	7.21
548.423	7.29
548.622	7.35
548.82	7.34
549.019	7.34
549.217	7.4
549.415	7.4
549.614	7.52
549.812	7.58
550.01	7.65
550.209	7.77
550.407	7.81
550.605	7.74
550.803	7.78
551.002	7.8
551.2	7.78
551.398	7.86
551.596	7.98
551.794	8.04
551.993	8.1
552.191	8.15
552.389	8.22
552.587	8.22
552.785	8.22
552.983	8.28
553.181	8.35
553.379	8.38
553.577	8.45
553.775	8.55
553.973	8.65
554.171	8.69
554.369	8.77
554.567	8.87
554.765	8.88
554.963	8.86
555.161	8.9
555.359	8.95
555.557	8.98
555.755	9.1
555.952	9.23
556.15	9.33
556.348	9.37
556.546	9.48
556.744	9.51
556.941	9.5
557.139	9.56
557.337	9.65
557.535	9.63
557.732	9.67
557.93	9.87
558.128	9.91
558.325	9.99
558.523	10.12
558.721	10.28
558.918	10.32
559.116	10.43
559.313	10.52
559.511	10.57
559.708	10.58
559.906	10.64
560.104	10.67
560.301	10.66
560.498	10.74
560.696	10.85
560.893	10.92
561.091	11.03
561.288	11.27
561.486	11.32
561.683	11.39
561.88	11.55
562.078	11.62
562.275	11.61
562.473	11.72
562.67	11.76
562.867	11.76
563.064	11.89
563.262	11.96
563.459	12.11
563.656	12.24
563.853	12.32
564.051	12.34
564.248	12.42
564.445	12.4
564.642	12.45
564.839	12.54
565.036	12.74
565.234	12.84
565.431	13.03
565.628	13.1
565.825	13.14
566.022	13.19
566.219	13.23
566.416	13.18
566.613	13.32
566.81	13.43
567.007	13.4
567.204	13.47
567.401	13.58
567.598	13.66
567.795	13.68
567.991	13.73
568.188	13.81
568.385	13.88
568.582	13.9
568.779	14.03
568.976	14.09
569.172	14.13
569.369	14.13
569.566	14.16
569.763	14.1
569.96	14.18
570.156	14.25
570.353	14.33
570.55	14.4
570.746	14.48
570.943	14.47
571.14	14.5
571.336	14.48
571.533	14.52
571.729	14.63
571.926	14.7
572.123	14.78
572.319	14.95
572.516	14.97
572.712	14.95
572.909	14.95
573.105	15.01
573.302	14.9
573.498	14.91
573.695	14.94
573.891	14.92
574.087	14.73
574.284	14.85
574.48	14.89
574.677	14.84
574.873	14.94
575.069	15.17
575.266	15.19
575.462	15.16
575.658	15.22
575.854	15.22
576.051	15.2
576.247	15.13
576.443	15.13
576.639	15.12
576.835	15.14
577.032	15.12
577.228	15.22
577.424	15.3
577.62	15.26
577.816	15.18
578.012	15.18
578.208	15.13
578.404	15.11
578.6	15.14
578.796	15.19
578.993	15.26
579.189	15.32
579.384	15.29
579.58	15.25
579.776	15.24
579.972	15.19
580.168	15.1
580.364	15.16
580.56	15.16
580.756	15.09
580.952	15.07
581.148	15.18
581.343	15.17
581.539	15.25
581.735	15.4
581.931	15.31
582.127	15.21
582.322	15.18
582.518	15.06
582.714	14.96
582.909	14.98
583.105	14.99
583.301	14.97
583.496	15
583.692	14.97
583.888	14.95
584.083	14.94
584.279	14.87
584.474	14.92
584.67	14.86
584.866	14.97
585.061	14.94
585.257	14.95
585.452	14.92
585.648	14.93
585.843	14.82
586.039	14.82
586.234	14.86
586.429	14.73
586.625	14.8
586.82	14.79
587.015	14.77
587.211	14.76
587.406	14.85
587.601	14.9
587.797	14.89
587.992	14.9
588.187	14.87
588.383	14.93
588.578	14.89
588.773	14.92
588.968	14.98
589.163	15.07
589.359	14.99
589.554	14.99
589.749	15.03
589.944	15.08
590.139	15.05
590.334	15.15
590.529	15.24
590.724	15.32
590.919	15.3
591.114	15.39
591.309	15.41
591.504	15.37
591.699	15.31
591.894	15.26
592.089	15.24
592.284	15.3
592.479	15.35
592.674	15.42
592.869	15.47
593.064	15.56
593.259	15.61
593.454	15.64
593.648	15.64
593.843	15.8
594.038	15.81
594.233	15.75
594.428	15.84
594.622	15.98
594.817	16.1
595.012	16.12
595.206	16.25
595.401	16.38
595.596	16.44
595.79	16.37
595.985	16.38
596.18	16.42
596.374	16.41
596.569	16.48
596.763	16.59
596.958	16.75
597.153	16.84
597.347	16.83
597.542	16.87
597.736	16.93
597.931	16.99
598.125	17.07
598.319	17.24
598.514	17.24
598.708	17.32
598.903	17.38
599.097	17.43
599.291	17.42
599.486	17.54
599.68	17.63
599.874	17.7
600.069	17.82
600.263	17.97
600.457	18.07
600.651	18.08
600.846	18.11
601.04	18.05
601.234	18.02
601.428	17.97
601.622	18.07
601.817	18.09
602.011	18.16
602.205	18.26
602.399	18.26
602.593	18.17
602.787	18.15
602.981	18.24
603.175	18.3
603.369	18.3
603.563	18.35
603.757	18.38
603.951	18.34
604.145	18.22
604.339	18.3
604.533	18.33
604.727	18.29
604.921	18.24
605.115	18.24
605.309	18.17
605.502	18.18
605.696	18.24
605.89	18.27
606.084	18.23
606.278	18.18
606.471	18.04
606.665	17.9
606.859	17.82
607.053	17.82
607.246	17.83
607.44	17.76
607.634	17.79
607.827	17.66
608.021	17.56
608.214	17.43
608.408	17.44
608.602	17.35
608.795	17.42
608.989	17.4
609.182	17.4
609.376	17.34
609.569	17.32
609.763	17.17
609.956	17.17
610.15	17.11
610.343	17.02
610.537	16.95
610.73	16.83
610.923	16.73
611.117	16.74
611.31	16.65
611.504	16.57
611.697	16.62
611.89	16.55
612.083	16.33
612.277	16.31
612.47	16.24
612.663	16.12
612.856	15.98
613.05	16.02
613.243	15.88
613.436	15.87
613.629	15.84
613.822	15.89
614.015	15.74
614.209	15.71
614.402	15.57
614.595	15.48
614.788	15.33
614.981	15.31
615.174	15.23
615.367	15.15
615.56	15.05
615.753	15.1
615.946	15.03
616.139	15.03
616.332	15.03
616.525	15
616.718	14.9
616.911	14.83
617.103	14.8
617.296	14.78
617.489	14.7
617.682	14.65
617.875	14.7
618.067	14.64
618.26	14.59
618.453	14.65
618.646	14.63
618.838	14.56
619.031	14.48
619.224	14.37
619.417	14.35
619.609	14.29
619.802	14.27
619.994	14.34
620.187	14.31
620.38	14.23
620.572	14.18
620.765	14.15
620.957	14.01
621.15	14.01
621.342	13.99
621.535	14.02
621.727	13.93
621.92	13.98
622.112	14.01
622.305	14.02
622.497	13.93
622.69	13.91
622.882	13.87
623.074	13.91
623.267	13.88
623.459	13.87
623.651	13.9
623.844	13.96
624.036	13.86
624.228	13.82
624.42	13.86
624.613	13.82
624.805	13.73
624.997	13.75
625.189	13.75
625.381	13.68
625.574	13.66
625.766	13.6
625.958	13.54
626.15	13.5
626.342	13.5
626.534	13.48
626.726	13.52
626.918	13.47
627.11	13.44
627.302	13.43
627.494	13.37
627.686	13.3
627.878	13.28
628.07	13.24
628.262	13.22
628.454	13.24
628.646	13.2
628.838	13.22
629.029	13.19
629.221	13.11
629.413	13.05
629.605	12.99
629.797	12.9
629.989	12.83
630.18	12.86
630.372	12.8
630.564	12.86
630.755	12.81
630.947	12.77
631.139	12.66
631.33	12.69
631.522	12.64
631.714	12.62
631.905	12.64
632.097	12.64
632.289	12.56
632.48	12.54
632.672	12.56
632.863	12.52
633.055	12.55
633.246	12.58
633.438	12.58
633.629	12.55
633.821	12.56
634.012	12.48
634.203	12.42
634.395	12.34
634.586	12.38
634.777	12.41
634.969	12.42
635.16	12.38
635.351	12.37
635.543	12.31
635.734	12.23
635.925	12.28
636.117	12.34
636.308	12.44
636.499	12.44
636.69	12.49
636.881	12.37
637.073	12.4
637.264	12.23
637.455	12.16
637.646	12.12
637.837	12.16
638.028	12.06
638.219	12.23
638.41	12.27
638.601	12.28
638.792	12.28
638.983	12.33
639.174	12.22
639.365	12.25
639.556	12.14
639.747	12.14
639.938	12.18
640.129	12.16
640.32	12.08
640.511	12.14
640.701	12.2
640.892	12.09
641.083	12.02
641.274	12.07
641.465	12.12
641.655	12.01
641.846	12.07
642.037	12.08
642.228	11.89
642.418	11.74
642.609	11.79
642.8	11.72
642.99	11.77
643.181	11.83
643.372	11.88
643.562	11.75
643.753	11.71
643.943	11.57
644.134	11.6
644.324	11.61
644.515	11.61
644.705	11.61
644.896	11.66
645.086	11.55
645.277	11.55
645.467	11.53
645.658	11.46
645.848	11.46
646.038	11.55
646.229	11.51
646.419	11.45
646.61	11.55
646.8	11.54
646.99	11.45
647.18	11.41
647.371	11.47
647.561	11.35
647.751	11.3
647.941	11.28
648.132	11.3
648.322	11.26
648.512	11.28
648.702	11.31
648.892	11.3
649.082	11.33
649.272	11.25
649.462	11.21
649.653	11.16
649.843	11.18
650.033	11.13
650.223	11.2
650.413	11.24
650.603	11.23
650.793	11.19
650.983	11.1
651.172	11.06
651.362	10.96
651.552	10.95
651.742	10.91
651.932	10.93
652.122	11.02
652.312	11.04
652.502	10.94
652.691	10.91
652.881	10.86
653.071	10.65
653.261	10.6
653.45	10.56
653.64	10.49
653.83	10.39
654.019	10.33
654.209	10.25
654.399	10.18
654.588	10.04
654.778	9.94
654.968	9.84
655.157	9.76
655.347	9.65
655.536	9.61
655.726	9.48
655.915	9.42
656.105	9.3
656.294	9.2
656.484	9.08
656.673	9.04
656.863	9.04
657.052	8.9
657.241	8.83
657.431	8.78
657.62	8.76
657.809	8.48
657.999	8.49
658.188	8.38
658.377	8.26
658.567	8.15
658.756	8.1
658.945	8.02
659.134	7.97
659.324	7.82
659.513	7.66
659.702	7.58
659.891	7.48
660.08	7.28
660.269	7.25
660.458	7.2
660.648	7.07
660.837	7.03
661.026	6.91
661.215	6.79
661.404	6.66
661.593	6.71
661.782	6.52
661.971	6.46
662.16	6.38
662.349	6.26
662.538	6.07
662.726	5.97
662.915	6.03
663.104	5.97
663.293	6
663.482	5.96
663.671	6.01
663.86	5.93
664.048	5.96
664.237	5.94
664.426	5.95
664.615	5.87
664.803	5.82
664.992	5.64
665.181	5.6
665.369	5.44
665.558	5.37
665.747	5.43
665.935	5.49
666.124	5.44
666.312	5.56
666.501	5.66
666.69	5.64
666.878	5.62
667.067	5.52
667.255	5.47
667.444	5.44
667.632	5.42
667.82	5.41
668.009	5.5
668.197	5.54
668.386	5.47
668.574	5.41
668.762	5.39
668.951	5.4
669.139	5.33
669.327	5.34
669.516	5.37
669.704	5.4
669.892	5.26
670.08	5.31
670.269	5.27
670.457	5.19
670.645	5.08
670.833	5.22
671.021	5.26
671.21	5.28
671.398	5.4
671.586	5.58
671.774	5.61
671.962	5.61
672.15	5.66
672.338	5.65
672.526	5.65
672.714	5.67
672.902	5.69
673.09	5.81
673.278	5.88
673.466	5.92
673.654	5.96
673.842	6.07
674.03	6.04
674.218	6.05
674.405	6.07
674.593	6.08
674.781	6.06
674.969	6.13
675.157	6.12
675.344	6.12
675.532	6.12
675.72	6.17
675.908	6.17
676.095	6.14
676.283	6.29
676.471	6.33
676.658	6.39
676.846	6.39
677.033	6.53
677.221	6.46
677.409	6.59
677.596	6.61
677.784	6.71
677.971	6.79
678.159	6.9
678.346	6.81
678.534	6.86
678.721	6.89
678.909	6.89
679.096	6.92
679.283	6.98
679.471	7.04
679.658	7.03
679.846	7.04
680.033	7.15
680.22	7.38
680.408	7.26
680.595	7.3
680.782	7.38
680.969	7.45
681.157	7.45
681.344	7.59
681.531	7.68
681.718	7.84
681.905	7.84
682.093	7.93
682.28	8.06
682.467	8.2
682.654	8.28
682.841	8.46
683.028	8.44
683.215	8.74
683.402	8.79
683.589	8.89
683.776	8.95
683.963	9.21
684.15	9.13
684.337	9.33
684.524	9.36
684.711	9.54
684.898	9.57
685.085	9.66
685.271	9.89
685.458	10.17
685.645	10.28
685.832	10.38
686.019	10.65
686.205	10.8
686.392	11.04
686.579	11.24
686.766	11.69
686.952	11.88
687.139	12.13
687.326	12.28
687.512	12.42
687.699	12.68
687.886	12.92
688.072	13.15
688.259	13.47
688.445	14.02
688.632	14.21
688.818	14.66
689.005	15.05
689.191	15.55
689.378	15.97
689.564	16.47
689.751	16.95
689.937	17.53
690.124	17.97
690.31	18.24
690.496	18.75
690.683	19.3
690.869	19.76
691.055	20.33
691.242	21.14
691.428	21.64
691.614	22.24
691.8	22.81
691.987	23.6
692.173	24.3
692.359	25.09
692.545	25.81
692.731	26.38
692.918	26.64
693.104	27.23
693.29	27.76
693.476	28.39
693.662	29.26
693.848	30.11
694.034	30.85
694.22	31.66
694.406	32.31
694.592	33.17
694.778	33.98
694.964	34.65
695.15	35.54
695.336	36.23
695.522	36.9
695.708	37.66
695.894	38.34
696.08	39.12
696.265	40.16
696.451	40.84
696.637	41.62
696.823	42.5
697.009	43.17
697.194	43.79
697.38	44.67
697.566	45.36
697.751	46.27
697.937	47.2
698.123	47.92
698.308	48.35
698.494	49.33
698.68	49.93
698.865	50.23
699.051	50.81
699.236	51.61
699.422	52.11
699.607	52.98
699.793	54.23
699.978	55.07
700.164	55.87
700.349	56.55
700.535	56.92
700.72	57.21
700.906	57.83
701.091	58.48
701.276	58.85
701.462	59.52
701.647	60.1
701.832	60.72
702.018	61.39
702.203	62.43
702.388	63.09
702.573	63.74
702.759	64.06
702.944	64.4
703.129	64.76
703.314	64.79
703.499	65.43
703.684	66.27
703.87	66.64
704.055	67.31
704.24	67.89
704.425	68.04
704.61	68.48
704.795	69.2
704.98	69.34
705.165	70.07
705.35	70.5
705.535	70.77
705.72	71.08
705.905	71.82
706.09	72.2
706.275	72.5
706.459	72.92
706.644	73.32
706.829	73.48
707.014	73.76
707.199	74.24
707.384	74.46
707.568	74.62
707.753	74.87
707.938	75.11
708.123	75.52
708.307	75.85
708.492	76.53
708.677	76.43
708.861	76.63
709.046	76.62
709.231	76.55
709.415	76.54
709.6	76.96
709.784	77.55
709.969	78.11
710.153	78.52
710.338	78.98
710.522	79.39
710.707	78.97
710.891	79.06
711.076	79.39
711.26	79.29
711.445	79.65
711.629	80.21
711.813	80.65
711.998	81.19
712.182	81.24
712.366	81.59
712.551	81.97
712.735	82.02
712.919	82.06
713.103	82.9
713.288	82.76
713.472	83.05
713.656	83.09
713.84	83.22
714.024	82.77
714.208	82.4
714.393	82.33
714.577	82.67
714.761	82.8
714.945	83.1
715.129	83.92
715.313	84.26
715.497	83.91
715.681	83.75
715.865	83.95
716.049	83.92
716.233	83.51
716.417	83.89
716.601	84.27
716.785	84.29
716.968	84.16
717.152	84.48
717.336	84.59
717.52	84.48
717.704	84.77
717.888	84.9
718.071	84.93
718.255	85.45
718.439	86.05
718.622	85.97
718.806	86.28
718.99	86.14
719.174	85.77
719.357	85.72
719.541	86.2
719.724	86.38
719.908	86.71
720.092	86.81
720.275	86.72
720.459	86.19
720.642	85.83
720.826	86.06
721.009	85.97
721.193	85.38
721.376	85.83
721.559	86.35
721.743	87.07
721.926	87.17
722.11	88.36
722.293	88.82
722.476	88.76
722.66	88.72
722.843	89.38
723.026	89.26
723.21	89.01
723.393	89.04
723.576	88.62
723.759	88.46
723.942	88.32
724.126	88.39
724.309	88.36
724.492	87.95
724.675	87.88
724.858	88.05
725.041	88.14
725.224	89.1
725.407	89.7
725.59	89.75
725.774	89.54
725.957	89.36
726.14	88.53
726.322	88.68
726.505	88.93
726.688	89.06
726.871	89.49
727.054	89.88
727.237	89.52
727.42	89.66
727.603	89.66
727.786	89.48
727.968	88.7
728.151	88.75
728.334	88.68
728.517	89.09
728.699	88.87
728.882	89.86
729.065	89.82
729.248	90.18
729.43	89.68
729.613	89.63
729.796	89.8
729.978	90.47
730.161	90.06
730.343	90.86
730.526	91.5
730.708	91.19
730.891	91.3
731.073	91.65
731.256	91.32
731.438	91.17
731.621	91.08
731.803	90.74
731.986	90.66
732.168	91.06
732.35	91.54
732.533	91.8
732.715	91.9
732.898	91.75
733.08	91.74
733.262	91.32
733.444	91.45
733.627	92.18
733.809	92.55
733.991	92.25
734.173	91.78
734.355	91.78
734.538	91.71
734.72	91.68
734.902	91.94
735.084	92.25
735.266	92.59
735.448	92.47
735.63	92.42
735.812	92.63
735.994	93.02
736.176	92.98
736.358	93.06
736.54	94.05
736.722	94.21
736.904	94.15
737.086	93.84
737.268	93.7
737.45	93.64
737.632	93.65
737.814	93.81
737.995	94.34
738.177	94.27
738.359	93.48
738.541	93.06
738.723	93.42
738.904	92.87
739.086	93.15
739.268	93.16
739.449	93.68
739.631	93.28
739.813	92.64
739.994	92.12
740.176	92.36
740.358	92.8
740.539	92.81
740.721	93.32
740.902	93.66
741.084	94.25
741.265	93.56
741.447	94.31
741.628	94.84
741.81	94.96
741.991	94.94
742.172	94.05
742.354	93.72
742.535	93.96
742.717	92.86
742.898	92.28
743.079	93.51
743.261	93.18
743.442	91.71
743.623	92.44
743.804	92.04
743.986	91.05
744.167	91.26
744.348	91.22
744.529	91.09
744.71	91.37
744.891	91.94
745.073	91
745.254	91.65
745.435	91.68
745.616	91.67
745.797	91.12
745.978	91.78
746.159	91.79
746.34	92.42
746.521	93.17
746.702	94.04
746.883	94.1
747.064	94.48
747.245	94.17
747.426	93.66
747.606	93.93
747.787	93.83
747.968	93.17
748.149	92.71
748.33	92.14
748.51	90.65
748.691	90.63
748.872	92.52
749.053	92.24
749.233	92.27
749.414	92.91
749.595	92.57
749.775	90.42
749.956	90.19
750.137	90.32
750.317	89.19
750.498	88.91
750.678	89.5
750.859	90.57
751.04	90.67
751.22	90.4
751.4	90.68
751.581	91.21
751.761	92.34
751.942	91.47
752.122	92.61
752.303	92.72
752.483	92.71
752.663	91.27
752.844	92.23
753.024	92.85
753.204	93.4
753.385	93.98
753.565	93.49
753.745	92.44
753.925	91.54
754.106	92.12
754.286	90.79
754.466	91.49
754.646	91.93
754.826	93.43
755.006	92.37
755.187	93.81
755.367	92.9
755.547	93.47
755.727	91.86
755.907	91.56
756.087	89.32
756.267	89.01
756.447	88.11
756.627	88.76
756.807	90.09
756.987	91.1
757.167	90.98
757.346	90.85
757.526	90.69
757.706	89.05
757.886	89.4
758.066	91.18
758.246	91.49
758.425	89.32
758.605	89.52
758.785	89.46
758.965	88.62
759.144	88.57
759.324	92.08
759.504	92.54
759.683	92.04
759.863	92.86
760.043	92.75
760.222	91.72
760.402	90.75
760.581	91.92
760.761	90.92
760.94	91.92
761.12	90.62
761.299	91.87
761.479	90.84
761.658	89.84
761.838	89.57
762.017	90.73
762.197	89.86
762.376	90.2
762.555	91.1
762.735	90.11
762.914	91.09
763.093	90.15
763.273	90.03
763.452	89.47
763.631	88.76
763.81	88.02
763.99	89.02
764.169	88.23
764.348	88.33
764.527	88.62
764.706	88.04
764.885	88.07
765.064	88.73
765.243	87.77
765.423	89.36
765.602	90.21
765.781	88.72
765.96	87.26
766.139	88.37
766.318	88.16
766.497	85.97
766.676	85.67
766.854	86.39
767.033	86.36
767.212	87.12
767.391	88.9
767.57	92.56
767.749	92.09
767.928	92.15
768.106	90.5
768.285	89.55
768.464	87.84
768.643	87.97
768.821	88.44
769	89.2
769.179	89.09
769.357	89.38
769.536	89.68
769.715	88.6
769.893	86.55
770.072	85.48
770.25	84.03
770.429	84.88
770.607	85.98
770.786	87.07
770.964	89.62
771.143	92.01
771.321	90.7
771.5	90.15
771.678	89.79
771.857	87.6
772.035	86.63
772.213	85.37
772.392	83.54
772.57	83.21
772.748	83.22
772.927	83.2
773.105	85.53
773.283	86.53
773.461	87.92
773.64	87.45
773.818	86.78
773.996	86.44
774.174	85.62
774.352	84.04
774.531	84.59
774.709	85.15
774.887	83.85
775.065	85.24
775.243	86.03
775.421	85.75
775.599	86.14
775.777	86.64
775.955	85.73
776.133	85.58
776.311	86.08
776.489	85.83
776.667	86.08
776.844	86.37
777.022	85.05
777.2	85.51
777.378	83.68
777.556	85.85
777.734	87.93
777.911	89.43
778.089	90.08
778.267	90.77
778.445	90.46
778.622	89.74
778.8	85.87
778.978	87.31
779.155	88.89
779.333	86.33
779.511	85.18
779.688	88.87
779.866	87.7
780.043	88.02
780.221	89.89
780.398	89.28
780.576	90.01
780.753	87.42
780.931	86.22
781.108	86.94
781.286	89.14
781.463	88.44
781.64	88.56
781.818	90.66
781.995	86.9
782.172	85.08
782.35	87.55
782.527	88.36
782.704	82.53
782.882	81.69
783.059	81.39
783.236	81.21
783.413	83.34
783.59	87.53
783.768	86.44
783.945	85.83
784.122	82.16
784.299	80.37
784.476	78.05
784.653	79.96
784.83	80.36
785.007	80.98
785.184	81.07
785.361	80.92
785.538	79.58
785.715	80.55
785.892	81.54
786.069	81.38
786.246	81.5
786.423	84.42
786.6	82.63
786.776	81.56
786.953	79.98
787.13	80.38
787.307	78.13
787.484	77.48
787.66	77.18
787.837	76.34
788.014	76.1
788.191	76.92
788.367	75.8
788.544	75.2
788.721	76.81
788.897	79.84
789.074	81.02
789.25	81.18
789.427	80.05
789.603	77.24
789.78	73.55
789.956	70.64
790.133	71.2
790.309	72.49
790.486	72.77
790.662	72.12
790.839	74.49
791.015	75.8
791.192	74.08
791.368	75.25
791.544	80.26
791.721	78.52
791.897	77.7
792.073	76.58
792.249	75.91
792.426	73.3
792.602	77.04
792.778	77.88
792.954	81.04
793.13	81.78
793.307	80.18
793.483	74.97
793.659	76.01
793.835	76
794.011	79.4
794.187	81.48
794.363	82.08
794.539	83.78
794.715	84.68
794.891	80.82
795.067	79.98
795.243	79.99
795.419	79.1
795.595	84.18
795.771	85.13
795.947	82.67
796.122	79.73
796.298	77.31
796.474	77.11
796.65	79.48
796.826	79.16
797.001	84.41
797.177	78.38
797.353	70.82
797.529	69.68
797.704	69.99
797.88	69.49
798.056	73.24
798.231	75.06
798.407	70.89
798.582	71.34
798.758	74.61
798.934	75.7
799.109	74.52
799.285	78
799.46	77.83
799.636	73.42
799.811	74
799.986	70.74
800.162	65.95
800.337	69.34
800.513	66.96
800.688	59.69
800.863	70.68
801.039	74.11
801.214	68.4
801.389	70.91
801.565	73.07
801.74	66.15
801.915	69.71
802.09	69.12
802.265	69.81
802.441	72.5
802.616	70.54
802.791	69.7
802.966	77.37
803.141	76.62
803.316	79.32
803.491	81.19
803.666	78.59
803.841	72.86
804.016	69.94
804.191	64.45
804.366	63.22
804.541	66.11
804.716	62.33
804.891	65.49
805.066	70.06
805.241	66.77
805.416	71.11
805.591	79.34
805.765	86.84
805.94	84.64
806.115	85.73
806.29	80.71
806.464	78.69
806.639	72.73
806.814	76.13
806.989	78.5
807.163	83.04
807.338	80.24
807.512	82.75
807.687	80.3
807.862	77.92
808.036	75.19
808.211	76.53
808.385	71.98
808.56	65.16
808.734	56.38
808.909	55.41
809.083	56.41
809.258	62.95
809.432	69.96
809.606	87.77
809.781	85.47
809.955	81.27
810.13	73.65
810.304	73.56
810.478	67.31
810.652	68.4
810.827	72.09
811.001	73.33
811.175	72.08
811.349	73.92
811.524	76.34
811.698	71.26
811.872	74.17
812.046	71.29
812.22	73.29
812.394	66.97
812.568	68.52
812.742	64.46
812.916	66.97
813.09	66.21
813.264	64.64
813.438	68.36
813.612	65.28
813.786	67.9
813.96	70.62
814.134	69.99
814.308	63.41
814.482	68.52
814.656	63.03
814.83	60.01
815.003	65.06
815.177	66.77
815.351	68.08
815.525	72.37
815.698	64.07
815.872	46.24
816.046	40.27
816.219	39.1
816.393	35.12
816.567	36.11
816.74	46.4
816.914	48.33
817.088	47.8
817.261	44.55
817.435	54.55
817.608	51.87
817.782	50.65
817.955	55.55
818.129	58.83
818.302	60.54
818.475	63.96
818.649	60.95
818.822	50.12
818.996	58.52
819.169	48.7
819.342	51.28
819.516	53.84
819.689	56.99
819.862	49.03
820.035	50.07
820.209	42.37
820.382	38.83
820.555	41.04
820.728	43.79
820.901	39.92
821.075	50.53
821.248	60.78
821.421	73.47
821.594	67.5
821.767	66.79
821.94	55.99
822.113	55.14
822.286	53.19
822.459	63.18
822.632	76.08
822.805	89.03
822.978	89.39
823.151	74.85
823.324	48.59
823.496	38.91
823.669	43.04
823.842	44.97
824.015	52.69
824.188	66.1
824.361	70.01
824.533	64.51
824.706	59.29
824.879	61.82
825.051	71.53
825.224	66.19
825.397	56.42
825.569	58.78
825.742	52.6
825.915	57.26
826.087	57.47
826.26	56.89
826.432	46.54
826.605	47.77
826.777	40.29
826.95	42.99
827.122	46.72
827.295	69.27
827.467	76.64
827.64	60.74
827.812	64.9
827.984	78.16
828.157	59.47
828.329	55.79
828.501	60.32
828.674	60.97
828.846	55.43
829.018	48.43
829.19	38.13
829.363	46.38
829.535	43.38
829.707	26.56
829.879	19.06
830.051	13.57
830.223	22.06
830.395	19.79
830.568	29.95
830.74	42.6
830.912	64.81
831.084	62.01
831.256	56.56
831.428	62.98
831.6	52.96
831.772	35.38
831.943	12.1
832.115	13.46
832.287	15.19
832.459	29.51
832.631	35.14
832.803	43.95
832.975	55.5
833.146	48.04
833.318	46.54
833.49	48.03
833.662	63.68
833.833	37.93
834.005	54.86
834.177	60.23
834.348	55.99
834.52	48.93
834.692	46.21
834.863	38.19
835.035	28.35
835.206	47
835.378	42.45
835.549	54.7
835.721	53.16
835.892	55.56
836.064	44.22
836.235	35.2
836.407	27.31
836.578	20.27
836.749	4.84
836.921	-13.18
837.092	2.68
837.264	5.33
837.435	-2.24
837.606	27.09
837.777	29.09
837.949	40.75
838.12	48.7
838.291	58.85
838.462	57.6
838.633	67.26
838.805	57.17
838.976	46.95
839.147	50.52
839.318	51.84
839.489	42.03
839.66	56.3
839.831	60.58
840.002	49.97
840.173	59.24
840.344	54.79
840.515	32.56
840.686	31.99
840.857	41.57
841.028	28.65
841.199	28.26
841.369	44.42
841.54	51.6
841.711	63.36
841.882	56.28
842.053	70.89
842.223	68.86
842.394	63.39
842.565	41.16
842.736	41.53
842.906	29.15
843.077	33.14
843.248	40.42
843.418	51.47
843.589	35.92
843.759	50.24
843.93	47.96
844.101	27.18
844.271	35.85
844.442	57.32
844.612	49.05
844.783	36.34
844.953	51.27
845.123	39.98
845.294	45.05
845.464	28.35
845.635	46.67
845.805	15.85
845.975	21.13
846.146	5.34
846.316	21.44
846.486	13.31
846.656	20.99
846.827	18.93
846.997	36.87
847.167	39.59
847.337	52.08
847.507	45.6
847.677	37.36
847.848	37.02
848.018	37.24
848.188	35.65
848.358	42.92
848.528	45.07
848.698	19.05
848.868	27.63
849.038	17.18
849.208	5.94
849.378	10.52
849.548	3.97
849.718	-13.44
849.887	-39.2
850.057	-15.4
850.227	2.71
850.397	19.34
850.567	-6.5
850.737	19.13
850.906	-5.16
851.076	-1.1
851.246	20.83
851.415	23.56
851.585	22.5
851.755	40.99
851.924	36.65
852.094	22.25
852.264	13.92
852.433	-30.23
852.603	-44.2
852.772	-27.06
852.942	7.32
853.111	25.44
853.281	48.87
853.45	37.71
853.62	26.39
853.789	1.3
853.959	-8.23
854.128	-2.96
854.297	13.67
854.467	25.55
854.636	29.47
854.805	22.28
854.975	22.97
855.144	0.08
855.313	-41.1
855.482	-32.57
855.652	-26.55
855.821	-57.33
855.99	-12.09
856.159	-1.77
856.328	-29.55
856.497	0.77
856.667	10.42
856.836	-5.96
857.005	-10.77
857.174	30.05
857.343	15.11
857.512	8.85
857.681	22.07
857.85	17.87
858.019	-38.69
858.188	-46.33
858.356	2.78
858.525	6.52
858.694	6.77
858.863	22.76
859.032	25.66
859.201	-3.26
859.369	3.06
859.538	25.74
859.707	23.47
859.876	40.98
860.044	69.97
860.213	69.5
860.382	72.77
860.55	55.11
860.719	53.95
860.888	19.46
861.056	3.84
861.225	-1.24
861.393	20.69
861.562	8.76
861.73	20.2
861.899	16.52
862.067	8.12
862.236	-4.39
862.404	15.09
862.572	32.35
862.741	12.63
862.909	7.05
863.078	30.59
863.246	8.87
863.414	10.08
863.582	13.36
863.751	32.55
863.919	39.55
864.087	42.82
864.255	37.23
864.424	47.38
864.592	44
864.76	12.41
864.928	35.83
865.096	40.52
865.264	34.39
865.432	4.63
865.6	30.4
865.768	-19.37
865.936	-14.67
866.104	9.26
866.272	6.52
866.44	-7.71
866.608	27.04
866.776	33.09
866.944	29.32
867.112	7.23
867.28	27.08
867.448	35.04
867.615	23.96
867.783	5.11
867.951	26.88
868.119	6.51
868.286	-37.13
868.454	-16.92
868.622	-7.47
868.789	-12.58
868.957	8.13
869.125	10.4
869.292	-5.94
869.46	0.58
869.627	-32.54
869.795	-69.92
869.963	-44.76
870.13	-35
870.298	-17.14
870.465	12.3
870.632	9.79
870.8	2.07
870.967	-16.1
871.135	-20.1
871.302	-21.41
871.469	-4.42
871.637	1.96
871.804	31.58
871.971	3
872.139	30.77
872.306	-0.66
872.473	-28.84
872.64	-73.91
872.807	-32.09
872.975	-221.61
873.142	-47.29
873.309	-24.7
873.476	9.3
873.643	5.38
873.81	-7.86
873.977	-50.51
874.144	-28.09
874.311	-78
874.478	-104.69
874.645	-111.82
874.812	-5.1
874.979	-45.31
875.146	-66.02
875.313	-8.86
875.48	16.66
875.647	10.38
875.813	-0.72
875.98	0.14
876.147	-65.66
876.314	-5.86
876.481	-21.99
876.647	13.64
876.814	11.77
876.981	19.47
877.147	10.69
877.314	-0.82
877.481	-7.92
877.647	12.33
877.814	4.94
877.98	12.28
878.147	41.75
878.314	55.99
878.48	62.97
878.647	63.13
878.813	42.32
878.979	24.57
879.146	25.13
879.312	32.62
879.479	0.89
879.645	36.63
879.811	33.9
879.978	22.58
880.144	9.13
880.31	35.16
880.477	30.86
880.643	25.71
880.809	-0.93
880.975	-23.38
881.142	-46.36
881.308	272.41
881.474	479.66
881.64	-97.29
881.806	-73.95
881.972	-55.92
882.138	-18.35
882.304	-33.69
882.47	-55.63
882.636	-60.97
882.802	-45.8
882.968	-57.24
883.134	8.66
883.3	13.23
883.466	7.79
883.632	21.09
883.798	30.01
883.964	-2.8
884.129	-171.18
884.295	71.54
884.461	-47.59
884.627	-24.12
884.793	-54.45
884.958	6.82
885.124	6.02
885.29	18.83
885.455	25.39
885.621	66.63
885.787	47.33
885.952	-11.56
886.118	12.56
886.283	22.36
886.449	0.79
886.614	-16.31
886.78	-1.42
886.945	-59.25
887.111	-77.45
887.276	-90.3
887.442	-121.24
887.607	-52.6
887.773	5.25
887.938	27.35
888.103	13.99
888.269	22.54
888.434	19.52
888.599	12.77
888.764	20.62
888.93	40.1
889.095	20.07
889.26	-18.09
889.425	-28.64
889.59	-88.91
889.756	-116.7
889.921	-60.36
890.086	-57.56
890.251	7.64
890.416	-4.45
890.581	0.2
890.746	0.15
890.911	17.57
891.076	-0.45
891.241	9.37
891.406	-8.95
891.571	14.58
891.736	-14.84
891.901	64.78
892.065	68.03
892.23	98.85
892.395	43.57
892.56	6.8
892.725	-11.82
892.889	-137.03
893.054	-48.5
893.219	-79.55
893.384	-77.99
893.548	-172.24
893.713	-234.69
893.878	-362.83
