Data from Ofra_2a_PS_2H527_Reflection_3.txt Node
Date: Tue Jul 20 09:47:49 EDT 2021
User: Adam
Spectrometer: FLMT01687
Trigger mode: 0
Integration Time (sec): 9.450000E-1
Scans to average: 3
Electric dark correction enabled: true
Nonlinearity correction enabled: false
Boxcar width: 3
XAxis mode: Wavelengths
Number of Pixels in Spectrum: 3648
>>>>>Begin Spectral Data<<<<<
179.494	635.5
179.716	391.37
179.937	498.9
180.158	1816.41
180.38	-762.21
180.601	-157.81
180.823	-77.67
181.044	-127.29
181.265	-124.16
181.486	-11.57
181.708	-1089.13
181.929	-76.05
182.15	-255.68
182.372	-30.87
182.593	-32.36
182.814	220.06
183.035	247.31
183.257	123.9
183.478	58.19
183.699	52.26
183.92	39.72
184.141	48.66
184.363	37.11
184.584	29.08
184.805	33.09
185.026	34.47
185.247	24.33
185.468	26.71
185.689	16.21
185.91	24.32
186.132	25.63
186.353	0.07
186.574	6.53
186.795	-3.04
187.016	2.52
187.237	23.03
187.458	22.21
187.679	40.2
187.9	88.27
188.121	94.77
188.342	91.65
188.563	88.11
188.784	55.19
189.005	62.75
189.226	49.57
189.447	33.62
189.667	38.53
189.888	50.76
190.109	54.39
190.33	62.92
190.551	44.55
190.772	23.09
190.993	30.43
191.214	21.38
191.434	24.69
191.655	20.32
191.876	25.82
192.097	18.95
192.318	36.49
192.538	28.92
192.759	32.11
192.98	16.05
193.201	31.04
193.421	33.46
193.642	46.49
193.863	42.93
194.083	39.66
194.304	29.93
194.525	41.75
194.745	-1.69
194.966	-0.54
195.187	-6.09
195.407	-5.06
195.628	-1.89
195.848	0.78
196.069	-12.2
196.29	5.98
196.51	-4.92
196.731	9.15
196.951	9.32
197.172	3.97
197.392	15.36
197.613	6.8
197.833	3.3
198.054	2.3
198.274	-22.39
198.495	-19.7
198.715	-23.65
198.936	-48.38
199.156	-22.61
199.377	-6.81
199.597	0.25
199.817	24.79
200.038	27.24
200.258	28.04
200.479	27.95
200.699	25.14
200.919	21.44
201.14	17.21
201.36	17.12
201.58	23.87
201.801	27.02
202.021	24.52
202.241	35.08
202.461	34.57
202.682	46.55
202.902	37.16
203.122	28.02
203.342	45.25
203.563	54.89
203.783	45.63
204.003	42.6
204.223	40.05
204.443	42.33
204.663	45.57
204.884	30.94
205.104	27.75
205.324	34.34
205.544	36.38
205.764	28
205.984	35.82
206.204	25.73
206.424	35.47
206.644	25.62
206.864	31.84
207.084	36.86
207.304	34.38
207.525	25.57
207.745	44.34
207.964	44.54
208.184	46.13
208.404	29.43
208.624	12.3
208.844	17.59
209.064	29.33
209.284	19.26
209.504	25.42
209.724	7.13
209.944	1.51
210.164	19.46
210.384	25.51
210.604	10.11
210.823	4.13
211.043	-0.21
211.263	19.24
211.483	28.6
211.703	31.5
211.922	34.15
212.142	44.65
212.362	48.83
212.582	32.82
212.801	21.15
213.021	20.74
213.241	7.57
213.461	-5.18
213.68	-8.29
213.9	-6.18
214.12	3.29
214.339	15.59
214.559	10.73
214.779	28.74
214.998	29.37
215.218	23.77
215.438	39.38
215.657	35.81
215.877	41.19
216.096	43.21
216.316	24.35
216.535	24.45
216.755	8.06
216.974	-8.57
217.194	-15.92
217.413	-11.06
217.633	-16.14
217.852	-12.63
218.072	-15.73
218.291	25.83
218.511	25.92
218.73	26.78
218.95	24.37
219.169	34.2
219.389	28.27
219.608	26.55
219.827	12.99
220.047	8.48
220.266	12.73
220.485	7.81
220.705	0.32
220.924	9.47
221.143	3.86
221.363	3.2
221.582	5.9
221.801	9.63
222.021	8.65
222.24	-0.06
222.459	-10.05
222.678	-15.4
222.897	-18.62
223.117	-19.03
223.336	-17.19
223.555	-12.99
223.774	8.39
223.993	13.88
224.213	11.25
224.432	16.98
224.651	11.11
224.87	14.9
225.089	21.04
225.308	19.89
225.527	14.35
225.746	14.05
225.965	2.09
226.184	15.81
226.404	4.83
226.623	16.3
226.842	23.17
227.061	25.53
227.28	41.9
227.499	50.32
227.718	42.5
227.936	38.63
228.155	26.69
228.374	17.5
228.593	14.55
228.812	11.56
229.031	1.23
229.25	7.02
229.469	14.27
229.688	21.63
229.907	14.34
230.125	24.65
230.344	26.75
230.563	28.38
230.782	18.03
231.001	27.37
231.22	18.07
231.438	22.33
231.657	24.13
231.876	29.58
232.095	26.81
232.313	38.02
232.532	28.75
232.751	41.74
232.969	48.8
233.188	42.53
233.407	30.13
233.625	40.66
233.844	43.17
234.063	47.58
234.281	33.83
234.5	31.04
234.719	23.68
234.937	25.07
235.156	13.86
235.374	-7.02
235.593	-13.31
235.811	-15.37
236.03	-18.65
236.249	4.76
236.467	16.04
236.686	35.23
236.904	43.07
237.123	53.94
237.341	58.69
237.559	59.87
237.778	55.81
237.996	45.63
238.215	33.3
238.433	36.61
238.652	23.57
238.87	16.82
239.088	2.74
239.307	5.01
239.525	0.37
239.743	2.83
239.962	-2.3
240.18	4.41
240.398	3.83
240.617	22.71
240.835	18.6
241.053	32.64
241.271	36.11
241.49	31.12
241.708	24.53
241.926	19.87
242.144	18.65
242.363	24.88
242.581	17.29
242.799	-5.79
243.017	5.94
243.235	-5.59
243.453	4.88
243.672	2.98
243.89	5.27
244.108	17.15
244.326	22.68
244.544	20.21
244.762	29.43
244.98	24.14
245.198	11.26
245.416	8.16
245.634	8.12
245.852	16
246.07	15.93
246.288	8.35
246.506	15.97
246.724	24.95
246.942	29.15
247.16	11.44
247.378	-1.99
247.596	2.88
247.814	-0.51
248.032	-4.42
248.25	-5.2
248.468	-4.58
248.685	-1.75
248.903	5.65
249.121	-3.16
249.339	11.3
249.557	8.91
249.775	-2.28
249.992	-2.31
250.21	5
250.428	10.81
250.646	13.52
250.863	20.2
251.081	18.38
251.299	44.56
251.517	46.1
251.734	33.2
251.952	38.64
252.17	26.67
252.387	17.44
252.605	23.87
252.823	-0.56
253.04	0.06
253.258	4.85
253.475	3.23
253.693	23.76
253.911	24.98
254.128	22.62
254.346	24.57
254.563	20.6
254.781	15.01
254.998	10.86
255.216	7.65
255.433	7.98
255.651	-0.13
255.868	3.15
256.086	2.7
256.303	17.21
256.521	10.22
256.738	2.51
256.956	2
257.173	5.48
257.39	7.74
257.608	13.65
257.825	8.54
258.043	16.87
258.26	17.09
258.477	15.58
258.695	23.2
258.912	30.28
259.129	25.9
259.346	34.66
259.564	23.59
259.781	30.36
259.998	30.57
260.216	28.72
260.433	23.41
260.65	25.57
260.867	6.17
261.084	34.53
261.302	29.07
261.519	17.71
261.736	11.27
261.953	14.67
262.17	15.76
262.387	27.34
262.604	-0.06
262.822	7.52
263.039	12.23
263.256	13.57
263.473	10.25
263.69	4.9
263.907	2.29
264.124	15.33
264.341	1.57
264.558	12.33
264.775	16.77
264.992	15.06
265.209	20.33
265.426	20.02
265.643	18.12
265.86	25.8
266.077	21.77
266.294	23.61
266.51	25.55
266.727	21.56
266.944	9.69
267.161	7.76
267.378	15.53
267.595	10.44
267.812	-8.13
268.028	-4.63
268.245	-0.51
268.462	11.51
268.679	10.1
268.896	-2.1
269.112	10.44
269.329	20.69
269.546	25.07
269.763	27.48
269.979	21.41
270.196	25.16
270.413	28.26
270.629	24.61
270.846	20.46
271.063	14.2
271.279	10.25
271.496	4.56
271.712	2.4
271.929	11.61
272.146	14.85
272.362	12.44
272.579	19.2
272.795	23.27
273.012	29.4
273.228	28.22
273.445	12.55
273.661	3.54
273.878	11.49
274.094	7.75
274.311	12.03
274.527	14.65
274.744	5.8
274.96	13.3
275.177	19.83
275.393	25.56
275.609	22.07
275.826	22.34
276.042	21.58
276.259	27.13
276.475	20.8
276.691	16.63
276.908	7.86
277.124	10.41
277.34	5.47
277.557	4.09
277.773	2.16
277.989	9.64
278.205	3.89
278.422	14.61
278.638	17.93
278.854	22.5
279.07	27.28
279.286	35.12
279.503	26.23
279.719	36.89
279.935	16.87
280.151	20.94
280.367	15.38
280.583	13.9
280.799	17.7
281.016	26.99
281.232	19.77
281.448	22.86
281.664	16.46
281.88	27.33
282.096	21.15
282.312	5.16
282.528	-1.86
282.744	1.63
282.96	19.43
283.176	21.71
283.392	31.36
283.608	35.2
283.824	31.69
284.04	40.11
284.256	39.65
284.471	38.43
284.687	33.55
284.903	16.68
285.119	8.82
285.335	20.35
285.551	11.19
285.767	7.46
285.982	0.58
286.198	6.44
286.414	24.54
286.63	32.05
286.846	33.91
287.061	36.88
287.277	43.19
287.493	44.47
287.709	40.55
287.924	36.84
288.14	37.27
288.356	42.44
288.571	43.37
288.787	45.08
289.003	49.25
289.218	44.5
289.434	36.21
289.65	35.35
289.865	30.96
290.081	22.62
290.296	15.68
290.512	17.85
290.727	34.37
290.943	26.39
291.159	8.78
291.374	2.4
291.59	7.39
291.805	13.58
292.021	2.17
292.236	-11.2
292.451	3.6
292.667	19.97
292.882	21.07
293.098	16.39
293.313	13.05
293.529	23.11
293.744	21.95
293.959	16.86
294.175	20.9
294.39	27.77
294.605	26.94
294.821	18.25
295.036	14.38
295.251	16.43
295.467	4.08
295.682	2.04
295.897	-7.85
296.112	-5.61
296.328	-0.74
296.543	-9.2
296.758	-15.36
296.973	0.39
297.188	-3.86
297.404	15.76
297.619	19.65
297.834	33.9
298.049	34.07
298.264	30.1
298.479	16.27
298.694	25.56
298.909	13.06
299.125	14.51
299.34	7.68
299.555	11.49
299.77	17.91
299.985	25.79
300.2	18.1
300.415	22.43
300.63	8.53
300.845	10.79
301.06	6.33
301.275	9.48
301.49	10.34
301.704	7.82
301.919	-1.47
302.134	12.5
302.349	8.75
302.564	13.65
302.779	11.99
302.994	9.05
303.209	11.63
303.423	24.56
303.638	25.26
303.853	32.26
304.068	30.39
304.283	21.72
304.497	21.17
304.712	21.55
304.927	11
305.142	13.83
305.356	12.13
305.571	18.65
305.786	26.1
306	37.58
306.215	47.66
306.43	64.76
306.644	57.73
306.859	58.09
307.074	52.72
307.288	50.72
307.503	44.62
307.717	37.25
307.932	33.47
308.147	32.78
308.361	28.64
308.576	28.11
308.79	25.3
309.005	21.28
309.219	23.19
309.434	23.84
309.648	21.47
309.863	20.22
310.077	19.58
310.292	16.12
310.506	28.48
310.72	29.65
310.935	21.06
311.149	24.63
311.364	34.09
311.578	30.08
311.792	34.54
312.007	25.33
312.221	29.18
312.435	31.09
312.649	42.34
312.864	36.83
313.078	48.07
313.292	44.54
313.507	46.06
313.721	34.84
313.935	42.32
314.149	30.65
314.363	27.4
314.578	40.18
314.792	37.52
315.006	38.13
315.22	45.48
315.434	48.64
315.648	44.24
315.862	43.13
316.077	34.18
316.291	36.3
316.505	40.95
316.719	24.14
316.933	13.05
317.147	16.47
317.361	13.69
317.575	2.44
317.789	2.13
318.003	-0.12
318.217	9.16
318.431	11.1
318.645	14.61
318.859	9.11
319.073	8.22
319.287	10.38
319.5	11.12
319.714	9.68
319.928	15.82
320.142	20.44
320.356	31.17
320.57	37.81
320.784	41.22
320.997	43.41
321.211	49.54
321.425	38.18
321.639	35.02
321.853	21.63
322.066	17.05
322.28	13.27
322.494	12.93
322.707	17.06
322.921	21.81
323.135	21.48
323.349	33.44
323.562	38.17
323.776	42.62
323.989	34.82
324.203	31.75
324.417	30.21
324.63	27.18
324.844	15.42
325.057	16.55
325.271	0.14
325.485	8.24
325.698	9.02
325.912	11.32
326.125	10.32
326.339	13.18
326.552	15.48
326.766	33.37
326.979	33.38
327.193	31.91
327.406	29.87
327.619	16.32
327.833	15.99
328.046	-0.21
328.26	-17.27
328.473	-13.28
328.686	-15.49
328.9	-28.59
329.113	-11.21
329.326	-7.22
329.54	-2.38
329.753	10.19
329.966	16.25
330.179	28.86
330.393	39.83
330.606	40.7
330.819	47.13
331.032	51.12
331.246	44.47
331.459	33.75
331.672	28.43
331.885	24.55
332.098	30.17
332.311	15.61
332.525	13.24
332.738	9.75
332.951	11.54
333.164	6.05
333.377	-6.32
333.59	-9.47
333.803	7.84
334.016	2.79
334.229	14.77
334.442	38.54
334.655	52.17
334.868	65.52
335.081	65.08
335.294	58.87
335.507	56.28
335.72	47.83
335.933	34.04
336.146	30.25
336.359	20.74
336.572	12.08
336.785	22.83
336.997	14.28
337.21	18.26
337.423	14.13
337.636	17.42
337.849	15.4
338.062	21.98
338.274	10.87
338.487	10.91
338.7	15.28
338.913	19.55
339.125	11.92
339.338	15.73
339.551	24.66
339.763	20.78
339.976	23.21
340.189	15.82
340.402	6.19
340.614	6.52
340.827	-3.22
341.039	-11.37
341.252	-3.8
341.465	-7.2
341.677	-4.12
341.89	13.31
342.102	17.08
342.315	33.07
342.527	28.59
342.74	16.32
342.952	18.03
343.165	31.2
343.377	17.74
343.59	12.1
343.802	3.4
344.015	12.7
344.227	12.17
344.44	21.2
344.652	17.74
344.864	21
345.077	15.87
345.289	11.87
345.502	9.22
345.714	13.76
345.926	-1.88
346.139	-0.12
346.351	-14.96
346.563	4.96
346.775	7.66
346.988	8.45
347.2	15.22
347.412	17.66
347.624	15.51
347.837	19.03
348.049	14.92
348.261	17.41
348.473	9.39
348.685	10.88
348.897	10.92
349.11	9.23
349.322	16.09
349.534	13.85
349.746	9.51
349.958	15.54
350.17	12.35
350.382	15
350.594	13.13
350.806	9.44
351.018	9.55
351.23	19.73
351.442	25.02
351.654	25.21
351.866	25.78
352.078	30.09
352.29	30.94
352.502	33.2
352.714	18.88
352.926	10.32
353.138	1.88
353.35	-3.22
353.561	-11.19
353.773	-6.81
353.985	-2.99
354.197	0.22
354.409	10.62
354.621	18.39
354.832	15.36
355.044	32.67
355.256	29.81
355.468	18.55
355.679	26.69
355.891	16.35
356.103	11.12
356.314	19.84
356.526	5.04
356.738	4.58
356.949	17.05
357.161	8.88
357.373	13.31
357.584	17.85
357.796	10.89
358.008	18.4
358.219	28.4
358.431	25.93
358.642	27.49
358.854	23.54
359.065	21.95
359.277	18.33
359.488	15.1
359.7	10.76
359.911	3.89
360.123	6.36
360.334	10.75
360.546	-0.17
360.757	11.67
360.969	20.18
361.18	15.64
361.391	18.24
361.603	21.46
361.814	15.39
362.025	26.91
362.237	21.6
362.448	18.89
362.659	8.76
362.871	14.47
363.082	7.09
363.293	14.46
363.504	13.99
363.716	14.12
363.927	13.15
364.138	23.58
364.349	21.39
364.56	24.36
364.772	21.44
364.983	17.84
365.194	20.23
365.405	10.79
365.616	-0.9
365.827	2.63
366.038	19.16
366.25	19.43
366.461	20.03
366.672	20.12
366.883	26.88
367.094	27.79
367.305	23.97
367.516	14.25
367.727	13.35
367.938	19.95
368.149	28.52
368.36	31.44
368.571	32.98
368.781	28.92
368.992	21.47
369.203	15.11
369.414	5.85
369.625	-4.63
369.836	-9.24
370.047	-4.95
370.258	-12.84
370.468	-13.81
370.679	-6.92
370.89	2.91
371.101	2.51
371.312	-1.14
371.522	-0.89
371.733	-3.03
371.944	6.28
372.155	-1.94
372.365	-9.6
372.576	-13.77
372.787	-15.08
372.997	-21.07
373.208	-2.7
373.419	-7.31
373.629	7.82
373.84	6.36
374.05	11.57
374.261	12.5
374.472	8.97
374.682	-1.13
374.893	-1.31
375.103	-2.37
375.314	6.69
375.524	3.77
375.735	9.52
375.945	17.05
376.156	23.39
376.366	26.77
376.577	29.37
376.787	25.83
376.997	25.73
377.208	21.02
377.418	19.58
377.629	14.65
377.839	10.95
378.049	7.2
378.26	8.88
378.47	17.23
378.68	14.57
378.89	9.36
379.101	4.31
379.311	3.1
379.521	5.75
379.732	-6.47
379.942	-11.25
380.152	3.01
380.362	11.9
380.572	18.72
380.783	21.04
380.993	20.1
381.203	27.97
381.413	32.57
381.623	27.16
381.833	20.93
382.043	15.96
382.253	14.43
382.463	15.91
382.674	16.99
382.884	8.99
383.094	11.34
383.304	14.31
383.514	14.27
383.724	11.63
383.934	8.53
384.144	13.32
384.353	15.48
384.563	11.2
384.773	13.85
384.983	13.27
385.193	17.91
385.403	20.29
385.613	15.47
385.823	13.33
386.033	14.18
386.242	11.33
386.452	11.52
386.662	10.95
386.872	6.38
387.082	3.28
387.291	4.6
387.501	4.21
387.711	1.73
387.921	1.22
388.13	-1.05
388.34	1.71
388.55	4.5
388.759	6.14
388.969	5.04
389.179	7.76
389.388	8.79
389.598	8.3
389.807	6.77
390.017	4.56
390.227	3.5
390.436	3.73
390.646	3.19
390.855	0.89
391.065	0.57
391.274	-0.34
391.484	1.45
391.693	2.59
391.903	3.41
392.112	1.5
392.322	3.64
392.531	3.75
392.74	4.02
392.95	4.32
393.159	3.68
393.369	3.71
393.578	5.48
393.787	4.83
393.997	7.17
394.206	7.49
394.415	6.8
394.625	5.68
394.834	4.04
395.043	3.45
395.252	3.68
395.462	2.06
395.671	2.24
395.88	1.8
396.089	2.36
396.298	2.51
396.508	2.93
396.717	2.29
396.926	1.92
397.135	1.11
397.344	1.51
397.553	1.62
397.762	2.03
397.971	2.07
398.181	2.02
398.39	2.24
398.599	2.89
398.808	2.99
399.017	3.08
399.226	3.23
399.435	3.11
399.644	3.15
399.853	3.39
400.062	2.98
400.27	3.03
400.479	2.65
400.688	2.62
400.897	2.8
401.106	3.04
401.315	2.76
401.524	3.01
401.733	2.97
401.941	2.98
402.15	2.74
402.359	2.5
402.568	2.52
402.777	2.46
402.985	2.48
403.194	2.41
403.403	2.37
403.612	2.38
403.82	2.49
404.029	2.42
404.238	2.67
404.446	2.58
404.655	2.4
404.864	2.4
405.072	2.48
405.281	2.32
405.489	2.33
405.698	2.16
405.906	2.14
406.115	2.3
406.324	2.29
406.532	2.28
406.741	2.37
406.949	2.31
407.158	2.4
407.366	2.5
407.574	2.49
407.783	2.46
407.991	2.4
408.2	2.32
408.408	2.4
408.617	2.34
408.825	2.31
409.033	2.36
409.242	2.37
409.45	2.36
409.658	2.42
409.867	2.35
410.075	2.36
410.283	2.3
410.491	2.2
410.7	2.22
410.908	2.24
411.116	2.2
411.324	2.28
411.533	2.19
411.741	2.17
411.949	2.29
412.157	2.33
412.365	2.29
412.573	2.23
412.781	2.19
412.99	2.34
413.198	2.41
413.406	2.36
413.614	2.39
413.822	2.46
414.03	2.49
414.238	2.54
414.446	2.33
414.654	2.28
414.862	2.2
415.07	2.16
415.278	2.11
415.486	2.22
415.694	2.09
415.902	2.13
416.109	2.13
416.317	2.08
416.525	2.13
416.733	2.21
416.941	2.06
417.149	2.16
417.357	2.24
417.564	2.16
417.772	2.24
417.98	2.15
418.188	2.02
418.395	2.07
418.603	1.94
418.811	1.85
419.019	1.91
419.226	1.97
419.434	1.88
419.642	1.97
419.849	1.97
420.057	2
420.265	2.01
420.472	1.97
420.68	1.88
420.887	1.99
421.095	1.98
421.302	2.02
421.51	2.14
421.717	2.22
421.925	2.19
422.132	2.15
422.34	2.08
422.547	2.02
422.755	1.97
422.962	1.81
423.17	1.71
423.377	1.84
423.585	1.85
423.792	1.88
423.999	1.9
424.207	1.83
424.414	1.93
424.621	2.03
424.829	2.01
425.036	1.95
425.243	1.98
425.451	2.03
425.658	2.13
425.865	2.09
426.072	2.08
426.28	2.08
426.487	2.15
426.694	2.13
426.901	2.05
427.108	2.06
427.315	2.08
427.523	2.03
427.73	2.02
427.937	2.01
428.144	2
428.351	2.16
428.558	2.09
428.765	2.02
428.972	2.01
429.179	1.98
429.386	2.07
429.593	2.07
429.8	2.01
430.007	2.02
430.214	2.11
430.421	2.14
430.628	1.96
430.835	1.94
431.042	2.05
431.249	2.01
431.456	2.07
431.662	2.08
431.869	2.14
432.076	2.28
432.283	2.22
432.49	2.2
432.697	2.25
432.903	2.27
433.11	2.31
433.317	2.34
433.524	2.3
433.73	2.4
433.937	2.36
434.144	2.46
434.35	2.41
434.557	2.36
434.764	2.29
434.97	2.37
435.177	2.38
435.384	2.45
435.59	2.32
435.797	2.38
436.003	2.41
436.21	2.42
436.416	2.42
436.623	2.46
436.829	2.49
437.036	2.52
437.242	2.53
437.449	2.57
437.655	2.63
437.862	2.64
438.068	2.62
438.275	2.66
438.481	2.73
438.687	2.77
438.894	2.75
439.1	2.74
439.307	2.79
439.513	2.78
439.719	2.74
439.926	2.74
440.132	2.71
440.338	2.78
440.544	2.74
440.751	2.68
440.957	2.66
441.163	2.69
441.369	2.67
441.575	2.7
441.782	2.67
441.988	2.76
442.194	2.85
442.4	2.89
442.606	2.91
442.812	2.96
443.018	2.98
443.224	2.95
443.431	3
443.637	2.97
443.843	3.04
444.049	2.99
444.255	2.93
444.461	2.89
444.667	2.9
444.873	2.86
445.079	2.86
445.284	2.79
445.49	2.83
445.696	2.92
445.902	2.97
446.108	3
446.314	3.08
446.52	3.13
446.726	3.2
446.931	3.18
447.137	3.16
447.343	3.14
447.549	3.08
447.755	3.02
447.96	2.98
448.166	3.02
448.372	3.08
448.578	3.11
448.783	3.13
448.989	3.2
449.195	3.21
449.4	3.26
449.606	3.23
449.812	3.26
450.017	3.24
450.223	3.25
450.428	3.32
450.634	3.32
450.84	3.33
451.045	3.3
451.251	3.3
451.456	3.3
451.662	3.3
451.867	3.25
452.073	3.27
452.278	3.25
452.483	3.29
452.689	3.27
452.894	3.21
453.1	3.14
453.305	3.21
453.51	3.23
453.716	3.26
453.921	3.25
454.127	3.24
454.332	3.3
454.537	3.42
454.742	3.4
454.948	3.36
455.153	3.36
455.358	3.42
455.563	3.44
455.769	3.46
455.974	3.35
456.179	3.27
456.384	3.31
456.589	3.32
456.795	3.27
457	3.29
457.205	3.23
457.41	3.36
457.615	3.45
457.82	3.52
458.025	3.55
458.23	3.55
458.435	3.51
458.64	3.61
458.845	3.56
459.05	3.55
459.255	3.48
459.46	3.41
459.665	3.5
459.87	3.53
460.075	3.48
460.28	3.5
460.485	3.54
460.69	3.54
460.895	3.63
461.099	3.65
461.304	3.71
461.509	3.68
461.714	3.71
461.919	3.66
462.123	3.72
462.328	3.7
462.533	3.73
462.738	3.72
462.942	3.84
463.147	3.8
463.352	3.86
463.556	3.92
463.761	3.97
463.966	3.96
464.17	3.96
464.375	3.92
464.58	3.95
464.784	3.97
464.989	3.94
465.193	3.93
465.398	3.9
465.602	3.88
465.807	3.94
466.011	3.99
466.216	3.95
466.42	4
466.625	4.03
466.829	4.07
467.034	4.16
467.238	4.23
467.443	4.24
467.647	4.34
467.851	4.3
468.056	4.31
468.26	4.25
468.464	4.2
468.669	4.14
468.873	4.15
469.077	4.11
469.282	4.12
469.486	4.15
469.69	4.23
469.894	4.28
470.099	4.33
470.303	4.36
470.507	4.38
470.711	4.43
470.915	4.51
471.119	4.55
471.324	4.56
471.528	4.58
471.732	4.61
471.936	4.68
472.14	4.67
472.344	4.65
472.548	4.68
472.752	4.72
472.956	4.78
473.16	4.81
473.364	4.79
473.568	4.85
473.772	4.91
473.976	4.91
474.18	4.91
474.384	4.87
474.588	4.87
474.792	4.89
474.995	4.86
475.199	4.87
475.403	4.87
475.607	4.89
475.811	4.94
476.015	5.02
476.218	5.04
476.422	5.12
476.626	5.1
476.83	5.16
477.033	5.2
477.237	5.18
477.441	5.17
477.644	5.19
477.848	5.16
478.052	5.21
478.255	5.2
478.459	5.24
478.663	5.24
478.866	5.21
479.07	5.23
479.273	5.25
479.477	5.3
479.681	5.3
479.884	5.28
480.088	5.29
480.291	5.38
480.495	5.4
480.698	5.38
480.901	5.36
481.105	5.42
481.308	5.44
481.512	5.5
481.715	5.5
481.919	5.52
482.122	5.54
482.325	5.6
482.529	5.61
482.732	5.63
482.935	5.61
483.138	5.62
483.342	5.63
483.545	5.65
483.748	5.6
483.952	5.62
484.155	5.66
484.358	5.68
484.561	5.71
484.764	5.73
484.967	5.77
485.171	5.79
485.374	5.82
485.577	5.86
485.78	5.9
485.983	5.88
486.186	5.85
486.389	5.81
486.592	5.88
486.795	5.81
486.998	5.79
487.201	5.77
487.404	5.83
487.607	5.89
487.81	5.94
488.013	5.87
488.216	5.89
488.419	5.89
488.622	5.9
488.825	5.82
489.028	5.78
489.231	5.78
489.433	5.85
489.636	5.83
489.839	5.83
490.042	5.82
490.245	5.91
490.447	5.92
490.65	5.94
490.853	5.91
491.056	5.91
491.258	5.97
491.461	5.97
491.664	5.91
491.866	5.89
492.069	5.9
492.272	5.88
492.474	5.89
492.677	5.83
492.879	5.86
493.082	5.9
493.285	5.95
493.487	5.89
493.69	5.9
493.892	5.94
494.095	5.96
494.297	5.96
494.5	5.98
494.702	5.97
494.905	6.04
495.107	6.03
495.309	5.99
495.512	5.99
495.714	6.02
495.917	5.99
496.119	6.01
496.321	6.01
496.524	6.02
496.726	6.05
496.928	6.1
497.13	6.13
497.333	6.16
497.535	6.18
497.737	6.17
497.939	6.21
498.142	6.23
498.344	6.2
498.546	6.2
498.748	6.16
498.95	6.14
499.152	6.14
499.355	6.14
499.557	6.19
499.759	6.24
499.961	6.24
500.163	6.3
500.365	6.32
500.567	6.37
500.769	6.39
500.971	6.4
501.173	6.39
501.375	6.43
501.577	6.45
501.779	6.45
501.981	6.43
502.183	6.4
502.385	6.39
502.587	6.39
502.788	6.38
502.99	6.39
503.192	6.45
503.394	6.5
503.596	6.55
503.798	6.62
503.999	6.59
504.201	6.59
504.403	6.61
504.605	6.64
504.806	6.62
505.008	6.6
505.21	6.6
505.411	6.67
505.613	6.71
505.815	6.71
506.016	6.71
506.218	6.73
506.42	6.82
506.621	6.85
506.823	6.89
507.024	6.9
507.226	6.9
507.427	6.85
507.629	6.88
507.83	6.84
508.032	6.87
508.233	6.86
508.435	6.87
508.636	6.9
508.838	6.98
509.039	7.02
509.24	7.07
509.442	7.04
509.643	7.07
509.845	7.1
510.046	7.15
510.247	7.2
510.448	7.22
510.65	7.25
510.851	7.34
511.052	7.35
511.254	7.38
511.455	7.36
511.656	7.34
511.857	7.36
512.058	7.35
512.26	7.33
512.461	7.34
512.662	7.33
512.863	7.36
513.064	7.4
513.265	7.42
513.466	7.46
513.667	7.47
513.868	7.47
514.069	7.51
514.27	7.53
514.471	7.52
514.672	7.52
514.873	7.57
515.074	7.61
515.275	7.63
515.476	7.63
515.677	7.66
515.878	7.69
516.079	7.72
516.28	7.67
516.481	7.65
516.682	7.69
516.882	7.72
517.083	7.69
517.284	7.68
517.485	7.69
517.686	7.73
517.886	7.75
518.087	7.76
518.288	7.74
518.488	7.78
518.689	7.8
518.89	7.86
519.091	7.87
519.291	7.87
519.492	7.84
519.692	7.9
519.893	7.9
520.094	7.88
520.294	7.86
520.495	7.85
520.695	7.87
520.896	7.89
521.096	7.86
521.297	7.85
521.497	7.88
521.698	7.85
521.898	7.88
522.099	7.91
522.299	7.93
522.499	7.96
522.7	7.99
522.9	7.99
523.101	8.05
523.301	8.03
523.501	8.04
523.702	8.04
523.902	8.05
524.102	8.05
524.302	8.07
524.503	8.05
524.703	8.07
524.903	8.08
525.103	8.1
525.304	8.12
525.504	8.13
525.704	8.14
525.904	8.17
526.104	8.19
526.304	8.19
526.504	8.21
526.705	8.2
526.905	8.18
527.105	8.19
527.305	8.17
527.505	8.17
527.705	8.17
527.905	8.16
528.105	8.2
528.305	8.23
528.505	8.25
528.705	8.29
528.905	8.28
529.105	8.28
529.304	8.33
529.504	8.3
529.704	8.31
529.904	8.3
530.104	8.31
530.304	8.36
530.503	8.36
530.703	8.38
530.903	8.37
531.103	8.37
531.303	8.44
531.502	8.42
531.702	8.41
531.902	8.45
532.101	8.44
532.301	8.45
532.501	8.49
532.7	8.45
532.9	8.47
533.1	8.48
533.299	8.52
533.499	8.52
533.698	8.6
533.898	8.61
534.097	8.63
534.297	8.65
534.496	8.65
534.696	8.63
534.895	8.68
535.095	8.65
535.294	8.61
535.494	8.63
535.693	8.65
535.892	8.68
536.092	8.69
536.291	8.73
536.491	8.71
536.69	8.75
536.889	8.74
537.088	8.75
537.288	8.79
537.487	8.82
537.686	8.84
537.886	8.88
538.085	8.97
538.284	9.03
538.483	9.06
538.682	9.05
538.882	9.05
539.081	9.07
539.28	9.09
539.479	9.08
539.678	9.09
539.877	9.13
540.076	9.15
540.275	9.16
540.474	9.16
540.673	9.2
540.872	9.19
541.071	9.2
541.27	9.21
541.469	9.24
541.668	9.31
541.867	9.32
542.066	9.34
542.265	9.38
542.464	9.45
542.663	9.51
542.862	9.56
543.06	9.57
543.259	9.61
543.458	9.64
543.657	9.69
543.856	9.68
544.054	9.72
544.253	9.71
544.452	9.72
544.651	9.76
544.849	9.79
545.048	9.81
545.247	9.85
545.445	9.82
545.644	9.9
545.843	9.97
546.041	10.01
546.24	10.06
546.438	10.11
546.637	10.17
546.836	10.21
547.034	10.23
547.233	10.3
547.431	10.3
547.63	10.33
547.828	10.35
548.027	10.37
548.225	10.45
548.423	10.47
548.622	10.49
548.82	10.54
549.019	10.57
549.217	10.64
549.415	10.71
549.614	10.73
549.812	10.78
550.01	10.85
550.209	10.91
550.407	11.02
550.605	11.08
550.803	11.13
551.002	11.19
551.2	11.3
551.398	11.36
551.596	11.42
551.794	11.45
551.993	11.47
552.191	11.58
552.389	11.65
552.587	11.66
552.785	11.72
552.983	11.78
553.181	11.8
553.379	11.86
553.577	11.88
553.775	11.9
553.973	11.98
554.171	12.03
554.369	12.09
554.567	12.18
554.765	12.27
554.963	12.35
555.161	12.49
555.359	12.53
555.557	12.66
555.755	12.74
555.952	12.81
556.15	12.86
556.348	12.95
556.546	12.97
556.744	13.08
556.941	13.15
557.139	13.27
557.337	13.34
557.535	13.46
557.732	13.52
557.93	13.63
558.128	13.67
558.325	13.71
558.523	13.74
558.721	13.83
558.918	13.9
559.116	13.98
559.313	14.07
559.511	14.18
559.708	14.24
559.906	14.33
560.104	14.4
560.301	14.44
560.498	14.51
560.696	14.57
560.893	14.64
561.091	14.78
561.288	14.89
561.486	15
561.683	15.13
561.88	15.24
562.078	15.35
562.275	15.46
562.473	15.58
562.67	15.66
562.867	15.79
563.064	15.89
563.262	16.01
563.459	16.09
563.656	16.17
563.853	16.21
564.051	16.31
564.248	16.36
564.445	16.41
564.642	16.47
564.839	16.61
565.036	16.75
565.234	16.87
565.431	16.93
565.628	17.03
565.825	17.18
566.022	17.27
566.219	17.35
566.416	17.4
566.613	17.51
566.81	17.63
567.007	17.7
567.204	17.74
567.401	17.85
567.598	17.9
567.795	17.97
567.991	18.05
568.188	18.1
568.385	18.17
568.582	18.3
568.779	18.36
568.976	18.49
569.172	18.58
569.369	18.65
569.566	18.68
569.763	18.77
569.96	18.81
570.156	18.87
570.353	18.92
570.55	19.01
570.746	19.04
570.943	19.19
571.14	19.22
571.336	19.26
571.533	19.28
571.729	19.33
571.926	19.38
572.123	19.41
572.319	19.43
572.516	19.53
572.712	19.6
572.909	19.68
573.105	19.78
573.302	19.8
573.498	19.89
573.695	19.96
573.891	20
574.087	20.04
574.284	20.05
574.48	20.02
574.677	20.08
574.873	20.11
575.069	20.17
575.266	20.2
575.462	20.24
575.658	20.34
575.854	20.4
576.051	20.42
576.247	20.42
576.443	20.42
576.639	20.46
576.835	20.46
577.032	20.43
577.228	20.46
577.424	20.48
577.62	20.55
577.816	20.59
578.012	20.61
578.208	20.67
578.404	20.71
578.6	20.72
578.796	20.74
578.993	20.71
579.189	20.69
579.384	20.68
579.58	20.69
579.776	20.7
579.972	20.7
580.168	20.67
580.364	20.74
580.56	20.76
580.756	20.78
580.952	20.8
581.148	20.8
581.343	20.85
581.539	20.9
581.735	20.89
581.931	20.92
582.127	20.89
582.322	20.9
582.518	20.88
582.714	20.84
582.909	20.8
583.105	20.74
583.301	20.71
583.496	20.69
583.692	20.66
583.888	20.68
584.083	20.74
584.279	20.78
584.474	20.82
584.67	20.83
584.866	20.85
585.061	20.89
585.257	20.85
585.452	20.82
585.648	20.83
585.843	20.83
586.039	20.8
586.234	20.82
586.429	20.79
586.625	20.82
586.82	20.77
587.015	20.76
587.211	20.79
587.406	20.86
587.601	20.88
587.797	20.89
587.992	20.92
588.187	21.02
588.383	21.08
588.578	21.08
588.773	21.11
588.968	21.19
589.163	21.3
589.359	21.32
589.554	21.32
589.749	21.34
589.944	21.4
590.139	21.39
590.334	21.37
590.529	21.38
590.724	21.42
590.919	21.46
591.114	21.47
591.309	21.46
591.504	21.52
591.699	21.54
591.894	21.61
592.089	21.62
592.284	21.6
592.479	21.66
592.674	21.7
592.869	21.74
593.064	21.82
593.259	21.82
593.454	21.89
593.648	21.98
593.843	22.05
594.038	22.15
594.233	22.23
594.428	22.33
594.622	22.4
594.817	22.49
595.012	22.58
595.206	22.64
595.401	22.67
595.596	22.73
595.79	22.73
595.985	22.8
596.18	22.87
596.374	22.99
596.569	23.07
596.763	23.2
596.958	23.24
597.153	23.37
597.347	23.45
597.542	23.55
597.736	23.6
597.931	23.67
598.125	23.7
598.319	23.79
598.514	23.81
598.708	23.87
598.903	23.9
599.097	23.94
599.291	23.98
599.486	24
599.68	24.02
599.874	24.15
600.069	24.22
600.263	24.23
600.457	24.26
600.651	24.33
600.846	24.37
601.04	24.42
601.234	24.42
601.428	24.42
601.622	24.48
601.817	24.56
602.011	24.56
602.205	24.64
602.399	24.64
602.593	24.63
602.787	24.68
602.981	24.73
603.175	24.72
603.369	24.75
603.563	24.75
603.757	24.78
603.951	24.85
604.145	24.82
604.339	24.75
604.533	24.75
604.727	24.74
604.921	24.76
605.115	24.71
605.309	24.7
605.502	24.72
605.696	24.72
605.89	24.77
606.084	24.72
606.278	24.67
606.471	24.71
606.665	24.65
606.859	24.63
607.053	24.61
607.246	24.54
607.44	24.54
607.634	24.56
607.827	24.46
608.021	24.41
608.214	24.36
608.408	24.34
608.602	24.23
608.795	24.12
608.989	24.02
609.182	24.02
609.376	23.92
609.569	23.87
609.763	23.85
609.956	23.79
610.15	23.78
610.343	23.79
610.537	23.73
610.73	23.75
610.923	23.67
611.117	23.56
611.31	23.54
611.504	23.54
611.697	23.43
611.89	23.34
612.083	23.24
612.277	23.19
612.47	23.09
612.663	23.03
612.856	22.89
613.05	22.8
613.243	22.82
613.436	22.76
613.629	22.72
613.822	22.73
614.015	22.66
614.209	22.67
614.402	22.65
614.595	22.53
614.788	22.5
614.981	22.43
615.174	22.38
615.367	22.31
615.56	22.14
615.753	22.07
615.946	22.07
616.139	21.98
616.332	21.91
616.525	21.86
616.718	21.8
616.911	21.81
617.103	21.74
617.296	21.69
617.489	21.71
617.682	21.72
617.875	21.64
618.067	21.63
618.26	21.55
618.453	21.53
618.646	21.45
618.838	21.34
619.031	21.29
619.224	21.3
619.417	21.27
619.609	21.3
619.802	21.26
619.994	21.26
620.187	21.3
620.38	21.28
620.572	21.21
620.765	21.17
620.957	21.12
621.15	21.14
621.342	21.15
621.535	21.11
621.727	21.04
621.92	21.03
622.112	21.04
622.305	21.01
622.497	20.91
622.69	20.87
622.882	20.83
623.074	20.82
623.267	20.75
623.459	20.69
623.651	20.67
623.844	20.72
624.036	20.7
624.228	20.63
624.42	20.62
624.613	20.62
624.805	20.65
624.997	20.65
625.189	20.62
625.381	20.56
625.574	20.54
625.766	20.52
625.958	20.53
626.15	20.5
626.342	20.43
626.534	20.34
626.726	20.36
626.918	20.33
627.11	20.34
627.302	20.27
627.494	20.27
627.686	20.25
627.878	20.25
628.07	20.19
628.262	20.19
628.454	20.13
628.646	20.11
628.838	20.01
629.029	19.97
629.221	19.95
629.413	19.88
629.605	19.85
629.797	19.8
629.989	19.72
630.18	19.66
630.372	19.65
630.564	19.6
630.755	19.59
630.947	19.45
631.139	19.43
631.33	19.45
631.522	19.48
631.714	19.44
631.905	19.41
632.097	19.46
632.289	19.52
632.48	19.48
632.672	19.43
632.863	19.39
633.055	19.41
633.246	19.38
633.438	19.32
633.629	19.35
633.821	19.35
634.012	19.32
634.203	19.33
634.395	19.31
634.586	19.33
634.777	19.29
634.969	19.27
635.16	19.21
635.351	19.21
635.543	19.14
635.734	19.1
635.925	19.07
636.117	19.08
636.308	19.05
636.499	19.06
636.69	19.08
636.881	19.1
637.073	19.11
637.264	19.11
637.455	19.11
637.646	19.15
637.837	19.15
638.028	19.18
638.219	19.2
638.41	19.2
638.601	19.21
638.792	19.12
638.983	19.04
639.174	19.06
639.365	19.04
639.556	18.98
639.747	18.99
639.938	18.96
640.129	18.97
640.32	18.98
640.511	18.93
640.701	18.9
640.892	18.9
641.083	18.85
641.274	18.84
641.465	18.88
641.655	18.9
641.846	18.85
642.037	18.82
642.228	18.77
642.418	18.72
642.609	18.68
642.8	18.65
642.99	18.66
643.181	18.7
643.372	18.73
643.562	18.77
643.753	18.79
643.943	18.76
644.134	18.74
644.324	18.65
644.515	18.64
644.705	18.6
644.896	18.56
645.086	18.52
645.277	18.61
645.467	18.58
645.658	18.57
645.848	18.57
646.038	18.52
646.229	18.52
646.419	18.55
646.61	18.5
646.8	18.5
646.99	18.49
647.18	18.43
647.371	18.4
647.561	18.35
647.751	18.25
647.941	18.21
648.132	18.21
648.322	18.19
648.512	18.22
648.702	18.2
648.892	18.2
649.082	18.2
649.272	18.17
649.462	18.16
649.653	18.19
649.843	18.11
650.033	18.14
650.223	18.13
650.413	18.14
650.603	18.15
650.793	18.1
650.983	18.02
651.172	18.02
651.362	17.93
651.552	17.9
651.742	17.8
651.932	17.69
652.122	17.64
652.312	17.58
652.502	17.55
652.691	17.55
652.881	17.47
653.071	17.43
653.261	17.36
653.45	17.27
653.64	17.25
653.83	17.12
654.019	16.95
654.209	16.89
654.399	16.79
654.588	16.72
654.778	16.62
654.968	16.44
655.157	16.37
655.347	16.29
655.536	16.07
655.726	15.96
655.915	15.78
656.105	15.67
656.294	15.56
656.484	15.45
656.673	15.34
656.863	15.27
657.052	15.12
657.241	14.94
657.431	14.8
657.62	14.62
657.809	14.46
657.999	14.32
658.188	14.16
658.377	14.09
658.567	14.02
658.756	13.82
658.945	13.69
659.134	13.57
659.324	13.4
659.513	13.23
659.702	13.06
659.891	12.91
660.08	12.84
660.269	12.72
660.458	12.53
660.648	12.41
660.837	12.3
661.026	12.13
661.215	11.99
661.404	11.85
661.593	11.75
661.782	11.64
661.971	11.49
662.16	11.34
662.349	11.21
662.538	11.06
662.726	10.88
662.915	10.73
663.104	10.57
663.293	10.46
663.482	10.33
663.671	10.26
663.86	10.19
664.048	10.1
664.237	9.98
664.426	9.91
664.615	9.81
664.803	9.71
664.992	9.64
665.181	9.52
665.369	9.46
665.558	9.4
665.747	9.33
665.935	9.29
666.124	9.23
666.312	9.07
666.501	9.05
666.69	8.97
666.878	8.81
667.067	8.73
667.255	8.68
667.444	8.7
667.632	8.68
667.82	8.59
668.009	8.61
668.197	8.66
668.386	8.64
668.574	8.52
668.762	8.4
668.951	8.34
669.139	8.33
669.327	8.25
669.516	8.26
669.704	8.29
669.892	8.28
670.08	8.29
670.269	8.29
670.457	8.23
670.645	8.27
670.833	8.24
671.021	8.15
671.21	8.23
671.398	8.23
671.586	8.21
671.774	8.2
671.962	8.17
672.15	8.09
672.338	8.09
672.526	8.1
672.714	8.11
672.902	8.16
673.09	8.2
673.278	8.2
673.466	8.32
673.654	8.35
673.842	8.33
674.03	8.36
674.218	8.38
674.405	8.49
674.593	8.54
674.781	8.52
674.969	8.58
675.157	8.63
675.344	8.67
675.532	8.74
675.72	8.7
675.908	8.74
676.095	8.86
676.283	8.91
676.471	8.95
676.658	9.02
676.846	9.09
677.033	9.23
677.221	9.34
677.409	9.37
677.596	9.55
677.784	9.59
677.971	9.69
678.159	9.78
678.346	9.8
678.534	9.9
678.721	9.96
678.909	9.95
679.096	10.15
679.283	10.24
679.471	10.38
679.658	10.54
679.846	10.6
680.033	10.71
680.22	10.79
680.408	10.85
680.595	10.93
680.782	10.91
680.969	10.97
681.157	11.07
681.344	11.27
681.531	11.44
681.718	11.6
681.905	11.8
682.093	12.07
682.28	12.32
682.467	12.56
682.654	12.66
682.841	12.85
683.028	13.11
683.215	13.31
683.402	13.45
683.589	13.59
683.776	13.72
683.963	13.91
684.15	14.12
684.337	14.29
684.524	14.5
684.711	14.77
684.898	14.99
685.085	15.29
685.271	15.59
685.458	15.92
685.645	16.11
685.832	16.47
686.019	16.76
686.205	17.16
686.392	17.44
686.579	17.79
686.766	18.15
686.952	18.57
687.139	18.87
687.326	19.18
687.512	19.55
687.699	19.98
687.886	20.39
688.072	20.86
688.259	21.33
688.445	21.7
688.632	22.25
688.818	22.66
689.005	23.25
689.191	23.73
689.378	24.13
689.564	24.58
689.751	25.28
689.937	25.82
690.124	26.39
690.31	26.75
690.496	27.35
690.683	27.95
690.869	28.56
691.055	29.17
691.242	29.69
691.428	30.31
691.614	31.02
691.8	31.51
691.987	32.18
692.173	32.87
692.359	33.39
692.545	34.11
692.731	34.82
692.918	35.39
693.104	36.18
693.29	36.72
693.476	37.2
693.662	37.75
693.848	38.21
694.034	38.7
694.22	39.35
694.406	39.78
694.592	40.33
694.778	40.91
694.964	41.53
695.15	42.07
695.336	42.74
695.522	43.26
695.708	43.92
695.894	44.55
696.08	45.18
696.265	45.7
696.451	46.52
696.637	46.99
696.823	47.51
697.009	48.05
697.194	48.64
697.38	49.12
697.566	49.61
697.751	50.02
697.937	50.56
698.123	51.09
698.308	51.49
698.494	51.95
698.68	52.48
698.865	53.16
699.051	53.63
699.236	54.11
699.422	54.47
699.607	55.02
699.793	55.42
699.978	55.79
700.164	56.03
700.349	56.27
700.535	56.46
700.72	56.92
700.906	57.25
701.091	57.51
701.276	57.79
701.462	58.21
701.647	58.51
701.832	59.02
702.018	59.26
702.203	59.48
702.388	59.8
702.573	60.26
702.759	60.59
702.944	61.09
703.129	61.41
703.314	61.9
703.499	62.26
703.684	62.76
703.87	62.9
704.055	63.12
704.24	63.47
704.425	63.83
704.61	64.04
704.795	64.36
704.98	64.31
705.165	64.61
705.35	64.87
705.535	65.06
705.72	65.1
705.905	65.11
706.09	65.21
706.275	65.56
706.459	65.88
706.644	66.14
706.829	66.21
707.014	66.56
707.199	66.87
707.384	67.28
707.568	67.56
707.753	67.76
707.938	67.77
708.123	68.02
708.307	68.26
708.492	68.29
708.677	68.4
708.861	68.46
709.046	68.53
709.231	68.74
709.415	68.73
709.6	68.56
709.784	69.04
709.969	69.05
710.153	69.43
710.338	69.59
710.522	69.7
710.707	69.62
710.891	69.92
711.076	69.72
711.26	69.88
711.445	69.75
711.629	69.91
711.813	69.93
711.998	70.11
712.182	70.29
712.366	70.68
712.551	70.8
712.735	70.93
712.919	70.94
713.103	70.98
713.288	71.26
713.472	71.22
713.656	70.82
713.84	70.96
714.024	71.12
714.208	71.26
714.393	71.33
714.577	71.66
714.761	71.96
714.945	72.47
715.129	72.68
715.313	72.75
715.497	72.76
715.681	73.02
715.865	72.67
716.049	72.51
716.233	72.65
716.417	72.5
716.601	72.4
716.785	72.49
716.968	72.47
717.152	72.74
717.336	72.91
717.52	72.85
717.704	73.02
717.888	73.26
718.071	73.57
718.255	73.79
718.439	73.81
718.622	73.84
718.806	73.86
718.99	74.08
719.174	74.18
719.357	74.06
719.541	74.09
719.724	74.34
719.908	74.47
720.092	74.62
720.275	74.69
720.459	74.59
720.642	74.76
720.826	74.87
721.009	74.82
721.193	74.87
721.376	74.9
721.559	74.75
721.743	74.75
721.926	74.58
722.11	74.71
722.293	74.5
722.476	74.41
722.66	74.57
722.843	74.85
723.026	75.24
723.21	75.31
723.393	75.27
723.576	75.75
723.759	75.94
723.942	75.95
724.126	75.82
724.309	75.61
724.492	75.71
724.675	75.77
724.858	76.01
725.041	76.1
725.224	76.11
725.407	75.91
725.59	75.8
725.774	75.95
725.957	76.21
726.14	75.76
726.322	75.8
726.505	76.21
726.688	76.5
726.871	76.98
727.054	77.22
727.237	76.81
727.42	77.22
727.603	77.41
727.786	77.49
727.968	77.8
728.151	78.02
728.334	77.74
728.517	78.15
728.699	78.17
728.882	78.56
729.065	78.38
729.248	78.43
729.43	78.38
729.613	78.62
729.796	78.81
729.978	79.03
730.161	78.91
730.343	79.19
730.526	79.26
730.708	79.43
730.891	79.58
731.073	79.36
731.256	79.38
731.438	79.55
731.621	79.56
731.803	79.98
731.986	79.83
732.168	79.91
732.35	80.35
732.533	80.15
732.715	80.04
732.898	80.12
733.08	80.15
733.262	80.2
733.444	80.01
733.627	80.14
733.809	80.45
733.991	80.69
734.173	80.21
734.355	80
734.538	79.93
734.72	80.44
734.902	80.14
735.084	80.24
735.266	80.06
735.448	80.53
735.63	80.49
735.812	80.78
735.994	80.46
736.176	80.74
736.358	80.98
736.54	80.64
736.722	80.52
736.904	80.85
737.086	80.92
737.268	81.21
737.45	81.24
737.632	80.55
737.814	80.93
737.995	81.3
738.177	81.49
738.359	81.58
738.541	81.72
738.723	82.12
738.904	82.4
739.086	82.74
739.268	83.55
739.449	83.39
739.631	83.79
739.813	83.72
739.994	83.83
740.176	84.01
740.358	84.01
740.539	82.8
740.721	82.6
740.902	81.9
741.084	82.13
741.265	81.63
741.447	81.45
741.628	81.26
741.81	81.79
741.991	81.94
742.172	82.17
742.354	82.38
742.535	82.53
742.717	82.74
742.898	82.65
743.079	82.46
743.261	82.73
743.442	82.98
743.623	82.39
743.804	82.39
743.986	82.13
744.167	82.35
744.348	82.58
744.529	81.38
744.71	80.88
744.891	81.14
745.073	81.15
745.254	82.06
745.435	82.14
745.616	82
745.797	82.37
745.978	83.17
746.159	82.81
746.34	83.07
746.521	82.27
746.702	81.86
746.883	81.64
747.064	81.8
747.245	81.97
747.426	82.78
747.606	82.92
747.787	83.83
747.968	84.26
748.149	84.22
748.33	85.06
748.51	84.15
748.691	83.56
748.872	83.24
749.053	82.57
749.233	82.54
749.414	82.75
749.595	81.75
749.775	81.94
749.956	81.5
750.137	81.31
750.317	81.45
750.498	81.65
750.678	82.09
750.859	81.98
751.04	82.34
751.22	82.46
751.4	82.86
751.581	82.94
751.761	83.18
751.942	82.28
752.122	82.56
752.303	82.23
752.483	83.14
752.663	83.15
752.844	82.35
753.024	82.12
753.204	82.56
753.385	82.21
753.565	81.53
753.745	81.16
753.925	80.18
754.106	80.58
754.286	80.34
754.466	80.18
754.646	80.58
754.826	81.5
755.006	81.42
755.187	81.79
755.367	82.19
755.547	82.98
755.727	82.44
755.907	82.96
756.087	82.44
756.267	82.33
756.447	82.1
756.627	81.62
756.807	81.32
756.987	82.84
757.167	82.74
757.346	82.57
757.526	82.26
757.706	82.66
757.886	82.53
758.066	82.13
758.246	80.59
758.425	81.38
758.605	81.5
758.785	81.5
758.965	81.36
759.144	81.82
759.324	82.51
759.504	83.41
759.683	82.4
759.863	82.56
760.043	82.74
760.222	82.08
760.402	82.26
760.581	81.35
760.761	80.69
760.94	80.33
761.12	79.59
761.299	79.12
761.479	80.23
761.658	79.42
761.838	79.75
762.017	79.87
762.197	80.74
762.376	82.11
762.555	82.86
762.735	81.22
762.914	81.93
763.093	80.89
763.273	81.45
763.452	80.27
763.631	78.7
763.81	78.8
763.99	80.54
764.169	80
764.348	81.09
764.527	80.87
764.706	81.09
764.885	82.45
765.064	81.57
765.243	80.7
765.423	81.57
765.602	80.52
765.781	79.76
765.96	79.63
766.139	79.29
766.318	80.53
766.497	81.02
766.676	80.47
766.854	80.67
767.033	81.08
767.212	80.65
767.391	79.92
767.57	79.11
767.749	78.8
767.928	77.59
768.106	78.05
768.285	78.04
768.464	79.2
768.643	79.8
768.821	79.76
769	79.82
769.179	80.18
769.357	79.39
769.536	80.06
769.715	78.59
769.893	77.95
770.072	77.39
770.25	76.91
770.429	77.76
770.607	79.07
770.786	78.36
770.964	79.32
771.143	79.72
771.321	78.68
771.5	78.55
771.678	78.19
771.857	76.39
772.035	76.59
772.213	76.63
772.392	76.53
772.57	78.1
772.748	78.51
772.927	78.06
773.105	78.85
773.283	77.27
773.461	77.95
773.64	77.72
773.818	77.04
773.996	77.07
774.174	78.23
774.352	78.07
774.531	79.12
774.709	78.89
774.887	78.57
775.065	79.09
775.243	79.91
775.421	79.31
775.599	79.62
775.777	79.33
775.955	78.77
776.133	78.79
776.311	77.53
776.489	75.76
776.667	76.53
776.844	75.21
777.022	76.08
777.2	75.22
777.378	75.94
777.556	77.39
777.734	78.01
777.911	77.2
778.089	77.26
778.267	76.21
778.445	75.54
778.622	73.62
778.8	72.98
778.978	73.32
779.155	72.66
779.333	71.9
779.511	73
779.688	73.7
779.866	74.61
780.043	76.09
780.221	76.28
780.398	76.81
780.576	78.09
780.753	76.66
780.931	77.26
781.108	77.06
781.286	74.63
781.463	73.79
781.64	72.48
781.818	72.92
781.995	74.55
782.172	74.86
782.35	74.78
782.527	76.69
782.704	77.89
782.882	78.76
783.059	77.71
783.236	75.85
783.413	76.45
783.59	75.92
783.768	74.15
783.945	73.15
784.122	73.29
784.299	75.15
784.476	75.51
784.653	72.94
784.83	72.07
785.007	71.88
785.184	71.02
785.361	70.57
785.538	69.04
785.715	69.29
785.892	70.17
786.069	72.98
786.246	73.29
786.423	75.08
786.6	74.5
786.776	75.27
786.953	74.56
787.13	74.33
787.307	74.07
787.484	75.27
787.66	73.11
787.837	75.66
788.014	74.29
788.191	74.93
788.367	75.23
788.544	74.94
788.721	74.96
788.897	77.44
789.074	75.37
789.25	76.9
789.427	76.88
789.603	78.23
789.78	78.96
789.956	76.38
790.133	74.65
790.309	73.96
790.486	74.03
790.662	75.6
790.839	76.32
791.015	75.45
791.192	77.04
791.368	77.22
791.544	79.19
791.721	75.71
791.897	73.83
792.073	71.16
792.249	72.99
792.426	73.65
792.602	74.69
792.778	74.64
792.954	77.99
793.13	79.43
793.307	80.38
793.483	77.99
793.659	79.4
793.835	77.74
794.011	75.56
794.187	73.18
794.363	72.51
794.539	71.79
794.715	70.24
794.891	67.67
795.067	68.8
795.243	69.17
795.419	71.27
795.595	71.3
795.771	70.94
795.947	69.3
796.122	71.3
796.298	70.51
796.474	71.45
796.65	71.54
796.826	71.89
797.001	71.56
797.177	73.42
797.353	73.8
797.529	73.56
797.704	75.27
797.88	74.99
798.056	75.21
798.231	76.36
798.407	77.99
798.582	77.83
798.758	80.38
798.934	78.35
799.109	75.92
799.285	75.2
799.46	74.44
799.636	73.35
799.811	71.72
799.986	71.88
800.162	71.78
800.337	70.68
800.513	70.15
800.688	73.12
800.863	74.74
801.039	71.67
801.214	67.38
801.389	68.74
801.565	72.38
801.74	68.87
801.915	68.82
802.09	66.42
802.265	68.65
802.441	68.94
802.616	67.79
802.791	66.71
802.966	67.87
803.141	63.9
803.316	64.29
803.491	64.05
803.666	65.1
803.841	65.78
804.016	66.13
804.191	69.06
804.366	69.77
804.541	69.59
804.716	67.86
804.891	72.12
805.066	69.74
805.241	65.94
805.416	62.22
805.591	64.12
805.765	66.21
805.94	70.5
806.115	63.97
806.29	66.53
806.464	68.78
806.639	71.76
806.814	66.38
806.989	63.63
807.163	62.99
807.338	66.16
807.512	60.23
807.687	61.39
807.862	60.23
808.036	62.58
808.211	66
808.385	62.51
808.56	62.07
808.734	67.37
808.909	67.79
809.083	67.03
809.258	71.42
809.432	67.42
809.606	68.21
809.781	67.73
809.955	67.23
810.13	68.29
810.304	69.98
810.478	69.84
810.652	73.2
810.827	76.41
811.001	73.78
811.175	70.05
811.349	68.3
811.524	67.24
811.698	66.48
811.872	66.44
812.046	61.42
812.22	60.57
812.394	62.87
812.568	63.66
812.742	62.57
812.916	59.34
813.09	56.65
813.264	60.25
813.438	69.46
813.612	65.73
813.786	65.28
813.96	68.67
814.134	70.62
814.308	69.79
814.482	63.4
814.656	61.54
814.83	66
815.003	67.1
815.177	67.99
815.351	67.41
815.525	70.47
815.698	77.36
815.872	75.08
816.046	71.95
816.219	73.07
816.393	64.99
816.567	64.86
816.74	66.16
816.914	65.7
817.088	63.02
817.261	64.31
817.435	61.36
817.608	63.89
817.782	65.69
817.955	56.38
818.129	56.38
818.302	56.3
818.475	58.74
818.649	52.46
818.822	54.65
818.996	51.13
819.169	53.13
819.342	49.81
819.516	52.67
819.689	52.78
819.862	54.62
820.035	56.93
820.209	57.88
820.382	60.06
820.555	61.18
820.728	56.45
820.901	54.06
821.075	63
821.248	57.8
821.421	54.62
821.594	54.76
821.767	51.27
821.94	51.04
822.113	51.06
822.286	47.31
822.459	53.11
822.632	54.28
822.805	55.22
822.978	59.48
823.151	66.58
823.324	62.04
823.496	51.81
823.669	55.99
823.842	54.25
824.015	53.29
824.188	52.07
824.361	47.56
824.533	51.39
824.706	68.24
824.879	69.46
825.051	78.39
825.224	79.48
825.397	80.47
825.569	83.57
825.742	80.04
825.915	70.59
826.087	54.84
826.26	49.8
826.432	50.84
826.605	45.35
826.777	47.51
826.95	47.93
827.122	48.44
827.295	57.77
827.467	48.44
827.64	43.34
827.812	46.09
827.984	47.05
828.157	45.91
828.329	42.83
828.501	45.73
828.674	56.29
828.846	59.2
829.018	52.19
829.19	43.94
829.363	47.7
829.535	51.06
829.707	44.93
829.879	46.45
830.051	47.72
830.223	46.9
830.395	49.26
830.568	52.05
830.74	50.5
830.912	55.61
831.084	47.84
831.256	39.93
831.428	40.25
831.6	38.08
831.772	35.17
831.943	34.91
832.115	35.4
832.287	38.9
832.459	50.51
832.631	57.94
832.803	68.08
832.975	72.82
833.146	74.4
833.318	80.93
833.49	80.46
833.662	73.03
833.833	75.42
834.005	74.01
834.177	71.59
834.348	67.03
834.52	67.46
834.692	73.73
834.863	76.35
835.035	72.33
835.206	67.94
835.378	61.24
835.549	67.39
835.721	60.31
835.892	50.59
836.064	49.46
836.235	56.32
836.407	57.46
836.578	68.85
836.749	63.23
836.921	64.87
837.092	72.35
837.264	69.99
837.435	51.28
837.606	48.41
837.777	36.9
837.949	34.69
838.12	30.36
838.291	36.36
838.462	42.32
838.633	56.08
838.805	57
838.976	58.96
839.147	54.38
839.318	55.19
839.489	49.89
839.66	49.07
839.831	31.94
840.002	28.99
840.173	30.03
840.344	47.82
840.515	37.89
840.686	34.28
840.857	30.16
841.028	45.46
841.199	47.81
841.369	47.16
841.54	49.32
841.711	64.31
841.882	63.6
842.053	64.2
842.223	46.4
842.394	56.61
842.565	63.8
842.736	55.6
842.906	50.44
843.077	54.24
843.248	56.86
843.418	68.58
843.589	61.74
843.759	54.26
843.93	53.26
844.101	54.28
844.271	51.63
844.442	49.21
844.612	40
844.783	13.75
844.953	8.84
845.123	14.11
845.294	5.47
845.464	12.23
845.635	12.53
845.805	26.54
845.975	46.85
846.146	52.29
846.316	66.29
846.486	71.63
846.656	70.96
846.827	84.89
846.997	96.31
847.167	89.48
847.337	84.3
847.507	81.56
847.677	76.59
847.848	88.88
848.018	84.06
848.188	73.43
848.358	86.49
848.528	98.43
848.698	87.66
848.868	80.42
849.038	71.47
849.208	65.79
849.378	57.16
849.548	67.34
849.718	58.5
849.887	38.66
850.057	60.73
850.227	57.41
850.397	48.39
850.567	70.17
850.737	40.68
850.906	44.26
851.076	54.09
851.246	52.89
851.415	53.65
851.585	57.62
851.755	52.19
851.924	67.14
852.094	66.97
852.264	63.94
852.433	59.39
852.603	69.07
852.772	61.93
852.942	46.5
853.111	48.66
853.281	54.26
853.45	55.38
853.62	50.12
853.789	47.04
853.959	53.17
854.128	48.87
854.297	30.89
854.467	36.4
854.636	43.58
854.805	46.91
854.975	44.54
855.144	50.39
855.313	70.8
855.482	66.11
855.652	51.54
855.821	48.63
855.99	52.17
856.159	46.02
856.328	35.52
856.497	29.55
856.667	42.44
856.836	37.7
857.005	35.41
857.174	45.97
857.343	43.32
857.512	35.85
857.681	25.84
857.85	26.49
858.019	48.24
858.188	66.37
858.356	38.56
858.525	39.74
858.694	60.07
858.863	69.53
859.032	57.22
859.201	37.58
859.369	24.41
859.538	26.94
859.707	38.96
859.876	33.75
860.044	39.54
860.213	38.1
860.382	45.12
860.55	55.2
860.719	73.21
860.888	66.11
861.056	69.93
861.225	69.03
861.393	77.1
861.562	66.21
861.73	66.78
861.899	40.4
862.067	40.51
862.236	43.36
862.404	40.74
862.572	36.75
862.741	39.79
862.909	33.29
863.078	46.55
863.246	54.78
863.414	55.61
863.582	36.51
863.751	24.76
863.919	42.7
864.087	41.19
864.255	31.87
864.424	35.27
864.592	16.9
864.76	39.41
864.928	54.05
865.096	38.76
865.264	43.11
865.432	43.7
865.6	23.91
865.768	24.16
865.936	20.55
866.104	13.79
866.272	29.56
866.44	-15.99
866.608	-53.95
866.776	-10.56
866.944	3.35
867.112	-30.75
867.28	-57.77
867.448	-32.37
867.615	6.29
867.783	22.09
867.951	35.36
868.119	60.89
868.286	83.14
868.454	69.96
868.622	57.19
868.789	65.45
868.957	70.8
869.125	57.05
869.292	42.23
869.46	40.03
869.627	25.71
869.795	33.68
869.963	34.26
870.13	19.83
870.298	11.39
870.465	-10.88
870.632	-31.06
870.8	-16.07
870.967	5.83
871.135	16.45
871.302	32.6
871.469	34.71
871.637	33.69
871.804	42.48
871.971	50.64
872.139	52.33
872.306	37.9
872.473	22.08
872.64	32.95
872.807	54.66
872.975	56.13
873.142	52.31
873.309	57.61
873.476	77.83
873.643	141.51
873.81	92.53
873.977	17.37
874.144	27.64
874.311	23.06
874.478	-21.66
874.645	-15.78
874.812	11
874.979	14.24
875.146	27.22
875.313	-3.41
875.48	32.62
875.647	29.45
875.813	21.62
875.98	-29.88
876.147	17.09
876.314	31.53
876.481	33.93
876.647	37.73
876.814	49.29
876.981	36.97
877.147	22.49
877.314	8.3
877.481	21.24
877.647	31.98
877.814	18.97
877.98	30.07
878.147	45.51
878.314	70.47
878.48	59.14
878.647	66.43
878.813	64.81
878.979	89.61
879.146	43.08
879.312	55.5
879.479	57.99
879.645	52.17
879.811	31.42
879.978	22.36
880.144	-0.37
880.31	-23.44
880.477	-28.33
880.643	-209.92
880.809	-76.16
880.975	-78.56
881.142	-40.35
881.308	-65.6
881.474	-20.54
881.64	-69.64
881.806	-7.43
881.972	3.54
882.138	30.56
882.304	-22.61
882.47	-9.82
882.636	-56.91
882.802	-67.62
882.968	-94.36
883.134	-293.1
883.3	-167.02
883.466	-41.37
883.632	-30.67
883.798	-14.78
883.964	-12.6
884.129	-8.38
884.295	5.92
884.461	-5.75
884.627	-36.55
884.793	8.73
884.958	7.98
885.124	-11.79
885.29	2.79
885.455	19.81
885.621	26.51
885.787	10.51
885.952	3.32
886.118	11.9
886.283	27.82
886.449	6.1
886.614	1.49
886.78	28.26
886.945	17.01
887.111	10.98
887.276	20.9
887.442	13.41
887.607	16.64
887.773	0.09
887.938	-40.72
888.103	19.36
888.269	34.2
888.434	32.01
888.599	47.74
888.764	50.79
888.93	71.32
889.095	79.59
889.26	83.13
889.425	70.22
889.59	63.05
889.756	51.32
889.921	51.63
890.086	28.44
890.251	27.74
890.416	3.15
890.581	0.67
890.746	-5.93
890.911	-14.56
891.076	-56.76
891.241	-7.64
891.406	23.37
891.571	20.09
891.736	26.62
891.901	41.48
892.065	41.5
892.23	64.93
892.395	43.72
892.56	52.1
892.725	41.59
892.889	21.06
893.054	-12.08
893.219	-30.93
893.384	-102.3
893.548	-326.67
893.713	752.97
893.878	332.61
