Data from Ofra_PS_T2_2A_2HS17_Reflection_2.txt Node
Date: Wed Jul 21 17:07:26 EDT 2021
User: Adam
Spectrometer: FLMT01687
Trigger mode: 0
Integration Time (sec): 1.100000E0
Scans to average: 2
Electric dark correction enabled: true
Nonlinearity correction enabled: false
Boxcar width: 2
XAxis mode: Wavelengths
Number of Pixels in Spectrum: 3648
>>>>>Begin Spectral Data<<<<<
179.494	652.4
179.716	730.12
179.937	687.2
180.158	705.12
180.38	1110.31
180.601	557.18
180.823	160.49
181.044	92.65
181.265	165.81
181.486	57.24
181.708	53.46
181.929	129.59
182.15	180.99
182.372	168.07
182.593	74.04
182.814	67.56
183.035	87.57
183.257	62.19
183.478	-1.38
183.699	53.37
183.92	27.79
184.141	29.82
184.363	-0.08
184.584	56.71
184.805	45.84
185.026	68.78
185.247	70.62
185.468	48.84
185.689	59.8
185.91	47.89
186.132	36.63
186.353	49.44
186.574	117.08
186.795	84.78
187.016	66.25
187.237	42.85
187.458	13.77
187.679	2.07
187.9	-8.37
188.121	-2.83
188.342	13.31
188.563	34.06
188.784	39.04
189.005	62.1
189.226	92.01
189.447	82.35
189.667	-46.84
189.888	-341.63
190.109	-1383.77
190.33	-795.81
190.551	-1359.73
190.772	-267.43
190.993	-158.35
191.214	-83.3
191.434	-43.52
191.655	10.61
191.876	-71.49
192.097	-154.81
192.318	-188.22
192.538	-297.51
192.759	-198.96
192.98	-51.95
193.201	-3.73
193.421	-17.35
193.642	12.44
193.863	16.04
194.083	-14.47
194.304	-17.33
194.525	-3.08
194.745	-17.61
194.966	-21.99
195.187	-35.97
195.407	-54.11
195.628	-113.07
195.848	-117.37
196.069	-121.52
196.29	-39.88
196.51	-57.45
196.731	-43.04
196.951	-54.14
197.172	-73.04
197.392	-106.76
197.613	-86.96
197.833	-113.75
198.054	-75.79
198.274	-26.86
198.495	-48.13
198.715	-6.22
198.936	-16.31
199.156	-19.8
199.377	-114.98
199.597	-110.01
199.817	-142.29
200.038	-78.18
200.258	-153.84
200.479	-66.02
200.699	-55.74
200.919	-7.02
201.14	-9.76
201.36	-4.2
201.58	11.53
201.801	32.8
202.021	-0.98
202.241	0.17
202.461	-8.13
202.682	-85.62
202.902	-140.89
203.122	-65.95
203.342	-64.08
203.563	-2.89
203.783	20.31
204.003	-7.61
204.223	-16.04
204.443	32.63
204.663	-6.58
204.884	10.77
205.104	52.11
205.324	63.74
205.544	56.65
205.764	68.97
205.984	81.03
206.204	67.67
206.424	63.48
206.644	52.68
206.864	59.9
207.084	37.76
207.304	60.52
207.525	-77.03
207.745	-38.37
207.964	-6.74
208.184	-57.43
208.404	-80.3
208.624	-40.82
208.844	-54.25
209.064	-309.79
209.284	-293.91
209.504	-143.62
209.724	-24.43
209.944	25.88
210.164	44.93
210.384	47.22
210.604	52.59
210.823	2.57
211.043	-39.57
211.263	-30.58
211.483	-27.64
211.703	-92.43
211.922	-87.21
212.142	-26.57
212.362	-19.05
212.582	-27.66
212.801	-14.23
213.021	-18
213.241	-42.48
213.461	-74.98
213.68	-73.05
213.9	-26.57
214.12	13.08
214.339	-42.57
214.559	-13.63
214.779	13.31
214.998	-7.89
215.218	-80.54
215.438	-24.12
215.657	-37.75
215.877	-53.17
216.096	-26.71
216.316	6.23
216.535	-25.35
216.755	-24.6
216.974	-113.72
217.194	-131.54
217.413	-154.7
217.633	-145.39
217.852	-247.12
218.072	-98.36
218.291	-60.08
218.511	-12.47
218.73	-20.86
218.95	0.93
219.169	-9.12
219.389	-35.09
219.608	-28.31
219.827	-25.41
220.047	-24.95
220.266	10.07
220.485	11.61
220.705	17.26
220.924	16.81
221.143	41.92
221.363	8.32
221.582	19.54
221.801	29.21
222.021	25.66
222.24	-62.92
222.459	-15.58
222.678	-31.98
222.897	-94.07
223.117	-139.61
223.336	-93.59
223.555	-65.37
223.774	-18.59
223.993	-21.92
224.213	37.24
224.432	20.88
224.651	46.66
224.87	3.38
225.089	33.15
225.308	19.07
225.527	25.99
225.746	23.05
225.965	20.78
226.184	-0.29
226.404	23.34
226.623	4.75
226.842	0.14
227.061	28.16
227.28	19.37
227.499	1.18
227.718	20.04
227.936	13.94
228.155	15.87
228.374	14.38
228.593	34.68
228.812	42.7
229.031	39.24
229.25	-4.33
229.469	4.27
229.688	-7.26
229.907	10.47
230.125	39.62
230.344	58.41
230.563	63.57
230.782	74.92
231.001	13.02
231.22	-25.93
231.438	2.41
231.657	-12.07
231.876	-32.71
232.095	21.1
232.313	30.61
232.532	6.4
232.751	-12.76
232.969	-44.74
233.188	-122.29
233.407	-34.24
233.625	-37.85
233.844	-39.13
234.063	-20.06
234.281	7.06
234.5	-8.1
234.719	-4
234.937	15.18
235.156	20.67
235.374	19
235.593	5.91
235.811	19.98
236.03	15.26
236.249	-21.37
236.467	-33.12
236.686	-11.13
236.904	0.82
237.123	-32.78
237.341	-18.48
237.559	-9.91
237.778	-37.98
237.996	-90.19
238.215	-27.34
238.433	-20.33
238.652	-36.39
238.87	-31.24
239.088	-5.65
239.307	-18.29
239.525	-3.97
239.743	-17.84
239.962	-16.85
240.18	-49.96
240.398	-82.74
240.617	-110.45
240.835	-89.06
241.053	-47.24
241.271	6.88
241.49	23.68
241.708	29.17
241.926	-3.15
242.144	-12.11
242.363	-56.84
242.581	-67.03
242.799	-15.46
243.017	6.99
243.235	-3.78
243.453	3.58
243.672	-1.61
243.89	-13.75
244.108	-19.97
244.326	-1.48
244.544	1.23
244.762	3.79
244.98	4.67
245.198	35.47
245.416	11.88
245.634	-2.54
245.852	-16.36
246.07	-18.82
246.288	-50.26
246.506	-61.68
246.724	-25.24
246.942	-12.86
247.16	3.5
247.378	13.75
247.596	33.11
247.814	16.05
248.032	-12.8
248.25	-3.19
248.468	-7.25
248.685	-6.93
248.903	36.96
249.121	50.73
249.339	17.83
249.557	0.17
249.775	5.99
249.992	-67.9
250.21	-53.3
250.428	-27.25
250.646	-31.06
250.863	-52.08
251.081	-8.25
251.299	-10.76
251.517	-5.11
251.734	2.94
251.952	5.3
252.17	-3.2
252.387	7.61
252.605	0.39
252.823	6.24
253.04	30.08
253.258	55.47
253.475	72.46
253.693	97.4
253.911	82.79
254.128	66.92
254.346	63.14
254.563	29.9
254.781	2.68
254.998	-30.14
255.216	-18.12
255.433	-14.98
255.651	18.41
255.868	36.66
256.086	71.45
256.303	46.43
256.521	27.44
256.738	0.65
256.956	-26.27
257.173	-37.7
257.39	-60.42
257.608	-100.91
257.825	-8.45
258.043	15.32
258.26	10.9
258.477	61.66
258.695	89.5
258.912	12.41
259.129	15.93
259.346	-1.82
259.564	-36.9
259.781	-46.49
259.998	32.22
260.216	38.98
260.433	72.47
260.65	67.12
260.867	71.06
261.084	16.54
261.302	16.31
261.519	-17.52
261.736	-47.23
261.953	-77.59
262.17	-18.66
262.387	-44.08
262.604	-71.42
262.822	-59.49
263.039	-43.64
263.256	-117.47
263.473	-80.29
263.69	-28.3
263.907	1.36
264.124	15.61
264.341	36.82
264.558	22.21
264.775	13.56
264.992	17.25
265.209	13.83
265.426	31.89
265.643	43.29
265.86	57.07
266.077	47.41
266.294	34.68
266.51	-16.99
266.727	-45.73
266.944	-30.06
267.161	-33.94
267.378	-24.59
267.595	9.19
267.812	-4.67
268.028	-34.56
268.245	-22.03
268.462	-29.62
268.679	-40.66
268.896	1.18
269.112	14.15
269.329	17.14
269.546	11.59
269.763	9.32
269.979	-3.8
270.196	-16.73
270.413	-55.19
270.629	-67.8
270.846	-79.39
271.063	-69.75
271.279	-71.26
271.496	-55.84
271.712	-12.49
271.929	24.24
272.146	20.45
272.362	7.05
272.579	40.39
272.795	31.36
273.012	26.17
273.228	16.26
273.445	7.26
273.661	-36.13
273.878	-61.43
274.094	-61.68
274.311	-76.68
274.527	-6.2
274.744	-3.65
274.96	-2.22
275.177	8.23
275.393	20.35
275.609	15.06
275.826	43.81
276.042	35.09
276.259	25.47
276.475	42.97
276.691	33.59
276.908	11.23
277.124	26.62
277.34	23.24
277.557	8.35
277.773	-1.13
277.989	-5.09
278.205	-12.53
278.422	1.92
278.638	-0.61
278.854	16.08
279.07	16.35
279.286	33.26
279.503	-7.85
279.719	-6.18
279.935	-32.43
280.151	-38.21
280.367	-45.67
280.583	-44.36
280.799	-42.36
281.016	-68.39
281.232	-27.73
281.448	-34.61
281.664	-19.28
281.88	-46.31
282.096	-13.54
282.312	-6.36
282.528	7.85
282.744	35.81
282.96	24.1
283.176	23.77
283.392	28.65
283.608	31.97
283.824	13.4
284.04	40.76
284.256	52.69
284.471	29.67
284.687	19.7
284.903	45.83
285.119	55.81
285.335	29.87
285.551	47.25
285.767	28.65
285.982	10.7
286.198	-40.46
286.414	14.72
286.63	21.78
286.846	46.15
287.061	29.65
287.277	65.11
287.493	41.41
287.709	52.78
287.924	34.72
288.14	65.64
288.356	55.03
288.571	63.05
288.787	42.22
289.003	47.22
289.218	28.1
289.434	-11.81
289.65	-4.73
289.865	-4.11
290.081	11.41
290.296	33.46
290.512	50.71
290.727	13.82
290.943	2.04
291.159	-16.26
291.374	-31.56
291.59	-55.01
291.805	-29.85
292.021	-25.12
292.236	-39.74
292.451	-18.08
292.667	-9.94
292.882	-5.12
293.098	-5.66
293.313	9.02
293.529	-19.87
293.744	-23.53
293.959	-35.34
294.175	-33.64
294.39	-4.37
294.605	15.64
294.821	43.25
295.036	46.44
295.251	60.42
295.467	39.49
295.682	29.3
295.897	-18.48
296.112	-10.84
296.328	-16.68
296.543	-32.68
296.758	-17.15
296.973	20.1
297.188	31.28
297.404	5.81
297.619	-4.94
297.834	-10.51
298.049	-38.27
298.264	-53.14
298.479	1.48
298.694	14.64
298.909	28.25
299.125	37.65
299.34	47.89
299.555	16.79
299.77	39.45
299.985	-3.6
300.2	-56.39
300.415	-75.38
300.63	-54.13
300.845	-70.89
301.06	-69.34
301.275	-31.83
301.49	-18.53
301.704	-13.16
301.919	-26.46
302.134	-33.91
302.349	-46.87
302.564	-102.48
302.779	-143.83
302.994	-151.49
303.209	-102.03
303.423	-23.19
303.638	32.11
303.853	8.45
304.068	7.57
304.283	5.43
304.497	-9.93
304.712	-25.98
304.927	-3.96
305.142	-4.7
305.356	14.53
305.571	19.24
305.786	8.28
306	-22.72
306.215	-21.78
306.43	-60.74
306.644	-69.05
306.859	-37.51
307.074	-24.51
307.288	-34.64
307.503	-25.06
307.717	-38.77
307.932	-28.24
308.147	-10.72
308.361	9.72
308.576	-11.25
308.79	-32.56
309.005	-38.16
309.219	-21.53
309.434	-29.25
309.648	-23.94
309.863	-1.91
310.077	10.72
310.292	2.85
310.506	2.74
310.72	11.86
310.935	8.49
311.149	-7.45
311.364	4.24
311.578	11.48
311.792	1.68
312.007	20.58
312.221	15.13
312.435	18.13
312.649	3.24
312.864	8.47
313.078	0.41
313.292	33.23
313.507	18.29
313.721	47.56
313.935	52.24
314.149	53.26
314.363	47.8
314.578	36.36
314.792	29.3
315.006	6.6
315.22	11.25
315.434	19.3
315.648	26.15
315.862	38.11
316.077	37.08
316.291	25.49
316.505	9.89
316.719	-3.95
316.933	-46.07
317.147	-23.16
317.361	-62.93
317.575	-72.45
317.789	-101.26
318.003	-147.96
318.217	-128.67
318.431	-35.08
318.645	9.86
318.859	11.57
319.073	37.22
319.287	25.87
319.5	0.13
319.714	-35.21
319.928	-43.81
320.142	-72.89
320.356	-14.72
320.57	13.73
320.784	-10.93
320.997	-21.85
321.211	-0.66
321.425	-47.93
321.639	-74.39
321.853	-17.17
322.066	-2.83
322.28	-6.42
322.494	0.69
322.707	20.3
322.921	3.29
323.135	-0.97
323.349	7.87
323.562	-14.54
323.776	-30.8
323.989	-20.67
324.203	-38.08
324.417	-61.94
324.63	-64.38
324.844	-55.67
325.057	-64.1
325.271	-23.88
325.485	2.56
325.698	24.87
325.912	38.03
326.125	22.6
326.339	-2.9
326.552	-15.92
326.766	-17.82
326.979	-14.74
327.193	19.44
327.406	16.76
327.619	10.46
327.833	15.08
328.046	-11.61
328.26	-48.83
328.473	-24.44
328.686	-38.64
328.9	-27.6
329.113	-4.04
329.326	-24.13
329.54	-2.33
329.753	-11.97
329.966	-28.77
330.179	-15.28
330.393	13.82
330.606	13.82
330.819	28.23
331.032	38.25
331.246	34.37
331.459	62.5
331.672	48.71
331.885	32.14
332.098	1.8
332.311	-11.83
332.525	-93.93
332.738	-78.6
332.951	-37.97
333.164	-7.23
333.377	1.88
333.59	28.34
333.803	33.03
334.016	23.53
334.229	16.3
334.442	23.87
334.655	45.3
334.868	32.43
335.081	28.12
335.294	27.75
335.507	22.25
335.72	7.67
335.933	9.7
336.146	10.81
336.359	10.17
336.572	-21.39
336.785	-51.74
336.997	-37.01
337.21	-19.71
337.423	-19.9
337.636	-0.38
337.849	9.16
338.062	-8.72
338.274	3.65
338.487	-10.92
338.7	-15.74
338.913	-47.5
339.125	-78.11
339.338	-144.54
339.551	-115.13
339.763	-85.45
339.976	-27.99
340.189	10.75
340.402	22.94
340.614	13.45
340.827	3.65
341.039	-20.38
341.252	-23.64
341.465	-0.97
341.677	-5.2
341.89	-35.91
342.102	-2.29
342.315	-14.43
342.527	-55.51
342.74	-35.57
342.952	-9.65
343.165	-12.7
343.377	3.39
343.59	-3.85
343.802	13.43
344.015	22.84
344.227	17.35
344.44	6.41
344.652	10.37
344.864	-11.21
345.077	18.99
345.289	20.78
345.502	23.28
345.714	22.62
345.926	30.2
346.139	19.02
346.351	29.31
346.563	34.11
346.775	42.95
346.988	30
347.2	18.94
347.412	-30.09
347.624	-45.87
347.837	-74.87
348.049	-45.68
348.261	-11.52
348.473	12.83
348.685	11.15
348.897	18.83
349.11	-6.37
349.322	-32.09
349.534	-21.61
349.746	-10.33
349.958	-28.5
350.17	-19.69
350.382	6.38
350.594	-0.2
350.806	10.52
351.018	24.09
351.23	13.89
351.442	-56.88
351.654	-74.57
351.866	-86.23
352.078	-75.34
352.29	-30.49
352.502	11.29
352.714	25.21
352.926	15.49
353.138	13.03
353.35	-6.11
353.561	-8.22
353.773	-24.4
353.985	2.46
354.197	-10.64
354.409	-11.78
354.621	-26.12
354.832	-11.85
355.044	-29.89
355.256	-20.31
355.468	-3.95
355.679	-5.59
355.891	-5.24
356.103	-14.52
356.314	-9.11
356.526	2.51
356.738	20.92
356.949	3.31
357.161	12.59
357.373	4
357.584	-31.5
357.796	-15.91
358.008	-12.64
358.219	1.06
358.431	-0.97
358.642	13.8
358.854	-4.53
359.065	-18.07
359.277	-49.12
359.488	-51.31
359.7	-66.1
359.911	-69.76
360.123	-30.52
360.334	-34.36
360.546	-45.21
360.757	-32.01
360.969	-12.98
361.18	-24.26
361.391	-15.84
361.603	-5.06
361.814	-3.15
362.025	-11.53
362.237	-14.18
362.448	3.73
362.659	13.2
362.871	15.21
363.082	5.68
363.293	0.54
363.504	-15.68
363.716	-33.21
363.927	-44.91
364.138	-55.96
364.349	-57.05
364.56	-38.14
364.772	-38.65
364.983	-18.08
365.194	-13.47
365.405	2.9
365.616	14.88
365.827	22.41
366.038	2.17
366.25	-3.28
366.461	-31.69
366.672	-11.13
366.883	17.2
367.094	24.47
367.305	18.97
367.516	28.46
367.727	-1.94
367.938	-27.26
368.149	-33.47
368.36	-9.51
368.571	-9.51
368.781	-19.9
368.992	-35.7
369.203	-46.4
369.414	-63.11
369.625	-65.66
369.836	-39.46
370.047	-61.75
370.258	-42.1
370.468	-47.37
370.679	-57.15
370.89	-60.58
371.101	-28.96
371.312	-37.52
371.522	-41.26
371.733	-30.45
371.944	-9.93
372.155	-4.42
372.365	-8.95
372.576	-6.2
372.787	-7.99
372.997	-35.75
373.208	-40.48
373.419	-13.97
373.629	-42.47
373.84	-44.28
374.05	-45.14
374.261	-26.23
374.472	-55.17
374.682	2.4
374.893	12.16
375.103	37.99
375.314	28.6
375.524	38.31
375.735	36.72
375.945	35.45
376.156	16.77
376.366	29.77
376.577	26.59
376.787	11.83
376.997	15.96
377.208	14.42
377.418	-8.83
377.629	5.42
377.839	14.89
378.049	12.94
378.26	25.11
378.47	44.63
378.68	28.43
378.89	16.78
379.101	8.73
379.311	-21.58
379.521	-58.36
379.732	-63.31
379.942	-54.34
380.152	-65.42
380.362	-29.83
380.572	-20.8
380.783	-2.97
380.993	5.07
381.203	15.57
381.413	14.13
381.623	4.47
381.833	13.5
382.043	9.38
382.253	0.09
382.463	-5.65
382.674	-10.06
382.884	-29.63
383.094	-32.7
383.304	-23.72
383.514	-11.75
383.724	-0.1
383.934	-1.24
384.144	-5.98
384.353	-11.21
384.563	-17.12
384.773	-13.62
384.983	-18.87
385.193	-0.42
385.403	1.14
385.613	0.37
385.823	-13.29
386.033	-9
386.242	-19.1
386.452	-19.06
386.662	-20.89
386.872	-5.47
387.082	-6.23
387.291	-11.75
387.501	-11.45
387.711	-7.91
387.921	-14.74
388.13	-10.01
388.34	2.3
388.55	-0.83
388.759	1.73
388.969	4.55
389.179	0.54
389.388	1.36
389.598	3.48
389.807	-2.37
390.017	-5.27
390.227	-2.09
390.436	-7.14
390.646	-3.84
390.855	-1.42
391.065	-0.55
391.274	-3.68
391.484	-5.11
391.693	-2.28
391.903	0.59
392.112	6.12
392.322	9.01
392.531	13.82
392.74	11.83
392.95	7.35
393.159	3.7
393.369	3.81
393.578	1.83
393.787	0.14
393.997	1.7
394.206	0.95
394.415	1.07
394.625	0.52
394.834	-0.29
395.043	0.9
395.252	2.82
395.462	4.18
395.671	5.46
395.88	6.44
396.089	6.67
396.298	4.7
396.508	4.11
396.717	3.62
396.926	4.1
397.135	3.37
397.344	3.78
397.553	3.77
397.762	5.11
397.971	5.16
398.181	5.86
398.39	5.59
398.599	5.77
398.808	5.34
399.017	6.07
399.226	6.9
399.435	8.19
399.644	8.23
399.853	7.29
400.062	6.1
400.27	5.2
400.479	4.52
400.688	3.91
400.897	4.15
401.106	4.8
401.315	4.88
401.524	4.82
401.733	5.35
401.941	5.82
402.15	5.87
402.359	5.78
402.568	6.2
402.777	6.19
402.985	5.93
403.194	5.54
403.403	5.36
403.612	4.84
403.82	4.77
404.029	5.01
404.238	5
404.446	5.32
404.655	5.28
404.864	5.25
405.072	4.88
405.281	5.07
405.489	4.67
405.698	4.59
405.906	4.62
406.115	4.71
406.324	4.78
406.532	5.12
406.741	5.54
406.949	5.5
407.158	5.55
407.366	5.36
407.574	5.33
407.783	5.16
407.991	4.96
408.2	5.06
408.408	5.09
408.617	4.98
408.825	4.79
409.033	4.9
409.242	4.78
409.45	4.85
409.658	4.67
409.867	4.89
410.075	4.76
410.283	4.64
410.491	4.51
410.7	4.43
410.908	4.39
411.116	4.65
411.324	4.67
411.533	4.59
411.741	4.82
411.949	4.75
412.157	4.45
412.365	4.47
412.573	4.51
412.781	4.54
412.99	4.48
413.198	4.71
413.406	4.79
413.614	4.88
413.822	4.69
414.03	4.52
414.238	4.25
414.446	4.36
414.654	3.99
414.862	4.05
415.07	4.27
415.278	4.51
415.486	4.17
415.694	4.53
415.902	4.46
416.109	4.32
416.317	4.24
416.525	4.19
416.733	4
416.941	4.13
417.149	4.14
417.357	4.16
417.564	4.29
417.772	4.44
417.98	4.25
418.188	4.19
418.395	4.24
418.603	4.41
418.811	4.09
419.019	4.03
419.226	4.19
419.434	4.13
419.642	3.97
419.849	4.16
420.057	4.38
420.265	4.38
420.472	4.1
420.68	4.18
420.887	4.01
421.095	3.98
421.302	3.91
421.51	4.28
421.717	4.25
421.925	4.43
422.132	4.22
422.34	3.97
422.547	3.84
422.755	3.62
422.962	3.45
423.17	3.37
423.377	3.54
423.585	3.49
423.792	3.5
423.999	3.52
424.207	3.74
424.414	3.88
424.621	3.85
424.829	4.05
425.036	4.09
425.243	4.07
425.451	3.73
425.658	3.66
425.865	3.71
426.072	3.74
426.28	3.99
426.487	4.11
426.694	4.16
426.901	3.84
427.108	3.81
427.315	3.57
427.523	3.89
427.73	3.96
427.937	4.1
428.144	4.02
428.351	3.93
428.558	3.89
428.765	3.7
428.972	3.57
429.179	3.74
429.386	4.01
429.593	3.73
429.8	3.83
430.007	4.04
430.214	4.27
430.421	3.97
430.628	3.84
430.835	3.64
431.042	3.69
431.249	3.58
431.456	3.7
431.662	3.91
431.869	4.22
432.076	4.21
432.283	4.22
432.49	4.23
432.697	4.33
432.903	4.15
433.11	4.06
433.317	4.14
433.524	4.31
433.73	4.19
433.937	4.33
434.144	4.27
434.35	4.16
434.557	4.02
434.764	4.08
434.97	4
435.177	4.1
435.384	3.99
435.59	4.08
435.797	4.25
436.003	4.34
436.21	4.38
436.416	4.48
436.623	4.44
436.829	4.47
437.036	4.57
437.242	4.62
437.449	4.55
437.655	4.57
437.862	4.47
438.068	4.28
438.275	4.41
438.481	4.66
438.687	4.64
438.894	4.72
439.1	4.88
439.307	4.97
439.513	4.87
439.719	4.89
439.926	4.84
440.132	4.81
440.338	4.59
440.544	4.64
440.751	4.64
440.957	4.75
441.163	4.72
441.369	4.84
441.575	4.7
441.782	4.68
441.988	4.46
442.194	4.41
442.4	4.43
442.606	4.63
442.812	4.75
443.018	4.88
443.224	5
443.431	4.98
443.637	4.77
443.843	4.63
444.049	4.65
444.255	4.52
444.461	4.59
444.667	4.7
444.873	4.97
445.079	5.02
445.284	5.17
445.49	4.9
445.696	4.78
445.902	4.61
446.108	4.51
446.314	4.49
446.52	4.69
446.726	4.93
446.931	4.91
447.137	4.99
447.343	5.01
447.549	4.96
447.755	4.81
447.96	4.89
448.166	4.82
448.372	4.79
448.578	4.79
448.783	4.84
448.989	4.91
449.195	5.16
449.4	5.16
449.606	5.19
449.812	5.1
450.017	5.1
450.223	4.85
450.428	4.81
450.634	4.88
450.84	4.97
451.045	4.87
451.251	4.81
451.456	5.04
451.662	5.12
451.867	5.11
452.073	5.09
452.278	5.24
452.483	5.22
452.689	5.02
452.894	5.08
453.1	5.03
453.305	5
453.51	4.93
453.716	4.99
453.921	5.09
454.127	5.15
454.332	5.09
454.537	5
454.742	5
454.948	4.87
455.153	4.9
455.358	4.98
455.563	5.25
455.769	5.34
455.974	5.32
456.179	5.14
456.384	5.05
456.589	4.86
456.795	4.61
457	4.66
457.205	5.05
457.41	5.12
457.615	5.09
457.82	5.22
458.025	5.2
458.23	4.93
458.435	4.88
458.64	4.84
458.845	4.94
459.05	4.94
459.255	5
459.46	5.1
459.665	5.11
459.87	5.16
460.075	5.09
460.28	5.1
460.485	5.13
460.69	5.18
460.895	4.97
461.099	4.98
461.304	5.1
461.509	5.08
461.714	5.04
461.919	5.29
462.123	5.23
462.328	5.27
462.533	5.21
462.738	5.29
462.942	5.14
463.147	5.27
463.352	5.21
463.556	5.22
463.761	5.25
463.966	5.3
464.17	5.36
464.375	5.28
464.58	5.29
464.784	5.18
464.989	5.2
465.193	5.11
465.398	5.17
465.602	5.21
465.807	5.2
466.011	5.24
466.216	5.42
466.42	5.51
466.625	5.68
466.829	5.84
467.034	5.79
467.238	5.87
467.443	5.76
467.647	5.56
467.851	5.56
468.056	5.62
468.26	5.46
468.464	5.49
468.669	5.6
468.873	5.7
469.077	5.7
469.282	5.78
469.486	5.76
469.69	5.76
469.894	5.63
470.099	5.67
470.303	5.77
470.507	5.78
470.711	5.73
470.915	5.7
471.119	5.59
471.324	5.55
471.528	5.59
471.732	5.69
471.936	5.83
472.14	5.89
472.344	5.85
472.548	5.91
472.752	6.05
472.956	6.16
473.16	6.25
473.364	6.16
473.568	6.1
473.772	6.05
473.976	5.89
474.18	5.8
474.384	5.91
474.588	5.98
474.792	5.87
474.995	5.99
475.199	6.1
475.403	6.15
475.607	6.13
475.811	6.14
476.015	6.12
476.218	6.18
476.422	6.14
476.626	6.24
476.83	6.36
477.033	6.35
477.237	6.24
477.441	6.29
477.644	6.24
477.848	6.2
478.052	6.14
478.255	6.2
478.459	6.22
478.663	6.35
478.866	6.39
479.07	6.44
479.273	6.56
479.477	6.54
479.681	6.49
479.884	6.41
480.088	6.42
480.291	6.38
480.495	6.46
480.698	6.46
480.901	6.53
481.105	6.64
481.308	6.6
481.512	6.53
481.715	6.63
481.919	6.72
482.122	6.68
482.325	6.7
482.529	6.74
482.732	6.74
482.935	6.61
483.138	6.57
483.342	6.62
483.545	6.63
483.748	6.57
483.952	6.66
484.155	6.82
484.358	6.85
484.561	6.84
484.764	6.8
484.967	6.89
485.171	6.9
485.374	6.86
485.577	6.92
485.78	6.99
485.983	6.88
486.186	6.77
486.389	6.69
486.592	6.76
486.795	6.78
486.998	6.77
487.201	6.82
487.404	6.91
487.607	6.92
487.81	6.97
488.013	7.09
488.216	7.08
488.419	7.07
488.622	7
488.825	6.88
489.028	6.76
489.231	6.76
489.433	6.72
489.636	6.67
489.839	6.68
490.042	6.68
490.245	6.69
490.447	6.74
490.65	6.74
490.853	6.78
491.056	6.83
491.258	6.84
491.461	6.85
491.664	6.91
491.866	6.87
492.069	6.92
492.272	6.81
492.474	6.87
492.677	6.88
492.879	6.94
493.082	6.94
493.285	7.14
493.487	7.07
493.69	7
493.892	6.93
494.095	6.89
494.297	6.83
494.5	6.84
494.702	6.92
494.905	7
495.107	6.96
495.309	6.97
495.512	7.1
495.714	7.11
495.917	7.12
496.119	7.15
496.321	7.22
496.524	7.21
496.726	7.24
496.928	7.29
497.13	7.3
497.333	7.25
497.535	7.26
497.737	7.28
497.939	7.3
498.142	7.37
498.344	7.43
498.546	7.35
498.748	7.37
498.95	7.43
499.152	7.36
499.355	7.41
499.557	7.49
499.759	7.58
499.961	7.57
500.163	7.68
500.365	7.63
500.567	7.71
500.769	7.57
500.971	7.57
501.173	7.56
501.375	7.64
501.577	7.55
501.779	7.54
501.981	7.55
502.183	7.55
502.385	7.52
502.587	7.46
502.788	7.57
502.99	7.6
503.192	7.64
503.394	7.67
503.596	7.78
503.798	7.85
503.999	7.88
504.201	7.87
504.403	7.91
504.605	7.96
504.806	7.93
505.008	7.94
505.21	8.03
505.411	8.01
505.613	8.05
505.815	8.05
506.016	8.06
506.218	8.08
506.42	8.12
506.621	8.12
506.823	8.17
507.024	8.12
507.226	8.14
507.427	8.16
507.629	8.22
507.83	8.26
508.032	8.37
508.233	8.49
508.435	8.49
508.636	8.55
508.838	8.52
509.039	8.51
509.24	8.42
509.442	8.47
509.643	8.43
509.845	8.48
510.046	8.59
510.247	8.66
510.448	8.67
510.65	8.73
510.851	8.79
511.052	8.79
511.254	8.78
511.455	8.9
511.656	8.93
511.857	9.05
512.058	9.06
512.26	9.07
512.461	9.06
512.662	9.09
512.863	8.96
513.064	8.95
513.265	8.96
513.466	8.98
513.667	8.98
513.868	9.04
514.069	9.08
514.27	9.21
514.471	9.16
514.672	9.16
514.873	9.13
515.074	9.19
515.275	9.02
515.476	9
515.677	9.05
515.878	9.19
516.079	9.11
516.28	9.21
516.481	9.38
516.682	9.37
516.882	9.27
517.083	9.3
517.284	9.24
517.485	9.16
517.686	9.12
517.886	9.21
518.087	9.32
518.288	9.4
518.488	9.44
518.689	9.52
518.89	9.5
519.091	9.47
519.291	9.51
519.492	9.5
519.692	9.55
519.893	9.62
520.094	9.62
520.294	9.61
520.495	9.61
520.695	9.56
520.896	9.58
521.096	9.64
521.297	9.66
521.497	9.72
521.698	9.72
521.898	9.71
522.099	9.73
522.299	9.81
522.499	9.82
522.7	9.89
522.9	9.9
523.101	9.92
523.301	9.92
523.501	9.93
523.702	9.95
523.902	10.03
524.102	10.06
524.302	10.03
524.503	10.07
524.703	10.03
524.903	10.04
525.103	9.96
525.304	10.09
525.504	10.16
525.704	10.26
525.904	10.25
526.104	10.32
526.304	10.32
526.504	10.32
526.705	10.31
526.905	10.4
527.105	10.4
527.305	10.33
527.505	10.28
527.705	10.31
527.905	10.25
528.105	10.32
528.305	10.3
528.505	10.39
528.705	10.46
528.905	10.46
529.105	10.44
529.304	10.54
529.504	10.57
529.704	10.51
529.904	10.54
530.104	10.6
530.304	10.67
530.503	10.61
530.703	10.56
530.903	10.53
531.103	10.56
531.303	10.47
531.502	10.55
531.702	10.73
531.902	10.8
532.101	10.78
532.301	10.89
532.501	10.89
532.7	10.78
532.9	10.8
533.1	10.81
533.299	10.78
533.499	10.8
533.698	10.8
533.898	10.77
534.097	10.79
534.297	10.9
534.496	10.94
534.696	11.04
534.895	11.17
535.095	11.29
535.294	11.21
535.494	11.16
535.693	11.18
535.892	11.17
536.092	11.07
536.291	11.09
536.491	11.21
536.69	11.26
536.889	11.18
537.088	11.23
537.288	11.3
537.487	11.32
537.686	11.29
537.886	11.36
538.085	11.48
538.284	11.58
538.483	11.57
538.682	11.67
538.882	11.76
539.081	11.74
539.28	11.67
539.479	11.69
539.678	11.7
539.877	11.78
540.076	11.78
540.275	11.85
540.474	11.93
540.673	11.92
540.872	11.89
541.071	11.99
541.27	12.01
541.469	12.13
541.668	12.21
541.867	12.23
542.066	12.26
542.265	12.32
542.464	12.28
542.663	12.33
542.862	12.48
543.06	12.57
543.259	12.65
543.458	12.68
543.657	12.69
543.856	12.7
544.054	12.65
544.253	12.64
544.452	12.67
544.651	12.77
544.849	12.75
545.048	12.82
545.247	12.84
545.445	12.91
545.644	12.92
545.843	12.96
546.041	12.98
546.24	13.08
546.438	13.15
546.637	13.26
546.836	13.43
547.034	13.55
547.233	13.58
547.431	13.58
547.63	13.6
547.828	13.58
548.027	13.61
548.225	13.64
548.423	13.72
548.622	13.79
548.82	13.84
549.019	13.9
549.217	14.02
549.415	14.07
549.614	14.12
549.812	14.19
550.01	14.24
550.209	14.31
550.407	14.43
550.605	14.44
550.803	14.55
551.002	14.63
551.2	14.7
551.398	14.81
551.596	14.97
551.794	15.04
551.993	15.14
552.191	15.15
552.389	15.19
552.587	15.28
552.785	15.35
552.983	15.4
553.181	15.54
553.379	15.61
553.577	15.65
553.775	15.75
553.973	15.82
554.171	15.94
554.369	15.98
554.567	16.05
554.765	16.07
554.963	16.2
555.161	16.19
555.359	16.32
555.557	16.48
555.755	16.55
555.952	16.65
556.15	16.74
556.348	16.84
556.546	16.88
556.744	16.95
556.941	16.98
557.139	17.08
557.337	17.13
557.535	17.18
557.732	17.3
557.93	17.59
558.128	17.64
558.325	17.75
558.523	17.83
558.721	18
558.918	17.89
559.116	18.02
559.313	18.06
559.511	18.25
559.708	18.29
559.906	18.39
560.104	18.46
560.301	18.6
560.498	18.62
560.696	18.69
560.893	18.9
561.091	19.04
561.288	19.16
561.486	19.26
561.683	19.37
561.88	19.39
562.078	19.5
562.275	19.53
562.473	19.68
562.67	19.79
562.867	19.92
563.064	20.07
563.262	20.14
563.459	20.23
563.656	20.38
563.853	20.41
564.051	20.48
564.248	20.68
564.445	20.75
564.642	20.74
564.839	20.98
565.036	21.17
565.234	21.35
565.431	21.41
565.628	21.61
565.825	21.66
566.022	21.7
566.219	21.75
566.416	21.97
566.613	22.03
566.81	22.07
567.007	22
567.204	21.98
567.401	21.98
567.598	22.02
567.795	22.1
567.991	22.17
568.188	22.32
568.385	22.38
568.582	22.46
568.779	22.56
568.976	22.75
569.172	22.87
569.369	22.86
569.566	22.9
569.763	22.95
569.96	22.94
570.156	22.89
570.353	22.91
570.55	22.95
570.746	22.98
570.943	23.03
571.14	23.13
571.336	23.25
571.533	23.32
571.729	23.35
571.926	23.46
572.123	23.44
572.319	23.52
572.516	23.55
572.712	23.65
572.909	23.64
573.105	23.71
573.302	23.75
573.498	23.84
573.695	23.85
573.891	23.94
574.087	23.96
574.284	23.95
574.48	23.8
574.677	23.74
574.873	23.65
575.069	23.69
575.266	23.75
575.462	23.79
575.658	23.93
575.854	24.05
576.051	24.07
576.247	23.98
576.443	24.02
576.639	23.98
576.835	23.91
577.032	23.9
577.228	24.03
577.424	24.05
577.62	24.02
577.816	24.04
578.012	23.99
578.208	24
578.404	24.09
578.6	24.07
578.796	24.04
578.993	24.08
579.189	24.05
579.384	23.88
579.58	23.86
579.776	23.92
579.972	23.84
580.168	23.65
580.364	23.68
580.56	23.68
580.756	23.61
580.952	23.58
581.148	23.61
581.343	23.65
581.539	23.66
581.735	23.67
581.931	23.68
582.127	23.78
582.322	23.7
582.518	23.69
582.714	23.65
582.909	23.73
583.105	23.63
583.301	23.62
583.496	23.62
583.692	23.54
583.888	23.46
584.083	23.47
584.279	23.52
584.474	23.45
584.67	23.48
584.866	23.53
585.061	23.37
585.257	23.31
585.452	23.31
585.648	23.22
585.843	23.2
586.039	23.29
586.234	23.26
586.429	23.19
586.625	23.31
586.82	23.26
587.015	23.27
587.211	23.3
587.406	23.46
587.601	23.45
587.797	23.47
587.992	23.44
588.187	23.49
588.383	23.45
588.578	23.43
588.773	23.37
588.968	23.46
589.163	23.43
589.359	23.29
589.554	23.25
589.749	23.33
589.944	23.31
590.139	23.26
590.334	23.4
590.529	23.37
590.724	23.37
590.919	23.47
591.114	23.57
591.309	23.6
591.504	23.73
591.699	23.7
591.894	23.72
592.089	23.68
592.284	23.65
592.479	23.79
592.674	23.8
592.869	23.92
593.064	24.05
593.259	24.22
593.454	24.2
593.648	24.27
593.843	24.19
594.038	24.23
594.233	24.18
594.428	24.18
594.622	24.3
594.817	24.39
595.012	24.46
595.206	24.55
595.401	24.69
595.596	24.74
595.79	24.91
595.985	25.03
596.18	25.1
596.374	25.14
596.569	25.16
596.763	25.19
596.958	25.19
597.153	25.28
597.347	25.3
597.542	25.51
597.736	25.44
597.931	25.49
598.125	25.51
598.319	25.62
598.514	25.54
598.708	25.75
598.903	25.72
599.097	25.79
599.291	25.85
599.486	25.94
599.68	25.98
599.874	26.09
600.069	26.11
600.263	26.1
600.457	26.18
600.651	26.1
600.846	26.18
601.04	26.24
601.234	26.35
601.428	26.4
601.622	26.46
601.817	26.48
602.011	26.48
602.205	26.46
602.399	26.38
602.593	26.34
602.787	26.42
602.981	26.5
603.175	26.57
603.369	26.63
603.563	26.81
603.757	26.76
603.951	26.68
604.145	26.67
604.339	26.68
604.533	26.52
604.727	26.55
604.921	26.51
605.115	26.48
605.309	26.58
605.502	26.58
605.696	26.54
605.89	26.56
606.084	26.42
606.278	26.3
606.471	26.23
606.665	26.14
606.859	25.99
607.053	26
607.246	25.92
607.44	25.93
607.634	25.89
607.827	25.98
608.021	25.89
608.214	25.82
608.408	25.68
608.602	25.59
608.795	25.39
608.989	25.28
609.182	25.21
609.376	25.25
609.569	25.15
609.763	25.12
609.956	25.06
610.15	24.92
610.343	24.78
610.537	24.7
610.73	24.71
610.923	24.63
611.117	24.67
611.31	24.65
611.504	24.64
611.697	24.44
611.89	24.45
612.083	24.32
612.277	24.18
612.47	24.05
612.663	24.11
612.856	23.96
613.05	23.86
613.243	23.78
613.436	23.64
613.629	23.41
613.822	23.34
614.015	23.28
614.209	23.2
614.402	23.26
614.595	23.3
614.788	23.25
614.981	23.07
615.174	22.94
615.367	22.89
615.56	22.74
615.753	22.62
615.946	22.58
616.139	22.67
616.332	22.65
616.525	22.66
616.718	22.69
616.911	22.71
617.103	22.64
617.296	22.47
617.489	22.37
617.682	22.27
617.875	22.19
618.067	22.09
618.26	22.06
618.453	22.07
618.646	22.02
618.838	22.01
619.031	22.13
619.224	22.08
619.417	21.96
619.609	21.95
619.802	21.9
619.994	21.76
620.187	21.74
620.38	21.8
620.572	21.75
620.765	21.79
620.957	21.68
621.15	21.61
621.342	21.44
621.535	21.46
621.727	21.36
621.92	21.27
622.112	21.28
622.305	21.42
622.497	21.28
622.69	21.3
622.882	21.37
623.074	21.34
623.267	21.22
623.459	21.29
623.651	21.19
623.844	21.21
624.036	21.2
624.228	21.17
624.42	21.17
624.613	21.26
624.805	21.11
624.997	21.09
625.189	21.02
625.381	21.02
625.574	20.89
625.766	20.88
625.958	20.89
626.15	21
626.342	20.99
626.534	20.97
626.726	20.95
626.918	20.87
627.11	20.78
627.302	20.69
627.494	20.67
627.686	20.7
627.878	20.63
628.07	20.63
628.262	20.58
628.454	20.61
628.646	20.69
628.838	20.73
629.029	20.67
629.221	20.71
629.413	20.56
629.605	20.34
629.797	20.16
629.989	20.13
630.18	20.07
630.372	20.06
630.564	20.08
630.755	20.12
630.947	20.13
631.139	19.96
631.33	19.93
631.522	20.01
631.714	20.09
631.905	20.05
632.097	20.03
632.289	19.98
632.48	19.89
632.672	19.71
632.863	19.62
633.055	19.65
633.246	19.7
633.438	19.58
633.629	19.62
633.821	19.65
634.012	19.64
634.203	19.53
634.395	19.6
634.586	19.61
634.777	19.59
634.969	19.68
635.16	19.73
635.351	19.71
635.543	19.67
635.734	19.67
635.925	19.56
636.117	19.59
636.308	19.57
636.499	19.6
636.69	19.5
636.881	19.49
637.073	19.46
637.264	19.41
637.455	19.4
637.646	19.47
637.837	19.47
638.028	19.4
638.219	19.5
638.41	19.35
638.601	19.24
638.792	19.3
638.983	19.26
639.174	19.14
639.365	19.24
639.556	19.24
639.747	19.16
639.938	19.24
640.129	19.29
640.32	19.2
640.511	19.27
640.701	19.34
640.892	19.22
641.083	19.21
641.274	19.31
641.465	19.2
641.655	19.05
641.846	19.04
642.037	18.98
642.228	18.8
642.418	18.9
642.609	18.91
642.8	18.93
642.99	18.82
643.181	18.89
643.372	18.82
643.562	18.75
643.753	18.61
643.943	18.62
644.134	18.55
644.324	18.49
644.515	18.54
644.705	18.62
644.896	18.58
645.086	18.62
645.277	18.57
645.467	18.53
645.658	18.44
645.848	18.44
646.038	18.34
646.229	18.33
646.419	18.18
646.61	18.27
646.8	18.24
646.99	18.23
647.18	18.17
647.371	18.19
647.561	18.09
647.751	18.06
647.941	17.96
648.132	17.91
648.322	17.96
648.512	17.99
648.702	17.98
648.892	17.97
649.082	17.98
649.272	17.82
649.462	17.58
649.653	17.51
649.843	17.43
650.033	17.38
650.223	17.32
650.413	17.35
650.603	17.35
650.793	17.42
650.983	17.27
651.172	17.27
651.362	17.24
651.552	17.16
651.742	17.05
651.932	17.1
652.122	17.1
652.312	17.11
652.502	17.04
652.691	16.99
652.881	16.93
653.071	16.86
653.261	16.67
653.45	16.51
653.64	16.48
653.83	16.37
654.019	16.26
654.209	16.16
654.399	16.15
654.588	16.01
654.778	15.93
654.968	15.77
655.157	15.65
655.347	15.51
655.536	15.42
655.726	15.27
655.915	15.14
656.105	15.04
656.294	14.92
656.484	14.62
656.673	14.5
656.863	14.45
657.052	14.32
657.241	14.15
657.431	14.04
657.62	13.85
657.809	13.48
657.999	13.24
658.188	13.06
658.377	12.93
658.567	12.8
658.756	12.8
658.945	12.67
659.134	12.54
659.324	12.41
659.513	12.26
659.702	12.11
659.891	12.05
660.08	11.88
660.269	11.82
660.458	11.7
660.648	11.55
660.837	11.38
661.026	11.35
661.215	11.11
661.404	10.92
661.593	10.81
661.782	10.58
661.971	10.42
662.16	10.29
662.349	10.23
662.538	10.11
662.726	10.08
662.915	10.02
663.104	9.92
663.293	9.81
663.482	9.81
663.671	9.71
663.86	9.49
664.048	9.39
664.237	9.29
664.426	9.06
664.615	9
664.803	9
664.992	8.94
665.181	8.84
665.369	8.76
665.558	8.61
665.747	8.46
665.935	8.41
666.124	8.4
666.312	8.4
666.501	8.4
666.69	8.35
666.878	8.25
667.067	8.05
667.255	8.01
667.444	8.22
667.632	8.32
667.82	8.37
668.009	8.41
668.197	8.41
668.386	8.12
668.574	8.06
668.762	8.01
668.951	7.92
669.139	7.84
669.327	7.79
669.516	7.82
669.704	7.78
669.892	7.89
670.08	7.94
670.269	7.85
670.457	7.75
670.645	7.63
670.833	7.76
671.021	7.63
671.21	7.77
671.398	7.92
671.586	7.94
671.774	7.64
671.962	7.74
672.15	7.69
672.338	7.53
672.526	7.64
672.714	7.7
672.902	7.68
673.09	7.92
673.278	8.11
673.466	8.19
673.654	8.38
673.842	8.34
674.03	8.17
674.218	7.96
674.405	7.95
674.593	7.89
674.781	8.04
674.969	8.09
675.157	8.27
675.344	8.4
675.532	8.47
675.72	8.47
675.908	8.52
676.095	8.46
676.283	8.44
676.471	8.61
676.658	8.63
676.846	8.67
677.033	8.81
677.221	8.85
677.409	8.74
677.596	8.77
677.784	8.77
677.971	8.79
678.159	8.87
678.346	8.97
678.534	9.19
678.721	9.42
678.909	9.51
679.096	9.53
679.283	9.72
679.471	9.75
679.658	9.86
679.846	10.04
680.033	10.31
680.22	10.28
680.408	10.31
680.595	10.43
680.782	10.4
680.969	10.34
681.157	10.54
681.344	10.68
681.531	10.62
681.718	10.77
681.905	11.05
682.093	11.19
682.28	11.41
682.467	11.67
682.654	11.88
682.841	11.94
683.028	12.16
683.215	12.31
683.402	12.45
683.589	12.63
683.776	12.83
683.963	12.79
684.15	12.97
684.337	13.11
684.524	13.07
684.711	13.29
684.898	13.54
685.085	13.76
685.271	14.05
685.458	14.36
685.645	14.59
685.832	15
686.019	15.42
686.205	15.75
686.392	16.02
686.579	16.36
686.766	16.71
686.952	16.86
687.139	17.22
687.326	17.49
687.512	17.74
687.699	18
687.886	18.36
688.072	18.62
688.259	19.09
688.445	19.52
688.632	19.91
688.818	20.52
689.005	20.93
689.191	21.52
689.378	22.1
689.564	22.5
689.751	22.92
689.937	23.39
690.124	23.9
690.31	24.33
690.496	24.94
690.683	25.49
690.869	26.05
691.055	26.47
691.242	26.99
691.428	27.5
691.614	28.03
691.8	28.83
691.987	29.53
692.173	29.98
692.359	30.83
692.545	31.46
692.731	31.91
692.918	32.69
693.104	33.66
693.29	34.26
693.476	35
693.662	35.73
693.848	36.08
694.034	36.45
694.22	36.7
694.406	37.27
694.592	37.74
694.778	38.43
694.964	39.1
695.15	40.02
695.336	40.65
695.522	41.79
695.708	42.73
695.894	43.66
696.08	44.45
696.265	45.1
696.451	45.45
696.637	46.11
696.823	46.5
697.009	47.17
697.194	47.94
697.38	48.45
697.566	48.74
697.751	49.58
697.937	50.35
698.123	50.86
698.308	51.76
698.494	52.7
698.68	52.97
698.865	53.42
699.051	54.19
699.236	54.55
699.422	54.98
699.607	55.68
699.793	56.1
699.978	56.33
700.164	56.81
700.349	57.47
700.535	57.91
700.72	58.46
700.906	59.13
701.091	59.59
701.276	59.89
701.462	60.69
701.647	61.26
701.832	61.86
702.018	62.46
702.203	62.89
702.388	63.06
702.573	63.49
702.759	64.11
702.944	64.29
703.129	64.68
703.314	65.32
703.499	65.6
703.684	65.75
703.87	66.87
704.055	67.78
704.24	67.92
704.425	68.71
704.61	68.92
704.795	68.93
704.98	68.7
705.165	68.92
705.35	69.01
705.535	69.38
705.72	69.82
705.905	70.36
706.09	71.3
706.275	71.54
706.459	71.66
706.644	71.64
706.829	71.85
707.014	71.7
707.199	72.07
707.384	72.76
707.568	72.82
707.753	73.5
707.938	73.78
708.123	73.75
708.307	73.64
708.492	74.31
708.677	74.26
708.861	74.21
709.046	74.4
709.231	75.37
709.415	75.55
709.6	75.45
709.784	75.93
709.969	76.16
710.153	75.67
710.338	75.72
710.522	76.13
710.707	76.59
710.891	76.98
711.076	77.19
711.26	77.34
711.445	77.51
711.629	77.33
711.813	77.39
711.998	78.01
712.182	77.9
712.366	78.49
712.551	79.47
712.735	79.72
712.919	79.48
713.103	79.77
713.288	79.38
713.472	78.91
713.656	79.54
713.84	79.91
714.024	80.08
714.208	80.54
714.393	80.78
714.577	80.67
714.761	80.19
714.945	80.48
715.129	80.51
715.313	80.97
715.497	81.02
715.681	81.82
715.865	81.86
716.049	82.16
716.233	81.95
716.417	82.28
716.601	82.16
716.785	82.2
716.968	82.3
717.152	82.18
717.336	81.85
717.52	81.54
717.704	81.84
717.888	81.92
718.071	82.05
718.255	82.38
718.439	82.71
718.622	82.9
718.806	83.43
718.99	83.52
719.174	83.38
719.357	83.77
719.541	83.67
719.724	82.98
719.908	83.69
720.092	84
720.275	84.07
720.459	84.28
720.642	83.85
720.826	83.25
721.009	83.09
721.193	82.48
721.376	82.6
721.559	83.74
721.743	84.35
721.926	84.76
722.11	85.19
722.293	84.77
722.476	84.07
722.66	83.87
722.843	83.54
723.026	82.79
723.21	83.44
723.393	84.17
723.576	83.91
723.759	83.75
723.942	84.6
724.126	83.99
724.309	83.68
724.492	83.95
724.675	83.54
724.858	84.17
725.041	84.99
725.224	85.24
725.407	85.45
725.59	86.55
725.774	85.89
725.957	84.93
726.14	84.95
726.322	84.72
726.505	84.38
726.688	84.95
726.871	85.76
727.054	85.83
727.237	85.42
727.42	85.85
727.603	85.39
727.786	85.21
727.968	85.36
728.151	86.52
728.334	86.13
728.517	86.54
728.699	87.45
728.882	87
729.065	86.9
729.248	87.66
729.43	87.64
729.613	87.42
729.796	88.04
729.978	87.48
730.161	87.11
730.343	87.08
730.526	87.8
730.708	87.18
730.891	87.73
731.073	87.72
731.256	87.65
731.438	86.59
731.621	87.38
731.803	87.27
731.986	87.55
732.168	87.05
732.35	87.22
732.533	86.67
732.715	86.53
732.898	86.58
733.08	86.77
733.262	87.23
733.444	87.51
733.627	87.52
733.809	87.6
733.991	88.19
734.173	87.75
734.355	87.61
734.538	87.66
734.72	87.07
734.902	87.7
735.084	87.62
735.266	87.67
735.448	87.74
735.63	87.82
735.812	87.56
735.994	88.13
736.176	88.58
736.358	88.73
736.54	90.3
736.722	89.19
736.904	88.55
737.086	88.31
737.268	88.44
737.45	87.68
737.632	88.57
737.814	88.82
737.995	89.23
738.177	88.86
738.359	87.88
738.541	89.05
738.723	89.74
738.904	89.73
739.086	90.24
739.268	90.73
739.449	89.6
739.631	88.76
739.813	88.77
739.994	89.03
740.176	89.53
740.358	89.75
740.539	90.99
740.721	90.99
740.902	91.62
741.084	91.33
741.265	91.19
741.447	90.47
741.628	90.71
741.81	89.33
741.991	89.43
742.172	90.16
742.354	90.57
742.535	90.2
742.717	91.12
742.898	90.95
743.079	91.07
743.261	91.02
743.442	90.71
743.623	90.98
743.804	91.98
743.986	91.8
744.167	90.05
744.348	89.86
744.529	89.38
744.71	87.85
744.891	88.05
745.073	87.94
745.254	87.76
745.435	88.16
745.616	88.71
745.797	88.21
745.978	89.57
746.159	90.14
746.34	88.15
746.521	88.53
746.702	87.54
746.883	87.7
747.064	88.18
747.245	89.18
747.426	89.05
747.606	89.52
747.787	89.44
747.968	88.56
748.149	88.92
748.33	88.7
748.51	88.78
748.691	87.98
748.872	88.02
749.053	87.87
749.233	88.06
749.414	87.85
749.595	88.15
749.775	87.47
749.956	87.21
750.137	87.13
750.317	87.93
750.498	88.69
750.678	89.52
750.859	89.12
751.04	89.03
751.22	88.87
751.4	88.59
751.581	88.5
751.761	89.6
751.942	90.61
752.122	88.68
752.303	88.23
752.483	87.97
752.663	87.36
752.844	85.4
753.024	87.56
753.204	87.92
753.385	87.4
753.565	88.12
753.745	89.43
753.925	88.31
754.106	86.21
754.286	86.85
754.466	86.31
754.646	84.88
754.826	83.91
755.006	85.1
755.187	86.26
755.367	86.22
755.547	87.23
755.727	89.27
755.907	89.5
756.087	88.57
756.267	87.8
756.447	86.87
756.627	84.77
756.807	85.48
756.987	83.64
757.167	84.56
757.346	85.43
757.526	85.47
757.706	85.19
757.886	87.12
758.066	86.64
758.246	86.98
758.425	88.24
758.605	87.85
758.785	87.32
758.965	86.4
759.144	85.2
759.324	85.55
759.504	85.43
759.683	86.13
759.863	85.3
760.043	84.77
760.222	83.48
760.402	83.53
760.581	82.13
760.761	84.48
760.94	84.72
761.12	86.27
761.299	86.48
761.479	86.96
761.658	86.53
761.838	86.17
762.017	85.92
762.197	86.77
762.376	86.39
762.555	87.92
762.735	87.79
762.914	86.4
763.093	85.68
763.273	85.5
763.452	84.78
763.631	84.81
763.81	85.77
763.99	86.12
764.169	87.6
764.348	84.76
764.527	83.21
764.706	84.83
764.885	85.23
765.064	81.11
765.243	82.4
765.423	85.9
765.602	83.61
765.781	80.62
765.96	81.8
766.139	80.56
766.318	80.17
766.497	79.07
766.676	81.24
766.854	83.79
767.033	84.91
767.212	83.02
767.391	84.02
767.57	84.43
767.749	83.91
767.928	84.76
768.106	85.3
768.285	82.89
768.464	81.81
768.643	80.11
768.821	78.39
769	80.84
769.179	82.09
769.357	80.06
769.536	79.8
769.715	80.58
769.893	80.51
770.072	80.53
770.25	82.54
770.429	83.11
770.607	83.05
770.786	80.54
770.964	82.47
771.143	81.41
771.321	83.44
771.5	82.48
771.678	81.77
771.857	80.89
772.035	80.32
772.213	79.19
772.392	79.26
772.57	81.84
772.748	80.75
772.927	80.32
773.105	79.35
773.283	81.03
773.461	80.35
773.64	82.89
773.818	84.5
773.996	87.03
774.174	84.28
774.352	82.41
774.531	77.77
774.709	78.49
774.887	76.94
775.065	77.32
775.243	77.42
775.421	79.45
775.599	81.12
775.777	78.88
775.955	77.91
776.133	74.97
776.311	74.55
776.489	70.14
776.667	72.74
776.844	74.84
777.022	78.03
777.2	76.35
777.378	78.26
777.556	77
777.734	78.46
777.911	80
778.089	80.91
778.267	80.57
778.445	79.27
778.622	75.85
778.8	73.4
778.978	75.57
779.155	75.65
779.333	75.14
779.511	76.78
779.688	78.67
779.866	75.84
780.043	73.48
780.221	77.58
780.398	74.8
780.576	74.41
780.753	77.11
780.931	76
781.108	74.65
781.286	77.82
781.463	74.21
781.64	69.06
781.818	72.31
781.995	69.69
782.172	68.55
782.35	70.86
782.527	76.66
782.704	73.77
782.882	76.17
783.059	74.54
783.236	78.94
783.413	78.99
783.59	82.9
783.768	79.93
783.945	83
784.122	78.88
784.299	78.63
784.476	73.93
784.653	73.39
784.83	69.84
785.007	66.94
785.184	67.19
785.361	70
785.538	76.76
785.715	81.11
785.892	82.69
786.069	83.63
786.246	83.76
786.423	81.18
786.6	77.86
786.776	80.96
786.953	78.73
787.13	80.79
787.307	80.6
787.484	80.65
787.66	76.48
787.837	75.28
788.014	70.5
788.191	65.99
788.367	64.68
788.544	69.42
788.721	69.22
788.897	73.34
789.074	79.2
789.25	76.19
789.427	74.3
789.603	74.43
789.78	74.6
789.956	69.01
790.133	73.22
790.309	72.53
790.486	73.56
790.662	68.09
790.839	72.37
791.015	71.54
791.192	71.85
791.368	74.15
791.544	74.81
791.721	71.51
791.897	69.38
792.073	64.53
792.249	57.72
792.426	59.93
792.602	63.18
792.778	64.14
792.954	64.98
793.13	69.57
793.307	64.39
793.483	55.6
793.659	55.93
793.835	62.19
794.011	56.55
794.187	60.75
794.363	64.66
794.539	69.14
794.715	63.25
794.891	67.24
795.067	68.44
795.243	74.05
795.419	66.55
795.595	66.96
795.771	68.62
795.947	67.38
796.122	61.15
796.298	68.14
796.474	71.88
796.65	73.79
796.826	70.92
797.001	72.83
797.177	72.31
797.353	71.92
797.529	69.96
797.704	71.92
797.88	68.67
798.056	63
798.231	61.48
798.407	58.88
798.582	61.23
798.758	70.75
798.934	75.77
799.109	74.91
799.285	75.57
799.46	74.92
799.636	67.88
799.811	66.02
799.986	66.37
800.162	66.83
800.337	68.98
800.513	69.83
800.688	69.69
800.863	78
801.039	69.92
801.214	60.97
801.389	63.08
801.565	65.02
801.74	53.37
801.915	65.35
802.09	68.77
802.265	70.13
802.441	66.42
802.616	71.33
802.791	69.83
802.966	72.45
803.141	71.56
803.316	70.35
803.491	74.17
803.666	75.96
803.841	69.58
804.016	65.67
804.191	65.68
804.366	55.11
804.541	52.96
804.716	55.75
804.891	54.93
805.066	62.67
805.241	67.56
805.416	61.79
805.591	58.56
805.765	60.75
805.94	55.46
806.115	48.07
806.29	42.46
806.464	51.73
806.639	45.34
806.814	43.6
806.989	44.15
807.163	62.75
807.338	57.88
807.512	59.43
807.687	47.32
807.862	63.85
808.036	61.49
808.211	61.34
808.385	63.09
808.56	81.81
808.734	86.3
808.909	75.26
809.083	82.18
809.258	92.89
809.432	82.29
809.606	64.21
809.781	64.77
809.955	68.84
810.13	60.89
810.304	63.39
810.478	57.17
810.652	66.56
810.827	60.79
811.001	59.42
811.175	54.72
811.349	61.81
811.524	52.32
811.698	45.62
811.872	48.25
812.046	56.91
812.22	53.28
812.394	57.1
812.568	57.47
812.742	62.53
812.916	59.01
813.09	53.24
813.264	46.41
813.438	53.1
813.612	43.91
813.786	44.54
813.96	57.17
814.134	64.28
814.308	74.4
814.482	85.47
814.656	78.98
814.83	77.45
815.003	77.86
815.177	69.11
815.351	62.35
815.525	61.52
815.698	56.05
815.872	52.75
816.046	40.71
816.219	36.87
816.393	48.58
816.567	55.51
816.74	56.04
816.914	65.83
817.088	79.68
817.261	73.41
817.435	59.24
817.608	63.76
817.782	61.22
817.955	62.55
818.129	61.7
818.302	72.38
818.475	79.84
818.649	78.89
818.822	60.39
818.996	77.5
819.169	73.17
819.342	60.48
819.516	68.7
819.689	86.67
819.862	76.54
820.035	67.86
820.209	61.32
820.382	61.21
820.555	58.06
820.728	36.17
820.901	36.55
821.075	43.34
821.248	45.82
821.421	42.06
821.594	53.18
821.767	71.59
821.94	78.13
822.113	54.5
822.286	52.24
822.459	63.05
822.632	49.3
822.805	35.3
822.978	31.55
823.151	31.01
823.324	12.85
823.496	0.9
823.669	2.95
823.842	16.95
824.015	8.17
824.188	-7.81
824.361	20.95
824.533	15.33
824.706	19.39
824.879	24.54
825.051	47.32
825.224	35.3
825.397	35.3
825.569	29.74
825.742	40.48
825.915	41.22
826.087	38.01
826.26	40.51
826.432	50.71
826.605	48.1
826.777	43.92
826.95	43.4
827.122	37.08
827.295	32.9
827.467	34.35
827.64	12.12
827.812	13.95
827.984	14.17
828.157	-0.44
828.329	-34.62
828.501	-0.25
828.674	38.52
828.846	40.24
829.018	59.36
829.19	50.26
829.363	60.01
829.535	57.85
829.707	61.81
829.879	33.67
830.051	43.28
830.223	30.03
830.395	-10.63
830.568	-18.44
830.74	-8.02
830.912	20.5
831.084	-2.89
831.256	14.91
831.428	8.46
831.6	0.38
831.772	-40.36
831.943	-43.34
832.115	-31.69
832.287	-5.44
832.459	20.55
832.631	38.87
832.803	66.62
832.975	85.1
833.146	93.84
833.318	46.34
833.49	47.89
833.662	30.17
833.833	12.32
834.005	-0.34
834.177	26.34
834.348	42.05
834.52	26.93
834.692	23.96
834.863	15.61
835.035	5.65
835.206	-74.72
835.378	-19.79
835.549	-10.85
835.721	5.82
835.892	-5
836.064	8.29
836.235	3.2
836.407	13.82
836.578	-35.31
836.749	-25.28
836.921	-49.72
837.092	-100.48
837.264	-83.51
837.435	-85.59
837.606	-35.28
837.777	-2.29
837.949	27.23
838.12	24.88
838.291	40.39
838.462	33.54
838.633	12.3
838.805	18.6
838.976	43.79
839.147	36.65
839.318	25.12
839.489	-20.97
839.66	-20.71
839.831	-1.17
840.002	-2.38
840.173	-38.28
840.344	32.22
840.515	27.51
840.686	-110.93
840.857	-113.61
841.028	-109.55
841.199	-61.5
841.369	-73.61
841.54	-43.54
841.711	-8.02
841.882	13.05
842.053	-7.53
842.223	-10.9
842.394	-5.01
842.565	4.76
842.736	21.04
842.906	6.11
843.077	16.08
843.248	38.37
843.418	19.42
843.589	-72.68
843.759	1
843.93	-39.42
844.101	-25.76
844.271	-14.87
844.442	18.56
844.612	19
844.783	0.75
844.953	-29.34
845.123	-16.24
845.294	-25.23
845.464	-144.33
845.635	4
845.805	26.38
845.975	5.09
846.146	-19.53
846.316	-23.78
846.486	-9.08
846.656	31.17
846.827	20.6
846.997	26.54
847.167	39.99
847.337	15.66
847.507	-30.14
847.677	4.69
847.848	49.9
848.018	49.15
848.188	51.06
848.358	28.6
848.528	18.11
848.698	-53.29
848.868	-144.9
849.038	-218.17
849.208	-56.24
849.378	-19.32
849.548	27.61
849.718	22.39
849.887	17.59
850.057	-10.96
850.227	-58.34
850.397	-113.68
850.567	-240.57
850.737	-338.04
850.906	-881.88
851.076	-609.77
851.246	-298.69
851.415	-5.25
851.585	-51.72
851.755	-85.98
851.924	-38.66
852.094	-37.19
852.264	-71.79
852.433	-698.56
852.603	-127.85
852.772	-124.06
852.942	-75.86
853.111	-95.67
853.281	-18.68
853.45	27.61
853.62	-19.55
853.789	-29.44
853.959	26.81
854.128	0.4
854.297	-61.68
854.467	-68.64
854.636	-35.87
854.805	-13.57
854.975	-71.1
855.144	-77.4
855.313	-19.23
855.482	-280.66
855.652	-222.01
855.821	-63.81
855.99	34.93
856.159	50.85
856.328	37.68
856.497	40.25
856.667	24.93
856.836	10.73
857.005	-34.86
857.174	-43.41
857.343	-92.75
857.512	-82.28
857.681	-105.28
857.85	-113.52
858.019	-66.46
858.188	-31.04
858.356	-37.04
858.525	-87.09
858.694	-81.55
858.863	-138.52
859.032	-122.06
859.201	-233.04
859.369	-121.05
859.538	-55
859.707	-67.46
859.876	-50.18
860.044	41.65
860.213	49.26
860.382	26.7
860.55	31.85
860.719	47.02
860.888	29.17
861.056	-25.81
861.225	-41.29
861.393	-21.25
861.562	-24.34
861.73	-106.15
861.899	-292.41
862.067	-2732.76
862.236	-189.93
862.404	-394.38
862.572	-213.1
862.741	-73.17
862.909	-35.23
863.078	-106.42
863.246	-85.61
863.414	-102.48
863.582	-43.21
863.751	-79.04
863.919	-47.58
864.087	18.86
864.255	53.68
864.424	-184.26
864.592	37.03
864.76	35.92
864.928	203.6
865.096	-8.76
865.264	24.12
865.432	-321.59
865.6	-1.75
865.768	-69.95
865.936	-60.37
866.104	-62.92
866.272	-139.84
866.44	-309.65
866.608	567.66
866.776	271.53
866.944	2722.09
867.112	-499.79
867.28	-192.09
867.448	-72.48
867.615	-18.14
867.783	3.66
867.951	-9.22
868.119	18.37
868.286	-17.23
868.454	-157.55
868.622	-174.11
868.789	-198.68
868.957	-3496.43
869.125	-2085.53
869.292	-140.17
869.46	-162.34
869.627	-0.51
869.795	-13.63
869.963	-19.95
870.13	-0.55
870.298	12.3
870.465	-66.14
870.632	-92.64
870.8	-21.75
870.967	-63.14
871.135	-170.02
871.302	-106.97
871.469	-48.56
871.637	-81.32
871.804	-37.8
871.971	-30.93
872.139	-326.74
872.306	-0.08
872.473	-32.66
872.64	-179.18
872.807	-28.41
872.975	55.72
873.142	-146.36
873.309	1290.54
873.476	90.02
873.643	165.32
873.81	105.05
873.977	110.18
874.144	80.64
874.311	-130
874.478	-157.2
874.645	-169.81
874.812	-130.33
874.979	-66.55
875.146	-39.25
875.313	-73.64
875.48	8.99
875.647	-12.76
875.813	-65.73
875.98	-32.95
876.147	-42.83
876.314	-114.08
876.481	945.04
876.647	-961.24
876.814	465.03
876.981	-48.65
877.147	-29.52
877.314	13.72
877.481	50.68
877.647	51.99
877.814	-0.06
877.98	-64.8
878.147	-14.32
878.314	13.75
878.48	-45.25
878.647	-2.93
878.813	73.61
878.979	45.82
879.146	-4.85
879.312	-10.33
879.479	-78.82
879.645	-220.32
879.811	-431.7
879.978	-863.74
880.144	-156.88
880.31	-48.75
880.477	-231.76
880.643	-254.75
880.809	-99.05
880.975	-121.72
881.142	-1036.82
881.308	-112.01
881.474	-53.79
881.64	-93.88
881.806	-147.68
881.972	-39.96
882.138	-58.45
882.304	-78.82
882.47	-208.62
882.636	-856.15
882.802	-259.08
882.968	-61.57
883.134	-34.02
883.3	-27.36
883.466	39.54
883.632	76.2
883.798	26.31
883.964	-6.47
884.129	-5.71
884.295	-10.36
884.461	-67.82
884.627	-53.49
884.793	-59.9
884.958	-19.94
885.124	-124.61
885.29	-197.44
885.455	-348.3
885.621	-47.08
885.787	-63.37
885.952	8.13
886.118	-22.15
886.283	7.54
886.449	-47.88
886.614	-57.95
886.78	-140.96
886.945	443.44
887.111	-510.12
887.276	-469.03
887.442	-845.91
887.607	-370.99
887.773	-326.91
887.938	-236.68
888.103	-276.93
888.269	-226.96
888.434	-431.62
888.599	-158.65
888.764	-78.03
888.93	-29.99
889.095	-35.19
889.26	-67.26
889.425	-31.33
889.59	4.29
889.756	-29.55
889.921	-9.24
890.086	51.04
890.251	39.53
890.416	-107.89
890.581	-1113.71
890.746	141.61
890.911	315.61
891.076	163.63
891.241	-394.4
891.406	9.37
891.571	-39.93
891.736	-250.69
891.901	-443.81
892.065	284.07
892.23	65.8
892.395	148.04
892.56	215.17
892.725	-288.67
892.889	-1076.83
893.054	-254.73
893.219	-58.39
893.384	4.82
893.548	15.28
893.713	-0.15
893.878	49.3
