Data from Ofra_PS_T2_2A_0CX05_Reflection_1.txt Node
Date: Wed Jul 21 16:49:41 EDT 2021
User: Adam
Spectrometer: FLMT01687
Trigger mode: 0
Integration Time (sec): 1.100000E0
Scans to average: 2
Electric dark correction enabled: true
Nonlinearity correction enabled: false
Boxcar width: 2
XAxis mode: Wavelengths
Number of Pixels in Spectrum: 3648
>>>>>Begin Spectral Data<<<<<
179.494	305.6
179.716	360.24
179.937	351.81
180.158	294.5
180.38	406.25
180.601	145.3
180.823	35.81
181.044	-82.94
181.265	83.09
181.486	24.66
181.708	69.75
181.929	255.1
182.15	107.04
182.372	27.7
182.593	-83.28
182.814	-4.99
183.035	-30.61
183.257	-55.59
183.478	-93.62
183.699	-27.34
183.92	-56.02
184.141	-16.56
184.363	-17.23
184.584	3.58
184.805	27.82
185.026	84.28
185.247	79.9
185.468	60.11
185.689	71.9
185.91	45.53
186.132	22.7
186.353	16.77
186.574	29.06
186.795	40.43
187.016	20.26
187.237	-14.49
187.458	-30.8
187.679	-45.68
187.9	-38.91
188.121	-32.72
188.342	2.16
188.563	27.82
188.784	85.99
189.005	68.61
189.226	88.83
189.447	54.79
189.667	-62.14
189.888	-237.44
190.109	-559.74
190.33	-225.81
190.551	-421.24
190.772	-114.53
190.993	-117.9
191.214	-175.33
191.434	-96.8
191.655	-27.85
191.876	-10.48
192.097	-41.26
192.318	-21.93
192.538	-81.52
192.759	-69.18
192.98	-6.46
193.201	12
193.421	25.22
193.642	33.69
193.863	25.08
194.083	-2.47
194.304	-4.02
194.525	-0.95
194.745	-53.2
194.966	-17.33
195.187	-2.1
195.407	-18.02
195.628	-62.78
195.848	-20.05
196.069	-35.23
196.29	-48.12
196.51	-23.58
196.731	-15.53
196.951	-38.25
197.172	-49.76
197.392	-31.67
197.613	-41.81
197.833	-52.69
198.054	-23.96
198.274	0.08
198.495	-8.95
198.715	14.96
198.936	20.77
199.156	37.46
199.377	6.19
199.597	16.74
199.817	-11.97
200.038	-8.17
200.258	-38.01
200.479	4.96
200.699	-13.6
200.919	43.04
201.14	35.45
201.36	10.82
201.58	29.37
201.801	39.53
202.021	9.75
202.241	14.3
202.461	18.57
202.682	-44.62
202.902	-83.64
203.122	-18.41
203.342	-21.24
203.563	10.51
203.783	26.99
204.003	13.71
204.223	23.45
204.443	54.29
204.663	33.7
204.884	30.31
205.104	44.92
205.324	45.26
205.544	66.95
205.764	58.43
205.984	61.29
206.204	71.28
206.424	62.24
206.644	46.92
206.864	77.73
207.084	78.49
207.304	74.79
207.525	68.75
207.745	62.66
207.964	42.77
208.184	30.35
208.404	4.77
208.624	5.15
208.844	-13.28
209.064	-203.69
209.284	-215.03
209.504	-127.02
209.724	-57.1
209.944	-36.16
210.164	-3.45
210.384	18.12
210.604	10.86
210.823	-6.97
211.043	13.77
211.263	17.18
211.483	20.94
211.703	11.12
211.922	39.69
212.142	44.76
212.362	57.69
212.582	21.62
212.801	23.18
213.021	9.05
213.241	10.5
213.461	-18.09
213.68	-7.03
213.9	18.96
214.12	14.75
214.339	-32.88
214.559	-26.8
214.779	-2.59
214.998	-7.11
215.218	-29.01
215.438	-13.71
215.657	-6.28
215.877	-7.18
216.096	-5.44
216.316	13.47
216.535	-0.62
216.755	13.5
216.974	-34.25
217.194	-54.74
217.413	-38.14
217.633	24.56
217.852	-24.57
218.072	9.63
218.291	34.42
218.511	33.43
218.73	9.42
218.95	9.92
219.169	-0.43
219.389	-30.5
219.608	-8.19
219.827	-1.75
220.047	24.33
220.266	39.51
220.485	52.76
220.705	36.42
220.924	27.55
221.143	32.23
221.363	12.25
221.582	20.14
221.801	41.23
222.021	47.08
222.24	15.22
222.459	82.27
222.678	61.74
222.897	9.18
223.117	-23.85
223.336	3.96
223.555	9.45
223.774	45.37
223.993	64.5
224.213	87.79
224.432	73.81
224.651	74.85
224.87	41.25
225.089	34.79
225.308	17.76
225.527	28.44
225.746	28.31
225.965	21.63
226.184	6.7
226.404	28.16
226.623	8.1
226.842	4.11
227.061	19.73
227.28	26.39
227.499	31.62
227.718	32.66
227.936	33.87
228.155	51.41
228.374	64.09
228.593	48.48
228.812	64.17
229.031	38.51
229.25	-5.8
229.469	-39.57
229.688	-65.73
229.907	-40.37
230.125	-33.13
230.344	-18.8
230.563	1.81
230.782	16.74
231.001	-25
231.22	-8.09
231.438	22.76
231.657	27.34
231.876	30.24
232.095	59.89
232.313	44.7
232.532	19.44
232.751	-0.52
232.969	5.16
233.188	-51.92
233.407	23.14
233.625	24.3
233.844	29.93
234.063	4.85
234.281	15.93
234.5	8.74
234.719	8.2
234.937	17.86
235.156	20.75
235.374	21.2
235.593	2.73
235.811	0.56
236.03	6.1
236.249	-0.22
236.467	0.39
236.686	26.79
236.904	35.08
237.123	21.83
237.341	24.8
237.559	29.16
237.778	17.06
237.996	-9.6
238.215	8.47
238.433	18.57
238.652	5.71
238.87	1.63
239.088	8.04
239.307	-3.29
239.525	-14.48
239.743	-17.73
239.962	-12.84
240.18	1.3
240.398	-18.47
240.617	-3.27
240.835	9.44
241.053	10.96
241.271	40.2
241.49	54.68
241.708	39.59
241.926	7.83
242.144	27.24
242.363	-27.44
242.581	-35.79
242.799	-26.96
243.017	4.48
243.235	-8.03
243.453	9.58
243.672	-1.7
243.89	-0.25
244.108	4.21
244.326	6.35
244.544	18.45
244.762	46.27
244.98	57.8
245.198	59.86
245.416	70.01
245.634	47.81
245.852	14.96
246.07	1.29
246.288	-6.33
246.506	-33.37
246.724	-9.14
246.942	20.66
247.16	44.48
247.378	36.55
247.596	55.11
247.814	31.81
248.032	9.7
248.25	2.78
248.468	8.65
248.685	5.71
248.903	45.52
249.121	55.5
249.339	35.09
249.557	32.96
249.775	24.64
249.992	-33.21
250.21	-51.83
250.428	-22.23
250.646	-51.3
250.863	-56.84
251.081	-28.29
251.299	-7.49
251.517	-4.12
251.734	20.69
251.952	35.92
252.17	25.9
252.387	23.93
252.605	24.27
252.823	34.27
253.04	44.38
253.258	48.09
253.475	55.67
253.693	61.85
253.911	59.24
254.128	44.39
254.346	54.04
254.563	38.98
254.781	27.17
254.998	3.02
255.216	13.71
255.433	22.85
255.651	35.88
255.868	46.27
256.086	54.27
256.303	39.19
256.521	28.44
256.738	15.05
256.956	-7.49
257.173	-10.85
257.39	-31.63
257.608	-45.43
257.825	-15.62
258.043	-0.64
258.26	17.61
258.477	59.31
258.695	63.07
258.912	50.12
259.129	49.01
259.346	31.24
259.564	3.74
259.781	-18.94
259.998	23.49
260.216	18.44
260.433	26.03
260.65	15.18
260.867	33.24
261.084	-0.35
261.302	-8.21
261.519	-26.92
261.736	-13.6
261.953	-29.41
262.17	-7.29
262.387	-13.26
262.604	-9.74
262.822	-17.85
263.039	15.31
263.256	24.03
263.473	35.32
263.69	33.91
263.907	44.52
264.124	44.49
264.341	36.02
264.558	25.18
264.775	22.16
264.992	21.42
265.209	18.99
265.426	22.46
265.643	37.29
265.86	54.37
266.077	43.12
266.294	19.47
266.51	-4.08
266.727	-15.87
266.944	-25.66
267.161	-12.34
267.378	-19.61
267.595	20.52
267.812	17.56
268.028	7.04
268.245	17.67
268.462	17.95
268.679	-1.21
268.896	13.19
269.112	10.37
269.329	-1.03
269.546	14.77
269.763	23.27
269.979	23.99
270.196	28.35
270.413	39.86
270.629	34.69
270.846	9.71
271.063	-13.47
271.279	-22.01
271.496	-23.45
271.712	-9.94
271.929	1.06
272.146	20.05
272.362	22.45
272.579	44.76
272.795	45.48
273.012	53.79
273.228	66.19
273.445	70.25
273.661	30.94
273.878	-3.5
274.094	6.41
274.311	-32.44
274.527	7.97
274.744	19.09
274.96	26.53
275.177	14.09
275.393	29.62
275.609	25.59
275.826	31.18
276.042	21.64
276.259	15.96
276.475	24.19
276.691	25.23
276.908	26.78
277.124	37.06
277.34	34.71
277.557	29.42
277.773	8.59
277.989	3.26
278.205	2.52
278.422	18.57
278.638	11.54
278.854	32.44
279.07	29.13
279.286	21.74
279.503	12.01
279.719	18.73
279.935	-27.44
280.151	-46.66
280.367	-20.45
280.583	-31.61
280.799	-19.8
281.016	-20.07
281.232	4.64
281.448	-9.5
281.664	2.46
281.88	-26.22
282.096	4.77
282.312	19.28
282.528	14.13
282.744	3.7
282.96	23.58
283.176	11.12
283.392	3.52
283.608	10.81
283.824	8.21
284.04	18.52
284.256	12.54
284.471	12.5
284.687	26.96
284.903	42.14
285.119	34.23
285.335	31.89
285.551	56.54
285.767	34.73
285.982	20.32
286.198	13.96
286.414	42.12
286.63	23.53
286.846	36.79
287.061	31.64
287.277	45.53
287.493	20.98
287.709	25.37
287.924	20.27
288.14	37.39
288.356	25.65
288.571	41.95
288.787	29.24
289.003	28.23
289.218	15.44
289.434	-0.41
289.65	0.42
289.865	0.27
290.081	16.79
290.296	29.28
290.512	44.72
290.727	30.69
290.943	31.68
291.159	11.07
291.374	8.01
291.59	-10.93
291.805	7.06
292.021	15.2
292.236	13.12
292.451	26.04
292.667	36.89
292.882	33.03
293.098	28.41
293.313	21.9
293.529	1.24
293.744	-10.96
293.959	-8.43
294.175	-15.31
294.39	10.79
294.605	27.45
294.821	36.1
295.036	37.38
295.251	41.56
295.467	40.01
295.682	25.5
295.897	16.27
296.112	19.47
296.328	26.49
296.543	6.99
296.758	6.41
296.973	8.27
297.188	23.14
297.404	4.72
297.619	-8.76
297.834	-16.92
298.049	-15.39
298.264	-35.9
298.479	9.38
298.694	16.79
298.909	42.64
299.125	48.81
299.34	46.57
299.555	23.19
299.77	26.77
299.985	-14.57
300.2	-64.01
300.415	-53.89
300.63	-39.85
300.845	-37.01
301.06	-29.14
301.275	2.04
301.49	6.61
301.704	6.7
301.919	-23.8
302.134	-29.06
302.349	-34.89
302.564	-76.58
302.779	-102.57
302.994	-53.92
303.209	-19.09
303.423	15.65
303.638	51.29
303.853	33.42
304.068	38.05
304.283	26.68
304.497	20.87
304.712	11.59
304.927	2.96
305.142	-6.42
305.356	-6.61
305.571	-17.11
305.786	-10.08
306	-10.8
306.215	-16.57
306.43	-34.38
306.644	-31.89
306.859	-23.23
307.074	1.57
307.288	-6.32
307.503	3.4
307.717	0.44
307.932	-1.71
308.147	-16.59
308.361	11.98
308.576	0.22
308.79	-13.69
309.005	-23.37
309.219	-4.39
309.434	-16.54
309.648	-4.54
309.863	5.72
310.077	9.75
310.292	-2.1
310.506	2.13
310.72	5.48
310.935	3.1
311.149	-2.28
311.364	23.19
311.578	25.8
311.792	24
312.007	30.67
312.221	38.83
312.435	34.13
312.649	35.52
312.864	62.86
313.078	72.82
313.292	90.56
313.507	69.31
313.721	67.71
313.935	46.92
314.149	33.99
314.363	34.08
314.578	36.75
314.792	31.45
315.006	13.15
315.22	27.34
315.434	23.92
315.648	25.96
315.862	35.72
316.077	39.86
316.291	13.96
316.505	15.83
316.719	16.03
316.933	8.41
317.147	-4.53
317.361	-14.59
317.575	-24.88
317.789	-44.77
318.003	-102.29
318.217	-75.14
318.431	-12.02
318.645	9.37
318.859	23.56
319.073	33.45
319.287	24.91
319.5	2.8
319.714	-12.33
319.928	-32.75
320.142	-44.56
320.356	-21.26
320.57	1.13
320.784	-33.78
320.997	-78.55
321.211	-49.49
321.425	-56.72
321.639	-57.71
321.853	-4.94
322.066	23.67
322.28	12.68
322.494	4.22
322.707	-8.43
322.921	-12.51
323.135	-18.51
323.349	-18.05
323.562	-6.52
323.776	2.79
323.989	-0.11
324.203	-0.53
324.417	8.39
324.63	6.96
324.844	-2.13
325.057	3.84
325.271	14.03
325.485	24.27
325.698	24.95
325.912	37.81
326.125	22.52
326.339	19.88
326.552	-5.69
326.766	-2.48
326.979	7.61
327.193	35.48
327.406	32.08
327.619	35.15
327.833	37.08
328.046	15.8
328.26	-14.16
328.473	-0.11
328.686	-16.97
328.9	-18.31
329.113	-2.74
329.326	-16.8
329.54	-23.28
329.753	-28.41
329.966	-15.86
330.179	-19.49
330.393	7.67
330.606	14.43
330.819	30.03
331.032	26.93
331.246	25.97
331.459	39.04
331.672	41.96
331.885	32.49
332.098	27.72
332.311	24.41
332.525	-8.63
332.738	-21.2
332.951	0.51
333.164	17.26
333.377	26.26
333.59	37.63
333.803	48.65
334.016	36.58
334.229	25.97
334.442	25.13
334.655	30.65
334.868	7.47
335.081	23.65
335.294	18.95
335.507	11.79
335.72	-1.55
335.933	14.91
336.146	2.73
336.359	4.47
336.572	1.69
336.785	-12.91
336.997	-2.31
337.21	11.57
337.423	16.62
337.636	20.46
337.849	34.13
338.062	24.23
338.274	27.57
338.487	22.4
338.7	26.24
338.913	-1.94
339.125	-2.95
339.338	-56.19
339.551	-58.15
339.763	-43.69
339.976	-9.96
340.189	-10.72
340.402	2.53
340.614	14.06
340.827	14.44
341.039	2.89
341.252	11.87
341.465	31.1
341.677	28
341.89	13.92
342.102	40.88
342.315	28.12
342.527	9.05
342.74	18.24
342.952	28.57
343.165	7.66
343.377	10.91
343.59	19.6
343.802	16.38
344.015	5.99
344.227	10.35
344.44	25.03
344.652	24.31
344.864	17.82
345.077	32.18
345.289	36.56
345.502	29.34
345.714	19.64
345.926	21.88
346.139	12.65
346.351	14.02
346.563	10.9
346.775	13.77
346.988	11.67
347.2	7.96
347.412	-26.82
347.624	-10.78
347.837	-17.73
348.049	-3.01
348.261	8.89
348.473	27.64
348.685	19.34
348.897	27.12
349.11	3.48
349.322	-10.76
349.534	-1.99
349.746	12.99
349.958	2.97
350.17	22.47
350.382	32.95
350.594	26.42
350.806	14.83
351.018	25.54
351.23	16.01
351.442	11.5
351.654	6.28
351.866	10.45
352.078	18.43
352.29	29.78
352.502	30.27
352.714	39.37
352.926	31.9
353.138	26.01
353.35	20.12
353.561	15.37
353.773	-4.2
353.985	5.12
354.197	1.41
354.409	3.54
354.621	-2.55
354.832	10.27
355.044	7.31
355.256	11.22
355.468	18.7
355.679	21.92
355.891	27.41
356.103	19.75
356.314	23.36
356.526	23.26
356.738	9.81
356.949	4.68
357.161	22.1
357.373	3.92
357.584	1.46
357.796	20.5
358.008	18.91
358.219	14.11
358.431	14.47
358.642	16.74
358.854	2.02
359.065	-15.3
359.277	-22.27
359.488	-26.59
359.7	-45
359.911	-39.7
360.123	-20.02
360.334	-27.08
360.546	-29.1
360.757	-34.73
360.969	-14.65
361.18	-8.22
361.391	-5.14
361.603	-7.13
361.814	-2.51
362.025	-18.82
362.237	-29.43
362.448	-13.63
362.659	-7.43
362.871	-8.05
363.082	-7.79
363.293	0.61
363.504	-10.1
363.716	-16.13
363.927	-16.79
364.138	-19.01
364.349	-19.25
364.56	-4.39
364.772	-3.84
364.983	16.67
365.194	22.12
365.405	34.84
365.616	30.43
365.827	36.79
366.038	16.34
366.25	14.53
366.461	-16.88
366.672	-5.92
366.883	1.4
367.094	0.56
367.305	-6.25
367.516	-6.45
367.727	-28.28
367.938	-28.96
368.149	-8.35
368.36	6.23
368.571	11.09
368.781	12.99
368.992	1.23
369.203	-27.17
369.414	-40.07
369.625	-38.14
369.836	-26.4
370.047	-36.97
370.258	-11.37
370.468	-18.41
370.679	-30.14
370.89	-25.91
371.101	-10.6
371.312	-13.96
371.522	-8.66
371.733	7.04
371.944	9.82
372.155	13.78
372.365	10.01
372.576	14.5
372.787	14.49
372.997	15.21
373.208	10.34
373.419	27.95
373.629	11.87
373.84	-0.59
374.05	-18.6
374.261	-28.68
374.472	-43.29
374.682	-6.81
374.893	-6.62
375.103	12.88
375.314	18.88
375.524	19.95
375.735	10.86
375.945	23.25
376.156	8.85
376.366	14.82
376.577	8.95
376.787	2.25
376.997	-12.79
377.208	-4.93
377.418	-3.98
377.629	9.14
377.839	8.31
378.049	20.9
378.26	25.06
378.47	25.3
378.68	18.34
378.89	23.84
379.101	17.53
379.311	3.07
379.521	-15.43
379.732	-22.2
379.942	-16.98
380.152	-23.8
380.362	-5.07
380.572	0.82
380.783	10.64
380.993	7.45
381.203	13.67
381.413	10.43
381.623	9.92
381.833	13.86
382.043	11.83
382.253	6.82
382.463	15.73
382.674	6.76
382.884	-4.38
383.094	6.55
383.304	12.46
383.514	6.76
383.724	17.26
383.934	18.64
384.144	0.91
384.353	-9.89
384.563	-4.29
384.773	-3.24
384.983	-10.03
385.193	2.32
385.403	4.79
385.613	4.43
385.823	-8.3
386.033	1.04
386.242	1.01
386.452	1.45
386.662	-1.58
386.872	9.44
387.082	5.39
387.291	-0.27
387.501	0.03
387.711	-3.05
387.921	-5.19
388.13	-2.94
388.34	7.58
388.55	6.55
388.759	9.14
388.969	13.28
389.179	6.8
389.388	2.8
389.598	6.28
389.807	2.91
390.017	-0.3
390.227	6.22
390.436	3.78
390.646	-0.07
390.855	-0.51
391.065	-2.68
391.274	-4.26
391.484	-4.1
391.693	-1.4
391.903	2.6
392.112	9.31
392.322	9.14
392.531	11.4
392.74	10.92
392.95	6.83
393.159	2.72
393.369	1.83
393.578	2.47
393.787	1.85
393.997	3.39
394.206	2.37
394.415	5.15
394.625	4.4
394.834	3.99
395.043	4.62
395.252	7.18
395.462	7.23
395.671	6.59
395.88	7.02
396.089	8.04
396.298	6.4
396.508	5
396.717	4.37
396.926	4.3
397.135	2.68
397.344	2.53
397.553	2.92
397.762	3.84
397.971	4.22
398.181	4.63
398.39	4.51
398.599	4.35
398.808	4.54
399.017	4.9
399.226	5.85
399.435	6.73
399.644	7.16
399.853	6.3
400.062	5.87
400.27	5.42
400.479	5.24
400.688	4.52
400.897	5.08
401.106	5.08
401.315	5.21
401.524	5.19
401.733	5.65
401.941	5.66
402.15	5.65
402.359	5.31
402.568	5.3
402.777	5.34
402.985	5.07
403.194	5.08
403.403	5.4
403.612	5.01
403.82	4.81
404.029	5.13
404.238	5.11
404.446	5
404.655	4.92
404.864	5
405.072	4.69
405.281	4.69
405.489	4.57
405.698	4.67
405.906	4.64
406.115	4.7
406.324	4.71
406.532	4.73
406.741	4.94
406.949	4.91
407.158	4.95
407.366	5.04
407.574	5.03
407.783	4.88
407.991	4.83
408.2	4.63
408.408	4.45
408.617	4.32
408.825	4.26
409.033	4.27
409.242	4.6
409.45	4.67
409.658	4.7
409.867	4.81
410.075	4.78
410.283	4.5
410.491	4.48
410.7	4.45
410.908	4.48
411.116	4.69
411.324	4.74
411.533	4.63
411.741	4.74
411.949	4.58
412.157	4.26
412.365	4.38
412.573	4.47
412.781	4.37
412.99	4.5
413.198	4.72
413.406	4.54
413.614	4.4
413.822	4.36
414.03	4.29
414.238	4.09
414.446	4.23
414.654	4.24
414.862	4.35
415.07	4.36
415.278	4.52
415.486	4.44
415.694	4.56
415.902	4.45
416.109	4.3
416.317	4.22
416.525	4.05
416.733	3.9
416.941	4.04
417.149	4.21
417.357	4.15
417.564	4.32
417.772	4.42
417.98	4.21
418.188	4.04
418.395	3.95
418.603	4.06
418.811	3.92
419.019	3.97
419.226	4.13
419.434	4.27
419.642	4.09
419.849	4.19
420.057	4.12
420.265	4.04
420.472	3.91
420.68	3.96
420.887	3.87
421.095	3.96
421.302	3.94
421.51	4.08
421.717	4.09
421.925	4.12
422.132	4
422.34	3.77
422.547	3.83
422.755	3.7
422.962	3.64
423.17	3.62
423.377	3.79
423.585	3.49
423.792	3.52
423.999	3.58
424.207	3.61
424.414	3.53
424.621	3.59
424.829	3.59
425.036	3.56
425.243	3.76
425.451	3.7
425.658	3.7
425.865	3.71
426.072	3.73
426.28	3.7
426.487	3.76
426.694	3.72
426.901	3.59
427.108	3.64
427.315	3.47
427.523	3.69
427.73	3.73
427.937	3.75
428.144	3.59
428.351	3.62
428.558	3.5
428.765	3.46
428.972	3.46
429.179	3.56
429.386	3.6
429.593	3.54
429.8	3.55
430.007	3.78
430.214	3.81
430.421	3.8
430.628	3.7
430.835	3.69
431.042	3.72
431.249	3.87
431.456	3.85
431.662	4.05
431.869	4.11
432.076	4.03
432.283	3.99
432.49	3.98
432.697	3.97
432.903	3.98
433.11	3.99
433.317	3.97
433.524	4.13
433.73	4.12
433.937	4.21
434.144	4.09
434.35	4.13
434.557	3.97
434.764	4.03
434.97	3.94
435.177	4.13
435.384	4.14
435.59	4.3
435.797	4.45
436.003	4.54
436.21	4.49
436.416	4.47
436.623	4.43
436.829	4.44
437.036	4.47
437.242	4.5
437.449	4.43
437.655	4.4
437.862	4.33
438.068	4.26
438.275	4.28
438.481	4.48
438.687	4.51
438.894	4.46
439.1	4.5
439.307	4.6
439.513	4.51
439.719	4.5
439.926	4.65
440.132	4.7
440.338	4.58
440.544	4.74
440.751	4.75
440.957	4.76
441.163	4.73
441.369	4.82
441.575	4.6
441.782	4.62
441.988	4.49
442.194	4.49
442.4	4.48
442.606	4.71
442.812	4.81
443.018	4.86
443.224	4.89
443.431	4.92
443.637	4.71
443.843	4.63
444.049	4.71
444.255	4.71
444.461	4.81
444.667	4.87
444.873	5.01
445.079	4.93
445.284	5.04
445.49	4.79
445.696	4.68
445.902	4.53
446.108	4.56
446.314	4.43
446.52	4.47
446.726	4.77
446.931	4.86
447.137	4.88
447.343	4.87
447.549	4.92
447.755	4.8
447.96	4.93
448.166	4.86
448.372	4.93
448.578	5
448.783	4.9
448.989	4.86
449.195	4.95
449.4	5.06
449.606	5.06
449.812	5.11
450.017	5.08
450.223	4.95
450.428	4.8
450.634	4.8
450.84	4.86
451.045	4.83
451.251	4.95
451.456	5.15
451.662	5.17
451.867	5.17
452.073	5.23
452.278	5.19
452.483	5.14
452.689	5.11
452.894	5.11
453.1	4.99
453.305	5.03
453.51	5.02
453.716	5.04
453.921	5.09
454.127	5.18
454.332	5.13
454.537	5.11
454.742	5.05
454.948	4.99
455.153	5.03
455.358	5.1
455.563	5.12
455.769	5.25
455.974	5.21
456.179	5.13
456.384	5.11
456.589	5.12
456.795	5
457	5.16
457.205	5.29
457.41	5.33
457.615	5.3
457.82	5.41
458.025	5.31
458.23	5.17
458.435	5.13
458.64	5.05
458.845	5.14
459.05	5.13
459.255	5.18
459.46	5.14
459.665	5.23
459.87	5.19
460.075	5.22
460.28	5.23
460.485	5.35
460.69	5.38
460.895	5.3
461.099	5.25
461.304	5.3
461.509	5.28
461.714	5.24
461.919	5.32
462.123	5.27
462.328	5.28
462.533	5.22
462.738	5.29
462.942	5.23
463.147	5.26
463.352	5.28
463.556	5.31
463.761	5.26
463.966	5.32
464.17	5.45
464.375	5.35
464.58	5.35
464.784	5.39
464.989	5.31
465.193	5.27
465.398	5.38
465.602	5.44
465.807	5.48
466.011	5.56
466.216	5.63
466.42	5.7
466.625	5.8
466.829	5.87
467.034	5.97
467.238	6.15
467.443	6.09
467.647	5.93
467.851	5.91
468.056	5.91
468.26	5.78
468.464	5.78
468.669	5.91
468.873	6.01
469.077	5.97
469.282	6.01
469.486	6.09
469.69	6.07
469.894	5.91
470.099	5.97
470.303	5.97
470.507	5.95
470.711	5.95
470.915	6
471.119	5.91
471.324	5.9
471.528	5.91
471.732	5.99
471.936	6.02
472.14	6.09
472.344	6.11
472.548	6.16
472.752	6.28
472.956	6.38
473.16	6.36
473.364	6.31
473.568	6.23
473.772	6.12
473.976	6.07
474.18	6.09
474.384	6.23
474.588	6.3
474.792	6.3
474.995	6.35
475.199	6.47
475.403	6.44
475.607	6.45
475.811	6.49
476.015	6.46
476.218	6.43
476.422	6.4
476.626	6.5
476.83	6.55
477.033	6.57
477.237	6.52
477.441	6.56
477.644	6.57
477.848	6.59
478.052	6.59
478.255	6.67
478.459	6.68
478.663	6.65
478.866	6.6
479.07	6.67
479.273	6.68
479.477	6.73
479.681	6.74
479.884	6.81
480.088	6.72
480.291	6.74
480.495	6.76
480.698	6.8
480.901	6.78
481.105	6.87
481.308	6.87
481.512	6.87
481.715	6.96
481.919	7.06
482.122	7.16
482.325	7.22
482.529	7.19
482.732	7.18
482.935	7.06
483.138	6.9
483.342	6.91
483.545	6.98
483.748	7.03
483.952	7.1
484.155	7.29
484.358	7.31
484.561	7.23
484.764	7.15
484.967	7.27
485.171	7.34
485.374	7.35
485.577	7.52
485.78	7.54
485.983	7.49
486.186	7.32
486.389	7.27
486.592	7.25
486.795	7.33
486.998	7.33
487.201	7.36
487.404	7.42
487.607	7.45
487.81	7.39
488.013	7.36
488.216	7.42
488.419	7.38
488.622	7.33
488.825	7.35
489.028	7.29
489.231	7.28
489.433	7.29
489.636	7.25
489.839	7.27
490.042	7.32
490.245	7.3
490.447	7.38
490.65	7.44
490.853	7.47
491.056	7.53
491.258	7.53
491.461	7.56
491.664	7.56
491.866	7.51
492.069	7.5
492.272	7.47
492.474	7.45
492.677	7.51
492.879	7.58
493.082	7.64
493.285	7.79
493.487	7.78
493.69	7.77
493.892	7.75
494.095	7.72
494.297	7.7
494.5	7.76
494.702	7.77
494.905	7.78
495.107	7.75
495.309	7.72
495.512	7.69
495.714	7.75
495.917	7.8
496.119	7.87
496.321	7.95
496.524	7.98
496.726	7.96
496.928	7.99
497.13	8.05
497.333	8.02
497.535	8.04
497.737	8.07
497.939	8.01
498.142	8.04
498.344	8.06
498.546	8.08
498.748	8.1
498.95	8.21
499.152	8.18
499.355	8.24
499.557	8.29
499.759	8.35
499.961	8.32
500.163	8.36
500.365	8.4
500.567	8.43
500.769	8.38
500.971	8.39
501.173	8.35
501.375	8.31
501.577	8.32
501.779	8.36
501.981	8.44
502.183	8.43
502.385	8.43
502.587	8.4
502.788	8.47
502.99	8.47
503.192	8.56
503.394	8.55
503.596	8.58
503.798	8.6
503.999	8.64
504.201	8.62
504.403	8.68
504.605	8.71
504.806	8.73
505.008	8.73
505.21	8.82
505.411	8.83
505.613	8.84
505.815	8.76
506.016	8.8
506.218	8.88
506.42	8.94
506.621	8.98
506.823	9.1
507.024	9.07
507.226	9.03
507.427	9.01
507.629	9.08
507.83	9.11
508.032	9.14
508.233	9.18
508.435	9.25
508.636	9.28
508.838	9.21
509.039	9.21
509.24	9.19
509.442	9.16
509.643	9.1
509.845	9.17
510.046	9.29
510.247	9.36
510.448	9.35
510.65	9.44
510.851	9.49
511.052	9.44
511.254	9.42
511.455	9.49
511.656	9.47
511.857	9.45
512.058	9.47
512.26	9.49
512.461	9.52
512.662	9.61
512.863	9.64
513.064	9.66
513.265	9.69
513.466	9.69
513.667	9.62
513.868	9.62
514.069	9.62
514.27	9.67
514.471	9.68
514.672	9.78
514.873	9.82
515.074	9.82
515.275	9.75
515.476	9.81
515.677	9.75
515.878	9.83
516.079	9.83
516.28	9.88
516.481	9.94
516.682	10.01
516.882	9.96
517.083	10.03
517.284	10.06
517.485	10.04
517.686	10.05
517.886	10.06
518.087	10.04
518.288	10.07
518.488	10.04
518.689	10.04
518.89	10.07
519.091	10.14
519.291	10.15
519.492	10.19
519.692	10.24
519.893	10.25
520.094	10.21
520.294	10.24
520.495	10.26
520.695	10.25
520.896	10.31
521.096	10.37
521.297	10.34
521.497	10.35
521.698	10.37
521.898	10.35
522.099	10.35
522.299	10.45
522.499	10.48
522.7	10.52
522.9	10.5
523.101	10.48
523.301	10.49
523.501	10.46
523.702	10.5
523.902	10.61
524.102	10.71
524.302	10.67
524.503	10.77
524.703	10.81
524.903	10.86
525.103	10.88
525.304	10.96
525.504	11.01
525.704	11.01
525.904	11.05
526.104	11.04
526.304	11.05
526.504	11.08
526.705	11.07
526.905	11.08
527.105	11.06
527.305	11.05
527.505	10.99
527.705	11.06
527.905	11.02
528.105	11.09
528.305	11.1
528.505	11.15
528.705	11.17
528.905	11.16
529.105	11.19
529.304	11.21
529.504	11.25
529.704	11.25
529.904	11.34
530.104	11.33
530.304	11.4
530.503	11.4
530.703	11.43
530.903	11.38
531.103	11.4
531.303	11.43
531.502	11.42
531.702	11.45
531.902	11.54
532.101	11.54
532.301	11.55
532.501	11.58
532.7	11.57
532.9	11.56
533.1	11.61
533.299	11.67
533.499	11.69
533.698	11.71
533.898	11.75
534.097	11.77
534.297	11.78
534.496	11.79
534.696	11.79
534.895	11.82
535.095	11.9
535.294	11.86
535.494	11.85
535.693	11.92
535.892	11.98
536.092	11.95
536.291	11.97
536.491	12.06
536.69	12.11
536.889	12.03
537.088	12.01
537.288	12.13
537.487	12.17
537.686	12.21
537.886	12.31
538.085	12.37
538.284	12.44
538.483	12.48
538.682	12.53
538.882	12.58
539.081	12.7
539.28	12.62
539.479	12.67
539.678	12.66
539.877	12.72
540.076	12.72
540.275	12.73
540.474	12.8
540.673	12.88
540.872	12.85
541.071	12.85
541.27	12.99
541.469	13
541.668	12.99
541.867	13.08
542.066	13.15
542.265	13.19
542.464	13.21
542.663	13.24
542.862	13.27
543.06	13.31
543.259	13.4
543.458	13.43
543.657	13.53
543.856	13.61
544.054	13.61
544.253	13.57
544.452	13.62
544.651	13.65
544.849	13.65
545.048	13.75
545.247	13.88
545.445	13.89
545.644	13.91
545.843	13.93
546.041	13.96
546.24	13.95
546.438	14.14
546.637	14.19
546.836	14.33
547.034	14.39
547.233	14.43
547.431	14.37
547.63	14.47
547.828	14.52
548.027	14.58
548.225	14.66
548.423	14.69
548.622	14.84
548.82	14.83
549.019	14.94
549.217	14.99
549.415	15.07
549.614	15.07
549.812	15.14
550.01	15.09
550.209	15.17
550.407	15.24
550.605	15.33
550.803	15.42
551.002	15.56
551.2	15.58
551.398	15.64
551.596	15.7
551.794	15.77
551.993	15.86
552.191	16.01
552.389	16.14
552.587	16.15
552.785	16.16
552.983	16.22
553.181	16.28
553.379	16.31
553.577	16.43
553.775	16.49
553.973	16.55
554.171	16.65
554.369	16.74
554.567	16.83
554.765	16.95
554.963	17.09
555.161	17.12
555.359	17.23
555.557	17.34
555.755	17.44
555.952	17.5
556.15	17.56
556.348	17.66
556.546	17.73
556.744	17.77
556.941	17.77
557.139	17.88
557.337	17.93
557.535	17.96
557.732	18.09
557.93	18.25
558.128	18.38
558.325	18.43
558.523	18.49
558.721	18.62
558.918	18.73
559.116	18.8
559.313	18.96
559.511	19.12
559.708	19.19
559.906	19.19
560.104	19.26
560.301	19.34
560.498	19.4
560.696	19.47
560.893	19.62
561.091	19.75
561.288	19.84
561.486	19.96
561.683	20.11
561.88	20.19
562.078	20.26
562.275	20.35
562.473	20.42
562.67	20.5
562.867	20.64
563.064	20.75
563.262	20.81
563.459	20.89
563.656	20.94
563.853	21.01
564.051	21.07
564.248	21.17
564.445	21.28
564.642	21.41
564.839	21.58
565.036	21.67
565.234	21.9
565.431	22.06
565.628	22.16
565.825	22.17
566.022	22.33
566.219	22.35
566.416	22.4
566.613	22.52
566.81	22.6
567.007	22.68
567.204	22.72
567.401	22.75
567.598	22.79
567.795	22.82
567.991	22.89
568.188	22.97
568.385	23.11
568.582	23.15
568.779	23.25
568.976	23.28
569.172	23.42
569.369	23.37
569.566	23.45
569.763	23.71
569.96	23.8
570.156	23.73
570.353	23.88
570.55	24.06
570.746	23.93
570.943	23.99
571.14	24.09
571.336	24.15
571.533	24.2
571.729	24.29
571.926	24.37
572.123	24.42
572.319	24.42
572.516	24.35
572.712	24.39
572.909	24.4
573.105	24.47
573.302	24.57
573.498	24.68
573.695	24.74
573.891	24.85
574.087	24.83
574.284	24.87
574.48	24.85
574.677	24.95
574.873	24.96
575.069	25.08
575.266	25.14
575.462	25.15
575.658	25.12
575.854	25.11
576.051	25.07
576.247	24.99
576.443	25.07
576.639	25.02
576.835	24.92
577.032	24.91
577.228	25.06
577.424	25
577.62	25
577.816	25.09
578.012	25.13
578.208	25.09
578.404	25.12
578.6	25.11
578.796	25.11
578.993	25.2
579.189	25.18
579.384	25.19
579.58	25.17
579.776	25.19
579.972	25.1
580.168	25.05
580.364	25.09
580.56	25.05
580.756	25
580.952	25.04
581.148	25.07
581.343	24.99
581.539	25.09
581.735	25.04
581.931	25.01
582.127	25.04
582.322	25.17
582.518	25.13
582.714	25.22
582.909	25.27
583.105	25.26
583.301	25.18
583.496	25.21
583.692	25.12
583.888	25.04
584.083	25.07
584.279	25.04
584.474	24.98
584.67	25.01
584.866	25.1
585.061	24.92
585.257	24.99
585.452	25.08
585.648	25.14
585.843	25.14
586.039	25.21
586.234	25.22
586.429	25.22
586.625	25.19
586.82	25.16
587.015	25.24
587.211	25.12
587.406	25.13
587.601	25.12
587.797	25.07
587.992	25.08
588.187	25.25
588.383	25.26
588.578	25.29
588.773	25.39
588.968	25.38
589.163	25.33
589.359	25.24
589.554	25.23
589.749	25.25
589.944	25.32
590.139	25.32
590.334	25.39
590.529	25.36
590.724	25.33
590.919	25.39
591.114	25.33
591.309	25.44
591.504	25.55
591.699	25.54
591.894	25.52
592.089	25.67
592.284	25.73
592.479	25.83
592.674	25.82
592.869	25.87
593.064	25.94
593.259	26.01
593.454	26.03
593.648	26.13
593.843	26.14
594.038	26.17
594.233	26.14
594.428	26.09
594.622	26.2
594.817	26.26
595.012	26.28
595.206	26.38
595.401	26.45
595.596	26.51
595.79	26.68
595.985	26.8
596.18	26.82
596.374	27.05
596.569	27.14
596.763	27.09
596.958	27.17
597.153	27.22
597.347	27.09
597.542	27.11
597.736	27.17
597.931	27.15
598.125	27.2
598.319	27.37
598.514	27.38
598.708	27.5
598.903	27.57
599.097	27.67
599.291	27.63
599.486	27.64
599.68	27.62
599.874	27.8
600.069	27.8
600.263	27.85
600.457	27.98
600.651	28.01
600.846	27.96
601.04	28.01
601.234	28.13
601.428	28.17
601.622	28.27
601.817	28.3
602.011	28.32
602.205	28.31
602.399	28.24
602.593	28.15
602.787	28.18
602.981	28.14
603.175	28.13
603.369	28.15
603.563	28.15
603.757	28.08
603.951	28.16
604.145	28.09
604.339	28.14
604.533	28.06
604.727	28.09
604.921	27.96
605.115	27.88
605.309	27.82
605.502	27.88
605.696	27.78
605.89	27.8
606.084	27.88
606.278	27.86
606.471	27.82
606.665	27.81
606.859	27.77
607.053	27.7
607.246	27.57
607.44	27.53
607.634	27.46
607.827	27.39
608.021	27.36
608.214	27.43
608.408	27.43
608.602	27.38
608.795	27.39
608.989	27.3
609.182	27.19
609.376	27.11
609.569	27.06
609.763	26.96
609.956	26.79
610.15	26.63
610.343	26.52
610.537	26.46
610.73	26.42
610.923	26.51
611.117	26.52
611.31	26.49
611.504	26.42
611.697	26.33
611.89	26.23
612.083	26.2
612.277	26.07
612.47	25.98
612.663	25.92
612.856	25.92
613.05	25.82
613.243	25.87
613.436	25.73
613.629	25.66
613.822	25.46
614.015	25.44
614.209	25.31
614.402	25.37
614.595	25.37
614.788	25.39
614.981	25.27
615.174	25.17
615.367	25.09
615.56	24.97
615.753	24.95
615.946	24.87
616.139	24.94
616.332	24.94
616.525	24.86
616.718	24.78
616.911	24.85
617.103	24.84
617.296	24.81
617.489	24.82
617.682	24.83
617.875	24.77
618.067	24.56
618.26	24.44
618.453	24.42
618.646	24.39
618.838	24.31
619.031	24.4
619.224	24.4
619.417	24.31
619.609	24.22
619.802	24.23
619.994	24.31
620.187	24.28
620.38	24.36
620.572	24.38
620.765	24.45
620.957	24.28
621.15	24.22
621.342	24.12
621.535	24.04
621.727	23.92
621.92	23.87
622.112	23.88
622.305	23.88
622.497	23.88
622.69	23.81
622.882	23.74
623.074	23.84
623.267	23.72
623.459	23.69
623.651	23.72
623.844	23.75
624.036	23.68
624.228	23.7
624.42	23.75
624.613	23.85
624.805	23.8
624.997	23.76
625.189	23.78
625.381	23.77
625.574	23.6
625.766	23.64
625.958	23.58
626.15	23.55
626.342	23.49
626.534	23.59
626.726	23.56
626.918	23.57
627.11	23.58
627.302	23.52
627.494	23.36
627.686	23.32
627.878	23.27
628.07	23.19
628.262	23.18
628.454	23.18
628.646	23.23
628.838	23.21
629.029	23.24
629.221	23.19
629.413	23.2
629.605	23.03
629.797	23.05
629.989	22.99
630.18	22.94
630.372	22.95
630.564	22.97
630.755	22.96
630.947	23.02
631.139	22.97
631.33	22.83
631.522	23
631.714	22.96
631.905	22.83
632.097	22.81
632.289	22.85
632.48	22.63
632.672	22.53
632.863	22.5
633.055	22.49
633.246	22.42
633.438	22.34
633.629	22.4
633.821	22.42
634.012	22.49
634.203	22.49
634.395	22.58
634.586	22.58
634.777	22.58
634.969	22.48
635.16	22.48
635.351	22.41
635.543	22.27
635.734	22.26
635.925	22.27
636.117	22.26
636.308	22.3
636.499	22.36
636.69	22.27
636.881	22.23
637.073	22.23
637.264	22.17
637.455	22.18
637.646	22.22
637.837	22.28
638.028	22.26
638.219	22.27
638.41	22.12
638.601	22.06
638.792	22.06
638.983	22.05
639.174	22.04
639.365	22.09
639.556	22.04
639.747	21.95
639.938	21.92
640.129	21.81
640.32	21.8
640.511	21.82
640.701	21.83
640.892	21.81
641.083	21.84
641.274	21.91
641.465	21.86
641.655	21.84
641.846	21.78
642.037	21.76
642.228	21.62
642.418	21.63
642.609	21.64
642.8	21.63
642.99	21.58
643.181	21.59
643.372	21.65
643.562	21.58
643.753	21.53
643.943	21.42
644.134	21.37
644.324	21.18
644.515	21.12
644.705	21.16
644.896	21.17
645.086	21.13
645.277	21.12
645.467	21.13
645.658	21.11
645.848	21.17
646.038	21.11
646.229	21.07
646.419	21.02
646.61	20.97
646.8	20.81
646.99	20.81
647.18	20.79
647.371	20.76
647.561	20.66
647.751	20.76
647.941	20.68
648.132	20.69
648.322	20.63
648.512	20.68
648.702	20.64
648.892	20.66
649.082	20.6
649.272	20.45
649.462	20.33
649.653	20.19
649.843	20.15
650.033	20.15
650.223	20.15
650.413	20.08
650.603	20.07
650.793	20.1
650.983	20
651.172	19.94
651.362	19.84
651.552	19.74
651.742	19.6
651.932	19.52
652.122	19.51
652.312	19.56
652.502	19.49
652.691	19.38
652.881	19.3
653.071	19.17
653.261	19.01
653.45	18.84
653.64	18.79
653.83	18.67
654.019	18.53
654.209	18.5
654.399	18.39
654.588	18.22
654.778	18.09
654.968	17.98
655.157	17.79
655.347	17.83
655.536	17.69
655.726	17.53
655.915	17.41
656.105	17.33
656.294	17.17
656.484	17.03
656.673	17
656.863	16.92
657.052	16.77
657.241	16.51
657.431	16.36
657.62	16.16
657.809	15.82
657.999	15.62
658.188	15.48
658.377	15.26
658.567	15.1
658.756	15.02
658.945	14.94
659.134	14.72
659.324	14.57
659.513	14.39
659.702	14.3
659.891	14.14
660.08	14.01
660.269	13.95
660.458	13.77
660.648	13.65
660.837	13.48
661.026	13.37
661.215	13.2
661.404	13.04
661.593	12.81
661.782	12.6
661.971	12.5
662.16	12.37
662.349	12.33
662.538	12.19
662.726	12.08
662.915	12.04
663.104	11.91
663.293	11.74
663.482	11.71
663.671	11.57
663.86	11.32
664.048	11.19
664.237	11.08
664.426	10.92
664.615	10.9
664.803	10.85
664.992	10.75
665.181	10.62
665.369	10.57
665.558	10.49
665.747	10.42
665.935	10.49
666.124	10.47
666.312	10.4
666.501	10.23
666.69	10.1
666.878	10.02
667.067	9.87
667.255	9.92
667.444	10.08
667.632	10.14
667.82	10.06
668.009	10.06
668.197	9.96
668.386	9.82
668.574	9.84
668.762	9.79
668.951	9.81
669.139	9.77
669.327	9.74
669.516	9.67
669.704	9.58
669.892	9.6
670.08	9.55
670.269	9.47
670.457	9.43
670.645	9.44
670.833	9.49
671.021	9.51
671.21	9.64
671.398	9.78
671.586	9.88
671.774	9.68
671.962	9.68
672.15	9.7
672.338	9.56
672.526	9.59
672.714	9.66
672.902	9.68
673.09	9.75
673.278	9.9
673.466	9.97
673.654	10.11
673.842	10.16
674.03	10.21
674.218	10.22
674.405	10.22
674.593	10.27
674.781	10.36
674.969	10.38
675.157	10.48
675.344	10.57
675.532	10.64
675.72	10.71
675.908	10.7
676.095	10.69
676.283	10.72
676.471	10.9
676.658	10.97
676.846	11.18
677.033	11.32
677.221	11.4
677.409	11.26
677.596	11.31
677.784	11.23
677.971	11.31
678.159	11.24
678.346	11.42
678.534	11.58
678.721	11.77
678.909	11.82
679.096	12.03
679.283	12.23
679.471	12.31
679.658	12.33
679.846	12.45
680.033	12.62
680.22	12.64
680.408	12.74
680.595	12.92
680.782	13.06
680.969	13.17
681.157	13.37
681.344	13.47
681.531	13.62
681.718	13.81
681.905	14.06
682.093	14.22
682.28	14.51
682.467	14.73
682.654	14.92
682.841	15.12
683.028	15.41
683.215	15.7
683.402	15.81
683.589	16
683.776	16.18
683.963	16.22
684.15	16.31
684.337	16.64
684.524	16.88
684.711	17.2
684.898	17.33
685.085	17.62
685.271	17.95
685.458	18.28
685.645	18.56
685.832	19.08
686.019	19.41
686.205	19.67
686.392	19.99
686.579	20.24
686.766	20.71
686.952	21.1
687.139	21.62
687.326	21.93
687.512	22.44
687.699	22.87
687.886	23.2
688.072	23.49
688.259	23.88
688.445	24.3
688.632	24.54
688.818	25.06
689.005	25.5
689.191	26.04
689.378	26.43
689.564	26.88
689.751	27.41
689.937	27.83
690.124	28.42
690.31	28.84
690.496	29.25
690.683	29.61
690.869	30.29
691.055	30.66
691.242	31.31
691.428	31.8
691.614	32.47
691.8	32.89
691.987	33.52
692.173	34.06
692.359	34.64
692.545	35.08
692.731	35.63
692.918	36.18
693.104	36.69
693.29	37.46
693.476	38.05
693.662	38.71
693.848	39.23
694.034	39.75
694.22	40.25
694.406	40.87
694.592	41.42
694.778	41.96
694.964	42.51
695.15	43.14
695.336	43.49
695.522	44.25
695.708	44.8
695.894	45.57
696.08	46.13
696.265	47
696.451	47.36
696.637	48.16
696.823	48.31
697.009	48.52
697.194	48.84
697.38	49.12
697.566	49.48
697.751	50.2
697.937	51.12
698.123	51.77
698.308	52.26
698.494	52.66
698.68	52.89
698.865	53.18
699.051	53.54
699.236	53.93
699.422	54.48
699.607	54.86
699.793	55.14
699.978	55.39
700.164	55.8
700.349	56.05
700.535	56.53
700.72	56.97
700.906	57.54
701.091	57.94
701.276	58.43
701.462	59.34
701.647	59.78
701.832	60.11
702.018	60.74
702.203	60.66
702.388	60.63
702.573	61.07
702.759	61.5
702.944	61.71
703.129	62.09
703.314	62.49
703.499	62.78
703.684	62.86
703.87	63.52
704.055	64.14
704.24	64.32
704.425	64.77
704.61	65.31
704.795	65.21
704.98	65.49
705.165	65.77
705.35	65.67
705.535	65.95
705.72	66.48
705.905	66.91
706.09	67.41
706.275	67.84
706.459	68.06
706.644	67.92
706.829	68.1
707.014	67.84
707.199	67.9
707.384	68.05
707.568	68.53
707.753	68.67
707.938	69
708.123	69.35
708.307	69.68
708.492	69.74
708.677	69.8
708.861	70.05
709.046	70.06
709.231	70.29
709.415	70.57
709.6	70.82
709.784	70.83
709.969	71.03
710.153	70.69
710.338	70.83
710.522	70.98
710.707	71.55
710.891	71.97
711.076	72.43
711.26	72.58
711.445	72.87
711.629	73.11
711.813	73.17
711.998	73.61
712.182	73.28
712.366	73.74
712.551	74.08
712.735	74.43
712.919	74.08
713.103	74.67
713.288	74.14
713.472	73.92
713.656	74.08
713.84	74.52
714.024	74.83
714.208	74.88
714.393	75.24
714.577	75.04
714.761	75.24
714.945	74.93
715.129	75.4
715.313	75.19
715.497	75.3
715.681	75.48
715.865	75.97
716.049	76.16
716.233	76.24
716.417	76.74
716.601	76.37
716.785	76.3
716.968	76.12
717.152	76
717.336	75.85
717.52	75.86
717.704	76.04
717.888	76.52
718.071	77.31
718.255	77.19
718.439	77.49
718.622	77.41
718.806	77.5
718.99	76.99
719.174	77.2
719.357	77.54
719.541	77.79
719.724	77.95
719.908	79.05
720.092	79.04
720.275	78.82
720.459	78.58
720.642	78.19
720.826	77.31
721.009	77.29
721.193	77.37
721.376	77.56
721.559	78.12
721.743	78.69
721.926	79.04
722.11	79.38
722.293	79.2
722.476	79.13
722.66	78.43
722.843	78.51
723.026	77.89
723.21	78.25
723.393	78.45
723.576	78.77
723.759	78.45
723.942	79.43
724.126	79.5
724.309	79.87
724.492	80.08
724.675	80.51
724.858	80.42
725.041	81.24
725.224	81.21
725.407	81.61
725.59	81.87
725.774	81.63
725.957	80.84
726.14	80.52
726.322	80.2
726.505	79.84
726.688	80.43
726.871	80.78
727.054	81.13
727.237	81.29
727.42	81.59
727.603	81.09
727.786	81.35
727.968	81.27
728.151	81.09
728.334	81.09
728.517	81.22
728.699	81.42
728.882	81.37
729.065	82.15
729.248	82.3
729.43	82.47
729.613	82.91
729.796	83.53
729.978	83.24
730.161	83.13
730.343	82.87
730.526	82.97
730.708	82.38
730.891	82.16
731.073	82
731.256	82.39
731.438	81.36
731.621	82.17
731.803	82.27
731.986	82.95
732.168	82.42
732.35	83.52
732.533	83.32
732.715	84.11
732.898	84.15
733.08	84.56
733.262	84.7
733.444	84.38
733.627	83.78
733.809	83.86
733.991	84.28
734.173	83.7
734.355	83.78
734.538	84.49
734.72	84.24
734.902	84.71
735.084	85.05
735.266	85.04
735.448	85.5
735.63	85.91
735.812	85.33
735.994	86.06
736.176	86.03
736.358	85.8
736.54	85.61
736.722	85.31
736.904	85.29
737.086	85.44
737.268	85.3
737.45	85.24
737.632	85.68
737.814	84.61
737.995	84.7
738.177	84.51
738.359	84.04
738.541	84.22
738.723	84.23
738.904	84.41
739.086	84.6
739.268	85.55
739.449	87.06
739.631	86.81
739.813	87.19
739.994	87.29
740.176	87.45
740.358	85.68
740.539	87.22
740.721	87.07
740.902	87.74
741.084	87.79
741.265	88.22
741.447	87.22
741.628	87.24
741.81	86.08
741.991	86.13
742.172	86.62
742.354	86.77
742.535	86.97
742.717	87.63
742.898	87.73
743.079	87.37
743.261	87.77
743.442	86.94
743.623	87.8
743.804	87.92
743.986	88.39
744.167	87.36
744.348	87.57
744.529	86.54
744.71	85.74
744.891	86.21
745.073	86.5
745.254	86.66
745.435	87.09
745.616	86.86
745.797	86.28
745.978	86.9
746.159	87.68
746.34	86.64
746.521	88.03
746.702	86.97
746.883	86.85
747.064	87.18
747.245	87.95
747.426	87.9
747.606	88.93
747.787	89.27
747.968	88.24
748.149	88.84
748.33	88.26
748.51	87.94
748.691	87.97
748.872	88.02
749.053	86.79
749.233	86.9
749.414	86.65
749.595	84.41
749.775	84.1
749.956	84.2
750.137	84.43
750.317	84.61
750.498	87.17
750.678	87.33
750.859	88.33
751.04	87.24
751.22	87.66
751.4	87.06
751.581	86.24
751.761	85.57
751.942	86.64
752.122	86.12
752.303	85.8
752.483	86.24
752.663	84.95
752.844	83.39
753.024	84.51
753.204	84.34
753.385	84.25
753.565	85.59
753.745	86.82
753.925	85.7
754.106	85.07
754.286	84.84
754.466	85.18
754.646	84.91
754.826	84.88
755.006	84.76
755.187	85.37
755.367	85.13
755.547	84.86
755.727	84.46
755.907	85.49
756.087	85.72
756.267	85.25
756.447	86.09
756.627	85.28
756.807	85.36
756.987	84.38
757.167	83.58
757.346	82.75
757.526	84.03
757.706	84.03
757.886	85.5
758.066	87.34
758.246	87.23
758.425	85.99
758.605	85.48
758.785	85.08
758.965	84.4
759.144	84
759.324	86.62
759.504	87.33
759.683	87.26
759.863	86.05
760.043	86.26
760.222	85.01
760.402	84.64
760.581	83.12
760.761	83.7
760.94	83.04
761.12	82.32
761.299	82.57
761.479	84.26
761.658	84.31
761.838	85.78
762.017	86.47
762.197	86.83
762.376	86.86
762.555	86.74
762.735	87.39
762.914	86.93
763.093	86.53
763.273	85.27
763.452	85.27
763.631	84.74
763.81	85.04
763.99	84.09
764.169	84.55
764.348	84.52
764.527	83.22
764.706	82.43
764.885	82.67
765.064	81.23
765.243	81.96
765.423	83.72
765.602	83.9
765.781	83.57
765.96	83.29
766.139	81.79
766.318	79.54
766.497	79.32
766.676	80.4
766.854	82.15
767.033	83.03
767.212	83.36
767.391	84.85
767.57	85.57
767.749	85.17
767.928	85.94
768.106	86.31
768.285	84.53
768.464	83.47
768.643	83.03
768.821	81.92
769	82
769.179	81.09
769.357	79.06
769.536	78.36
769.715	77.51
769.893	78.59
770.072	78.79
770.25	80.67
770.429	82.08
770.607	82.17
770.786	82.23
770.964	84.41
771.143	81.93
771.321	82.47
771.5	85.09
771.678	81.89
771.857	81.12
772.035	81.61
772.213	80.23
772.392	77.23
772.57	79.19
772.748	79.46
772.927	81.51
773.105	81.98
773.283	83.44
773.461	83.98
773.64	83.85
773.818	83.12
773.996	83.79
774.174	82.88
774.352	82.4
774.531	79.93
774.709	80.81
774.887	79.89
775.065	80.46
775.243	80.66
775.421	81.74
775.599	82.67
775.777	82.56
775.955	81.89
776.133	79.49
776.311	80.81
776.489	78.17
776.667	77.64
776.844	76.43
777.022	79.26
777.2	78.83
777.378	79.59
777.556	81.05
777.734	85.49
777.911	87.27
778.089	86.87
778.267	87.69
778.445	86.31
778.622	82.71
778.8	79.96
778.978	79.39
779.155	79.09
779.333	79.04
779.511	80.5
779.688	81.83
779.866	81.35
780.043	78.19
780.221	78
780.398	76.09
780.576	77.07
780.753	80.3
780.931	80.14
781.108	78.9
781.286	79.35
781.463	78.18
781.64	75.22
781.818	76.89
781.995	78.36
782.172	81.56
782.35	80.8
782.527	81.38
782.704	80.21
782.882	81.21
783.059	78.85
783.236	80.8
783.413	83.8
783.59	86.1
783.768	84.35
783.945	84.2
784.122	79.95
784.299	77.67
784.476	76.72
784.653	77.52
784.83	76
785.007	76.27
785.184	76.19
785.361	75.07
785.538	77.38
785.715	80.46
785.892	83.07
786.069	81.58
786.246	82.16
786.423	84.19
786.6	84.3
786.776	81.91
786.953	82.97
787.13	84.55
787.307	81.05
787.484	77.45
787.66	77.66
787.837	77.91
788.014	77.84
788.191	74.39
788.367	78.15
788.544	76.64
788.721	76.1
788.897	78.46
789.074	81.03
789.25	76.9
789.427	79.94
789.603	80.97
789.78	79.67
789.956	78.91
790.133	79.76
790.309	80.89
790.486	79.71
790.662	78.24
790.839	80.31
791.015	79.67
791.192	77.6
791.368	80.89
791.544	82.76
791.721	82.59
791.897	84.86
792.073	82.92
792.249	76.78
792.426	77.29
792.602	77.17
792.778	80.69
792.954	79.4
793.13	85.65
793.307	75.95
793.483	72.82
793.659	67.55
793.835	70.27
794.011	64.56
794.187	73.53
794.363	73.18
794.539	74.46
794.715	72.05
794.891	69.08
795.067	67.12
795.243	72.09
795.419	72.18
795.595	74.88
795.771	75.85
795.947	76.99
796.122	73.33
796.298	76.22
796.474	73.88
796.65	75.71
796.826	73.35
797.001	72.3
797.177	68.92
797.353	70.5
797.529	75.71
797.704	78.41
797.88	79.19
798.056	79.84
798.231	83.53
798.407	78.98
798.582	79.1
798.758	82.55
798.934	84.35
799.109	80.37
799.285	79.82
799.46	78.61
799.636	79.51
799.811	78.98
799.986	81.17
800.162	81.28
800.337	77.37
800.513	68.44
800.688	67.18
800.863	71
801.039	67.93
801.214	70.34
801.389	76.45
801.565	70.13
801.74	62.78
801.915	69.84
802.09	70.12
802.265	71.51
802.441	72.95
802.616	74.39
802.791	73.5
802.966	73.18
803.141	71.75
803.316	70.76
803.491	73.76
803.666	74.33
803.841	79.71
804.016	79.6
804.191	81.42
804.366	75.05
804.541	68.61
804.716	60.26
804.891	59.87
805.066	61.51
805.241	60.97
805.416	67.57
805.591	71.35
805.765	75.17
805.94	78.14
806.115	78.76
806.29	75.83
806.464	76.77
806.639	71.1
806.814	65.01
806.989	68.05
807.163	73.09
807.338	72.17
807.512	70.05
807.687	63.46
807.862	62.63
808.036	53.42
808.211	52.08
808.385	59.32
808.56	69.34
808.734	72.55
808.909	79.38
809.083	81.94
809.258	79.19
809.432	74.52
809.606	66.88
809.781	67.06
809.955	67.18
810.13	73.97
810.304	77.62
810.478	77.13
810.652	70.83
810.827	72.85
811.001	59.3
811.175	58.29
811.349	54.78
811.524	55.37
811.698	39.01
811.872	44.4
812.046	47.93
812.22	54.99
812.394	59.43
812.568	72.54
812.742	73.59
812.916	71.95
813.09	66.69
813.264	64.45
813.438	66.86
813.612	61.34
813.786	59.46
813.96	72.41
814.134	68.8
814.308	73.23
814.482	81.15
814.656	71.71
814.83	71.01
815.003	73.84
815.177	63.77
815.351	56.53
815.525	54.93
815.698	55.58
815.872	57.1
816.046	47.88
816.219	51.21
816.393	64.09
816.567	48.93
816.74	52.26
816.914	73.74
817.088	80.04
817.261	83.15
817.435	100.62
817.608	92.82
817.782	80.88
817.955	85.15
818.129	71.18
818.302	68.97
818.475	77.4
818.649	73.04
818.822	63.69
818.996	72.67
819.169	73.93
819.342	52.68
819.516	65.91
819.689	67.21
819.862	68.83
820.035	69.39
820.209	80.67
820.382	77.28
820.555	76.41
820.728	79.27
820.901	70.18
821.075	62.05
821.248	68.3
821.421	79.33
821.594	66.65
821.767	70.61
821.94	79.76
822.113	56.1
822.286	54.15
822.459	61.96
822.632	56.92
822.805	44.14
822.978	57.3
823.151	58.91
823.324	46.75
823.496	42.06
823.669	44.42
823.842	39.74
824.015	25.57
824.188	24.45
824.361	37.17
824.533	49.32
824.706	50.78
824.879	55.22
825.051	59.72
825.224	60.04
825.397	61.75
825.569	60.36
825.742	64.32
825.915	74.66
826.087	75.02
826.26	67.84
826.432	80.48
826.605	70.83
826.777	63.07
826.95	63.69
827.122	55.35
827.295	55.68
827.467	65.86
827.64	57.77
827.812	50.34
827.984	63.76
828.157	57.05
828.329	38.31
828.501	43.88
828.674	66.92
828.846	57.99
829.018	84.46
829.19	70.43
829.363	78.08
829.535	75.14
829.707	78.92
829.879	47.95
830.051	61.48
830.223	64.55
830.395	48.7
830.568	47.42
830.74	21.35
830.912	43.53
831.084	24.41
831.256	30.78
831.428	24.04
831.6	42.11
831.772	13.51
831.943	20.4
832.115	20
832.287	26.57
832.459	47.35
832.631	55.13
832.803	53.09
832.975	71.08
833.146	78.06
833.318	63.98
833.49	93.05
833.662	78.29
833.833	52.03
834.005	35.76
834.177	38.89
834.348	23.34
834.52	48.44
834.692	66.98
834.863	108.06
835.035	83.1
835.206	70.81
835.378	67.1
835.549	80.87
835.721	75.78
835.892	65.21
836.064	70.01
836.235	74.44
836.407	74.95
836.578	67.16
836.749	88.38
836.921	85.86
837.092	32.84
837.264	2.32
837.435	-15.1
837.606	0.06
837.777	6.84
837.949	22.04
838.12	37.26
838.291	55.17
838.462	58.8
838.633	58.95
838.805	50.8
838.976	69.24
839.147	45.36
839.318	34.13
839.489	12.11
839.66	42.12
839.831	34.11
840.002	57.8
840.173	65.23
840.344	102.89
840.515	139.69
840.686	105.78
840.857	48.84
841.028	44.58
841.199	9.31
841.369	-9.17
841.54	11.8
841.711	15.35
841.882	45.36
842.053	60.52
842.223	57.91
842.394	75.5
842.565	88.4
842.736	56.29
842.906	43.23
843.077	45.34
843.248	31.18
843.418	20.67
843.589	-9.81
843.759	28.1
843.93	35.31
844.101	31.6
844.271	36.63
844.442	38.59
844.612	45.65
844.783	24.59
844.953	16.42
845.123	14.38
845.294	27.17
845.464	-101.79
845.635	-14.19
845.805	5.36
845.975	29.13
846.146	23.18
846.316	26.26
846.486	37
846.656	58.89
846.827	68.75
846.997	82.29
847.167	104.61
847.337	74.45
847.507	31.08
847.677	-1.3
847.848	24.27
848.018	23.16
848.188	37.58
848.358	43.78
848.528	29.16
848.698	-4.85
848.868	-34.21
849.038	-141.6
849.208	-57.86
849.378	-9.88
849.548	4.83
849.718	14.03
849.887	27.05
850.057	26.91
850.227	19.79
850.397	13.63
850.567	-15.72
850.737	-49.13
850.906	-280
851.076	-158.59
851.246	9.95
851.415	81.03
851.585	58.56
851.755	49.11
851.924	46.14
852.094	52.81
852.264	-2.43
852.433	-247.12
852.603	-36.88
852.772	-0.68
852.942	19.55
853.111	-6.27
853.281	11.71
853.45	37.62
853.62	20.76
853.789	19.71
853.959	43.7
854.128	76.58
854.297	38.25
854.467	18.05
854.636	-25.14
854.805	12.02
854.975	-43.09
855.144	-28.49
855.313	168.53
855.482	206.57
855.652	113.38
855.821	136.34
855.99	70.84
856.159	28.57
856.328	23.15
856.497	26.86
856.667	20.95
856.836	-9.26
857.005	-11.51
857.174	-39.11
857.343	-57.39
857.512	-42.47
857.681	-12.25
857.85	17.67
858.019	50.85
858.188	19.43
858.356	29.73
858.525	41.16
858.694	7.43
858.863	-17.95
859.032	73.36
859.201	31.91
859.369	9.44
859.538	39.79
859.707	37.08
859.876	34.31
860.044	32.47
860.213	58.79
860.382	62.05
860.55	68.01
860.719	82.94
860.888	75.88
861.056	53.8
861.225	46.56
861.393	76.74
861.562	59.26
861.73	85.74
861.899	250.26
862.067	1782.76
862.236	147.39
862.404	129.97
862.572	113
862.741	105.64
862.909	74.95
863.078	44.86
863.246	8.41
863.414	-5.26
863.582	-2.24
863.751	-13.09
863.919	2.88
864.087	56.11
864.255	86.98
864.424	5.18
864.592	74.81
864.76	88.65
864.928	149.6
865.096	38.54
865.264	55.26
865.432	-645.45
865.6	15.5
865.768	16.43
865.936	-30.47
866.104	18.26
866.272	116.56
866.44	26.38
866.608	61.41
866.776	5.45
866.944	346.51
867.112	-65.68
867.28	-35.83
867.448	-10.59
867.615	4.47
867.783	-1.05
867.951	-5.04
868.119	25.06
868.286	0.62
868.454	-57.67
868.622	21.72
868.789	42.11
868.957	-357.14
869.125	-321.05
869.292	109.34
869.46	22.81
869.627	61.71
869.795	42.11
869.963	47.65
870.13	35.48
870.298	59.93
870.465	28.81
870.632	6.58
870.8	34.82
870.967	27.05
871.135	0.7
871.302	11.02
871.469	28.76
871.637	-76.51
871.804	-54.97
871.971	-63.24
872.139	-201.86
872.306	16.45
872.473	15.84
872.64	19.74
872.807	-31.82
872.975	26.22
873.142	-61.82
873.309	297.3
873.476	51.12
873.643	91.5
873.81	54.68
873.977	58.13
874.144	54.69
874.311	-31.53
874.478	-9.49
874.645	-11.76
874.812	11.87
874.979	8.35
875.146	36.15
875.313	-1.91
875.48	28.85
875.647	2.66
875.813	-9.56
875.98	-5.89
876.147	-15.25
876.314	-44.56
876.481	395.87
876.647	-386.52
876.814	95.85
876.981	219.62
877.147	125.13
877.314	86.73
877.481	113.75
877.647	90.62
877.814	41.32
877.98	15.28
878.147	36.59
878.314	41.54
878.48	32.57
878.647	103.13
878.813	100.21
878.979	98.04
879.146	75.62
879.312	67.54
879.479	52.99
879.645	9.15
879.811	-15.77
879.978	76.34
880.144	63.48
880.31	20.75
880.477	-37.99
880.643	-33.45
880.809	60.47
880.975	78.38
881.142	208.18
881.308	103.91
881.474	110.48
881.64	71.26
881.806	82.37
881.972	79.51
882.138	119.25
882.304	144.67
882.47	24.14
882.636	25.41
882.802	13.69
882.968	2.48
883.134	1.31
883.3	6.85
883.466	15.82
883.632	28.19
883.798	28.85
883.964	29.95
884.129	45.67
884.295	16.69
884.461	-9.28
884.627	18.4
884.793	-13.15
884.958	0.79
885.124	-36.23
885.29	-50.2
885.455	-161.17
885.621	2.34
885.787	-42.93
885.952	34.24
886.118	5.64
886.283	-7.16
886.449	-72.54
886.614	-80.71
886.78	-228.08
886.945	1168.85
887.111	-500.58
887.276	-410.23
887.442	-727.27
887.607	-354.72
887.773	-89.49
887.938	-76.5
888.103	-42.41
888.269	58.13
888.434	96.22
888.599	6.64
888.764	63.48
888.93	42.33
889.095	17.02
889.26	21.59
889.425	24.67
889.59	117.34
889.756	111.61
889.921	114.23
890.086	94.88
890.251	111.29
890.416	-13.5
890.581	-303.23
890.746	145.36
890.911	157.96
891.076	88.35
891.241	139.55
891.406	97.59
891.571	83.41
891.736	62.39
891.901	-105.31
892.065	15.38
892.23	87.63
892.395	69.08
892.56	78.61
892.725	207.03
892.889	-436.59
893.054	-3.47
893.219	-1.41
893.384	9.91
893.548	-26.92
893.713	-18.93
893.878	-13.08
