Data from Ofra_PS_T2_1A_0CX05_Reflection_1.txt Node
Date: Wed Jul 21 17:43:38 EDT 2021
User: Adam
Spectrometer: FLMT01687
Trigger mode: 0
Integration Time (sec): 1.100000E0
Scans to average: 2
Electric dark correction enabled: true
Nonlinearity correction enabled: false
Boxcar width: 2
XAxis mode: Wavelengths
Number of Pixels in Spectrum: 3648
>>>>>Begin Spectral Data<<<<<
179.494	733.8
179.716	824.47
179.937	781.91
180.158	765.56
180.38	1377.66
180.601	700.69
180.823	240.73
181.044	170.26
181.265	339.15
181.486	79.42
181.708	90.59
181.929	249.49
182.15	182.75
182.372	242.48
182.593	159.15
182.814	71.9
183.035	53.35
183.257	9.69
183.478	-116.65
183.699	-26.86
183.92	-29.5
184.141	7.08
184.363	-52.48
184.584	-24.07
184.805	-25.18
185.026	18.44
185.247	31.17
185.468	23.23
185.689	43.1
185.91	40.79
186.132	21.02
186.353	0.07
186.574	61.38
186.795	36.79
187.016	-37.95
187.237	-42.83
187.458	-68.28
187.679	-74.11
187.9	-32.54
188.121	16.47
188.342	41.86
188.563	58.02
188.784	78.65
189.005	70.81
189.226	90.06
189.447	84.46
189.667	-88.47
189.888	-335.1
190.109	-1405.52
190.33	-806.61
190.551	-1361.28
190.772	-251.15
190.993	-243.97
191.214	-179.31
191.434	-126.56
191.655	-48.13
191.876	-122.42
192.097	-141.48
192.318	-179.97
192.538	-255.79
192.759	-191.53
192.98	-75.91
193.201	-42.75
193.421	-34.57
193.642	6.02
193.863	22.69
194.083	-0.73
194.304	8.6
194.525	12.25
194.745	12.43
194.966	-28.78
195.187	-47.37
195.407	-82.26
195.628	-164.73
195.848	-208.75
196.069	-200.18
196.29	-115.72
196.51	-120.38
196.731	-85.6
196.951	-81.03
197.172	-110.3
197.392	-155.57
197.613	-127.24
197.833	-186.95
198.054	-162.4
198.274	-94.99
198.495	-114.67
198.715	-104.37
198.936	-115.46
199.156	-97.09
199.377	-222.53
199.597	-183.51
199.817	-155.61
200.038	-63.81
200.258	-135
200.479	-40.52
200.699	-47.04
200.919	10.92
201.14	-39.75
201.36	-48.59
201.58	2.84
201.801	40.79
202.021	-6.6
202.241	2.46
202.461	14.7
202.682	-64.53
202.902	-168.25
203.122	-100.03
203.342	-102.43
203.563	-54.01
203.783	-17.41
204.003	-37.12
204.223	-19.11
204.443	43.38
204.663	15.73
204.884	26.13
205.104	56.46
205.324	64.18
205.544	37.46
205.764	57.53
205.984	64.02
206.204	56.84
206.424	46.18
206.644	23.35
206.864	24.1
207.084	-79.56
207.304	-79.01
207.525	-237.89
207.745	-115.24
207.964	-38.47
208.184	-43.58
208.404	-104.11
208.624	-91.87
208.844	-97.79
209.064	-420.79
209.284	-423.38
209.504	-170.97
209.724	-47.05
209.944	-13.38
210.164	24.3
210.384	24.82
210.604	16.01
210.823	-42.53
211.043	-77.98
211.263	-72.08
211.483	-69.28
211.703	-112.08
211.922	-100.85
212.142	-20.89
212.362	-10.18
212.582	-24.01
212.801	-25.2
213.021	-26.67
213.241	-67.99
213.461	-97.53
213.68	-131.68
213.9	-104.12
214.12	-86.64
214.339	-140.53
214.559	-93.37
214.779	-25.3
214.998	-17.67
215.218	-50.72
215.438	-17.24
215.657	-22.67
215.877	-46.34
216.096	-27.28
216.316	-9.67
216.535	-24.32
216.755	-52.03
216.974	-149.67
217.194	-183.83
217.413	-184.31
217.633	-173.3
217.852	-290.07
218.072	-134.88
218.291	-78.18
218.511	-30.61
218.73	-60.5
218.95	-41
219.169	-36.5
219.389	-95.13
219.608	-72.05
219.827	-63.04
220.047	-49.54
220.266	-45.81
220.485	-41.4
220.705	-41.11
220.924	-56.08
221.143	-5.26
221.363	-18.5
221.582	2.08
221.801	2.98
222.021	41.21
222.24	-22.94
222.459	2.71
222.678	-36.67
222.897	-111.43
223.117	-190.5
223.336	-154.15
223.555	-104.34
223.774	-35.18
223.993	-38.05
224.213	46.21
224.432	12.51
224.651	23.52
224.87	-25.34
225.089	6.4
225.308	-0.48
225.527	27.99
225.746	27.18
225.965	25.58
226.184	2.02
226.404	-2.84
226.623	-40.7
226.842	-31.56
227.061	4.51
227.28	18.18
227.499	-0.13
227.718	31.47
227.936	23.33
228.155	37.7
228.374	8.58
228.593	31.7
228.812	20.11
229.031	-0.57
229.25	-75.62
229.469	-64.41
229.688	-97.62
229.907	-57.75
230.125	-34.99
230.344	-20.86
230.563	-6.74
230.782	17.46
231.001	-49.32
231.22	-25.84
231.438	26.96
231.657	23.75
231.876	11.48
232.095	41.96
232.313	45.26
232.532	25.86
232.751	-29.67
232.969	-49.08
233.188	-115.57
233.407	-26.08
233.625	-4.92
233.844	-13.4
234.063	15.07
234.281	29.54
234.5	-0.15
234.719	-5.44
234.937	21.13
235.156	8.59
235.374	4.45
235.593	0.05
235.811	-32.25
236.03	-42.33
236.249	-80.97
236.467	-73.62
236.686	-27.54
236.904	-8.09
237.123	-28.45
237.341	-10.66
237.559	-4.91
237.778	-32.71
237.996	-61.53
238.215	-14.08
238.433	-13.93
238.652	-22.72
238.87	-51.25
239.088	-23.34
239.307	-21.75
239.525	-40.85
239.743	-70.5
239.962	-34.59
240.18	-67.88
240.398	-142.96
240.617	-121.95
240.835	-104.69
241.053	-90.87
241.271	-44.25
241.49	-6.47
241.708	-42.82
241.926	-37.26
242.144	-25.25
242.363	-80.23
242.581	-95.2
242.799	-22.11
243.017	-5.16
243.235	-27.19
243.453	-5.66
243.672	-1.36
243.89	-27.41
244.108	-48.99
244.326	-25.94
244.544	-24.29
244.762	-27.24
244.98	-13.85
245.198	-2.23
245.416	-31.88
245.634	-32.26
245.852	-38.34
246.07	-47.89
246.288	-34.82
246.506	-62.17
246.724	-49.34
246.942	-31.8
247.16	17.51
247.378	26.3
247.596	62.8
247.814	66.84
248.032	38.79
248.25	7.04
248.468	-10.44
248.685	-15.62
248.903	3.63
249.121	9.42
249.339	-27.7
249.557	-25.86
249.775	-25.23
249.992	-97.42
250.21	-91.79
250.428	-52.2
250.646	-84.2
250.863	-99.38
251.081	-55.84
251.299	-64.74
251.517	-62.07
251.734	-34.75
251.952	-44.97
252.17	-37.31
252.387	-25.54
252.605	-35.96
252.823	-37.83
253.04	-12.09
253.258	5.84
253.475	5.62
253.693	34.08
253.911	35.94
254.128	34.99
254.346	36.72
254.563	15.84
254.781	-7.45
254.998	-39.58
255.216	-47.36
255.433	-47.37
255.651	-9.44
255.868	13.84
256.086	52.86
256.303	38.71
256.521	19.15
256.738	-0.29
256.956	-34.31
257.173	-55.22
257.39	-73.06
257.608	-90.71
257.825	-37.93
258.043	-1.62
258.26	8.3
258.477	61.36
258.695	58.57
258.912	-5.48
259.129	-1.75
259.346	-37.87
259.564	-99.78
259.781	-125.12
259.998	-30.43
260.216	-10.73
260.433	13.03
260.65	29.13
260.867	52.71
261.084	20.66
261.302	1.85
261.519	-5.23
261.736	-45.31
261.953	-61.24
262.17	-38.07
262.387	-67.73
262.604	-87.87
262.822	-83.76
263.039	-72.68
263.256	-86.8
263.473	-46.34
263.69	-30.69
263.907	-0.42
264.124	-4.93
264.341	-1.02
264.558	-1.33
264.775	21.98
264.992	16.12
265.209	22.35
265.426	29.58
265.643	24.65
265.86	20.32
266.077	26.56
266.294	6.05
266.51	-30.43
266.727	-52.4
266.944	-57.37
267.161	-71.49
267.378	-75.23
267.595	-52.09
267.812	-63.36
268.028	-84.62
268.245	-47.52
268.462	-52.55
268.679	-44.85
268.896	13
269.112	17.12
269.329	12.26
269.546	31.17
269.763	8.77
269.979	-24.45
270.196	-28.25
270.413	-57.07
270.629	-97.48
270.846	-98.17
271.063	-81.15
271.279	-85.82
271.496	-85.69
271.712	-33.24
271.929	5.46
272.146	-24.69
272.362	-25.02
272.579	9.55
272.795	17
273.012	8.07
273.228	22.7
273.445	10.42
273.661	-14.48
273.878	-81.5
274.094	-74
274.311	-112.63
274.527	-42.18
274.744	-46.37
274.96	-33.37
275.177	-22.25
275.393	19.19
275.609	14.58
275.826	39.58
276.042	25.74
276.259	13.59
276.475	17.62
276.691	20.11
276.908	-6.37
277.124	19.84
277.34	25.58
277.557	7.86
277.773	-9.76
277.989	-4.18
278.205	-11.48
278.422	3.92
278.638	14.87
278.854	36.54
279.07	39.06
279.286	21.15
279.503	-21.44
279.719	-48.16
279.935	-62.3
280.151	-66.5
280.367	-30.3
280.583	-37.35
280.799	-30.4
281.016	-56.95
281.232	-16.42
281.448	-20
281.664	4.34
281.88	-7
282.096	7.01
282.312	15.19
282.528	34.33
282.744	34.89
282.96	25.43
283.176	19.65
283.392	12.33
283.608	4.11
283.824	-2.59
284.04	12.16
284.256	13.4
284.471	-7.76
284.687	-29.9
284.903	-3.36
285.119	5.68
285.335	-27.56
285.551	-12.57
285.767	-11.5
285.982	-25.07
286.198	-67.15
286.414	8.14
286.63	9.03
286.846	25.88
287.061	0.48
287.277	30.71
287.493	-0.54
287.709	7.45
287.924	-11.82
288.14	27.22
288.356	22.1
288.571	41.07
288.787	17.2
289.003	25.65
289.218	6.11
289.434	-33.16
289.65	-24.56
289.865	-13.81
290.081	-1.55
290.296	1.77
290.512	14.87
290.727	-22.19
290.943	-36.25
291.159	-33.17
291.374	-33.52
291.59	-45.22
291.805	-37.11
292.021	-23.95
292.236	-25.57
292.451	-4.63
292.667	5
292.882	19.95
293.098	13.19
293.313	-17.82
293.529	-53.6
293.744	-69.95
293.959	-66.22
294.175	-55.03
294.39	-21.08
294.605	1.22
294.821	19.34
295.036	18.97
295.251	27.62
295.467	3.29
295.682	-13.88
295.897	-50.99
296.112	-76.21
296.328	-69.85
296.543	-61.42
296.758	-66.5
296.973	-24.38
297.188	32.73
297.404	4.38
297.619	-11.13
297.834	-21.45
298.049	-26.06
298.264	-79.92
298.479	-9.14
298.694	4.05
298.909	19.7
299.125	18.24
299.34	29.38
299.555	-15.55
299.77	-3.24
299.985	-49.72
300.2	-104.17
300.415	-124.15
300.63	-97.94
300.845	-105.43
301.06	-91.84
301.275	-35.88
301.49	-19.63
301.704	-20.39
301.919	-43.89
302.134	-57.31
302.349	-76.06
302.564	-146.39
302.779	-184.02
302.994	-131.54
303.209	-71.95
303.423	-9.23
303.638	53.2
303.853	8.53
304.068	-5.88
304.283	-3.43
304.497	-26.76
304.712	-40.66
304.927	-12.34
305.142	-21.85
305.356	-16.07
305.571	-11.45
305.786	-32.2
306	-51.73
306.215	-20.58
306.43	-38.14
306.644	-17.99
306.859	51.36
307.074	42.07
307.288	-15.82
307.503	-37.21
307.717	-52.36
307.932	-69.32
308.147	-67.6
308.361	-28.67
308.576	-31
308.79	-73.75
309.005	-68.03
309.219	-52.39
309.434	-58.59
309.648	-50.9
309.863	-16.64
310.077	-9.64
310.292	-18.52
310.506	-29.33
310.72	-6.42
310.935	9.19
311.149	-1.13
311.364	14.8
311.578	21.72
311.792	9.67
312.007	0.84
312.221	-16.42
312.435	-15.07
312.649	-29.6
312.864	-60.77
313.078	-68.62
313.292	-12.03
313.507	-57.54
313.721	-57.7
313.935	0.42
314.149	6.57
314.363	4.74
314.578	1.61
314.792	2.67
315.006	-5.58
315.22	7.17
315.434	4.01
315.648	19.5
315.862	10.33
316.077	13.26
316.291	-9.55
316.505	-6.97
316.719	-35.67
316.933	-34.87
317.147	-39.1
317.361	-90.33
317.575	-114.11
317.789	-146.85
318.003	-215.06
318.217	-159.36
318.431	-39.01
318.645	9.16
318.859	4.37
319.073	35.6
319.287	20.19
319.5	-19.65
319.714	-65.57
319.928	-77.91
320.142	-90.21
320.356	-47.71
320.57	-11.63
320.784	-31.32
320.997	-34.99
321.211	-37.96
321.425	-93.8
321.639	-127.08
321.853	-58.44
322.066	-39.84
322.28	-42.77
322.494	-39.22
322.707	-12.15
322.921	-31.04
323.135	-27.96
323.349	-12.96
323.562	-20.12
323.776	-32.67
323.989	-33.15
324.203	-63.16
324.417	-70.59
324.63	-79.75
324.844	-87.41
325.057	-71.13
325.271	-36.41
325.485	-14.3
325.698	5.02
325.912	30.68
326.125	9.44
326.339	14.27
326.552	-13.85
326.766	-13.24
326.979	-11.95
327.193	21.33
327.406	5.93
327.619	10.52
327.833	18.33
328.046	-10.62
328.26	-46.47
328.473	-31.88
328.686	-72.63
328.9	-66.93
329.113	-33.57
329.326	-55.57
329.54	-36.35
329.753	-42.07
329.966	-97.12
330.179	-92.95
330.393	-48.72
330.606	-46.7
330.819	-7.17
331.032	19.65
331.246	17.17
331.459	50.97
331.672	41.82
331.885	14.89
332.098	-2.24
332.311	-6.61
332.525	-78.95
332.738	-57.46
332.951	8.34
333.164	31.82
333.377	28.79
333.59	39.72
333.803	34.58
334.016	13.16
334.229	-3.71
334.442	7.82
334.655	41.11
334.868	48.54
335.081	43.42
335.294	32.37
335.507	6.11
335.72	-24.12
335.933	-34.96
336.146	-50.36
336.359	-53.99
336.572	-65.44
336.785	-94.16
336.997	-86.77
337.21	-62.52
337.423	-61.66
337.636	-50.95
337.849	-19.17
338.062	-28.27
338.274	-19.06
338.487	-30.18
338.7	-28.94
338.913	-82.11
339.125	-112.53
339.338	-167.34
339.551	-109.92
339.763	-78.25
339.976	-25.34
340.189	18.03
340.402	27.77
340.614	7.3
340.827	-1.08
341.039	-18.42
341.252	-20.94
341.465	-12.82
341.677	-19.28
341.89	-51.98
342.102	-33.83
342.315	-58.68
342.527	-101.67
342.74	-80.62
342.952	-36.69
343.165	-40.01
343.377	8.26
343.59	12.93
343.802	22.54
344.015	35.66
344.227	60.28
344.44	20.77
344.652	14.35
344.864	-10.38
345.077	1.61
345.289	-2.82
345.502	11.62
345.714	7.13
345.926	24.84
346.139	11.85
346.351	27.57
346.563	24.75
346.775	33.89
346.988	18.99
347.2	2.57
347.412	-58.76
347.624	-85.69
347.837	-102.95
348.049	-85.76
348.261	-39.32
348.473	-20.08
348.685	-21.93
348.897	-19.69
349.11	-25.83
349.322	-57.59
349.534	-17.85
349.746	-12.86
349.958	-22.18
350.17	-41.76
350.382	-23.85
350.594	-38.8
350.806	-44.09
351.018	-30.92
351.23	-39.69
351.442	-71.6
351.654	-82.53
351.866	-56.04
352.078	-44.74
352.29	-8.26
352.502	12.18
352.714	25.52
352.926	10.11
353.138	5.5
353.35	0.52
353.561	-1.02
353.773	-32.56
353.985	-9.3
354.197	-17.66
354.409	-36.49
354.621	-46.53
354.832	-29.29
355.044	-43.58
355.256	-49.51
355.468	-28.82
355.679	-21.72
355.891	-12.99
356.103	-37.62
356.314	-7.08
356.526	-3.22
356.738	-5.01
356.949	-15.23
357.161	5.55
357.373	-19.62
357.584	-31.9
357.796	-19.17
358.008	-25.21
358.219	0.71
358.431	11.76
358.642	20.29
358.854	12.01
359.065	3.21
359.277	-35.58
359.488	-51.41
359.7	-79.01
359.911	-95.49
360.123	-60.33
360.334	-70.75
360.546	-93.94
360.757	-79.89
360.969	-54.1
361.18	-43.5
361.391	-18.46
361.603	-14.51
361.814	-0.32
362.025	-15.23
362.237	-26.55
362.448	-9.71
362.659	5.93
362.871	-4.91
363.082	-4.95
363.293	-8.3
363.504	-30.27
363.716	-55.76
363.927	-68.44
364.138	-101.1
364.349	-111.6
364.56	-91.91
364.772	-68.33
364.983	-34.19
365.194	-21.43
365.405	0.48
365.616	35.03
365.827	30.58
366.038	2.23
366.25	2.64
366.461	-39.16
366.672	-46.74
366.883	-26.02
367.094	-11.63
367.305	-21.38
367.516	-16.76
367.727	-56.22
367.938	-80.92
368.149	-79.53
368.36	-56.86
368.571	-43.36
368.781	-54.5
368.992	-57.1
369.203	-73.56
369.414	-90.03
369.625	-95.71
369.836	-67.6
370.047	-84.3
370.258	-80.3
370.468	-78.42
370.679	-95.42
370.89	-95.27
371.101	-65.34
371.312	-66.9
371.522	-65.47
371.733	-43.96
371.944	-32.65
372.155	-29.85
372.365	-28.44
372.576	-33.23
372.787	-39.66
372.997	-61.51
373.208	-64.05
373.419	-26.17
373.629	-46.8
373.84	-42.13
374.05	-45.75
374.261	-33.25
374.472	-67.41
374.682	-8.03
374.893	2.36
375.103	29.01
375.314	18.27
375.524	18.21
375.735	9.72
375.945	10.75
376.156	-20.1
376.366	-4.67
376.577	4.6
376.787	-5.55
376.997	-1.73
377.208	5.57
377.418	-25.01
377.629	-24.21
377.839	-27.69
378.049	-26.81
378.26	-3.96
378.47	9.18
378.68	2.4
378.89	2.23
379.101	-12.71
379.311	-50.96
379.521	-70.2
379.732	-74.45
379.942	-71.17
380.152	-88.46
380.362	-50.36
380.572	-48.55
380.783	-36.82
380.993	-20
381.203	-2.72
381.413	11.05
381.623	14.91
381.833	14.48
382.043	-5.4
382.253	-6.44
382.463	-13.37
382.674	-21.97
382.884	-40.68
383.094	-35.43
383.304	-24.21
383.514	-17.58
383.724	-0.66
383.934	1.09
384.144	-7.17
384.353	-24.73
384.563	-31.67
384.773	-29.34
384.983	-35.81
385.193	-16.83
385.403	-6.74
385.613	-6.66
385.823	-21.98
386.033	-9.11
386.242	-16.04
386.452	-17.04
386.662	-24.35
386.872	-5.38
387.082	-11.92
387.291	-18.86
387.501	-26.8
387.711	-16.87
387.921	-28.39
388.13	-29.24
388.34	-12.11
388.55	-11.47
388.759	-15.32
388.969	-9.96
389.179	-9.29
389.388	-14.05
389.598	-9.94
389.807	-14.59
390.017	-18.69
390.227	-15.54
390.436	-17.9
390.646	-15.53
390.855	-9.46
391.065	-8.54
391.274	-13.02
391.484	-13.9
391.693	-12.89
391.903	-12.85
392.112	-6.09
392.322	-0.42
392.531	3.54
392.74	4.43
392.95	-0.25
393.159	-2.59
393.369	-2.36
393.578	-4.75
393.787	-6.35
393.997	-3.51
394.206	-4.61
394.415	-4.76
394.625	-3.43
394.834	-4.82
395.043	-4.75
395.252	-1.88
395.462	0.43
395.671	2.68
395.88	3.71
396.089	5.19
396.298	2.4
396.508	1.16
396.717	-0.33
396.926	-0.57
397.135	-0.57
397.344	-0.91
397.553	-0.27
397.762	1.41
397.971	2.04
398.181	1.72
398.39	1.84
398.599	1.05
398.808	0.1
399.017	1.06
399.226	2.61
399.435	4.03
399.644	4.07
399.853	3.49
400.062	2.77
400.27	2.11
400.479	1.35
400.688	0.78
400.897	0.92
401.106	0.96
401.315	0.43
401.524	0.38
401.733	1.38
401.941	1.76
402.15	1.83
402.359	1.81
402.568	2.31
402.777	1.97
402.985	1.79
403.194	1.56
403.403	1.59
403.612	1.17
403.82	1.02
404.029	1.18
404.238	1.1
404.446	1.41
404.655	1.39
404.864	1.39
405.072	1.1
405.281	1.54
405.489	1.17
405.698	1.16
405.906	1.09
406.115	1.14
406.324	0.91
406.532	1.08
406.741	1.41
406.949	1.56
407.158	1.64
407.366	1.67
407.574	1.67
407.783	1.52
407.991	1.34
408.2	1.63
408.408	1.69
408.617	1.65
408.825	1.5
409.033	1.68
409.242	1.59
409.45	1.67
409.658	1.57
409.867	1.79
410.075	1.65
410.283	1.4
410.491	1.32
410.7	1.23
410.908	1.29
411.116	1.59
411.324	1.64
411.533	1.53
411.741	1.79
411.949	1.7
412.157	1.36
412.365	1.41
412.573	1.54
412.781	1.55
412.99	1.46
413.198	1.69
413.406	1.68
413.614	1.68
413.822	1.53
414.03	1.5
414.238	1.34
414.446	1.33
414.654	1.03
414.862	1.16
415.07	1.26
415.278	1.43
415.486	1.29
415.694	1.56
415.902	1.47
416.109	1.24
416.317	1.26
416.525	1.19
416.733	1.12
416.941	1.23
417.149	1.28
417.357	1.2
417.564	1.53
417.772	1.85
417.98	1.68
418.188	1.78
418.395	1.77
418.603	1.77
418.811	1.23
419.019	1.23
419.226	1.37
419.434	1.44
419.642	1.17
419.849	1.4
420.057	1.43
420.265	1.37
420.472	1.13
420.68	1.33
420.887	1.35
421.095	1.38
421.302	1.31
421.51	1.6
421.717	1.63
421.925	1.55
422.132	1.43
422.34	1.18
422.547	1.03
422.755	0.91
422.962	0.86
423.17	0.84
423.377	1.06
423.585	1.07
423.792	0.99
423.999	1.01
424.207	1
424.414	1.2
424.621	1.21
424.829	1.21
425.036	1.28
425.243	1.41
425.451	1.14
425.658	0.96
425.865	1.19
426.072	1.16
426.28	1.39
426.487	1.4
426.694	1.53
426.901	1.24
427.108	1.26
427.315	0.99
427.523	1.33
427.73	1.38
427.937	1.37
428.144	1.21
428.351	1.25
428.558	1.22
428.765	1.08
428.972	1.07
429.179	1.22
429.386	1.47
429.593	1.1
429.8	1.04
430.007	1.15
430.214	1.26
430.421	0.96
430.628	0.88
430.835	0.75
431.042	0.95
431.249	0.96
431.456	1.01
431.662	1.19
431.869	1.46
432.076	1.33
432.283	1.42
432.49	1.42
432.697	1.45
432.903	1.16
433.11	1.14
433.317	1.22
433.524	1.47
433.73	1.38
433.937	1.74
434.144	1.59
434.35	1.43
434.557	1.16
434.764	1.12
434.97	0.97
435.177	1.22
435.384	1.19
435.59	1.33
435.797	1.56
436.003	1.66
436.21	1.62
436.416	1.69
436.623	1.55
436.829	1.61
437.036	1.65
437.242	1.64
437.449	1.61
437.655	1.65
437.862	1.55
438.068	1.45
438.275	1.48
438.481	1.7
438.687	1.67
438.894	1.61
439.1	1.62
439.307	1.79
439.513	1.62
439.719	1.68
439.926	1.87
440.132	1.81
440.338	1.66
440.544	1.72
440.751	1.66
440.957	1.69
441.163	1.61
441.369	1.66
441.575	1.41
441.782	1.37
441.988	1.18
442.194	1.28
442.4	1.18
442.606	1.58
442.812	1.74
443.018	1.91
443.224	1.95
443.431	2.14
443.637	1.85
443.843	1.71
444.049	1.62
444.255	1.59
444.461	1.57
444.667	1.54
444.873	1.76
445.079	1.71
445.284	1.8
445.49	1.58
445.696	1.51
445.902	1.4
446.108	1.31
446.314	1.14
446.52	1.2
446.726	1.4
446.931	1.32
447.137	1.43
447.343	1.51
447.549	1.44
447.755	1.31
447.96	1.35
448.166	1.3
448.372	1.29
448.578	1.34
448.783	1.36
448.989	1.49
449.195	1.75
449.4	1.76
449.606	1.76
449.812	1.71
450.017	1.67
450.223	1.48
450.428	1.42
450.634	1.58
450.84	1.79
451.045	1.69
451.251	1.63
451.456	1.91
451.662	1.94
451.867	1.95
452.073	1.86
452.278	1.95
452.483	1.86
452.689	1.72
452.894	1.7
453.1	1.82
453.305	1.74
453.51	1.71
453.716	1.61
453.921	1.61
454.127	1.52
454.332	1.52
454.537	1.46
454.742	1.55
454.948	1.52
455.153	1.59
455.358	1.7
455.563	1.91
455.769	2.05
455.974	1.97
456.179	1.9
456.384	1.87
456.589	1.75
456.795	1.49
457	1.5
457.205	1.74
457.41	1.64
457.615	1.59
457.82	1.72
458.025	1.79
458.23	1.62
458.435	1.72
458.64	1.56
458.845	1.74
459.05	1.62
459.255	1.63
459.46	1.58
459.665	1.74
459.87	1.63
460.075	1.7
460.28	1.73
460.485	1.85
460.69	1.86
460.895	1.68
461.099	1.69
461.304	1.84
461.509	1.82
461.714	1.72
461.919	1.97
462.123	1.86
462.328	1.85
462.533	1.71
462.738	1.84
462.942	1.69
463.147	1.83
463.352	1.81
463.556	1.94
463.761	1.91
463.966	1.93
464.17	1.92
464.375	1.77
464.58	1.74
464.784	1.71
464.989	1.65
465.193	1.64
465.398	1.7
465.602	1.84
465.807	1.76
466.011	1.89
466.216	1.88
466.42	1.92
466.625	1.84
466.829	1.98
467.034	1.96
467.238	2.14
467.443	2.02
467.647	1.94
467.851	1.97
468.056	2.08
468.26	1.95
468.464	2.07
468.669	2.15
468.873	2.37
469.077	2.29
469.282	2.34
469.486	2.36
469.69	2.36
469.894	2.07
470.099	2.17
470.303	2.26
470.507	2.14
470.711	2.08
470.915	2.08
471.119	2
471.324	1.93
471.528	1.99
471.732	2.04
471.936	2.07
472.14	2.12
472.344	2.11
472.548	2.18
472.752	2.37
472.956	2.58
473.16	2.55
473.364	2.46
473.568	2.43
473.772	2.34
473.976	2.19
474.18	2.2
474.384	2.3
474.588	2.24
474.792	2.15
474.995	2.24
475.199	2.33
475.403	2.39
475.607	2.5
475.811	2.45
476.015	2.48
476.218	2.44
476.422	2.33
476.626	2.36
476.83	2.54
477.033	2.48
477.237	2.37
477.441	2.49
477.644	2.47
477.848	2.38
478.052	2.33
478.255	2.38
478.459	2.35
478.663	2.49
478.866	2.55
479.07	2.63
479.273	2.83
479.477	2.88
479.681	2.8
479.884	2.76
480.088	2.71
480.291	2.56
480.495	2.51
480.698	2.51
480.901	2.59
481.105	2.74
481.308	2.72
481.512	2.72
481.715	2.74
481.919	2.74
482.122	2.66
482.325	2.68
482.529	2.68
482.732	2.67
482.935	2.57
483.138	2.55
483.342	2.64
483.545	2.76
483.748	2.73
483.952	2.84
484.155	2.97
484.358	3.02
484.561	2.92
484.764	2.93
484.967	2.97
485.171	3
485.374	2.92
485.577	3.06
485.78	3.09
485.983	3.08
486.186	2.95
486.389	2.94
486.592	2.83
486.795	2.95
486.998	2.94
487.201	3.01
487.404	3.1
487.607	3.16
487.81	3.09
488.013	3.14
488.216	3.09
488.419	3.05
488.622	3.05
488.825	3
489.028	2.92
489.231	2.91
489.433	2.82
489.636	2.74
489.839	2.72
490.042	2.66
490.245	2.64
490.447	2.74
490.65	2.74
490.853	2.75
491.056	2.83
491.258	2.9
491.461	2.89
491.664	2.99
491.866	2.96
492.069	3.04
492.272	2.96
492.474	2.99
492.677	3.01
492.879	3.06
493.082	3.09
493.285	3.3
493.487	3.27
493.69	3.13
493.892	3.09
494.095	3.04
494.297	2.93
494.5	2.95
494.702	2.99
494.905	3.08
495.107	3.03
495.309	3.04
495.512	3.11
495.714	3.17
495.917	3.18
496.119	3.2
496.321	3.28
496.524	3.25
496.726	3.27
496.928	3.3
497.13	3.31
497.333	3.25
497.535	3.29
497.737	3.27
497.939	3.25
498.142	3.3
498.344	3.27
498.546	3.17
498.748	3.21
498.95	3.26
499.152	3.26
499.355	3.27
499.557	3.38
499.759	3.45
499.961	3.4
500.163	3.45
500.365	3.51
500.567	3.57
500.769	3.44
500.971	3.48
501.173	3.35
501.375	3.32
501.577	3.18
501.779	3.25
501.981	3.28
502.183	3.33
502.385	3.31
502.587	3.26
502.788	3.32
502.99	3.32
503.192	3.43
503.394	3.49
503.596	3.59
503.798	3.64
503.999	3.66
504.201	3.55
504.403	3.54
504.605	3.55
504.806	3.45
505.008	3.45
505.21	3.56
505.411	3.58
505.613	3.6
505.815	3.68
506.016	3.74
506.218	3.79
506.42	3.77
506.621	3.77
506.823	3.78
507.024	3.68
507.226	3.63
507.427	3.64
507.629	3.66
507.83	3.69
508.032	3.71
508.233	3.81
508.435	3.86
508.636	3.93
508.838	3.87
509.039	3.91
509.24	3.83
509.442	3.85
509.643	3.76
509.845	3.83
510.046	3.89
510.247	3.96
510.448	3.96
510.65	4.02
510.851	4.13
511.052	4.1
511.254	4.04
511.455	4.15
511.656	4.29
511.857	4.26
512.058	4.27
512.26	4.32
512.461	4.27
512.662	4.2
512.863	4.11
513.064	4.08
513.265	4.08
513.466	4.13
513.667	4.09
513.868	4.15
514.069	4.3
514.27	4.41
514.471	4.35
514.672	4.38
514.873	4.39
515.074	4.39
515.275	4.28
515.476	4.31
515.677	4.35
515.878	4.48
516.079	4.38
516.28	4.4
516.481	4.51
516.682	4.5
516.882	4.37
517.083	4.42
517.284	4.4
517.485	4.3
517.686	4.27
517.886	4.29
518.087	4.28
518.288	4.35
518.488	4.36
518.689	4.4
518.89	4.39
519.091	4.42
519.291	4.41
519.492	4.45
519.692	4.5
519.893	4.59
520.094	4.6
520.294	4.59
520.495	4.59
520.695	4.59
520.896	4.57
521.096	4.57
521.297	4.59
521.497	4.66
521.698	4.64
521.898	4.63
522.099	4.65
522.299	4.79
522.499	4.76
522.7	4.8
522.9	4.76
523.101	4.79
523.301	4.74
523.501	4.72
523.702	4.7
523.902	4.79
524.102	4.83
524.302	4.77
524.503	4.86
524.703	4.86
524.903	4.89
525.103	4.79
525.304	4.97
525.504	5.01
525.704	5.12
525.904	5.13
526.104	5.17
526.304	5.08
526.504	5.07
526.705	5.06
526.905	5.11
527.105	5.11
527.305	5.08
527.505	5.03
527.705	4.99
527.905	5
528.105	5.06
528.305	5.09
528.505	5.1
528.705	5.22
528.905	5.15
529.105	5.14
529.304	5.17
529.504	5.28
529.704	5.2
529.904	5.25
530.104	5.28
530.304	5.43
530.503	5.35
530.703	5.32
530.903	5.29
531.103	5.34
531.303	5.19
531.502	5.25
531.702	5.35
531.902	5.4
532.101	5.35
532.301	5.39
532.501	5.4
532.7	5.36
532.9	5.38
533.1	5.43
533.299	5.45
533.499	5.46
533.698	5.48
533.898	5.46
534.097	5.47
534.297	5.51
534.496	5.49
534.696	5.53
534.895	5.68
535.095	5.76
535.294	5.73
535.494	5.73
535.693	5.74
535.892	5.72
536.092	5.68
536.291	5.71
536.491	5.85
536.69	5.85
536.889	5.76
537.088	5.75
537.288	5.83
537.487	5.85
537.686	5.87
537.886	5.98
538.085	6.06
538.284	6.14
538.483	6.07
538.682	6.18
538.882	6.2
539.081	6.25
539.28	6.14
539.479	6.18
539.678	6.13
539.877	6.23
540.076	6.19
540.275	6.27
540.474	6.34
540.673	6.38
540.872	6.33
541.071	6.42
541.27	6.43
541.469	6.49
541.668	6.49
541.867	6.51
542.066	6.55
542.265	6.57
542.464	6.49
542.663	6.6
542.862	6.69
543.06	6.77
543.259	6.84
543.458	6.94
543.657	6.93
543.856	7.02
544.054	6.96
544.253	6.9
544.452	6.94
544.651	7.04
544.849	6.96
545.048	7.09
545.247	7.19
545.445	7.31
545.644	7.32
545.843	7.35
546.041	7.36
546.24	7.48
546.438	7.51
546.637	7.5
546.836	7.69
547.034	7.75
547.233	7.72
547.431	7.68
547.63	7.81
547.828	7.79
548.027	7.8
548.225	7.84
548.423	7.91
548.622	7.95
548.82	7.95
549.019	8.03
549.217	8.16
549.415	8.23
549.614	8.32
549.812	8.36
550.01	8.34
550.209	8.35
550.407	8.44
550.605	8.41
550.803	8.54
551.002	8.7
551.2	8.75
551.398	8.84
551.596	9.02
551.794	9.11
551.993	9.13
552.191	9.23
552.389	9.36
552.587	9.42
552.785	9.45
552.983	9.55
553.181	9.65
553.379	9.65
553.577	9.67
553.775	9.78
553.973	9.86
554.171	9.91
554.369	9.88
554.567	9.93
554.765	9.96
554.963	10.03
555.161	10.07
555.359	10.22
555.557	10.34
555.755	10.42
555.952	10.53
556.15	10.66
556.348	10.7
556.546	10.82
556.744	10.92
556.941	10.93
557.139	10.99
557.337	11.12
557.535	11.1
557.732	11.17
557.93	11.37
558.128	11.37
558.325	11.48
558.523	11.57
558.721	11.73
558.918	11.73
559.116	11.91
559.313	11.92
559.511	12.07
559.708	12.05
559.906	12.12
560.104	12.22
560.301	12.37
560.498	12.47
560.696	12.61
560.893	12.73
561.091	12.81
561.288	12.93
561.486	12.98
561.683	13.12
561.88	13.23
562.078	13.34
562.275	13.39
562.473	13.48
562.67	13.59
562.867	13.72
563.064	13.78
563.262	13.84
563.459	13.97
563.656	14.08
563.853	14.11
564.051	14.18
564.248	14.3
564.445	14.39
564.642	14.41
564.839	14.52
565.036	14.78
565.234	14.95
565.431	15.02
565.628	15.15
565.825	15.27
566.022	15.27
566.219	15.33
566.416	15.39
566.613	15.46
566.81	15.55
567.007	15.52
567.204	15.52
567.401	15.58
567.598	15.59
567.795	15.52
567.991	15.6
568.188	15.74
568.385	15.89
568.582	15.98
568.779	16.2
568.976	16.32
569.172	16.44
569.369	16.37
569.566	16.45
569.763	16.49
569.96	16.52
570.156	16.48
570.353	16.49
570.55	16.54
570.746	16.61
570.943	16.69
571.14	16.72
571.336	16.92
571.533	17.02
571.729	17.01
571.926	17.06
572.123	17.24
572.319	17.24
572.516	17.21
572.712	17.22
572.909	17.24
573.105	17.24
573.302	17.28
573.498	17.42
573.695	17.49
573.891	17.6
574.087	17.58
574.284	17.59
574.48	17.46
574.677	17.47
574.873	17.47
575.069	17.51
575.266	17.53
575.462	17.57
575.658	17.7
575.854	17.73
576.051	17.79
576.247	17.76
576.443	17.8
576.639	17.71
576.835	17.65
577.032	17.57
577.228	17.68
577.424	17.77
577.62	17.74
577.816	17.76
578.012	17.83
578.208	17.79
578.404	17.77
578.6	17.83
578.796	17.94
578.993	17.94
579.189	17.95
579.384	17.8
579.58	17.67
579.776	17.58
579.972	17.56
580.168	17.56
580.364	17.6
580.56	17.69
580.756	17.68
580.952	17.62
581.148	17.62
581.343	17.7
581.539	17.73
581.735	17.71
581.931	17.82
582.127	17.77
582.322	17.7
582.518	17.67
582.714	17.62
582.909	17.59
583.105	17.57
583.301	17.56
583.496	17.59
583.692	17.61
583.888	17.53
584.083	17.58
584.279	17.65
584.474	17.64
584.67	17.72
584.866	17.75
585.061	17.66
585.257	17.72
585.452	17.65
585.648	17.56
585.843	17.63
586.039	17.69
586.234	17.64
586.429	17.58
586.625	17.65
586.82	17.59
587.015	17.56
587.211	17.39
587.406	17.46
587.601	17.34
587.797	17.32
587.992	17.3
588.187	17.47
588.383	17.48
588.578	17.5
588.773	17.52
588.968	17.59
589.163	17.59
589.359	17.62
589.554	17.7
589.749	17.71
589.944	17.66
590.139	17.62
590.334	17.65
590.529	17.63
590.724	17.74
590.919	17.77
591.114	17.82
591.309	17.86
591.504	18.03
591.699	17.99
591.894	18.1
592.089	18.18
592.284	18.21
592.479	18.22
592.674	18.15
592.869	18.2
593.064	18.26
593.259	18.39
593.454	18.45
593.648	18.58
593.843	18.65
594.038	18.65
594.233	18.62
594.428	18.56
594.622	18.6
594.817	18.77
595.012	18.8
595.206	18.72
595.401	18.79
595.596	18.9
595.79	18.89
595.985	19.06
596.18	19.21
596.374	19.32
596.569	19.35
596.763	19.34
596.958	19.34
597.153	19.53
597.347	19.53
597.542	19.7
597.736	19.68
597.931	19.75
598.125	19.74
598.319	19.96
598.514	19.92
598.708	20.13
598.903	20.19
599.097	20.2
599.291	20.19
599.486	20.23
599.68	20.17
599.874	20.29
600.069	20.34
600.263	20.36
600.457	20.46
600.651	20.63
600.846	20.6
601.04	20.7
601.234	20.69
601.428	20.74
601.622	20.68
601.817	20.73
602.011	20.82
602.205	20.91
602.399	20.91
602.593	20.99
602.787	20.99
602.981	20.97
603.175	20.99
603.369	20.89
603.563	20.91
603.757	20.99
603.951	21.02
604.145	20.96
604.339	21.09
604.533	20.99
604.727	20.96
604.921	20.79
605.115	20.85
605.309	20.92
605.502	20.95
605.696	20.88
605.89	20.97
606.084	20.86
606.278	20.72
606.471	20.65
606.665	20.56
606.859	20.45
607.053	20.38
607.246	20.37
607.44	20.36
607.634	20.32
607.827	20.34
608.021	20.29
608.214	20.18
608.408	20.06
608.602	20.06
608.795	19.97
608.989	19.99
609.182	19.96
609.376	20.04
609.569	19.9
609.763	19.75
609.956	19.6
610.15	19.47
610.343	19.32
610.537	19.25
610.73	19.25
610.923	19.27
611.117	19.27
611.31	19.25
611.504	19.21
611.697	19.07
611.89	18.97
612.083	18.86
612.277	18.77
612.47	18.68
612.663	18.74
612.856	18.72
613.05	18.61
613.243	18.53
613.436	18.51
613.629	18.39
613.822	18.23
614.015	18.17
614.209	17.99
614.402	17.9
614.595	17.86
614.788	17.84
614.981	17.74
615.174	17.75
615.367	17.72
615.56	17.62
615.753	17.53
615.946	17.51
616.139	17.51
616.332	17.6
616.525	17.59
616.718	17.66
616.911	17.61
617.103	17.64
617.296	17.56
617.489	17.51
617.682	17.36
617.875	17.39
618.067	17.27
618.26	17.12
618.453	17.17
618.646	17.12
618.838	17.07
619.031	17.15
619.224	17.1
619.417	16.98
619.609	17.02
619.802	16.95
619.994	16.82
620.187	16.83
620.38	16.79
620.572	16.66
620.765	16.71
620.957	16.62
621.15	16.47
621.342	16.47
621.535	16.58
621.727	16.51
621.92	16.49
622.112	16.48
622.305	16.46
622.497	16.31
622.69	16.3
622.882	16.32
623.074	16.41
623.267	16.31
623.459	16.25
623.651	16.13
623.844	16.01
624.036	16.01
624.228	15.98
624.42	16.07
624.613	16.21
624.805	16.2
624.997	16.1
625.189	16.2
625.381	16.21
625.574	16.09
625.766	16.11
625.958	16.06
626.15	16.02
626.342	15.89
626.534	15.85
626.726	15.7
626.918	15.76
627.11	15.7
627.302	15.76
627.494	15.68
627.686	15.73
627.878	15.61
628.07	15.53
628.262	15.48
628.454	15.6
628.646	15.59
628.838	15.65
629.029	15.67
629.221	15.77
629.413	15.55
629.605	15.46
629.797	15.36
629.989	15.3
630.18	15.15
630.372	15.23
630.564	15.29
630.755	15.34
630.947	15.42
631.139	15.29
631.33	15.16
631.522	15.24
631.714	15.19
631.905	15.02
632.097	14.99
632.289	15.06
632.48	14.94
632.672	14.87
632.863	14.75
633.055	14.75
633.246	14.73
633.438	14.69
633.629	14.74
633.821	14.92
634.012	14.93
634.203	14.85
634.395	14.84
634.586	14.8
634.777	14.68
634.969	14.73
635.16	14.8
635.351	14.75
635.543	14.71
635.734	14.73
635.925	14.6
636.117	14.55
636.308	14.53
636.499	14.48
636.69	14.37
636.881	14.37
637.073	14.45
637.264	14.4
637.455	14.49
637.646	14.63
637.837	14.67
638.028	14.53
638.219	14.62
638.41	14.44
638.601	14.34
638.792	14.35
638.983	14.34
639.174	14.21
639.365	14.29
639.556	14.19
639.747	14.16
639.938	14.22
640.129	14.2
640.32	14.11
640.511	14.17
640.701	14.19
640.892	14.18
641.083	14.29
641.274	14.42
641.465	14.41
641.655	14.26
641.846	14.12
642.037	13.98
642.228	13.79
642.418	13.84
642.609	13.88
642.8	13.92
642.99	13.87
643.181	13.99
643.372	14
643.562	13.96
643.753	13.95
643.943	13.93
644.134	13.74
644.324	13.62
644.515	13.68
644.705	13.7
644.896	13.72
645.086	13.79
645.277	13.76
645.467	13.72
645.658	13.58
645.848	13.52
646.038	13.54
646.229	13.57
646.419	13.45
646.61	13.49
646.8	13.55
646.99	13.43
647.18	13.4
647.371	13.43
647.561	13.34
647.751	13.29
647.941	13.33
648.132	13.28
648.322	13.28
648.512	13.35
648.702	13.38
648.892	13.32
649.082	13.29
649.272	13.18
649.462	13.06
649.653	12.87
649.843	12.84
650.033	12.85
650.223	12.93
650.413	12.92
650.603	13.14
650.793	13.16
650.983	13.06
651.172	12.91
651.362	12.82
651.552	12.68
651.742	12.54
651.932	12.54
652.122	12.62
652.312	12.72
652.502	12.7
652.691	12.76
652.881	12.68
653.071	12.55
653.261	12.37
653.45	12.17
653.64	12.17
653.83	12
654.019	11.94
654.209	11.96
654.399	11.99
654.588	11.83
654.778	11.82
654.968	11.77
655.157	11.63
655.347	11.49
655.536	11.32
655.726	11.2
655.915	11
656.105	10.83
656.294	10.72
656.484	10.57
656.673	10.51
656.863	10.51
657.052	10.34
657.241	10.15
657.431	10.03
657.62	9.91
657.809	9.49
657.999	9.41
658.188	9.33
658.377	9.14
658.567	8.93
658.756	8.93
658.945	8.71
659.134	8.46
659.324	8.37
659.513	8.22
659.702	8.12
659.891	8.13
660.08	8.08
660.269	8.06
660.458	7.97
660.648	7.76
660.837	7.55
661.026	7.41
661.215	7.2
661.404	7.01
661.593	7.08
661.782	6.87
661.971	6.84
662.16	6.72
662.349	6.67
662.538	6.31
662.726	6.29
662.915	6.1
663.104	5.93
663.293	5.91
663.482	5.98
663.671	5.87
663.86	5.76
664.048	5.8
664.237	5.72
664.426	5.53
664.615	5.54
664.803	5.57
664.992	5.39
665.181	5.25
665.369	5.23
665.558	5.08
665.747	4.95
665.935	5.06
666.124	5.09
666.312	5.15
666.501	5.13
666.69	5.14
666.878	5.06
667.067	4.92
667.255	4.93
667.444	5.24
667.632	5.32
667.82	5.38
668.009	5.4
668.197	5.33
668.386	5.08
668.574	5.15
668.762	5.06
668.951	5.06
669.139	5.03
669.327	4.92
669.516	4.98
669.704	4.95
669.892	5.19
670.08	5.23
670.269	5.21
670.457	5.09
670.645	4.93
670.833	5.04
671.021	5.03
671.21	5.12
671.398	5.38
671.586	5.57
671.774	5.34
671.962	5.37
672.15	5.44
672.338	5.26
672.526	5.34
672.714	5.24
672.902	5.35
673.09	5.52
673.278	5.78
673.466	5.83
673.654	6.16
673.842	6.17
674.03	6.08
674.218	5.89
674.405	5.85
674.593	5.75
674.781	5.81
674.969	5.96
675.157	6.22
675.344	6.41
675.532	6.51
675.72	6.69
675.908	6.75
676.095	6.68
676.283	6.71
676.471	6.91
676.658	6.93
676.846	6.94
677.033	7.03
677.221	7.06
677.409	6.97
677.596	7
677.784	7.02
677.971	7.08
678.159	7.2
678.346	7.3
678.534	7.42
678.721	7.71
678.909	7.75
679.096	7.76
679.283	7.97
679.471	8.11
679.658	8.15
679.846	8.37
680.033	8.73
680.22	8.76
680.408	8.73
680.595	8.82
680.782	8.63
680.969	8.68
681.157	8.81
681.344	8.92
681.531	8.92
681.718	9.16
681.905	9.11
682.093	9.3
682.28	9.56
682.467	9.84
682.654	9.93
682.841	10.18
683.028	10.34
683.215	10.42
683.402	10.41
683.589	10.68
683.776	10.74
683.963	10.72
684.15	10.91
684.337	11.15
684.524	11.29
684.711	11.65
684.898	11.76
685.085	11.89
685.271	12.09
685.458	12.33
685.645	12.45
685.832	12.93
686.019	13.33
686.205	13.65
686.392	13.88
686.579	14.22
686.766	14.51
686.952	14.83
687.139	15.35
687.326	15.69
687.512	16.09
687.699	16.42
687.886	16.72
688.072	16.85
688.259	17.33
688.445	17.71
688.632	18
688.818	18.61
689.005	18.99
689.191	19.33
689.378	19.96
689.564	20.51
689.751	20.88
689.937	21.37
690.124	21.88
690.31	22.08
690.496	22.64
690.683	23.17
690.869	23.8
691.055	24.53
691.242	25.33
691.428	25.89
691.614	26.42
691.8	27.07
691.987	27.53
692.173	28.16
692.359	28.89
692.545	29.64
692.731	30.12
692.918	30.83
693.104	31.2
693.29	31.89
693.476	32.52
693.662	33.27
693.848	33.97
694.034	34.9
694.22	35.46
694.406	36.04
694.592	36.76
694.778	37.44
694.964	37.79
695.15	38.58
695.336	39.28
695.522	40.12
695.708	40.64
695.894	41.65
696.08	42.36
696.265	43.07
696.451	43.77
696.637	44.64
696.823	45.15
697.009	45.51
697.194	46.04
697.38	46.38
697.566	46.81
697.751	47.5
697.937	48.49
698.123	49.22
698.308	50.07
698.494	50.79
698.68	51.32
698.865	51.81
699.051	52.33
699.236	52.61
699.422	53.25
699.607	53.67
699.793	53.97
699.978	54.4
700.164	54.89
700.349	55.51
700.535	55.99
700.72	56.42
700.906	57.25
701.091	57.7
701.276	57.86
701.462	58.75
701.647	59.82
701.832	59.99
702.018	60.74
702.203	61.22
702.388	61.19
702.573	61.03
702.759	61.91
702.944	62.09
703.129	62.55
703.314	63.14
703.499	63.55
703.684	63.58
703.87	64.76
704.055	65.51
704.24	65.82
704.425	66.58
704.61	66.93
704.795	66.65
704.98	66.71
705.165	67.03
705.35	67.29
705.535	67.71
705.72	68.08
705.905	68.61
706.09	69.32
706.275	69.39
706.459	69.54
706.644	69.81
706.829	70.01
707.014	69.82
707.199	70.45
707.384	70.86
707.568	71.33
707.753	71.77
707.938	72.34
708.123	72.37
708.307	72.65
708.492	72.56
708.677	72.76
708.861	72.82
709.046	72.97
709.231	73.76
709.415	74.21
709.6	74.07
709.784	74.43
709.969	74.65
710.153	74.28
710.338	74.59
710.522	74.87
710.707	75.25
710.891	75.49
711.076	75.68
711.26	75.68
711.445	76.04
711.629	76.37
711.813	76.94
711.998	77.34
712.182	77.23
712.366	77.93
712.551	78.36
712.735	78.02
712.919	78.23
713.103	78.9
713.288	78.46
713.472	78.12
713.656	79.09
713.84	79.2
714.024	79.47
714.208	79.72
714.393	80.26
714.577	80.09
714.761	80.25
714.945	80.37
715.129	80.69
715.313	80.87
715.497	80.83
715.681	81.66
715.865	81.51
716.049	81.72
716.233	81.38
716.417	81.64
716.601	80.87
716.785	81.16
716.968	81.48
717.152	81.74
717.336	81.59
717.52	82
717.704	81.86
717.888	82.04
718.071	82.37
718.255	82.86
718.439	82.62
718.622	83.07
718.806	83.3
718.99	83.02
719.174	82.97
719.357	83.36
719.541	83.42
719.724	82.87
719.908	84.04
720.092	84.85
720.275	85.21
720.459	85.49
720.642	85.44
720.826	84.46
721.009	83.9
721.193	83.37
721.376	83.46
721.559	83.87
721.743	84.03
721.926	84.4
722.11	85.16
722.293	84.65
722.476	84.57
722.66	85.3
722.843	85
723.026	84.06
723.21	85.04
723.393	85.96
723.576	85.53
723.759	85.14
723.942	86.14
724.126	85.69
724.309	85.15
724.492	84.97
724.675	85.64
724.858	85.69
725.041	86.41
725.224	86.72
725.407	87.64
725.59	88.29
725.774	87.59
725.957	86.7
726.14	85.91
726.322	85.66
726.505	84.76
726.688	86.31
726.871	86.24
727.054	87.15
727.237	87.24
727.42	87.99
727.603	87.13
727.786	87.73
727.968	87.88
728.151	88.23
728.334	87.39
728.517	87.52
728.699	87.72
728.882	87.44
729.065	87.84
729.248	88.79
729.43	89.21
729.613	90.11
729.796	90.57
729.978	89.82
730.161	89.32
730.343	89.32
730.526	89.31
730.708	88.96
730.891	89.53
731.073	89.5
731.256	89.21
731.438	88.6
731.621	89.65
731.803	89.07
731.986	89.87
732.168	89.1
732.35	89.51
732.533	88.7
732.715	88.85
732.898	89.48
733.08	90.54
733.262	91.1
733.444	90.74
733.627	91.12
733.809	90.63
733.991	91.81
734.173	90.77
734.355	91.2
734.538	92.28
734.72	92.26
734.902	91.64
735.084	92.23
735.266	92.59
735.448	92.08
735.63	91.94
735.812	91.8
735.994	93.41
736.176	93.7
736.358	93.51
736.54	95.37
736.722	95.05
736.904	93.08
737.086	92.69
737.268	93.32
737.45	91.87
737.632	92.26
737.814	92.54
737.995	92.52
738.177	92.6
738.359	92.26
738.541	92.41
738.723	93.12
738.904	94.23
739.086	93.64
739.268	94.11
739.449	94.3
739.631	93.58
739.813	92.96
739.994	93.53
740.176	93.53
740.358	93.8
740.539	95.29
740.721	95.45
740.902	95.93
741.084	95.8
741.265	94.89
741.447	94.9
741.628	94.73
741.81	93.35
741.991	94.53
742.172	96.43
742.354	96.62
742.535	97.09
742.717	98.02
742.898	97.62
743.079	97.86
743.261	96.92
743.442	96
743.623	96.61
743.804	96.7
743.986	96.92
744.167	94.18
744.348	94.04
744.529	93.22
744.71	91.95
744.891	89.95
745.073	90.96
745.254	91.64
745.435	91.88
745.616	92.43
745.797	92.36
745.978	93.59
746.159	93.34
746.34	92.23
746.521	93.96
746.702	92.66
746.883	92.47
747.064	92.43
747.245	92.94
747.426	90.88
747.606	92.65
747.787	93.36
747.968	93.42
748.149	94.67
748.33	95.09
748.51	94.66
748.691	93.16
748.872	94.26
749.053	93.1
749.233	93.17
749.414	92.77
749.595	92.03
749.775	89.86
749.956	89.79
750.137	89.18
750.317	90.93
750.498	94.27
750.678	95.63
750.859	95.4
751.04	95.69
751.22	93.41
751.4	91.86
751.581	90.26
751.761	92.37
751.942	93.12
752.122	93.01
752.303	92.6
752.483	93.45
752.663	91.4
752.844	90.39
753.024	91.83
753.204	93
753.385	92.34
753.565	92.23
753.745	92.04
753.925	92.24
754.106	90.58
754.286	90.76
754.466	91.08
754.646	92.4
754.826	91.86
755.006	91.5
755.187	91.83
755.367	91.93
755.547	92.1
755.727	92.86
755.907	93.51
756.087	94.56
756.267	94.18
756.447	92.95
756.627	90.43
756.807	91.77
756.987	91.88
757.167	92.79
757.346	92.89
757.526	92.8
757.706	92.62
757.886	92.87
758.066	92.43
758.246	93.78
758.425	93.91
758.605	92.58
758.785	92.11
758.965	90.9
759.144	88.62
759.324	89.66
759.504	90.63
759.683	89.99
759.863	89.42
760.043	89.27
760.222	89.71
760.402	88.36
760.581	88.46
760.761	91.11
760.94	89.95
761.12	91.53
761.299	92.87
761.479	91.26
761.658	87.67
761.838	87.68
762.017	85.56
762.197	84.96
762.376	87.27
762.555	88.49
762.735	90.39
762.914	90
763.093	90.49
763.273	88.2
763.452	88.53
763.631	88.73
763.81	87.78
763.99	86.55
764.169	88.02
764.348	85.96
764.527	84.87
764.706	87.64
764.885	89.09
765.064	87.46
765.243	89.36
765.423	90.71
765.602	88.49
765.781	86.84
765.96	86.96
766.139	86.99
766.318	87.44
766.497	86.53
766.676	86.85
766.854	88.64
767.033	88.31
767.212	86.31
767.391	86.94
767.57	87.23
767.749	87.14
767.928	87.63
768.106	87.58
768.285	85.78
768.464	85.71
768.643	83.54
768.821	83.81
769	85.71
769.179	87.74
769.357	87.27
769.536	86.29
769.715	85.3
769.893	85.85
770.072	84.84
770.25	85.01
770.429	87.23
770.607	85.7
770.786	84.05
770.964	86.54
771.143	84.44
771.321	86.93
771.5	89.8
771.678	88.6
771.857	85.01
772.035	87.13
772.213	84.35
772.392	81.8
772.57	83.85
772.748	85.66
772.927	82.56
773.105	82.8
773.283	83.97
773.461	83.49
773.64	83.4
773.818	86.2
773.996	86.98
774.174	85.81
774.352	82.14
774.531	80.69
774.709	82.04
774.887	79.16
775.065	79.54
775.243	82.08
775.421	83.46
775.599	84.13
775.777	83.59
775.955	82.08
776.133	79.93
776.311	79.28
776.489	74.99
776.667	77.21
776.844	80.79
777.022	80.69
777.2	82.03
777.378	83.64
777.556	82.82
777.734	81.77
777.911	84.07
778.089	82.16
778.267	81.08
778.445	80.42
778.622	78.4
778.8	77.56
778.978	80.07
779.155	78.94
779.333	79.42
779.511	81.88
779.688	84.26
779.866	79.21
780.043	79.86
780.221	80.24
780.398	75.39
780.576	75.78
780.753	77.14
780.931	76.49
781.108	75.34
781.286	79.16
781.463	74.85
781.64	71.38
781.818	73.98
781.995	76.86
782.172	74.94
782.35	74.23
782.527	82.28
782.704	78.56
782.882	77.3
783.059	75.9
783.236	77.28
783.413	75.89
783.59	76.86
783.768	73.72
783.945	77.67
784.122	80.3
784.299	78.53
784.476	78.39
784.653	79.25
784.83	76.27
785.007	73.37
785.184	73.83
785.361	72.91
785.538	76.2
785.715	80.71
785.892	80.67
786.069	82.45
786.246	86.46
786.423	84.82
786.6	83.53
786.776	86.01
786.953	82.63
787.13	83.73
787.307	82.21
787.484	78.34
787.66	73.34
787.837	74.43
788.014	69.66
788.191	68.09
788.367	65.31
788.544	72.16
788.721	71.61
788.897	74.17
789.074	79.14
789.25	78.86
789.427	76.15
789.603	74.31
789.78	74.44
789.956	69.09
790.133	71.31
790.309	70.57
790.486	77.89
790.662	75.09
790.839	76.38
791.015	78.6
791.192	76.71
791.368	71.62
791.544	68.69
791.721	70.6
791.897	69.5
792.073	69.01
792.249	63.16
792.426	68.34
792.602	66.93
792.778	65.05
792.954	60.95
793.13	62.54
793.307	59.12
793.483	52.26
793.659	50.98
793.835	59.72
794.011	61.8
794.187	61.22
794.363	66.03
794.539	72.58
794.715	63.5
794.891	59.42
795.067	60.51
795.243	63
795.419	57.79
795.595	58.07
795.771	62.52
795.947	64.19
796.122	61.17
796.298	65.93
796.474	70.63
796.65	69.22
796.826	65.47
797.001	66.69
797.177	58.15
797.353	61.38
797.529	67.69
797.704	68.36
797.88	65.54
798.056	61.93
798.231	56.97
798.407	56.08
798.582	59.35
798.758	70.45
798.934	81.87
799.109	78.9
799.285	73.78
799.46	73.53
799.636	68.68
799.811	68.8
799.986	77.82
800.162	80.06
800.337	81.41
800.513	75.14
800.688	73.37
800.863	78.43
801.039	70.52
801.214	64.32
801.389	66.07
801.565	61.98
801.74	42.25
801.915	53.89
802.09	54.65
802.265	63.17
802.441	62
802.616	65.17
802.791	60.19
802.966	65.99
803.141	62.82
803.316	61.22
803.491	71.14
803.666	72.61
803.841	65.78
804.016	60.18
804.191	64.69
804.366	56.44
804.541	55.82
804.716	60.72
804.891	60.44
805.066	61.45
805.241	60.96
805.416	59.21
805.591	54.16
805.765	54.79
805.94	54.17
806.115	57.28
806.29	53.71
806.464	56.55
806.639	56.93
806.814	49.85
806.989	41.21
807.163	55.99
807.338	54.99
807.512	49.46
807.687	43.53
807.862	60.56
808.036	57.17
808.211	62.45
808.385	71.18
808.56	90.67
808.734	88.36
808.909	84.36
809.083	74.93
809.258	87.51
809.432	80.53
809.606	60.56
809.781	62.72
809.955	71.45
810.13	65.68
810.304	58.2
810.478	60.74
810.652	65.78
810.827	68.68
811.001	60.18
811.175	59.74
811.349	60.38
811.524	47.57
811.698	36.66
811.872	35.26
812.046	43.37
812.22	52.15
812.394	48.43
812.568	50.16
812.742	52.17
812.916	44.7
813.09	36.86
813.264	36.66
813.438	44.81
813.612	41.37
813.786	37.85
813.96	46.27
814.134	51.39
814.308	54.45
814.482	62.13
814.656	63.04
814.83	65.4
815.003	67.07
815.177	52.84
815.351	45.28
815.525	48.38
815.698	36.83
815.872	30.58
816.046	23.42
816.219	31.51
816.393	50.23
816.567	57.31
816.74	60.5
816.914	72.02
817.088	75.9
817.261	55.43
817.435	47.42
817.608	54.6
817.782	43.76
817.955	50.5
818.129	44.76
818.302	53.17
818.475	58.57
818.649	57.29
818.822	42.05
818.996	63.21
819.169	61.43
819.342	45.29
819.516	60.33
819.689	70.62
819.862	54.94
820.035	47.67
820.209	46.71
820.382	43.54
820.555	50.85
820.728	33.3
820.901	36.39
821.075	39.05
821.248	40.26
821.421	24.84
821.594	43.82
821.767	57.68
821.94	83.86
822.113	55.98
822.286	49.66
822.459	62.64
822.632	48.94
822.805	20.24
822.978	28.1
823.151	26.75
823.324	12.64
823.496	-6.66
823.669	-17.98
823.842	-6.9
824.015	-32.13
824.188	-52.99
824.361	-33.08
824.533	-19.73
824.706	-5.77
824.879	5.94
825.051	18.94
825.224	26.03
825.397	18.3
825.569	-4.29
825.742	22.4
825.915	42.7
826.087	45.58
826.26	29.72
826.432	41.96
826.605	42.25
826.777	26.29
826.95	20.14
827.122	20.46
827.295	17.06
827.467	5.37
827.64	-20.15
827.812	-13.59
827.984	4.54
828.157	-7.8
828.329	-36.71
828.501	-15.41
828.674	6
828.846	-17.8
829.018	11.56
829.19	5.98
829.363	30.6
829.535	30.92
829.707	19.15
829.879	-10.39
830.051	-2.75
830.223	-21.83
830.395	-65.65
830.568	-36.34
830.74	-37.4
830.912	8.55
831.084	-16.31
831.256	-8.69
831.428	-19.02
831.6	-15.74
831.772	-73.56
831.943	-70.42
832.115	-33.57
832.287	-12.46
832.459	0.21
832.631	18.4
832.803	47.69
832.975	69.22
833.146	55.35
833.318	46.21
833.49	57.97
833.662	21.47
833.833	-17.83
834.005	-4.68
834.177	1.85
834.348	5.48
834.52	-9.53
834.692	-5.3
834.863	-29.54
835.035	-28.9
835.206	-111.59
835.378	-64.99
835.549	-52.42
835.721	-25.02
835.892	-26.09
836.064	1.44
836.235	5.39
836.407	25.85
836.578	-22.27
836.749	-26.61
836.921	-73.3
837.092	-119.41
837.264	-108.1
837.435	-109.48
837.606	-50.16
837.777	-9.98
837.949	18
838.12	21.72
838.291	35.81
838.462	14.85
838.633	-13.16
838.805	-9.54
838.976	-5.78
839.147	-57.76
839.318	-65.99
839.489	-126.09
839.66	-116.48
839.831	-87.09
840.002	-57.91
840.173	-89.98
840.344	-15.76
840.515	-53.02
840.686	-202.58
840.857	-180.55
841.028	-127.41
841.199	-93.25
841.369	-117.3
841.54	-96.68
841.711	-69.47
841.882	-68.93
842.053	-83.34
842.223	-74.76
842.394	-47.71
842.565	-39.06
842.736	-8.62
842.906	8.53
843.077	29.89
843.248	46.32
843.418	32.88
843.589	-0.67
843.759	13.28
843.93	-15.6
844.101	-18.09
844.271	-9.56
844.442	5.42
844.612	18.41
844.783	-12.51
844.953	-26.9
845.123	-8.38
845.294	17.35
845.464	-159.18
845.635	-22.48
845.805	8.95
845.975	-7.48
846.146	-72.75
846.316	-58.75
846.486	-23.51
846.656	13.46
846.827	3.45
846.997	3.35
847.167	47.77
847.337	6.65
847.507	-70.23
847.677	-43.15
847.848	17.01
848.018	13.14
848.188	18.8
848.358	13.58
848.528	-3.37
848.698	-27.79
848.868	-93.83
849.038	-192.7
849.208	-44.93
849.378	12.42
849.548	-20.22
849.718	-7.56
849.887	28.12
850.057	-14.27
850.227	-56.63
850.397	-74.39
850.567	-207.32
850.737	-527.93
850.906	-1319.06
851.076	-894.73
851.246	-511.65
851.415	-45.02
851.585	-52.19
851.755	-107.13
851.924	-49.4
852.094	-81.47
852.264	-212.89
852.433	-1363.7
852.603	-245.61
852.772	-198.38
852.942	-93.27
853.111	-82.72
853.281	10.63
853.45	59.8
853.62	-48.82
853.789	-55.41
853.959	-29.63
854.128	-87.7
854.297	-174.74
854.467	-170.16
854.636	-165
854.805	-63.98
854.975	-106.65
855.144	-45
855.313	180.94
855.482	-286.31
855.652	-215.23
855.821	-159.38
855.99	-17.77
856.159	2.74
856.328	16.7
856.497	-21.25
856.667	-0.59
856.836	-15.81
857.005	-61.73
857.174	-76.29
857.343	-88.18
857.512	-72.82
857.681	-113.36
857.85	-133.44
858.019	-72.11
858.188	-56.8
858.356	-71.9
858.525	-130.81
858.694	-101.49
858.863	-200.26
859.032	-167
859.201	-254.59
859.369	-145.22
859.538	-64.95
859.707	-61.73
859.876	-71.42
860.044	-77.23
860.213	3.78
860.382	-30.91
860.55	-22.48
860.719	25.77
860.888	48.59
861.056	-0.47
861.225	-23.03
861.393	7.26
861.562	-9.6
861.73	-88.33
861.899	-307.46
862.067	-2118.1
862.236	-149.82
862.404	-391.43
862.572	-278.85
862.741	-97.51
862.909	-90.43
863.078	-240.8
863.246	-152.46
863.414	-122.14
863.582	-69.95
863.751	-94.3
863.919	-66.66
864.087	-13.3
864.255	-38.48
864.424	-559.06
864.592	-109.87
864.76	-195.69
864.928	-582.6
865.096	-252.95
865.264	-96.02
865.432	-1771.02
865.6	-7.12
865.768	-116.83
865.936	-147.2
866.104	-189.59
866.272	-251.95
866.44	-534.74
866.608	754.48
866.776	316.14
866.944	2823.84
867.112	-509.43
867.28	-218.48
867.448	-113.7
867.615	-70.55
867.783	-55.25
867.951	-57.4
868.119	-39.31
868.286	-77.32
868.454	-227.04
868.622	-230.37
868.789	-353.85
868.957	-6530.36
869.125	-3092.76
869.292	-211.36
869.46	-299.77
869.627	-49.31
869.795	-51.71
869.963	-39.19
870.13	-19.04
870.298	11.87
870.465	-85.91
870.632	-96.44
870.8	-31.62
870.967	-81.96
871.135	-165.6
871.302	-115.53
871.469	-129.92
871.637	-234.61
871.804	-143.95
871.971	-212.1
872.139	-669.42
872.306	-98.56
872.473	-109.06
872.64	-458.05
872.807	-193.59
872.975	-33.73
873.142	-425.18
873.309	3297.97
873.476	-47.99
873.643	-28.9
873.81	-14.17
873.977	9.33
874.144	0.08
874.311	-199.59
874.478	-186.99
874.645	-253.68
874.812	-194.67
874.979	-123.35
875.146	-105.18
875.313	-135.18
875.48	4.28
875.647	-26.04
875.813	-54.93
875.98	-31.98
876.147	-63.16
876.314	-206.89
876.481	1343.18
876.647	-1842.98
876.814	737.95
876.981	-107.02
877.147	5.81
877.314	44.77
877.481	92.08
877.647	69.62
877.814	9.62
877.98	-96.26
878.147	-48.5
878.314	1.47
878.48	-62.73
878.647	-7.66
878.813	64.3
878.979	50.9
879.146	-7.12
879.312	0.08
879.479	-44.23
879.645	-174.1
879.811	-388.72
879.978	-926.91
880.144	-240.8
880.31	-141.69
880.477	-400.08
880.643	-445.51
880.809	-189.48
880.975	-163.18
881.142	-1166.59
881.308	-148.68
881.474	-84.56
881.64	-135.58
881.806	-256.67
881.972	-97.18
882.138	-143.07
882.304	-167.51
882.47	-239.32
882.636	-798.57
882.802	-263.46
882.968	-40.41
883.134	-41.78
883.3	-57.22
883.466	0.96
883.632	34.91
883.798	-17.34
883.964	-34.89
884.129	-14.59
884.295	-9.28
884.461	-80.83
884.627	-88.91
884.793	-108.46
884.958	-80.14
885.124	-204.46
885.29	-326.9
885.455	-617.11
885.621	-223.42
885.787	-281.3
885.952	-137.16
886.118	-119.54
886.283	-107.3
886.449	-235.3
886.614	-245.76
886.78	-401.25
886.945	1725
887.111	-922.11
887.276	-780.26
887.442	-1398.41
887.607	-701.53
887.773	-432.56
887.938	-344.45
888.103	-379.64
888.269	-250.98
888.434	-503.92
888.599	-227.31
888.764	-82.47
888.93	-53.61
889.095	-60.58
889.26	-91.37
889.425	-67.97
889.59	-101.14
889.756	-115.04
889.921	-84.08
890.086	-23.16
890.251	-12.47
890.416	-119.28
890.581	-1068.15
890.746	98.3
890.911	257.48
891.076	123.36
891.241	-252.43
891.406	24.63
891.571	-52.43
891.736	-351.95
891.901	-870.13
892.065	981.59
892.23	173.45
892.395	269.91
892.56	370.88
892.725	-374.41
892.889	-1329.88
893.054	-282.73
893.219	-102.16
893.384	-41.01
893.548	-109.32
893.713	-120.46
893.878	-72.55
