Data from Ofra_PS_T2_2A_2CX13_Reflection_3.txt Node
Date: Wed Jul 21 17:30:23 EDT 2021
User: Adam
Spectrometer: FLMT01687
Trigger mode: 0
Integration Time (sec): 1.100000E0
Scans to average: 2
Electric dark correction enabled: true
Nonlinearity correction enabled: false
Boxcar width: 2
XAxis mode: Wavelengths
Number of Pixels in Spectrum: 3648
>>>>>Begin Spectral Data<<<<<
179.494	591.2
179.716	672.24
179.937	659.07
180.158	710
180.38	1338.12
180.601	504.97
180.823	167.77
181.044	15.17
181.265	69.85
181.486	-21.98
181.708	87.07
181.929	487.76
182.15	-252.11
182.372	158.45
182.593	93.38
182.814	22.38
183.035	59.65
183.257	36.28
183.478	-51.49
183.699	4.33
183.92	6.24
184.141	16.04
184.363	-4.88
184.584	56.14
184.805	45.07
185.026	50.27
185.247	38.67
185.468	5.55
185.689	-16.47
185.91	-16.06
186.132	-23.35
186.353	-39.39
186.574	14.07
186.795	14.05
187.016	-54.82
187.237	-50.37
187.458	-72.73
187.679	-74.79
187.9	-55.54
188.121	-19.37
188.342	8.24
188.563	49.45
188.784	49.45
189.005	73.08
189.226	86.28
189.447	17.41
189.667	-367.96
189.888	-552.22
190.109	-2219.48
190.33	-1183.87
190.551	-1862.83
190.772	-384.02
190.993	-342.72
191.214	-267.69
191.434	-183.69
191.655	-89.33
191.876	-141.03
192.097	-140.91
192.318	-197.13
192.538	-323.46
192.759	-226.16
192.98	-115.71
193.201	-75.05
193.421	-55.89
193.642	-11.04
193.863	11.75
194.083	-22.76
194.304	-19.56
194.525	-20.07
194.745	-42.47
194.966	-73.85
195.187	-59.96
195.407	-84.04
195.628	-136.78
195.848	-136.24
196.069	-122.16
196.29	-86.33
196.51	-110.01
196.731	-92.48
196.951	-119.37
197.172	-129.71
197.392	-145.68
197.613	-125.69
197.833	-172.98
198.054	-145.74
198.274	-90.9
198.495	-116.6
198.715	-86.26
198.936	-93.38
199.156	-78.91
199.377	-172.44
199.597	-158.03
199.817	-168.01
200.038	-87.74
200.258	-129.8
200.479	-71.05
200.699	-87.81
200.919	-22.68
201.14	-37.99
201.36	-61.68
201.58	-3.72
201.801	38.11
202.021	10.7
202.241	10.7
202.461	10.48
202.682	-92.19
202.902	-161.84
203.122	-91.84
203.342	-82.26
203.563	-24.11
203.783	13.42
204.003	-28.33
204.223	-40.19
204.443	37.84
204.663	2.39
204.884	17.56
205.104	58.46
205.324	58.21
205.544	7.71
205.764	37.8
205.984	41.24
206.204	35.05
206.424	31.81
206.644	-6.33
206.864	-13.91
207.084	-59.5
207.304	-22.87
207.525	-209.69
207.745	-100.56
207.964	-39.56
208.184	-104.68
208.404	-151.07
208.624	-123.62
208.844	-124.23
209.064	-435.25
209.284	-430.31
209.504	-222.14
209.724	-69.12
209.944	-43.12
210.164	-15.14
210.384	-3.59
210.604	-17.83
210.823	-69.16
211.043	-81.76
211.263	-62.74
211.483	-49.51
211.703	-84.6
211.922	-59.3
212.142	7.53
212.362	31.16
212.582	4.39
212.801	-7.38
213.021	-19.17
213.241	-40.75
213.461	-79.34
213.68	-100.86
213.9	-64.45
214.12	-49.83
214.339	-146.58
214.559	-130.5
214.779	-72.87
214.998	-83.4
215.218	-147.82
215.438	-65.38
215.657	-69.78
215.877	-65.89
216.096	-12.93
216.316	-7.28
216.535	-24.06
216.755	-24.94
216.974	-137.01
217.194	-182.34
217.413	-144.85
217.633	-115.06
217.852	-219.19
218.072	-68.42
218.291	-34.04
218.511	2.56
218.73	-38.39
218.95	-19.51
219.169	-33.62
219.389	-80.84
219.608	-73.65
219.827	-62.48
220.047	-62.64
220.266	-44.43
220.485	-39.01
220.705	-24.45
220.924	-37.87
221.143	3.11
221.363	-21.49
221.582	-0.45
221.801	-5.99
222.021	14.28
222.24	-95.81
222.459	-32.87
222.678	-78.73
222.897	-136.08
223.117	-192.5
223.336	-104.75
223.555	-86.36
223.774	-52.97
223.993	-40
224.213	37.4
224.432	8.29
224.651	35.05
224.87	14.15
225.089	17.77
225.308	1.99
225.527	23.98
225.746	18.34
225.965	14.06
226.184	0.82
226.404	16.82
226.623	-13.14
226.842	-12.62
227.061	1.84
227.28	22.29
227.499	1.79
227.718	20.41
227.936	15.76
228.155	28.46
228.374	0.95
228.593	10.21
228.812	-7.78
229.031	-15.6
229.25	-68.6
229.469	-64.39
229.688	-63.63
229.907	-9.52
230.125	9.99
230.344	28.57
230.563	34.97
230.782	48.26
231.001	-28.66
231.22	-35.38
231.438	-12.16
231.657	-8.59
231.876	-28.94
232.095	15.94
232.313	10.47
232.532	-26.26
232.751	-59.4
232.969	-85.4
233.188	-162.1
233.407	-84.65
233.625	-46.79
233.844	-68.84
234.063	-42.34
234.281	-13.94
234.5	-11.84
234.719	1.95
234.937	21.83
235.156	32.38
235.374	17.67
235.593	9.5
235.811	-4.98
236.03	-12.96
236.249	-60.6
236.467	-20.21
236.686	-0.11
236.904	13.36
237.123	-17.79
237.341	-9.18
237.559	-16.25
237.778	-38.6
237.996	-62
238.215	13.24
238.433	20.52
238.652	22.01
238.87	4.16
239.088	8.04
239.307	-14.84
239.525	-29.51
239.743	-58.76
239.962	-60.95
240.18	-76.38
240.398	-129.3
240.617	-125.28
240.835	-104.96
241.053	-46.81
241.271	2.81
241.49	43.8
241.708	32.75
241.926	28.24
242.144	-10.75
242.363	-64.44
242.581	-139.01
242.799	-74.84
243.017	-18.58
243.235	-46.51
243.453	-31.71
243.672	-18.93
243.89	-25.88
244.108	-40.66
244.326	-3.01
244.544	-8.41
244.762	-2.12
244.98	3.49
245.198	-6.78
245.416	-64.24
245.634	-51.22
245.852	-70
246.07	-77.06
246.288	-83.47
246.506	-67.78
246.724	-52.82
246.942	-25.82
247.16	4.05
247.378	26.76
247.596	47.81
247.814	39.75
248.032	-5.07
248.25	-17.51
248.468	-22.46
248.685	-17.48
248.903	23.85
249.121	32.54
249.339	3.7
249.557	-4.12
249.775	1.26
249.992	-77.74
250.21	-66.51
250.428	-50.65
250.646	-75.75
250.863	-100.85
251.081	-70.41
251.299	-79.09
251.517	-46.3
251.734	-20.53
251.952	-32.15
252.17	-20.29
252.387	-3.91
252.605	-26.78
252.823	-27.18
253.04	7.99
253.258	30.7
253.475	28.76
253.693	65.29
253.911	51.95
254.128	32.99
254.346	8.15
254.563	-9.49
254.781	-38.08
254.998	-58.89
255.216	-59.91
255.433	-32.41
255.651	12.12
255.868	44.55
256.086	72.94
256.303	68.17
256.521	41.72
256.738	8.82
256.956	-36
257.173	-50.3
257.39	-87.71
257.608	-127.93
257.825	-49.73
258.043	4.64
258.26	5.02
258.477	66.08
258.695	79.45
258.912	26.36
259.129	16.74
259.346	-12.24
259.564	-69.73
259.781	-104.9
259.998	-25.33
260.216	-4.06
260.433	38.42
260.65	44.83
260.867	73.61
261.084	26.2
261.302	5
261.519	-4.15
261.736	-34.8
261.953	-82.82
262.17	-37.4
262.387	-71.44
262.604	-85
262.822	-103.08
263.039	-71.37
263.256	-121.41
263.473	-87.7
263.69	-84.53
263.907	-18.79
264.124	-7.58
264.341	8.61
264.558	-10.76
264.775	11.03
264.992	-12.14
265.209	-23.94
265.426	5.24
265.643	27.7
265.86	26.29
266.077	25.18
266.294	18.04
266.51	-43.18
266.727	-54.79
266.944	-61.16
267.161	-68.78
267.378	-65.25
267.595	-26.2
267.812	-61.66
268.028	-77.65
268.245	-17.5
268.462	-28.49
268.679	-31.58
268.896	24.77
269.112	19.71
269.329	-1.34
269.546	8.42
269.763	-3.69
269.979	-27.64
270.196	-20.74
270.413	-44.25
270.629	-69.39
270.846	-74.37
271.063	-61.86
271.279	-84.9
271.496	-75.41
271.712	-34.65
271.929	-17.83
272.146	-24.13
272.362	-4.27
272.579	21.05
272.795	31.48
273.012	33.65
273.228	17.28
273.445	-10.52
273.661	-45
273.878	-90.32
274.094	-90.16
274.311	-110.59
274.527	-32.71
274.744	-17.44
274.96	-20.23
275.177	-6.38
275.393	18.44
275.609	17.39
275.826	42.77
276.042	45.29
276.259	36.17
276.475	36.17
276.691	33.51
276.908	-6.51
277.124	3.71
277.34	-4.66
277.557	-14.42
277.773	-17.18
277.989	-16.14
278.205	-20.68
278.422	-2.64
278.638	-0.97
278.854	23.7
279.07	25.81
279.286	11.48
279.503	-10.13
279.719	-24.72
279.935	-69.82
280.151	-68.92
280.367	-28.61
280.583	-40.43
280.799	-34.47
281.016	-43
281.232	-18.15
281.448	-19.8
281.664	1.09
281.88	-30.11
282.096	-24.69
282.312	-5.8
282.528	-4.11
282.744	6.53
282.96	32.11
283.176	27.04
283.392	11.87
283.608	6.45
283.824	-2.72
284.04	-6.45
284.256	4.39
284.471	-4.42
284.687	-11.06
284.903	5.94
285.119	27.19
285.335	-5.04
285.551	-1.3
285.767	-25.1
285.982	-41.86
286.198	-80.76
286.414	-4.58
286.63	3.22
286.846	34.17
287.061	15.62
287.277	43.65
287.493	-1.97
287.709	13.64
287.924	3.4
288.14	39.36
288.356	26.53
288.571	55.29
288.787	25.72
289.003	24.95
289.218	4.93
289.434	-30.04
289.65	-30.7
289.865	-33.97
290.081	-14.81
290.296	-9.16
290.512	7.37
290.727	-23.34
290.943	-18.26
291.159	-42.44
291.374	-33.66
291.59	-46.67
291.805	-30.42
292.021	-29.3
292.236	-21.09
292.451	-21.42
292.667	-16.82
292.882	5.47
293.098	13.95
293.313	-6.19
293.529	-20.22
293.744	-44.32
293.959	-68.66
294.175	-69.58
294.39	-21.58
294.605	-8.03
294.821	21.09
295.036	20.59
295.251	20.73
295.467	8.49
295.682	-5.32
295.897	-62.22
296.112	-66.5
296.328	-45.91
296.543	-84.75
296.758	-61.8
296.973	-3.45
297.188	23.84
297.404	-10.78
297.619	-22.89
297.834	-35.7
298.049	-60.93
298.264	-84.34
298.479	-14.84
298.694	-8.67
298.909	2.91
299.125	9.77
299.34	12.23
299.555	-23.42
299.77	-12.32
299.985	-56.12
300.2	-111.47
300.415	-125.11
300.63	-81.27
300.845	-76.22
301.06	-48.22
301.275	-9.82
301.49	0.73
301.704	-5.62
301.919	-31.35
302.134	-52.35
302.349	-53.34
302.564	-119.87
302.779	-184.35
302.994	-170.06
303.209	-128.82
303.423	-107.25
303.638	-7
303.853	-41
304.068	-37.92
304.283	-29.38
304.497	-31.41
304.712	-58.79
304.927	-32.57
305.142	-36.28
305.356	-27.67
305.571	-25.69
305.786	-34.85
306	-50.55
306.215	-49.85
306.43	-81.25
306.644	-104.15
306.859	-43.19
307.074	-36
307.288	-66.94
307.503	-58.64
307.717	-54.43
307.932	-58.84
308.147	-49.36
308.361	-18.18
308.576	-38.25
308.79	-80.4
309.005	-73.4
309.219	-48.67
309.434	-61.57
309.648	-59.17
309.863	-24.49
310.077	-16.5
310.292	-35.82
310.506	-17.91
310.72	7.38
310.935	20.61
311.149	9.22
311.364	24.12
311.578	34.78
311.792	16.63
312.007	26.26
312.221	10.62
312.435	15.15
312.649	-7.84
312.864	-3.85
313.078	-4.89
313.292	69.94
313.507	39.38
313.721	25.37
313.935	25.64
314.149	6.2
314.363	-18.3
314.578	-19.55
314.792	-5.23
315.006	-14.78
315.22	13.56
315.434	17.95
315.648	19.77
315.862	10.34
316.077	11.02
316.291	-29.75
316.505	-49.35
316.719	-67.82
316.933	-67.84
317.147	-63.01
317.361	-101.05
317.575	-104.94
317.789	-141.5
318.003	-216.18
318.217	-151.05
318.431	-46.81
318.645	9.95
318.859	17.99
319.073	43.61
319.287	21.53
319.5	-14.47
319.714	-63.37
319.928	-94.53
320.142	-126.49
320.356	-70.37
320.57	-46.45
320.784	-69.22
320.997	-73.1
321.211	-62.27
321.425	-129.22
321.639	-152.01
321.853	-70.96
322.066	-41.75
322.28	-33.73
322.494	-20.39
322.707	9.25
322.921	-17.58
323.135	-31.25
323.349	-14.92
323.562	-28.05
323.776	-58.43
323.989	-43.04
324.203	-64.53
324.417	-83.76
324.63	-96.24
324.844	-77.18
325.057	-85.76
325.271	-48.42
325.485	-9.84
325.698	23.44
325.912	28.55
326.125	-4.57
326.339	-14.78
326.552	-54.93
326.766	-66.19
326.979	-46.97
327.193	14.8
327.406	10.27
327.619	13.01
327.833	23.86
328.046	-0.41
328.26	-47.86
328.473	-14.31
328.686	-43.93
328.9	-44.45
329.113	-26.35
329.326	-57.53
329.54	-59.47
329.753	-60.06
329.966	-94.78
330.179	-80.69
330.393	-25.88
330.606	-19.68
330.819	3.51
331.032	13.24
331.246	15.44
331.459	39.27
331.672	15.86
331.885	1.14
332.098	-12.11
332.311	-29.23
332.525	-103.66
332.738	-52.3
332.951	-13.01
333.164	11.64
333.377	31.34
333.59	56.64
333.803	52.69
334.016	31.36
334.229	30.48
334.442	29.79
334.655	41.34
334.868	25.75
335.081	20.23
335.294	-3.03
335.507	-9.9
335.72	-15.33
335.933	-31.53
336.146	-27.33
336.359	-21.95
336.572	-61.15
336.785	-85.35
336.997	-73.3
337.21	-37.25
337.423	-35.15
337.636	-21.4
337.849	-13.14
338.062	-1.64
338.274	-23.95
338.487	-35.98
338.7	-44.83
338.913	-67.31
339.125	-99.78
339.338	-143.52
339.551	-114.42
339.763	-67.35
339.976	-47.3
340.189	-29.09
340.402	-25
340.614	-31.05
340.827	-39.74
341.039	-48.93
341.252	-29.17
341.465	-6.85
341.677	-8.05
341.89	-39.79
342.102	-19.75
342.315	-43.52
342.527	-72.62
342.74	-56.5
342.952	-13.06
343.165	-7.89
343.377	11.84
343.59	9.97
343.802	18.85
344.015	15.19
344.227	15.24
344.44	11.05
344.652	0.8
344.864	-5.92
345.077	16.67
345.289	19.92
345.502	25.44
345.714	28.43
345.926	32.46
346.139	17.51
346.351	24.82
346.563	22.01
346.775	34.67
346.988	18.59
347.2	-0.9
347.412	-68.45
347.624	-86.7
347.837	-121.41
348.049	-94.29
348.261	-18.18
348.473	5.65
348.685	-14.97
348.897	-14.61
349.11	-23.07
349.322	-73.02
349.534	-45.6
349.746	-11.97
349.958	-14.83
350.17	-23.69
350.382	1.62
350.594	-13.47
350.806	-23.15
351.018	-23.03
351.23	-51.18
351.442	-104.62
351.654	-103.5
351.866	-75.74
352.078	-31.61
352.29	4.86
352.502	18.4
352.714	32.32
352.926	12.98
353.138	-0.08
353.35	-13.23
353.561	-16.74
353.773	-38.52
353.985	-15.43
354.197	-16.42
354.409	-16.74
354.621	-27.63
354.832	-26.45
355.044	-47.53
355.256	-45.91
355.468	-28.68
355.679	-27.02
355.891	-19.93
356.103	-17.75
356.314	-29.31
356.526	-40.54
356.738	-29.92
356.949	-38.66
357.161	-19.31
357.373	-20.09
357.584	-22.96
357.796	-10.46
358.008	-11.25
358.219	1.94
358.431	0.85
358.642	5.52
358.854	-0.52
359.065	-8.65
359.277	-48.86
359.488	-42.51
359.7	-69.45
359.911	-93.97
360.123	-72.3
360.334	-71.88
360.546	-96.15
360.757	-75.36
360.969	-45.06
361.18	-38.17
361.391	-11.7
361.603	-20.6
361.814	-3.06
362.025	-17.28
362.237	-22.78
362.448	-24.06
362.659	2.92
362.871	-8.33
363.082	-5.65
363.293	-10.55
363.504	-23.73
363.716	-55.59
363.927	-66.47
364.138	-88.56
364.349	-97.61
364.56	-86.34
364.772	-72.63
364.983	-37.74
365.194	-33.02
365.405	-4
365.616	22.03
365.827	27.71
366.038	-9.34
366.25	-13.45
366.461	-69.16
366.672	-64.14
366.883	-41.14
367.094	-23.54
367.305	-28.63
367.516	-12.81
367.727	-47.72
367.938	-64.92
368.149	-67.58
368.36	-59.46
368.571	-54.27
368.781	-64.56
368.992	-68.93
369.203	-83.43
369.414	-98.6
369.625	-95.52
369.836	-71.09
370.047	-110.1
370.258	-83.43
370.468	-70.37
370.679	-92.6
370.89	-87.16
371.101	-47.18
371.312	-55.99
371.522	-54.72
371.733	-40.11
371.944	-27.68
372.155	-17.3
372.365	-28.3
372.576	-28.35
372.787	-37.76
372.997	-73.25
373.208	-86.52
373.419	-37.86
373.629	-65.59
373.84	-60.07
374.05	-66.59
374.261	-53.86
374.472	-95.49
374.682	-22.81
374.893	-24.17
375.103	26.86
375.314	14.47
375.524	10.55
375.735	-9.14
375.945	1.69
376.156	-34.14
376.366	-17.95
376.577	-13.55
376.787	-9.26
376.997	-6
377.208	3.62
377.418	-18.08
377.629	2.76
377.839	-9.16
378.049	-6.03
378.26	8.66
378.47	26.27
378.68	12.89
378.89	9.44
379.101	1.98
379.311	-27.45
379.521	-61.01
379.732	-59.6
379.942	-45.4
380.152	-61.15
380.362	-26.65
380.572	-18.75
380.783	-7.4
380.993	4.68
381.203	18.72
381.413	22.95
381.623	30.95
381.833	22.5
382.043	5.46
382.253	-14.26
382.463	-16.96
382.674	-34.42
382.884	-56.17
383.094	-51.61
383.304	-36.9
383.514	-33.54
383.724	-21.23
383.934	-21.86
384.144	-36.12
384.353	-43.48
384.563	-44.63
384.773	-34.51
384.983	-31.58
385.193	-15.35
385.403	-8.43
385.613	-6.05
385.823	-20.72
386.033	-16.28
386.242	-22.31
386.452	-25.21
386.662	-36.13
386.872	-22.1
387.082	-26
387.291	-26.8
387.501	-21.96
387.711	-14.67
387.921	-20.7
388.13	-16.78
388.34	-2.69
388.55	-8.36
388.759	-4.85
388.969	1.33
389.179	-2.61
389.388	-8.68
389.598	-6.39
389.807	-19.16
390.017	-23.59
390.227	-19.44
390.436	-20.68
390.646	-17.5
390.855	-9.16
391.065	-7.52
391.274	-9.45
391.484	-9.62
391.693	-8.38
391.903	-8.31
392.112	-3.26
392.322	-0.59
392.531	4.53
392.74	5.58
392.95	2.02
393.159	-1.54
393.369	-1.89
393.578	-4.42
393.787	-5.72
393.997	-3.75
394.206	-3.9
394.415	-3.81
394.625	-4.02
394.834	-6.71
395.043	-4
395.252	-1.58
395.462	0.52
395.671	1.68
395.88	3.8
396.089	2.85
396.298	1.01
396.508	0.29
396.717	0.36
396.926	0.36
397.135	0.14
397.344	0.66
397.553	1.49
397.762	2.48
397.971	2.68
398.181	2.71
398.39	2.54
398.599	1.52
398.808	0.72
399.017	1.51
399.226	3.02
399.435	3.71
399.644	3.93
399.853	3.67
400.062	2.95
400.27	2.21
400.479	1.81
400.688	1.3
400.897	1.52
401.106	1.69
401.315	1.4
401.524	1.51
401.733	2.44
401.941	2.96
402.15	2.95
402.359	2.91
402.568	3.32
402.777	3.11
402.985	2.83
403.194	3.04
403.403	3.07
403.612	2.42
403.82	2.12
404.029	2.15
404.238	1.74
404.446	2.06
404.655	2.02
404.864	2.03
405.072	1.83
405.281	2.22
405.489	1.76
405.698	1.85
405.906	1.98
406.115	2.04
406.324	2
406.532	2.33
406.741	2.6
406.949	2.47
407.158	2.32
407.366	2.24
407.574	2.05
407.783	1.96
407.991	1.78
408.2	2.18
408.408	2.12
408.617	2.04
408.825	1.9
409.033	2.13
409.242	1.99
409.45	2.17
409.658	2.16
409.867	2.4
410.075	2.22
410.283	2.04
410.491	1.87
410.7	1.87
410.908	1.73
411.116	2.06
411.324	2.11
411.533	2.07
411.741	2.28
411.949	2.29
412.157	2.04
412.365	2.03
412.573	1.99
412.781	1.95
412.99	1.83
413.198	1.99
413.406	2
413.614	2.12
413.822	1.92
414.03	1.99
414.238	1.66
414.446	1.76
414.654	1.5
414.862	1.69
415.07	1.69
415.278	1.98
415.486	1.83
415.694	2.04
415.902	1.97
416.109	1.86
416.317	1.84
416.525	1.72
416.733	1.65
416.941	1.77
417.149	1.72
417.357	1.83
417.564	2.02
417.772	2.26
417.98	2.16
418.188	2.24
418.395	2.21
418.603	2.35
418.811	1.87
419.019	1.81
419.226	2.05
419.434	2.03
419.642	1.77
419.849	2.15
420.057	2.08
420.265	2.01
420.472	1.76
420.68	1.75
420.887	1.57
421.095	1.67
421.302	1.55
421.51	1.8
421.717	1.93
421.925	2.05
422.132	1.98
422.34	1.83
422.547	1.86
422.755	1.76
422.962	1.59
423.17	1.48
423.377	1.49
423.585	1.3
423.792	1.27
423.999	1.41
424.207	1.47
424.414	1.64
424.621	1.83
424.829	1.85
425.036	1.66
425.243	1.7
425.451	1.46
425.658	1.15
425.865	1.36
426.072	1.63
426.28	1.9
426.487	2.02
426.694	2.24
426.901	2.04
427.108	2
427.315	1.76
427.523	1.99
427.73	1.98
427.937	1.85
428.144	1.61
428.351	1.55
428.558	1.59
428.765	1.46
428.972	1.56
429.179	1.73
429.386	2.08
429.593	1.81
429.8	1.81
430.007	1.84
430.214	1.87
430.421	1.48
430.628	1.41
430.835	1.27
431.042	1.39
431.249	1.47
431.456	1.54
431.662	1.65
431.869	1.82
432.076	1.98
432.283	2.02
432.49	2.12
432.697	2.28
432.903	2.12
433.11	1.93
433.317	2.05
433.524	2.28
433.73	2.11
433.937	2.45
434.144	2.38
434.35	2.34
434.557	2.1
434.764	2.15
434.97	2.03
435.177	2.28
435.384	2.08
435.59	2.19
435.797	2.46
436.003	2.55
436.21	2.46
436.416	2.66
436.623	2.61
436.829	2.57
437.036	2.6
437.242	2.57
437.449	2.49
437.655	2.5
437.862	2.48
438.068	2.45
438.275	2.58
438.481	2.72
438.687	2.72
438.894	2.68
439.1	2.64
439.307	2.78
439.513	2.69
439.719	2.72
439.926	2.8
440.132	2.81
440.338	2.54
440.544	2.68
440.751	2.64
440.957	2.65
441.163	2.57
441.369	2.69
441.575	2.47
441.782	2.48
441.988	2.3
442.194	2.39
442.4	2.43
442.606	2.72
442.812	2.88
443.018	3.14
443.224	3.21
443.431	3.3
443.637	3.03
443.843	2.84
444.049	2.78
444.255	2.73
444.461	2.77
444.667	2.76
444.873	3.03
445.079	2.98
445.284	3.07
445.49	2.89
445.696	2.83
445.902	2.63
446.108	2.61
446.314	2.47
446.52	2.53
446.726	2.83
446.931	2.89
447.137	2.95
447.343	3.12
447.549	3.06
447.755	2.86
447.96	2.9
448.166	2.81
448.372	2.72
448.578	2.79
448.783	2.83
448.989	2.89
449.195	3.05
449.4	3.09
449.606	3.03
449.812	3.02
450.017	3.06
450.223	2.93
450.428	2.83
450.634	3.01
450.84	3.16
451.045	3.07
451.251	3.1
451.456	3.39
451.662	3.37
451.867	3.39
452.073	3.44
452.278	3.56
452.483	3.59
452.689	3.53
452.894	3.51
453.1	3.5
453.305	3.46
453.51	3.36
453.716	3.32
453.921	3.32
454.127	3.25
454.332	3.18
454.537	3.03
454.742	3.08
454.948	3.08
455.153	3.13
455.358	3.17
455.563	3.47
455.769	3.54
455.974	3.5
456.179	3.42
456.384	3.46
456.589	3.33
456.795	3.1
457	3.13
457.205	3.37
457.41	3.29
457.615	3.26
457.82	3.38
458.025	3.35
458.23	3.16
458.435	3.27
458.64	3.22
458.845	3.43
459.05	3.35
459.255	3.42
459.46	3.36
459.665	3.32
459.87	3.29
460.075	3.41
460.28	3.35
460.485	3.45
460.69	3.53
460.895	3.34
461.099	3.25
461.304	3.41
461.509	3.48
461.714	3.43
461.919	3.62
462.123	3.53
462.328	3.57
462.533	3.44
462.738	3.56
462.942	3.47
463.147	3.73
463.352	3.71
463.556	3.68
463.761	3.63
463.966	3.64
464.17	3.58
464.375	3.51
464.58	3.53
464.784	3.53
464.989	3.47
465.193	3.45
465.398	3.51
465.602	3.61
465.807	3.62
466.011	3.72
466.216	3.72
466.42	3.74
466.625	3.87
466.829	3.96
467.034	4.05
467.238	4.24
467.443	4.18
467.647	3.95
467.851	4
468.056	4.05
468.26	3.95
468.464	4.02
468.669	4.24
468.873	4.31
469.077	4.26
469.282	4.33
469.486	4.36
469.69	4.32
469.894	4.16
470.099	4.24
470.303	4.33
470.507	4.25
470.711	4.12
470.915	4.17
471.119	4.07
471.324	4
471.528	4.03
471.732	4.16
471.936	4.11
472.14	4.23
472.344	4.22
472.548	4.31
472.752	4.51
472.956	4.76
473.16	4.68
473.364	4.63
473.568	4.58
473.772	4.57
473.976	4.45
474.18	4.45
474.384	4.55
474.588	4.49
474.792	4.34
474.995	4.44
475.199	4.53
475.403	4.59
475.607	4.66
475.811	4.69
476.015	4.72
476.218	4.75
476.422	4.73
476.626	4.79
476.83	4.88
477.033	4.85
477.237	4.81
477.441	4.81
477.644	4.79
477.848	4.79
478.052	4.79
478.255	4.85
478.459	4.92
478.663	5.1
478.866	5.13
479.07	5.15
479.273	5.21
479.477	5.23
479.681	5.16
479.884	5.18
480.088	5.14
480.291	5.1
480.495	5.17
480.698	5.12
480.901	5.15
481.105	5.31
481.308	5.29
481.512	5.23
481.715	5.35
481.919	5.37
482.122	5.36
482.325	5.43
482.529	5.46
482.732	5.51
482.935	5.39
483.138	5.32
483.342	5.4
483.545	5.51
483.748	5.45
483.952	5.55
484.155	5.69
484.358	5.71
484.561	5.63
484.764	5.68
484.967	5.79
485.171	5.85
485.374	5.73
485.577	5.81
485.78	5.83
485.983	5.79
486.186	5.6
486.389	5.61
486.592	5.64
486.795	5.69
486.998	5.63
487.201	5.81
487.404	5.96
487.607	5.97
487.81	5.88
488.013	5.95
488.216	5.91
488.419	5.89
488.622	5.83
488.825	5.79
489.028	5.74
489.231	5.72
489.433	5.66
489.636	5.6
489.839	5.64
490.042	5.63
490.245	5.58
490.447	5.63
490.65	5.67
490.853	5.71
491.056	5.75
491.258	5.82
491.461	5.82
491.664	5.91
491.866	5.85
492.069	5.98
492.272	5.9
492.474	5.93
492.677	5.97
492.879	6.08
493.082	6.08
493.285	6.31
493.487	6.28
493.69	6.16
493.892	6.02
494.095	6.03
494.297	5.92
494.5	5.99
494.702	6.05
494.905	6.2
495.107	6.12
495.309	6.13
495.512	6.15
495.714	6.26
495.917	6.33
496.119	6.4
496.321	6.48
496.524	6.51
496.726	6.45
496.928	6.41
497.13	6.36
497.333	6.38
497.535	6.4
497.737	6.39
497.939	6.33
498.142	6.43
498.344	6.37
498.546	6.29
498.748	6.33
498.95	6.54
499.152	6.45
499.355	6.53
499.557	6.61
499.759	6.71
499.961	6.6
500.163	6.65
500.365	6.63
500.567	6.73
500.769	6.61
500.971	6.6
501.173	6.56
501.375	6.62
501.577	6.55
501.779	6.6
501.981	6.61
502.183	6.66
502.385	6.59
502.587	6.52
502.788	6.59
502.99	6.65
503.192	6.76
503.394	6.79
503.596	6.89
503.798	7
503.999	7.07
504.201	7
504.403	7.09
504.605	7.14
504.806	6.99
505.008	6.97
505.21	7.11
505.411	7.08
505.613	7.06
505.815	7.14
506.016	7.21
506.218	7.27
506.42	7.32
506.621	7.34
506.823	7.37
507.024	7.33
507.226	7.21
507.427	7.19
507.629	7.26
507.83	7.33
508.032	7.31
508.233	7.41
508.435	7.48
508.636	7.5
508.838	7.44
509.039	7.5
509.24	7.52
509.442	7.56
509.643	7.5
509.845	7.56
510.046	7.66
510.247	7.67
510.448	7.66
510.65	7.79
510.851	7.93
511.052	7.85
511.254	7.9
511.455	8.03
511.656	8.05
511.857	8.05
512.058	8.12
512.26	8.12
512.461	8.06
512.662	8.13
512.863	8.08
513.064	8.07
513.265	8.09
513.466	8.12
513.667	8.08
513.868	8.14
514.069	8.27
514.27	8.36
514.471	8.32
514.672	8.32
514.873	8.28
515.074	8.26
515.275	8.19
515.476	8.19
515.677	8.25
515.878	8.38
516.079	8.4
516.28	8.44
516.481	8.59
516.682	8.59
516.882	8.47
517.083	8.43
517.284	8.4
517.485	8.4
517.686	8.34
517.886	8.39
518.087	8.45
518.288	8.49
518.488	8.43
518.689	8.47
518.89	8.41
519.091	8.38
519.291	8.36
519.492	8.45
519.692	8.52
519.893	8.64
520.094	8.7
520.294	8.73
520.495	8.7
520.695	8.71
520.896	8.66
521.096	8.69
521.297	8.74
521.497	8.73
521.698	8.71
521.898	8.77
522.099	8.74
522.299	8.81
522.499	8.86
522.7	8.88
522.9	8.86
523.101	8.92
523.301	8.91
523.501	8.86
523.702	8.88
523.902	9
524.102	9.07
524.302	9.04
524.503	9.13
524.703	9.18
524.903	9.2
525.103	9.14
525.304	9.23
525.504	9.34
525.704	9.35
525.904	9.28
526.104	9.24
526.304	9.21
526.504	9.17
526.705	9.19
526.905	9.3
527.105	9.36
527.305	9.32
527.505	9.24
527.705	9.2
527.905	9.21
528.105	9.17
528.305	9.18
528.505	9.29
528.705	9.44
528.905	9.4
529.105	9.49
529.304	9.6
529.504	9.69
529.704	9.55
529.904	9.6
530.104	9.6
530.304	9.69
530.503	9.64
530.703	9.66
530.903	9.64
531.103	9.68
531.303	9.58
531.502	9.58
531.702	9.73
531.902	9.78
532.101	9.75
532.301	9.79
532.501	9.87
532.7	9.79
532.9	9.77
533.1	9.82
533.299	9.85
533.499	9.84
533.698	9.86
533.898	9.83
534.097	9.87
534.297	9.94
534.496	9.98
534.696	10
534.895	10.22
535.095	10.29
535.294	10.2
535.494	10.15
535.693	10.2
535.892	10.17
536.092	10.09
536.291	10.15
536.491	10.23
536.69	10.26
536.889	10.2
537.088	10.21
537.288	10.24
537.487	10.33
537.686	10.35
537.886	10.4
538.085	10.52
538.284	10.63
538.483	10.53
538.682	10.57
538.882	10.64
539.081	10.63
539.28	10.53
539.479	10.59
539.678	10.57
539.877	10.64
540.076	10.68
540.275	10.76
540.474	10.83
540.673	10.89
540.872	10.86
541.071	10.93
541.27	10.91
541.469	10.98
541.668	11.02
541.867	11.1
542.066	11.15
542.265	11.28
542.464	11.25
542.663	11.28
542.862	11.38
543.06	11.45
543.259	11.53
543.458	11.63
543.657	11.74
543.856	11.73
544.054	11.71
544.253	11.6
544.452	11.64
544.651	11.69
544.849	11.67
545.048	11.78
545.247	11.93
545.445	11.97
545.644	11.97
545.843	12.07
546.041	12.08
546.24	12.14
546.438	12.23
546.637	12.26
546.836	12.39
547.034	12.5
547.233	12.53
547.431	12.56
547.63	12.64
547.828	12.66
548.027	12.66
548.225	12.65
548.423	12.69
548.622	12.77
548.82	12.78
549.019	12.86
549.217	13
549.415	13.06
549.614	13.16
549.812	13.19
550.01	13.15
550.209	13.25
550.407	13.37
550.605	13.37
550.803	13.48
551.002	13.64
551.2	13.65
551.398	13.71
551.596	13.92
551.794	14.04
551.993	14.16
552.191	14.27
552.389	14.36
552.587	14.44
552.785	14.43
552.983	14.54
553.181	14.65
553.379	14.8
553.577	14.85
553.775	14.98
553.973	15.04
554.171	15.13
554.369	15.12
554.567	15.15
554.765	15.32
554.963	15.39
555.161	15.37
555.359	15.45
555.557	15.66
555.755	15.7
555.952	15.88
556.15	15.98
556.348	16.11
556.546	16.23
556.744	16.28
556.941	16.33
557.139	16.45
557.337	16.52
557.535	16.48
557.732	16.66
557.93	16.84
558.128	16.96
558.325	17.19
558.523	17.26
558.721	17.37
558.918	17.34
559.116	17.41
559.313	17.43
559.511	17.67
559.708	17.68
559.906	17.79
560.104	17.98
560.301	18.1
560.498	18.08
560.696	18.18
560.893	18.39
561.091	18.49
561.288	18.64
561.486	18.81
561.683	19
561.88	19.09
562.078	19.2
562.275	19.2
562.473	19.39
562.67	19.63
562.867	19.77
563.064	19.96
563.262	20.08
563.459	20.16
563.656	20.2
563.853	20.22
564.051	20.18
564.248	20.36
564.445	20.56
564.642	20.63
564.839	20.91
565.036	21.29
565.234	21.44
565.431	21.45
565.628	21.6
565.825	21.71
566.022	21.72
566.219	21.89
566.416	22.13
566.613	22.28
566.81	22.34
567.007	22.37
567.204	22.33
567.401	22.32
567.598	22.39
567.795	22.4
567.991	22.54
568.188	22.78
568.385	22.98
568.582	23.07
568.779	23.3
568.976	23.49
569.172	23.54
569.369	23.51
569.566	23.64
569.763	23.73
569.96	23.68
570.156	23.75
570.353	23.79
570.55	23.92
570.746	23.92
570.943	24.02
571.14	24.13
571.336	24.26
571.533	24.34
571.729	24.38
571.926	24.41
572.123	24.46
572.319	24.58
572.516	24.49
572.712	24.58
572.909	24.62
573.105	24.78
573.302	24.81
573.498	24.98
573.695	24.97
573.891	25.06
574.087	25.04
574.284	24.95
574.48	24.89
574.677	24.91
574.873	25.02
575.069	25.15
575.266	25.31
575.462	25.33
575.658	25.56
575.854	25.66
576.051	25.56
576.247	25.49
576.443	25.53
576.639	25.42
576.835	25.28
577.032	25.32
577.228	25.48
577.424	25.56
577.62	25.52
577.816	25.58
578.012	25.64
578.208	25.54
578.404	25.54
578.6	25.64
578.796	25.63
578.993	25.58
579.189	25.6
579.384	25.58
579.58	25.44
579.776	25.4
579.972	25.38
580.168	25.31
580.364	25.3
580.56	25.41
580.756	25.4
580.952	25.39
581.148	25.41
581.343	25.49
581.539	25.54
581.735	25.59
581.931	25.63
582.127	25.7
582.322	25.63
582.518	25.6
582.714	25.57
582.909	25.56
583.105	25.52
583.301	25.5
583.496	25.64
583.692	25.62
583.888	25.62
584.083	25.76
584.279	25.77
584.474	25.64
584.67	25.72
584.866	25.83
585.061	25.57
585.257	25.64
585.452	25.62
585.648	25.55
585.843	25.49
586.039	25.66
586.234	25.64
586.429	25.56
586.625	25.62
586.82	25.55
587.015	25.52
587.211	25.42
587.406	25.59
587.601	25.58
587.797	25.54
587.992	25.49
588.187	25.7
588.383	25.66
588.578	25.68
588.773	25.81
588.968	25.85
589.163	25.87
589.359	25.89
589.554	25.92
589.749	25.91
589.944	25.97
590.139	25.97
590.334	25.99
590.529	26.02
590.724	26.04
590.919	26.12
591.114	26.1
591.309	26.25
591.504	26.37
591.699	26.37
591.894	26.48
592.089	26.47
592.284	26.43
592.479	26.54
592.674	26.61
592.869	26.69
593.064	26.81
593.259	26.96
593.454	27.03
593.648	27.1
593.843	27.05
594.038	27.22
594.233	27.2
594.428	27.14
594.622	27.3
594.817	27.54
595.012	27.53
595.206	27.64
595.401	27.75
595.596	27.8
595.79	27.92
595.985	28.07
596.18	28.23
596.374	28.26
596.569	28.37
596.763	28.32
596.958	28.39
597.153	28.4
597.347	28.49
597.542	28.56
597.736	28.62
597.931	28.67
598.125	28.73
598.319	28.87
598.514	28.88
598.708	28.99
598.903	29.05
599.097	29.13
599.291	29.19
599.486	29.24
599.68	29.2
599.874	29.28
600.069	29.33
600.263	29.33
600.457	29.39
600.651	29.51
600.846	29.53
601.04	29.69
601.234	29.76
601.428	29.79
601.622	29.87
601.817	29.91
602.011	29.88
602.205	30.01
602.399	30.07
602.593	30.13
602.787	30.22
602.981	30.16
603.175	30.24
603.369	30.24
603.563	30.24
603.757	30.35
603.951	30.49
604.145	30.38
604.339	30.52
604.533	30.46
604.727	30.34
604.921	30.27
605.115	30.33
605.309	30.31
605.502	30.26
605.696	30.26
605.89	30.16
606.084	30.08
606.278	30.03
606.471	30.07
606.665	29.95
606.859	29.93
607.053	29.89
607.246	29.83
607.44	29.87
607.634	29.93
607.827	29.93
608.021	29.89
608.214	29.79
608.408	29.67
608.602	29.69
608.795	29.66
608.989	29.69
609.182	29.64
609.376	29.56
609.569	29.37
609.763	29.22
609.956	29.06
610.15	29.07
610.343	28.99
610.537	28.93
610.73	28.96
610.923	28.88
611.117	28.67
611.31	28.61
611.504	28.48
611.697	28.26
611.89	28.12
612.083	28.13
612.277	28.14
612.47	28.13
612.663	28.1
612.856	28.14
613.05	28.08
613.243	27.96
613.436	27.81
613.629	27.73
613.822	27.59
614.015	27.54
614.209	27.37
614.402	27.35
614.595	27.3
614.788	27.25
614.981	27.04
615.174	26.83
615.367	26.66
615.56	26.65
615.753	26.52
615.946	26.47
616.139	26.55
616.332	26.74
616.525	26.69
616.718	26.84
616.911	26.89
617.103	26.94
617.296	26.8
617.489	26.67
617.682	26.46
617.875	26.34
618.067	26.26
618.26	26.22
618.453	26.23
618.646	26.24
618.838	26.34
619.031	26.43
619.224	26.38
619.417	26.31
619.609	26.34
619.802	26.2
619.994	26.09
620.187	26.07
620.38	26.05
620.572	25.87
620.765	25.91
620.957	25.79
621.15	25.61
621.342	25.53
621.535	25.63
621.727	25.59
621.92	25.57
622.112	25.55
622.305	25.6
622.497	25.49
622.69	25.44
622.882	25.43
623.074	25.55
623.267	25.47
623.459	25.37
623.651	25.3
623.844	25.31
624.036	25.25
624.228	25.24
624.42	25.27
624.613	25.38
624.805	25.3
624.997	25.27
625.189	25.26
625.381	25.25
625.574	25.12
625.766	25.06
625.958	25.03
626.15	25
626.342	24.96
626.534	25.01
626.726	24.95
626.918	25
627.11	24.89
627.302	24.92
627.494	24.74
627.686	24.77
627.878	24.57
628.07	24.63
628.262	24.53
628.454	24.61
628.646	24.65
628.838	24.79
629.029	24.65
629.221	24.76
629.413	24.59
629.605	24.41
629.797	24.26
629.989	24.28
630.18	24.15
630.372	24.18
630.564	24.18
630.755	24.21
630.947	24.27
631.139	24.13
631.33	24.01
631.522	24.06
631.714	24.04
631.905	23.93
632.097	23.86
632.289	23.86
632.48	23.74
632.672	23.61
632.863	23.46
633.055	23.51
633.246	23.49
633.438	23.44
633.629	23.42
633.821	23.44
634.012	23.38
634.203	23.31
634.395	23.39
634.586	23.43
634.777	23.41
634.969	23.43
635.16	23.46
635.351	23.29
635.543	23.19
635.734	23.19
635.925	23.13
636.117	23.16
636.308	23.31
636.499	23.27
636.69	23.19
636.881	23.18
637.073	23.24
637.264	23.06
637.455	23.15
637.646	23.21
637.837	23.15
638.028	23
638.219	23.12
638.41	22.99
638.601	22.93
638.792	23.05
638.983	23.01
639.174	22.82
639.365	22.89
639.556	22.78
639.747	22.59
639.938	22.64
640.129	22.62
640.32	22.49
640.511	22.57
640.701	22.68
640.892	22.61
641.083	22.77
641.274	22.79
641.465	22.81
641.655	22.66
641.846	22.58
642.037	22.39
642.228	22.38
642.418	22.32
642.609	22.43
642.8	22.5
642.99	22.45
643.181	22.43
643.372	22.42
643.562	22.3
643.753	22.2
643.943	22.25
644.134	22.12
644.324	22.08
644.515	22.04
644.705	22.08
644.896	22.06
645.086	22.12
645.277	22.08
645.467	22.14
645.658	22.09
645.848	22.01
646.038	21.98
646.229	21.98
646.419	21.85
646.61	21.67
646.8	21.63
646.99	21.66
647.18	21.57
647.371	21.61
647.561	21.72
647.751	21.71
647.941	21.5
648.132	21.5
648.322	21.41
648.512	21.36
648.702	21.38
648.892	21.51
649.082	21.51
649.272	21.43
649.462	21.28
649.653	21.21
649.843	21.15
650.033	21.16
650.223	21.17
650.413	21.29
650.603	21.37
650.793	21.34
650.983	21.34
651.172	21.26
651.362	21.18
651.552	20.97
651.742	20.93
651.932	20.8
652.122	20.84
652.312	20.9
652.502	20.91
652.691	20.81
652.881	20.66
653.071	20.64
653.261	20.41
653.45	20.34
653.64	20.33
653.83	20.23
654.019	20.03
654.209	20.13
654.399	19.97
654.588	19.87
654.778	19.89
654.968	19.68
655.157	19.44
655.347	19.38
655.536	19.1
655.726	18.86
655.915	18.76
656.105	18.67
656.294	18.59
656.484	18.53
656.673	18.52
656.863	18.46
657.052	18.16
657.241	17.71
657.431	17.5
657.62	17.14
657.809	16.75
657.999	16.61
658.188	16.52
658.377	16.28
658.567	16.23
658.756	16.03
658.945	15.81
659.134	15.61
659.324	15.51
659.513	15.2
659.702	14.99
659.891	14.84
660.08	14.6
660.269	14.46
660.458	14.25
660.648	14.23
660.837	14.05
661.026	13.98
661.215	13.7
661.404	13.47
661.593	13.27
661.782	12.93
661.971	12.76
662.16	12.6
662.349	12.53
662.538	12.36
662.726	12.4
662.915	12.17
663.104	12.04
663.293	11.92
663.482	11.82
663.671	11.59
663.86	11.41
664.048	11.22
664.237	11.13
664.426	10.8
664.615	10.72
664.803	10.63
664.992	10.43
665.181	10.22
665.369	10.17
665.558	10.01
665.747	9.87
665.935	9.89
666.124	9.89
666.312	9.86
666.501	9.69
666.69	9.59
666.878	9.5
667.067	9.34
667.255	9.35
667.444	9.61
667.632	9.69
667.82	9.64
668.009	9.52
668.197	9.35
668.386	9.15
668.574	9.22
668.762	9.11
668.951	9.09
669.139	9.08
669.327	8.93
669.516	8.88
669.704	8.82
669.892	8.96
670.08	9.04
670.269	8.96
670.457	8.73
670.645	8.55
670.833	8.54
671.021	8.44
671.21	8.55
671.398	8.8
671.586	8.92
671.774	8.83
671.962	8.88
672.15	8.88
672.338	8.67
672.526	8.84
672.714	8.75
672.902	8.77
673.09	8.95
673.278	9.1
673.466	8.98
673.654	9.2
673.842	9.17
674.03	9.16
674.218	9.1
674.405	9.15
674.593	9.07
674.781	9.24
674.969	9.16
675.157	9.36
675.344	9.55
675.532	9.61
675.72	9.63
675.908	9.73
676.095	9.61
676.283	9.68
676.471	9.91
676.658	9.99
676.846	10.02
677.033	10.34
677.221	10.44
677.409	10.34
677.596	10.37
677.784	10.41
677.971	10.37
678.159	10.39
678.346	10.57
678.534	10.74
678.721	11.04
678.909	11.13
679.096	11.14
679.283	11.38
679.471	11.57
679.658	11.63
679.846	11.83
680.033	12.27
680.22	12.28
680.408	12.29
680.595	12.41
680.782	12.46
680.969	12.46
681.157	12.61
681.344	12.85
681.531	12.98
681.718	13.15
681.905	13.29
682.093	13.55
682.28	13.82
682.467	14.2
682.654	14.49
682.841	14.71
683.028	14.99
683.215	15.16
683.402	15.19
683.589	15.54
683.776	15.82
683.963	15.9
684.15	16.19
684.337	16.6
684.524	16.83
684.711	17.16
684.898	17.35
685.085	17.57
685.271	17.98
685.458	18.28
685.645	18.59
685.832	19.23
686.019	19.8
686.205	20.03
686.392	20.51
686.579	20.92
686.766	21.3
686.952	21.66
687.139	22.44
687.326	22.85
687.512	23.32
687.699	23.9
687.886	24.35
688.072	24.53
688.259	25.03
688.445	25.63
688.632	25.9
688.818	26.74
689.005	27.42
689.191	28.09
689.378	28.91
689.564	29.84
689.751	30.23
689.937	30.67
690.124	31.37
690.31	31.73
690.496	32.27
690.683	32.94
690.869	33.64
691.055	34.2
691.242	35.18
691.428	35.82
691.614	36.54
691.8	37.46
691.987	38.21
692.173	38.73
692.359	39.48
692.545	40.26
692.731	40.74
692.918	41.65
693.104	42.38
693.29	43.26
693.476	43.91
693.662	44.7
693.848	45.26
694.034	45.92
694.22	46.31
694.406	46.98
694.592	47.96
694.778	48.58
694.964	49.09
695.15	49.86
695.336	50.38
695.522	51.06
695.708	51.61
695.894	52.36
696.08	52.98
696.265	53.84
696.451	54.23
696.637	55.05
696.823	55.61
697.009	56.24
697.194	56.8
697.38	57.15
697.566	57.58
697.751	58.29
697.937	58.9
698.123	59.7
698.308	60.73
698.494	61.44
698.68	61.91
698.865	62.37
699.051	62.71
699.236	62.87
699.422	63.23
699.607	63.63
699.793	64.16
699.978	64.43
700.164	64.98
700.349	65.53
700.535	66.07
700.72	66.44
700.906	67.31
701.091	67.64
701.276	68.09
701.462	68.86
701.647	69.64
701.832	69.91
702.018	70.34
702.203	70.56
702.388	70.49
702.573	70.58
702.759	71.12
702.944	71.58
703.129	71.88
703.314	72.13
703.499	72.35
703.684	72.47
703.87	73.39
704.055	74.21
704.24	74.75
704.425	75.51
704.61	75.96
704.795	75.71
704.98	75.58
705.165	75.61
705.35	75.89
705.535	76.01
705.72	76.15
705.905	76.9
706.09	77.82
706.275	77.71
706.459	77.89
706.644	78.04
706.829	78.01
707.014	77.54
707.199	77.96
707.384	78.22
707.568	78.36
707.753	79.01
707.938	79.38
708.123	79.04
708.307	79.22
708.492	79.55
708.677	78.99
708.861	78.89
709.046	79.13
709.231	79.68
709.415	80.07
709.6	80.19
709.784	80.51
709.969	81.04
710.153	80.36
710.338	80.42
710.522	80.54
710.707	80.95
710.891	80.81
711.076	81.35
711.26	81.01
711.445	81.46
711.629	81.48
711.813	81.95
711.998	82.36
712.182	82.57
712.366	83.16
712.551	83.89
712.735	84.07
712.919	83.92
713.103	84.2
713.288	83.52
713.472	82.98
713.656	83.39
713.84	83.12
714.024	83.37
714.208	83.45
714.393	83.75
714.577	83.79
714.761	84.08
714.945	84.33
715.129	84.7
715.313	84.97
715.497	84.37
715.681	84.96
715.865	84.54
716.049	84.65
716.233	84.44
716.417	84.65
716.601	84.18
716.785	84.22
716.968	84.61
717.152	84.87
717.336	84.66
717.52	85
717.704	85.55
717.888	85.46
718.071	85.38
718.255	86.09
718.439	86.05
718.622	86.09
718.806	86
718.99	85.52
719.174	85.48
719.357	85.44
719.541	85.42
719.724	85.44
719.908	86.79
720.092	87.16
720.275	87.64
720.459	87.44
720.642	87.05
720.826	86.07
721.009	85.49
721.193	85.09
721.376	85.64
721.559	86.11
721.743	86.62
721.926	87.62
722.11	87.89
722.293	87.65
722.476	87.47
722.66	87.18
722.843	86.23
723.026	85.83
723.21	86.13
723.393	87.03
723.576	86.96
723.759	87.01
723.942	87.09
724.126	86.94
724.309	86.92
724.492	87.03
724.675	86.84
724.858	87.65
725.041	87.81
725.224	87.72
725.407	88.12
725.59	88.87
725.774	88.11
725.957	87.51
726.14	87.22
726.322	87.54
726.505	86.99
726.688	87.71
726.871	87.28
727.054	87.37
727.237	87.09
727.42	87.88
727.603	88.08
727.786	89.36
727.968	89.58
728.151	89.67
728.334	89.09
728.517	89.2
728.699	89.19
728.882	88.35
729.065	88.35
729.248	88.94
729.43	88.77
729.613	89.56
729.796	91.16
729.978	91.37
730.161	91.23
730.343	90.73
730.526	90.62
730.708	89.37
730.891	89.33
731.073	89.52
731.256	89.82
731.438	89.17
731.621	90.72
731.803	90.88
731.986	91.23
732.168	90.85
732.35	91.62
732.533	90.64
732.715	90.47
732.898	90.84
733.08	91.26
733.262	91.48
733.444	91.39
733.627	91.51
733.809	91.94
733.991	92.78
734.173	92.33
734.355	92.72
734.538	92.73
734.72	91.81
734.902	91.93
735.084	91.02
735.266	90.87
735.448	91.92
735.63	91.87
735.812	91.75
735.994	94.08
736.176	94.97
736.358	93.77
736.54	94.41
736.722	93.42
736.904	92.22
737.086	92.31
737.268	93.55
737.45	93.53
737.632	93.62
737.814	92.86
737.995	91.83
738.177	91.54
738.359	90.25
738.541	90.97
738.723	91.31
738.904	92.12
739.086	92.05
739.268	93.31
739.449	93.68
739.631	93.94
739.813	94.13
739.994	94.27
740.176	94.33
740.358	93.76
740.539	95.09
740.721	95.13
740.902	95.75
741.084	95.53
741.265	95.48
741.447	94.82
741.628	94.56
741.81	93.1
741.991	93.66
742.172	95.17
742.354	95.7
742.535	95.71
742.717	97.42
742.898	97.91
743.079	97.55
743.261	96.78
743.442	96.58
743.623	97.8
743.804	97.95
743.986	98.37
744.167	96.99
744.348	96.47
744.529	94.53
744.71	92.74
744.891	92.17
745.073	92.88
745.254	92.27
745.435	91.46
745.616	91.21
745.797	90.66
745.978	91.01
746.159	91.97
746.34	91.48
746.521	93.65
746.702	93.13
746.883	93.31
747.064	93.08
747.245	94.17
747.426	92.65
747.606	92.95
747.787	92.79
747.968	92.6
748.149	93.21
748.33	93.18
748.51	92.67
748.691	92.71
748.872	93.8
749.053	93.06
749.233	93.15
749.414	93.14
749.595	92.47
749.775	91.23
749.956	90.58
750.137	89.86
750.317	91.31
750.498	92.84
750.678	93.69
750.859	94.2
751.04	94.99
751.22	93.26
751.4	92.57
751.581	91.52
751.761	91.67
751.942	91.93
752.122	91.32
752.303	89.62
752.483	89.59
752.663	89.51
752.844	87.79
753.024	89.6
753.204	91.1
753.385	90.71
753.565	90.14
753.745	91.35
753.925	90.55
754.106	89.76
754.286	90.04
754.466	90.2
754.646	90.7
754.826	89.32
755.006	88.09
755.187	88.67
755.367	89.76
755.547	90.31
755.727	92.53
755.907	94.52
756.087	95.52
756.267	93.42
756.447	92.82
756.627	90.74
756.807	91.14
756.987	89.39
757.167	91.83
757.346	91.42
757.526	91.4
757.706	92.48
757.886	94.76
758.066	94.33
758.246	96.64
758.425	97.02
758.605	94.49
758.785	93.25
758.965	93.35
759.144	90.46
759.324	90.4
759.504	91.25
759.683	91.67
759.863	90.17
760.043	89.05
760.222	89.74
760.402	89.07
760.581	88.14
760.761	89.71
760.94	89.59
761.12	91.4
761.299	92
761.479	92.53
761.658	90.44
761.838	91.4
762.017	89.9
762.197	88.94
762.376	88.71
762.555	90.69
762.735	91.76
762.914	89.98
763.093	91.61
763.273	89.75
763.452	88.49
763.631	87.55
763.81	88.11
763.99	86.54
764.169	87.41
764.348	84.85
764.527	84.66
764.706	87.55
764.885	89.47
765.064	89.23
765.243	92.59
765.423	93.27
765.602	91.88
765.781	89.16
765.96	88.2
766.139	85.58
766.318	86.01
766.497	83.2
766.676	84.49
766.854	87.75
767.033	89.41
767.212	87.88
767.391	89.84
767.57	90.94
767.749	89.49
767.928	90.28
768.106	89.77
768.285	88.86
768.464	88.47
768.643	88.07
768.821	86.52
769	87.9
769.179	87.48
769.357	85.57
769.536	84.5
769.715	84.48
769.893	86.9
770.072	85.94
770.25	85.86
770.429	87.09
770.607	89.07
770.786	86.6
770.964	89.02
771.143	89.38
771.321	89.58
771.5	89.49
771.678	88.27
771.857	87.03
772.035	86.12
772.213	85.82
772.392	82.47
772.57	83.44
772.748	84.37
772.927	84.61
773.105	83.17
773.283	86.34
773.461	85.62
773.64	85.6
773.818	85.03
773.996	87.28
774.174	84.54
774.352	82.62
774.531	78.02
774.709	81.38
774.887	79.82
775.065	79.94
775.243	82.27
775.421	86.7
775.599	86.98
775.777	84.72
775.955	83.27
776.133	80.2
776.311	79.95
776.489	75.7
776.667	77.53
776.844	79.29
777.022	77.82
777.2	76.83
777.378	76.67
777.556	77.67
777.734	77.9
777.911	82.46
778.089	80.83
778.267	82.34
778.445	79.06
778.622	79.34
778.8	79.23
778.978	82.35
779.155	82.61
779.333	84.95
779.511	82.45
779.688	82.02
779.866	78.16
780.043	73.73
780.221	72.52
780.398	71.97
780.576	73.37
780.753	75.03
780.931	76.08
781.108	74.97
781.286	79.77
781.463	76.05
781.64	73.43
781.818	76.74
781.995	79.39
782.172	75.33
782.35	74.96
782.527	77.36
782.704	75.29
782.882	77.47
783.059	75.71
783.236	78.09
783.413	81.05
783.59	82.75
783.768	77.61
783.945	82.87
784.122	83.35
784.299	81.34
784.476	79.13
784.653	77.77
784.83	75.55
785.007	70.99
785.184	71.94
785.361	71.89
785.538	79.71
785.715	80.4
785.892	81.61
786.069	82.31
786.246	85.16
786.423	77.98
786.6	76.4
786.776	80.47
786.953	77
787.13	78.6
787.307	81.45
787.484	81.2
787.66	80.94
787.837	81.22
788.014	76.13
788.191	74.18
788.367	71.79
788.544	72.6
788.721	72.74
788.897	74.71
789.074	77.26
789.25	77.17
789.427	75.84
789.603	75.45
789.78	76.99
789.956	73.27
790.133	73.45
790.309	74.96
790.486	80.07
790.662	74.04
790.839	77.52
791.015	78.71
791.192	73.33
791.368	71.2
791.544	72.28
791.721	69.85
791.897	69.14
792.073	69.24
792.249	62.21
792.426	66.36
792.602	69.29
792.778	70.32
792.954	73
793.13	76.2
793.307	68.84
793.483	61.1
793.659	58.65
793.835	59.45
794.011	55.51
794.187	57.58
794.363	55.8
794.539	63.39
794.715	57.04
794.891	59.92
795.067	61.45
795.243	69.93
795.419	65.03
795.595	64.86
795.771	67.97
795.947	69.63
796.122	66.27
796.298	70.12
796.474	76.78
796.65	76.15
796.826	73.26
797.001	73.91
797.177	64.18
797.353	64.74
797.529	63.88
797.704	62.87
797.88	61.85
798.056	61.14
798.231	54.74
798.407	57.71
798.582	58.92
798.758	63.83
798.934	74.91
799.109	76.87
799.285	72.68
799.46	76.8
799.636	73.24
799.811	67.94
799.986	72.32
800.162	73.09
800.337	72.77
800.513	71.6
800.688	75.15
800.863	82.03
801.039	77.5
801.214	72.2
801.389	76.14
801.565	69.16
801.74	53.21
801.915	62.87
802.09	66.22
802.265	69.58
802.441	69.13
802.616	72.5
802.791	71.62
802.966	69.88
803.141	66.77
803.316	65.72
803.491	69.72
803.666	67.69
803.841	66.22
804.016	59.87
804.191	60.33
804.366	56.64
804.541	54.94
804.716	49.82
804.891	46.37
805.066	53.42
805.241	52.28
805.416	51.39
805.591	54.67
805.765	61.9
805.94	64.65
806.115	61.47
806.29	54.6
806.464	58.61
806.639	54.35
806.814	42.42
806.989	36.2
807.163	53
807.338	51.46
807.512	47.25
807.687	39.22
807.862	58.07
808.036	51.99
808.211	54.84
808.385	68.95
808.56	80.75
808.734	84.24
808.909	75.12
809.083	68.87
809.258	71.89
809.432	75.66
809.606	52.7
809.781	52.77
809.955	58.98
810.13	51.42
810.304	43.54
810.478	44.84
810.652	58.81
810.827	58.98
811.001	53.34
811.175	46.55
811.349	52.08
811.524	42.49
811.698	29.26
811.872	33.21
812.046	47.6
812.22	57.4
812.394	57.67
812.568	62.17
812.742	62.39
812.916	49.57
813.09	37.93
813.264	29.86
813.438	39.16
813.612	32.99
813.786	30.97
813.96	37.17
814.134	41.59
814.308	51.69
814.482	69.32
814.656	74.6
814.83	74.53
815.003	76.47
815.177	57.59
815.351	45.7
815.525	48.46
815.698	46.55
815.872	40.32
816.046	31.51
816.219	35.92
816.393	50.9
816.567	55.27
816.74	59.23
816.914	66.42
817.088	74.98
817.261	58.59
817.435	45.05
817.608	38.72
817.782	38.32
817.955	29.91
818.129	29.13
818.302	37.68
818.475	60.55
818.649	61.96
818.822	49.62
818.996	67.04
819.169	61.91
819.342	43.27
819.516	54.15
819.689	71.4
819.862	54.95
820.035	43.93
820.209	46.62
820.382	42.48
820.555	41.04
820.728	41.42
820.901	42.48
821.075	37.65
821.248	40.38
821.421	25.13
821.594	20.88
821.767	51.3
821.94	66.45
822.113	37.26
822.286	44.86
822.459	46.36
822.632	22.26
822.805	8.38
822.978	19.41
823.151	8.53
823.324	9.6
823.496	1.75
823.669	0.5
823.842	15.99
824.015	6.39
824.188	-5.42
824.361	-0.81
824.533	-10.9
824.706	-12.28
824.879	-3.93
825.051	10.64
825.224	13.96
825.397	7.15
825.569	1.19
825.742	23.63
825.915	34.64
826.087	53.09
826.26	37.16
826.432	34.3
826.605	24.39
826.777	10.42
826.95	-2.92
827.122	-1.76
827.295	5.01
827.467	5.1
827.64	-29.6
827.812	-31.99
827.984	-32.14
828.157	-56.91
828.329	-97.08
828.501	-68.65
828.674	-32.74
828.846	-42.49
829.018	3.12
829.19	-12.34
829.363	14.79
829.535	3.6
829.707	16.91
829.879	-9.35
830.051	-10.58
830.223	-19.34
830.395	-46.18
830.568	-46.45
830.74	-45.16
830.912	1.17
831.084	-5.26
831.256	-4.64
831.428	-14.1
831.6	-31.72
831.772	-86.13
831.943	-117.23
832.115	-73.62
832.287	-44
832.459	-22.35
832.631	7.83
832.803	43.59
832.975	63.71
833.146	34.73
833.318	26.7
833.49	42.68
833.662	18.11
833.833	-14.68
834.005	10.28
834.177	14.69
834.348	11.7
834.52	-12.18
834.692	-19.83
834.863	-86.72
835.035	-62.76
835.206	-119.82
835.378	-64.69
835.549	-46.23
835.721	-18.67
835.892	-19.31
836.064	-7.46
836.235	-14.75
836.407	9.8
836.578	9.23
836.749	14.96
836.921	-15.98
837.092	-20.55
837.264	-42.78
837.435	-58.43
837.606	-13.12
837.777	15.73
837.949	16.31
838.12	15.28
838.291	23.9
838.462	2.52
838.633	-28.6
838.805	-14.13
838.976	-13.31
839.147	-58.47
839.318	-73.4
839.489	-116.8
839.66	-117.15
839.831	-51.08
840.002	-47.23
840.173	-68.9
840.344	-8.57
840.515	-26.41
840.686	-217.59
840.857	-135.33
841.028	-124.27
841.199	-74.87
841.369	-88.49
841.54	-73.51
841.711	-43.01
841.882	-19.55
842.053	-22.4
842.223	-21.64
842.394	-3.6
842.565	15.92
842.736	12.63
842.906	2.41
843.077	12.78
843.248	45.03
843.418	24.84
843.589	2.04
843.759	63.14
843.93	59.97
844.101	7.9
844.271	22.21
844.442	31.88
844.612	27.77
844.783	-1.7
844.953	-41.14
845.123	-60.33
845.294	-58.07
845.464	-271.04
845.635	-103.43
845.805	-41.87
845.975	-8.06
846.146	-59.54
846.316	-35.65
846.486	-16.52
846.656	24.62
846.827	9.77
846.997	10.15
847.167	37.78
847.337	16
847.507	-38.93
847.677	-54.28
847.848	14.93
848.018	3.01
848.188	-2.21
848.358	-16.75
848.528	-29.22
848.698	-86.44
848.868	-199.31
849.038	-337.61
849.208	-150.42
849.378	-129.27
849.548	-84.2
849.718	-40.55
849.887	-13.85
850.057	-40.41
850.227	-64.06
850.397	-105.54
850.567	-268.57
850.737	-531.74
850.906	-1596.25
851.076	-1000
851.246	-453.4
851.415	-32.29
851.585	-47.15
851.755	-73.02
851.924	-43.09
852.094	-81.01
852.264	-208.19
852.433	-1121.15
852.603	-195.79
852.772	-121.5
852.942	-100.45
853.111	-81.18
853.281	-53.28
853.45	-38.47
853.62	-98.47
853.789	-78.96
853.959	-71.37
854.128	-103.8
854.297	-97.69
854.467	-126.49
854.636	-146.79
854.805	-53.65
854.975	-49.71
855.144	-89.32
855.313	-47.55
855.482	-351.82
855.652	-305.99
855.821	-261.34
855.99	-57.2
856.159	-4.3
856.328	22.26
856.497	0.87
856.667	13.85
856.836	-8.98
857.005	-46.62
857.174	-90.37
857.343	-63.98
857.512	-36.82
857.681	-105.97
857.85	-148.76
858.019	-63.22
858.188	-63.6
858.356	-82.01
858.525	-112.03
858.694	-72.96
858.863	-171.4
859.032	-128.55
859.201	-227.39
859.369	-126.02
859.538	-125.53
859.707	-106.46
859.876	-194.68
860.044	-144.53
860.213	-3.63
860.382	-31.69
860.55	-9.26
860.719	44.15
860.888	40.66
861.056	-24.32
861.225	-16.68
861.393	-3.8
861.562	-33.82
861.73	-109.96
861.899	-327.75
862.067	-2882.76
862.236	-191
862.404	-390.49
862.572	-257.8
862.741	-109.72
862.909	-97.76
863.078	-227.4
863.246	-157.95
863.414	-155.49
863.582	-145.12
863.751	-188.24
863.919	-188.35
864.087	-125.23
864.255	-135.83
864.424	-586.45
864.592	-135.32
864.76	-202.84
864.928	-788.8
865.096	-388.54
865.264	-246.36
865.432	-2718.18
865.6	-319
865.768	-170.94
865.936	-157.86
866.104	-198.22
866.272	-229.38
866.44	-467.32
866.608	892.93
866.776	417.44
866.944	4183.72
867.112	-778.81
867.28	-327.48
867.448	-126.97
867.615	-50.39
867.783	-11.6
867.951	-20.68
868.119	43.13
868.286	35.86
868.454	-82.92
868.622	-158.71
868.789	-200.38
868.957	-4814.29
869.125	-2886.84
869.292	-220.88
869.46	-317.5
869.627	-68.35
869.795	-75.68
869.963	-46.08
870.13	-29.2
870.298	-6.62
870.465	-131.16
870.632	-142.7
870.8	-94.99
870.967	-146.83
871.135	-200.17
871.302	-136.14
871.469	-169.03
871.637	-222.78
871.804	-163.04
871.971	-201.38
872.139	-553.49
872.306	-25
872.473	-96.86
872.64	-348.5
872.807	-102.92
872.975	-24.54
873.142	-394.55
873.309	3208.11
873.476	-51.31
873.643	4.94
873.81	-22.39
873.977	-0.29
874.144	42.63
874.311	-97.88
874.478	-140.17
874.645	-174.74
874.812	-84.42
874.979	-34.82
875.146	-75.86
875.313	-132.7
875.48	-21.85
875.647	-28.61
875.813	-96.87
875.98	-49.19
876.147	-61.52
876.314	-139.34
876.481	1033.06
876.647	-1121.35
876.814	467.36
876.981	-68.85
877.147	-29.78
877.314	-29.29
877.481	-21.87
877.647	-23.01
877.814	-56.75
877.98	-168.98
878.147	-83.24
878.314	-8.17
878.48	-35.68
878.647	-31.34
878.813	59.6
878.979	39.46
879.146	-15.78
879.312	-41.94
879.479	-122.92
879.645	-308.09
879.811	-586.44
879.978	-1332.06
880.144	-373.88
880.31	-187.99
880.477	-436.47
880.643	-509.86
880.809	-221.14
880.975	-181.08
881.142	-1049.09
881.308	-131.64
881.474	-39.03
881.64	-80.78
881.806	-175.17
881.972	-63.77
882.138	-97.05
882.304	-91.35
882.47	-237.67
882.636	-810.66
882.802	-257.64
882.968	-35.25
883.134	-46.01
883.3	-45.73
883.466	14.24
883.632	43.93
883.798	-16.6
883.964	-33.26
884.129	2.01
884.295	-18.18
884.461	-88.33
884.627	-76.41
884.793	-109.75
884.958	-94.94
885.124	-169.33
885.29	-255.53
885.455	-350.49
885.621	-55.84
885.787	-107.71
885.952	-88.78
886.118	-85.28
886.283	-101.98
886.449	-224.58
886.614	-250
886.78	-375.77
886.945	1680.33
887.111	-833.53
887.276	-618.18
887.442	-945.45
887.607	-493.4
887.773	-372.29
887.938	-283.29
888.103	-390.71
888.269	-287.95
888.434	-484.32
888.599	-154.03
888.764	-86.52
888.93	-22.89
889.095	-53.92
889.26	-114.2
889.425	-79.82
889.59	-86.86
889.756	-131.61
889.921	-84.84
890.086	-9.83
890.251	-66.5
890.416	-228.38
890.581	-1953.23
890.746	321.07
890.911	624.2
891.076	232.71
891.241	-818.66
891.406	-48.24
891.571	-129.86
891.736	-464.68
891.901	-872.57
892.065	951.65
892.23	243.65
892.395	323.29
892.56	444.51
892.725	-538.28
892.889	-1446.34
893.054	-198.42
893.219	-87.81
893.384	-60.92
893.548	-141.99
893.713	-161.37
893.878	-136.45
