Data from Ofra_2a_PS_9GT30_Reflection_1.txt Node
Date: Tue Jul 20 10:00:06 EDT 2021
User: Adam
Spectrometer: FLMT01687
Trigger mode: 0
Integration Time (sec): 9.450000E-1
Scans to average: 3
Electric dark correction enabled: true
Nonlinearity correction enabled: false
Boxcar width: 3
XAxis mode: Wavelengths
Number of Pixels in Spectrum: 3648
>>>>>Begin Spectral Data<<<<<
179.494	1193.49
179.716	676.76
179.937	645.05
180.158	2795.31
180.38	-1459.3
180.601	-212.27
180.823	-51.23
181.044	116.73
181.265	-57.89
181.486	-79.44
181.708	-1765.22
181.929	-167.91
182.15	-370.45
182.372	40.43
182.593	75.34
182.814	353.29
183.035	398.76
183.257	179.94
183.478	125.47
183.699	95.12
183.92	66.12
184.141	68.04
184.363	44.65
184.584	23.89
184.805	18.7
185.026	-4.72
185.247	-28.52
185.468	-26.5
185.689	-28.8
185.91	-15.2
186.132	-3.28
186.353	-9.84
186.574	8.57
186.795	-1.23
187.016	4.07
187.237	8.4
187.458	-4.12
187.679	-27.79
187.9	-5.07
188.121	-0.06
188.342	22.34
188.563	29.24
188.784	21.2
189.005	34.07
189.226	44.36
189.447	33.77
189.667	14.83
189.888	26.4
190.109	22.15
190.33	12.66
190.551	-2.65
190.772	-6.79
190.993	13.19
191.214	4.25
191.434	-0.98
191.655	4.96
191.876	23.6
192.097	22.77
192.318	22.98
192.538	19.82
192.759	37.7
192.98	27.52
193.201	27.72
193.421	20.42
193.642	36.98
193.863	38.69
194.083	29.4
194.304	17.28
194.525	37.24
194.745	16.67
194.966	20.23
195.187	15.21
195.407	21.29
195.628	14.31
195.848	14.43
196.069	-0.53
196.29	16.23
196.51	15.34
196.731	23.68
196.951	28.43
197.172	24.75
197.392	24.11
197.613	25.65
197.833	15.71
198.054	6.06
198.274	-16.13
198.495	-6.88
198.715	-15.01
198.936	-23.8
199.156	-13.8
199.377	-10.65
199.597	-3.27
199.817	1.86
200.038	-22.33
200.258	-12.41
200.479	2.58
200.699	-0.44
200.919	-14.61
201.14	-14.61
201.36	-8.01
201.58	10.04
201.801	21.19
202.021	5
202.241	14.33
202.461	29.18
202.682	41.31
202.902	31.43
203.122	23.6
203.342	29.11
203.563	30.73
203.783	16.41
204.003	17.56
204.223	22.95
204.443	25.58
204.663	26.86
204.884	13.64
205.104	19.2
205.324	40.88
205.544	47.34
205.764	43.35
205.984	50.21
206.204	53.35
206.424	51.11
206.644	46.95
206.864	29.19
207.084	43.97
207.304	34.59
207.525	11.55
207.745	5.41
207.964	6.77
208.184	11.04
208.404	14.37
208.624	-10.87
208.844	-18.37
209.064	11.94
209.284	21.01
209.504	14.9
209.724	3.26
209.944	-6.11
210.164	-1.83
210.384	11.88
210.604	-16.65
210.823	-17.7
211.043	-17.11
211.263	-7.13
211.483	1.38
211.703	4.04
211.922	11.89
212.142	31.04
212.362	28.07
212.582	19.67
212.801	19.84
213.021	37.84
213.241	20.35
213.461	3.98
213.68	-0.15
213.9	14.82
214.12	21.63
214.339	17.31
214.559	18.68
214.779	28.08
214.998	37.93
215.218	41.35
215.438	50.52
215.657	52.44
215.877	54.68
216.096	47.86
216.316	45.76
216.535	40.67
216.755	13.56
216.974	1.38
217.194	-7.91
217.413	8.07
217.633	-4.83
217.852	-0.94
218.072	-2.35
218.291	27.91
218.511	24.11
218.73	18.92
218.95	12.51
219.169	1.26
219.389	1.84
219.608	11.82
219.827	5.88
220.047	13.15
220.266	20.09
220.485	19.08
220.705	26.72
220.924	31.58
221.143	24.74
221.363	19.85
221.582	16.2
221.801	25.64
222.021	26.36
222.24	27.16
222.459	9.09
222.678	-5.83
222.897	-0.17
223.117	-7.46
223.336	-10.77
223.555	-23.03
223.774	-7.34
223.993	2.44
224.213	23.17
224.432	34.63
224.651	42.26
224.87	54.09
225.089	60.7
225.308	51.69
225.527	51.3
225.746	38.34
225.965	19.78
226.184	17.04
226.404	-8.72
226.623	8.6
226.842	9.67
227.061	20.67
227.28	33.43
227.499	40.03
227.718	35.43
227.936	33.94
228.155	23.55
228.374	24.16
228.593	17.97
228.812	11.43
229.031	4.79
229.25	6.77
229.469	13.54
229.688	21.02
229.907	19.46
230.125	25.91
230.344	29.32
230.563	33.82
230.782	27.95
231.001	23.81
231.22	17.9
231.438	19.79
231.657	15.13
231.876	9.25
232.095	2.64
232.313	14.23
232.532	22.89
232.751	30.88
232.969	38.3
233.188	42.16
233.407	44.91
233.625	44.27
233.844	40.17
234.063	38.77
234.281	33.93
234.5	30.07
234.719	24.9
234.937	39.17
235.156	36.86
235.374	33.84
235.593	27.6
235.811	20.57
236.03	3.81
236.249	14.16
236.467	10.47
236.686	24.67
236.904	22.99
237.123	30.4
237.341	34.24
237.559	31.59
237.778	38.65
237.996	25.76
238.215	25.58
238.433	35.09
238.652	23.87
238.87	19.88
239.088	17.38
239.307	14.91
239.525	8.62
239.743	-3.04
239.962	-12.89
240.18	6.25
240.398	11.23
240.617	23.2
240.835	22.07
241.053	34.71
241.271	46.88
241.49	43.62
241.708	32.87
241.926	16.38
242.144	12.14
242.363	2.66
242.581	6.13
242.799	-7.52
243.017	2.17
243.235	-0.31
243.453	20.05
243.672	20.46
243.89	35.31
244.108	44.37
244.326	40.49
244.544	39.96
244.762	35.34
244.98	26.27
245.198	17.31
245.416	7.08
245.634	-3.52
245.852	6.7
246.07	8.28
246.288	4.11
246.506	8.32
246.724	26.31
246.942	37.08
247.16	28.89
247.378	16.95
247.596	18.74
247.814	1.63
248.032	-0.42
248.25	-4.46
248.468	1.7
248.685	7.28
248.903	10.52
249.121	18.83
249.339	38.87
249.557	46
249.775	23.41
249.992	7.2
250.21	-6.47
250.428	-3.79
250.646	-5.29
250.863	-11.17
251.081	-17.84
251.299	12.74
251.517	37.29
251.734	58.79
251.952	62.21
252.17	45.37
252.387	39.46
252.605	38.46
252.823	25.03
253.04	15.63
253.258	10.29
253.475	5.55
253.693	31.51
253.911	42.12
254.128	34.68
254.346	30.54
254.563	21.8
254.781	15.98
254.998	19.13
255.216	10.56
255.433	3.71
255.651	-1.45
255.868	10.9
256.086	21.5
256.303	27.74
256.521	17.85
256.738	12.79
256.956	8.36
257.173	22.35
257.39	19.76
257.608	22.04
257.825	20.91
258.043	27.73
258.26	30.92
258.477	39.35
258.695	36.28
258.912	48.02
259.129	33.62
259.346	35.85
259.564	32.63
259.781	29.92
259.998	29.45
260.216	34.88
260.433	15.11
260.65	15.73
260.867	-1.8
261.084	8.44
261.302	3.21
261.519	-8.25
261.736	-16.75
261.953	-6.28
262.17	8.63
262.387	9.57
262.604	-3
262.822	5.05
263.039	9.6
263.256	9.67
263.473	3.49
263.69	-0.32
263.907	19.28
264.124	17.38
264.341	13.45
264.558	11.6
264.775	18.41
264.992	26.12
265.209	27.25
265.426	21.5
265.643	25.42
265.86	26.11
266.077	24.77
266.294	25.8
266.51	23.72
266.727	9.97
266.944	-0.64
267.161	-1.56
267.378	-3.66
267.595	0.3
267.812	-11.7
268.028	-2.85
268.245	2.48
268.462	11.44
268.679	15.31
268.896	9.34
269.112	19.05
269.329	22.2
269.546	19.03
269.763	25.22
269.979	22.51
270.196	25.17
270.413	28.63
270.629	19.32
270.846	21.96
271.063	17.3
271.279	12.15
271.496	5.05
271.712	-3.47
271.929	4.31
272.146	13.87
272.362	3.09
272.579	10.2
272.795	13.78
273.012	17.53
273.228	16.97
273.445	5.62
273.661	-2.34
273.878	1.15
274.094	-2.14
274.311	0.99
274.527	5.55
274.744	0.75
274.96	7.26
275.177	16.21
275.393	24.87
275.609	27.28
275.826	25.77
276.042	37.06
276.259	43.53
276.475	35.78
276.691	31.24
276.908	23.03
277.124	20.58
277.34	14.16
277.557	-0.33
277.773	-2.37
277.989	0.93
278.205	-5.72
278.422	5.34
278.638	12.97
278.854	19.78
279.07	12.1
279.286	8.97
279.503	7.1
279.719	16.92
279.935	3.44
280.151	15.03
280.367	10.6
280.583	23.88
280.799	27.17
281.016	33.45
281.232	31.94
281.448	31.55
281.664	17.12
281.88	28.98
282.096	27.42
282.312	22.86
282.528	13.82
282.744	13.93
282.96	23.63
283.176	26.55
283.392	30.51
283.608	31.12
283.824	36.72
284.04	37.83
284.256	38.8
284.471	37.74
284.687	27.95
284.903	20.8
285.119	7.9
285.335	0.93
285.551	3.54
285.767	1.91
285.982	-8.19
286.198	-13.11
286.414	1.42
286.63	13.79
286.846	13.18
287.061	15.3
287.277	15.68
287.493	25.71
287.709	21.24
287.924	26.74
288.14	34.58
288.356	49.76
288.571	39.63
288.787	38.68
289.003	36.36
289.218	37.38
289.434	20.68
289.65	16.09
289.865	22.22
290.081	26.02
290.296	25.63
290.512	27.93
290.727	42.68
290.943	43.29
291.159	30.29
291.374	21.88
291.59	8.68
291.805	5.36
292.021	-15.42
292.236	-18.59
292.451	-25.54
292.667	-11.52
292.882	-14.6
293.098	-14.87
293.313	-13.65
293.529	-3.26
293.744	-0.62
293.959	14.12
294.175	14.17
294.39	20.91
294.605	35.98
294.821	40
295.036	41.94
295.251	51.16
295.467	44.84
295.682	47.27
295.897	38.09
296.112	35.87
296.328	31.17
296.543	26.68
296.758	12.97
296.973	17.44
297.188	4.42
297.404	5.56
297.619	2.68
297.834	7.5
298.049	9.18
298.264	9.06
298.479	0.97
298.694	12.58
298.909	-0.19
299.125	8.25
299.34	1.09
299.555	16.01
299.77	14.96
299.985	12.62
300.2	5.69
300.415	13.4
300.63	7.62
300.845	16.93
301.06	7.02
301.275	15.81
301.49	14.29
301.704	14.88
301.919	8.34
302.134	5.25
302.349	-6.96
302.564	-14.5
302.779	-17.41
302.994	-19.17
303.209	-17.77
303.423	-3.42
303.638	8.07
303.853	20.57
304.068	27.92
304.283	16.91
304.497	23.05
304.712	20.82
304.927	15.34
305.142	4.4
305.356	1.65
305.571	3.98
305.786	16.01
306	21.78
306.215	26.79
306.43	35.13
306.644	40.48
306.859	46.07
307.074	41.61
307.288	31.44
307.503	23.48
307.717	20.24
307.932	17.04
308.147	18.63
308.361	9.58
308.576	10.42
308.79	17.25
309.005	20.84
309.219	19.33
309.434	15.68
309.648	6.89
309.863	19.11
310.077	13.86
310.292	8.53
310.506	15.16
310.72	19.38
310.935	21.82
311.149	29.59
311.364	26.94
311.578	31.89
311.792	31.52
312.007	23.11
312.221	20.54
312.435	23.25
312.649	-8.66
312.864	-25.05
313.078	-18.99
313.292	-29.62
313.507	-16.48
313.721	-18.57
313.935	14.62
314.149	36.04
314.363	43.78
314.578	60.83
314.792	69.91
315.006	65.28
315.22	67.48
315.434	43.15
315.648	46.73
315.862	41.84
316.077	26.47
316.291	27.48
316.505	29.11
316.719	8.58
316.933	15.83
317.147	16.08
317.361	21.29
317.575	18.32
317.789	15.56
318.003	16.81
318.217	31.07
318.431	33.52
318.645	37.66
318.859	20.1
319.073	16.23
319.287	19.51
319.5	16.26
319.714	15.71
319.928	15.52
320.142	16.85
320.356	33.75
320.57	35.52
320.784	28.68
320.997	31.92
321.211	22.91
321.425	11.97
321.639	11.09
321.853	0.11
322.066	1.19
322.28	-0.3
322.494	-1.31
322.707	2.68
322.921	13.59
323.135	11.52
323.349	13.27
323.562	8.72
323.776	15.22
323.989	10.35
324.203	10.15
324.417	-0.61
324.63	-7.83
324.844	-21.98
325.057	-10.77
325.271	-24.46
325.485	-21.48
325.698	-16.93
325.912	-5.18
326.125	6.7
326.339	18.95
326.552	22.71
326.766	41.27
326.979	43.17
327.193	40.42
327.406	39.58
327.619	20.64
327.833	21.16
328.046	11
328.26	-13.47
328.473	-11.87
328.686	-9.44
328.9	-17.59
329.113	-0.92
329.326	7.23
329.54	6.71
329.753	24.84
329.966	23.35
330.179	30.95
330.393	35.02
330.606	34.52
330.819	38.17
331.032	39.91
331.246	31.43
331.459	38.99
331.672	38.46
331.885	37.66
332.098	38.96
332.311	18.72
332.525	26.53
332.738	30.31
332.951	29.32
333.164	17.81
333.377	10.52
333.59	17
333.803	24.74
334.016	6.71
334.229	4.4
334.442	10.8
334.655	21.35
334.868	26.87
335.081	25.04
335.294	22.28
335.507	37.41
335.72	25.98
335.933	24.56
336.146	24.01
336.359	19.93
336.572	18.44
336.785	27.09
336.997	27.05
337.21	38.61
337.423	31.34
337.636	35.04
337.849	38.24
338.062	34.25
338.274	28.25
338.487	20.53
338.7	18.95
338.913	14.63
339.125	6.14
339.338	15.6
339.551	23.9
339.763	22.83
339.976	30.87
340.189	27.09
340.402	32.45
340.614	37.3
340.827	24.72
341.039	19.73
341.252	23.27
341.465	10.11
341.677	4.2
341.89	8.05
342.102	10.31
342.315	21.83
342.527	19.72
342.74	21.4
342.952	26.79
343.165	44.24
343.377	35.16
343.59	36.67
343.802	40.69
344.015	42.85
344.227	38.58
344.44	35.53
344.652	30.38
344.864	41.42
345.077	37.72
345.289	31.04
345.502	27
345.714	20.76
345.926	19.8
346.139	23.42
346.351	3.63
346.563	8.58
346.775	1.98
346.988	3.53
347.2	7.74
347.412	18.34
347.624	17.54
347.837	22.51
348.049	21.17
348.261	18.05
348.473	11.64
348.685	21.61
348.897	18.34
349.11	14.68
349.322	14.12
349.534	13.18
349.746	31.39
349.958	37.53
350.17	34.69
350.382	24.62
350.594	20.62
350.806	22.06
351.018	25.4
351.23	22
351.442	18.24
351.654	14.18
351.866	21.73
352.078	22.49
352.29	22.61
352.502	20.78
352.714	21.38
352.926	27.79
353.138	30.62
353.35	18.44
353.561	15.34
353.773	11.96
353.985	14.01
354.197	6.71
354.409	7.06
354.621	3.05
354.832	5.69
355.044	13.24
355.256	15.73
355.468	14.5
355.679	23.95
355.891	20
356.103	19.76
356.314	20.24
356.526	15.67
356.738	13.74
356.949	14.08
357.161	12.32
357.373	15.78
357.584	32.62
357.796	31.12
358.008	36.18
358.219	40.27
358.431	29.23
358.642	23.55
358.854	20.11
359.065	8.06
359.277	10.85
359.488	0.05
359.7	2.07
359.911	12.39
360.123	16.87
360.334	14.58
360.546	11.5
360.757	13.59
360.969	22.25
361.18	15.27
361.391	14.67
361.603	19.87
361.814	19.85
362.025	25.17
362.237	27.96
362.448	27.36
362.659	24.32
362.871	29.51
363.082	21.77
363.293	25.54
363.504	25.42
363.716	22.32
363.927	18.31
364.138	22.29
364.349	18.88
364.56	16.8
364.772	16.92
364.983	9.68
365.194	8.4
365.405	5.73
365.616	-0.81
365.827	-6.02
366.038	8.46
366.25	5.74
366.461	15.22
366.672	11.3
366.883	18.72
367.094	22.82
367.305	23.79
367.516	12.22
367.727	12.64
367.938	9.46
368.149	9.25
368.36	5.59
368.571	4.74
368.781	2.7
368.992	4.78
369.203	1.35
369.414	-7.32
369.625	-4.86
369.836	-3.58
370.047	2.05
370.258	-1.32
370.468	-5.09
370.679	-2.44
370.89	9.89
371.101	8.95
371.312	8.52
371.522	10.72
371.733	7.5
371.944	16.47
372.155	5.28
372.365	1.07
372.576	-3.14
372.787	-4.49
372.997	-7.63
373.208	2.47
373.419	-5.05
373.629	10.7
373.84	6.99
374.05	12.1
374.261	14.09
374.472	10.08
374.682	2.49
374.893	-1.68
375.103	-4.07
375.314	-4.9
375.524	-3.59
375.735	1.23
375.945	4.21
376.156	17.35
376.366	20.77
376.577	24.45
376.787	37.52
376.997	37.38
377.208	23.5
377.418	20.24
377.629	11.31
377.839	14.49
378.049	14.39
378.26	13.98
378.47	14.68
378.68	21.51
378.89	15.73
379.101	9.67
379.311	4.82
379.521	0.98
379.732	-13.68
379.942	-13.34
380.152	-7.61
380.362	5.49
380.572	13.8
380.783	17.14
380.993	19.96
381.203	23.27
381.413	25.48
381.623	18.9
381.833	11.04
382.043	4.9
382.253	4.9
382.463	8.65
382.674	11.17
382.884	6.54
383.094	5.32
383.304	11.08
383.514	18.58
383.724	13.44
383.934	7.12
384.144	10.87
384.353	10.95
384.563	12.47
384.773	9.2
384.983	8.64
385.193	12.71
385.403	16.95
385.613	11.42
385.823	10.03
386.033	8.74
386.242	9.62
386.452	8.58
386.662	8.64
386.872	5.88
387.082	5.88
387.291	8.86
387.501	10.77
387.711	9.64
387.921	6.2
388.13	6.21
388.34	4.86
388.55	6.48
388.759	5.45
388.969	2.34
389.179	6.23
389.388	9.41
389.598	8.03
389.807	7.47
390.017	7.6
390.227	6.35
390.436	6.81
390.646	5.49
390.855	3.69
391.065	2.74
391.274	2.49
391.484	3.08
391.693	4.71
391.903	3.6
392.112	2.8
392.322	5.09
392.531	6.29
392.74	5.8
392.95	5.46
393.159	5.12
393.369	6.64
393.578	6.85
393.787	5.79
393.997	6.47
394.206	7.72
394.415	7.04
394.625	5.93
394.834	5.15
395.043	5.82
395.252	6.99
395.462	6.63
395.671	7.01
395.88	7.35
396.089	8.1
396.298	8.12
396.508	7.6
396.717	6.27
396.926	6.19
397.135	5.4
397.344	4.71
397.553	4.82
397.762	5.21
397.971	5.09
398.181	4.76
398.39	4.53
398.599	4.76
398.808	5.42
399.017	5.54
399.226	5.56
399.435	5.5
399.644	5.74
399.853	5.7
400.062	5.69
400.27	5.6
400.479	5.36
400.688	5.35
400.897	5.69
401.106	5.87
401.315	5.98
401.524	6.05
401.733	6.12
401.941	6.07
402.15	5.67
402.359	5.51
402.568	5.48
402.777	5.41
402.985	5.27
403.194	5.17
403.403	4.97
403.612	5.28
403.82	5.3
404.029	5.13
404.238	5.22
404.446	5.22
404.655	5.11
404.864	5.14
405.072	5.11
405.281	4.92
405.489	5.07
405.698	4.92
405.906	4.9
406.115	5
406.324	5.09
406.532	5.04
406.741	5.08
406.949	4.94
407.158	5
407.366	5.09
407.574	5.1
407.783	4.98
407.991	4.92
408.2	4.91
408.408	4.97
408.617	4.94
408.825	4.88
409.033	4.75
409.242	4.85
409.45	4.79
409.658	4.83
409.867	4.82
410.075	4.76
410.283	4.68
410.491	4.69
410.7	4.64
410.908	4.7
411.116	4.57
411.324	4.57
411.533	4.52
411.741	4.51
411.949	4.57
412.157	4.59
412.365	4.57
412.573	4.61
412.781	4.62
412.99	4.74
413.198	4.81
413.406	4.78
413.614	4.72
413.822	4.72
414.03	4.61
414.238	4.59
414.446	4.45
414.654	4.42
414.862	4.4
415.07	4.51
415.278	4.42
415.486	4.59
415.694	4.5
415.902	4.47
416.109	4.45
416.317	4.36
416.525	4.33
416.733	4.46
416.941	4.36
417.149	4.49
417.357	4.56
417.564	4.55
417.772	4.61
417.98	4.5
418.188	4.34
418.395	4.39
418.603	4.19
418.811	4.15
419.019	4.17
419.226	4.26
419.434	4.23
419.642	4.29
419.849	4.22
420.057	4.35
420.265	4.33
420.472	4.19
420.68	4.08
420.887	4.11
421.095	4.13
421.302	4.17
421.51	4.23
421.717	4.32
421.925	4.32
422.132	4.23
422.34	4.22
422.547	4.15
422.755	4.09
422.962	3.89
423.17	3.77
423.377	3.89
423.585	3.97
423.792	3.97
423.999	3.93
424.207	3.81
424.414	3.92
424.621	3.85
424.829	3.75
425.036	3.64
425.243	3.68
425.451	3.7
425.658	3.91
425.865	3.81
426.072	4.03
426.28	4.08
426.487	4.07
426.694	4.02
426.901	4.01
427.108	3.95
427.315	3.99
427.523	3.94
427.73	3.92
427.937	4
428.144	4.02
428.351	4.11
428.558	4.08
428.765	4.01
428.972	3.98
429.179	3.94
429.386	3.99
429.593	3.96
429.8	4.05
430.007	4.01
430.214	4.08
430.421	4.04
430.628	3.94
430.835	3.91
431.042	3.95
431.249	3.88
431.456	3.99
431.662	4.02
431.869	4.16
432.076	4.29
432.283	4.27
432.49	4.27
432.697	4.24
432.903	4.2
433.11	4.27
433.317	4.23
433.524	4.12
433.73	4.21
433.937	4.21
434.144	4.24
434.35	4.23
434.557	4.11
434.764	4.08
434.97	4.19
435.177	4.1
435.384	4.17
435.59	4.16
435.797	4.23
436.003	4.29
436.21	4.24
436.416	4.17
436.623	4.25
436.829	4.23
437.036	4.26
437.242	4.29
437.449	4.29
437.655	4.38
437.862	4.45
438.068	4.47
438.275	4.48
438.481	4.53
438.687	4.52
438.894	4.49
439.1	4.49
439.307	4.46
439.513	4.42
439.719	4.49
439.926	4.49
440.132	4.48
440.338	4.56
440.544	4.58
440.751	4.64
440.957	4.63
441.163	4.62
441.369	4.57
441.575	4.56
441.782	4.52
441.988	4.52
442.194	4.56
442.4	4.59
442.606	4.59
442.812	4.58
443.018	4.61
443.224	4.67
443.431	4.7
443.637	4.66
443.843	4.7
444.049	4.68
444.255	4.67
444.461	4.66
444.667	4.62
444.873	4.63
445.079	4.66
445.284	4.6
445.49	4.6
445.696	4.65
445.902	4.69
446.108	4.73
446.314	4.8
446.52	4.81
446.726	4.85
446.931	4.88
447.137	4.91
447.343	4.89
447.549	4.85
447.755	4.76
447.96	4.72
448.166	4.76
448.372	4.73
448.578	4.72
448.783	4.72
448.989	4.79
449.195	4.82
449.4	4.84
449.606	4.83
449.812	4.89
450.017	4.9
450.223	4.88
450.428	4.86
450.634	4.88
450.84	4.87
451.045	4.84
451.251	4.84
451.456	4.8
451.662	4.81
451.867	4.81
452.073	4.78
452.278	4.82
452.483	4.81
452.689	4.82
452.894	4.86
453.1	4.83
453.305	4.82
453.51	4.85
453.716	4.84
453.921	4.83
454.127	4.8
454.332	4.78
454.537	4.86
454.742	4.87
454.948	4.84
455.153	4.84
455.358	4.93
455.563	4.95
455.769	4.94
455.974	4.88
456.179	4.81
456.384	4.86
456.589	4.9
456.795	4.77
457	4.76
457.205	4.71
457.41	4.76
457.615	4.86
457.82	4.89
458.025	4.85
458.23	4.9
458.435	4.89
458.64	5
458.845	4.95
459.05	4.92
459.255	4.81
459.46	4.83
459.665	4.92
459.87	4.93
460.075	4.91
460.28	4.92
460.485	4.95
460.69	4.97
460.895	5.05
461.099	4.97
461.304	5
461.509	4.89
461.714	4.93
461.919	4.89
462.123	4.96
462.328	4.9
462.533	4.96
462.738	4.97
462.942	5.1
463.147	5.09
463.352	5.17
463.556	5.2
463.761	5.22
463.966	5.27
464.17	5.26
464.375	5.24
464.58	5.28
464.784	5.27
464.989	5.21
465.193	5.24
465.398	5.23
465.602	5.25
465.807	5.25
466.011	5.28
466.216	5.24
466.42	5.32
466.625	5.35
466.829	5.37
467.034	5.43
467.238	5.49
467.443	5.55
467.647	5.64
467.851	5.63
468.056	5.62
468.26	5.56
468.464	5.54
468.669	5.56
468.873	5.54
469.077	5.51
469.282	5.52
469.486	5.59
469.69	5.63
469.894	5.72
470.099	5.74
470.303	5.7
470.507	5.76
470.711	5.75
470.915	5.74
471.119	5.78
471.324	5.71
471.528	5.74
471.732	5.78
471.936	5.84
472.14	5.86
472.344	5.85
472.548	5.87
472.752	5.95
472.956	5.99
473.16	6
473.364	5.96
473.568	6.02
473.772	6.09
473.976	6.1
474.18	6.05
474.384	5.98
474.588	6.02
474.792	6.02
474.995	6.01
475.199	5.98
475.403	6.03
475.607	6.06
475.811	6.1
476.015	6.15
476.218	6.14
476.422	6.19
476.626	6.21
476.83	6.19
477.033	6.23
477.237	6.27
477.441	6.26
477.644	6.32
477.848	6.3
478.052	6.32
478.255	6.33
478.459	6.4
478.663	6.4
478.866	6.43
479.07	6.46
479.273	6.49
479.477	6.55
479.681	6.59
479.884	6.51
480.088	6.52
480.291	6.53
480.495	6.55
480.698	6.53
480.901	6.54
481.105	6.57
481.308	6.64
481.512	6.67
481.715	6.7
481.919	6.72
482.122	6.74
482.325	6.75
482.529	6.78
482.732	6.79
482.935	6.79
483.138	6.77
483.342	6.82
483.545	6.83
483.748	6.9
483.952	6.9
484.155	6.99
484.358	6.98
484.561	7.04
484.764	7.03
484.967	7.03
485.171	6.98
485.374	7
485.577	6.99
485.78	7.04
485.983	7.01
486.186	7.01
486.389	7
486.592	7
486.795	6.98
486.998	6.97
487.201	6.97
487.404	7.04
487.607	7.02
487.81	7.06
488.013	7.06
488.216	7.08
488.419	7.06
488.622	7.04
488.825	7.01
489.028	7.01
489.231	6.97
489.433	6.97
489.636	6.93
489.839	6.95
490.042	6.95
490.245	6.95
490.447	6.98
490.65	7.02
490.853	7.07
491.056	7.11
491.258	7.16
491.461	7.19
491.664	7.17
491.866	7.23
492.069	7.25
492.272	7.22
492.474	7.21
492.677	7.15
492.879	7.14
493.082	7.16
493.285	7.1
493.487	7.07
493.69	7.07
493.892	7.1
494.095	7.11
494.297	7.14
494.5	7.2
494.702	7.22
494.905	7.27
495.107	7.32
495.309	7.27
495.512	7.32
495.714	7.36
495.917	7.34
496.119	7.38
496.321	7.43
496.524	7.41
496.726	7.45
496.928	7.48
497.13	7.46
497.333	7.5
497.535	7.51
497.737	7.48
497.939	7.53
498.142	7.55
498.344	7.54
498.546	7.6
498.748	7.58
498.95	7.6
499.152	7.61
499.355	7.6
499.557	7.65
499.759	7.69
499.961	7.69
500.163	7.75
500.365	7.74
500.567	7.74
500.769	7.85
500.971	7.84
501.173	7.83
501.375	7.84
501.577	7.85
501.779	7.9
501.981	7.93
502.183	7.88
502.385	7.89
502.587	7.89
502.788	7.9
502.99	7.91
503.192	7.91
503.394	7.94
503.596	7.98
503.798	8.07
503.999	8.12
504.201	8.17
504.403	8.2
504.605	8.24
504.806	8.26
505.008	8.28
505.21	8.24
505.411	8.28
505.613	8.29
505.815	8.29
506.016	8.33
506.218	8.32
506.42	8.36
506.621	8.41
506.823	8.41
507.024	8.41
507.226	8.42
507.427	8.42
507.629	8.47
507.83	8.46
508.032	8.52
508.233	8.57
508.435	8.61
508.636	8.64
508.838	8.68
509.039	8.68
509.24	8.73
509.442	8.67
509.643	8.68
509.845	8.72
510.046	8.73
510.247	8.76
510.448	8.8
510.65	8.83
510.851	8.9
511.052	8.93
511.254	8.92
511.455	8.94
511.656	8.97
511.857	9.01
512.058	9.02
512.26	9.01
512.461	9.03
512.662	9.09
512.863	9.11
513.064	9.1
513.265	9.12
513.466	9.17
513.667	9.22
513.868	9.24
514.069	9.27
514.27	9.29
514.471	9.35
514.672	9.35
514.873	9.36
515.074	9.37
515.275	9.35
515.476	9.35
515.677	9.38
515.878	9.44
516.079	9.46
516.28	9.45
516.481	9.44
516.682	9.52
516.882	9.52
517.083	9.53
517.284	9.49
517.485	9.53
517.686	9.54
517.886	9.57
518.087	9.56
518.288	9.57
518.488	9.6
518.689	9.61
518.89	9.63
519.091	9.64
519.291	9.64
519.492	9.66
519.692	9.71
519.893	9.67
520.094	9.69
520.294	9.64
520.495	9.71
520.695	9.72
520.896	9.75
521.096	9.76
521.297	9.79
521.497	9.86
521.698	9.88
521.898	9.86
522.099	9.91
522.299	9.9
522.499	9.89
522.7	9.92
522.9	9.89
523.101	9.91
523.301	9.93
523.501	9.95
523.702	9.99
523.902	10.02
524.102	10.04
524.302	10.06
524.503	10.11
524.703	10.14
524.903	10.17
525.103	10.18
525.304	10.2
525.504	10.2
525.704	10.2
525.904	10.17
526.104	10.18
526.304	10.18
526.504	10.15
526.705	10.16
526.905	10.2
527.105	10.23
527.305	10.24
527.505	10.25
527.705	10.25
527.905	10.28
528.105	10.27
528.305	10.28
528.505	10.3
528.705	10.31
528.905	10.34
529.105	10.37
529.304	10.42
529.504	10.46
529.704	10.46
529.904	10.48
530.104	10.45
530.304	10.47
530.503	10.46
530.703	10.46
530.903	10.5
531.103	10.51
531.303	10.59
531.502	10.61
531.702	10.62
531.902	10.63
532.101	10.63
532.301	10.62
532.501	10.64
532.7	10.6
532.9	10.63
533.1	10.63
533.299	10.7
533.499	10.73
533.698	10.8
533.898	10.82
534.097	10.82
534.297	10.87
534.496	10.88
534.696	10.9
534.895	10.96
535.095	10.97
535.294	10.93
535.494	10.98
535.693	11.02
535.892	11.06
536.092	11.01
536.291	11.02
536.491	11.03
536.69	11.09
536.889	11.11
537.088	11.12
537.288	11.18
537.487	11.24
537.686	11.27
537.886	11.29
538.085	11.36
538.284	11.42
538.483	11.45
538.682	11.44
538.882	11.49
539.081	11.49
539.28	11.52
539.479	11.54
539.678	11.58
539.877	11.61
540.076	11.66
540.275	11.66
540.474	11.67
540.673	11.71
540.872	11.75
541.071	11.76
541.27	11.77
541.469	11.81
541.668	11.89
541.867	11.96
542.066	12.02
542.265	12.03
542.464	12.07
542.663	12.16
542.862	12.23
543.06	12.28
543.259	12.3
543.458	12.33
543.657	12.35
543.856	12.39
544.054	12.4
544.253	12.4
544.452	12.39
544.651	12.4
544.849	12.42
545.048	12.47
545.247	12.51
545.445	12.49
545.644	12.56
545.843	12.61
546.041	12.7
546.24	12.8
546.438	12.87
546.637	12.93
546.836	13.03
547.034	13.08
547.233	13.15
547.431	13.17
547.63	13.21
547.828	13.26
548.027	13.28
548.225	13.33
548.423	13.36
548.622	13.41
548.82	13.49
549.019	13.53
549.217	13.62
549.415	13.7
549.614	13.75
549.812	13.8
550.01	13.88
550.209	13.92
550.407	13.99
550.605	14.02
550.803	14.08
551.002	14.14
551.2	14.26
551.398	14.28
551.596	14.39
551.794	14.47
551.993	14.5
552.191	14.59
552.389	14.67
552.587	14.7
552.785	14.83
552.983	14.86
553.181	14.89
553.379	15.02
553.577	15.09
553.775	15.18
553.973	15.26
554.171	15.3
554.369	15.36
554.567	15.45
554.765	15.45
554.963	15.5
555.161	15.55
555.359	15.61
555.557	15.72
555.755	15.81
555.952	15.92
556.15	16.02
556.348	16.16
556.546	16.26
556.744	16.35
556.941	16.43
557.139	16.57
557.337	16.66
557.535	16.74
557.732	16.82
557.93	16.88
558.128	16.97
558.325	17.05
558.523	17.08
558.721	17.17
558.918	17.29
559.116	17.35
559.313	17.46
559.511	17.52
559.708	17.61
559.906	17.68
560.104	17.78
560.301	17.86
560.498	17.94
560.696	18.04
560.893	18.18
561.091	18.3
561.288	18.41
561.486	18.5
561.683	18.61
561.88	18.74
562.078	18.8
562.275	18.88
562.473	18.97
562.67	19.03
562.867	19.11
563.064	19.25
563.262	19.4
563.459	19.58
563.656	19.71
563.853	19.83
564.051	19.97
564.248	20.1
564.445	20.16
564.642	20.25
564.839	20.32
565.036	20.41
565.234	20.53
565.431	20.64
565.628	20.78
565.825	20.91
566.022	20.94
566.219	21
566.416	21.13
566.613	21.24
566.81	21.32
567.007	21.37
567.204	21.44
567.401	21.58
567.598	21.72
567.795	21.78
567.991	21.85
568.188	21.95
568.385	22.09
568.582	22.25
568.779	22.34
568.976	22.45
569.172	22.56
569.369	22.62
569.566	22.72
569.763	22.78
569.96	22.81
570.156	22.85
570.353	22.91
570.55	22.94
570.746	23.04
570.943	23.14
571.14	23.22
571.336	23.29
571.533	23.35
571.729	23.44
571.926	23.53
572.123	23.54
572.319	23.56
572.516	23.6
572.712	23.69
572.909	23.79
573.105	23.82
573.302	23.9
573.498	23.97
573.695	24.02
573.891	24.04
574.087	24.06
574.284	24.08
574.48	24.09
574.677	24.12
574.873	24.19
575.069	24.3
575.266	24.37
575.462	24.4
575.658	24.48
575.854	24.58
576.051	24.55
576.247	24.54
576.443	24.48
576.639	24.48
576.835	24.51
577.032	24.51
577.228	24.49
577.424	24.6
577.62	24.65
577.816	24.75
578.012	24.83
578.208	24.88
578.404	24.89
578.6	24.91
578.796	24.94
578.993	24.97
579.189	24.91
579.384	24.87
579.58	24.85
579.776	24.83
579.972	24.76
580.168	24.69
580.364	24.65
580.56	24.66
580.756	24.63
580.952	24.63
581.148	24.62
581.343	24.68
581.539	24.68
581.735	24.68
581.931	24.73
582.127	24.72
582.322	24.72
582.518	24.68
582.714	24.64
582.909	24.67
583.105	24.6
583.301	24.53
583.496	24.52
583.692	24.47
583.888	24.5
584.083	24.6
584.279	24.62
584.474	24.61
584.67	24.7
584.866	24.72
585.061	24.7
585.257	24.69
585.452	24.61
585.648	24.59
585.843	24.67
586.039	24.58
586.234	24.53
586.429	24.53
586.625	24.49
586.82	24.45
587.015	24.39
587.211	24.41
587.406	24.48
587.601	24.5
587.797	24.5
587.992	24.57
588.187	24.65
588.383	24.69
588.578	24.62
588.773	24.62
588.968	24.69
589.163	24.74
589.359	24.72
589.554	24.68
589.749	24.73
589.944	24.79
590.139	24.77
590.334	24.79
590.529	24.82
590.724	24.87
590.919	25.01
591.114	25
591.309	25.01
591.504	25.06
591.699	25.07
591.894	25.09
592.089	25.17
592.284	25.08
592.479	25.13
592.674	25.19
592.869	25.28
593.064	25.41
593.259	25.48
593.454	25.47
593.648	25.51
593.843	25.54
594.038	25.59
594.233	25.65
594.428	25.66
594.622	25.7
594.817	25.84
595.012	25.95
595.206	26.07
595.401	26.12
595.596	26.15
595.79	26.18
595.985	26.27
596.18	26.29
596.374	26.34
596.569	26.39
596.763	26.53
596.958	26.64
597.153	26.69
597.347	26.74
597.542	26.82
597.736	26.93
597.931	27.04
598.125	27.09
598.319	27.15
598.514	27.27
598.708	27.37
598.903	27.44
599.097	27.53
599.291	27.55
599.486	27.61
599.68	27.64
599.874	27.68
600.069	27.71
600.263	27.75
600.457	27.81
600.651	27.92
600.846	28.01
601.04	28.02
601.234	28.12
601.428	28.16
601.622	28.18
601.817	28.23
602.011	28.23
602.205	28.21
602.399	28.28
602.593	28.28
602.787	28.35
602.981	28.43
603.175	28.38
603.369	28.37
603.563	28.43
603.757	28.39
603.951	28.35
604.145	28.31
604.339	28.31
604.533	28.33
604.727	28.36
604.921	28.26
605.115	28.25
605.309	28.21
605.502	28.21
605.696	28.08
605.89	28.11
606.084	28.05
606.278	28.07
606.471	28.03
606.665	28.06
606.859	28.01
607.053	28
607.246	27.89
607.44	27.82
607.634	27.75
607.827	27.72
608.021	27.65
608.214	27.61
608.408	27.56
608.602	27.53
608.795	27.47
608.989	27.46
609.182	27.47
609.376	27.39
609.569	27.33
609.763	27.36
609.956	27.31
610.15	27.29
610.343	27.2
610.537	27.11
610.73	27.06
610.923	26.93
611.117	26.78
611.31	26.71
611.504	26.66
611.697	26.62
611.89	26.5
612.083	26.39
612.277	26.32
612.47	26.26
612.663	26.18
612.856	26.05
613.05	25.96
613.243	25.94
613.436	25.84
613.629	25.84
613.822	25.73
614.015	25.64
614.209	25.61
614.402	25.57
614.595	25.46
614.788	25.41
614.981	25.31
615.174	25.24
615.367	25.14
615.56	25.1
615.753	24.99
615.946	25.02
616.139	25.01
616.332	24.94
616.525	24.96
616.718	24.96
616.911	24.91
617.103	24.87
617.296	24.75
617.489	24.71
617.682	24.72
617.875	24.59
618.067	24.52
618.26	24.47
618.453	24.36
618.646	24.3
618.838	24.22
619.031	24.19
619.224	24.26
619.417	24.22
619.609	24.22
619.802	24.28
619.994	24.26
620.187	24.29
620.38	24.25
620.572	24.19
620.765	24.06
620.957	23.93
621.15	23.83
621.342	23.86
621.535	23.79
621.727	23.7
621.92	23.68
622.112	23.73
622.305	23.79
622.497	23.78
622.69	23.69
622.882	23.71
623.074	23.74
623.267	23.7
623.459	23.73
623.651	23.64
623.844	23.63
624.036	23.61
624.228	23.56
624.42	23.49
624.613	23.47
624.805	23.39
624.997	23.4
625.189	23.4
625.381	23.36
625.574	23.29
625.766	23.3
625.958	23.31
626.15	23.36
626.342	23.36
626.534	23.28
626.726	23.28
626.918	23.26
627.11	23.2
627.302	23.13
627.494	23.04
627.686	23
627.878	23
628.07	22.95
628.262	22.87
628.454	22.86
628.646	22.8
628.838	22.75
629.029	22.68
629.221	22.65
629.413	22.57
629.605	22.58
629.797	22.58
629.989	22.58
630.18	22.54
630.372	22.49
630.564	22.49
630.755	22.46
630.947	22.41
631.139	22.32
631.33	22.27
631.522	22.25
631.714	22.26
631.905	22.2
632.097	22.21
632.289	22.24
632.48	22.19
632.672	22.14
632.863	22.11
633.055	22.09
633.246	22.09
633.438	22.06
633.629	22.02
633.821	22.03
634.012	22.04
634.203	22.12
634.395	22.1
634.586	22.08
634.777	22.03
634.969	22
635.16	21.97
635.351	21.94
635.543	21.82
635.734	21.78
635.925	21.81
636.117	21.89
636.308	21.89
636.499	21.85
636.69	21.89
636.881	21.94
637.073	21.95
637.264	21.9
637.455	21.85
637.646	21.83
637.837	21.86
638.028	21.86
638.219	21.82
638.41	21.77
638.601	21.75
638.792	21.66
638.983	21.58
639.174	21.54
639.365	21.46
639.556	21.41
639.747	21.43
639.938	21.47
640.129	21.51
640.32	21.54
640.511	21.54
640.701	21.51
640.892	21.57
641.083	21.56
641.274	21.49
641.465	21.47
641.655	21.46
641.846	21.42
642.037	21.4
642.228	21.35
642.418	21.24
642.609	21.19
642.8	21.12
642.99	21.07
643.181	21.05
643.372	21.06
643.562	21.01
643.753	20.97
643.943	20.94
644.134	20.94
644.324	20.91
644.515	20.91
644.705	20.87
644.896	20.78
645.086	20.78
645.277	20.81
645.467	20.8
645.658	20.78
645.848	20.73
646.038	20.66
646.229	20.65
646.419	20.63
646.61	20.55
646.8	20.49
646.99	20.46
647.18	20.43
647.371	20.38
647.561	20.39
647.751	20.36
647.941	20.3
648.132	20.34
648.322	20.3
648.512	20.29
648.702	20.31
648.892	20.35
649.082	20.3
649.272	20.28
649.462	20.21
649.653	20.25
649.843	20.17
650.033	20.1
650.223	19.95
650.413	20.01
650.603	20.02
650.793	19.96
650.983	19.89
651.172	19.92
651.362	19.89
651.552	19.88
651.742	19.79
651.932	19.75
652.122	19.69
652.312	19.58
652.502	19.46
652.691	19.41
652.881	19.34
653.071	19.25
653.261	19.16
653.45	19.11
653.64	19.08
653.83	19.03
654.019	18.92
654.209	18.85
654.399	18.79
654.588	18.61
654.778	18.45
654.968	18.31
655.157	18.11
655.347	17.95
655.536	17.78
655.726	17.59
655.915	17.54
656.105	17.45
656.294	17.32
656.484	17.24
656.673	17.18
656.863	17.03
657.052	16.82
657.241	16.61
657.431	16.4
657.62	16.19
657.809	16.01
657.999	15.84
658.188	15.65
658.377	15.59
658.567	15.37
658.756	15.23
658.945	15.06
659.134	14.87
659.324	14.64
659.513	14.48
659.702	14.26
659.891	14.12
660.08	13.95
660.269	13.81
660.458	13.66
660.648	13.55
660.837	13.44
661.026	13.29
661.215	13.17
661.404	13.03
661.593	12.83
661.782	12.67
661.971	12.47
662.16	12.31
662.349	12.22
662.538	12.11
662.726	11.93
662.915	11.83
663.104	11.65
663.293	11.55
663.482	11.41
663.671	11.27
663.86	11.12
664.048	11.07
664.237	10.94
664.426	10.9
664.615	10.78
664.803	10.63
664.992	10.56
665.181	10.45
665.369	10.33
665.558	10.29
665.747	10.23
665.935	10.2
666.124	10.18
666.312	10.05
666.501	9.98
666.69	9.9
666.878	9.82
667.067	9.71
667.255	9.66
667.444	9.6
667.632	9.56
667.82	9.51
668.009	9.52
668.197	9.5
668.386	9.46
668.574	9.39
668.762	9.3
668.951	9.28
669.139	9.28
669.327	9.25
669.516	9.24
669.704	9.31
669.892	9.3
670.08	9.3
670.269	9.32
670.457	9.3
670.645	9.28
670.833	9.29
671.021	9.24
671.21	9.27
671.398	9.28
671.586	9.32
671.774	9.35
671.962	9.35
672.15	9.32
672.338	9.36
672.526	9.41
672.714	9.51
672.902	9.49
673.09	9.54
673.278	9.57
673.466	9.7
673.654	9.71
673.842	9.73
674.03	9.75
674.218	9.78
674.405	9.88
674.593	10.02
674.781	10.05
674.969	10.15
675.157	10.21
675.344	10.3
675.532	10.43
675.72	10.4
675.908	10.41
676.095	10.54
676.283	10.6
676.471	10.71
676.658	10.77
676.846	10.89
677.033	11.03
677.221	11.14
677.409	11.17
677.596	11.29
677.784	11.34
677.971	11.47
678.159	11.59
678.346	11.67
678.534	11.78
678.721	11.89
678.909	12.04
679.096	12.16
679.283	12.24
679.471	12.39
679.658	12.48
679.846	12.66
680.033	12.8
680.22	12.84
680.408	12.91
680.595	13.1
680.782	13.21
680.969	13.39
681.157	13.42
681.344	13.56
681.531	13.75
681.718	13.98
681.905	14.11
682.093	14.29
682.28	14.5
682.467	14.69
682.654	14.82
682.841	15.01
683.028	15.23
683.215	15.39
683.402	15.52
683.589	15.74
683.776	16
683.963	16.27
684.15	16.52
684.337	16.76
684.524	17.1
684.711	17.37
684.898	17.6
685.085	17.88
685.271	18.15
685.458	18.49
685.645	18.82
685.832	19.1
686.019	19.46
686.205	19.8
686.392	20.19
686.579	20.53
686.766	20.96
686.952	21.4
687.139	21.7
687.326	22.2
687.512	22.65
687.699	23.01
687.886	23.47
688.072	23.91
688.259	24.35
688.445	24.86
688.632	25.21
688.818	25.71
689.005	26.38
689.191	26.89
689.378	27.39
689.564	27.85
689.751	28.6
689.937	29.28
690.124	29.92
690.31	30.36
690.496	31.04
690.683	31.71
690.869	32.38
691.055	33
691.242	33.66
691.428	34.33
691.614	35.13
691.8	35.84
691.987	36.54
692.173	37.34
692.359	38.12
692.545	38.75
692.731	39.38
692.918	39.99
693.104	40.58
693.29	41.28
693.476	41.96
693.662	42.51
693.848	43.22
694.034	43.91
694.22	44.71
694.406	45.65
694.592	46.28
694.778	46.97
694.964	47.66
695.15	48.39
695.336	49.25
695.522	49.99
695.708	50.63
695.894	51.43
696.08	52.14
696.265	52.8
696.451	53.59
696.637	54.21
696.823	54.77
697.009	55.38
697.194	56.02
697.38	56.45
697.566	57.21
697.751	57.83
697.937	58.38
698.123	59.11
698.308	59.74
698.494	60.22
698.68	61.14
698.865	61.76
699.051	62.27
699.236	62.95
699.422	63.44
699.607	63.73
699.793	64.39
699.978	64.71
700.164	65.14
700.349	65.6
700.535	66.07
700.72	66.64
700.906	67.22
701.091	67.7
701.276	68.27
701.462	68.63
701.647	68.94
701.832	69.44
702.018	69.83
702.203	70.35
702.388	70.55
702.573	70.98
702.759	71.42
702.944	72.01
703.129	72.35
703.314	72.77
703.499	73.16
703.684	73.75
703.87	74.07
704.055	74.49
704.24	74.81
704.425	75.29
704.61	75.56
704.795	75.92
704.98	76.17
705.165	76.49
705.35	76.73
705.535	77.13
705.72	77.15
705.905	77.4
706.09	77.61
706.275	77.88
706.459	78.36
706.644	78.7
706.829	78.85
707.014	79.24
707.199	79.41
707.384	79.62
707.568	79.91
707.753	80.04
707.938	80.15
708.123	80.43
708.307	80.87
708.492	80.97
708.677	81.34
708.861	81.54
709.046	81.65
709.231	81.81
709.415	81.98
709.6	81.84
709.784	82.27
709.969	82.39
710.153	82.6
710.338	82.76
710.522	82.87
710.707	82.92
710.891	83.4
711.076	83.49
711.26	83.73
711.445	83.83
711.629	84.1
711.813	84.41
711.998	84.54
712.182	84.56
712.366	85.08
712.551	85.23
712.735	85.27
712.919	85.56
713.103	85.7
713.288	86.15
713.472	86.25
713.656	85.88
713.84	86.08
714.024	86.32
714.208	86.09
714.393	86.39
714.577	86.26
714.761	86.33
714.945	86.54
715.129	86.4
715.313	86.5
715.497	86.92
715.681	86.9
715.865	87.12
716.049	87.26
716.233	87.61
716.417	88.15
716.601	88.33
716.785	88.25
716.968	88.13
717.152	88.28
717.336	88.24
717.52	88.31
717.704	88.22
717.888	88.29
718.071	88.48
718.255	88.93
718.439	88.88
718.622	89.01
718.806	88.62
718.99	88.64
719.174	88.56
719.357	88.57
719.541	88.71
719.724	88.72
719.908	88.99
720.092	89.5
720.275	89.72
720.459	90.05
720.642	89.95
720.826	89.84
721.009	90
721.193	90.05
721.376	89.87
721.559	89.91
721.743	90.22
721.926	90.31
722.11	90.43
722.293	90.13
722.476	89.83
722.66	90.13
722.843	90.11
723.026	90.03
723.21	90.07
723.393	90.09
723.576	90.36
723.759	90.94
723.942	91
724.126	91.15
724.309	91.23
724.492	91.51
724.675	91.51
724.858	92.36
725.041	92.27
725.224	92.39
725.407	92.16
725.59	91.96
725.774	91.94
725.957	92.45
726.14	91.82
726.322	91.72
726.505	92.01
726.688	92.45
726.871	92.52
727.054	92.8
727.237	92.51
727.42	93.37
727.603	93.45
727.786	93.62
727.968	93.96
728.151	94.48
728.334	94.43
728.517	94.59
728.699	94.02
728.882	94.51
729.065	94.18
729.248	93.52
729.43	93.26
729.613	93.62
729.796	93.64
729.978	93.63
730.161	93.96
730.343	94.31
730.526	94.82
730.708	95.39
730.891	95.28
731.073	95.48
731.256	95.98
731.438	95.92
731.621	96.24
731.803	96.49
731.986	96.24
732.168	96.13
732.35	96.4
732.533	96.19
732.715	96.05
732.898	95.69
733.08	95.96
733.262	95.73
733.444	95.79
733.627	95.76
733.809	95.79
733.991	95.91
734.173	95.61
734.355	95.44
734.538	95.51
734.72	96.2
734.902	96.03
735.084	96.61
735.266	96.45
735.448	96.87
735.63	96.75
735.812	96.81
735.994	95.97
736.176	96.24
736.358	96.17
736.54	96.08
736.722	96.2
736.904	96.51
737.086	97.1
737.268	97.79
737.45	97.45
737.632	96.44
737.814	96.75
737.995	96.87
738.177	97.18
738.359	96.99
738.541	96.49
738.723	96.44
738.904	96.87
739.086	97.05
739.268	97.5
739.449	97.18
739.631	97.16
739.813	97.39
739.994	98.03
740.176	98.24
740.358	97.85
740.539	97.55
740.721	97.55
740.902	97.52
741.084	97.72
741.265	97.67
741.447	97.3
741.628	97.01
741.81	97.42
741.991	97.71
742.172	97.7
742.354	98.01
742.535	97.82
742.717	98.48
742.898	99.6
743.079	98.96
743.261	98.67
743.442	98.73
743.623	98.77
743.804	98.77
743.986	97.91
744.167	97.14
744.348	97.5
744.529	96.95
744.71	96.23
744.891	95.73
745.073	95.64
745.254	96.32
745.435	96.27
745.616	95.94
745.797	95.92
745.978	97.33
746.159	97
746.34	97.1
746.521	96.97
746.702	97.02
746.883	97
747.064	97.34
747.245	96.85
747.426	97.45
747.606	97.44
747.787	97.93
747.968	98.22
748.149	98.2
748.33	98.68
748.51	97.76
748.691	97.7
748.872	97.98
749.053	97.63
749.233	97.22
749.414	97.23
749.595	96.34
749.775	97.32
749.956	96.14
750.137	96.06
750.317	95.13
750.498	95.25
750.678	95.13
750.859	95.32
751.04	94.74
751.22	94.92
751.4	94.57
751.581	95.15
751.761	95.3
751.942	95.69
752.122	95.67
752.303	95.56
752.483	96.78
752.663	97.6
752.844	97.13
753.024	97.34
753.204	96.83
753.385	96.28
753.565	96.01
753.745	94.89
753.925	93.44
754.106	93.7
754.286	93.09
754.466	93.53
754.646	93.94
754.826	94.07
755.006	94.64
755.187	96.08
755.367	96.47
755.547	97.09
755.727	96.21
755.907	96.59
756.087	96.82
756.267	96.55
756.447	95.47
756.627	96.18
756.807	96.26
756.987	97.44
757.167	97.34
757.346	96.88
757.526	97.37
757.706	97.17
757.886	96.08
758.066	95.91
758.246	95.65
758.425	95.77
758.605	95.84
758.785	95.33
758.965	94.52
759.144	95.4
759.324	95.23
759.504	94.32
759.683	93.39
759.863	93.82
760.043	94.22
760.222	94.92
760.402	95.01
760.581	94.7
760.761	95.31
760.94	95.48
761.12	95.16
761.299	94.17
761.479	94.72
761.658	93.48
761.838	93.14
762.017	93.3
762.197	94.89
762.376	94.76
762.555	95.89
762.735	94.62
762.914	95.51
763.093	95.73
763.273	94.97
763.452	93.81
763.631	92.75
763.81	92.68
763.99	93.59
764.169	92.76
764.348	93.04
764.527	93.6
764.706	93.35
764.885	94.62
765.064	93.68
765.243	93.26
765.423	94.17
765.602	92.45
765.781	91.87
765.96	92.92
766.139	91.94
766.318	92.45
766.497	92.66
766.676	93.05
766.854	94.32
767.033	94.57
767.212	93.15
767.391	93.13
767.57	93.24
767.749	93.58
767.928	91.49
768.106	91.28
768.285	91.45
768.464	91.65
768.643	92.99
768.821	91.86
769	92.57
769.179	92.26
769.357	91.99
769.536	91.74
769.715	91.52
769.893	90.77
770.072	91.47
770.25	90.04
770.429	91.94
770.607	91.81
770.786	91.44
770.964	91.75
771.143	92.03
771.321	91.96
771.5	91.39
771.678	90.24
771.857	89.75
772.035	89.39
772.213	89.47
772.392	88.52
772.57	88.34
772.748	88.22
772.927	89.41
773.105	91.28
773.283	90.68
773.461	89.89
773.64	90.2
773.818	89.04
773.996	88.97
774.174	87.98
774.352	87.48
774.531	87.69
774.709	88.5
774.887	88.78
775.065	89.92
775.243	91.82
775.421	91.6
775.599	90.36
775.777	90.89
775.955	90.13
776.133	88.64
776.311	87.85
776.489	86.49
776.667	86.76
776.844	87.15
777.022	86.23
777.2	86.62
777.378	87.73
777.556	89.65
777.734	89.32
777.911	90.15
778.089	89.1
778.267	89.59
778.445	87.34
778.622	87.16
778.8	86.28
778.978	86.36
779.155	84.34
779.333	83.66
779.511	84.31
779.688	85.4
779.866	84.21
780.043	84.08
780.221	83.49
780.398	84.64
780.576	86.06
780.753	84.66
780.931	85.84
781.108	86.84
781.286	85.48
781.463	86.28
781.64	85.18
781.818	84.37
781.995	84.85
782.172	84.15
782.35	84.27
782.527	86.89
782.704	86.46
782.882	88.88
783.059	88.67
783.236	89.1
783.413	88.71
783.59	87.67
783.768	86.22
783.945	87.22
784.122	84.13
784.299	85.03
784.476	84.89
784.653	84.19
784.83	82.96
785.007	82.32
785.184	82.28
785.361	83.03
785.538	83.13
785.715	82.8
785.892	82.41
786.069	84.1
786.246	81.9
786.423	82.53
786.6	82.06
786.776	81.25
786.953	80.79
787.13	82.98
787.307	83.51
787.484	88.3
787.66	87.04
787.837	88.72
788.014	88.78
788.191	89.2
788.367	88.81
788.544	89.14
788.721	87.07
788.897	88
789.074	86.51
789.25	87.3
789.427	87.51
789.603	88.82
789.78	88.86
789.956	88.9
790.133	88.84
790.309	89.19
790.486	89.98
790.662	90.17
790.839	89.36
791.015	89.8
791.192	89.47
791.368	91.25
791.544	92.62
791.721	91.07
791.897	89.86
792.073	87.96
792.249	89.48
792.426	88.71
792.602	85.75
792.778	83.12
792.954	81.98
793.13	83.18
793.307	80.65
793.483	77.98
793.659	79.11
793.835	76.71
794.011	75.51
794.187	75.06
794.363	75.47
794.539	78.16
794.715	75.62
794.891	72.83
795.067	74.73
795.243	76.9
795.419	81.22
795.595	80.5
795.771	82.08
795.947	83.65
796.122	84.33
796.298	85.42
796.474	86.67
796.65	86.35
796.826	88.25
797.001	85.94
797.177	84.82
797.353	88.4
797.529	87.19
797.704	87.11
797.88	82.93
798.056	82.2
798.231	84.3
798.407	87.82
798.582	85.17
798.758	87.38
798.934	85.1
799.109	83.5
799.285	83.84
799.46	84.54
799.636	83.83
799.811	85.8
799.986	82.33
800.162	82.19
800.337	83.69
800.513	81.18
800.688	82.14
800.863	82.36
801.039	78.49
801.214	81.55
801.389	79.42
801.565	81.66
801.74	79.72
801.915	79.56
802.09	78.79
802.265	79.52
802.441	76.93
802.616	80.81
802.791	78.94
802.966	81.83
803.141	73.49
803.316	77
803.491	77.11
803.666	80.68
803.841	81.26
804.016	85.53
804.191	83.97
804.366	90.45
804.541	87.52
804.716	84.83
804.891	87.37
805.066	83.97
805.241	78.07
805.416	76.22
805.591	76.49
805.765	75.79
805.94	78.29
806.115	70.86
806.29	70.97
806.464	71.63
806.639	75.59
806.814	69.82
806.989	69.87
807.163	71.55
807.338	74.72
807.512	73.17
807.687	73.91
807.862	71.84
808.036	73.74
808.211	76.28
808.385	72.48
808.56	74.19
808.734	77.9
808.909	80.14
809.083	81
809.258	89.49
809.432	84.65
809.606	85.37
809.781	82.56
809.955	83.82
810.13	82.51
810.304	80.53
810.478	76.81
810.652	79.15
810.827	80.15
811.001	80.24
811.175	76.26
811.349	75.89
811.524	76.16
811.698	74.49
811.872	76.03
812.046	76.04
812.22	74.5
812.394	76.32
812.568	78.27
812.742	76.71
812.916	72.95
813.09	66.52
813.264	66.32
813.438	74.07
813.612	72.19
813.786	70.47
813.96	73.15
814.134	80.79
814.308	80.75
814.482	81.56
814.656	78.54
814.83	81.15
815.003	84.96
815.177	82.96
815.351	81.49
815.525	84.4
815.698	81.48
815.872	78.73
816.046	80.21
816.219	79.08
816.393	77.06
816.567	70.68
816.74	72.9
816.914	75.89
817.088	72.74
817.261	67.9
817.435	63.02
817.608	65.08
817.782	71.67
817.955	64.8
818.129	63.91
818.302	68.62
818.475	76.51
818.649	75.53
818.822	75.97
818.996	72.47
819.169	76.24
819.342	76.16
819.516	78.85
819.689	74.77
819.862	73.68
820.035	76.24
820.209	78.25
820.382	79.55
820.555	81.06
820.728	71.87
820.901	70.1
821.075	75.72
821.248	73
821.421	65.04
821.594	63.75
821.767	63.44
821.94	63.49
822.113	66.05
822.286	64.51
822.459	68.12
822.632	80.79
822.805	77.53
822.978	72.47
823.151	75.25
823.324	64.94
823.496	57.45
823.669	54.65
823.842	50.22
824.015	49.48
824.188	48.83
824.361	49.52
824.533	55.64
824.706	65.99
824.879	67.51
825.051	71.45
825.224	74.24
825.397	68.57
825.569	75.9
825.742	75.3
825.915	70.29
826.087	66.02
826.26	63.56
826.432	69.23
826.605	78.13
826.777	67.37
826.95	64.34
827.122	70.93
827.295	75.11
827.467	62.69
827.64	53.66
827.812	45.74
827.984	58.09
828.157	58.37
828.329	54.56
828.501	56.5
828.674	64.8
828.846	64.71
829.018	68.67
829.19	58.97
829.363	67.51
829.535	63.26
829.707	54.1
829.879	53.66
830.051	57.32
830.223	52.27
830.395	47.49
830.568	47.85
830.74	52.55
830.912	58.83
831.084	60.38
831.256	58.55
831.428	60.71
831.6	60.86
831.772	57.77
831.943	61.47
832.115	66.73
832.287	63.29
832.459	61.76
832.631	66.81
832.803	74.9
832.975	68.7
833.146	55.65
833.318	52.22
833.49	60.29
833.662	61.53
833.833	64.71
834.005	63.7
834.177	68.41
834.348	76.56
834.52	82.24
834.692	82
834.863	87.45
835.035	81.59
835.206	74.41
835.378	66.35
835.549	66.68
835.721	57.41
835.892	55.7
836.064	59.14
836.235	60.25
836.407	56.75
836.578	67.44
836.749	67.02
836.921	66.66
837.092	75.98
837.264	60.04
837.435	47.5
837.606	60.77
837.777	46.76
837.949	37.61
838.12	40.65
838.291	37.87
838.462	46.57
838.633	46.15
838.805	42.96
838.976	53.59
839.147	53.39
839.318	47.6
839.489	42.89
839.66	50.1
839.831	52.54
840.002	53.28
840.173	47.8
840.344	71.01
840.515	67.38
840.686	66.24
840.857	56.13
841.028	63.77
841.199	63.19
841.369	55.28
841.54	46.91
841.711	60.55
841.882	50.88
842.053	49.53
842.223	47.35
842.394	48.19
842.565	68.24
842.736	66.29
842.906	57.7
843.077	66.15
843.248	72.83
843.418	64.07
843.589	67.83
843.759	53.98
843.93	54.34
844.101	54.3
844.271	54.13
844.442	64.79
844.612	59.83
844.783	30.97
844.953	25.79
845.123	29.91
845.294	20.43
845.464	32.01
845.635	21.14
845.805	33.81
845.975	52.78
846.146	55.78
846.316	67.03
846.486	72.57
846.656	78.51
846.827	69.31
846.997	82.26
847.167	78.34
847.337	91.46
847.507	82.87
847.677	88.73
847.848	75.8
848.018	80.55
848.188	58.75
848.358	69.51
848.528	56.04
848.698	31.78
848.868	0.1
849.038	16.77
849.208	30.04
849.378	27.17
849.548	26.89
849.718	15.91
849.887	20.89
850.057	37.41
850.227	34.59
850.397	19.12
850.567	45.71
850.737	25.68
850.906	29.23
851.076	31.69
851.246	41.08
851.415	37.67
851.585	44.54
851.755	42.49
851.924	68.05
852.094	70.7
852.264	68.85
852.433	57.9
852.603	68.59
852.772	60.99
852.942	38.45
853.111	32.96
853.281	28.71
853.45	36.39
853.62	29.76
853.789	23.47
853.959	19.53
854.128	9.05
854.297	5.99
854.467	17.98
854.636	24.41
854.805	29.43
854.975	37.9
855.144	44.19
855.313	67.98
855.482	53.75
855.652	55.85
855.821	53.77
855.99	82.85
856.159	76.39
856.328	65.36
856.497	53.33
856.667	57.98
856.836	44.69
857.005	37.11
857.174	31.07
857.343	30.06
857.512	21.3
857.681	24.6
857.85	14.04
858.019	27.74
858.188	24.39
858.356	-12.4
858.525	1.7
858.694	23.17
858.863	27
859.032	33.5
859.201	15.51
859.369	37.93
859.538	50.57
859.707	63.52
859.876	56.95
860.044	74.04
860.213	74.55
860.382	76.1
860.55	83.85
860.719	86.8
860.888	75.64
861.056	69.63
861.225	52.72
861.393	58.07
861.562	44.97
861.73	27.45
861.899	16.32
862.067	14.5
862.236	11.64
862.404	12.61
862.572	3.77
862.741	14.04
862.909	8.58
863.078	0.3
863.246	-9.98
863.414	12.75
863.582	8.69
863.751	15.37
863.919	12.8
864.087	22.94
864.255	33.14
864.424	41.12
864.592	45.29
864.76	63.06
864.928	71.01
865.096	66.06
865.264	69.34
865.432	77.88
865.6	64.93
865.768	44.99
865.936	36.12
866.104	21.95
866.272	28.68
866.44	6.93
866.608	-10.85
866.776	18.8
866.944	34.82
867.112	-5.58
867.28	-6.99
867.448	26.48
867.615	32.69
867.783	25.69
867.951	37.28
868.119	34.01
868.286	42.94
868.454	41.92
868.622	32.55
868.789	34.01
868.957	31.58
869.125	24.33
869.292	23.27
869.46	33.89
869.627	19
869.795	4.05
869.963	13.25
870.13	30.65
870.298	19.84
870.465	-4.89
870.632	-20.7
870.8	-15.85
870.967	1.31
871.135	-2.23
871.302	9.27
871.469	11.68
871.637	10.17
871.804	19.83
871.971	34.45
872.139	45.88
872.306	32.78
872.473	7.53
872.64	5.98
872.807	7.58
872.975	3.2
873.142	-66.64
873.309	-129.33
873.476	-162.43
873.643	-94.89
873.81	-90.86
873.977	-64.38
874.144	-103.15
874.311	-56.06
874.478	-73.26
874.645	-100.21
874.812	-59.23
874.979	-89.98
875.146	-135.01
875.313	-188.16
875.48	-99.86
875.647	-129.53
875.813	-107.13
875.98	-98.68
876.147	14.64
876.314	11.12
876.481	-4.79
876.647	-3.52
876.814	23.29
876.981	24.39
877.147	19.1
877.314	-11.06
877.481	13.34
877.647	31.36
877.814	15.48
877.98	18.16
878.147	19.95
878.314	6.85
878.48	17.96
878.647	47.42
878.813	47.78
878.979	88.62
879.146	41.45
879.312	83.71
879.479	89.28
879.645	74.75
879.811	55.76
879.978	59.64
880.144	46.62
880.31	49.38
880.477	2.25
880.643	-124.62
880.809	4.04
880.975	-25.86
881.142	-26.33
881.308	-11.12
881.474	25.43
881.64	-26.35
881.806	20.45
881.972	46.69
882.138	39.47
882.304	-19.58
882.47	-25.86
882.636	-48.44
882.802	-64.76
882.968	-123.77
883.134	-319.63
883.3	-136.79
883.466	-9.71
883.632	-24.67
883.798	-32.86
883.964	-21.2
884.129	-12.36
884.295	-8.57
884.461	-52.2
884.627	-86.19
884.793	-29.54
884.958	-13.66
885.124	-47.55
885.29	-18.06
885.455	-11.33
885.621	-8.81
885.787	-9.8
885.952	-27.95
886.118	-21.99
886.283	-1.97
886.449	-26.08
886.614	-25.25
886.78	30.7
886.945	5.24
887.111	9.43
887.276	-1.72
887.442	-1.04
887.607	-15.25
887.773	-33.83
887.938	-53.11
888.103	-1.65
888.269	-4.98
888.434	-1.44
888.599	29.13
888.764	47.75
888.93	66
889.095	39.67
889.26	62.59
889.425	99.53
889.59	71.2
889.756	43.21
889.921	31.44
890.086	57.04
890.251	61.06
890.416	22.98
890.581	2.86
890.746	6.5
890.911	7.09
891.076	-34.68
891.241	-113.53
891.406	-14.44
891.571	-2.36
891.736	-11.5
891.901	16.09
892.065	22.04
892.23	27.74
892.395	1.79
892.56	12.74
892.725	29.33
892.889	22.45
893.054	-39.32
893.219	-80.27
893.384	-134.6
893.548	-145
893.713	599.01
893.878	496.2
