Data from Ofra_PS_T2_2A_1GT42_Reflection_1.txt Node
Date: Wed Jul 21 16:55:03 EDT 2021
User: Adam
Spectrometer: FLMT01687
Trigger mode: 0
Integration Time (sec): 1.100000E0
Scans to average: 2
Electric dark correction enabled: true
Nonlinearity correction enabled: false
Boxcar width: 2
XAxis mode: Wavelengths
Number of Pixels in Spectrum: 3648
>>>>>Begin Spectral Data<<<<<
179.494	459.8
179.716	524
179.937	483.82
180.158	483.69
180.38	813.59
180.601	386.05
180.823	93.54
181.044	-25.71
181.265	-26.65
181.486	26.47
181.708	51.21
181.929	513.78
182.15	-675.7
182.372	59.88
182.593	52.35
182.814	6.76
183.035	59.52
183.257	63.61
183.478	-24.84
183.699	-11.38
183.92	3.52
184.141	-1.91
184.363	-10.02
184.584	-10.71
184.805	34.52
185.026	64.47
185.247	56.45
185.468	27.19
185.689	28.29
185.91	2.26
186.132	-11.01
186.353	8.36
186.574	44.64
186.795	59.76
187.016	18.88
187.237	9.56
187.458	-13.4
187.679	-9.91
187.9	-19.16
188.121	14.2
188.342	22.33
188.563	30.8
188.784	31.09
189.005	36.88
189.226	81.08
189.447	91.57
189.667	-55.22
189.888	-209.73
190.109	-743.83
190.33	-510.81
190.551	-1112.17
190.772	-188.8
190.993	-174.64
191.214	-128.33
191.434	-85.48
191.655	-5.86
191.876	-48.45
192.097	-78.63
192.318	-134.58
192.538	-226.03
192.759	-150.68
192.98	-82.92
193.201	-18.69
193.421	-7.09
193.642	3.6
193.863	-10.76
194.083	-23.59
194.304	-22.72
194.525	-32.12
194.745	-59.78
194.966	-48.37
195.187	-38.09
195.407	-91.38
195.628	-115.18
195.848	-102.71
196.069	-101.38
196.29	-57.88
196.51	-67.05
196.731	-78.73
196.951	-85.48
197.172	-82.85
197.392	-126.77
197.613	-100.47
197.833	-98.62
198.054	-94.43
198.274	-53.61
198.495	-51.48
198.715	-29.75
198.936	-49.61
199.156	-39.21
199.377	-126.64
199.597	-126.89
199.817	-148.76
200.038	-102.64
200.258	-157.72
200.479	-112.57
200.699	-130.87
200.919	-37.47
201.14	-40.5
201.36	-37.6
201.58	1.81
201.801	23
202.021	-17.45
202.241	-14.02
202.461	-12.52
202.682	-66.01
202.902	-130.02
203.122	-46.73
203.342	-18.91
203.563	-12.08
203.783	-3.89
204.003	-23.26
204.223	-32.92
204.443	-19.21
204.663	-51.17
204.884	-32.42
205.104	-10.13
205.324	0.66
205.544	27.27
205.764	38.85
205.984	34.22
206.204	45.21
206.424	33.59
206.644	0.83
206.864	-0.51
207.084	-13.32
207.304	-32.51
207.525	-117.11
207.745	-71.44
207.964	13.01
208.184	-38.64
208.404	-64.18
208.624	-68.86
208.844	-61.5
209.064	-322.75
209.284	-361.33
209.504	-203.14
209.724	-73.1
209.944	-54.7
210.164	-19.38
210.384	7.7
210.604	-13.79
210.823	-48.32
211.043	-50.15
211.263	-42.22
211.483	-40.82
211.703	-55.41
211.922	-29.12
212.142	13.75
212.362	12.69
212.582	-7.07
212.801	-2.15
213.021	-27.35
213.241	-39.48
213.461	-56.49
213.68	-64.42
213.9	-82.02
214.12	-60.44
214.339	-107.88
214.559	-90.64
214.779	-44.01
214.998	-10.3
215.218	-37.4
215.438	-15.28
215.657	-11.62
215.877	-10.32
216.096	-0.42
216.316	7.8
216.535	-9.59
216.755	-17.27
216.974	-91.4
217.194	-174.76
217.413	-142.62
217.633	-126.56
217.852	-182.49
218.072	-68.79
218.291	7.52
218.511	34.2
218.73	22.75
218.95	11.94
219.169	6.08
219.389	-47.27
219.608	-30.37
219.827	-40.95
220.047	-26.2
220.266	-24.85
220.485	-3.73
220.705	-8.3
220.924	-17.4
221.143	5.45
221.363	-5.5
221.582	12.1
221.801	6.08
222.021	37
222.24	-13.37
222.459	16.57
222.678	-40.29
222.897	-121
223.117	-180.37
223.336	-148.54
223.555	-112.29
223.774	-71.59
223.993	-9.5
224.213	63.5
224.432	56.45
224.651	66.05
224.87	39.92
225.089	31.82
225.308	12.98
225.527	34.95
225.746	27.52
225.965	31.98
226.184	22.59
226.404	18.64
226.623	-12.8
226.842	10.32
227.061	23.87
227.28	18.15
227.499	13.37
227.718	38.08
227.936	24.86
228.155	33.24
228.374	32.57
228.593	30.32
228.812	20.51
229.031	11.3
229.25	-40.19
229.469	-45.84
229.688	-43.86
229.907	-13.23
230.125	-20.73
230.344	-6.34
230.563	10.68
230.782	24.21
231.001	-39.7
231.22	-28.44
231.438	-21.55
231.657	-31.21
231.876	-55.96
232.095	-6.75
232.313	-6.98
232.532	-15.96
232.751	-3.38
232.969	-17.55
233.188	-82.1
233.407	11.89
233.625	8.62
233.844	2.13
234.063	35.29
234.281	55.83
234.5	27.66
234.719	30.09
234.937	35.79
235.156	21.56
235.374	0.72
235.593	-5.52
235.811	-5.29
236.03	-11.02
236.249	-47.12
236.467	-57.71
236.686	-17.14
236.904	-2.23
237.123	-34.7
237.341	-19.47
237.559	-8
237.778	-28.45
237.996	-63.06
238.215	-11.44
238.433	2.94
238.652	-8.97
238.87	-34.9
239.088	-24.64
239.307	-36.13
239.525	-65.16
239.743	-74.01
239.962	-57.39
240.18	-63.78
240.398	-99.49
240.617	-85.88
240.835	-68.56
241.053	-34.87
241.271	-23.49
241.49	21.56
241.708	10.28
241.926	5.42
242.144	4.85
242.363	-12.88
242.581	-44.16
242.799	-34.06
243.017	-13.02
243.235	-27.62
243.453	-34.99
243.672	-24.25
243.89	-20.58
244.108	-30.9
244.326	-20
244.544	-15.13
244.762	-28.18
244.98	-30.56
245.198	-19.29
245.416	-40.46
245.634	-36.67
245.852	-51.82
246.07	-70.28
246.288	-60.28
246.506	-83.81
246.724	-59.59
246.942	-13.68
247.16	12.17
247.378	15.81
247.596	43.59
247.814	49.17
248.032	20.39
248.25	31.8
248.468	26.83
248.685	31.35
248.903	37.66
249.121	31.86
249.339	18.05
249.557	6.4
249.775	11.02
249.992	-46.24
250.21	-28.57
250.428	-33.68
250.646	-55.46
250.863	-70.01
251.081	-33.68
251.299	-23.76
251.517	-12.91
251.734	9.18
251.952	13.67
252.17	1.51
252.387	5.66
252.605	3.16
252.823	4.24
253.04	10.35
253.258	26.85
253.475	4.47
253.693	19.67
253.911	34.49
254.128	34.78
254.346	34.61
254.563	27.92
254.781	12.32
254.998	-2.67
255.216	-2.34
255.433	5
255.651	56.5
255.868	84.06
256.086	78.42
256.303	64.9
256.521	44.95
256.738	9.11
256.956	-25.28
257.173	-51.91
257.39	-60.8
257.608	-56.1
257.825	4.57
258.043	36.5
258.26	38.39
258.477	55.5
258.695	20.5
258.912	-34.57
259.129	-22.94
259.346	-45.85
259.564	-78.82
259.781	-71.51
259.998	-14.56
260.216	-9.39
260.433	24.38
260.65	26.23
260.867	29.51
261.084	-0.19
261.302	-2.44
261.519	-13.48
261.736	-21.18
261.953	-32.72
262.17	9.77
262.387	-25.07
262.604	-32.05
262.822	-24.93
263.039	3.12
263.256	-45.3
263.473	-1.1
263.69	0.64
263.907	23.17
264.124	29.69
264.341	28.15
264.558	23.31
264.775	17.37
264.992	-9.54
265.209	-26.18
265.426	1.5
265.643	-2.54
265.86	6.71
266.077	20.55
266.294	26.84
266.51	-18.48
266.727	-24.88
266.944	-20.23
267.161	-42.57
267.378	-53.73
267.595	-21.44
267.812	-40.22
268.028	-58.34
268.245	-26.36
268.462	-20.53
268.679	-16.45
268.896	18.68
269.112	3.56
269.329	8.36
269.546	13.02
269.763	0.95
269.979	-7.71
270.196	1.55
270.413	-32.29
270.629	-37.56
270.846	-35.25
271.063	-33.41
271.279	-20.72
271.496	-11.32
271.712	8.59
271.929	18.17
272.146	3.22
272.362	-7.34
272.579	9.5
272.795	7.25
273.012	8.25
273.228	35.79
273.445	8.73
273.661	2.06
273.878	-19.06
274.094	-9.36
274.311	-55.19
274.527	9.85
274.744	10.67
274.96	1.21
275.177	-4.11
275.393	5.84
275.609	-1.85
275.826	13.35
276.042	19.03
276.259	36.12
276.475	47.64
276.691	38.09
276.908	15.65
277.124	28.34
277.34	15.79
277.557	7.45
277.773	1.28
277.989	1.87
278.205	-14.14
278.422	-4.47
278.638	3.79
278.854	18.18
279.07	25.18
279.286	24.21
279.503	2.84
279.719	-9.08
279.935	-31.27
280.151	-35.95
280.367	-16.1
280.583	-35.25
280.799	-36.37
281.016	-58.91
281.232	-32.44
281.448	-35.12
281.664	-14.26
281.88	-39.18
282.096	-18.61
282.312	-1.34
282.528	-12.55
282.744	-12.62
282.96	-0.81
283.176	1.86
283.392	-17.95
283.608	-14.68
283.824	-12.44
284.04	2.67
284.256	4.52
284.471	-1.98
284.687	5.22
284.903	25.22
285.119	15.16
285.335	1.77
285.551	12.87
285.767	-8.03
285.982	-25.51
286.198	-49.17
286.414	-2.21
286.63	1.85
286.846	23.1
287.061	7.36
287.277	37.51
287.493	11.42
287.709	23.64
287.924	7.86
288.14	40.63
288.356	30.37
288.571	47.57
288.787	33.9
289.003	35.31
289.218	9.93
289.434	-17.67
289.65	-18.8
289.865	-33.2
290.081	-14.18
290.296	14.19
290.512	23.56
290.727	1.38
290.943	10.21
291.159	5.67
291.374	-1.24
291.59	-24.18
291.805	-11.07
292.021	-8.98
292.236	-21.82
292.451	-8.08
292.667	7.24
292.882	9.89
293.098	-1.86
293.313	-22.27
293.529	-45.24
293.744	-57.07
293.959	-62.67
294.175	-40.01
294.39	-15.72
294.605	-9.84
294.821	6.87
295.036	10.62
295.251	9.99
295.467	11.26
295.682	11.53
295.897	-2.23
296.112	-25.55
296.328	-24.95
296.543	-57.64
296.758	-40.76
296.973	-21.48
297.188	12.67
297.404	-25.83
297.619	-30.98
297.834	-43.87
298.049	-55.97
298.264	-83.55
298.479	-15.33
298.694	-2.89
298.909	7.44
299.125	10.61
299.34	24.05
299.555	3.17
299.77	16.08
299.985	-4.98
300.2	-46.26
300.415	-56.1
300.63	-41.41
300.845	-55.26
301.06	-60.14
301.275	-23.52
301.49	-14.28
301.704	-18.64
301.919	-20.58
302.134	-29.28
302.349	-38.13
302.564	-80.19
302.779	-85.06
302.994	-108.11
303.209	-36.92
303.423	-21.38
303.638	16.95
303.853	-11.55
304.068	-3.32
304.283	-6.93
304.497	-1.3
304.712	-2.87
304.927	12.68
305.142	7.17
305.356	-0.3
305.571	-13.91
305.786	-21.93
306	-44.78
306.215	-49.46
306.43	-44.28
306.644	-25.44
306.859	9.85
307.074	28.93
307.288	18.53
307.503	5.89
307.717	11.79
307.932	2.14
308.147	-7.17
308.361	-1.07
308.576	-8.41
308.79	-61.9
309.005	-68.8
309.219	-41.12
309.434	-46.41
309.648	-33.46
309.863	-1.25
310.077	16.93
310.292	4.34
310.506	2.26
310.72	16.44
310.935	21.85
311.149	13.12
311.364	22.36
311.578	33.08
311.792	17.73
312.007	14.86
312.221	2.1
312.435	7.22
312.649	0.15
312.864	35.99
313.078	36.84
313.292	92.97
313.507	42.19
313.721	59.87
313.935	20.18
314.149	14.58
314.363	3.31
314.578	11.77
314.792	6.26
315.006	-13.95
315.22	2.77
315.434	5.55
315.648	14.06
315.862	22.34
316.077	26.6
316.291	-4.27
316.505	-6.28
316.719	-34.43
316.933	-59.59
317.147	-50.57
317.361	-70.46
317.575	-81.03
317.789	-103.71
318.003	-137.55
318.217	-118.31
318.431	-28.97
318.645	6.03
318.859	20.43
319.073	27.57
319.287	29.73
319.5	2.27
319.714	-34.8
319.928	-56.52
320.142	-66.95
320.356	-36.54
320.57	-17.92
320.784	-31.99
320.997	-65.01
321.211	-51.39
321.425	-91.95
321.639	-96.39
321.853	-43.23
322.066	-17.13
322.28	-12.78
322.494	-8.13
322.707	7.79
322.921	3.16
323.135	2.22
323.349	4.62
323.562	1.54
323.776	-8.85
323.989	-10.88
324.203	-14.05
324.417	-29.82
324.63	-37.38
324.844	-29.2
325.057	-24.9
325.271	-15.5
325.485	7.9
325.698	21.89
325.912	33.5
326.125	21.36
326.339	18.33
326.552	1.41
326.766	15.07
326.979	18.6
327.193	39.7
327.406	27.19
327.619	19.38
327.833	16.28
328.046	-5.7
328.26	-36.32
328.473	-10.52
328.686	-23.06
328.9	-44.91
329.113	-39.41
329.326	-58.59
329.54	-55.86
329.753	-46.98
329.966	-28.99
330.179	-26.09
330.393	-8.76
330.606	8.32
330.819	14.14
331.032	19.75
331.246	30
331.459	47.28
331.672	34.99
331.885	30.41
332.098	9.59
332.311	-22.81
332.525	-61.81
332.738	-55.4
332.951	-28.54
333.164	1.95
333.377	12.56
333.59	35.22
333.803	33.21
334.016	30.13
334.229	29.49
334.442	38.29
334.655	39.15
334.868	37.21
335.081	18.85
335.294	-3.8
335.507	-8.39
335.72	-30.59
335.933	-29.35
336.146	-43.93
336.359	-30
336.572	-54.69
336.785	-72.42
336.997	-48.83
337.21	-17.06
337.423	-25.96
337.636	-5.26
337.849	15.05
338.062	-8.1
338.274	-7.35
338.487	-1.86
338.7	-16.9
338.913	-34.01
339.125	-54.33
339.338	-89.92
339.551	-76.6
339.763	-39.49
339.976	-1.05
340.189	18.99
340.402	27.55
340.614	17.99
340.827	8.8
341.039	-25.24
341.252	-22.1
341.465	0.64
341.677	7.26
341.89	-19.28
342.102	1.75
342.315	-8.96
342.527	-50.73
342.74	-51.24
342.952	-5.41
343.165	3.23
343.377	20.49
343.59	18.01
343.802	25.4
344.015	7.88
344.227	18.57
344.44	10.38
344.652	12.37
344.864	7.83
345.077	29.77
345.289	26.79
345.502	24.36
345.714	18.26
345.926	13.35
346.139	0.54
346.351	6.79
346.563	24.47
346.775	25.02
346.988	26.16
347.2	15.19
347.412	-44.04
347.624	-65.88
347.837	-80
348.049	-72.25
348.261	-22.33
348.473	-0.92
348.685	5.03
348.897	8.4
349.11	4.81
349.322	-37.34
349.534	-21.56
349.746	-19.69
349.958	-13.99
350.17	-4.78
350.382	28.06
350.594	24.29
350.806	22.17
351.018	31.14
351.23	7.48
351.442	-25.24
351.654	-40.07
351.866	-34.86
352.078	-35.25
352.29	-9.95
352.502	4.98
352.714	12.69
352.926	-1.35
353.138	-8.07
353.35	-4.98
353.561	-9.77
353.773	-13.24
353.985	-0.34
354.197	9.4
354.409	1.27
354.621	-4.6
354.832	-7.87
355.044	-14.92
355.256	-25.66
355.468	-7.6
355.679	-4.67
355.891	-0.28
356.103	-17.16
356.314	1.83
356.526	-11.95
356.738	-18.59
356.949	-37.67
357.161	-4.43
357.373	-21.25
357.584	-29.89
357.796	-11.04
358.008	3.6
358.219	13.94
358.431	23.2
358.642	26.15
358.854	19.46
359.065	12.36
359.277	-14.3
359.488	-31.49
359.7	-38.37
359.911	-40.12
360.123	-28.77
360.334	-36.12
360.546	-48.4
360.757	-47.76
360.969	-48.25
361.18	-43.54
361.391	-27.17
361.603	-24.96
361.814	-17.61
362.025	-24.01
362.237	-25.21
362.448	-4.77
362.659	22.72
362.871	21.56
363.082	29.51
363.293	26.15
363.504	15.67
363.716	-4.44
363.927	4.27
364.138	-5.25
364.349	-19.48
364.56	-15.87
364.772	-21.39
364.983	-12.47
365.194	-20.34
365.405	-2.46
365.616	-4.01
365.827	-5.08
366.038	-33.49
366.25	-25.69
366.461	-53.9
366.672	-21.5
366.883	-5.68
367.094	11.8
367.305	12.71
367.516	14.83
367.727	-13.4
367.938	-10.05
368.149	-12.95
368.36	-12.77
368.571	-14.8
368.781	-25.36
368.992	-39.22
369.203	-60.66
369.414	-77.09
369.625	-71
369.836	-55.36
370.047	-89.95
370.258	-69.23
370.468	-50.46
370.679	-57.26
370.89	-46.17
371.101	-12.82
371.312	-14.28
371.522	-24.42
371.733	-21.64
371.944	-18.74
372.155	-22.27
372.365	-27.69
372.576	-26.81
372.787	-19.84
372.997	-37.72
373.208	-37.54
373.419	-9.43
373.629	-32.12
373.84	-35.58
374.05	-31.36
374.261	-19.08
374.472	-32.93
374.682	15.88
374.893	19.88
375.103	41.96
375.314	36.62
375.524	29.69
375.735	19.89
375.945	25.58
376.156	7.51
376.366	13.42
376.577	16
376.787	10.12
376.997	1.39
377.208	0.13
377.418	-13.45
377.629	-3.66
377.839	-6.74
378.049	-3.18
378.26	10.34
378.47	13.22
378.68	3.62
378.89	4.42
379.101	2.63
379.311	-23.49
379.521	-44.85
379.732	-37.39
379.942	-31.51
380.152	-41.39
380.362	-23.81
380.572	-17.22
380.783	-7.64
380.993	-9.29
381.203	-5.03
381.413	9.4
381.623	17.07
381.833	16.85
382.043	13.9
382.253	10.34
382.463	5
382.674	0.91
382.884	-19.05
383.094	-13.52
383.304	-6.07
383.514	4.67
383.724	12.01
383.934	17.06
384.144	6.85
384.353	-0.99
384.563	-11.25
384.773	-8.75
384.983	-15.89
385.193	-4.25
385.403	5.15
385.613	5.62
385.823	-7.38
386.033	1.75
386.242	-2.25
386.452	-8.6
386.662	-13.45
386.872	4.17
387.082	-0.49
387.291	-3.93
387.501	-7.64
387.711	-5.55
387.921	-18.67
388.13	-11.82
388.34	-6.23
388.55	-8.06
388.759	-8.56
388.969	-0.3
389.179	-8.61
389.388	-4.09
389.598	4.17
389.807	1.74
390.017	-1.54
390.227	3.66
390.436	-0.98
390.646	-4.82
390.855	-3.15
391.065	-3.05
391.274	-5.39
391.484	-3.42
391.693	-1.15
391.903	1.93
392.112	5.81
392.322	7.27
392.531	8.75
392.74	9.31
392.95	6.67
393.159	3.98
393.369	5.28
393.578	3.51
393.787	1.8
393.997	1.7
394.206	0.75
394.415	0.09
394.625	-0.47
394.834	-0.93
395.043	-0.61
395.252	2.6
395.462	4.86
395.671	6.3
395.88	7.56
396.089	8.47
396.298	6.57
396.508	4.52
396.717	3.91
396.926	4.39
397.135	3.99
397.344	4.12
397.553	5.22
397.762	6.13
397.971	5.98
398.181	5.91
398.39	5.78
398.599	5.26
398.808	5.38
399.017	5.47
399.226	6.12
399.435	6.5
399.644	6.73
399.853	5.68
400.062	5.49
400.27	4.88
400.479	4.56
400.688	3.78
400.897	4.34
401.106	4.48
401.315	4.83
401.524	4.97
401.733	5.62
401.941	5.65
402.15	5.76
402.359	5.52
402.568	5.78
402.777	5.72
402.985	5.54
403.194	5.22
403.403	5.17
403.612	4.6
403.82	4.29
404.029	4.6
404.238	4.59
404.446	4.85
404.655	4.76
404.864	4.84
405.072	4.42
405.281	4.57
405.489	4.18
405.698	4.28
405.906	4.32
406.115	4.42
406.324	4.36
406.532	4.66
406.741	4.88
406.949	4.93
407.158	4.89
407.366	4.9
407.574	4.84
407.783	4.84
407.991	4.61
408.2	4.78
408.408	4.83
408.617	4.79
408.825	4.71
409.033	4.75
409.242	4.68
409.45	4.62
409.658	4.44
409.867	4.49
410.075	4.43
410.283	4.31
410.491	4.22
410.7	4.32
410.908	4.23
411.116	4.56
411.324	4.59
411.533	4.65
411.741	4.82
411.949	4.71
412.157	4.36
412.365	4.35
412.573	4.31
412.781	4.25
412.99	4.38
413.198	4.5
413.406	4.46
413.614	4.46
413.822	4.25
414.03	4.05
414.238	3.9
414.446	3.98
414.654	3.82
414.862	3.96
415.07	4.06
415.278	4.34
415.486	4.14
415.694	4.25
415.902	4
416.109	4.04
416.317	3.87
416.525	3.84
416.733	3.83
416.941	4.12
417.149	4.1
417.357	4.07
417.564	4.32
417.772	4.38
417.98	4.11
418.188	4.08
418.395	4.09
418.603	4.09
418.811	3.79
419.019	3.82
419.226	3.91
419.434	4.02
419.642	3.84
419.849	3.98
420.057	4.12
420.265	3.98
420.472	3.79
420.68	3.85
420.887	3.94
421.095	3.76
421.302	3.87
421.51	4.03
421.717	4.01
421.925	4.07
422.132	4.01
422.34	3.62
422.547	3.56
422.755	3.44
422.962	3.21
423.17	3.17
423.377	3.47
423.585	3.44
423.792	3.49
423.999	3.52
424.207	3.55
424.414	3.52
424.621	3.44
424.829	3.44
425.036	3.58
425.243	3.8
425.451	3.68
425.658	3.52
425.865	3.64
426.072	3.62
426.28	3.62
426.487	3.7
426.694	3.81
426.901	3.73
427.108	3.72
427.315	3.62
427.523	3.71
427.73	3.67
427.937	3.5
428.144	3.36
428.351	3.39
428.558	3.43
428.765	3.47
428.972	3.52
429.179	3.62
429.386	3.79
429.593	3.67
429.8	3.61
430.007	3.76
430.214	3.84
430.421	3.6
430.628	3.45
430.835	3.51
431.042	3.55
431.249	3.56
431.456	3.51
431.662	3.73
431.869	3.87
432.076	3.88
432.283	3.94
432.49	4.09
432.697	4.05
432.903	3.85
433.11	3.85
433.317	3.91
433.524	3.86
433.73	3.78
433.937	3.96
434.144	3.87
434.35	3.7
434.557	3.75
434.764	3.79
434.97	3.73
435.177	3.81
435.384	3.79
435.59	3.8
435.797	3.95
436.003	4.02
436.21	4.04
436.416	4.21
436.623	4.25
436.829	4.26
437.036	4.36
437.242	4.36
437.449	4.12
437.655	4.07
437.862	4.13
438.068	4.03
438.275	4.12
438.481	4.43
438.687	4.43
438.894	4.41
439.1	4.41
439.307	4.47
439.513	4.39
439.719	4.45
439.926	4.56
440.132	4.48
440.338	4.33
440.544	4.39
440.751	4.38
440.957	4.34
441.163	4.45
441.369	4.64
441.575	4.49
441.782	4.44
441.988	4.37
442.194	4.34
442.4	4.25
442.606	4.52
442.812	4.6
443.018	4.64
443.224	4.7
443.431	4.74
443.637	4.48
443.843	4.41
444.049	4.4
444.255	4.32
444.461	4.35
444.667	4.41
444.873	4.57
445.079	4.54
445.284	4.62
445.49	4.47
445.696	4.42
445.902	4.33
446.108	4.32
446.314	4.28
446.52	4.28
446.726	4.4
446.931	4.46
447.137	4.54
447.343	4.63
447.549	4.61
447.755	4.54
447.96	4.51
448.166	4.44
448.372	4.35
448.578	4.5
448.783	4.48
448.989	4.58
449.195	4.77
449.4	4.85
449.606	4.74
449.812	4.72
450.017	4.74
450.223	4.66
450.428	4.51
450.634	4.59
450.84	4.64
451.045	4.55
451.251	4.49
451.456	4.82
451.662	4.94
451.867	5.05
452.073	4.98
452.278	5.02
452.483	5.02
452.689	4.88
452.894	4.88
453.1	4.91
453.305	4.96
453.51	4.86
453.716	4.8
453.921	4.83
454.127	4.77
454.332	4.68
454.537	4.63
454.742	4.65
454.948	4.54
455.153	4.7
455.358	4.79
455.563	4.92
455.769	5.07
455.974	5.17
456.179	5.05
456.384	4.94
456.589	4.94
456.795	4.81
457	4.76
457.205	4.87
457.41	4.91
457.615	4.82
457.82	4.92
458.025	4.93
458.23	4.91
458.435	4.89
458.64	4.8
458.845	4.79
459.05	4.83
459.255	4.82
459.46	4.88
459.665	4.92
459.87	4.95
460.075	4.84
460.28	4.81
460.485	4.89
460.69	4.94
460.895	4.82
461.099	4.87
461.304	5.05
461.509	5.04
461.714	5.01
461.919	5.15
462.123	5.06
462.328	5.08
462.533	5.02
462.738	5.18
462.942	5.07
463.147	5.14
463.352	5.04
463.556	5.11
463.761	4.98
463.966	5.08
464.17	5.16
464.375	5.05
464.58	4.97
464.784	5.01
464.989	4.96
465.193	4.9
465.398	5
465.602	5.12
465.807	5.1
466.011	5.18
466.216	5.24
466.42	5.3
466.625	5.37
466.829	5.4
467.034	5.42
467.238	5.55
467.443	5.48
467.647	5.35
467.851	5.37
468.056	5.33
468.26	5.24
468.464	5.36
468.669	5.39
468.873	5.54
469.077	5.54
469.282	5.52
469.486	5.46
469.69	5.51
469.894	5.34
470.099	5.45
470.303	5.61
470.507	5.53
470.711	5.49
470.915	5.46
471.119	5.43
471.324	5.38
471.528	5.51
471.732	5.56
471.936	5.6
472.14	5.52
472.344	5.54
472.548	5.54
472.752	5.7
472.956	5.92
473.16	6
473.364	5.94
473.568	5.83
473.772	5.78
473.976	5.62
474.18	5.59
474.384	5.7
474.588	5.75
474.792	5.61
474.995	5.7
475.199	5.72
475.403	5.67
475.607	5.66
475.811	5.71
476.015	5.74
476.218	5.82
476.422	5.85
476.626	5.94
476.83	6.06
477.033	5.99
477.237	5.87
477.441	5.9
477.644	5.89
477.848	5.87
478.052	5.81
478.255	5.9
478.459	5.88
478.663	5.99
478.866	5.95
479.07	6.06
479.273	6.13
479.477	6.2
479.681	6.17
479.884	6.16
480.088	6.14
480.291	6.15
480.495	6.09
480.698	6.07
480.901	6.11
481.105	6.2
481.308	6.13
481.512	6.09
481.715	6.13
481.919	6.2
482.122	6.15
482.325	6.19
482.529	6.25
482.732	6.29
482.935	6.18
483.138	6.19
483.342	6.22
483.545	6.2
483.748	6.25
483.952	6.29
484.155	6.35
484.358	6.35
484.561	6.37
484.764	6.29
484.967	6.34
485.171	6.42
485.374	6.4
485.577	6.51
485.78	6.53
485.983	6.48
486.186	6.31
486.389	6.28
486.592	6.25
486.795	6.28
486.998	6.29
487.201	6.34
487.404	6.38
487.607	6.38
487.81	6.36
488.013	6.44
488.216	6.41
488.419	6.38
488.622	6.36
488.825	6.35
489.028	6.33
489.231	6.34
489.433	6.31
489.636	6.24
489.839	6.17
490.042	6.12
490.245	6.1
490.447	6.16
490.65	6.17
490.853	6.2
491.056	6.28
491.258	6.38
491.461	6.37
491.664	6.43
491.866	6.39
492.069	6.4
492.272	6.31
492.474	6.34
492.677	6.38
492.879	6.49
493.082	6.48
493.285	6.58
493.487	6.54
493.69	6.48
493.892	6.39
494.095	6.39
494.297	6.43
494.5	6.45
494.702	6.52
494.905	6.62
495.107	6.61
495.309	6.55
495.512	6.59
495.714	6.61
495.917	6.6
496.119	6.63
496.321	6.67
496.524	6.69
496.726	6.71
496.928	6.73
497.13	6.72
497.333	6.69
497.535	6.75
497.737	6.74
497.939	6.73
498.142	6.76
498.344	6.79
498.546	6.72
498.748	6.77
498.95	6.87
499.152	6.9
499.355	6.96
499.557	7.04
499.759	7.12
499.961	7.06
500.163	7.08
500.365	7.07
500.567	7.13
500.769	7
500.971	7.02
501.173	6.93
501.375	6.96
501.577	6.89
501.779	6.93
501.981	6.99
502.183	7.11
502.385	7.08
502.587	7.09
502.788	7.19
502.99	7.23
503.192	7.31
503.394	7.36
503.596	7.44
503.798	7.49
503.999	7.52
504.201	7.42
504.403	7.46
504.605	7.46
504.806	7.43
505.008	7.42
505.21	7.55
505.411	7.58
505.613	7.6
505.815	7.67
506.016	7.74
506.218	7.8
506.42	7.81
506.621	7.87
506.823	7.93
507.024	7.87
507.226	7.81
507.427	7.88
507.629	7.97
507.83	8.03
508.032	8.09
508.233	8.16
508.435	8.2
508.636	8.2
508.838	8.16
509.039	8.2
509.24	8.24
509.442	8.3
509.643	8.25
509.845	8.33
510.046	8.44
510.247	8.49
510.448	8.46
510.65	8.59
510.851	8.68
511.052	8.68
511.254	8.71
511.455	8.78
511.656	8.83
511.857	8.8
512.058	8.82
512.26	8.77
512.461	8.79
512.662	8.83
512.863	8.82
513.064	8.82
513.265	8.83
513.466	8.9
513.667	8.87
513.868	8.89
514.069	8.96
514.27	9.08
514.471	9.04
514.672	9.06
514.873	9.05
515.074	9.08
515.275	8.99
515.476	8.97
515.677	8.94
515.878	9.08
516.079	9.08
516.28	9.15
516.481	9.29
516.682	9.37
516.882	9.27
517.083	9.29
517.284	9.24
517.485	9.2
517.686	9.2
517.886	9.22
518.087	9.21
518.288	9.24
518.488	9.19
518.689	9.19
518.89	9.21
519.091	9.28
519.291	9.32
519.492	9.42
519.692	9.43
519.893	9.45
520.094	9.45
520.294	9.44
520.495	9.38
520.695	9.39
520.896	9.43
521.096	9.42
521.297	9.46
521.497	9.49
521.698	9.47
521.898	9.43
522.099	9.44
522.299	9.51
522.499	9.61
522.7	9.65
522.9	9.7
523.101	9.79
523.301	9.76
523.501	9.67
523.702	9.68
523.902	9.75
524.102	9.75
524.302	9.77
524.503	9.82
524.703	9.88
524.903	9.86
525.103	9.79
525.304	9.84
525.504	9.88
525.704	9.9
525.904	9.89
526.104	9.91
526.304	9.89
526.504	9.9
526.705	9.84
526.905	9.92
527.105	9.97
527.305	9.98
527.505	9.96
527.705	10
527.905	9.96
528.105	9.96
528.305	9.99
528.505	10.06
528.705	10.07
528.905	10.1
529.105	10.13
529.304	10.15
529.504	10.15
529.704	10.12
529.904	10.18
530.104	10.18
530.304	10.25
530.503	10.22
530.703	10.24
530.903	10.18
531.103	10.29
531.303	10.25
531.502	10.34
531.702	10.44
531.902	10.5
532.101	10.38
532.301	10.41
532.501	10.37
532.7	10.37
532.9	10.43
533.1	10.52
533.299	10.57
533.499	10.63
533.698	10.64
533.898	10.65
534.097	10.73
534.297	10.72
534.496	10.74
534.696	10.73
534.895	10.8
535.095	10.83
535.294	10.84
535.494	10.82
535.693	10.85
535.892	10.8
536.092	10.7
536.291	10.73
536.491	10.82
536.69	10.88
536.889	10.9
537.088	10.95
537.288	11.01
537.487	11.04
537.686	11.05
537.886	11.16
538.085	11.22
538.284	11.31
538.483	11.32
538.682	11.41
538.882	11.42
539.081	11.47
539.28	11.4
539.479	11.42
539.678	11.38
539.877	11.4
540.076	11.4
540.275	11.45
540.474	11.5
540.673	11.58
540.872	11.59
541.071	11.69
541.27	11.74
541.469	11.76
541.668	11.85
541.867	11.93
542.066	11.98
542.265	12.04
542.464	12.08
542.663	12.13
542.862	12.19
543.06	12.25
543.259	12.29
543.458	12.33
543.657	12.37
543.856	12.46
544.054	12.42
544.253	12.48
544.452	12.55
544.651	12.58
544.849	12.58
545.048	12.74
545.247	12.75
545.445	12.78
545.644	12.83
545.843	12.84
546.041	12.81
546.24	12.9
546.438	12.99
546.637	13.1
546.836	13.2
547.034	13.32
547.233	13.38
547.431	13.45
547.63	13.45
547.828	13.5
548.027	13.51
548.225	13.57
548.423	13.58
548.622	13.7
548.82	13.69
549.019	13.79
549.217	13.85
549.415	13.97
549.614	14.01
549.812	14.15
550.01	14.16
550.209	14.24
550.407	14.3
550.605	14.38
550.803	14.46
551.002	14.61
551.2	14.65
551.398	14.74
551.596	14.9
551.794	15.05
551.993	15.09
552.191	15.21
552.389	15.31
552.587	15.34
552.785	15.27
552.983	15.39
553.181	15.52
553.379	15.56
553.577	15.62
553.775	15.78
553.973	15.86
554.171	15.97
554.369	16.03
554.567	16.13
554.765	16.17
554.963	16.25
555.161	16.25
555.359	16.37
555.557	16.5
555.755	16.61
555.952	16.73
556.15	16.8
556.348	16.92
556.546	17.02
556.744	17.08
556.941	17.12
557.139	17.28
557.337	17.32
557.535	17.31
557.732	17.47
557.93	17.63
558.128	17.66
558.325	17.8
558.523	17.91
558.721	18
558.918	18.1
559.116	18.3
559.313	18.34
559.511	18.45
559.708	18.56
559.906	18.6
560.104	18.6
560.301	18.69
560.498	18.74
560.696	18.83
560.893	19.04
561.091	19.19
561.288	19.37
561.486	19.55
561.683	19.65
561.88	19.72
562.078	19.83
562.275	19.88
562.473	19.97
562.67	20.11
562.867	20.16
563.064	20.27
563.262	20.37
563.459	20.43
563.656	20.49
563.853	20.56
564.051	20.58
564.248	20.75
564.445	20.91
564.642	20.99
564.839	21.22
565.036	21.47
565.234	21.67
565.431	21.77
565.628	21.81
565.825	21.92
566.022	21.95
566.219	21.91
566.416	22.03
566.613	22.2
566.81	22.21
567.007	22.25
567.204	22.32
567.401	22.34
567.598	22.41
567.795	22.51
567.991	22.61
568.188	22.68
568.385	22.9
568.582	22.94
568.779	22.97
568.976	23.03
569.172	23.23
569.369	23.14
569.566	23.19
569.763	23.28
569.96	23.38
570.156	23.32
570.353	23.38
570.55	23.43
570.746	23.48
570.943	23.43
571.14	23.49
571.336	23.54
571.533	23.67
571.729	23.61
571.926	23.73
572.123	23.8
572.319	23.91
572.516	23.85
572.712	23.95
572.909	23.98
573.105	24.09
573.302	24.09
573.498	24.25
573.695	24.37
573.891	24.37
574.087	24.33
574.284	24.29
574.48	24.17
574.677	24.14
574.873	24.2
575.069	24.2
575.266	24.32
575.462	24.44
575.658	24.55
575.854	24.69
576.051	24.71
576.247	24.62
576.443	24.59
576.639	24.52
576.835	24.34
577.032	24.27
577.228	24.43
577.424	24.4
577.62	24.32
577.816	24.41
578.012	24.52
578.208	24.41
578.404	24.44
578.6	24.56
578.796	24.54
578.993	24.53
579.189	24.52
579.384	24.41
579.58	24.26
579.776	24.26
579.972	24.25
580.168	24.25
580.364	24.4
580.56	24.44
580.756	24.41
580.952	24.35
581.148	24.32
581.343	24.29
581.539	24.42
581.735	24.42
581.931	24.42
582.127	24.44
582.322	24.35
582.518	24.22
582.714	24.13
582.909	24.16
583.105	24.07
583.301	24.02
583.496	24.09
583.692	24.14
583.888	24.03
584.083	24.15
584.279	24.22
584.474	24.15
584.67	24.1
584.866	24.15
585.061	24
585.257	24.02
585.452	24.01
585.648	23.98
585.843	24.04
586.039	24.06
586.234	24.09
586.429	24.03
586.625	24.13
586.82	24.06
587.015	24.14
587.211	23.99
587.406	24
587.601	23.93
587.797	23.93
587.992	23.87
588.187	24
588.383	24.01
588.578	24.03
588.773	24.13
588.968	24.15
589.163	24.18
589.359	24.18
589.554	24.19
589.749	24.18
589.944	24.31
590.139	24.29
590.334	24.34
590.529	24.36
590.724	24.38
590.919	24.41
591.114	24.48
591.309	24.59
591.504	24.63
591.699	24.62
591.894	24.63
592.089	24.59
592.284	24.57
592.479	24.65
592.674	24.72
592.869	24.78
593.064	24.9
593.259	25.02
593.454	25.16
593.648	25.16
593.843	25.23
594.038	25.21
594.233	25.17
594.428	25.09
594.622	25.22
594.817	25.34
595.012	25.5
595.206	25.64
595.401	25.68
595.596	25.68
595.79	25.7
595.985	25.72
596.18	25.84
596.374	26.03
596.569	26.17
596.763	26.2
596.958	26.25
597.153	26.3
597.347	26.31
597.542	26.36
597.736	26.41
597.931	26.49
598.125	26.51
598.319	26.63
598.514	26.69
598.708	26.75
598.903	26.79
599.097	26.79
599.291	26.81
599.486	26.77
599.68	26.8
599.874	26.88
600.069	26.97
600.263	26.98
600.457	27.09
600.651	27.11
600.846	27.11
601.04	27.15
601.234	27.25
601.428	27.38
601.622	27.52
601.817	27.51
602.011	27.49
602.205	27.55
602.399	27.51
602.593	27.47
602.787	27.61
602.981	27.61
603.175	27.57
603.369	27.55
603.563	27.62
603.757	27.56
603.951	27.55
604.145	27.56
604.339	27.55
604.533	27.39
604.727	27.37
604.921	27.33
605.115	27.28
605.309	27.24
605.502	27.27
605.696	27.22
605.89	27.22
606.084	27.19
606.278	27.15
606.471	27.11
606.665	26.98
606.859	26.86
607.053	26.74
607.246	26.71
607.44	26.65
607.634	26.62
607.827	26.66
608.021	26.63
608.214	26.5
608.408	26.38
608.602	26.31
608.795	26.17
608.989	26.14
609.182	26.17
609.376	26.16
609.569	26.1
609.763	25.97
609.956	25.84
610.15	25.71
610.343	25.71
610.537	25.71
610.73	25.75
610.923	25.67
611.117	25.59
611.31	25.48
611.504	25.35
611.697	25.22
611.89	25.16
612.083	25.07
612.277	24.98
612.47	24.93
612.663	24.83
612.856	24.79
613.05	24.73
613.243	24.64
613.436	24.51
613.629	24.51
613.822	24.36
614.015	24.24
614.209	24.11
614.402	24.08
614.595	23.96
614.788	23.99
614.981	23.92
615.174	23.79
615.367	23.74
615.56	23.67
615.753	23.6
615.946	23.51
616.139	23.62
616.332	23.6
616.525	23.61
616.718	23.68
616.911	23.66
617.103	23.59
617.296	23.53
617.489	23.37
617.682	23.18
617.875	23.22
618.067	23.07
618.26	23
618.453	23.04
618.646	22.99
618.838	22.88
619.031	22.99
619.224	23
619.417	22.91
619.609	22.89
619.802	22.82
619.994	22.75
620.187	22.63
620.38	22.6
620.572	22.57
620.765	22.63
620.957	22.49
621.15	22.45
621.342	22.42
621.535	22.41
621.727	22.35
621.92	22.33
622.112	22.28
622.305	22.29
622.497	22.26
622.69	22.12
622.882	22.18
623.074	22.32
623.267	22.21
623.459	22.14
623.651	22.18
623.844	22.19
624.036	22.05
624.228	22.05
624.42	22.05
624.613	22.15
624.805	22.12
624.997	22.13
625.189	22.19
625.381	22.19
625.574	22.05
625.766	21.9
625.958	21.88
626.15	21.86
626.342	21.85
626.534	21.88
626.726	21.98
626.918	21.9
627.11	21.78
627.302	21.79
627.494	21.71
627.686	21.64
627.878	21.61
628.07	21.63
628.262	21.51
628.454	21.52
628.646	21.48
628.838	21.5
629.029	21.44
629.221	21.43
629.413	21.38
629.605	21.34
629.797	21.24
629.989	21.28
630.18	21.29
630.372	21.2
630.564	21.16
630.755	21.22
630.947	21.19
631.139	21.14
631.33	21.12
631.522	21.2
631.714	21.18
631.905	21.15
632.097	21.14
632.289	21.18
632.48	21.08
632.672	20.99
632.863	20.82
633.055	20.8
633.246	20.8
633.438	20.73
633.629	20.76
633.821	20.84
634.012	20.8
634.203	20.64
634.395	20.71
634.586	20.7
634.777	20.64
634.969	20.63
635.16	20.74
635.351	20.65
635.543	20.62
635.734	20.63
635.925	20.6
636.117	20.66
636.308	20.72
636.499	20.63
636.69	20.54
636.881	20.46
637.073	20.39
637.264	20.28
637.455	20.38
637.646	20.54
637.837	20.64
638.028	20.57
638.219	20.69
638.41	20.6
638.601	20.51
638.792	20.52
638.983	20.59
639.174	20.47
639.365	20.54
639.556	20.48
639.747	20.37
639.938	20.35
640.129	20.34
640.32	20.23
640.511	20.26
640.701	20.34
640.892	20.27
641.083	20.27
641.274	20.35
641.465	20.32
641.655	20.13
641.846	20.08
642.037	20.02
642.228	19.94
642.418	19.97
642.609	20.09
642.8	20.1
642.99	20.05
643.181	20.04
643.372	20
643.562	20.01
643.753	19.93
643.943	19.86
644.134	19.82
644.324	19.77
644.515	19.69
644.705	19.84
644.896	19.95
645.086	19.9
645.277	19.88
645.467	19.93
645.658	19.8
645.848	19.73
646.038	19.67
646.229	19.58
646.419	19.39
646.61	19.35
646.8	19.33
646.99	19.3
647.18	19.35
647.371	19.36
647.561	19.27
647.751	19.21
647.941	19.2
648.132	19.12
648.322	19.05
648.512	19.06
648.702	19.1
648.892	19.09
649.082	19.01
649.272	18.96
649.462	18.87
649.653	18.76
649.843	18.63
650.033	18.69
650.223	18.66
650.413	18.63
650.603	18.67
650.793	18.77
650.983	18.73
651.172	18.72
651.362	18.62
651.552	18.46
651.742	18.35
651.932	18.25
652.122	18.18
652.312	18.19
652.502	18.14
652.691	18.05
652.881	17.96
653.071	17.86
653.261	17.74
653.45	17.6
653.64	17.57
653.83	17.44
654.019	17.36
654.209	17.27
654.399	17.17
654.588	16.91
654.778	16.78
654.968	16.64
655.157	16.51
655.347	16.48
655.536	16.38
655.726	16.19
655.915	16.02
656.105	15.89
656.294	15.61
656.484	15.39
656.673	15.31
656.863	15.28
657.052	15.17
657.241	14.97
657.431	14.88
657.62	14.76
657.809	14.43
657.999	14.17
658.188	14.14
658.377	13.95
658.567	13.76
658.756	13.62
658.945	13.44
659.134	13.15
659.324	13.04
659.513	12.84
659.702	12.65
659.891	12.55
660.08	12.43
660.269	12.26
660.458	12.1
660.648	11.97
660.837	11.78
661.026	11.6
661.215	11.54
661.404	11.39
661.593	11.31
661.782	11.13
661.971	11.12
662.16	10.92
662.349	10.78
662.538	10.57
662.726	10.54
662.915	10.37
663.104	10.24
663.293	10.24
663.482	10.22
663.671	10.09
663.86	9.91
664.048	9.76
664.237	9.74
664.426	9.56
664.615	9.45
664.803	9.37
664.992	9.32
665.181	9.12
665.369	8.96
665.558	8.84
665.747	8.8
665.935	8.83
666.124	8.86
666.312	8.88
666.501	8.86
666.69	8.75
666.878	8.61
667.067	8.47
667.255	8.54
667.444	8.62
667.632	8.7
667.82	8.73
668.009	8.73
668.197	8.73
668.386	8.68
668.574	8.69
668.762	8.58
668.951	8.44
669.139	8.39
669.327	8.33
669.516	8.3
669.704	8.31
669.892	8.52
670.08	8.52
670.269	8.43
670.457	8.39
670.645	8.34
670.833	8.34
671.021	8.27
671.21	8.44
671.398	8.6
671.586	8.65
671.774	8.55
671.962	8.62
672.15	8.61
672.338	8.52
672.526	8.66
672.714	8.59
672.902	8.65
673.09	8.64
673.278	8.77
673.466	8.74
673.654	9.03
673.842	8.97
674.03	9.03
674.218	8.98
674.405	9.07
674.593	8.97
674.781	9.17
674.969	9.23
675.157	9.33
675.344	9.49
675.532	9.62
675.72	9.71
675.908	9.7
676.095	9.75
676.283	9.79
676.471	9.87
676.658	9.88
676.846	10.02
677.033	10.26
677.221	10.32
677.409	10.24
677.596	10.32
677.784	10.35
677.971	10.21
678.159	10.21
678.346	10.41
678.534	10.44
678.721	10.76
678.909	10.82
679.096	10.94
679.283	11.07
679.471	11.2
679.658	11.08
679.846	11.37
680.033	11.56
680.22	11.68
680.408	11.79
680.595	11.92
680.782	11.81
680.969	11.97
681.157	12.12
681.344	12.21
681.531	12.4
681.718	12.53
681.905	12.69
682.093	12.82
682.28	12.92
682.467	13.17
682.654	13.42
682.841	13.53
683.028	13.68
683.215	14.03
683.402	14.09
683.589	14.42
683.776	14.62
683.963	14.86
684.15	14.98
684.337	15.27
684.524	15.45
684.711	15.68
684.898	15.84
685.085	16.16
685.271	16.44
685.458	16.53
685.645	16.73
685.832	17.06
686.019	17.26
686.205	17.5
686.392	17.9
686.579	18.3
686.766	18.7
686.952	19.16
687.139	19.7
687.326	20.05
687.512	20.42
687.699	20.71
687.886	20.99
688.072	21.13
688.259	21.66
688.445	22.07
688.632	22.44
688.818	23.06
689.005	23.64
689.191	23.96
689.378	24.59
689.564	25.25
689.751	25.79
689.937	26.28
690.124	26.89
690.31	27.22
690.496	27.7
690.683	28.17
690.869	28.7
691.055	29.36
691.242	30.05
691.428	30.65
691.614	31.32
691.8	32.11
691.987	32.76
692.173	33.39
692.359	34.09
692.545	34.69
692.731	35.3
692.918	35.92
693.104	36.64
693.29	37.17
693.476	37.93
693.662	38.53
693.848	39.15
694.034	39.51
694.22	39.94
694.406	40.59
694.592	41.08
694.778	41.86
694.964	42.63
695.15	43.53
695.336	43.75
695.522	44.66
695.708	45.05
695.894	45.73
696.08	46.58
696.265	47.49
696.451	47.92
696.637	48.75
696.823	49.43
697.009	49.65
697.194	50.14
697.38	50.71
697.566	51.15
697.751	51.78
697.937	52.81
698.123	53.7
698.308	54.18
698.494	54.81
698.68	55.37
698.865	55.72
699.051	55.99
699.236	56.66
699.422	57.21
699.607	57.4
699.793	57.72
699.978	57.95
700.164	58.4
700.349	58.71
700.535	59.27
700.72	59.72
700.906	60.71
701.091	61.4
701.276	62
701.462	62.98
701.647	63.76
701.832	64.16
702.018	64.43
702.203	64.61
702.388	64.48
702.573	64.7
702.759	65.24
702.944	65.73
703.129	66.21
703.314	66.63
703.499	66.9
703.684	66.88
703.87	67.63
704.055	68.21
704.24	68.6
704.425	69.07
704.61	69.55
704.795	69.24
704.98	69.49
705.165	69.82
705.35	70.09
705.535	70.53
705.72	70.95
705.905	71.31
706.09	71.76
706.275	72.13
706.459	72.11
706.644	72.35
706.829	72.65
707.014	72.51
707.199	72.85
707.384	73.35
707.568	73.23
707.753	73.72
707.938	73.93
708.123	73.81
708.307	74.05
708.492	74.55
708.677	74.45
708.861	74.92
709.046	75
709.231	75.25
709.415	75.73
709.6	75.78
709.784	75.89
709.969	76.38
710.153	76.18
710.338	76.25
710.522	76.78
710.707	77.14
710.891	77.37
711.076	77.81
711.26	77.97
711.445	78.02
711.629	78.27
711.813	78.55
711.998	78.89
712.182	78.69
712.366	79.17
712.551	79.53
712.735	79.7
712.919	79.6
713.103	79.81
713.288	79.55
713.472	79.36
713.656	79.78
713.84	80.08
714.024	80.72
714.208	80.75
714.393	81.25
714.577	81.27
714.761	81.17
714.945	81.06
715.129	81.09
715.313	80.81
715.497	80.94
715.681	81.53
715.865	81.74
716.049	82.2
716.233	82.4
716.417	82.24
716.601	81.93
716.785	81.82
716.968	81.81
717.152	82.12
717.336	82.45
717.52	82.43
717.704	82.47
717.888	82.72
718.071	82.67
718.255	82.53
718.439	82.75
718.622	82.88
718.806	82.94
718.99	82.5
719.174	82.56
719.357	82.4
719.541	82.61
719.724	82.33
719.908	83.31
720.092	83.49
720.275	84.29
720.459	83.93
720.642	83.89
720.826	83.12
721.009	83.23
721.193	82.63
721.376	83.29
721.559	83.81
721.743	84.59
721.926	84.42
722.11	85.09
722.293	84.81
722.476	84.71
722.66	84.42
722.843	84.45
723.026	83.75
723.21	83.79
723.393	84.33
723.576	84.2
723.759	83.86
723.942	84.14
724.126	84.6
724.309	84.29
724.492	84.44
724.675	85.24
724.858	85.6
725.041	85.48
725.224	85.74
725.407	86.15
725.59	86.57
725.774	86.45
725.957	86.19
726.14	86.08
726.322	86.53
726.505	85.75
726.688	86.4
726.871	86.16
727.054	86.31
727.237	85.38
727.42	86.04
727.603	85.59
727.786	86.57
727.968	86.58
728.151	87.13
728.334	86.9
728.517	87.33
728.699	87.63
728.882	87.87
729.065	87.76
729.248	88.02
729.43	87.95
729.613	87.86
729.796	88.22
729.978	87.74
730.161	87.95
730.343	87.95
730.526	88.6
730.708	88.12
730.891	88.69
731.073	88.6
731.256	88.83
731.438	88.54
731.621	89.13
731.803	89.28
731.986	89.16
732.168	88.02
732.35	88.58
732.533	88.66
732.715	89.04
732.898	89.3
733.08	90.18
733.262	89.77
733.444	89.28
733.627	89.32
733.809	89.5
733.991	89.44
734.173	89.06
734.355	88.9
734.538	89.1
734.72	89.01
734.902	89.07
735.084	89.64
735.266	90.1
735.448	90.78
735.63	90.66
735.812	91.17
735.994	91.47
736.176	91.55
736.358	90.61
736.54	91.03
736.722	90.76
736.904	89.75
737.086	89.48
737.268	90.09
737.45	90.4
737.632	91.05
737.814	90.63
737.995	91.05
738.177	90.94
738.359	90.39
738.541	90.28
738.723	91.55
738.904	92
739.086	92.07
739.268	92.1
739.449	92.15
739.631	91.38
739.813	91.82
739.994	91.91
740.176	92
740.358	91.39
740.539	92.18
740.721	91.54
740.902	92.13
741.084	91.98
741.265	92.2
741.447	92.31
741.628	92.49
741.81	91.89
741.991	92.7
742.172	93.07
742.354	92.93
742.535	93.24
742.717	93.25
742.898	93.47
743.079	94.16
743.261	93.93
743.442	93.01
743.623	93.71
743.804	93.34
743.986	92.85
744.167	92.57
744.348	92.88
744.529	92.08
744.71	91.58
744.891	91.36
745.073	91.42
745.254	91.44
745.435	90.67
745.616	90.7
745.797	90.68
745.978	90.33
746.159	90.87
746.34	90.52
746.521	91.61
746.702	90.68
746.883	90.62
747.064	89.52
747.245	91.27
747.426	90.3
747.606	90.96
747.787	91.82
747.968	92.24
748.149	91.67
748.33	92.09
748.51	92.74
748.691	91.81
748.872	91.92
749.053	91.25
749.233	90.31
749.414	89.8
749.595	89.64
749.775	88.86
749.956	89.66
750.137	90.2
750.317	91.25
750.498	93.18
750.678	93.69
750.859	93.51
751.04	93.46
751.22	91.69
751.4	90.1
751.581	89.53
751.761	89.52
751.942	90.49
752.122	90.26
752.303	89.94
752.483	90.56
752.663	90.07
752.844	88.82
753.024	90.35
753.204	90.93
753.385	90.41
753.565	90.72
753.745	90.93
753.925	90.16
754.106	90.06
754.286	90.63
754.466	90.43
754.646	91.03
754.826	90.61
755.006	90.57
755.187	91.31
755.367	92.19
755.547	91.9
755.727	92.46
755.907	92.29
756.087	92.79
756.267	91.73
756.447	91.63
756.627	89.49
756.807	90.34
756.987	89.15
757.167	89.79
757.346	88.65
757.526	89.84
757.706	89.61
757.886	89.58
758.066	89.69
758.246	91.45
758.425	90.77
758.605	89.63
758.785	90.35
758.965	89.48
759.144	87.6
759.324	89.38
759.504	91.07
759.683	91.07
759.863	90.35
760.043	90.12
760.222	89.57
760.402	88.35
760.581	87.1
760.761	88.07
760.94	88.11
761.12	89.01
761.299	89.45
761.479	89.21
761.658	89.24
761.838	89.19
762.017	88.5
762.197	88.86
762.376	90.07
762.555	89.83
762.735	90.89
762.914	89.88
763.093	89.55
763.273	88.75
763.452	88.89
763.631	88.98
763.81	89.75
763.99	89.72
764.169	89.79
764.348	88.66
764.527	87.74
764.706	87.85
764.885	87.79
765.064	86.16
765.243	86.94
765.423	88.53
765.602	89.88
765.781	88.41
765.96	88.49
766.139	88.51
766.318	87.84
766.497	86
766.676	87.72
766.854	89.1
767.033	88.65
767.212	88.18
767.391	89.36
767.57	89.63
767.749	88.72
767.928	86.8
768.106	86.32
768.285	84.16
768.464	82.65
768.643	81.88
768.821	83.5
769	84.79
769.179	86.37
769.357	86.34
769.536	87.46
769.715	89.72
769.893	91.45
770.072	88.54
770.25	89.18
770.429	89.8
770.607	88.47
770.786	85.68
770.964	88.78
771.143	87.88
771.321	88.33
771.5	87.65
771.678	87.59
771.857	86.38
772.035	86.12
772.213	83.93
772.392	83.2
772.57	83.98
772.748	84.71
772.927	84.32
773.105	84.5
773.283	85.02
773.461	83.13
773.64	83.05
773.818	83.67
773.996	84.44
774.174	83.81
774.352	84.44
774.531	82.96
774.709	84.08
774.887	83.96
775.065	84.58
775.243	84.08
775.421	84.59
775.599	84.79
775.777	84.1
775.955	82.55
776.133	82.03
776.311	83.28
776.489	82.17
776.667	82.44
776.844	85.23
777.022	84.42
777.2	84.34
777.378	83.94
777.556	84.55
777.734	82.59
777.911	86.1
778.089	84.76
778.267	85.39
778.445	82.88
778.622	83.49
778.8	81.12
778.978	81.44
779.155	80.76
779.333	82.23
779.511	82.95
779.688	85.58
779.866	83.43
780.043	82.32
780.221	82.29
780.398	78.55
780.576	78.44
780.753	79.83
780.931	78.71
781.108	77.77
781.286	79.89
781.463	77.34
781.64	74.06
781.818	75.53
781.995	76.96
782.172	76.47
782.35	74.92
782.527	78.62
782.704	77.95
782.882	79.25
783.059	80.27
783.236	83.72
783.413	85.84
783.59	85.21
783.768	82.26
783.945	84.91
784.122	83.94
784.299	81.8
784.476	82.52
784.653	82.13
784.83	79.3
785.007	74.9
785.184	75.3
785.361	74.92
785.538	77.66
785.715	78.46
785.892	81.18
786.069	79.88
786.246	79.61
786.423	79.31
786.6	79.75
786.776	81.43
786.953	79.93
787.13	78.69
787.307	78.18
787.484	76.42
787.66	74.59
787.837	75.16
788.014	76.18
788.191	73.64
788.367	73.01
788.544	75.54
788.721	76.89
788.897	80.6
789.074	83.27
789.25	81.44
789.427	81.01
789.603	80.3
789.78	80.11
789.956	80.39
790.133	78.56
790.309	78.19
790.486	77.89
790.662	72.37
790.839	69.19
791.015	72.2
791.192	70.11
791.368	71.23
791.544	71.24
791.721	74.5
791.897	77.92
792.073	77.99
792.249	71.27
792.426	74.97
792.602	70.18
792.778	67.54
792.954	66.02
793.13	66.33
793.307	60.14
793.483	59.05
793.659	56.16
793.835	61.49
794.011	62.03
794.187	67.07
794.363	71.86
794.539	78.5
794.715	72.91
794.891	76.91
795.067	75.68
795.243	77.97
795.419	71.86
795.595	70.48
795.771	68.63
795.947	68.12
796.122	67.35
796.298	73.29
796.474	73.91
796.65	72.87
796.826	74.59
797.001	69.44
797.177	65.92
797.353	69
797.529	73.12
797.704	75.56
797.88	75.14
798.056	71.05
798.231	69.51
798.407	70.92
798.582	66.67
798.758	75.53
798.934	80.16
799.109	79.05
799.285	74.48
799.46	73.67
799.636	71.42
799.811	67.77
799.986	65.08
800.162	67
800.337	69.21
800.513	60.15
800.688	64.42
800.863	75.86
801.039	72.41
801.214	71.08
801.389	77.38
801.565	70.9
801.74	57.1
801.915	62.79
802.09	64.7
802.265	67.1
802.441	69.92
802.616	74.2
802.791	73.6
802.966	70.74
803.141	68.86
803.316	64.21
803.491	67.41
803.666	64.53
803.841	64.89
804.016	65.94
804.191	72.47
804.366	67.23
804.541	69.23
804.716	65.66
804.891	62.34
805.066	62.68
805.241	62.41
805.416	57.18
805.591	55.65
805.765	57.86
805.94	61.88
806.115	64.68
806.29	65.4
806.464	67.44
806.639	67.58
806.814	61.21
806.989	52.76
807.163	61.89
807.338	68.69
807.512	64.53
807.687	51.32
807.862	67.33
808.036	65.64
808.211	62.28
808.385	66.47
808.56	82.14
808.734	82.72
808.909	77.73
809.083	74.91
809.258	81.32
809.432	71.73
809.606	55.63
809.781	57.16
809.955	62.5
810.13	56.85
810.304	50.97
810.478	53.41
810.652	54.89
810.827	54.18
811.001	55.26
811.175	61.96
811.349	61.97
811.524	53.81
811.698	42.84
811.872	41.11
812.046	47
812.22	49.73
812.394	58.49
812.568	71.05
812.742	77.38
812.916	65.44
813.09	66.84
813.264	64.52
813.438	60.03
813.612	49.3
813.786	51.81
813.96	54.1
814.134	45.8
814.308	54.78
814.482	65.3
814.656	62.03
814.83	69.39
815.003	80.16
815.177	68.89
815.351	57.5
815.525	60.09
815.698	53.26
815.872	45.29
816.046	35.82
816.219	41.66
816.393	52.68
816.567	50.76
816.74	55.87
816.914	70.37
817.088	79.29
817.261	69.08
817.435	72.07
817.608	74.38
817.782	61.52
817.955	56.28
818.129	51.48
818.302	47.18
818.475	45.14
818.649	46.51
818.822	38.01
818.996	46.31
819.169	51.14
819.342	51.22
819.516	66.62
819.689	74.68
819.862	69.42
820.035	61.27
820.209	57.25
820.382	47.8
820.555	51.41
820.728	39.11
820.901	34.38
821.075	30.97
821.248	33.1
821.421	21.61
821.594	35.04
821.767	47.49
821.94	52.75
822.113	22.89
822.286	20.34
822.459	18.84
822.632	11.47
822.805	10.89
822.978	28.08
823.151	20.88
823.324	25.62
823.496	13.93
823.669	13.86
823.842	25.98
824.015	36.82
824.188	27.24
824.361	34.87
824.533	33.92
824.706	32.18
824.879	26.77
825.051	28.98
825.224	19.31
825.397	6.44
825.569	-8.28
825.742	22.72
825.915	39.69
826.087	66.54
826.26	54.25
826.432	73.06
826.605	67.84
826.777	66.88
826.95	62.8
827.122	63.24
827.295	52.94
827.467	56.42
827.64	30.39
827.812	13.48
827.984	22.86
828.157	31.43
828.329	-14.1
828.501	-18.88
828.674	14.58
828.846	2.51
829.018	21.43
829.19	12.94
829.363	41.12
829.535	27.35
829.707	27.29
829.879	3.78
830.051	5.43
830.223	3.25
830.395	-19.87
830.568	-11.35
830.74	-17.17
830.912	28.13
831.084	22.84
831.256	30.57
831.428	29.09
831.6	23.6
831.772	-24.52
831.943	-41.73
832.115	-17.57
832.287	4.68
832.459	24.9
832.631	39.38
832.803	62.7
832.975	74.1
833.146	52.42
833.318	51.94
833.49	57.71
833.662	32.02
833.833	19.92
834.005	13.7
834.177	3.45
834.348	6.03
834.52	4.03
834.692	3.34
834.863	2.07
835.035	18.38
835.206	-24.75
835.378	3.36
835.549	4.65
835.721	26.74
835.892	8.13
836.064	18.05
836.235	9.75
836.407	29.97
836.578	-3.12
836.749	12.27
836.921	-11
837.092	-38.43
837.264	-54.51
837.435	-44.63
837.606	-7.64
837.777	28.46
837.949	46.79
838.12	60.36
838.291	62.82
838.462	56.13
838.633	27.46
838.805	26.27
838.976	27.54
839.147	-31.49
839.318	-47.45
839.489	-72.66
839.66	-85.74
839.831	-47.21
840.002	-7.52
840.173	9.42
840.344	47.24
840.515	79.77
840.686	-36.87
840.857	-33.54
841.028	-42.81
841.199	-41.46
841.369	-45.07
841.54	-37.89
841.711	-25.97
841.882	-19.07
842.053	-15.21
842.223	-33.03
842.394	-3.66
842.565	0.26
842.736	10.72
842.906	0.38
843.077	11.38
843.248	2.64
843.418	9.2
843.589	-40.86
843.759	-1.05
843.93	20.5
844.101	32.54
844.271	15.89
844.442	32.41
844.612	38.89
844.783	11.4
844.953	-37.83
845.123	-18.45
845.294	-41.89
845.464	-217.54
845.635	-98.8
845.805	4.2
845.975	-6.33
846.146	-44.33
846.316	-41.03
846.486	-12.42
846.656	17.15
846.827	14.5
846.997	25.23
847.167	41.24
847.337	25.72
847.507	-10.4
847.677	-3.6
847.848	37.56
848.018	39.04
848.188	38.25
848.358	20.09
848.528	1.99
848.698	-51.75
848.868	-115.83
849.038	-223.69
849.208	-71.28
849.378	-35.78
849.548	2.92
849.718	9.11
849.887	30.69
850.057	5.02
850.227	3.75
850.397	-7.25
850.567	-78.34
850.737	-285.54
850.906	-783.44
851.076	-667.77
851.246	-307.72
851.415	-35.7
851.585	5.04
851.755	10.33
851.924	40.35
852.094	32.41
852.264	3.37
852.433	-565.14
852.603	-145.48
852.772	-162.71
852.942	-97.86
853.111	-86.54
853.281	-31.94
853.45	9.5
853.62	-43.92
853.789	-21.74
853.959	-2.24
854.128	8.11
854.297	-25.39
854.467	-44.38
854.636	-47.84
854.805	-11.24
854.975	-78.49
855.144	-175.82
855.313	-119.41
855.482	-407.12
855.652	-202.73
855.821	-49.64
855.99	24.97
856.159	7.81
856.328	20.88
856.497	2.88
856.667	0.88
856.836	-7.07
857.005	-17.67
857.174	-28.87
857.343	-19.29
857.512	15.45
857.681	-4.1
857.85	-82.11
858.019	-41.17
858.188	-29.27
858.356	-66.62
858.525	-125.91
858.694	-99.73
858.863	-210.39
859.032	-173.83
859.201	-243.4
859.369	-176.72
859.538	-96.33
859.707	-70.12
859.876	-79.77
860.044	-41.14
860.213	12.65
860.382	15.64
860.55	35.77
860.719	31.01
860.888	28.58
861.056	0.02
861.225	-7.68
861.393	-3.89
861.562	36.21
861.73	31.69
861.899	-14.01
862.067	-1106.03
862.236	-26.95
862.404	-215.2
862.572	-158.35
862.741	-68.4
862.909	-52.11
863.078	-176.67
863.246	-111.53
863.414	-83.87
863.582	-61.31
863.751	-52.9
863.919	-34.52
864.087	6.73
864.255	-5.02
864.424	-173.21
864.592	-2.2
864.76	-12.39
864.928	-139
865.096	-122.21
865.264	-36.32
865.432	-1233.52
865.6	-26.87
865.768	-43.28
865.936	-46.15
866.104	-111.53
866.272	-104.92
866.44	-364.86
866.608	699.32
866.776	309.74
866.944	2483.14
867.112	-528.71
867.28	-179.43
867.448	-39.13
867.615	-19.53
867.783	-10.53
867.951	-19.4
868.119	-48.4
868.286	-102.43
868.454	-242.76
868.622	-204.71
868.789	-184.87
868.957	-1476.79
869.125	-1530.92
869.292	-67.01
869.46	-106.8
869.627	-36.81
869.795	-41.66
869.963	-4.12
870.13	18.1
870.298	24.44
870.465	-25.73
870.632	-37.29
870.8	-57.37
870.967	-122.37
871.135	-193.49
871.302	-143.5
871.469	-189.77
871.637	-216.64
871.804	-119.28
871.971	-144.02
872.139	-465.93
872.306	-43.87
872.473	-65.94
872.64	-271.57
872.807	-111.93
872.975	-39.29
873.142	-368.64
873.309	2318.24
873.476	-38.01
873.643	16.65
873.81	19.31
873.977	86.13
874.144	66.99
874.311	-50.76
874.478	-67.08
874.645	-62.76
874.812	-58.95
874.979	-8.17
875.146	-13.03
875.313	-51.06
875.48	11.33
875.647	2.17
875.813	-34.38
875.98	-10.14
876.147	-12.89
876.314	-84.02
876.481	696.49
876.647	-812.08
876.814	351.17
876.981	-101.44
877.147	-24.23
877.314	21.76
877.481	21
877.647	24.71
877.814	13.31
877.98	-4.69
878.147	-0.38
878.314	51.12
878.48	50.61
878.647	56.44
878.813	77.15
878.979	67.59
879.146	10.51
879.312	4.86
879.479	-10.92
879.645	-79.1
879.811	-220.43
879.978	-428.05
880.144	-94.31
880.31	-44.89
880.477	-179.56
880.643	-158.36
880.809	-48.78
880.975	-65.97
881.142	-717.05
881.308	-100.15
881.474	-83.67
881.64	-59.95
881.806	-89.73
881.972	-25.2
882.138	-21.17
882.304	-124.42
882.47	-267.31
882.636	-845.7
882.802	-349.6
882.968	-123.87
883.134	-26.97
883.3	-20.2
883.466	27.46
883.632	56.24
883.798	24.44
883.964	23.77
884.129	18.48
884.295	4.06
884.461	-15.03
884.627	-17.77
884.793	-38.96
884.958	-5.7
885.124	-99.25
885.29	-157.94
885.455	-254.73
885.621	-92.46
885.787	-154.18
885.952	-65.58
886.118	-65.86
886.283	-68.36
886.449	-141.82
886.614	-133.35
886.78	-279.13
886.945	1420.9
887.111	-580.78
887.276	-528.27
887.442	-1188.86
887.607	-561.67
887.773	-340.05
887.938	-290.54
888.103	-281.35
888.269	-137.27
888.434	-213.92
888.599	-41.17
888.764	-9.91
888.93	-32.19
889.095	-47.38
889.26	-75.14
889.425	-64.87
889.59	-16.38
889.756	-31.03
889.921	10.41
890.086	58.21
890.251	17.93
890.416	-129
890.581	-1156.05
890.746	253.84
890.911	494.75
891.076	177.02
891.241	-230.41
891.406	42.9
891.571	45.56
891.736	-31.54
891.901	-66.15
892.065	125
892.23	77.22
892.395	125.59
892.56	170.74
892.725	-56.05
892.889	-753.05
893.054	-82.26
893.219	-41.3
893.384	-30.9
893.548	-85.57
893.713	-95.88
893.878	-82.13
