Data from Ofra_1a_PS_9GT30_Reflection_3.txt Node
Date: Tue Jul 20 11:06:34 EDT 2021
User: Adam
Spectrometer: FLMT01687
Trigger mode: 0
Integration Time (sec): 1.004000E0
Scans to average: 2
Electric dark correction enabled: true
Nonlinearity correction enabled: false
Boxcar width: 2
XAxis mode: Wavelengths
Number of Pixels in Spectrum: 3648
>>>>>Begin Spectral Data<<<<<
179.494	-318.78
179.716	-527.48
179.937	921.74
180.158	-952.87
180.38	118.13
180.601	67.48
180.823	-38.03
181.044	-73.92
181.265	-75.42
181.486	165.67
181.708	177.96
181.929	-11272.73
182.15	88.58
182.372	122.17
182.593	436.77
182.814	-329.37
183.035	-41.69
183.257	43.35
183.478	47.69
183.699	45.97
183.92	17.23
184.141	33.32
184.363	18.6
184.584	25.86
184.805	47.52
185.026	70.95
185.247	51.47
185.468	17.65
185.689	39.63
185.91	27.17
186.132	23.75
186.353	23.56
186.574	49.71
186.795	32.99
187.016	31.21
187.237	32.57
187.458	28.66
187.679	6.43
187.9	25.95
188.121	43.98
188.342	61.33
188.563	89.2
188.784	98.77
189.005	82.27
189.226	75.26
189.447	62.37
189.667	41.88
189.888	11.29
190.109	0.35
190.33	-14.74
190.551	-3.61
190.772	2.16
190.993	9.7
191.214	-6.29
191.434	-17.68
191.655	-89.55
191.876	-40.44
192.097	19.75
192.318	42.45
192.538	28.09
192.759	27.28
192.98	38.65
193.201	16.46
193.421	9.61
193.642	31.39
193.863	43.55
194.083	30.6
194.304	23.6
194.525	7.93
194.745	-10.83
194.966	0.06
195.187	-7.71
195.407	-9.34
195.628	12.76
195.848	14.86
196.069	1.55
196.29	25.45
196.51	13.67
196.731	-0.7
196.951	-13.4
197.172	12.89
197.392	-4.29
197.613	27.46
197.833	27.68
198.054	27.65
198.274	17.5
198.495	12.71
198.715	-8.73
198.936	13.83
199.156	33.94
199.377	20.9
199.597	29.48
199.817	26.15
200.038	-13.62
200.258	12.32
200.479	26.3
200.699	48.09
200.919	48.18
201.14	52.11
201.36	24.84
201.58	0.86
201.801	-15.57
202.021	-12.07
202.241	-1.17
202.461	8.19
202.682	29.61
202.902	21.87
203.122	26.78
203.342	36.04
203.563	25.97
203.783	16.66
204.003	22.92
204.223	25.16
204.443	44.09
204.663	64.16
204.884	85.47
205.104	55.65
205.324	66.52
205.544	-14.81
205.764	1.43
205.984	-5.31
206.204	16.62
206.424	1.21
206.644	26.49
206.864	22.65
207.084	27.81
207.304	35.47
207.525	31.78
207.745	32.72
207.964	46.79
208.184	40.08
208.404	21.07
208.624	6.08
208.844	3.39
209.064	-13.85
209.284	-0.69
209.504	4.54
209.724	35.79
209.944	25.73
210.164	21.58
210.384	6.47
210.604	-33.84
210.823	-58.38
211.043	-26.86
211.263	-96.78
211.483	-34.64
211.703	-12.96
211.922	-5.55
212.142	4.58
212.362	51.54
212.582	40.13
212.801	45.76
213.021	38.36
213.241	40.29
213.461	19.23
213.68	34.72
213.9	23.06
214.12	26.25
214.339	14.6
214.559	13.47
214.779	2.06
214.998	21.08
215.218	14.35
215.438	32.09
215.657	46.62
215.877	39.98
216.096	42.74
216.316	44.19
216.535	28.94
216.755	28.06
216.974	25.39
217.194	24.06
217.413	32.17
217.633	35.94
217.852	37.3
218.072	44.98
218.291	43.32
218.511	28.14
218.73	30.41
218.95	-5.33
219.169	-46.75
219.389	-20.66
219.608	-20.07
219.827	-20.22
220.047	0.82
220.266	15.78
220.485	-6.03
220.705	23.22
220.924	23.82
221.143	59.91
221.363	40.98
221.582	48.01
221.801	36.25
222.021	37.42
222.24	12.96
222.459	34.65
222.678	31.45
222.897	28.72
223.117	43.11
223.336	34.47
223.555	34.58
223.774	40.46
223.993	67.6
224.213	73.66
224.432	92.04
224.651	60.68
224.87	69.98
225.089	59.03
225.308	36.7
225.527	16.51
225.746	25.01
225.965	2.11
226.184	-13.43
226.404	-9.13
226.623	-7.03
226.842	-0.4
227.061	4.64
227.28	20.33
227.499	24.7
227.718	36.14
227.936	28.17
228.155	30.14
228.374	20.27
228.593	13.12
228.812	-0.48
229.031	19.26
229.25	5.24
229.469	16.79
229.688	38.38
229.907	45.52
230.125	47.29
230.344	56.58
230.563	60.83
230.782	53.5
231.001	50.69
231.22	53.72
231.438	39.86
231.657	31.17
231.876	31
232.095	33.22
232.313	21.79
232.532	26.62
232.751	12.18
232.969	5.91
233.188	-0.9
233.407	5.75
233.625	4.61
233.844	11.15
234.063	5.1
234.281	15.34
234.5	14.82
234.719	12.14
234.937	6.28
235.156	32.17
235.374	35.84
235.593	14.54
235.811	38.97
236.03	33.57
236.249	30.34
236.467	32.54
236.686	43.35
236.904	38.54
237.123	30.34
237.341	27.73
237.559	22.68
237.778	26.78
237.996	-14.48
238.215	-44.05
238.433	-102.63
238.652	-21.55
238.87	-25.04
239.088	-17.91
239.307	3.3
239.525	26.07
239.743	0.41
239.962	-4.5
240.18	23.31
240.398	33.72
240.617	43.86
240.835	56.12
241.053	39.57
241.271	37.3
241.49	42.24
241.708	12.64
241.926	18.53
242.144	26.58
242.363	-3.2
242.581	-32.07
242.799	-20.45
243.017	-8.33
243.235	2.97
243.453	-2.16
243.672	1.63
243.89	8.35
244.108	23.86
244.326	29.03
244.544	45.62
244.762	43.33
244.98	52.57
245.198	41.04
245.416	47.85
245.634	48.95
245.852	39.07
246.07	37.49
246.288	37.88
246.506	17.99
246.724	-2.16
246.942	7.11
247.16	7.06
247.378	-0.43
247.596	45.54
247.814	58.46
248.032	45.03
248.25	51.99
248.468	37.34
248.685	27.25
248.903	28.07
249.121	30.68
249.339	19.79
249.557	19.89
249.775	27.88
249.992	19.21
250.21	15.67
250.428	30.55
250.646	34.37
250.863	13.98
251.081	25.05
251.299	31.85
251.517	29.89
251.734	26.06
251.952	38.11
252.17	33.04
252.387	27.3
252.605	28.11
252.823	32.11
253.04	30.23
253.258	38.71
253.475	44.93
253.693	27.67
253.911	40.12
254.128	46.48
254.346	54.32
254.563	51.92
254.781	66.96
254.998	50.06
255.216	26.38
255.433	-14.01
255.651	-16.96
255.868	-35.42
256.086	-23.71
256.303	-5.76
256.521	1.4
256.738	-12.48
256.956	0.42
257.173	-14.77
257.39	-6.8
257.608	0.52
257.825	26.07
258.043	34.39
258.26	38.45
258.477	28.18
258.695	27.46
258.912	4.24
259.129	-19.55
259.346	-29.32
259.564	-17.56
259.781	-13.98
259.998	18.09
260.216	36.93
260.433	37.49
260.65	39.89
260.867	50.48
261.084	28.65
261.302	38.58
261.519	57.46
261.736	56.12
261.953	44
262.17	57.81
262.387	56.28
262.604	52.38
262.822	52.63
263.039	50.64
263.256	56.18
263.473	41.38
263.69	40.25
263.907	41.28
264.124	39.48
264.341	32.9
264.558	37.57
264.775	24.25
264.992	15.52
265.209	10.96
265.426	-9.55
265.643	-11.08
265.86	3.29
266.077	-0.22
266.294	13.01
266.51	29.04
266.727	27.69
266.944	36.35
267.161	38.38
267.378	45.68
267.595	39.38
267.812	31.98
268.028	20.9
268.245	33.17
268.462	18.14
268.679	21.45
268.896	39.03
269.112	26.95
269.329	6.34
269.546	30.79
269.763	21
269.979	17
270.196	19.63
270.413	31.36
270.629	-2.88
270.846	10.43
271.063	9.02
271.279	14.8
271.496	1.91
271.712	32.23
271.929	28.39
272.146	37.04
272.362	47.49
272.579	39.85
272.795	36.81
273.012	49.51
273.228	47.52
273.445	29.29
273.661	18.26
273.878	18.97
274.094	6.41
274.311	1.64
274.527	-19.11
274.744	13.67
274.96	10.85
275.177	21.35
275.393	34.83
275.609	49.49
275.826	40.42
276.042	35.6
276.259	26.36
276.475	10.25
276.691	-9.7
276.908	-8.59
277.124	3.02
277.34	-1.61
277.557	-0.75
277.773	14.29
277.989	4.47
278.205	4.61
278.422	16.36
278.638	9.43
278.854	5.91
279.07	32.82
279.286	29.64
279.503	28.41
279.719	38.13
279.935	39.57
280.151	21.34
280.367	17.73
280.583	12.25
280.799	-2.52
281.016	-29.45
281.232	-16.73
281.448	-13.84
281.664	-3.92
281.88	2.23
282.096	21.82
282.312	18.03
282.528	25.79
282.744	28.39
282.96	22.84
283.176	27.33
283.392	26.04
283.608	6.62
283.824	-17.73
284.04	-39.17
284.256	-13.61
284.471	3.77
284.687	7.52
284.903	14.59
285.119	29.44
285.335	30.34
285.551	19.6
285.767	11.23
285.982	18.49
286.198	9.95
286.414	-14.64
286.63	6.74
286.846	35.7
287.061	15.37
287.277	29.98
287.493	33.41
287.709	45.55
287.924	49.02
288.14	62.59
288.356	65.08
288.571	61.74
288.787	41.87
289.003	26.31
289.218	1.49
289.434	-12.14
289.65	8.69
289.865	11.37
290.081	16.5
290.296	31.74
290.512	36.03
290.727	30.49
290.943	41.01
291.159	40.21
291.374	26.05
291.59	28.27
291.805	12.55
292.021	0.74
292.236	1.17
292.451	11.04
292.667	13.61
292.882	42.72
293.098	52.51
293.313	49.09
293.529	50.47
293.744	36.89
293.959	24.01
294.175	8.69
294.39	-2.64
294.605	8.54
294.821	-4.2
295.036	-3.72
295.251	16.6
295.467	14.98
295.682	13.29
295.897	40.8
296.112	33.87
296.328	36.7
296.543	30.05
296.758	29.52
296.973	10.69
297.188	7.71
297.404	-33.23
297.619	-29.79
297.834	-73.14
298.049	-59.88
298.264	-52.81
298.479	-54.65
298.694	-18.63
298.909	6.83
299.125	5.76
299.34	22.02
299.555	30.76
299.77	57.99
299.985	38.46
300.2	41.92
300.415	26.96
300.63	37.37
300.845	16.89
301.06	30.65
301.275	28.38
301.49	52.2
301.704	39.01
301.919	37.29
302.134	36.14
302.349	32.77
302.564	23.84
302.779	21.45
302.994	22.76
303.209	30.12
303.423	35.87
303.638	43
303.853	43.96
304.068	41.43
304.283	33.26
304.497	20.03
304.712	18.58
304.927	22.13
305.142	21.94
305.356	16.71
305.571	22.71
305.786	19.44
306	18.75
306.215	27.6
306.43	23.37
306.644	26.76
306.859	27.76
307.074	41.08
307.288	50.15
307.503	62.37
307.717	46.69
307.932	35.02
308.147	13.22
308.361	1.17
308.576	-16.66
308.79	-8.21
309.005	-23.82
309.219	-2.85
309.434	15.27
309.648	9.25
309.863	18.83
310.077	32.54
310.292	33.5
310.506	11.99
310.72	17.22
310.935	23.28
311.149	21.81
311.364	35.09
311.578	35.78
311.792	43.44
312.007	39.69
312.221	22.64
312.435	8.16
312.649	17.83
312.864	-27.62
313.078	-21.53
313.292	-22.3
313.507	-16.13
313.721	-22.22
313.935	12.86
314.149	8.43
314.363	31.26
314.578	19.23
314.792	22.07
315.006	9.06
315.22	26.47
315.434	26.41
315.648	29.55
315.862	26.83
316.077	26.82
316.291	14.49
316.505	-6.05
316.719	4.71
316.933	12.16
317.147	15.62
317.361	7.93
317.575	12.77
317.789	1.32
318.003	-8.06
318.217	-4.5
318.431	-4.71
318.645	-1.43
318.859	14.21
319.073	24.61
319.287	21.35
319.5	25.5
319.714	21.47
319.928	6.38
320.142	-2.21
320.356	5.56
320.57	-6.67
320.784	-5.61
320.997	-5.41
321.211	14.02
321.425	-10.89
321.639	3.66
321.853	21.67
322.066	15.17
322.28	4.87
322.494	26.35
322.707	28.3
322.921	6.06
323.135	19.76
323.349	16.95
323.562	13.76
323.776	4.15
323.989	26.62
324.203	9.78
324.417	11.57
324.63	-3.7
324.844	-9.53
325.057	-29.26
325.271	-2.74
325.485	-6.27
325.698	13
325.912	33.49
326.125	32.67
326.339	36.37
326.552	38.36
326.766	32.29
326.979	31
327.193	38.31
327.406	28.41
327.619	36.29
327.833	40.88
328.046	38.27
328.26	33.8
328.473	41.27
328.686	40.91
328.9	36.05
329.113	27.05
329.326	19.93
329.54	17.02
329.753	20.6
329.966	19.94
330.179	15.28
330.393	21.03
330.606	16.73
330.819	1.54
331.032	7.85
331.246	30.33
331.459	45.91
331.672	47.36
331.885	58.81
332.098	51.46
332.311	24.88
332.525	6.51
332.738	13.25
332.951	-0.22
333.164	3.79
333.377	18.7
333.59	20.97
333.803	25.82
334.016	38.25
334.229	46
334.442	42.32
334.655	41.31
334.868	31.48
335.081	30.52
335.294	21.52
335.507	40.29
335.72	38.13
335.933	34.24
336.146	43.19
336.359	49.36
336.572	33.89
336.785	23.77
336.997	19.38
337.21	-2.33
337.423	-34.62
337.636	-21.7
337.849	-6.64
338.062	9.82
338.274	26.19
338.487	23.91
338.7	6.86
338.913	12.96
339.125	-4.14
339.338	-6.74
339.551	9.07
339.763	7.46
339.976	12.05
340.189	25.6
340.402	41.63
340.614	31.7
340.827	43.27
341.039	41.83
341.252	25.17
341.465	2.37
341.677	11.44
341.89	-8.32
342.102	-1.98
342.315	13.07
342.527	36.44
342.74	11.07
342.952	24.09
343.165	4.26
343.377	0.53
343.59	-16.5
343.802	-5.43
344.015	16.16
344.227	27.36
344.44	25.69
344.652	17.05
344.864	29.15
345.077	36.17
345.289	46.57
345.502	58.87
345.714	71.17
345.926	75
346.139	41.96
346.351	35.84
346.563	30.84
346.775	40.96
346.988	39.09
347.2	59.53
347.412	40.11
347.624	36.44
347.837	25.79
348.049	22.47
348.261	-7.97
348.473	-13.89
348.685	-21.09
348.897	-20.05
349.11	-17.94
349.322	26.7
349.534	32.14
349.746	33.54
349.958	23.44
350.17	35.35
350.382	8.48
350.594	16.52
350.806	32.78
351.018	40.12
351.23	44.32
351.442	43.63
351.654	38.23
351.866	23.93
352.078	27.07
352.29	7.64
352.502	6.89
352.714	11.07
352.926	9.82
353.138	11.21
353.35	9.11
353.561	15.29
353.773	3.09
353.985	21.97
354.197	15.67
354.409	25.01
354.621	8.73
354.832	20.38
355.044	-11.06
355.256	-6.91
355.468	-31.61
355.679	2.81
355.891	15.57
356.103	14.49
356.314	7.97
356.526	16.08
356.738	11.89
356.949	0.21
357.161	31.69
357.373	31.69
357.584	33.95
357.796	36.36
358.008	41.42
358.219	32.16
358.431	40.45
358.642	48.29
358.854	48.79
359.065	31.61
359.277	25.2
359.488	18.12
359.7	11.87
359.911	4.22
360.123	23.6
360.334	27.59
360.546	31.08
360.757	40.04
360.969	56.56
361.18	57.92
361.391	63
361.603	56.14
361.814	53.06
362.025	39.79
362.237	41.3
362.448	34.44
362.659	24
362.871	13.66
363.082	1.59
363.293	-11.85
363.504	-35.18
363.716	-19.38
363.927	2.27
364.138	-8.94
364.349	-10.19
364.56	-3.04
364.772	1.66
364.983	1.68
365.194	24.43
365.405	33.86
365.616	40.65
365.827	37.07
366.038	36.75
366.25	22.35
366.461	19.56
366.672	23.36
366.883	30.38
367.094	11.92
367.305	12.65
367.516	8.37
367.727	-20.9
367.938	-28.71
368.149	-21.36
368.36	-21.86
368.571	-45.67
368.781	-34.42
368.992	-24.73
369.203	-16.21
369.414	-19.54
369.625	-5.05
369.836	13.71
370.047	14.27
370.258	20.28
370.468	20.62
370.679	29.01
370.89	25.67
371.101	44.1
371.312	18.2
371.522	23.72
371.733	19.12
371.944	14.37
372.155	1.79
372.365	20.69
372.576	11.69
372.787	23.55
372.997	17.6
373.208	6.64
373.419	10.61
373.629	15.72
373.84	8.98
374.05	13.89
374.261	14.08
374.472	23.49
374.682	21.26
374.893	4.63
375.103	5.82
375.314	9.29
375.524	8.9
375.735	14.45
375.945	20.42
376.156	14.63
376.366	20.01
376.577	11.43
376.787	7.92
376.997	8.28
377.208	8.87
377.418	3.48
377.629	3.87
377.839	10.38
378.049	14.73
378.26	12.55
378.47	11.89
378.68	10.6
378.89	2.58
379.101	1.97
379.311	9.84
379.521	6.89
379.732	9.39
379.942	6.94
380.152	-0.07
380.362	-2.95
380.572	12.69
380.783	16.86
380.993	19.66
381.203	12.98
381.413	17.02
381.623	11.59
381.833	15.94
382.043	12.01
382.253	25.18
382.463	30.26
382.674	32.61
382.884	28.01
383.094	28.46
383.304	28.96
383.514	27.28
383.724	22.11
383.934	17.26
384.144	21.13
384.353	21.25
384.563	14.66
384.773	18.55
384.983	19.4
385.193	16.12
385.403	13
385.613	19.88
385.823	16.99
386.033	16.87
386.242	15.98
386.452	15.01
386.662	8.93
386.872	11.55
387.082	7.37
387.291	3.22
387.501	4.56
387.711	4.87
387.921	4.58
388.13	6.5
388.34	8.98
388.55	6.65
388.759	4.79
388.969	6.76
389.179	6.13
389.388	7.31
389.598	9.87
389.807	7.45
390.017	3.49
390.227	2.22
390.436	2.94
390.646	2.42
390.855	4.15
391.065	6.94
391.274	6.62
391.484	2.88
391.693	2.22
391.903	2.63
392.112	1.43
392.322	2.2
392.531	4.58
392.74	5.06
392.95	3.82
393.159	3.18
393.369	5.71
393.578	6.11
393.787	6.26
393.997	6.76
394.206	5.96
394.415	5.47
394.625	4.78
394.834	3.69
395.043	4.33
395.252	7.04
395.462	7.43
395.671	7.75
395.88	10.53
396.089	10.9
396.298	10.44
396.508	9.62
396.717	9.68
396.926	8.12
397.135	8.56
397.344	7.55
397.553	7.56
397.762	8.23
397.971	8.45
398.181	8.15
398.39	8.3
398.599	8.56
398.808	8.38
399.017	8.89
399.226	8.85
399.435	9.19
399.644	9.18
399.853	9.32
400.062	8.91
400.27	8.76
400.479	8.45
400.688	8.33
400.897	8.05
401.106	8.15
401.315	8.02
401.524	8.23
401.733	8.07
401.941	7.71
402.15	7.53
402.359	7.69
402.568	7.8
402.777	8.13
402.985	8.34
403.194	8.34
403.403	8.49
403.612	8.23
403.82	7.81
404.029	7.91
404.238	7.92
404.446	8.04
404.655	8.13
404.864	8.38
405.072	8.4
405.281	8.45
405.489	8.2
405.698	8.08
405.906	8.2
406.115	8.15
406.324	8.06
406.532	8.25
406.741	8.47
406.949	8.37
407.158	8.39
407.366	8.28
407.574	8.16
407.783	8.09
407.991	8.05
408.2	8.17
408.408	8.35
408.617	8.25
408.825	8.09
409.033	8.07
409.242	7.98
409.45	7.94
409.658	7.9
409.867	8.03
410.075	8.05
410.283	7.94
410.491	7.75
410.7	7.8
410.908	7.69
411.116	7.68
411.324	7.65
411.533	7.65
411.741	7.69
411.949	7.77
412.157	7.64
412.365	7.73
412.573	7.79
412.781	7.68
412.99	7.7
413.198	7.85
413.406	7.9
413.614	7.93
413.822	7.98
414.03	7.94
414.238	7.82
414.446	7.73
414.654	7.64
414.862	7.53
415.07	7.48
415.278	7.62
415.486	7.42
415.694	7.43
415.902	7.37
416.109	7.35
416.317	7.2
416.525	7.26
416.733	7.29
416.941	7.44
417.149	7.35
417.357	7.5
417.564	7.64
417.772	7.64
417.98	7.71
418.188	7.68
418.395	7.28
418.603	7.09
418.811	7.14
419.019	6.96
419.226	7
419.434	7.3
419.642	7.21
419.849	7.18
420.057	7.2
420.265	7.19
420.472	7.04
420.68	7.25
420.887	7.17
421.095	7.23
421.302	7.21
421.51	7.17
421.717	7.1
421.925	7.11
422.132	7.01
422.34	6.88
422.547	6.9
422.755	6.99
422.962	6.93
423.17	6.92
423.377	7.09
423.585	7.13
423.792	7.04
423.999	7.04
424.207	6.97
424.414	6.85
424.621	6.87
424.829	6.8
425.036	6.82
425.243	6.79
425.451	6.77
425.658	6.73
425.865	6.75
426.072	6.67
426.28	6.83
426.487	6.94
426.694	6.85
426.901	6.94
427.108	7.02
427.315	6.9
427.523	6.72
427.73	6.89
427.937	6.84
428.144	6.8
428.351	6.87
428.558	7.05
428.765	7.01
428.972	6.97
429.179	6.96
429.386	7.02
429.593	7
429.8	6.97
430.007	7.13
430.214	7.09
430.421	7.24
430.628	7.35
430.835	7.42
431.042	7.29
431.249	7.48
431.456	7.3
431.662	7.31
431.869	7.48
432.076	7.52
432.283	7.61
432.49	7.59
432.697	7.57
432.903	7.45
433.11	7.53
433.317	7.44
433.524	7.51
433.73	7.51
433.937	7.61
434.144	7.39
434.35	7.27
434.557	7.25
434.764	7.33
434.97	7.26
435.177	7.55
435.384	7.68
435.59	7.7
435.797	7.64
436.003	7.65
436.21	7.54
436.416	7.57
436.623	7.53
436.829	7.52
437.036	7.54
437.242	7.58
437.449	7.62
437.655	7.9
437.862	7.93
438.068	7.98
438.275	8.08
438.481	8.15
438.687	8.05
438.894	8.26
439.1	8.2
439.307	8.3
439.513	8.26
439.719	8.24
439.926	8.18
440.132	8.3
440.338	8.25
440.544	8.19
440.751	8.13
440.957	8.12
441.163	8.03
441.369	8.05
441.575	8.09
441.782	8.17
441.988	8.19
442.194	8.12
442.4	8.11
442.606	8.26
442.812	8.31
443.018	8.24
443.224	8.42
443.431	8.42
443.637	8.27
443.843	8.28
444.049	8.4
444.255	8.33
444.461	8.29
444.667	8.36
444.873	8.31
445.079	8.25
445.284	8.28
445.49	8.33
445.696	8.32
445.902	8.41
446.108	8.44
446.314	8.39
446.52	8.51
446.726	8.57
446.931	8.52
447.137	8.58
447.343	8.71
447.549	8.62
447.755	8.59
447.96	8.66
448.166	8.65
448.372	8.6
448.578	8.47
448.783	8.48
448.989	8.54
449.195	8.59
449.4	8.64
449.606	8.81
449.812	8.77
450.017	8.69
450.223	8.63
450.428	8.62
450.634	8.49
450.84	8.51
451.045	8.56
451.251	8.53
451.456	8.49
451.662	8.61
451.867	8.6
452.073	8.56
452.278	8.56
452.483	8.62
452.689	8.72
452.894	8.83
453.1	8.84
453.305	8.92
453.51	8.89
453.716	8.71
453.921	8.71
454.127	8.72
454.332	8.61
454.537	8.54
454.742	8.62
454.948	8.54
455.153	8.43
455.358	8.51
455.563	8.67
455.769	8.64
455.974	8.63
456.179	8.62
456.384	8.47
456.589	8.36
456.795	8.34
457	8.34
457.205	8.42
457.41	8.47
457.615	8.5
457.82	8.64
458.025	8.7
458.23	8.73
458.435	8.82
458.64	8.84
458.845	8.74
459.05	8.77
459.255	8.75
459.46	8.76
459.665	8.68
459.87	8.73
460.075	8.75
460.28	8.78
460.485	8.86
460.69	8.98
460.895	9.02
461.099	8.87
461.304	8.83
461.509	8.76
461.714	8.68
461.919	8.6
462.123	8.72
462.328	8.57
462.533	8.48
462.738	8.42
462.942	8.37
463.147	8.28
463.352	8.49
463.556	8.6
463.761	8.67
463.966	8.74
464.17	8.86
464.375	8.9
464.58	8.76
464.784	8.83
464.989	8.86
465.193	8.87
465.398	8.81
465.602	9.02
465.807	9.03
466.011	9.02
466.216	8.92
466.42	9.08
466.625	9.07
466.829	9.04
467.034	9.22
467.238	9.33
467.443	9.31
467.647	9.23
467.851	9.31
468.056	9.2
468.26	9.23
468.464	9.23
468.669	9.41
468.873	9.39
469.077	9.43
469.282	9.43
469.486	9.42
469.69	9.37
469.894	9.43
470.099	9.39
470.303	9.53
470.507	9.6
470.711	9.65
470.915	9.67
471.119	9.78
471.324	9.69
471.528	9.69
471.732	9.72
471.936	9.8
472.14	9.73
472.344	9.83
472.548	9.88
472.752	9.84
472.956	9.84
473.16	9.99
473.364	9.96
473.568	9.94
473.772	10
473.976	10.07
474.18	10.02
474.384	10.08
474.588	10.07
474.792	10.09
474.995	10.08
475.199	10.12
475.403	10.19
475.607	10.31
475.811	10.37
476.015	10.38
476.218	10.38
476.422	10.34
476.626	10.3
476.83	10.32
477.033	10.34
477.237	10.42
477.441	10.45
477.644	10.42
477.848	10.47
478.052	10.46
478.255	10.43
478.459	10.47
478.663	10.61
478.866	10.64
479.07	10.6
479.273	10.73
479.477	10.76
479.681	10.77
479.884	10.71
480.088	10.82
480.291	10.75
480.495	10.79
480.698	10.73
480.901	10.8
481.105	10.78
481.308	10.87
481.512	10.88
481.715	11.03
481.919	11.12
482.122	11.18
482.325	11.23
482.529	11.24
482.732	11.14
482.935	10.98
483.138	10.98
483.342	10.91
483.545	10.94
483.748	11.11
483.952	11.29
484.155	11.34
484.358	11.38
484.561	11.36
484.764	11.3
484.967	11.22
485.171	11.22
485.374	11.17
485.577	11.09
485.78	11.06
485.983	11.11
486.186	11.08
486.389	11.18
486.592	11.28
486.795	11.34
486.998	11.38
487.201	11.43
487.404	11.47
487.607	11.48
487.81	11.45
488.013	11.44
488.216	11.35
488.419	11.31
488.622	11.28
488.825	11.3
489.028	11.34
489.231	11.38
489.433	11.4
489.636	11.39
489.839	11.44
490.042	11.41
490.245	11.49
490.447	11.46
490.65	11.52
490.853	11.52
491.056	11.46
491.258	11.48
491.461	11.47
491.664	11.46
491.866	11.36
492.069	11.46
492.272	11.46
492.474	11.47
492.677	11.53
492.879	11.65
493.082	11.73
493.285	11.78
493.487	11.83
493.69	11.78
493.892	11.68
494.095	11.65
494.297	11.63
494.5	11.6
494.702	11.69
494.905	11.83
495.107	11.84
495.309	11.86
495.512	11.94
495.714	11.92
495.917	11.94
496.119	11.94
496.321	11.95
496.524	11.85
496.726	11.89
496.928	11.79
497.13	11.72
497.333	11.67
497.535	11.81
497.737	11.77
497.939	11.9
498.142	11.96
498.344	12.06
498.546	11.97
498.748	12.06
498.95	12.05
499.152	12.09
499.355	12.09
499.557	12.18
499.759	12.26
499.961	12.27
500.163	12.36
500.365	12.42
500.567	12.47
500.769	12.42
500.971	12.49
501.173	12.4
501.375	12.56
501.577	12.59
501.779	12.6
501.981	12.6
502.183	12.75
502.385	12.65
502.587	12.63
502.788	12.74
502.99	12.82
503.192	12.83
503.394	12.86
503.596	12.92
503.798	12.9
503.999	12.87
504.201	12.89
504.403	12.92
504.605	12.98
504.806	13.07
505.008	13.18
505.21	13.24
505.411	13.32
505.613	13.34
505.815	13.3
506.016	13.33
506.218	13.4
506.42	13.39
506.621	13.4
506.823	13.49
507.024	13.52
507.226	13.54
507.427	13.64
507.629	13.69
507.83	13.82
508.032	13.83
508.233	13.88
508.435	13.95
508.636	14.06
508.838	14.09
509.039	14.15
509.24	14.25
509.442	14.23
509.643	14.15
509.845	14.17
510.046	14.23
510.247	14.24
510.448	14.31
510.65	14.44
510.851	14.49
511.052	14.51
511.254	14.5
511.455	14.53
511.656	14.49
511.857	14.47
512.058	14.55
512.26	14.58
512.461	14.59
512.662	14.72
512.863	14.69
513.064	14.7
513.265	14.65
513.466	14.7
513.667	14.73
513.868	14.84
514.069	14.87
514.27	14.98
514.471	14.94
514.672	15.01
514.873	15.02
515.074	15.03
515.275	15.05
515.476	15.13
515.677	15.18
515.878	15.25
516.079	15.3
516.28	15.36
516.481	15.44
516.682	15.41
516.882	15.42
517.083	15.4
517.284	15.43
517.485	15.39
517.686	15.42
517.886	15.41
518.087	15.43
518.288	15.44
518.488	15.44
518.689	15.44
518.89	15.46
519.091	15.59
519.291	15.58
519.492	15.64
519.692	15.65
519.893	15.72
520.094	15.64
520.294	15.68
520.495	15.64
520.695	15.71
520.896	15.63
521.096	15.66
521.297	15.69
521.497	15.75
521.698	15.67
521.898	15.75
522.099	15.77
522.299	15.72
522.499	15.76
522.7	15.87
522.9	15.88
523.101	15.85
523.301	15.93
523.501	15.96
523.702	15.96
523.902	16.01
524.102	16.17
524.302	16.22
524.503	16.22
524.703	16.18
524.903	16.17
525.103	16.07
525.304	16
525.504	16.04
525.704	16.14
525.904	16.14
526.104	16.18
526.304	16.28
526.504	16.25
526.705	16.24
526.905	16.22
527.105	16.3
527.305	16.3
527.505	16.27
527.705	16.27
527.905	16.36
528.105	16.29
528.305	16.27
528.505	16.35
528.705	16.4
528.905	16.37
529.105	16.43
529.304	16.45
529.504	16.54
529.704	16.53
529.904	16.61
530.104	16.65
530.304	16.72
530.503	16.73
530.703	16.77
530.903	16.72
531.103	16.72
531.303	16.75
531.502	16.75
531.702	16.82
531.902	16.92
532.101	16.93
532.301	16.94
532.501	17.02
532.7	17.01
532.9	17.04
533.1	17.05
533.299	17.1
533.499	17.05
533.698	17.04
533.898	17.08
534.097	17.12
534.297	17.12
534.496	17.11
534.696	17.21
534.895	17.21
535.095	17.29
535.294	17.37
535.494	17.43
535.693	17.46
535.892	17.47
536.092	17.46
536.291	17.5
536.491	17.53
536.69	17.49
536.889	17.46
537.088	17.47
537.288	17.48
537.487	17.57
537.686	17.6
537.886	17.73
538.085	17.79
538.284	17.86
538.483	17.82
538.682	17.9
538.882	17.94
539.081	17.97
539.28	17.97
539.479	18.03
539.678	17.99
539.877	18.02
540.076	18.03
540.275	18.06
540.474	18.11
540.673	18.24
540.872	18.26
541.071	18.36
541.27	18.41
541.469	18.44
541.668	18.43
541.867	18.54
542.066	18.59
542.265	18.68
542.464	18.73
542.663	18.91
542.862	19.07
543.06	19.18
543.259	19.32
543.458	19.41
543.657	19.37
543.856	19.33
544.054	19.33
544.253	19.28
544.452	19.4
544.651	19.51
544.849	19.53
545.048	19.59
545.247	19.66
545.445	19.59
545.644	19.58
545.843	19.6
546.041	19.61
546.24	19.65
546.438	19.73
546.637	19.8
546.836	19.92
547.034	20
547.233	20.1
547.431	20.16
547.63	20.24
547.828	20.3
548.027	20.35
548.225	20.38
548.423	20.45
548.622	20.52
548.82	20.56
549.019	20.65
549.217	20.69
549.415	20.75
549.614	20.89
549.812	20.96
550.01	21.02
550.209	21.15
550.407	21.29
550.605	21.23
550.803	21.31
551.002	21.32
551.2	21.35
551.398	21.46
551.596	21.6
551.794	21.67
551.993	21.78
552.191	21.93
552.389	21.92
552.587	21.97
552.785	21.99
552.983	22.15
553.181	22.16
553.379	22.27
553.577	22.37
553.775	22.59
553.973	22.64
554.171	22.82
554.369	22.95
554.567	23.09
554.765	23.12
554.963	23.2
555.161	23.24
555.359	23.27
555.557	23.4
555.755	23.53
555.952	23.75
556.15	23.89
556.348	23.99
556.546	24.07
556.744	24.07
556.941	23.98
557.139	24.06
557.337	24.21
557.535	24.23
557.732	24.31
557.93	24.61
558.128	24.72
558.325	24.84
558.523	25.02
558.721	25.28
558.918	25.29
559.116	25.35
559.313	25.4
559.511	25.56
559.708	25.58
559.906	25.7
560.104	25.77
560.301	26.01
560.498	26.1
560.696	26.24
560.893	26.39
561.091	26.57
561.288	26.56
561.486	26.6
561.683	26.73
561.88	26.81
562.078	26.93
562.275	27.1
562.473	27.22
562.67	27.29
562.867	27.39
563.064	27.55
563.262	27.6
563.459	27.79
563.656	27.95
563.853	28.03
564.051	28.09
564.248	28.27
564.445	28.29
564.642	28.39
564.839	28.51
565.036	28.64
565.234	28.75
565.431	28.94
565.628	29.05
565.825	29.17
566.022	29.31
566.219	29.28
566.416	29.36
566.613	29.48
566.81	29.56
567.007	29.57
567.204	29.76
567.401	29.92
567.598	30.02
567.795	30.12
567.991	30.29
568.188	30.43
568.385	30.38
568.582	30.46
568.779	30.54
568.976	30.62
569.172	30.78
569.369	30.91
569.566	30.98
569.763	31.08
569.96	31.14
570.156	31.13
570.353	31.14
570.55	31.25
570.746	31.37
570.943	31.53
571.14	31.57
571.336	31.69
571.533	31.7
571.729	31.7
571.926	31.73
572.123	31.8
572.319	31.87
572.516	31.95
572.712	32.04
572.909	31.93
573.105	32.06
573.302	32.1
573.498	32.09
573.695	32.05
573.891	32.15
574.087	31.99
574.284	32.06
574.48	32.14
574.677	32.23
574.873	32.32
575.069	32.51
575.266	32.5
575.462	32.52
575.658	32.58
575.854	32.63
576.051	32.7
576.247	32.7
576.443	32.66
576.639	32.66
576.835	32.55
577.032	32.51
577.228	32.61
577.424	32.56
577.62	32.54
577.816	32.66
578.012	32.6
578.208	32.54
578.404	32.67
578.6	32.73
578.796	32.69
578.993	32.67
579.189	32.73
579.384	32.66
579.58	32.68
579.776	32.77
579.972	32.76
580.168	32.78
580.364	32.88
580.56	32.83
580.756	32.71
580.952	32.64
581.148	32.63
581.343	32.56
581.539	32.54
581.735	32.67
581.931	32.77
582.127	32.63
582.322	32.6
582.518	32.57
582.714	32.48
582.909	32.47
583.105	32.48
583.301	32.54
583.496	32.53
583.692	32.51
583.888	32.51
584.083	32.52
584.279	32.39
584.474	32.36
584.67	32.33
584.866	32.27
585.061	32.29
585.257	32.4
585.452	32.5
585.648	32.49
585.843	32.54
586.039	32.59
586.234	32.6
586.429	32.53
586.625	32.5
586.82	32.41
587.015	32.3
587.211	32.28
587.406	32.38
587.601	32.45
587.797	32.51
587.992	32.58
588.187	32.55
588.383	32.46
588.578	32.47
588.773	32.45
588.968	32.49
589.163	32.65
589.359	32.74
589.554	32.69
589.749	32.71
589.944	32.79
590.139	32.74
590.334	32.74
590.529	32.87
590.724	32.91
590.919	32.9
591.114	32.88
591.309	32.88
591.504	32.85
591.699	32.93
591.894	32.95
592.089	32.95
592.284	32.98
592.479	32.98
592.674	33.12
592.869	33.17
593.064	33.32
593.259	33.4
593.454	33.5
593.648	33.38
593.843	33.4
594.038	33.35
594.233	33.43
594.428	33.57
594.622	33.74
594.817	33.8
595.012	33.83
595.206	33.86
595.401	33.94
595.596	33.96
595.79	34.08
595.985	34.28
596.18	34.38
596.374	34.46
596.569	34.56
596.763	34.68
596.958	34.7
597.153	34.78
597.347	34.77
597.542	34.88
597.736	34.95
597.931	35.05
598.125	35.13
598.319	35.19
598.514	35.21
598.708	35.27
598.903	35.35
599.097	35.44
599.291	35.55
599.486	35.69
599.68	35.74
599.874	35.79
600.069	35.9
600.263	35.95
600.457	35.95
600.651	35.98
600.846	36.08
601.04	35.98
601.234	35.98
601.428	36.06
601.622	36.1
601.817	36.11
602.011	36.16
602.205	36.22
602.399	36.12
602.593	36.14
602.787	36.05
602.981	36.07
603.175	36.15
603.369	36.25
603.563	36.33
603.757	36.47
603.951	36.47
604.145	36.44
604.339	36.42
604.533	36.34
604.727	36.31
604.921	36.32
605.115	36.29
605.309	36.23
605.502	36.24
605.696	36.2
605.89	36.2
606.084	36.14
606.278	36.16
606.471	36.17
606.665	36.09
606.859	35.99
607.053	36
607.246	35.89
607.44	35.76
607.634	35.7
607.827	35.67
608.021	35.52
608.214	35.5
608.408	35.4
608.602	35.32
608.795	35.37
608.989	35.42
609.182	35.42
609.376	35.41
609.569	35.4
609.763	35.21
609.956	35.04
610.15	34.83
610.343	34.78
610.537	34.75
610.73	34.56
610.923	34.61
611.117	34.72
611.31	34.55
611.504	34.48
611.697	34.52
611.89	34.33
612.083	34.09
612.277	34.13
612.47	34
612.663	33.86
612.856	33.77
613.05	33.81
613.243	33.68
613.436	33.58
613.629	33.58
613.822	33.58
614.015	33.4
614.209	33.38
614.402	33.18
614.595	33.09
614.788	33.08
614.981	33.03
615.174	32.82
615.367	32.82
615.56	32.73
615.753	32.61
615.946	32.58
616.139	32.7
616.332	32.77
616.525	32.67
616.718	32.57
616.911	32.49
617.103	32.37
617.296	32.17
617.489	32.14
617.682	32.17
617.875	32.16
618.067	32.13
618.26	32.14
618.453	32.05
618.646	31.9
618.838	31.76
619.031	31.7
619.224	31.63
619.417	31.72
619.609	31.74
619.802	31.69
619.994	31.67
620.187	31.58
620.38	31.41
620.572	31.31
620.765	31.33
620.957	31.21
621.15	31.23
621.342	31.31
621.535	31.28
621.727	31.28
621.92	31.34
622.112	31.36
622.305	31.27
622.497	31.22
622.69	31.08
622.882	31.04
623.074	31.06
623.267	31.11
623.459	31.11
623.651	31.23
623.844	31.19
624.036	31.11
624.228	31.06
624.42	30.96
624.613	30.73
624.805	30.79
624.997	30.71
625.189	30.81
625.381	30.95
625.574	31.08
625.766	30.9
625.958	30.84
626.15	30.57
626.342	30.47
626.534	30.42
626.726	30.36
626.918	30.42
627.11	30.48
627.302	30.42
627.494	30.41
627.686	30.42
627.878	30.34
628.07	30.19
628.262	30.19
628.454	30.14
628.646	30.12
628.838	30.15
629.029	30.13
629.221	30.06
629.413	30.08
629.605	30.11
629.797	30.01
629.989	30.06
630.18	30.16
630.372	30.04
630.564	29.98
630.755	29.87
630.947	29.8
631.139	29.67
631.33	29.67
631.522	29.63
631.714	29.74
631.905	29.8
632.097	29.75
632.289	29.68
632.48	29.69
632.672	29.55
632.863	29.32
633.055	29.37
633.246	29.31
633.438	29.17
633.629	29.21
633.821	29.3
634.012	29.27
634.203	29.28
634.395	29.21
634.586	29.22
634.777	29.17
634.969	29.06
635.16	29.03
635.351	29.09
635.543	28.91
635.734	28.83
635.925	28.89
636.117	28.93
636.308	28.93
636.499	29.03
636.69	29.11
636.881	28.98
637.073	28.85
637.264	28.8
637.455	28.72
637.646	28.71
637.837	28.71
638.028	28.73
638.219	28.85
638.41	28.92
638.601	28.83
638.792	28.8
638.983	28.81
639.174	28.65
639.365	28.66
639.556	28.64
639.747	28.54
639.938	28.53
640.129	28.47
640.32	28.38
640.511	28.36
640.701	28.43
640.892	28.38
641.083	28.34
641.274	28.3
641.465	28.29
641.655	28.2
641.846	28.17
642.037	28.11
642.228	27.99
642.418	27.82
642.609	27.9
642.8	27.9
642.99	27.95
643.181	28.02
643.372	28.12
643.562	27.97
643.753	27.88
643.943	27.75
644.134	27.63
644.324	27.58
644.515	27.62
644.705	27.6
644.896	27.68
645.086	27.76
645.277	27.69
645.467	27.54
645.658	27.36
645.848	27.25
646.038	27.25
646.229	27.21
646.419	27.18
646.61	27.31
646.8	27.42
646.99	27.27
647.18	27.21
647.371	27.26
647.561	27.11
647.751	26.99
647.941	26.95
648.132	27
648.322	26.9
648.512	27
648.702	26.92
648.892	26.99
649.082	27.04
649.272	27.04
649.462	27.04
649.653	26.98
649.843	26.81
650.033	26.67
650.223	26.63
650.413	26.49
650.603	26.55
650.793	26.63
650.983	26.49
651.172	26.43
651.362	26.34
651.552	26.22
651.742	26.04
651.932	26
652.122	25.97
652.312	25.91
652.502	25.82
652.691	25.82
652.881	25.8
653.071	25.7
653.261	25.65
653.45	25.58
653.64	25.44
653.83	25.32
654.019	25.23
654.209	25.1
654.399	24.93
654.588	24.91
654.778	24.79
654.968	24.59
655.157	24.38
655.347	24.2
655.536	23.95
655.726	23.63
655.915	23.53
656.105	23.42
656.294	23.33
656.484	23.18
656.673	23.09
656.863	22.99
657.052	22.83
657.241	22.65
657.431	22.52
657.62	22.42
657.809	22.12
657.999	21.96
658.188	21.79
658.377	21.53
658.567	21.36
658.756	21.29
658.945	21.19
659.134	20.95
659.324	20.77
659.513	20.62
659.702	20.35
659.891	20.05
660.08	19.91
660.269	19.69
660.458	19.41
660.648	19.17
660.837	19.04
661.026	18.76
661.215	18.64
661.404	18.49
661.593	18.3
661.782	18.06
661.971	17.92
662.16	17.67
662.349	17.38
662.538	17.21
662.726	17
662.915	16.95
663.104	16.75
663.293	16.62
663.482	16.44
663.671	16.3
663.86	16.1
664.048	15.96
664.237	15.88
664.426	15.81
664.615	15.8
664.803	15.54
664.992	15.4
665.181	15.29
665.369	15.03
665.558	14.77
665.747	14.8
665.935	14.7
666.124	14.67
666.312	14.64
666.501	14.67
666.69	14.48
666.878	14.39
667.067	14.23
667.255	14.11
667.444	14.1
667.632	14.08
667.82	14.07
668.009	13.96
668.197	13.95
668.386	13.7
668.574	13.62
668.762	13.47
668.951	13.4
669.139	13.33
669.327	13.34
669.516	13.46
669.704	13.42
669.892	13.49
670.08	13.53
670.269	13.56
670.457	13.35
670.645	13.35
670.833	13.29
671.021	13.32
671.21	13.3
671.398	13.29
671.586	13.43
671.774	13.52
671.962	13.41
672.15	13.35
672.338	13.47
672.526	13.44
672.714	13.33
672.902	13.43
673.09	13.63
673.278	13.72
673.466	13.77
673.654	13.81
673.842	13.85
674.03	13.84
674.218	13.79
674.405	13.82
674.593	13.98
674.781	14
674.969	14.07
675.157	14.19
675.344	14.2
675.532	14.25
675.72	14.4
675.908	14.45
676.095	14.29
676.283	14.51
676.471	14.48
676.658	14.57
676.846	14.57
677.033	14.72
677.221	14.72
677.409	14.88
677.596	14.84
677.784	15.08
677.971	15.18
678.159	15.27
678.346	15.4
678.534	15.6
678.721	15.64
678.909	15.83
679.096	15.99
679.283	16.08
679.471	16.28
679.658	16.45
679.846	16.6
680.033	16.82
680.22	17.05
680.408	17.17
680.595	17.17
680.782	17.44
680.969	17.62
681.157	17.63
681.344	17.7
681.531	18.01
681.718	18.06
681.905	18.28
682.093	18.58
682.28	19.03
682.467	19.28
682.654	19.68
682.841	19.88
683.028	20.19
683.215	20.31
683.402	20.38
683.589	20.67
683.776	20.83
683.963	21.05
684.15	21.31
684.337	21.73
684.524	21.93
684.711	22.29
684.898	22.59
685.085	22.88
685.271	23.41
685.458	23.79
685.645	24.24
685.832	24.51
686.019	24.82
686.205	25.1
686.392	25.48
686.579	25.74
686.766	26.3
686.952	26.94
687.139	27.27
687.326	27.87
687.512	28.4
687.699	29.01
687.886	29.35
688.072	29.81
688.259	30.25
688.445	30.88
688.632	31.36
688.818	32.04
689.005	32.61
689.191	33.23
689.378	33.78
689.564	34.22
689.751	34.79
689.937	35.73
690.124	36.33
690.31	36.89
690.496	37.75
690.683	38.38
690.869	38.82
691.055	39.55
691.242	40.18
691.428	40.79
691.614	41.64
691.8	42.33
691.987	43.19
692.173	43.95
692.359	44.41
692.545	44.87
692.731	45.52
692.918	45.88
693.104	46.62
693.29	47.54
693.476	48.36
693.662	49.14
693.848	49.84
694.034	50.49
694.22	51.12
694.406	51.57
694.592	52.12
694.778	52.57
694.964	53.33
695.15	54.01
695.336	54.93
695.522	55.41
695.708	56.25
695.894	56.76
696.08	57.5
696.265	58.23
696.451	58.97
696.637	59.62
696.823	60.36
697.009	60.83
697.194	61.38
697.38	62.12
697.566	62.62
697.751	63.08
697.937	63.9
698.123	64.51
698.308	64.76
698.494	65.65
698.68	66.31
698.865	66.76
699.051	67.05
699.236	67.73
699.422	67.9
699.607	68.32
699.793	68.87
699.978	69.31
700.164	69.65
700.349	70.46
700.535	70.96
700.72	71.19
700.906	71.8
701.091	72.45
701.276	72.53
701.462	72.97
701.647	73.51
701.832	73.9
702.018	74.57
702.203	75.36
702.388	75.89
702.573	76.32
702.759	77.02
702.944	76.97
703.129	77.13
703.314	77.38
703.499	77.4
703.684	77.45
703.87	77.94
704.055	78.41
704.24	78.7
704.425	79.38
704.61	79.79
704.795	80.1
704.98	80.28
705.165	80.51
705.35	80.76
705.535	81.16
705.72	81.45
705.905	81.63
706.09	82.19
706.275	82.39
706.459	82.68
706.644	82.82
706.829	83.29
707.014	83.41
707.199	83.84
707.384	84.02
707.568	84.48
707.753	84.87
707.938	84.98
708.123	85.13
708.307	85.31
708.492	85.77
708.677	85.76
708.861	86.19
709.046	86.11
709.231	86.33
709.415	86.25
709.6	86.58
709.784	86.66
709.969	87.46
710.153	87.7
710.338	88.25
710.522	88.63
710.707	88.85
710.891	88.97
711.076	88.82
711.26	89
711.445	88.61
711.629	88.39
711.813	88.26
711.998	88.69
712.182	88.48
712.366	88.87
712.551	89.29
712.735	89.47
712.919	89.73
713.103	90.59
713.288	91.09
713.472	91.62
713.656	91.53
713.84	91.57
714.024	91.07
714.208	90.68
714.393	90.58
714.577	91.19
714.761	91.26
714.945	91.22
715.129	91.45
715.313	91.43
715.497	91.33
715.681	91.12
715.865	90.98
716.049	91.33
716.233	91.52
716.417	91.52
716.601	91.85
716.785	92.72
716.968	92.9
717.152	92.9
717.336	93.19
717.52	93.24
717.704	93.42
717.888	93.42
718.071	93.55
718.255	93.82
718.439	93.83
718.622	93.28
718.806	93.21
718.99	93.4
719.174	93.36
719.357	93.92
719.541	94.48
719.724	94.77
719.908	94.97
720.092	95.01
720.275	95.48
720.459	95.37
720.642	95.21
720.826	95.09
721.009	94.81
721.193	93.98
721.376	94.26
721.559	94.68
721.743	94.94
721.926	95.23
722.11	96.01
722.293	96.4
722.476	96.06
722.66	96.76
722.843	96.72
723.026	96.27
723.21	96.08
723.393	96.58
723.576	96.32
723.759	96.54
723.942	96.73
724.126	96.66
724.309	96.5
724.492	96.51
724.675	96.74
724.858	97.56
725.041	97.79
725.224	98.24
725.407	97.83
725.59	97.53
725.774	96.37
725.957	96.09
726.14	95.8
726.322	96.19
726.505	96.51
726.688	97.48
726.871	97.75
727.054	98.02
727.237	97.81
727.42	97.78
727.603	97.19
727.786	96.97
727.968	97
728.151	96.58
728.334	97.03
728.517	97.12
728.699	97.08
728.882	97.01
729.065	97.28
729.248	97.34
729.43	97.29
729.613	97.7
729.796	98.02
729.978	98.35
730.161	98
730.343	98.86
730.526	98.77
730.708	98.93
730.891	99.31
731.073	99.56
731.256	99.65
731.438	100.74
731.621	100.62
731.803	100.42
731.986	100.58
732.168	100.68
732.35	100.29
732.533	100.26
732.715	100.78
732.898	100.71
733.08	99.89
733.262	99.68
733.444	99.64
733.627	99.84
733.809	100.15
733.991	100.77
734.173	100.77
734.355	100.79
734.538	100.25
734.72	100.19
734.902	100.62
735.084	100.21
735.266	100.81
735.448	101.17
735.63	101.37
735.812	101.17
735.994	101.72
736.176	101.44
736.358	101.28
736.54	101.7
736.722	101.01
736.904	100.97
737.086	100.5
737.268	101.59
737.45	102.34
737.632	102.74
737.814	102.99
737.995	103.49
738.177	103.27
738.359	102.08
738.541	102.2
738.723	102.09
738.904	102.5
739.086	102.52
739.268	102.5
739.449	102.16
739.631	101.94
739.813	100.85
739.994	99.44
740.176	99.7
740.358	100.47
740.539	100.15
740.721	100.97
740.902	101.94
741.084	102.25
741.265	102.18
741.447	103.21
741.628	103.06
741.81	103.8
741.991	103.98
742.172	103.99
742.354	103.83
742.535	104.13
742.717	103.15
742.898	102.73
743.079	103.02
743.261	103.47
743.442	102.78
743.623	103.46
743.804	103.16
743.986	102.56
744.167	102.31
744.348	102.09
744.529	101.37
744.71	100.6
744.891	100.92
745.073	100.41
745.254	101.36
745.435	101.07
745.616	101.1
745.797	100.57
745.978	101.29
746.159	100.83
746.34	101.41
746.521	101.76
746.702	102.56
746.883	102.42
747.064	102.62
747.245	103.71
747.426	103.62
747.606	103.11
747.787	102.85
747.968	102.31
748.149	99.88
748.33	100.38
748.51	99.52
748.691	98.84
748.872	99.83
749.053	100.59
749.233	101.19
749.414	102.72
749.595	103.03
749.775	101.85
749.956	101.6
750.137	100.69
750.317	98.99
750.498	100.16
750.678	100.15
750.859	101.22
751.04	101.75
751.22	101.23
751.4	100.6
751.581	101.15
751.761	101.42
751.942	101.34
752.122	102.47
752.303	101.66
752.483	100.93
752.663	100.17
752.844	99.74
753.024	100.63
753.204	102.27
753.385	102.43
753.565	102.73
753.745	102.23
753.925	100.45
754.106	99.48
754.286	99.59
754.466	98.71
754.646	99.11
754.826	101.31
755.006	100.02
755.187	101.71
755.367	102.04
755.547	102.71
755.727	102.06
755.907	102.54
756.087	100.83
756.267	100.52
756.447	100.35
756.627	100.14
756.807	101
756.987	101.71
757.167	101.43
757.346	100.23
757.526	100.57
757.706	100.73
757.886	100.17
758.066	101.2
758.246	100.52
758.425	99.78
758.605	99.1
758.785	99.66
758.965	100.37
759.144	99.4
759.324	100.99
759.504	100.9
759.683	99.25
759.863	99.07
760.043	100.69
760.222	99.75
760.402	99.36
760.581	101.66
760.761	99.92
760.94	99.45
761.12	98.43
761.299	100.58
761.479	100.1
761.658	99.89
761.838	100.34
762.017	100.27
762.197	98.13
762.376	96.44
762.555	97.38
762.735	97.84
762.914	97.81
763.093	97.58
763.273	98.92
763.452	97.71
763.631	97.23
763.81	97.79
763.99	97.11
764.169	96.12
764.348	97.08
764.527	97.5
764.706	97.25
764.885	100.97
765.064	101.22
765.243	99.99
765.423	100.97
765.602	101.8
765.781	98.06
765.96	98.61
766.139	99.41
766.318	99.6
766.497	98.77
766.676	98.16
766.854	99.45
767.033	99.75
767.212	100.03
767.391	100.09
767.57	103.82
767.749	102.15
767.928	101.8
768.106	99.59
768.285	98.33
768.464	96.02
768.643	95.1
768.821	94.54
769	96.3
769.179	96.77
769.357	95.6
769.536	93.91
769.715	93.61
769.893	91.43
770.072	90.87
770.25	91.5
770.429	92.97
770.607	93.81
770.786	95.75
770.964	96.34
771.143	97.49
771.321	95.91
771.5	96.24
771.678	94.57
771.857	93.84
772.035	93.71
772.213	94.68
772.392	92.24
772.57	92.54
772.748	90.99
772.927	91.84
773.105	92.76
773.283	93.66
773.461	93.42
773.64	94.85
773.818	93.16
773.996	92.97
774.174	95.84
774.352	94.93
774.531	94.8
774.709	94.07
774.887	91.55
775.065	88.84
775.243	90.04
775.421	91.43
775.599	93.64
775.777	94.68
775.955	94.15
776.133	92.72
776.311	90.69
776.489	89.4
776.667	90.04
776.844	90.08
777.022	91.57
777.2	91.58
777.378	90.01
777.556	93.66
777.734	96.77
777.911	97.64
778.089	99.68
778.267	102.14
778.445	100.34
778.622	98.33
778.8	94.48
778.978	96.03
779.155	96.91
779.333	95.9
779.511	96.07
779.688	99.37
779.866	99.29
780.043	98.5
780.221	98.49
780.398	97.97
780.576	98.43
780.753	95.7
780.931	92.52
781.108	94.3
781.286	94.45
781.463	93.29
781.64	93.94
781.818	96.83
781.995	94.27
782.172	93.17
782.35	92.66
782.527	90.27
782.704	90.8
782.882	89.2
783.059	89.78
783.236	89.27
783.413	89.49
783.59	85.68
783.768	85.86
783.945	85.01
784.122	85.9
784.299	90.12
784.476	89.42
784.653	91.1
784.83	90.75
785.007	88.02
785.184	85.43
785.361	87.42
785.538	87.61
785.715	90.54
785.892	90.91
786.069	91.31
786.246	91.26
786.423	90.55
786.6	89.62
786.776	91.79
786.953	91.58
787.13	92.2
787.307	92.17
787.484	89.03
787.66	88.58
787.837	88.65
788.014	90.01
788.191	90.52
788.367	89.73
788.544	91.01
788.721	90.13
788.897	89.04
789.074	89.39
789.25	92.52
789.427	89.94
789.603	84.67
789.78	82.65
789.956	79.41
790.133	77.86
790.309	77.38
790.486	79.4
790.662	79.23
790.839	79.11
791.015	82.42
791.192	82.2
791.368	84.5
791.544	87.86
791.721	89.51
791.897	85.89
792.073	86.67
792.249	85.35
792.426	82.38
792.602	78.86
792.778	78.6
792.954	78.09
793.13	78.32
793.307	81.7
793.483	85.13
793.659	87.74
793.835	89.44
794.011	92.81
794.187	89.52
794.363	84.03
794.539	83.86
794.715	83
794.891	82.51
795.067	81.26
795.243	84.14
795.419	79.32
795.595	81.81
795.771	77.82
795.947	78.03
796.122	78.1
796.298	82.55
796.474	82.93
796.65	87.95
796.826	86.65
797.001	86.22
797.177	79.27
797.353	75.32
797.529	75.17
797.704	75.29
797.88	75.29
798.056	79.77
798.231	78.31
798.407	77.18
798.582	77.43
798.758	78.77
798.934	79.15
799.109	81.18
799.285	84.24
799.46	85.34
799.636	88.93
799.811	90.11
799.986	90.14
800.162	82.23
800.337	82.81
800.513	77.26
800.688	69.83
800.863	73.65
801.039	75.66
801.214	75.04
801.389	77.8
801.565	85.12
801.74	81.1
801.915	80.32
802.09	78.32
802.265	79.72
802.441	75.66
802.616	76.78
802.791	78.91
802.966	82.38
803.141	81.12
803.316	85.8
803.491	85.78
803.666	90.56
803.841	85.37
804.016	83.11
804.191	83.5
804.366	80.13
804.541	79.26
804.716	82.67
804.891	84.16
805.066	83.57
805.241	84.5
805.416	81.28
805.591	83.51
805.765	91.59
805.94	89.03
806.115	81.65
806.29	84.23
806.464	82.48
806.639	77.28
806.814	81.76
806.989	83.81
807.163	84.5
807.338	81.61
807.512	79.35
807.687	76.21
807.862	84.83
808.036	82.13
808.211	89.48
808.385	94.82
808.56	91.4
808.734	81.26
808.909	86.01
809.083	87.39
809.258	89.31
809.432	96.02
809.606	113.15
809.781	103.61
809.955	98.69
810.13	88.13
810.304	80.97
810.478	73.39
810.652	76.56
810.827	81.53
811.001	84.24
811.175	82.82
811.349	81.96
811.524	86.04
811.698	74.06
811.872	78.38
812.046	78.82
812.22	82.85
812.394	72.95
812.568	80.24
812.742	68.82
812.916	73.18
813.09	71.73
813.264	70.36
813.438	65.08
813.612	69.21
813.786	67.2
813.96	73.06
814.134	76.09
814.308	83.93
814.482	86.47
814.656	83.89
814.83	81.73
815.003	81.71
815.177	82.08
815.351	81.3
815.525	90.15
815.698	77.46
815.872	67.61
816.046	55.97
816.219	63.15
816.393	59.2
816.567	65.96
816.74	71.26
816.914	76.7
817.088	68.65
817.261	72
817.435	78.6
817.608	81.45
817.782	82.97
817.955	89.67
818.129	78.77
818.302	69.52
818.475	79.05
818.649	77.18
818.822	67.56
818.996	82.45
819.169	89.68
819.342	81.51
819.516	86.79
819.689	90.53
819.862	76.3
820.035	76.94
820.209	75.27
820.382	67.79
820.555	56.85
820.728	55.3
820.901	45.99
821.075	49.27
821.248	58.04
821.421	59.94
821.594	67.38
821.767	80.89
821.94	66.84
822.113	65.06
822.286	78
822.459	84.4
822.632	83.45
822.805	93.29
822.978	95.14
823.151	86.67
823.324	68.26
823.496	53.86
823.669	57.81
823.842	65.36
824.015	67.81
824.188	61.82
824.361	70.15
824.533	62.01
824.706	68.39
824.879	62.81
825.051	78.12
825.224	83.05
825.397	83.98
825.569	69.34
825.742	76.2
825.915	81.05
826.087	74.12
826.26	68.18
826.432	82.5
826.605	85.37
826.777	78.75
826.95	78.83
827.122	74.17
827.295	63.7
827.467	61.48
827.64	51.75
827.812	41.85
827.984	54.35
828.157	37.9
828.329	45.93
828.501	40.96
828.674	52.84
828.846	54.67
829.018	64.81
829.19	56.67
829.363	75.36
829.535	89.88
829.707	94.15
829.879	90.01
830.051	116.09
830.223	115.47
830.395	101.35
830.568	84.74
830.74	87.88
830.912	72.73
831.084	56.02
831.256	47.31
831.428	49.83
831.6	51.23
831.772	39.3
831.943	43.68
832.115	55.06
832.287	70.71
832.459	58.82
832.631	75.68
832.803	82
832.975	80.05
833.146	66.36
833.318	75.66
833.49	74.41
833.662	83.74
833.833	89.1
834.005	94.14
834.177	99.62
834.348	92.7
834.52	77.93
834.692	70.26
834.863	64.81
835.035	67.04
835.206	61.17
835.378	62.29
835.549	58.25
835.721	65.88
835.892	54.58
836.064	51.6
836.235	45.59
836.407	45.22
836.578	46.28
836.749	34.92
836.921	38.82
837.092	42.88
837.264	51.54
837.435	38.64
837.606	43.32
837.777	52.82
837.949	58.97
838.12	61.97
838.291	67.04
838.462	87.13
838.633	80.86
838.805	72.23
838.976	61.45
839.147	59.38
839.318	50.95
839.489	40.79
839.66	57.9
839.831	71.6
840.002	67.93
840.173	67.1
840.344	73.04
840.515	65.97
840.686	67.56
840.857	72.79
841.028	67.75
841.199	65.34
841.369	79.5
841.54	63.16
841.711	74.58
841.882	66.36
842.053	68.88
842.223	45.17
842.394	43.97
842.565	27.17
842.736	39.44
842.906	41.69
843.077	59.75
843.248	70.51
843.418	66.34
843.589	67.33
843.759	79.37
843.93	79.68
844.101	72.51
844.271	120.39
844.442	113.33
844.612	87.2
844.783	79.47
844.953	78.37
845.123	45.56
845.294	25.99
845.464	19.55
845.635	4.55
845.805	20.29
845.975	44.08
846.146	64.14
846.316	56.79
846.486	55.45
846.656	53.63
846.827	58.97
846.997	61.92
847.167	63.88
847.337	68.01
847.507	70.84
847.677	76.78
847.848	76.99
848.018	92.93
848.188	91.28
848.358	65.9
848.528	68.49
848.698	70.16
848.868	61.27
849.038	48.87
849.208	76.52
849.378	80.53
849.548	85.95
849.718	78.8
849.887	123.63
850.057	75.1
850.227	75.33
850.397	61.6
850.567	56.84
850.737	73.09
850.906	66.14
851.076	36.92
851.246	58.32
851.415	50.11
851.585	8.58
851.755	22.25
851.924	40.53
852.094	53.73
852.264	33.06
852.433	29.87
852.603	30
852.772	32.99
852.942	21.57
853.111	32.68
853.281	63.23
853.45	66.65
853.62	60.12
853.789	49.71
853.959	72.26
854.128	56.77
854.297	65.74
854.467	61.31
854.636	75.9
854.805	69.45
854.975	65.59
855.144	62.35
855.313	88.58
855.482	63.43
855.652	54.69
855.821	47.11
855.99	61.06
856.159	51.8
856.328	69.09
856.497	63.03
856.667	59.92
856.836	61.1
857.005	50.58
857.174	45.48
857.343	28.42
857.512	38.17
857.681	23.38
857.85	9.81
858.019	-36.63
858.188	-34.93
858.356	-6.45
858.525	11.41
858.694	35.64
858.863	38.71
859.032	43.51
859.201	12.95
859.369	12.99
859.538	34.21
859.707	48.31
859.876	62.99
860.044	99.85
860.213	105.23
860.382	96.43
860.55	80.1
860.719	85.02
860.888	80.42
861.056	40.1
861.225	34
861.393	72.64
861.562	65.49
861.73	41.68
861.899	55.7
862.067	42.08
862.236	7.28
862.404	9.8
862.572	42.97
862.741	33.71
862.909	35.51
863.078	62.39
863.246	37.48
863.414	21.24
863.582	25.75
863.751	27.92
863.919	37.18
864.087	43.71
864.255	42.3
864.424	43.87
864.592	53.95
864.76	53.75
864.928	84.1
865.096	71.21
865.264	57.93
865.432	65.03
865.6	48.32
865.768	33.63
865.936	53.21
866.104	64.02
866.272	53.35
866.44	37.18
866.608	16.26
866.776	31.7
866.944	57.83
867.112	45.99
867.28	43.2
867.448	54.57
867.615	35.8
867.783	10.39
867.951	23.85
868.119	29.06
868.286	21.55
868.454	33.22
868.622	48.26
868.789	53.11
868.957	52.86
869.125	61.82
869.292	38.63
869.46	38.35
869.627	44.54
869.795	28.86
869.963	41.71
870.13	74.62
870.298	68.43
870.465	64.97
870.632	58.84
870.8	41.27
870.967	47.49
871.135	14.13
871.302	7.98
871.469	43.16
871.637	34.53
871.804	29.83
871.971	31.48
872.139	24.44
872.306	-3.42
872.473	-29.68
872.64	-131.69
872.807	-121
872.975	-305.09
873.142	-106.35
873.309	-44.19
873.476	31.13
873.643	54.49
873.81	56.62
873.977	22.31
874.144	28.39
874.311	-48.6
874.478	-51.16
874.645	-69.89
874.812	65.78
874.979	96.13
875.146	109.35
875.313	103.71
875.48	99.72
875.647	50.53
875.813	11.83
875.98	36.64
876.147	-6.28
876.314	6.77
876.481	47.25
876.647	40.63
876.814	14.22
876.981	36.3
877.147	60.21
877.314	35.79
877.481	51.94
877.647	68.74
877.814	70.44
877.98	50.1
878.147	77.02
878.314	97.77
878.48	115.16
878.647	107.4
878.813	112.46
878.979	140.37
879.146	138.46
879.312	133.85
879.479	92.49
879.645	78.55
879.811	42.86
879.978	31.79
880.144	8.6
880.31	12.56
880.477	36.78
880.643	64.14
880.809	74.04
880.975	139.27
881.142	178.49
881.308	-48.99
881.474	29.98
881.64	73.23
881.806	9.47
881.972	18.31
882.138	41.46
882.304	56.24
882.47	70.21
882.636	56.03
882.802	69.22
882.968	90.03
883.134	75.9
883.3	69.02
883.466	159.77
883.632	186.19
883.798	181.25
883.964	114.99
884.129	478.6
884.295	87.18
884.461	-28.27
884.627	33.6
884.793	8.94
884.958	47.16
885.124	48.02
885.29	37.52
885.455	22.6
885.621	126.6
885.787	41.73
885.952	15.01
886.118	51.15
886.283	49.13
886.449	36.16
886.614	33.67
886.78	66.35
886.945	93.99
887.111	45.67
887.276	-8.08
887.442	-24.46
887.607	-69.44
887.773	-50.78
887.938	-29.19
888.103	-6.59
888.269	31.23
888.434	39.88
888.599	43.83
888.764	54.35
888.93	78.46
889.095	55.01
889.26	43.76
889.425	55.98
889.59	78.51
889.756	31.44
889.921	26.89
890.086	111.61
890.251	84.64
890.416	26.87
890.581	5.55
890.746	68.97
890.911	41.88
891.076	48.47
891.241	60.15
891.406	46.41
891.571	42.69
891.736	-22.44
891.901	-6.35
892.065	-6.43
892.23	44.48
892.395	1.51
892.56	-13.2
892.725	47.01
892.889	120.63
893.054	66.62
893.219	46.49
893.384	84.7
893.548	-20.69
893.713	-35.94
893.878	-162.08
