Data from Ofra_PS_T2_1A_2GT07_Reflection_1.txt Node
Date: Wed Jul 21 17:58:46 EDT 2021
User: Adam
Spectrometer: FLMT01687
Trigger mode: 0
Integration Time (sec): 1.100000E0
Scans to average: 2
Electric dark correction enabled: true
Nonlinearity correction enabled: false
Boxcar width: 2
XAxis mode: Wavelengths
Number of Pixels in Spectrum: 3648
>>>>>Begin Spectral Data<<<<<
179.494	535.6
179.716	593.41
179.937	532.76
180.158	485.12
180.38	811.56
180.601	178.73
180.823	52.81
181.044	-98.34
181.265	41.54
181.486	-48.39
181.708	53.23
181.929	-25.51
182.15	-235.92
182.372	86.32
182.593	-64.63
182.814	-16.95
183.035	10
183.257	17.49
183.478	-38.19
183.699	77.94
183.92	64.08
184.141	59.44
184.363	55.87
184.584	76.79
184.805	55.8
185.026	82.86
185.247	79.86
185.468	55.44
185.689	62.18
185.91	64.36
186.132	48.02
186.353	52.87
186.574	109.36
186.795	76.59
187.016	28.98
187.237	17.15
187.458	-12.55
187.679	-23.37
187.9	-1.55
188.121	10.89
188.342	26.82
188.563	59.38
188.784	110.41
189.005	106.51
189.226	193.14
189.447	193.69
189.667	281.31
189.888	7.64
190.109	-435.71
190.33	-531.94
190.551	-936.73
190.772	-235.96
190.993	-229
191.214	-191.81
191.434	-157.7
191.655	-62.88
191.876	-65.99
192.097	-107.43
192.318	-105.64
192.538	-159.97
192.759	-140.05
192.98	-73.39
193.201	-38.23
193.421	-26.52
193.642	-9.53
193.863	-9.65
194.083	-28.06
194.304	-26.2
194.525	-29.66
194.745	-14.57
194.966	-39.33
195.187	-44.1
195.407	-73.58
195.628	-143.5
195.848	-171.05
196.069	-144.39
196.29	-95.24
196.51	-100.72
196.731	-69.09
196.951	-74.12
197.172	-118.77
197.392	-136.97
197.613	-118.95
197.833	-139.3
198.054	-100.35
198.274	-23.9
198.495	-47.8
198.715	-18.97
198.936	-24.49
199.156	-23.44
199.377	-145.58
199.597	-103.11
199.817	-128.02
200.038	-80.94
200.258	-137.02
200.479	-34.52
200.699	-59.28
200.919	39.11
201.14	17.38
201.36	9.38
201.58	41.89
201.801	68.37
202.021	20.73
202.241	24.5
202.461	31.07
202.682	-57.81
202.902	-149.14
203.122	-57.06
203.342	-47.14
203.563	-2.81
203.783	16.88
204.003	-8.72
204.223	12.21
204.443	68.61
204.663	32.66
204.884	50.23
205.104	86.33
205.324	82.79
205.544	71.96
205.764	84.58
205.984	83
206.204	77.05
206.424	54.93
206.644	11.82
206.864	20.38
207.084	-3.04
207.304	37.65
207.525	-34.53
207.745	38.93
207.964	28.99
208.184	-35.19
208.404	-86.62
208.624	-39.03
208.844	-34.06
209.064	-257.72
209.284	-257.12
209.504	-95.59
209.724	-20.1
209.944	-24.68
210.164	13.48
210.384	31.34
210.604	22.47
210.823	-25.04
211.043	-47.59
211.263	-37.65
211.483	-40.35
211.703	-81.05
211.922	-50
212.142	27.5
212.362	32.91
212.582	18.54
212.801	2.45
213.021	-31.4
213.241	-56.81
213.461	-89.09
213.68	-102.33
213.9	-50
214.12	-13.59
214.339	-77.48
214.559	-36.55
214.779	5.15
214.998	9.46
215.218	-40.35
215.438	1.05
215.657	-2.73
215.877	-3.31
216.096	19.65
216.316	41.32
216.535	25.12
216.755	15.28
216.974	-60.45
217.194	-132.83
217.413	-119.01
217.633	-110.24
217.852	-198.56
218.072	-56.85
218.291	-5.19
218.511	28.42
218.73	1.52
218.95	-4.75
219.169	-10.82
219.389	-61.92
219.608	-56.38
219.827	-41.48
220.047	-10.67
220.266	-1.91
220.485	12.86
220.705	20.4
220.924	-1.52
221.143	19.81
221.363	-6.65
221.582	4.96
221.801	19.05
222.021	30.54
222.24	-14.18
222.459	33.65
222.678	-1.7
222.897	-62.58
223.117	-74.02
223.336	-65.9
223.555	-57.72
223.774	4.33
223.993	28.68
224.213	80.53
224.432	79.52
224.651	103.11
224.87	69.17
225.089	64.67
225.308	41.91
225.527	44.77
225.746	30.49
225.965	11
226.184	-18.6
226.404	2.06
226.623	-24.84
226.842	-19.41
227.061	8.37
227.28	12.57
227.499	7.14
227.718	24.67
227.936	15.04
228.155	21.38
228.374	15.33
228.593	17.64
228.812	12.68
229.031	10.06
229.25	-40.85
229.469	-26.12
229.688	-20.69
229.907	20.37
230.125	35.09
230.344	43.51
230.563	49.29
230.782	55.74
231.001	-16.68
231.22	-8.83
231.438	26.5
231.657	8.31
231.876	1.64
232.095	44.31
232.313	60.37
232.532	46.03
232.751	61.73
232.969	19.12
233.188	-14.94
233.407	18.9
233.625	12.04
233.844	-9.2
234.063	27.68
234.281	38.11
234.5	5.28
234.719	4
234.937	20.77
235.156	13.03
235.374	15.53
235.593	31.41
235.811	33.56
236.03	37.42
236.249	13.62
236.467	-6.04
236.686	5.75
236.904	15.16
237.123	-18.31
237.341	0.02
237.559	7.77
237.778	-16.44
237.996	-22.56
238.215	14.93
238.433	11.4
238.652	16.33
238.87	-0.16
239.088	10.18
239.307	5.25
239.525	-2.73
239.743	-42.73
239.962	-22.46
240.18	-60.35
240.398	-98.02
240.617	-103.14
240.835	-74.66
241.053	-64.01
241.271	-8.69
241.49	12.65
241.708	17.77
241.926	13.16
242.144	19.05
242.363	-35.23
242.581	-54.14
242.799	-8.61
243.017	10.26
243.235	-11.61
243.453	-5.68
243.672	13.39
243.89	-3.48
244.108	-11.11
244.326	21.65
244.544	44.02
244.762	25.86
244.98	39.59
245.198	36.57
245.416	-10.31
245.634	-16.44
245.852	-20.36
246.07	-48.81
246.288	-60.26
246.506	-53.13
246.724	-38.2
246.942	-19.02
247.16	23.23
247.378	38.29
247.596	55.07
247.814	58.89
248.032	27.13
248.25	18.75
248.468	20.66
248.685	21.14
248.903	38.81
249.121	48.03
249.339	10.78
249.557	-11.53
249.775	4.84
249.992	-55.08
250.21	-62.83
250.428	-28.73
250.646	-50.51
250.863	-85.65
251.081	-55.65
251.299	-19.29
251.517	-1.92
251.734	23.4
251.952	33.75
252.17	24.87
252.387	18.54
252.605	-1.76
252.823	1.77
253.04	13.5
253.258	18.91
253.475	19.38
253.693	48.24
253.911	51.21
254.128	54.11
254.346	61.15
254.563	16.92
254.781	-12.06
254.998	-43.03
255.216	-52.36
255.433	-40.28
255.651	31.08
255.868	61.14
256.086	83.28
256.303	78.49
256.521	70.98
256.738	46.69
256.956	21.74
257.173	7.62
257.39	-25.84
257.608	-60.99
257.825	-29.08
258.043	25.48
258.26	25.62
258.477	75.83
258.695	79.42
258.912	30.02
259.129	16.17
259.346	-12.08
259.564	-46.09
259.781	-72.64
259.998	9.54
260.216	19.09
260.433	62.35
260.65	50.16
260.867	64.63
261.084	35.94
261.302	20.63
261.519	-5.52
261.736	-39.86
261.953	-72.64
262.17	-41.12
262.387	-72.55
262.604	-103.15
262.822	-90.51
263.039	-55.42
263.256	-98.16
263.473	-31.27
263.69	-4.71
263.907	32.76
264.124	39.31
264.341	44.18
264.558	15.1
264.775	30.65
264.992	11.63
265.209	20.82
265.426	41.29
265.643	50.85
265.86	59.18
266.077	56.05
266.294	44.57
266.51	-11.69
266.727	-28.49
266.944	-32.37
267.161	-21.88
267.378	-15.48
267.595	24.5
267.812	-9.23
268.028	-28.27
268.245	-11.85
268.462	-36.34
268.679	-36.53
268.896	38.05
269.112	48.04
269.329	38.69
269.546	59.96
269.763	35.87
269.979	14.16
270.196	0.37
270.413	-36.21
270.629	-56.97
270.846	-59.84
271.063	-45.69
271.279	-57.21
271.496	-34.18
271.712	-4.25
271.929	5.44
272.146	-16.99
272.362	-4.05
272.579	31.74
272.795	37.99
273.012	55.27
273.228	68.87
273.445	47.61
273.661	28.27
273.878	-28.71
274.094	-28.55
274.311	-65
274.527	6.78
274.744	8.02
274.96	21.12
275.177	25.95
275.393	45.68
275.609	33.76
275.826	42.59
276.042	24.53
276.259	9.25
276.475	16.49
276.691	23.77
276.908	-1.07
277.124	23.02
277.34	21.18
277.557	14.71
277.773	4.29
277.989	21.63
278.205	4.14
278.422	15.41
278.638	16.46
278.854	32.75
279.07	33.19
279.286	43.77
279.503	31.08
279.719	14.37
279.935	-29.92
280.151	-52.57
280.367	-19.64
280.583	-39.52
280.799	-15.19
281.016	-31.04
281.232	-0.29
281.448	-7.88
281.664	24.96
281.88	-4.59
282.096	28.27
282.312	71.65
282.528	83.61
282.744	76.66
282.96	83.88
283.176	65.56
283.392	30.28
283.608	9.77
283.824	8.33
284.04	10.96
284.256	11.65
284.471	10.32
284.687	20.83
284.903	29.41
285.119	40.9
285.335	30.28
285.551	45.49
285.767	30.16
285.982	22.11
286.198	-6.29
286.414	30.15
286.63	24.33
286.846	45.33
287.061	16.04
287.277	40.11
287.493	6.95
287.709	15.31
287.924	-1.14
288.14	46.53
288.356	37.62
288.571	58.89
288.787	50.93
289.003	49.12
289.218	28.29
289.434	1.11
289.65	0.93
289.865	-11.58
290.081	8.97
290.296	18.93
290.512	34.34
290.727	-4.65
290.943	0.55
291.159	-16.51
291.374	-20.89
291.59	-49.27
291.805	-26.86
292.021	-25.85
292.236	-32.12
292.451	-15.69
292.667	0.45
292.882	22.81
293.098	26.5
293.313	28.83
293.529	7.5
293.744	-0.2
293.959	-27.91
294.175	-20.62
294.39	0.66
294.605	12.24
294.821	34.34
295.036	45.14
295.251	39.19
295.467	21.04
295.682	17.48
295.897	-27.4
296.112	-40.74
296.328	-21.39
296.543	-30.94
296.758	-4.41
296.973	31.89
297.188	54.99
297.404	21.71
297.619	15.53
297.834	-26.52
298.049	-45.93
298.264	-84.17
298.479	-23.29
298.694	-3.99
298.909	16.7
299.125	20.1
299.34	30.31
299.555	6.86
299.77	24.42
299.985	-9.42
300.2	-49.01
300.415	-75.11
300.63	-28.34
300.845	-57.71
301.06	-52.53
301.275	-18.47
301.49	5.91
301.704	-16.68
301.919	-22.28
302.134	-25.38
302.349	-26.4
302.564	-64.08
302.779	-43.58
302.994	1.96
303.209	10.04
303.423	25.6
303.638	46.96
303.853	4.08
304.068	3.37
304.283	-1.3
304.497	0.61
304.712	-5.74
304.927	15.75
305.142	3.33
305.356	22.64
305.571	13.46
305.786	-4.29
306	-26.34
306.215	-7.51
306.43	-41.68
306.644	-27.79
306.859	12.95
307.074	48.72
307.288	1.8
307.503	14.34
307.717	-7.56
307.932	-4.41
308.147	-37.47
308.361	-2.14
308.576	-16.65
308.79	-65.64
309.005	-63.58
309.219	-39.99
309.434	-62.61
309.648	-51.66
309.863	-10.83
310.077	3.73
310.292	4.72
310.506	15.75
310.72	28.92
310.935	31.5
311.149	14.73
311.364	18.25
311.578	31.53
311.792	17.31
312.007	35.73
312.221	27.58
312.435	35.77
312.649	23.95
312.864	90.08
313.078	91.53
313.292	157.06
313.507	133.32
313.721	149.46
313.935	61.26
314.149	52.75
314.363	27.94
314.578	37.04
314.792	40.18
315.006	7.8
315.22	9.16
315.434	28.87
315.648	32.64
315.862	26.27
316.077	32.02
316.291	33.93
316.505	16.03
316.719	4.93
316.933	-9.1
317.147	-0.23
317.361	-47.12
317.575	-55.56
317.789	-73.97
318.003	-121.46
318.217	-90.11
318.431	-11.81
318.645	9.73
318.859	7.45
319.073	36.35
319.287	24.3
319.5	-5.3
319.714	-33.32
319.928	-48.29
320.142	-67.91
320.356	-5.29
320.57	33.58
320.784	36.42
320.997	55.9
321.211	39.6
321.425	-34.31
321.639	-75.61
321.853	-29.21
322.066	-20.26
322.28	-14.57
322.494	9.8
322.707	27.08
322.921	13.65
323.135	-3.43
323.349	7.76
323.562	-20.9
323.776	-34.13
323.989	-29.69
324.203	-37.62
324.417	-52.33
324.63	-56.79
324.844	-51
325.057	-50.21
325.271	-24.4
325.485	10.77
325.698	27.04
325.912	39.36
326.125	10.7
326.339	9.26
326.552	-12.08
326.766	-7
326.979	8.94
327.193	56.74
327.406	53
327.619	31.77
327.833	52.44
328.046	24.88
328.26	-11.56
328.473	13.59
328.686	2.62
328.9	-4.05
329.113	13.44
329.326	-0.7
329.54	0.95
329.753	-8
329.966	-36.22
330.179	-42.11
330.393	-20.25
330.606	-6.72
330.819	17.76
331.032	27.51
331.246	31.98
331.459	60.59
331.672	42.2
331.885	24.97
332.098	12.04
332.311	-2.06
332.525	-66.15
332.738	-43.45
332.951	-9.77
333.164	6.52
333.377	27.66
333.59	54.66
333.803	46.83
334.016	43.27
334.229	49.41
334.442	54.63
334.655	56.27
334.868	70.72
335.081	65.85
335.294	48.15
335.507	36.19
335.72	12.92
335.933	-3.39
336.146	-6.06
336.359	-14.38
336.572	-42.68
336.785	-73.66
336.997	-52.97
337.21	-33.57
337.423	-21.59
337.636	-7.18
337.849	20.24
338.062	-0.53
338.274	7.56
338.487	-7.29
338.7	-5.81
338.913	-41.38
339.125	-61.86
339.338	-119.49
339.551	-89.3
339.763	-55.8
339.976	-17.25
340.189	8.82
340.402	19.97
340.614	5.56
340.827	-13.4
341.039	-29.18
341.252	-20.77
341.465	-17.38
341.677	-20.16
341.89	-30.17
342.102	-2.23
342.315	-19.79
342.527	-29.94
342.74	-25.29
342.952	5.8
343.165	2.23
343.377	24.69
343.59	14.05
343.802	31.45
344.015	27.93
344.227	30.4
344.44	24.21
344.652	40.41
344.864	28.06
345.077	42.12
345.289	43.64
345.502	44.4
345.714	30.55
345.926	36.64
346.139	20.77
346.351	30.33
346.563	33.5
346.775	48.12
346.988	29.91
347.2	20.57
347.412	-41.41
347.624	-60.13
347.837	-76.37
348.049	-38.95
348.261	-5.5
348.473	13.63
348.685	22.78
348.897	-3.11
349.11	-20.53
349.322	-52.77
349.534	-24.29
349.746	-31.28
349.958	-9.97
350.17	-4.3
350.382	23.57
350.594	21.01
350.806	19.37
351.018	20.72
351.23	17.99
351.442	-37.37
351.654	-62.38
351.866	-30.54
352.078	-4.73
352.29	12.77
352.502	38.39
352.714	51.9
352.926	30.24
353.138	11.83
353.35	-4.73
353.561	-13.72
353.773	-37.88
353.985	-19.35
354.197	-21.08
354.409	-16.21
354.621	-23.47
354.832	-12.55
355.044	-20.07
355.256	-22.47
355.468	-1.21
355.679	2.8
355.891	21.6
356.103	13.73
356.314	19.1
356.526	10.73
356.738	15.02
356.949	-3.73
357.161	4.65
357.373	2.28
357.584	-10.62
357.796	-9.1
358.008	-7.55
358.219	3.94
358.431	-1.87
358.642	7.96
358.854	15.81
359.065	2.08
359.277	-14.63
359.488	-14.39
359.7	-35.68
359.911	-52.54
360.123	-25.65
360.334	-39.37
360.546	-52.03
360.757	-41.72
360.969	-37.44
361.18	-40.97
361.391	-13.27
361.603	-14.88
361.814	-16.13
362.025	-12.67
362.237	-5.94
362.448	2.25
362.659	26.47
362.871	26.37
363.082	18.98
363.293	6.24
363.504	-6.94
363.716	-32.99
363.927	-37.4
364.138	-55.36
364.349	-59.75
364.56	-60.96
364.772	-53.61
364.983	-32.18
365.194	-24.03
365.405	0.24
365.616	27.1
365.827	35.11
366.038	12.87
366.25	13.2
366.461	-19.98
366.672	-8.51
366.883	10.36
367.094	30.86
367.305	19.25
367.516	20.63
367.727	-11.61
367.938	-28.54
368.149	-35.78
368.36	-10.97
368.571	-1.54
368.781	-3.64
368.992	-14.46
369.203	-26.74
369.414	-46.93
369.625	-56.81
369.836	-40.98
370.047	-57.01
370.258	-53.15
370.468	-52.53
370.679	-62.58
370.89	-72.67
371.101	-50.2
371.312	-44.83
371.522	-37.47
371.733	-19.3
371.944	-0.51
372.155	7.23
372.365	6.49
372.576	3.83
372.787	1.91
372.997	-23.48
373.208	-30.43
373.419	-2.79
373.629	-18.01
373.84	-27.71
374.05	-28.63
374.261	-20.59
374.472	-50.09
374.682	-3.47
374.893	-4.47
375.103	27.99
375.314	23.51
375.524	25.37
375.735	11.09
375.945	17.34
376.156	-4.39
376.366	1.17
376.577	1.16
376.787	1.88
376.997	13.86
377.208	18.04
377.418	5.18
377.629	20
377.839	19.58
378.049	16.36
378.26	27.32
378.47	35.24
378.68	19.74
378.89	11.15
379.101	2.06
379.311	-28.32
379.521	-53.58
379.732	-44.48
379.942	-40.22
380.152	-44.23
380.362	-9.09
380.572	-7.87
380.783	-1.62
380.993	6.99
381.203	19.96
381.413	30.57
381.623	39.4
381.833	27.57
382.043	17.98
382.253	2.73
382.463	-8.94
382.674	-12.74
382.884	-23.89
383.094	-24.18
383.304	-13.03
383.514	-5.08
383.724	5.84
383.934	5.51
384.144	-6.22
384.353	-21.47
384.563	-24.74
384.773	-26.56
384.983	-32.85
385.193	-8.17
385.403	5.31
385.613	4.49
385.823	-7.84
386.033	1.46
386.242	-9.92
386.452	-16.77
386.662	-24.36
386.872	-6.27
387.082	-10.78
387.291	-10.39
387.501	-8.93
387.711	-4.01
387.921	-14.37
388.13	-12.19
388.34	-1.61
388.55	-5.3
388.759	-3.73
388.969	0.67
389.179	0.35
389.388	-1.81
389.598	6.47
389.807	-0.38
390.017	-1.54
390.227	-3.22
390.436	-4.74
390.646	-6.71
390.855	-2.18
391.065	-2.36
391.274	-3.5
391.484	-4.04
391.693	-3.09
391.903	-2.14
392.112	3.41
392.322	7.48
392.531	10.2
392.74	8.95
392.95	5.24
393.159	1.92
393.369	0.5
393.578	-0.78
393.787	-1.49
393.997	0.34
394.206	-2.55
394.415	-1.54
394.625	-0.92
394.834	-0.9
395.043	-0.52
395.252	2.83
395.462	3.51
395.671	4.62
395.88	5.31
396.089	5.7
396.298	3.78
396.508	3.18
396.717	1.22
396.926	2.19
397.135	1.75
397.344	1.86
397.553	2.96
397.762	4.86
397.971	3.49
398.181	3.62
398.39	2.83
398.599	2.37
398.808	1.96
399.017	2.9
399.226	3.81
399.435	5.11
399.644	4.67
399.853	3.73
400.062	3.57
400.27	3.2
400.479	2.49
400.688	1.91
400.897	2.18
401.106	1.87
401.315	1.44
401.524	1.76
401.733	2.53
401.941	3.1
402.15	3.45
402.359	3.28
402.568	3.67
402.777	3.67
402.985	3.19
403.194	3.03
403.403	3.1
403.612	2.61
403.82	2.4
404.029	2.58
404.238	2.24
404.446	2.57
404.655	2.53
404.864	2.34
405.072	2.06
405.281	2.33
405.489	1.98
405.698	1.83
405.906	2
406.115	2.09
406.324	2.03
406.532	2.29
406.741	2.47
406.949	2.41
407.158	2.35
407.366	2.37
407.574	2.28
407.783	2.3
407.991	2.12
408.2	2.36
408.408	2.22
408.617	2.17
408.825	2.08
409.033	2.18
409.242	2.12
409.45	2.28
409.658	2.06
409.867	2.22
410.075	2.12
410.283	1.98
410.491	1.94
410.7	1.96
410.908	1.8
411.116	2.13
411.324	2.13
411.533	2.03
411.741	2.3
411.949	2.41
412.157	2.12
412.365	2.28
412.573	2.41
412.781	2.37
412.99	2.27
413.198	2.46
413.406	2.3
413.614	2.19
413.822	2
414.03	1.91
414.238	1.67
414.446	1.7
414.654	1.48
414.862	1.58
415.07	1.75
415.278	2.09
415.486	1.89
415.694	2.13
415.902	2.12
416.109	1.99
416.317	1.87
416.525	1.71
416.733	1.67
416.941	1.91
417.149	1.88
417.357	1.85
417.564	2.22
417.772	2.47
417.98	2.21
418.188	2.12
418.395	2.14
418.603	2.17
418.811	1.7
419.019	1.7
419.226	2.02
419.434	2.06
419.642	1.93
419.849	2.18
420.057	2.23
420.265	2.16
420.472	1.87
420.68	1.96
420.887	1.86
421.095	1.78
421.302	1.65
421.51	1.89
421.717	1.88
421.925	2.03
422.132	2.06
422.34	1.86
422.547	1.92
422.755	1.75
422.962	1.6
423.17	1.48
423.377	1.66
423.585	1.63
423.792	1.57
423.999	1.6
424.207	1.56
424.414	1.69
424.621	1.47
424.829	1.62
425.036	1.69
425.243	1.94
425.451	1.74
425.658	1.69
425.865	1.85
426.072	1.71
426.28	1.89
426.487	1.8
426.694	1.95
426.901	1.63
427.108	1.71
427.315	1.5
427.523	1.79
427.73	1.83
427.937	1.82
428.144	1.73
428.351	1.67
428.558	1.74
428.765	1.57
428.972	1.63
429.179	1.77
429.386	2.04
429.593	1.7
429.8	1.69
430.007	1.8
430.214	1.8
430.421	1.55
430.628	1.45
430.835	1.37
431.042	1.56
431.249	1.6
431.456	1.62
431.662	1.86
431.869	2.04
432.076	1.99
432.283	2.07
432.49	2.1
432.697	2.14
432.903	1.94
433.11	1.87
433.317	1.92
433.524	2.08
433.73	2.09
433.937	2.42
434.144	2.32
434.35	2.13
434.557	1.89
434.764	1.88
434.97	1.71
435.177	1.9
435.384	1.88
435.59	2.14
435.797	2.3
436.003	2.39
436.21	2.29
436.416	2.44
436.623	2.31
436.829	2.33
437.036	2.5
437.242	2.49
437.449	2.41
437.655	2.44
437.862	2.4
438.068	2.15
438.275	2.32
438.481	2.52
438.687	2.46
438.894	2.4
439.1	2.57
439.307	2.76
439.513	2.61
439.719	2.71
439.926	2.82
440.132	2.7
440.338	2.41
440.544	2.55
440.751	2.42
440.957	2.39
441.163	2.38
441.369	2.45
441.575	2.22
441.782	2.28
441.988	2.28
442.194	2.26
442.4	2.31
442.606	2.69
442.812	2.78
443.018	2.75
443.224	2.82
443.431	2.86
443.637	2.55
443.843	2.44
444.049	2.46
444.255	2.46
444.461	2.44
444.667	2.5
444.873	2.7
445.079	2.79
445.284	2.9
445.49	2.78
445.696	2.63
445.902	2.49
446.108	2.28
446.314	2.18
446.52	2.19
446.726	2.51
446.931	2.52
447.137	2.72
447.343	2.83
447.549	2.8
447.755	2.58
447.96	2.59
448.166	2.48
448.372	2.35
448.578	2.49
448.783	2.53
448.989	2.73
449.195	2.92
449.4	2.96
449.606	2.9
449.812	2.82
450.017	2.82
450.223	2.7
450.428	2.62
450.634	2.76
450.84	2.97
451.045	2.8
451.251	2.79
451.456	3.03
451.662	2.99
451.867	2.93
452.073	2.94
452.278	3.02
452.483	3.06
452.689	3
452.894	3.1
453.1	3.11
453.305	3.15
453.51	3.05
453.716	3.04
453.921	2.93
454.127	2.87
454.332	2.66
454.537	2.6
454.742	2.65
454.948	2.7
455.153	2.76
455.358	2.95
455.563	3.12
455.769	3.25
455.974	3.19
456.179	3.15
456.384	3.12
456.589	3.1
456.795	2.9
457	2.93
457.205	3.16
457.41	3.14
457.615	2.94
457.82	3
458.025	3
458.23	2.84
458.435	2.9
458.64	2.93
458.845	3.06
459.05	3.08
459.255	3.05
459.46	3.02
459.665	3.03
459.87	2.96
460.075	2.93
460.28	2.99
460.485	3.13
460.69	3.2
460.895	3.05
461.099	2.97
461.304	3.02
461.509	2.9
461.714	2.79
461.919	3.02
462.123	3.03
462.328	3.19
462.533	3.27
462.738	3.45
462.942	3.35
463.147	3.44
463.352	3.35
463.556	3.32
463.761	3.34
463.966	3.38
464.17	3.37
464.375	3.27
464.58	3.34
464.784	3.28
464.989	3.22
465.193	3.26
465.398	3.27
465.602	3.29
465.807	3.25
466.011	3.33
466.216	3.36
466.42	3.42
466.625	3.45
466.829	3.57
467.034	3.56
467.238	3.82
467.443	3.81
467.647	3.67
467.851	3.73
468.056	3.77
468.26	3.53
468.464	3.54
468.669	3.68
468.873	3.74
469.077	3.74
469.282	3.83
469.486	3.91
469.69	3.88
469.894	3.75
470.099	3.81
470.303	3.97
470.507	3.85
470.711	3.75
470.915	3.72
471.119	3.7
471.324	3.47
471.528	3.57
471.732	3.68
471.936	3.75
472.14	3.77
472.344	3.88
472.548	3.91
472.752	4.07
472.956	4.25
473.16	4.24
473.364	4.1
473.568	4.12
473.772	4.13
473.976	3.93
474.18	3.94
474.384	4.1
474.588	4.09
474.792	3.95
474.995	4.04
475.199	4.13
475.403	4.18
475.607	4.15
475.811	4.19
476.015	4.21
476.218	4.17
476.422	4.06
476.626	4.21
476.83	4.27
477.033	4.25
477.237	4.21
477.441	4.31
477.644	4.25
477.848	4.24
478.052	4.19
478.255	4.24
478.459	4.21
478.663	4.27
478.866	4.27
479.07	4.35
479.273	4.51
479.477	4.56
479.681	4.54
479.884	4.53
480.088	4.45
480.291	4.33
480.495	4.33
480.698	4.31
480.901	4.33
481.105	4.5
481.308	4.48
481.512	4.46
481.715	4.53
481.919	4.58
482.122	4.52
482.325	4.56
482.529	4.61
482.732	4.62
482.935	4.52
483.138	4.45
483.342	4.48
483.545	4.58
483.748	4.6
483.952	4.7
484.155	4.92
484.358	4.94
484.561	4.83
484.764	4.81
484.967	4.86
485.171	4.84
485.374	4.81
485.577	4.93
485.78	4.94
485.983	4.93
486.186	4.8
486.389	4.75
486.592	4.73
486.795	4.74
486.998	4.65
487.201	4.74
487.404	4.84
487.607	4.87
487.81	4.89
488.013	5.01
488.216	4.98
488.419	4.94
488.622	4.85
488.825	4.78
489.028	4.68
489.231	4.7
489.433	4.69
489.636	4.66
489.839	4.67
490.042	4.63
490.245	4.63
490.447	4.65
490.65	4.62
490.853	4.65
491.056	4.77
491.258	4.74
491.461	4.78
491.664	4.96
491.866	4.86
492.069	4.91
492.272	4.82
492.474	4.85
492.677	4.79
492.879	4.9
493.082	4.93
493.285	5.13
493.487	5.08
493.69	5.02
493.892	4.97
494.095	4.89
494.297	4.75
494.5	4.81
494.702	4.87
494.905	4.91
495.107	4.95
495.309	5.04
495.512	5.02
495.714	5.02
495.917	5.07
496.119	5.05
496.321	5.04
496.524	5.06
496.726	5.08
496.928	5.08
497.13	5.04
497.333	5.02
497.535	4.99
497.737	4.97
497.939	4.91
498.142	5.04
498.344	5.05
498.546	5
498.748	5.02
498.95	5.15
499.152	5
499.355	5.1
499.557	5.21
499.759	5.31
499.961	5.23
500.163	5.39
500.365	5.31
500.567	5.31
500.769	5.17
500.971	5.21
501.173	5.05
501.375	5.13
501.577	5.1
501.779	5.15
501.981	5.13
502.183	5.2
502.385	5.14
502.587	5.07
502.788	5.12
502.99	5.1
503.192	5.13
503.394	5.14
503.596	5.19
503.798	5.22
503.999	5.32
504.201	5.26
504.403	5.25
504.605	5.28
504.806	5.19
505.008	5.13
505.21	5.26
505.411	5.3
505.613	5.3
505.815	5.34
506.016	5.44
506.218	5.46
506.42	5.48
506.621	5.5
506.823	5.51
507.024	5.39
507.226	5.34
507.427	5.26
507.629	5.32
507.83	5.38
508.032	5.39
508.233	5.46
508.435	5.53
508.636	5.6
508.838	5.54
509.039	5.57
509.24	5.53
509.442	5.58
509.643	5.46
509.845	5.53
510.046	5.58
510.247	5.64
510.448	5.63
510.65	5.69
510.851	5.76
511.052	5.76
511.254	5.73
511.455	5.82
511.656	5.89
511.857	5.93
512.058	5.91
512.26	5.91
512.461	5.87
512.662	5.86
512.863	5.72
513.064	5.76
513.265	5.77
513.466	5.79
513.667	5.75
513.868	5.83
514.069	5.87
514.27	5.94
514.471	5.89
514.672	5.89
514.873	5.89
515.074	5.88
515.275	5.72
515.476	5.73
515.677	5.73
515.878	5.79
516.079	5.8
516.28	5.91
516.481	6.03
516.682	6.06
516.882	5.98
517.083	5.98
517.284	5.93
517.485	5.87
517.686	5.85
517.886	5.87
518.087	5.91
518.288	5.92
518.488	5.9
518.689	5.93
518.89	5.93
519.091	5.96
519.291	5.96
519.492	6
519.692	5.99
519.893	6.03
520.094	6.02
520.294	6.04
520.495	6.04
520.695	6.1
520.896	6.09
521.096	6.08
521.297	6.12
521.497	6.11
521.698	6.08
521.898	6.1
522.099	6.13
522.299	6.17
522.499	6.2
522.7	6.23
522.9	6.18
523.101	6.28
523.301	6.24
523.501	6.22
523.702	6.2
523.902	6.29
524.102	6.24
524.302	6.23
524.503	6.31
524.703	6.38
524.903	6.43
525.103	6.37
525.304	6.49
525.504	6.53
525.704	6.52
525.904	6.47
526.104	6.48
526.304	6.44
526.504	6.44
526.705	6.42
526.905	6.47
527.105	6.5
527.305	6.48
527.505	6.44
527.705	6.47
527.905	6.45
528.105	6.45
528.305	6.42
528.505	6.44
528.705	6.5
528.905	6.49
529.105	6.51
529.304	6.56
529.504	6.62
529.704	6.57
529.904	6.6
530.104	6.63
530.304	6.68
530.503	6.62
530.703	6.57
530.903	6.57
531.103	6.57
531.303	6.57
531.502	6.62
531.702	6.73
531.902	6.77
532.101	6.78
532.301	6.76
532.501	6.76
532.7	6.72
532.9	6.73
533.1	6.72
533.299	6.74
533.499	6.76
533.698	6.74
533.898	6.69
534.097	6.72
534.297	6.78
534.496	6.77
534.696	6.85
534.895	6.96
535.095	7.08
535.294	7.02
535.494	6.98
535.693	7.01
535.892	7.03
536.092	6.93
536.291	6.94
536.491	7.07
536.69	7.07
536.889	6.99
537.088	6.97
537.288	7.04
537.487	7.06
537.686	7.1
537.886	7.15
538.085	7.24
538.284	7.32
538.483	7.28
538.682	7.31
538.882	7.33
539.081	7.37
539.28	7.24
539.479	7.19
539.678	7.18
539.877	7.29
540.076	7.25
540.275	7.37
540.474	7.5
540.673	7.55
540.872	7.44
541.071	7.53
541.27	7.51
541.469	7.52
541.668	7.53
541.867	7.6
542.066	7.66
542.265	7.74
542.464	7.69
542.663	7.71
542.862	7.81
543.06	7.8
543.259	7.82
543.458	7.87
543.657	7.98
543.856	7.96
544.054	7.94
544.253	7.95
544.452	8.04
544.651	8.09
544.849	8.07
545.048	8.14
545.247	8.18
545.445	8.16
545.644	8.16
545.843	8.17
546.041	8.21
546.24	8.3
546.438	8.41
546.637	8.47
546.836	8.62
547.034	8.71
547.233	8.72
547.431	8.71
547.63	8.72
547.828	8.73
548.027	8.75
548.225	8.71
548.423	8.72
548.622	8.77
548.82	8.73
549.019	8.83
549.217	8.98
549.415	9.1
549.614	9.19
549.812	9.28
550.01	9.21
550.209	9.25
550.407	9.24
550.605	9.24
550.803	9.35
551.002	9.48
551.2	9.54
551.398	9.63
551.596	9.77
551.794	9.82
551.993	9.92
552.191	9.98
552.389	10.1
552.587	10.18
552.785	10.19
552.983	10.27
553.181	10.37
553.379	10.44
553.577	10.48
553.775	10.61
553.973	10.64
554.171	10.73
554.369	10.73
554.567	10.75
554.765	10.83
554.963	10.94
555.161	10.9
555.359	10.98
555.557	11.16
555.755	11.27
555.952	11.39
556.15	11.5
556.348	11.58
556.546	11.65
556.744	11.64
556.941	11.64
557.139	11.77
557.337	11.93
557.535	11.95
557.732	12.13
557.93	12.26
558.128	12.38
558.325	12.43
558.523	12.48
558.721	12.54
558.918	12.54
559.116	12.64
559.313	12.65
559.511	12.89
559.708	12.99
559.906	13.09
560.104	13.1
560.301	13.24
560.498	13.18
560.696	13.23
560.893	13.37
561.091	13.5
561.288	13.64
561.486	13.75
561.683	13.86
561.88	14
562.078	14.05
562.275	14.07
562.473	14.19
562.67	14.29
562.867	14.32
563.064	14.48
563.262	14.57
563.459	14.7
563.656	14.85
563.853	14.98
564.051	15.07
564.248	15.23
564.445	15.33
564.642	15.39
564.839	15.56
565.036	15.74
565.234	15.86
565.431	15.92
565.628	16.03
565.825	16.12
566.022	16.16
566.219	16.23
566.416	16.38
566.613	16.46
566.81	16.5
567.007	16.46
567.204	16.51
567.401	16.51
567.598	16.54
567.795	16.58
567.991	16.71
568.188	16.84
568.385	16.99
568.582	17.08
568.779	17.3
568.976	17.37
569.172	17.46
569.369	17.44
569.566	17.63
569.763	17.57
569.96	17.61
570.156	17.54
570.353	17.64
570.55	17.58
570.746	17.69
570.943	17.78
571.14	17.91
571.336	17.97
571.533	18.15
571.729	18.19
571.926	18.23
572.123	18.31
572.319	18.39
572.516	18.33
572.712	18.46
572.909	18.53
573.105	18.64
573.302	18.66
573.498	18.77
573.695	18.64
573.891	18.71
574.087	18.65
574.284	18.68
574.48	18.56
574.677	18.65
574.873	18.62
575.069	18.76
575.266	18.83
575.462	18.9
575.658	19
575.854	19.19
576.051	19.12
576.247	19.05
576.443	19.07
576.639	18.96
576.835	18.8
577.032	18.7
577.228	18.87
577.424	18.97
577.62	18.98
577.816	19.01
578.012	19.07
578.208	18.98
578.404	18.98
578.6	19
578.796	19.13
578.993	19.21
579.189	19.19
579.384	19.02
579.58	19.01
579.776	18.93
579.972	18.82
580.168	18.83
580.364	18.98
580.56	19
580.756	18.97
580.952	18.97
581.148	19.04
581.343	18.94
581.539	19.01
581.735	19.14
581.931	19.17
582.127	19.13
582.322	19.18
582.518	19.22
582.714	19.14
582.909	19.09
583.105	19.06
583.301	19.11
583.496	19.1
583.692	19.05
583.888	19.07
584.083	19.08
584.279	19.07
584.474	19
584.67	19.09
584.866	19.16
585.061	18.99
585.257	19.02
585.452	19.1
585.648	19.01
585.843	19.06
586.039	19.28
586.234	19.29
586.429	19.13
586.625	19.19
586.82	19.13
587.015	19.11
587.211	18.98
587.406	19.12
587.601	19.05
587.797	18.99
587.992	18.96
588.187	19.14
588.383	19.1
588.578	19.17
588.773	19.22
588.968	19.29
589.163	19.27
589.359	19.22
589.554	19.23
589.749	19.34
589.944	19.37
590.139	19.41
590.334	19.5
590.529	19.55
590.724	19.52
590.919	19.55
591.114	19.53
591.309	19.62
591.504	19.71
591.699	19.76
591.894	19.89
592.089	19.88
592.284	19.9
592.479	19.93
592.674	19.95
592.869	19.93
593.064	20.12
593.259	20.24
593.454	20.33
593.648	20.45
593.843	20.46
594.038	20.45
594.233	20.43
594.428	20.39
594.622	20.42
594.817	20.56
595.012	20.63
595.206	20.71
595.401	20.77
595.596	20.8
595.79	20.89
595.985	21.08
596.18	21.21
596.374	21.34
596.569	21.41
596.763	21.37
596.958	21.28
597.153	21.37
597.347	21.38
597.542	21.58
597.736	21.65
597.931	21.73
598.125	21.73
598.319	21.95
598.514	21.9
598.708	22.05
598.903	22.13
599.097	22.23
599.291	22.17
599.486	22.17
599.68	22.15
599.874	22.25
600.069	22.24
600.263	22.29
600.457	22.4
600.651	22.46
600.846	22.51
601.04	22.58
601.234	22.59
601.428	22.62
601.622	22.73
601.817	22.77
602.011	22.81
602.205	22.96
602.399	22.99
602.593	22.99
602.787	23.04
602.981	23.02
603.175	23.03
603.369	22.98
603.563	22.96
603.757	22.88
603.951	22.98
604.145	22.89
604.339	22.96
604.533	22.83
604.727	22.76
604.921	22.63
605.115	22.66
605.309	22.74
605.502	22.81
605.696	22.79
605.89	22.75
606.084	22.64
606.278	22.48
606.471	22.39
606.665	22.37
606.859	22.29
607.053	22.36
607.246	22.38
607.44	22.3
607.634	22.31
607.827	22.35
608.021	22.23
608.214	22.15
608.408	22.16
608.602	22.12
608.795	22.08
608.989	21.97
609.182	21.89
609.376	21.8
609.569	21.69
609.763	21.54
609.956	21.52
610.15	21.5
610.343	21.52
610.537	21.44
610.73	21.46
610.923	21.4
611.117	21.31
611.31	21.26
611.504	21.28
611.697	21.14
611.89	21.1
612.083	21
612.277	20.9
612.47	20.71
612.663	20.66
612.856	20.6
613.05	20.46
613.243	20.38
613.436	20.38
613.629	20.28
613.822	20.13
614.015	20.15
614.209	20.03
614.402	20.11
614.595	20.08
614.788	20.07
614.981	19.99
615.174	19.89
615.367	19.71
615.56	19.66
615.753	19.64
615.946	19.55
616.139	19.59
616.332	19.64
616.525	19.56
616.718	19.6
616.911	19.63
617.103	19.56
617.296	19.39
617.489	19.38
617.682	19.21
617.875	19.15
618.067	19.03
618.26	18.95
618.453	18.94
618.646	18.86
618.838	18.87
619.031	19
619.224	19.07
619.417	19.08
619.609	19.18
619.802	19.14
619.994	19.09
620.187	18.99
620.38	18.85
620.572	18.7
620.765	18.71
620.957	18.58
621.15	18.45
621.342	18.55
621.535	18.63
621.727	18.47
621.92	18.41
622.112	18.45
622.305	18.44
622.497	18.33
622.69	18.4
622.882	18.41
623.074	18.46
623.267	18.38
623.459	18.31
623.651	18.19
623.844	18.26
624.036	18.26
624.228	18.2
624.42	18.22
624.613	18.3
624.805	18.22
624.997	18.1
625.189	18.04
625.381	18.1
625.574	18.05
625.766	17.92
625.958	17.93
626.15	18
626.342	17.89
626.534	17.84
626.726	17.83
626.918	17.83
627.11	17.72
627.302	17.75
627.494	17.73
627.686	17.84
627.878	17.81
628.07	17.81
628.262	17.7
628.454	17.76
628.646	17.72
628.838	17.75
629.029	17.68
629.221	17.8
629.413	17.6
629.605	17.49
629.797	17.37
629.989	17.39
630.18	17.3
630.372	17.36
630.564	17.4
630.755	17.41
630.947	17.49
631.139	17.32
631.33	17.19
631.522	17.22
631.714	17.22
631.905	17.1
632.097	17.13
632.289	17.16
632.48	17.07
632.672	16.9
632.863	16.74
633.055	16.78
633.246	16.81
633.438	16.72
633.629	16.79
633.821	16.93
634.012	16.91
634.203	16.8
634.395	16.89
634.586	16.94
634.777	16.84
634.969	16.84
635.16	16.88
635.351	16.76
635.543	16.75
635.734	16.86
635.925	16.85
636.117	16.88
636.308	16.92
636.499	16.8
636.69	16.71
636.881	16.65
637.073	16.75
637.264	16.71
637.455	16.8
637.646	16.88
637.837	16.89
638.028	16.76
638.219	16.81
638.41	16.72
638.601	16.63
638.792	16.63
638.983	16.62
639.174	16.51
639.365	16.59
639.556	16.54
639.747	16.49
639.938	16.52
640.129	16.47
640.32	16.42
640.511	16.48
640.701	16.57
640.892	16.56
641.083	16.71
641.274	16.76
641.465	16.75
641.655	16.7
641.846	16.66
642.037	16.59
642.228	16.48
642.418	16.54
642.609	16.52
642.8	16.55
642.99	16.41
643.181	16.47
643.372	16.48
643.562	16.48
643.753	16.39
643.943	16.44
644.134	16.42
644.324	16.24
644.515	16.23
644.705	16.27
644.896	16.29
645.086	16.22
645.277	16.25
645.467	16.21
645.658	16.14
645.848	16.15
646.038	16.14
646.229	16.11
646.419	16.05
646.61	16.03
646.8	15.99
646.99	15.97
647.18	15.87
647.371	15.89
647.561	15.89
647.751	15.91
647.941	15.83
648.132	15.96
648.322	15.87
648.512	15.93
648.702	15.85
648.892	15.88
649.082	15.84
649.272	15.76
649.462	15.59
649.653	15.62
649.843	15.58
650.033	15.54
650.223	15.63
650.413	15.6
650.603	15.61
650.793	15.64
650.983	15.48
651.172	15.29
651.362	15.27
651.552	15.02
651.742	14.87
651.932	14.96
652.122	15.02
652.312	15.01
652.502	15.12
652.691	15.16
652.881	15.05
653.071	14.99
653.261	14.88
653.45	14.57
653.64	14.52
653.83	14.42
654.019	14.32
654.209	14.32
654.399	14.37
654.588	14.21
654.778	14.09
654.968	13.88
655.157	13.73
655.347	13.6
655.536	13.42
655.726	13.28
655.915	13.19
656.105	13.04
656.294	12.88
656.484	12.69
656.673	12.6
656.863	12.57
657.052	12.42
657.241	12.29
657.431	12.16
657.62	11.98
657.809	11.65
657.999	11.44
658.188	11.3
658.377	11.22
658.567	11.02
658.756	10.95
658.945	10.9
659.134	10.68
659.324	10.46
659.513	10.42
659.702	10.26
659.891	10.08
660.08	9.94
660.269	9.83
660.458	9.62
660.648	9.49
660.837	9.31
661.026	9.34
661.215	9.19
661.404	9.04
661.593	8.96
661.782	8.74
661.971	8.49
662.16	8.41
662.349	8.31
662.538	8.06
662.726	8.06
662.915	7.93
663.104	7.79
663.293	7.78
663.482	7.88
663.671	7.71
663.86	7.6
664.048	7.53
664.237	7.47
664.426	7.18
664.615	7.18
664.803	7.14
664.992	7
665.181	6.78
665.369	6.69
665.558	6.61
665.747	6.54
665.935	6.63
666.124	6.68
666.312	6.69
666.501	6.69
666.69	6.6
666.878	6.39
667.067	6.19
667.255	6.23
667.444	6.41
667.632	6.45
667.82	6.58
668.009	6.62
668.197	6.51
668.386	6.28
668.574	6.3
668.762	6.14
668.951	6.02
669.139	6.02
669.327	5.91
669.516	5.97
669.704	5.99
669.892	6.18
670.08	6.23
670.269	6.15
670.457	6.01
670.645	5.98
670.833	6.02
671.021	6.03
671.21	6.13
671.398	6.35
671.586	6.3
671.774	6.2
671.962	6.09
672.15	6.14
672.338	5.97
672.526	6.16
672.714	6.01
672.902	6.1
673.09	6.22
673.278	6.47
673.466	6.44
673.654	6.75
673.842	6.69
674.03	6.67
674.218	6.48
674.405	6.44
674.593	6.38
674.781	6.58
674.969	6.54
675.157	6.71
675.344	6.89
675.532	6.91
675.72	7.01
675.908	7.1
676.095	7.09
676.283	7.08
676.471	7.2
676.658	7.13
676.846	7.12
677.033	7.14
677.221	7.18
677.409	7.13
677.596	7.26
677.784	7.37
677.971	7.42
678.159	7.58
678.346	7.71
678.534	7.68
678.721	7.84
678.909	7.82
679.096	7.77
679.283	7.93
679.471	8.05
679.658	8.08
679.846	8.29
680.033	8.59
680.22	8.56
680.408	8.72
680.595	8.74
680.782	8.77
680.969	8.77
681.157	8.93
681.344	8.88
681.531	9.11
681.718	9.17
681.905	9.26
682.093	9.42
682.28	9.71
682.467	9.85
682.654	10.09
682.841	10.21
683.028	10.44
683.215	10.55
683.402	10.61
683.589	10.81
683.776	11.02
683.963	11.01
684.15	11.25
684.337	11.38
684.524	11.56
684.711	11.64
684.898	11.75
685.085	11.91
685.271	12.34
685.458	12.53
685.645	12.89
685.832	13.27
686.019	13.63
686.205	13.78
686.392	14.08
686.579	14.26
686.766	14.6
686.952	14.74
687.139	15.15
687.326	15.26
687.512	15.65
687.699	16.08
687.886	16.47
688.072	16.63
688.259	17.2
688.445	17.73
688.632	18.01
688.818	18.67
689.005	19.32
689.191	19.78
689.378	20.4
689.564	20.87
689.751	21.25
689.937	21.55
690.124	22.12
690.31	22.4
690.496	22.89
690.683	23.36
690.869	23.95
691.055	24.42
691.242	25.22
691.428	25.86
691.614	26.51
691.8	27.33
691.987	27.99
692.173	28.52
692.359	29.34
692.545	30.02
692.731	30.34
692.918	31.16
693.104	31.7
693.29	32.06
693.476	32.81
693.662	33.74
693.848	33.97
694.034	34.54
694.22	35.1
694.406	35.51
694.592	35.94
694.778	36.86
694.964	37.51
695.15	38.33
695.336	39.02
695.522	39.83
695.708	40.28
695.894	40.83
696.08	41.48
696.265	42.14
696.451	42.66
696.637	43.48
696.823	44.04
697.009	44.31
697.194	44.78
697.38	45.35
697.566	45.71
697.751	46.39
697.937	47.3
698.123	47.82
698.308	48.53
698.494	49.03
698.68	49.57
698.865	49.91
699.051	50.72
699.236	50.97
699.422	51.69
699.607	51.99
699.793	52.52
699.978	52.61
700.164	53.17
700.349	53.8
700.535	54.22
700.72	54.68
700.906	55.38
701.091	55.75
701.276	56
701.462	56.91
701.647	57.58
701.832	57.88
702.018	58.15
702.203	58.43
702.388	58.34
702.573	58.41
702.759	58.87
702.944	59.35
703.129	59.81
703.314	60.35
703.499	60.45
703.684	60.76
703.87	61.53
704.055	62.23
704.24	62.51
704.425	63.48
704.61	63.81
704.795	63.6
704.98	63.5
705.165	63.71
705.35	63.84
705.535	63.93
705.72	64.38
705.905	64.52
706.09	64.75
706.275	64.75
706.459	64.49
706.644	64.49
706.829	64.72
707.014	64.86
707.199	65.4
707.384	66.13
707.568	66.33
707.753	66.89
707.938	67.18
708.123	67.13
708.307	67.24
708.492	67.58
708.677	67.44
708.861	67.38
709.046	67.32
709.231	68.18
709.415	68.6
709.6	68.67
709.784	68.84
709.969	69.23
710.153	68.8
710.338	68.67
710.522	68.96
710.707	69.71
710.891	69.64
711.076	69.9
711.26	69.98
711.445	70.3
711.629	69.82
711.813	69.99
711.998	70.02
712.182	69.93
712.366	69.91
712.551	70.58
712.735	70.89
712.919	70.9
713.103	71.44
713.288	71.4
713.472	71.19
713.656	71.29
713.84	71.08
714.024	71.04
714.208	71.06
714.393	71.48
714.577	71.49
714.761	71.88
714.945	71.96
715.129	72.1
715.313	72.12
715.497	72.15
715.681	72.8
715.865	73.12
716.049	73.3
716.233	73.32
716.417	73.68
716.601	73.42
716.785	73.32
716.968	73.43
717.152	73.39
717.336	73.46
717.52	73.2
717.704	73.46
717.888	73.59
718.071	73.88
718.255	74.18
718.439	74.31
718.622	74.15
718.806	74.47
718.99	74.27
719.174	73.75
719.357	74.12
719.541	74.33
719.724	74.07
719.908	74.24
720.092	74.83
720.275	75.11
720.459	75.03
720.642	75.15
720.826	75.03
721.009	74.66
721.193	74.25
721.376	74.44
721.559	74.94
721.743	75.23
721.926	75.66
722.11	75.62
722.293	75.01
722.476	74.18
722.66	74.05
722.843	73.94
723.026	73.75
723.21	74.37
723.393	75.65
723.576	75.87
723.759	75.48
723.942	75.77
724.126	75.45
724.309	75.02
724.492	74.96
724.675	75.16
724.858	75.86
725.041	76.39
725.224	76.3
725.407	76.15
725.59	76.4
725.774	75.75
725.957	74.95
726.14	74.53
726.322	74.8
726.505	74.43
726.688	74.99
726.871	75.44
727.054	75.76
727.237	75.5
727.42	76.04
727.603	75.83
727.786	75.87
727.968	76.19
728.151	76.96
728.334	76.93
728.517	77.47
728.699	78.18
728.882	77.71
729.065	77.54
729.248	77.92
729.43	77.66
729.613	78.42
729.796	79.69
729.978	79.38
730.161	79.58
730.343	79.34
730.526	79.58
730.708	78.41
730.891	78.78
731.073	78.63
731.256	78.95
731.438	78.25
731.621	79.66
731.803	79.54
731.986	78.88
732.168	78.25
732.35	78.23
732.533	77.48
732.715	77.72
732.898	78.52
733.08	78.65
733.262	78.63
733.444	78.48
733.627	78.85
733.809	79.36
733.991	80.61
734.173	80.33
734.355	80.72
734.538	80.34
734.72	79.02
734.902	78.59
735.084	78.92
735.266	79.23
735.448	79.43
735.63	80.21
735.812	80.9
735.994	81.68
736.176	81.12
736.358	81.08
736.54	81.96
736.722	80.83
736.904	80.25
737.086	80.2
737.268	81.75
737.45	81.33
737.632	81.65
737.814	81.26
737.995	81.53
738.177	80.81
738.359	80.01
738.541	80.31
738.723	81.08
738.904	81.12
739.086	80.76
739.268	80.67
739.449	80.7
739.631	79.97
739.813	80.41
739.994	80.58
740.176	81.74
740.358	81.8
740.539	83.18
740.721	83.19
740.902	83.86
741.084	84.03
741.265	83.6
741.447	83.23
741.628	83.64
741.81	82.08
741.991	82.17
742.172	83.55
742.354	83.83
742.535	83.07
742.717	84.42
742.898	83.98
743.079	83.89
743.261	83.54
743.442	83.37
743.623	83.19
743.804	83.83
743.986	84.43
744.167	83.25
744.348	82.99
744.529	82.95
744.71	80.89
744.891	79.25
745.073	79.85
745.254	79.62
745.435	78.95
745.616	79.46
745.797	79.59
745.978	79.21
746.159	79.62
746.34	79.29
746.521	81.87
746.702	81.56
746.883	81.97
747.064	82.07
747.245	83.29
747.426	81.36
747.606	82.39
747.787	82.75
747.968	82.6
748.149	82.29
748.33	82.63
748.51	81.66
748.691	81.36
748.872	82.57
749.053	81.84
749.233	81.22
749.414	81.38
749.595	80.01
749.775	78.74
749.956	78.65
750.137	79.82
750.317	80.52
750.498	82.63
750.678	84.11
750.859	84.7
751.04	83.96
751.22	82.64
751.4	81.85
751.581	79.75
751.761	80.64
751.942	80.8
752.122	81.45
752.303	80.8
752.483	81.3
752.663	80.16
752.844	79.56
753.024	79.97
753.204	79.67
753.385	78.75
753.565	79.13
753.745	78.7
753.925	78.02
754.106	79.05
754.286	80.1
754.466	79.84
754.646	80.45
754.826	80.77
755.006	78.92
755.187	79.18
755.367	79.57
755.547	79.75
755.727	80.64
755.907	81.97
756.087	83.44
756.267	82.92
756.447	82.56
756.627	80.07
756.807	80.33
756.987	78.67
757.167	79.43
757.346	79.83
757.526	79.02
757.706	79.34
757.886	80.3
758.066	79.58
758.246	80.4
758.425	80.94
758.605	80.02
758.785	79.06
758.965	79.43
759.144	77.14
759.324	78.15
759.504	79
759.683	79.31
759.863	77.35
760.043	78.95
760.222	79.9
760.402	80.01
760.581	79.02
760.761	81.42
760.94	79.91
761.12	81.02
761.299	81.22
761.479	80.16
761.658	77.2
761.838	76.86
762.017	76.01
762.197	76.59
762.376	78.3
762.555	80.99
762.735	83.07
762.914	81.03
763.093	80.32
763.273	80.06
763.452	79.92
763.631	78.16
763.81	78.38
763.99	78.51
764.169	78.74
764.348	76.42
764.527	76.09
764.706	78.1
764.885	78.42
765.064	77.39
765.243	78.16
765.423	80.2
765.602	80.24
765.781	78.78
765.96	77.89
766.139	78.38
766.318	77.91
766.497	76.62
766.676	75.85
766.854	77.88
767.033	78.55
767.212	77.55
767.391	76.93
767.57	79.17
767.749	78.02
767.928	77.87
768.106	76.38
768.285	75.96
768.464	74.01
768.643	74.37
768.821	73.57
769	76.89
769.179	76.62
769.357	76.25
769.536	75.39
769.715	75.53
769.893	75.86
770.072	75.83
770.25	76.7
770.429	78.09
770.607	76.91
770.786	75.43
770.964	76.39
771.143	75.84
771.321	76.49
771.5	77.87
771.678	77.25
771.857	75.48
772.035	75.28
772.213	74.15
772.392	71.61
772.57	72.76
772.748	74.14
772.927	73.05
773.105	72.79
773.283	76.21
773.461	75.89
773.64	77.04
773.818	78.5
773.996	79.62
774.174	76.85
774.352	73.88
774.531	70.38
774.709	70.61
774.887	68.58
775.065	68.52
775.243	70.31
775.421	72.89
775.599	73.58
775.777	72.83
775.955	71.9
776.133	70.96
776.311	69.63
776.489	68.85
776.667	69.92
776.844	72.36
777.022	72.48
777.2	72.74
777.378	71.92
777.556	71.93
777.734	73.18
777.911	74.43
778.089	73.97
778.267	73.73
778.445	72.48
778.622	68.95
778.8	68.51
778.978	70.82
779.155	70.7
779.333	72.94
779.511	75.74
779.688	78.31
779.866	72.59
780.043	70.25
780.221	69.01
780.398	66.82
780.576	65.99
780.753	70.25
780.931	70.94
781.108	70.68
781.286	71.64
781.463	68.2
781.64	65.16
781.818	65.48
781.995	65.14
782.172	63
782.35	63.15
782.527	68.05
782.704	68.99
782.882	70.33
783.059	72.49
783.236	73.42
783.413	72.93
783.59	73.46
783.768	68.66
783.945	70.57
784.122	74.14
784.299	73.64
784.476	72.72
784.653	75.64
784.83	70.1
785.007	64.37
785.184	66.21
785.361	63.52
785.538	68.47
785.715	76.11
785.892	77.4
786.069	75.84
786.246	79.26
786.423	76.65
786.6	70.1
786.776	72.35
786.953	71.39
787.13	74.35
787.307	74.46
787.484	76.42
787.66	74.32
787.837	72.78
788.014	69.28
788.191	67.53
788.367	64.53
788.544	68.11
788.721	67.03
788.897	67.9
789.074	68.59
789.25	69.37
789.427	68.38
789.603	70.07
789.78	71.96
789.956	69.27
790.133	68.01
790.309	65.31
790.486	69.79
790.662	67.31
790.839	67.47
791.015	69.32
791.192	67.56
791.368	66.24
791.544	65.68
791.721	67.57
791.897	68.52
792.073	66.38
792.249	62.74
792.426	64.94
792.602	66.86
792.778	66.56
792.954	72.25
793.13	70.04
793.307	61.68
793.483	56.74
793.659	53.5
793.835	57.49
794.011	56.24
794.187	57.22
794.363	53.08
794.539	58.9
794.715	49.6
794.891	49.58
795.067	53.14
795.243	59.8
795.419	55.75
795.595	58.48
795.771	62.38
795.947	64.1
796.122	60.03
796.298	64.36
796.474	64.56
796.65	61.98
796.826	58.84
797.001	60.98
797.177	59.71
797.353	62.38
797.529	65.02
797.704	62.67
797.88	58.84
798.056	52.89
798.231	48.95
798.407	53.41
798.582	56.26
798.758	69.97
798.934	76.25
799.109	80.15
799.285	74.82
799.46	78.96
799.636	74.17
799.811	73.67
799.986	75.56
800.162	78.1
800.337	79.3
800.513	74.59
800.688	72.02
800.863	75.4
801.039	66.77
801.214	61.17
801.389	63.92
801.565	58.79
801.74	42.56
801.915	53.51
802.09	51.88
802.265	52.43
802.441	55.78
802.616	63.16
802.791	60.65
802.966	63.23
803.141	66.71
803.316	63.27
803.491	64.58
803.666	66.25
803.841	61.57
804.016	53.45
804.191	54.93
804.366	52.2
804.541	47.75
804.716	51.17
804.891	49.67
805.066	56.15
805.241	57.68
805.416	61.57
805.591	62.81
805.765	64.85
805.94	63.76
806.115	60.06
806.29	50.39
806.464	49.16
806.639	48.59
806.814	43.98
806.989	37.64
807.163	57.22
807.338	59
807.512	59.87
807.687	54.42
807.862	66.38
808.036	54.83
808.211	58.6
808.385	58.86
808.56	72.53
808.734	76.75
808.909	79.73
809.083	74.36
809.258	82.27
809.432	78.25
809.606	67.93
809.781	61.51
809.955	64.58
810.13	56.85
810.304	49.63
810.478	41.76
810.652	53.68
810.827	54.5
811.001	55.18
811.175	51.68
811.349	53.38
811.524	46.16
811.698	30.91
811.872	30.54
812.046	42.54
812.22	52.98
812.394	53.84
812.568	66.48
812.742	73.84
812.916	67.58
813.09	58.59
813.264	51.48
813.438	59.5
813.612	49.38
813.786	46.14
813.96	53.95
814.134	57.38
814.308	60.67
814.482	72.49
814.656	72.96
814.83	74.43
815.003	80.43
815.177	62.63
815.351	52.46
815.525	45.86
815.698	36.65
815.872	27.73
816.046	27.26
816.219	33.21
816.393	50.79
816.567	58.47
816.74	57.64
816.914	67.94
817.088	75.79
817.261	67.76
817.435	61.79
817.608	66.1
817.782	52.96
817.955	43.41
818.129	39.47
818.302	38.24
818.475	43.48
818.649	48.48
818.822	42.23
818.996	66.39
819.169	77.76
819.342	63.02
819.516	70.47
819.689	75.24
819.862	49.52
820.035	36.71
820.209	37.48
820.382	34.1
820.555	33.49
820.728	22.17
820.901	20.94
821.075	21.19
821.248	21.78
821.421	2.95
821.594	16.87
821.767	49.07
821.94	69.21
822.113	55.49
822.286	62.34
822.459	65.86
822.632	53.26
822.805	24.05
822.978	24.3
823.151	17.69
823.324	11.03
823.496	-13.24
823.669	0.47
823.842	6.22
824.015	0.8
824.188	-10.05
824.361	19.1
824.533	21.62
824.706	25.81
824.879	26.1
825.051	49.64
825.224	38.1
825.397	25.04
825.569	8.89
825.742	35.3
825.915	48.48
826.087	65.43
826.26	54.12
826.432	55.16
826.605	51.38
826.777	34.86
826.95	33.94
827.122	43.1
827.295	61.75
827.467	59.38
827.64	40.41
827.812	31.9
827.984	20.63
828.157	-4.19
828.329	-35.02
828.501	-10.7
828.674	18.28
828.846	9.38
829.018	31.88
829.19	18.36
829.363	45.94
829.535	44.4
829.707	53.01
829.879	29.96
830.051	30.27
830.223	7.83
830.395	-39.09
830.568	-48.76
830.74	-51.94
830.912	3.73
831.084	-14.05
831.256	19
831.428	27.78
831.6	29.77
831.772	-25.36
831.943	-39.73
832.115	-28.11
832.287	-8.56
832.459	-6.78
832.631	12.16
832.803	51.95
832.975	63.68
833.146	53.27
833.318	71.71
833.49	85.91
833.662	52.33
833.833	23.62
834.005	9.31
834.177	15.38
834.348	11.47
834.52	2.71
834.692	-12.72
834.863	-26.84
835.035	-25.82
835.206	-102.37
835.378	-55
835.549	-29.55
835.721	13.63
835.892	14.01
836.064	30.55
836.235	48.69
836.407	74.08
836.578	18.63
836.749	-1.79
836.921	-7.99
837.092	-54.61
837.264	-74.68
837.435	-58.25
837.606	1.45
837.777	36.4
837.949	34.41
838.12	49.24
838.291	60.45
838.462	49.73
838.633	24.52
838.805	43.85
838.976	53.86
839.147	3.77
839.318	-15.97
839.489	-60.63
839.66	-66.1
839.831	-24.13
840.002	4.98
840.173	-12.9
840.344	52.64
840.515	61.41
840.686	-32.29
840.857	-38.13
841.028	-9.72
841.199	-22.67
841.369	-32.89
841.54	-23.65
841.711	-3.15
841.882	17.77
842.053	6.33
842.223	-11.53
842.394	6.52
842.565	9.64
842.736	16
842.906	13.4
843.077	31.91
843.248	51.52
843.418	55.1
843.589	12.68
843.759	89.32
843.93	88.2
844.101	35.59
844.271	33.04
844.442	58.31
844.612	54.98
844.783	20.83
844.953	-2.29
845.123	0.06
845.294	3.34
845.464	-182.54
845.635	-8.81
845.805	41.61
845.975	21.82
846.146	-42.51
846.316	-26.81
846.486	-1.85
846.656	17
846.827	11.79
846.997	8.56
847.167	31.55
847.337	7.77
847.507	-28.25
847.677	-18.63
847.848	45.2
848.018	37.51
848.188	40.52
848.358	20.41
848.528	7.75
848.698	-45.32
848.868	-155.52
849.038	-268.38
849.208	-53.24
849.378	0.83
849.548	14.79
849.718	38.75
849.887	56.16
850.057	33.7
850.227	15.22
850.397	-17.26
850.567	-118.37
850.737	-254.13
850.906	-1023.13
851.076	-852.73
851.246	-398.69
851.415	-29.55
851.585	-17.67
851.755	-29.76
851.924	15.78
852.094	25.54
852.264	-34.4
852.433	-605.29
852.603	-152.85
852.772	-145.22
852.942	-75.26
853.111	-80.11
853.281	-41.04
853.45	13.17
853.62	-29.36
853.789	-50.36
853.959	12.12
854.128	-14.64
854.297	-75.42
854.467	-108.64
854.636	-106.7
854.805	-39.86
854.975	-103.16
855.144	-153.56
855.313	52.8
855.482	-181.39
855.652	-34.68
855.821	94.33
855.99	96.46
856.159	70.17
856.328	73.71
856.497	36.18
856.667	34.47
856.836	51.65
857.005	3.53
857.174	6.25
857.343	19.84
857.512	23.2
857.681	-43.11
857.85	-75.71
858.019	-32.63
858.188	-40.05
858.356	-47.09
858.525	-79.54
858.694	-51.1
858.863	-151.46
859.032	-103.72
859.201	-155.15
859.369	-164.41
859.538	-86.7
859.707	-65.92
859.876	-61.56
860.044	-46.1
860.213	35.96
860.382	28.91
860.55	32.77
860.719	43.65
860.888	47.49
861.056	3.84
861.225	-25.25
861.393	-7.45
861.562	-10.96
861.73	-99.51
861.899	-313.87
862.067	-2812.07
862.236	-122.16
862.404	-307.64
862.572	-164.9
862.741	-38.12
862.909	-28.41
863.078	-150.94
863.246	-84.69
863.414	-74.81
863.582	-31.6
863.751	-44.93
863.919	-12.89
864.087	54.47
864.255	89.66
864.424	-124.1
864.592	64.01
864.76	39.41
864.928	70
865.096	-98.25
865.264	-45.15
865.432	-1628.41
865.6	-53.75
865.768	-140.7
865.936	-158.91
866.104	-174.28
866.272	-266.09
866.44	-506.5
866.608	762.77
866.776	343.19
866.944	3431.4
867.112	-493.01
867.28	-217.48
867.448	-76.79
867.615	-8.12
867.783	18.58
867.951	-18.84
868.119	7.29
868.286	5.64
868.454	-148.39
868.622	-113.01
868.789	12.59
868.957	-532.14
869.125	-1553.95
869.292	-70.64
869.46	-180.78
869.627	-16.84
869.795	-27.74
869.963	-3
870.13	29.33
870.298	59.08
870.465	-36.08
870.632	-41.57
870.8	1.06
870.967	-41.65
871.135	-115.82
871.302	-72.72
871.469	-100.11
871.637	-222.95
871.804	-134.43
871.971	-176.58
872.139	-523.02
872.306	-21.13
872.473	-39.2
872.64	-159.44
872.807	27.44
872.975	110.75
873.142	-48.91
873.309	801.35
873.476	92.44
873.643	135.87
873.81	31.47
873.977	40.04
874.144	45.93
874.311	-155.18
874.478	-196.19
874.645	-218.94
874.812	-156.86
874.979	-112.59
875.146	-69.59
875.313	-89.44
875.48	-0.27
875.647	-16.36
875.813	-58.6
875.98	-43.04
876.147	-58.34
876.314	-146.57
876.481	1110.33
876.647	-1162.36
876.814	503.37
876.981	-25.19
877.147	18.67
877.314	38.93
877.481	75.48
877.647	86.86
877.814	62.37
877.98	4.8
878.147	51.19
878.314	76.01
878.48	16.28
878.647	22.96
878.813	77.81
878.979	63.27
879.146	18.33
879.312	29.99
879.479	-20.35
879.645	-120.53
879.811	-240.22
879.978	-535.5
880.144	-153.23
880.31	-20.05
880.477	-166.72
880.643	-279.75
880.809	-115.33
880.975	-53.19
881.142	-877.73
881.308	-103.03
881.474	-37.18
881.64	-5.73
881.806	-87.59
881.972	-3.19
882.138	30.75
882.304	39.05
882.47	-162.2
882.636	-732.38
882.802	-219.59
882.968	-49.77
883.134	-15.72
883.3	-8.37
883.466	61.66
883.632	105.73
883.798	62.89
883.964	66.79
884.129	98.68
884.295	45.68
884.461	-67.69
884.627	-72.92
884.793	-127.55
884.958	-72.42
885.124	-153.99
885.29	-229.2
885.455	-298.3
885.621	-26.52
885.787	-77.76
885.952	-31.87
886.118	-19.45
886.283	-37.94
886.449	-120.93
886.614	-132.77
886.78	-337.88
886.945	1376.23
887.111	-797.4
887.276	-819.6
887.442	-1570.45
887.607	-601.18
887.773	-398.25
887.938	-287.34
888.103	-310.99
888.269	-181.48
888.434	-241.35
888.599	-119.31
888.764	-22.75
888.93	32.29
889.095	9.01
889.26	-21.07
889.425	20.25
889.59	15.42
889.756	-12.77
889.921	-4.32
890.086	48.68
890.251	39.66
890.416	-40.39
890.581	-623.39
890.746	37.32
890.911	265.29
891.076	143.7
891.241	-384.7
891.406	15.12
891.571	2.96
891.736	-193.81
891.901	-480.09
892.065	345.6
892.23	122.32
892.395	245.89
892.56	344.94
892.725	-355.86
892.889	-1030.49
893.054	-139.91
893.219	32.95
893.384	109.16
893.548	95.36
893.713	93.59
893.878	103.5
