Data from Ofra_PS_T2_1A_2CX12_Reflection_3.txt Node
Date: Wed Jul 21 17:52:56 EDT 2021
User: Adam
Spectrometer: FLMT01687
Trigger mode: 0
Integration Time (sec): 1.100000E0
Scans to average: 2
Electric dark correction enabled: true
Nonlinearity correction enabled: false
Boxcar width: 2
XAxis mode: Wavelengths
Number of Pixels in Spectrum: 3648
>>>>>Begin Spectral Data<<<<<
179.494	726.2
179.716	804.94
179.937	751.16
180.158	725.19
180.38	1089.22
180.601	442.4
180.823	101.21
181.044	-28.55
181.265	127.76
181.486	47.39
181.708	70.61
181.929	660.71
182.15	-198.24
182.372	142.99
182.593	3.22
182.814	30.51
183.035	52.22
183.257	45.75
183.478	-95.69
183.699	-34.21
183.92	-65.71
184.141	-41.49
184.363	-137.16
184.584	-15.7
184.805	-6.75
185.026	31.56
185.247	37.4
185.468	25.72
185.689	5.37
185.91	21.38
186.132	3.88
186.353	-10.54
186.574	68.47
186.795	56.66
187.016	-4.2
187.237	-11.75
187.458	-22.76
187.679	-41.51
187.9	-14.69
188.121	0.3
188.342	50.3
188.563	86.81
188.784	123.9
189.005	102.76
189.226	124.36
189.447	62.82
189.667	-270.75
189.888	-650.12
190.109	-2146.43
190.33	-1139.84
190.551	-1717.48
190.772	-350.06
190.993	-249.82
191.214	-183.35
191.434	-109.72
191.655	-20.58
191.876	-92.67
192.097	-137.37
192.318	-170.85
192.538	-329.84
192.759	-220.02
192.98	-79.63
193.201	-19.83
193.421	-8.04
193.642	31.94
193.863	37.08
194.083	-0.57
194.304	-31.65
194.525	-38.83
194.745	-77.33
194.966	-94.66
195.187	-74.02
195.407	-76.87
195.628	-111.63
195.848	-107.19
196.069	-116.73
196.29	-60.69
196.51	-97.41
196.731	-110.9
196.951	-145.04
197.172	-158.77
197.392	-216.29
197.613	-173.02
197.833	-171.97
198.054	-133.64
198.274	-63.19
198.495	-72.72
198.715	-54.48
198.936	-70.57
199.156	-71.24
199.377	-191.5
199.597	-174.41
199.817	-168.79
200.038	-88.38
200.258	-174.4
200.479	-73.16
200.699	-48.72
200.919	0.42
201.14	-52.63
201.36	-43.47
201.58	-10.75
201.801	26.18
202.021	-7.2
202.241	2.82
202.461	-1.53
202.682	-83.4
202.902	-174.3
203.122	-116.4
203.342	-106.99
203.563	-35.79
203.783	-24.02
204.003	-90.7
204.223	-97.84
204.443	-4.38
204.663	-75.3
204.884	-19.39
205.104	23.71
205.324	59.39
205.544	27.59
205.764	63.26
205.984	58.92
206.204	61.39
206.424	45.33
206.644	8.59
206.864	2.93
207.084	-40.47
207.304	-19.99
207.525	-181.8
207.745	-31.47
207.964	7.45
208.184	-62.97
208.404	-111.75
208.624	-98.1
208.844	-106.77
209.064	-416.07
209.284	-372.22
209.504	-163.18
209.724	-38
209.944	-37.9
210.164	-13.21
210.384	-15.35
210.604	-17.67
210.823	-52.24
211.043	-67.63
211.263	-47.64
211.483	-26.01
211.703	-109.56
211.922	-97.32
212.142	-23.02
212.362	-24.1
212.582	-39.51
212.801	-18.5
213.021	-36.12
213.241	-47.49
213.461	-81.14
213.68	-120.32
213.9	-95.69
214.12	-75.36
214.339	-156.2
214.559	-119.76
214.779	-42.23
214.998	-27.58
215.218	-74.23
215.438	-40.87
215.657	-60.14
215.877	-72.11
216.096	-40.32
216.316	-24.84
216.535	-31.62
216.755	-22.04
216.974	-140.17
217.194	-192.58
217.413	-179.74
217.633	-151.8
217.852	-214.16
218.072	-75.94
218.291	-34.1
218.511	15.76
218.73	-29.94
218.95	-28.62
219.169	-25.04
219.389	-62.96
219.608	-65.29
219.827	-53.28
220.047	-62.25
220.266	-58.27
220.485	-45.97
220.705	-30.86
220.924	-39.27
221.143	9.9
221.363	-11.01
221.582	-5.94
221.801	-7.09
222.021	12.97
222.24	-70.78
222.459	-0.99
222.678	-41.17
222.897	-117.21
223.117	-168.61
223.336	-134.3
223.555	-96.5
223.774	-38.09
223.993	-0.76
224.213	55.97
224.432	13.07
224.651	26.25
224.87	-4.89
225.089	2.94
225.308	-1.04
225.527	38.52
225.746	32.14
225.965	21.77
226.184	13.76
226.404	14.07
226.623	-33.27
226.842	-21.45
227.061	13.58
227.28	19.77
227.499	10.42
227.718	38.82
227.936	31.24
228.155	28.41
228.374	10.72
228.593	15.25
228.812	4.81
229.031	0.23
229.25	-45.84
229.469	-36.94
229.688	-20.72
229.907	7.1
230.125	18.24
230.344	28.93
230.563	20.96
230.782	18.34
231.001	-59.56
231.22	-33.57
231.438	5.36
231.657	8.67
231.876	-7.98
232.095	33.48
232.313	14.77
232.532	-27.73
232.751	-38.09
232.969	-45.26
233.188	-109.64
233.407	-36.25
233.625	-16.74
233.844	-20.31
234.063	-10.46
234.281	8.6
234.5	17.57
234.719	12.69
234.937	28.53
235.156	29.6
235.374	27.5
235.593	7.81
235.811	2.43
236.03	-24.81
236.249	-39.05
236.467	-33.34
236.686	-4.69
236.904	10.24
237.123	-16.85
237.341	-17.42
237.559	-10.67
237.778	-31.31
237.996	-53.87
238.215	4.22
238.433	2.45
238.652	-7.71
238.87	-28.27
239.088	-19.02
239.307	-15.08
239.525	-12.92
239.743	-33.85
239.962	-15.24
240.18	-48.19
240.398	-110.81
240.617	-96.97
240.835	-98.61
241.053	-71.47
241.271	-10.23
241.49	16.12
241.708	-33.86
241.926	-31.93
242.144	-29.52
242.363	-88.89
242.581	-121.84
242.799	-75.99
243.017	-41.9
243.235	-68.47
243.453	-38.6
243.672	-36.21
243.89	-22.71
244.108	-35.06
244.326	-6.76
244.544	-15.85
244.762	-19.09
244.98	-25.86
245.198	-28.01
245.416	-69.25
245.634	-49.39
245.852	-70.3
246.07	-88.46
246.288	-84.77
246.506	-103.21
246.724	-121.76
246.942	-83.69
247.16	-7.93
247.378	10.03
247.596	40.05
247.814	28.23
248.032	-2.44
248.25	-15.98
248.468	-9.61
248.685	-11.89
248.903	29.18
249.121	36.71
249.339	3.48
249.557	-16.93
249.775	-4.8
249.992	-82.55
250.21	-72.44
250.428	-48.82
250.646	-56.9
250.863	-87.15
251.081	-42.93
251.299	-39.7
251.517	-50.59
251.734	-43.26
251.952	-38.18
252.17	-41.34
252.387	-28.82
252.605	-38.72
252.823	-29.55
253.04	-13.47
253.258	15.09
253.475	0.24
253.693	50.05
253.911	39.83
254.128	45.26
254.346	44.52
254.563	25.35
254.781	-11.03
254.998	-33.26
255.216	-31.42
255.433	-46.46
255.651	4.22
255.868	16.37
256.086	47.98
256.303	13.59
256.521	20.21
256.738	-17.17
256.956	-48.13
257.173	-98.94
257.39	-108.03
257.608	-156.7
257.825	-89.82
258.043	-44.38
258.26	-20
258.477	28.98
258.695	39.42
258.912	9.24
259.129	19.92
259.346	-7.33
259.564	-55.63
259.781	-75.55
259.998	-27.6
260.216	-39.92
260.433	12.4
260.65	17.24
260.867	23.36
261.084	-16.77
261.302	-28.86
261.519	-90.27
261.736	-106.9
261.953	-143.48
262.17	-99.62
262.387	-154.78
262.604	-140.67
262.822	-160.63
263.039	-111.93
263.256	-173.11
263.473	-109.02
263.69	-71.78
263.907	-4
264.124	-0.7
264.341	7.31
264.558	2.45
264.775	10
264.992	-14.02
265.209	-3.87
265.426	30.89
265.643	39.01
265.86	44.65
266.077	53.84
266.294	40.48
266.51	-11.71
266.727	-46.39
266.944	-31.91
267.161	-30.17
267.378	-20.6
267.595	6.03
267.812	-7.78
268.028	-37.98
268.245	-39.29
268.462	-58.54
268.679	-79.74
268.896	-13.64
269.112	1.62
269.329	-0.14
269.546	16.43
269.763	14.82
269.979	-7.15
270.196	-15.33
270.413	-48.05
270.629	-80.63
270.846	-82.21
271.063	-84.06
271.279	-103.21
271.496	-94.28
271.712	-51.45
271.929	-43.15
272.146	-54.28
272.362	-45.52
272.579	12
272.795	36.39
273.012	47.45
273.228	58.21
273.445	43.58
273.661	-0.56
273.878	-72.97
274.094	-76.62
274.311	-110.9
274.527	-30.45
274.744	-20.15
274.96	-10.53
275.177	-5.27
275.393	4.76
275.609	-12.66
275.826	5.89
276.042	0.19
276.259	-8.42
276.475	18.39
276.691	24.39
276.908	0.01
277.124	12.2
277.34	5.71
277.557	-11.8
277.773	-33.65
277.989	-29.34
278.205	-32.08
278.422	-13.13
278.638	-6.1
278.854	13.89
279.07	14.65
279.286	-3.27
279.503	-49.04
279.719	-57.75
279.935	-79.2
280.151	-95.41
280.367	-64.88
280.583	-81.47
280.799	-81.85
281.016	-110.98
281.232	-59.67
281.448	-61.6
281.664	-18.9
281.88	-45.27
282.096	-19.42
282.312	-7.89
282.528	-1.95
282.744	0.02
282.96	22.49
283.176	10.41
283.392	-4.24
283.608	-3.04
283.824	-8.01
284.04	-8.56
284.256	-6.58
284.471	-17.24
284.687	-28.14
284.903	-3.96
285.119	29.79
285.335	1.07
285.551	22.05
285.767	2.7
285.982	-22.67
286.198	-84.96
286.414	-6.25
286.63	2.68
286.846	30.94
287.061	10.3
287.277	39.63
287.493	1.46
287.709	18.85
287.924	-1.49
288.14	34.73
288.356	31.43
288.571	54.97
288.787	16.44
289.003	24.49
289.218	-1.91
289.434	-45.59
289.65	-45.58
289.865	-51.34
290.081	-19.68
290.296	-5.14
290.512	2.25
290.727	-22.42
290.943	-10.7
291.159	-36.96
291.374	-40.1
291.59	-44.88
291.805	-47.57
292.021	-47.01
292.236	-61.88
292.451	-38.42
292.667	-23.65
292.882	0.49
293.098	-5.43
293.313	-11.82
293.529	-56.67
293.744	-77.27
293.959	-88.91
294.175	-72.83
294.39	-30.31
294.605	-5.92
294.821	18.04
295.036	19.75
295.251	15.27
295.467	-20.71
295.682	-33.21
295.897	-96.01
296.112	-109.53
296.328	-89.44
296.543	-85.29
296.758	-86.23
296.973	-28.13
297.188	23.67
297.404	-2.99
297.619	-11.36
297.834	-13.89
298.049	-38.63
298.264	-78.47
298.479	-18.79
298.694	-5.11
298.909	17.86
299.125	34.81
299.34	63.07
299.555	44.7
299.77	51.31
299.985	-9.79
300.2	-59.31
300.415	-104.17
300.63	-62.78
300.845	-61.33
301.06	-52.55
301.275	-19.75
301.49	13.47
301.704	-13.45
301.919	-39.29
302.134	-42.51
302.349	-49.84
302.564	-128.69
302.779	-184.81
302.994	-131.62
303.209	-86.05
303.423	-32.08
303.638	28.09
303.853	15.63
304.068	-5.54
304.283	-11.4
304.497	-33.05
304.712	-54.93
304.927	-32.9
305.142	-42.51
305.356	-40.88
305.571	-31.88
305.786	-39.54
306	-80.46
306.215	-63.22
306.43	-73.11
306.644	-78.75
306.859	-34.98
307.074	9.16
307.288	-19.38
307.503	-47.98
307.717	-61.5
307.932	-67.4
308.147	-85.85
308.361	-67.9
308.576	-56.62
308.79	-93.38
309.005	-67.13
309.219	-34.26
309.434	-47.01
309.648	-33.83
309.863	-11.16
310.077	-24.47
310.292	-35.68
310.506	-32.13
310.72	-30.79
310.935	-27.45
311.149	-25.47
311.364	-2.92
311.578	19.42
311.792	22.12
312.007	30.64
312.221	17.38
312.435	18.86
312.649	1.51
312.864	42.53
313.078	48.59
313.292	111.11
313.507	76.31
313.721	79.82
313.935	9.16
314.149	-6.12
314.363	-13.79
314.578	-4.85
314.792	9.6
315.006	7.35
315.22	20.29
315.434	29.57
315.648	41.52
315.862	39.45
316.077	45.83
316.291	34.33
316.505	34.92
316.719	-1.27
316.933	-35.47
317.147	-57.91
317.361	-91.94
317.575	-118.35
317.789	-159.79
318.003	-221.62
318.217	-154.12
318.431	-42.33
318.645	3.12
318.859	9.91
319.073	38.96
319.287	12.22
319.5	-31.94
319.714	-73.98
319.928	-101.2
320.142	-128.03
320.356	-57.63
320.57	-28.83
320.784	-47.23
320.997	-57.52
321.211	-58.7
321.425	-115.22
321.639	-137.89
321.853	-53.05
322.066	-40.22
322.28	-36.07
322.494	-34.36
322.707	-11.65
322.921	-34.04
323.135	-19.34
323.349	-26.48
323.562	-47.03
323.776	-58.96
323.989	-52.49
324.203	-84.99
324.417	-73.05
324.63	-71.01
324.844	-92.24
325.057	-104.87
325.271	-72.9
325.485	-39.41
325.698	-22.62
325.912	2.72
326.125	-26.27
326.339	-13.46
326.552	-32.54
326.766	-28.32
326.979	-21.27
327.193	21.76
327.406	-9.51
327.619	-14.84
327.833	5.82
328.046	-10.49
328.26	-47.73
328.473	-17.86
328.686	-62.1
328.9	-63.7
329.113	-48.22
329.326	-68.27
329.54	-65.25
329.753	-48.68
329.966	-96.59
330.179	-64.98
330.393	-31.58
330.606	-19.37
330.819	-3.59
331.032	20.36
331.246	15.06
331.459	44.18
331.672	36.02
331.885	24
332.098	2.6
332.311	4.01
332.525	-54.48
332.738	-37.39
332.951	12.01
333.164	28.98
333.377	26.54
333.59	40.39
333.803	32.91
334.016	15.52
334.229	4.9
334.442	18.28
334.655	28.46
334.868	24.88
335.081	13.14
335.294	-8.34
335.507	-36.14
335.72	-43.12
335.933	-43.87
336.146	-45.45
336.359	-33.81
336.572	-55.1
336.785	-83.51
336.997	-75.13
337.21	-51.78
337.423	-56.81
337.636	-64.52
337.849	-46.09
338.062	-63.04
338.274	-59.39
338.487	-52.55
338.7	-34.61
338.913	-68.94
339.125	-93.8
339.338	-155.49
339.551	-152.66
339.763	-94.62
339.976	-52.04
340.189	-9.37
340.402	9.7
340.614	-15.88
340.827	-30.83
341.039	-42.76
341.252	-35.02
341.465	-10.18
341.677	14.51
341.89	-17.4
342.102	5.92
342.315	-17.57
342.527	-59.46
342.74	-53.69
342.952	-18.35
343.165	-20.77
343.377	3.89
343.59	0.01
343.802	11.81
344.015	17.68
344.227	28.19
344.44	17.92
344.652	19.75
344.864	-3.05
345.077	13.82
345.289	5.99
345.502	6.86
345.714	3.28
345.926	13.24
346.139	-5.63
346.351	13.02
346.563	18.97
346.775	20.28
346.988	2.36
347.2	-1.25
347.412	-53
347.624	-74.06
347.837	-86.08
348.049	-53.94
348.261	-16.39
348.473	-22.34
348.685	-19.84
348.897	-41.2
349.11	-60.12
349.322	-109.51
349.534	-93.17
349.746	-86.48
349.958	-63.36
350.17	-52.53
350.382	-24.57
350.594	-28.77
350.806	-18.45
351.018	0.7
351.23	-20.56
351.442	-68
351.654	-32.8
351.866	-43.96
352.078	-38.82
352.29	-2.2
352.502	19.47
352.714	15.38
352.926	-2.3
353.138	-3.1
353.35	-11.55
353.561	-12.02
353.773	-35.24
353.985	-13.1
354.197	-30.34
354.409	-37.91
354.621	-48.57
354.832	-32.39
355.044	-41.49
355.256	-36.97
355.468	-19.38
355.679	-21.87
355.891	-13.16
356.103	-21.1
356.314	-7.4
356.526	-12.85
356.738	-12.99
356.949	-38.71
357.161	-25.58
357.373	-38.65
357.584	-46.02
357.796	-24.45
358.008	-18.59
358.219	-0.12
358.431	3.52
358.642	9.73
358.854	6.92
359.065	-4.74
359.277	-48.22
359.488	-59.82
359.7	-77.9
359.911	-93.45
360.123	-53.2
360.334	-54.92
360.546	-64.4
360.757	-67.51
360.969	-57.08
361.18	-66.06
361.391	-24.47
361.603	-28.19
361.814	-12.1
362.025	-11.48
362.237	-29.99
362.448	-25.64
362.659	-7.89
362.871	-10.97
363.082	-15.67
363.293	-5.36
363.504	-31.16
363.716	-54.64
363.927	-66.87
364.138	-96.41
364.349	-96.18
364.56	-90.19
364.772	-73.36
364.983	-42.41
365.194	-26.02
365.405	-21.1
365.616	16.8
365.827	12.4
366.038	-6.41
366.25	-16.74
366.461	-37.97
366.672	-42.84
366.883	-14.67
367.094	-3.75
367.305	-13.9
367.516	-9.83
367.727	-43.65
367.938	-58
368.149	-61.28
368.36	-39.29
368.571	-28.83
368.781	-29.68
368.992	-45.4
369.203	-60.2
369.414	-81.29
369.625	-87.31
369.836	-89.35
370.047	-110.15
370.258	-97.06
370.468	-88.13
370.679	-105.96
370.89	-87.9
371.101	-58.27
371.312	-66.07
371.522	-58.8
371.733	-36.99
371.944	-30.93
372.155	-24.27
372.365	-20.05
372.576	-29.7
372.787	-28.34
372.997	-44.52
373.208	-45.95
373.419	-13.23
373.629	-36.07
373.84	-43.76
374.05	-58.66
374.261	-44.1
374.472	-77.5
374.682	-13.97
374.893	-17.39
375.103	15.39
375.314	4.78
375.524	5.82
375.735	2.28
375.945	15.09
376.156	-11.54
376.366	-9.62
376.577	-2.85
376.787	-14.75
376.997	-17.36
377.208	-11.08
377.418	-21
377.629	-17.49
377.839	-20.49
378.049	-21.89
378.26	0.1
378.47	12.25
378.68	-2.37
378.89	-10.17
379.101	-0.09
379.311	-38.87
379.521	-75.96
379.732	-66.43
379.942	-56.98
380.152	-87.29
380.362	-52.88
380.572	-44.56
380.783	-38.15
380.993	-23.34
381.203	-12.37
381.413	7.15
381.623	16.3
381.833	20.18
382.043	0.95
382.253	-4.69
382.463	-8.4
382.674	-13.55
382.884	-40.05
383.094	-30.01
383.304	-26.87
383.514	-27.61
383.724	-12.94
383.934	-8.11
384.144	-23.25
384.353	-29.03
384.563	-29.97
384.773	-30.47
384.983	-33.4
385.193	-10.38
385.403	-7.22
385.613	-7.73
385.823	-24.04
386.033	-11.08
386.242	-16.55
386.452	-20.4
386.662	-23.35
386.872	-7.85
387.082	-21.59
387.291	-29.79
387.501	-23.67
387.711	-20.03
387.921	-27.98
388.13	-24.84
388.34	-10.62
388.55	-17.1
388.759	-16.2
388.969	-7.44
389.179	-6.58
389.388	-12.69
389.598	-6.88
389.807	-14.02
390.017	-19.88
390.227	-16.69
390.436	-18.02
390.646	-15.89
390.855	-12.99
391.065	-11.21
391.274	-13.06
391.484	-14.49
391.693	-10.85
391.903	-9.55
392.112	-5.37
392.322	-1.8
392.531	2.65
392.74	0.87
392.95	-3.25
393.159	-6.08
393.369	-6.72
393.578	-6.46
393.787	-8.56
393.997	-5.05
394.206	-5.88
394.415	-6.39
394.625	-6.73
394.834	-7.65
395.043	-6.69
395.252	-4.17
395.462	-0.72
395.671	0.88
395.88	2.23
396.089	2.61
396.298	0.99
396.508	0.06
396.717	-1.23
396.926	-0.65
397.135	-1.42
397.344	-1.66
397.553	-1.07
397.762	-0.11
397.971	-0.87
398.181	-0.18
398.39	-0.15
398.599	-0.75
398.808	-0.33
399.017	1.25
399.226	2.45
399.435	3.63
399.644	3.67
399.853	2.34
400.062	1.87
400.27	1.27
400.479	0.76
400.688	0.19
400.897	0.54
401.106	0.33
401.315	-0.05
401.524	-0.05
401.733	0.6
401.941	1.27
402.15	1.62
402.359	1.46
402.568	1.95
402.777	2.12
402.985	1.79
403.194	1.72
403.403	1.86
403.612	1.21
403.82	0.94
404.029	1.23
404.238	0.74
404.446	1.18
404.655	1.09
404.864	0.94
405.072	0.52
405.281	0.98
405.489	0.45
405.698	0.52
405.906	0.56
406.115	0.71
406.324	0.58
406.532	0.7
406.741	1.16
406.949	1.11
407.158	0.99
407.366	1.04
407.574	1.08
407.783	0.93
407.991	0.77
408.2	1.03
408.408	0.98
408.617	0.89
408.825	0.68
409.033	0.9
409.242	0.93
409.45	1.02
409.658	0.97
409.867	1.24
410.075	1.12
410.283	0.98
410.491	0.88
410.7	0.93
410.908	0.82
411.116	1.12
411.324	1.2
411.533	1.28
411.741	1.38
411.949	1.43
412.157	1.08
412.365	1.03
412.573	1.03
412.781	1.07
412.99	0.88
413.198	1.21
413.406	1.21
413.614	1.17
413.822	0.96
414.03	1.03
414.238	0.78
414.446	0.77
414.654	0.53
414.862	0.73
415.07	0.86
415.278	1.03
415.486	0.89
415.694	1.13
415.902	0.98
416.109	0.77
416.317	0.74
416.525	0.68
416.733	0.57
416.941	0.69
417.149	0.75
417.357	0.81
417.564	1.04
417.772	1.35
417.98	1.3
418.188	1.2
418.395	1.15
418.603	1.23
418.811	0.83
419.019	0.7
419.226	0.99
419.434	1.09
419.642	0.79
419.849	0.92
420.057	1.13
420.265	1.01
420.472	0.74
420.68	0.9
420.887	0.83
421.095	0.76
421.302	0.71
421.51	1
421.717	1.02
421.925	1.12
422.132	0.96
422.34	0.79
422.547	0.71
422.755	0.63
422.962	0.54
423.17	0.53
423.377	0.75
423.585	0.68
423.792	0.71
423.999	0.82
424.207	0.84
424.414	0.8
424.621	0.89
424.829	0.81
425.036	0.81
425.243	1.01
425.451	0.89
425.658	0.62
425.865	0.93
426.072	0.85
426.28	1.1
426.487	1.1
426.694	1.28
426.901	0.91
427.108	0.9
427.315	0.56
427.523	0.86
427.73	0.88
427.937	0.9
428.144	0.73
428.351	0.71
428.558	0.78
428.765	0.72
428.972	0.84
429.179	1.13
429.386	1.36
429.593	1.05
429.8	0.97
430.007	0.92
430.214	0.98
430.421	0.73
430.628	0.65
430.835	0.58
431.042	0.82
431.249	0.78
431.456	0.7
431.662	0.87
431.869	1.11
432.076	1.07
432.283	1.14
432.49	1.27
432.697	1.29
432.903	1.04
433.11	0.99
433.317	0.98
433.524	1.27
433.73	1.15
433.937	1.48
434.144	1.37
434.35	1.31
434.557	0.98
434.764	1.07
434.97	0.85
435.177	1
435.384	0.9
435.59	1.04
435.797	1.23
436.003	1.34
436.21	1.21
436.416	1.32
436.623	1.26
436.829	1.27
437.036	1.43
437.242	1.44
437.449	1.22
437.655	1.21
437.862	1.03
438.068	0.81
438.275	0.92
438.481	1.3
438.687	1.27
438.894	1.33
439.1	1.34
439.307	1.49
439.513	1.26
439.719	1.28
439.926	1.32
440.132	1.33
440.338	1.13
440.544	1.3
440.751	1.3
440.957	1.37
441.163	1.28
441.369	1.37
441.575	1.12
441.782	1.11
441.988	0.94
442.194	0.98
442.4	0.97
442.606	1.26
442.812	1.31
443.018	1.41
443.224	1.49
443.431	1.51
443.637	1.29
443.843	1.21
444.049	1.14
444.255	1.09
444.461	1.18
444.667	1.14
444.873	1.28
445.079	1.31
445.284	1.36
445.49	1.07
445.696	0.95
445.902	0.76
446.108	0.67
446.314	0.61
446.52	0.75
446.726	1.04
446.931	1.1
447.137	1.21
447.343	1.22
447.549	1.06
447.755	0.93
447.96	0.97
448.166	0.83
448.372	0.78
448.578	0.9
448.783	0.9
448.989	1.02
449.195	1.28
449.4	1.34
449.606	1.27
449.812	1.2
450.017	1.22
450.223	1.12
450.428	0.99
450.634	1.19
450.84	1.43
451.045	1.31
451.251	1.19
451.456	1.5
451.662	1.57
451.867	1.53
452.073	1.51
452.278	1.7
452.483	1.76
452.689	1.6
452.894	1.62
453.1	1.67
453.305	1.54
453.51	1.39
453.716	1.3
453.921	1.29
454.127	1.27
454.332	1.24
454.537	1.11
454.742	1.19
454.948	1.09
455.153	1.12
455.358	1.19
455.563	1.4
455.769	1.51
455.974	1.5
456.179	1.39
456.384	1.36
456.589	1.31
456.795	1.09
457	1.14
457.205	1.4
457.41	1.31
457.615	1.21
457.82	1.36
458.025	1.31
458.23	1.13
458.435	1.21
458.64	1.2
458.845	1.32
459.05	1.37
459.255	1.37
459.46	1.35
459.665	1.35
459.87	1.31
460.075	1.28
460.28	1.32
460.485	1.36
460.69	1.44
460.895	1.27
461.099	1.2
461.304	1.35
461.509	1.38
461.714	1.25
461.919	1.46
462.123	1.41
462.328	1.42
462.533	1.42
462.738	1.58
462.942	1.37
463.147	1.5
463.352	1.44
463.556	1.42
463.761	1.36
463.966	1.43
464.17	1.35
464.375	1.23
464.58	1.2
464.784	1.12
464.989	1.11
465.193	1.17
465.398	1.2
465.602	1.32
465.807	1.37
466.011	1.44
466.216	1.44
466.42	1.44
466.625	1.42
466.829	1.5
467.034	1.5
467.238	1.75
467.443	1.71
467.647	1.59
467.851	1.62
468.056	1.7
468.26	1.5
468.464	1.52
468.669	1.66
468.873	1.77
469.077	1.71
469.282	1.77
469.486	1.88
469.69	1.82
469.894	1.59
470.099	1.68
470.303	1.76
470.507	1.64
470.711	1.59
470.915	1.62
471.119	1.48
471.324	1.35
471.528	1.43
471.732	1.48
471.936	1.43
472.14	1.48
472.344	1.51
472.548	1.55
472.752	1.79
472.956	2.04
473.16	2
473.364	1.87
473.568	1.82
473.772	1.71
473.976	1.53
474.18	1.56
474.384	1.68
474.588	1.63
474.792	1.5
474.995	1.6
475.199	1.68
475.403	1.75
475.607	1.75
475.811	1.72
476.015	1.72
476.218	1.68
476.422	1.55
476.626	1.66
476.83	1.71
477.033	1.62
477.237	1.54
477.441	1.68
477.644	1.66
477.848	1.68
478.052	1.69
478.255	1.7
478.459	1.63
478.663	1.75
478.866	1.82
479.07	1.83
479.273	2.05
479.477	2.1
479.681	1.96
479.884	1.91
480.088	1.9
480.291	1.68
480.495	1.65
480.698	1.67
480.901	1.72
481.105	1.82
481.308	1.85
481.512	1.88
481.715	1.92
481.919	1.95
482.122	1.94
482.325	1.99
482.529	1.94
482.732	1.95
482.935	1.84
483.138	1.75
483.342	1.83
483.545	1.95
483.748	1.99
483.952	2.11
484.155	2.24
484.358	2.28
484.561	2.23
484.764	2.18
484.967	2.24
485.171	2.35
485.374	2.21
485.577	2.27
485.78	2.27
485.983	2.22
486.186	2.01
486.389	2.01
486.592	1.99
486.795	2.04
486.998	2.02
487.201	2.13
487.404	2.24
487.607	2.28
487.81	2.27
488.013	2.27
488.216	2.21
488.419	2.19
488.622	2.17
488.825	2.08
489.028	2.05
489.231	1.99
489.433	1.9
489.636	1.82
489.839	1.81
490.042	1.76
490.245	1.81
490.447	1.92
490.65	1.9
490.853	1.95
491.056	2.04
491.258	2.04
491.461	2.03
491.664	2.15
491.866	2.09
492.069	2.13
492.272	2.07
492.474	2.09
492.677	2.09
492.879	2.21
493.082	2.3
493.285	2.44
493.487	2.32
493.69	2.24
493.892	2.18
494.095	2.06
494.297	1.99
494.5	2.11
494.702	2.12
494.905	2.12
495.107	2.09
495.309	2.18
495.512	2.24
495.714	2.3
495.917	2.36
496.119	2.35
496.321	2.32
496.524	2.28
496.726	2.29
496.928	2.28
497.13	2.35
497.333	2.35
497.535	2.37
497.737	2.33
497.939	2.33
498.142	2.32
498.344	2.27
498.546	2.15
498.748	2.2
498.95	2.32
499.152	2.29
499.355	2.38
499.557	2.51
499.759	2.59
499.961	2.47
500.163	2.55
500.365	2.56
500.567	2.62
500.769	2.5
500.971	2.55
501.173	2.45
501.375	2.49
501.577	2.4
501.779	2.41
501.981	2.47
502.183	2.49
502.385	2.4
502.587	2.29
502.788	2.4
502.99	2.35
503.192	2.44
503.394	2.45
503.596	2.55
503.798	2.56
503.999	2.63
504.201	2.59
504.403	2.63
504.605	2.67
504.806	2.61
505.008	2.59
505.21	2.72
505.411	2.69
505.613	2.69
505.815	2.76
506.016	2.76
506.218	2.8
506.42	2.85
506.621	2.87
506.823	2.89
507.024	2.84
507.226	2.76
507.427	2.72
507.629	2.75
507.83	2.72
508.032	2.74
508.233	2.82
508.435	2.92
508.636	2.98
508.838	2.92
509.039	2.95
509.24	2.94
509.442	2.91
509.643	2.83
509.845	2.92
510.046	3.02
510.247	3.01
510.448	3.05
510.65	3.08
510.851	3.18
511.052	3.14
511.254	3.17
511.455	3.21
511.656	3.29
511.857	3.3
512.058	3.31
512.26	3.28
512.461	3.24
512.662	3.26
512.863	3.11
513.064	3.11
513.265	3.15
513.466	3.24
513.667	3.17
513.868	3.22
514.069	3.29
514.27	3.31
514.471	3.24
514.672	3.27
514.873	3.27
515.074	3.25
515.275	3.17
515.476	3.19
515.677	3.21
515.878	3.37
516.079	3.4
516.28	3.44
516.481	3.5
516.682	3.56
516.882	3.42
517.083	3.42
517.284	3.4
517.485	3.35
517.686	3.28
517.886	3.31
518.087	3.35
518.288	3.44
518.488	3.45
518.689	3.44
518.89	3.43
519.091	3.42
519.291	3.41
519.492	3.47
519.692	3.54
519.893	3.64
520.094	3.58
520.294	3.53
520.495	3.49
520.695	3.5
520.896	3.46
521.096	3.56
521.297	3.62
521.497	3.6
521.698	3.6
521.898	3.57
522.099	3.52
522.299	3.55
522.499	3.61
522.7	3.65
522.9	3.68
523.101	3.77
523.301	3.73
523.501	3.7
523.702	3.71
523.902	3.77
524.102	3.8
524.302	3.8
524.503	3.89
524.703	3.9
524.903	3.91
525.103	3.88
525.304	3.99
525.504	4.04
525.704	4.07
525.904	4
526.104	3.97
526.304	3.95
526.504	3.9
526.705	3.89
526.905	3.99
527.105	4.01
527.305	3.96
527.505	3.89
527.705	3.88
527.905	3.86
528.105	3.9
528.305	3.89
528.505	3.93
528.705	4
528.905	3.97
529.105	3.97
529.304	4.02
529.504	4.16
529.704	4.1
529.904	4.09
530.104	4.1
530.304	4.22
530.503	4.15
530.703	4.13
530.903	4.17
531.103	4.21
531.303	4.09
531.502	4.18
531.702	4.28
531.902	4.33
532.101	4.29
532.301	4.32
532.501	4.27
532.7	4.24
532.9	4.25
533.1	4.32
533.299	4.36
533.499	4.39
533.698	4.36
533.898	4.34
534.097	4.32
534.297	4.39
534.496	4.34
534.696	4.36
534.895	4.49
535.095	4.61
535.294	4.52
535.494	4.5
535.693	4.58
535.892	4.48
536.092	4.34
536.291	4.37
536.491	4.46
536.69	4.45
536.889	4.44
537.088	4.48
537.288	4.58
537.487	4.65
537.686	4.64
537.886	4.74
538.085	4.79
538.284	4.83
538.483	4.77
538.682	4.86
538.882	4.82
539.081	4.86
539.28	4.8
539.479	4.81
539.678	4.8
539.877	4.89
540.076	4.85
540.275	4.87
540.474	4.97
540.673	4.98
540.872	4.94
541.071	5.03
541.27	5.07
541.469	5.08
541.668	5.13
541.867	5.17
542.066	5.21
542.265	5.25
542.464	5.23
542.663	5.22
542.862	5.34
543.06	5.37
543.259	5.38
543.458	5.43
543.657	5.56
543.856	5.58
544.054	5.59
544.253	5.62
544.452	5.63
544.651	5.68
544.849	5.61
545.048	5.69
545.247	5.73
545.445	5.8
545.644	5.75
545.843	5.75
546.041	5.73
546.24	5.84
546.438	5.9
546.637	5.97
546.836	6.14
547.034	6.2
547.233	6.2
547.431	6.2
547.63	6.21
547.828	6.17
548.027	6.21
548.225	6.18
548.423	6.2
548.622	6.28
548.82	6.29
549.019	6.34
549.217	6.52
549.415	6.62
549.614	6.7
549.812	6.72
550.01	6.72
550.209	6.73
550.407	6.8
550.605	6.73
550.803	6.93
551.002	7.05
551.2	7.03
551.398	7.1
551.596	7.27
551.794	7.26
551.993	7.33
552.191	7.39
552.389	7.51
552.587	7.57
552.785	7.69
552.983	7.74
553.181	7.88
553.379	7.93
553.577	7.89
553.775	7.99
553.973	8.08
554.171	8.12
554.369	8.02
554.567	8.09
554.765	8.07
554.963	8.13
555.161	8.12
555.359	8.26
555.557	8.44
555.755	8.58
555.952	8.68
556.15	8.79
556.348	8.91
556.546	8.97
556.744	9.04
556.941	9.09
557.139	9.19
557.337	9.28
557.535	9.31
557.732	9.41
557.93	9.58
558.128	9.67
558.325	9.79
558.523	9.83
558.721	9.94
558.918	9.9
559.116	10
559.313	9.97
559.511	10.2
559.708	10.21
559.906	10.35
560.104	10.39
560.301	10.53
560.498	10.5
560.696	10.6
560.893	10.67
561.091	10.81
561.288	11
561.486	11.13
561.683	11.21
561.88	11.36
562.078	11.43
562.275	11.42
562.473	11.54
562.67	11.68
562.867	11.84
563.064	11.98
563.262	12
563.459	12.08
563.656	12.22
563.853	12.2
564.051	12.29
564.248	12.45
564.445	12.57
564.642	12.63
564.839	12.79
565.036	12.9
565.234	13.1
565.431	13.17
565.628	13.22
565.825	13.27
566.022	13.34
566.219	13.36
566.416	13.4
566.613	13.56
566.81	13.68
567.007	13.69
567.204	13.73
567.401	13.81
567.598	13.8
567.795	13.83
567.991	13.94
568.188	14.04
568.385	14.2
568.582	14.35
568.779	14.45
568.976	14.49
569.172	14.62
569.369	14.59
569.566	14.62
569.763	14.77
569.96	14.89
570.156	14.86
570.353	14.81
570.55	14.83
570.746	14.81
570.943	14.88
571.14	15
571.336	15.23
571.533	15.37
571.729	15.38
571.926	15.44
572.123	15.48
572.319	15.51
572.516	15.43
572.712	15.54
572.909	15.53
573.105	15.61
573.302	15.56
573.498	15.72
573.695	15.66
573.891	15.71
574.087	15.67
574.284	15.74
574.48	15.71
574.677	15.83
574.873	15.82
575.069	15.9
575.266	15.99
575.462	15.97
575.658	16
575.854	16.11
576.051	16.1
576.247	16.05
576.443	16.13
576.639	16.12
576.835	16.04
577.032	15.95
577.228	16.09
577.424	16.11
577.62	16.02
577.816	16.08
578.012	16.14
578.208	16.01
578.404	16.04
578.6	16.07
578.796	16.06
578.993	16.18
579.189	16.24
579.384	16.1
579.58	16.09
579.776	16.06
579.972	15.96
580.168	15.83
580.364	15.88
580.56	15.94
580.756	15.92
580.952	15.83
581.148	15.91
581.343	15.94
581.539	15.94
581.735	15.99
581.931	16.07
582.127	16.03
582.322	16
582.518	16.01
582.714	15.98
582.909	15.95
583.105	15.93
583.301	15.89
583.496	15.85
583.692	15.84
583.888	15.88
584.083	15.93
584.279	15.92
584.474	15.84
584.67	15.86
584.866	15.84
585.061	15.77
585.257	15.81
585.452	15.84
585.648	15.76
585.843	15.79
586.039	15.82
586.234	15.8
586.429	15.75
586.625	15.8
586.82	15.74
587.015	15.75
587.211	15.7
587.406	15.8
587.601	15.73
587.797	15.72
587.992	15.71
588.187	15.83
588.383	15.71
588.578	15.77
588.773	15.78
588.968	15.78
589.163	15.78
589.359	15.81
589.554	15.76
589.749	15.84
589.944	15.9
590.139	15.86
590.334	15.92
590.529	15.98
590.724	15.92
590.919	15.97
591.114	15.95
591.309	16.03
591.504	16.13
591.699	16.12
591.894	16.11
592.089	16.15
592.284	16.16
592.479	16.24
592.674	16.33
592.869	16.38
593.064	16.54
593.259	16.62
593.454	16.68
593.648	16.74
593.843	16.77
594.038	16.79
594.233	16.83
594.428	16.77
594.622	16.86
594.817	17.01
595.012	17.01
595.206	17
595.401	17.07
595.596	17.08
595.79	17.16
595.985	17.28
596.18	17.39
596.374	17.49
596.569	17.55
596.763	17.5
596.958	17.54
597.153	17.61
597.347	17.63
597.542	17.77
597.736	17.87
597.931	17.97
598.125	17.99
598.319	18.16
598.514	18.15
598.708	18.21
598.903	18.24
599.097	18.35
599.291	18.32
599.486	18.32
599.68	18.37
599.874	18.46
600.069	18.43
600.263	18.46
600.457	18.55
600.651	18.6
600.846	18.62
601.04	18.74
601.234	18.8
601.428	18.94
601.622	18.91
601.817	18.97
602.011	18.98
602.205	19.06
602.399	18.96
602.593	19.05
602.787	19.05
602.981	19.01
603.175	19.02
603.369	19.02
603.563	19.1
603.757	19.15
603.951	19.21
604.145	19.12
604.339	19.21
604.533	19.04
604.727	18.99
604.921	18.89
605.115	18.98
605.309	19.09
605.502	19.1
605.696	19.08
605.89	19.1
606.084	19
606.278	18.88
606.471	18.83
606.665	18.76
606.859	18.67
607.053	18.64
607.246	18.54
607.44	18.52
607.634	18.45
607.827	18.42
608.021	18.29
608.214	18.22
608.408	18.2
608.602	18.18
608.795	18.1
608.989	18.13
609.182	18.07
609.376	18
609.569	17.93
609.763	17.9
609.956	17.68
610.15	17.64
610.343	17.57
610.537	17.42
610.73	17.37
610.923	17.42
611.117	17.44
611.31	17.35
611.504	17.35
611.697	17.22
611.89	17.16
612.083	17.05
612.277	17.02
612.47	16.94
612.663	16.92
612.856	16.81
613.05	16.65
613.243	16.49
613.436	16.41
613.629	16.32
613.822	16.25
614.015	16.29
614.209	16.25
614.402	16.24
614.595	16.26
614.788	16.18
614.981	15.95
615.174	15.86
615.367	15.74
615.56	15.55
615.753	15.58
615.946	15.57
616.139	15.58
616.332	15.6
616.525	15.54
616.718	15.49
616.911	15.5
617.103	15.43
617.296	15.36
617.489	15.35
617.682	15.24
617.875	15.17
618.067	15.08
618.26	14.98
618.453	15.02
618.646	14.99
618.838	14.97
619.031	15.06
619.224	15.05
619.417	15.01
619.609	15.03
619.802	15.07
619.994	15.02
620.187	15.04
620.38	14.94
620.572	14.82
620.765	14.82
620.957	14.68
621.15	14.59
621.342	14.54
621.535	14.62
621.727	14.48
621.92	14.44
622.112	14.41
622.305	14.48
622.497	14.32
622.69	14.35
622.882	14.35
623.074	14.4
623.267	14.29
623.459	14.27
623.651	14.16
623.844	14.24
624.036	14.23
624.228	14.17
624.42	14.23
624.613	14.37
624.805	14.23
624.997	14.1
625.189	14.08
625.381	14.09
625.574	13.92
625.766	13.89
625.958	14
626.15	14.12
626.342	14.08
626.534	14.14
626.726	14.16
626.918	14.07
627.11	13.97
627.302	13.91
627.494	13.81
627.686	13.8
627.878	13.71
628.07	13.63
628.262	13.56
628.454	13.58
628.646	13.5
628.838	13.59
629.029	13.56
629.221	13.55
629.413	13.46
629.605	13.4
629.797	13.3
629.989	13.34
630.18	13.36
630.372	13.32
630.564	13.32
630.755	13.33
630.947	13.34
631.139	13.14
631.33	13.09
631.522	13.18
631.714	13.11
631.905	13.01
632.097	13.05
632.289	13.07
632.48	12.93
632.672	12.88
632.863	12.81
633.055	12.83
633.246	12.84
633.438	12.81
633.629	12.83
633.821	12.83
634.012	12.79
634.203	12.66
634.395	12.73
634.586	12.7
634.777	12.61
634.969	12.65
635.16	12.75
635.351	12.64
635.543	12.6
635.734	12.66
635.925	12.62
636.117	12.62
636.308	12.68
636.499	12.67
636.69	12.57
636.881	12.55
637.073	12.54
637.264	12.48
637.455	12.48
637.646	12.62
637.837	12.65
638.028	12.59
638.219	12.7
638.41	12.65
638.601	12.52
638.792	12.52
638.983	12.5
639.174	12.35
639.365	12.45
639.556	12.41
639.747	12.31
639.938	12.31
640.129	12.36
640.32	12.25
640.511	12.34
640.701	12.53
640.892	12.52
641.083	12.54
641.274	12.64
641.465	12.6
641.655	12.38
641.846	12.41
642.037	12.3
642.228	12.15
642.418	12.19
642.609	12.24
642.8	12.2
642.99	12.19
643.181	12.25
643.372	12.23
643.562	12.21
643.753	12.16
643.943	12.13
644.134	12
644.324	11.9
644.515	11.89
644.705	11.95
644.896	11.98
645.086	12.05
645.277	12.04
645.467	12.01
645.658	11.95
645.848	11.94
646.038	11.89
646.229	11.86
646.419	11.78
646.61	11.76
646.8	11.71
646.99	11.69
647.18	11.66
647.371	11.66
647.561	11.53
647.751	11.53
647.941	11.45
648.132	11.42
648.322	11.44
648.512	11.58
648.702	11.56
648.892	11.58
649.082	11.58
649.272	11.43
649.462	11.19
649.653	11.01
649.843	10.96
650.033	10.94
650.223	11.02
650.413	11.01
650.603	11.1
650.793	11.14
650.983	11.02
651.172	10.95
651.362	10.9
651.552	10.81
651.742	10.67
651.932	10.72
652.122	10.74
652.312	10.82
652.502	10.81
652.691	10.84
652.881	10.67
653.071	10.54
653.261	10.33
653.45	10.23
653.64	10.28
653.83	10.16
654.019	10.05
654.209	10.08
654.399	10.05
654.588	9.92
654.778	9.91
654.968	9.8
655.157	9.63
655.347	9.53
655.536	9.27
655.726	9.16
655.915	9
656.105	8.97
656.294	8.84
656.484	8.76
656.673	8.61
656.863	8.52
657.052	8.41
657.241	8.25
657.431	8.09
657.62	7.98
657.809	7.82
657.999	7.64
658.188	7.51
658.377	7.36
658.567	7.27
658.756	7.15
658.945	6.97
659.134	6.82
659.324	6.75
659.513	6.63
659.702	6.52
659.891	6.49
660.08	6.39
660.269	6.28
660.458	6.07
660.648	5.91
660.837	5.76
661.026	5.69
661.215	5.53
661.404	5.42
661.593	5.49
661.782	5.29
661.971	5.19
662.16	5.11
662.349	5.06
662.538	4.83
662.726	4.83
662.915	4.66
663.104	4.55
663.293	4.5
663.482	4.52
663.671	4.39
663.86	4.29
664.048	4.22
664.237	4.18
664.426	3.97
664.615	3.99
664.803	3.94
664.992	3.87
665.181	3.75
665.369	3.71
665.558	3.61
665.747	3.56
665.935	3.59
666.124	3.58
666.312	3.63
666.501	3.56
666.69	3.47
666.878	3.37
667.067	3.27
667.255	3.26
667.444	3.53
667.632	3.63
667.82	3.76
668.009	3.72
668.197	3.66
668.386	3.46
668.574	3.55
668.762	3.31
668.951	3.31
669.139	3.33
669.327	3.13
669.516	3.1
669.704	3.2
669.892	3.31
670.08	3.18
670.269	3.19
670.457	3.04
670.645	2.8
670.833	2.88
671.021	3
671.21	3.08
671.398	3.26
671.586	3.43
671.774	3.24
671.962	3.25
672.15	3.29
672.338	3.16
672.526	3.17
672.714	3.15
672.902	3.15
673.09	3.3
673.278	3.5
673.466	3.62
673.654	3.83
673.842	3.8
674.03	3.71
674.218	3.47
674.405	3.41
674.593	3.31
674.781	3.43
674.969	3.51
675.157	3.83
675.344	3.94
675.532	4.07
675.72	4.16
675.908	4.15
676.095	4
676.283	4
676.471	4.08
676.658	3.99
676.846	4.08
677.033	4.22
677.221	4.25
677.409	4.1
677.596	4.17
677.784	4.09
677.971	4.02
678.159	4
678.346	4.05
678.534	4.12
678.721	4.33
678.909	4.38
679.096	4.43
679.283	4.74
679.471	4.9
679.658	4.92
679.846	5.1
680.033	5.4
680.22	5.31
680.408	5.25
680.595	5.29
680.782	5.1
680.969	5.1
681.157	5.17
681.344	5.15
681.531	5.2
681.718	5.34
681.905	5.49
682.093	5.65
682.28	5.95
682.467	6.2
682.654	6.37
682.841	6.35
683.028	6.55
683.215	6.64
683.402	6.53
683.589	6.66
683.776	6.89
683.963	6.88
684.15	7.05
684.337	7.38
684.524	7.55
684.711	7.64
684.898	7.62
685.085	7.76
685.271	8.01
685.458	8.12
685.645	8.15
685.832	8.6
686.019	8.93
686.205	9.05
686.392	9.43
686.579	9.88
686.766	10.18
686.952	10.31
687.139	10.74
687.326	10.85
687.512	11.19
687.699	11.38
687.886	11.71
688.072	11.88
688.259	12.37
688.445	12.75
688.632	12.98
688.818	13.51
689.005	13.9
689.191	14.26
689.378	14.84
689.564	15.61
689.751	15.99
689.937	16.35
690.124	16.92
690.31	17.05
690.496	17.37
690.683	17.79
690.869	18.37
691.055	18.82
691.242	19.68
691.428	20.28
691.614	20.87
691.8	21.65
691.987	22.37
692.173	22.84
692.359	23.51
692.545	24.23
692.731	24.71
692.918	25.42
693.104	25.88
693.29	26.57
693.476	27.24
693.662	27.84
693.848	28.37
694.034	29.3
694.22	29.82
694.406	30.33
694.592	30.95
694.778	31.48
694.964	31.99
695.15	32.59
695.336	33.22
695.522	34.08
695.708	34.47
695.894	35.06
696.08	35.77
696.265	36.41
696.451	36.92
696.637	38.12
696.823	38.7
697.009	39.19
697.194	39.73
697.38	40.11
697.566	40.3
697.751	40.87
697.937	41.74
698.123	42.3
698.308	43.14
698.494	43.94
698.68	44.48
698.865	44.84
699.051	45.69
699.236	46.11
699.422	46.6
699.607	47.04
699.793	47.63
699.978	47.83
700.164	48.26
700.349	48.96
700.535	49.57
700.72	49.88
700.906	50.81
701.091	51.24
701.276	51.56
701.462	52.47
701.647	53.39
701.832	53.71
702.018	54.37
702.203	54.71
702.388	54.72
702.573	54.87
702.759	55.62
702.944	55.85
703.129	56.33
703.314	56.83
703.499	57.06
703.684	57.06
703.87	58.32
704.055	58.97
704.24	59.24
704.425	59.99
704.61	60.63
704.795	60.28
704.98	60.47
705.165	60.92
705.35	61.14
705.535	61.37
705.72	61.53
705.905	62.02
706.09	62.54
706.275	62.88
706.459	62.72
706.644	63.1
706.829	63.3
707.014	63.27
707.199	63.36
707.384	64.04
707.568	64.02
707.753	64.3
707.938	64.5
708.123	64.83
708.307	64.89
708.492	65.26
708.677	65.47
708.861	65.65
709.046	65.56
709.231	66.13
709.415	66.74
709.6	66.72
709.784	66.94
709.969	67.09
710.153	66.96
710.338	66.75
710.522	67.2
710.707	67.63
710.891	67.91
711.076	67.93
711.26	68.16
711.445	68.34
711.629	68.59
711.813	68.89
711.998	69.15
712.182	69.16
712.366	69.43
712.551	70.08
712.735	70.4
712.919	70.27
713.103	70.87
713.288	70.61
713.472	69.72
713.656	69.98
713.84	70.62
714.024	70.73
714.208	70.52
714.393	71.1
714.577	71.26
714.761	71.29
714.945	71.61
715.129	72.16
715.313	72.32
715.497	71.97
715.681	72.46
715.865	72.12
716.049	72.09
716.233	72.15
716.417	72.38
716.601	71.75
716.785	71.96
716.968	72.23
717.152	72.16
717.336	72.3
717.52	72.6
717.704	72.58
717.888	72.86
718.071	72.74
718.255	73.06
718.439	72.69
718.622	72.9
718.806	73.21
718.99	72.89
719.174	72.98
719.357	73.45
719.541	73.5
719.724	73.13
719.908	74.65
720.092	75.05
720.275	75.2
720.459	75.21
720.642	75.04
720.826	74.49
721.009	73.88
721.193	73.87
721.376	74.15
721.559	74.95
721.743	75.3
721.926	75.55
722.11	75.88
722.293	75.41
722.476	74.48
722.66	74.15
722.843	74.27
723.026	73.75
723.21	74.26
723.393	75.53
723.576	75.62
723.759	75.07
723.942	75.28
724.126	74.96
724.309	74.45
724.492	74.45
724.675	74.67
724.858	75.55
725.041	76.1
725.224	76.08
725.407	76.09
725.59	76.88
725.774	75.69
725.957	75.04
726.14	74.68
726.322	74.98
726.505	74.81
726.688	75.95
726.871	76.53
727.054	76.98
727.237	76.48
727.42	76.8
727.603	76.34
727.786	75.84
727.968	75.9
728.151	76.31
728.334	76.1
728.517	76.18
728.699	77.08
728.882	76.89
729.065	77.58
729.248	78.11
729.43	79.11
729.613	79.9
729.796	80.8
729.978	80.06
730.161	79.92
730.343	78.69
730.526	78.95
730.708	77.62
730.891	77.49
731.073	77.03
731.256	76.88
731.438	75.99
731.621	77.42
731.803	77.94
731.986	77.91
732.168	78.3
732.35	78.71
732.533	78.03
732.715	77.85
732.898	78.98
733.08	78.57
733.262	78.36
733.444	78.12
733.627	78.35
733.809	78.46
733.991	79.72
734.173	79.42
734.355	79.93
734.538	80.99
734.72	79.63
734.902	79.09
735.084	79.54
735.266	79.8
735.448	79.54
735.63	79.59
735.812	80.13
735.994	80.41
736.176	80.25
736.358	79.67
736.54	81.39
736.722	81.29
736.904	80.83
737.086	80.86
737.268	82.03
737.45	80.99
737.632	80.44
737.814	80.11
737.995	80.03
738.177	79.33
738.359	78.58
738.541	79.47
738.723	80.1
738.904	81.3
739.086	80.74
739.268	81.06
739.449	80.97
739.631	80.73
739.813	80.11
739.994	80.54
740.176	80.28
740.358	80.34
740.539	81.79
740.721	82.19
740.902	83.38
741.084	84.27
741.265	83.57
741.447	83.01
741.628	82.91
741.81	81.25
741.991	82.3
742.172	83.53
742.354	83.59
742.535	83.53
742.717	84.15
742.898	83.69
743.079	84.37
743.261	84.12
743.442	83.92
743.623	85.11
743.804	84.81
743.986	84.48
744.167	82.97
744.348	82.56
744.529	81.43
744.71	80.6
744.891	80.28
745.073	80.39
745.254	79.69
745.435	79.34
745.616	79.05
745.797	78.46
745.978	78.87
746.159	79.7
746.34	78.79
746.521	80.63
746.702	79.43
746.883	79.98
747.064	79.98
747.245	81.07
747.426	79.76
747.606	81.24
747.787	81.05
747.968	81.02
748.149	81.23
748.33	81.71
748.51	81.51
748.691	81.68
748.872	82.8
749.053	82.38
749.233	81.67
749.414	80.89
749.595	80.22
749.775	78.69
749.956	78.02
750.137	78.58
750.317	80.25
750.498	82.2
750.678	82.37
750.859	83.91
751.04	84.1
751.22	82.69
751.4	80.93
751.581	80.27
751.761	80.24
751.942	80.45
752.122	80.37
752.303	80.07
752.483	79.61
752.663	79.15
752.844	76.94
753.024	77.52
753.204	79.01
753.385	79.44
753.565	78.52
753.745	80.45
753.925	79.41
754.106	77.36
754.286	76.89
754.466	77.44
754.646	77.88
754.826	78.35
755.006	78.51
755.187	79.85
755.367	79.93
755.547	79.57
755.727	79.5
755.907	78.82
756.087	79.76
756.267	79.37
756.447	79.14
756.627	77.47
756.807	79.24
756.987	78.45
757.167	79.42
757.346	79.37
757.526	79.13
757.706	78.54
757.886	78.38
758.066	78.51
758.246	79.72
758.425	81.18
758.605	79.87
758.785	79.82
758.965	79.79
759.144	77.91
759.324	78.29
759.504	79.31
759.683	80.03
759.863	78.04
760.043	76.98
760.222	76.43
760.402	76.21
760.581	75.04
760.761	77.79
760.94	77.35
761.12	79.28
761.299	79.93
761.479	79.43
761.658	77.31
761.838	78.63
762.017	77.87
762.197	77.36
762.376	78.48
762.555	80.54
762.735	81.13
762.914	79.58
763.093	80.03
763.273	78.57
763.452	77.12
763.631	76.32
763.81	76.15
763.99	75.98
764.169	76.35
764.348	74.11
764.527	73.02
764.706	74.66
764.885	75.38
765.064	73.6
765.243	74.16
765.423	76.21
765.602	74.98
765.781	71.93
765.96	72.45
766.139	72.8
766.318	73.87
766.497	71.97
766.676	73.51
766.854	77.08
767.033	78.28
767.212	76.21
767.391	78.05
767.57	79.66
767.749	77.82
767.928	78.79
768.106	78.05
768.285	77.78
768.464	77.52
768.643	75.85
768.821	74.01
769	75.77
769.179	75.36
769.357	73.62
769.536	73.33
769.715	74.17
769.893	75.7
770.072	75.63
770.25	76.76
770.429	77.35
770.607	75.1
770.786	72.69
770.964	74.78
771.143	73.28
771.321	75.01
771.5	77.29
771.678	75.28
771.857	71.88
772.035	73.6
772.213	71.41
772.392	70.52
772.57	73.09
772.748	74.4
772.927	72.84
773.105	73.45
773.283	73.88
773.461	73.7
773.64	74.47
773.818	74.65
773.996	76.84
774.174	75.06
774.352	72.86
774.531	70.7
774.709	73.42
774.887	70.01
775.065	71.46
775.243	72.77
775.421	74.74
775.599	73.56
775.777	72.11
775.955	69.26
776.133	67.59
776.311	64.97
776.489	61.43
776.667	63.4
776.844	65.47
777.022	64.23
777.2	65.67
777.378	67.03
777.556	67
777.734	68.4
777.911	71.96
778.089	72.55
778.267	72.34
778.445	71.89
778.622	72.32
778.8	72.71
778.978	72.45
779.155	72.16
779.333	71.95
779.511	69.23
779.688	70.78
779.866	66.75
780.043	65.37
780.221	67.6
780.398	68.01
780.576	67.74
780.753	74.6
780.931	76.1
781.108	76.2
781.286	76.27
781.463	71.94
781.64	66.29
781.818	67.44
781.995	66.61
782.172	65.41
782.35	67.9
782.527	73.73
782.704	70.5
782.882	69.47
783.059	70.38
783.236	69.61
783.413	68.32
783.59	70.99
783.768	68.91
783.945	70.04
784.122	68.22
784.299	66.28
784.476	64.52
784.653	64.81
784.83	61.81
785.007	60.81
785.184	62.59
785.361	59.42
785.538	64.5
785.715	68.97
785.892	72.89
786.069	74.06
786.246	78.85
786.423	77.31
786.6	74.57
786.776	73.16
786.953	71.3
787.13	72.49
787.307	71.47
787.484	71.59
787.66	66.25
787.837	62.38
788.014	58.44
788.191	56.34
788.367	54.82
788.544	64.5
788.721	64.84
788.897	67.64
789.074	68.09
789.25	65.91
789.427	59.44
789.603	62.71
789.78	64.74
789.956	66.31
790.133	68.22
790.309	70.63
790.486	73.25
790.662	69.55
790.839	68.31
791.015	69.55
791.192	64.58
791.368	61.4
791.544	56.56
791.721	54.69
791.897	55.1
792.073	54.12
792.249	48.47
792.426	54.39
792.602	58.97
792.778	56.4
792.954	57.31
793.13	58.87
793.307	54.19
793.483	44.94
793.659	43.91
793.835	49.66
794.011	47.97
794.187	47.41
794.363	50.95
794.539	57.45
794.715	48.16
794.891	48.86
795.067	51.48
795.243	56.65
795.419	52.88
795.595	56.22
795.771	61.16
795.947	61.61
796.122	57.59
796.298	60.56
796.474	62.24
796.65	59.63
796.826	58.05
797.001	58.91
797.177	49.28
797.353	55.22
797.529	57.09
797.704	54.57
797.88	50.41
798.056	50.91
798.231	44.05
798.407	46.41
798.582	49.47
798.758	59.69
798.934	70
799.109	64.54
799.285	57.73
799.46	62.06
799.636	60.64
799.811	57.48
799.986	67.12
800.162	69.85
800.337	70.93
800.513	59.82
800.688	54.67
800.863	58.44
801.039	52.87
801.214	47.27
801.389	55.43
801.565	57.28
801.74	46.21
801.915	56.26
802.09	52.81
802.265	58.58
802.441	55.15
802.616	55.37
802.791	56.37
802.966	60.74
803.141	56.48
803.316	56.78
803.491	65.01
803.666	63.48
803.841	52.71
804.016	50.43
804.191	51.76
804.366	41.78
804.541	35.91
804.716	40.97
804.891	34.64
805.066	42.2
805.241	45.82
805.416	45.1
805.591	44.76
805.765	49.04
805.94	51.84
806.115	46.18
806.29	39.5
806.464	41.77
806.639	36.52
806.814	19.02
806.989	11.1
807.163	32.52
807.338	31.27
807.512	32.39
807.687	27.41
807.862	46.7
808.036	42.66
808.211	51.75
808.385	62.06
808.56	79.95
808.734	72.52
808.909	70.84
809.083	57.73
809.258	54.1
809.432	48.15
809.606	44.82
809.781	35.01
809.955	48.25
810.13	46.26
810.304	44.15
810.478	41.2
810.652	56.27
810.827	52.64
811.001	51.63
811.175	58.04
811.349	61.1
811.524	48.22
811.698	34.46
811.872	33.04
812.046	32.85
812.22	40.33
812.394	44.75
812.568	50.22
812.742	51.35
812.916	47.16
813.09	34.98
813.264	27.6
813.438	37.72
813.612	43.03
813.786	37.98
813.96	53.31
814.134	54.75
814.308	64.65
814.482	66.12
814.656	65.46
814.83	61.7
815.003	66.13
815.177	46.57
815.351	36.6
815.525	45.86
815.698	37.92
815.872	24.37
816.046	19.84
816.219	30.14
816.393	31.23
816.567	37.48
816.74	53.51
816.914	62.05
817.088	61.23
817.261	57.23
817.435	42.25
817.608	40.88
817.782	44.13
817.955	42.24
818.129	33.35
818.302	49.21
818.475	56.16
818.649	54.79
818.822	49.02
818.996	74.35
819.169	66.66
819.342	48.6
819.516	55.97
819.689	60.12
819.862	32.88
820.035	24.18
820.209	29.96
820.382	20.21
820.555	21.08
820.728	18.31
820.901	22.73
821.075	26.33
821.248	33.98
821.421	15.48
821.594	28.41
821.767	59.1
821.94	59.28
822.113	33.44
822.286	41.01
822.459	44.83
822.632	11.75
822.805	-7.2
822.978	-2.37
823.151	2.1
823.324	-13.66
823.496	-26.38
823.669	-15.32
823.842	-10.61
824.015	-31.38
824.188	-38.52
824.361	-8.48
824.533	-5.46
824.706	10.5
824.879	23.2
825.051	44.54
825.224	37.3
825.397	26.04
825.569	11.51
825.742	30.75
825.915	30.38
826.087	24.19
826.26	17
826.432	22.32
826.605	15.91
826.777	1.55
826.95	10.62
827.122	12.1
827.295	24.28
827.467	28.5
827.64	7.52
827.812	-6.63
827.984	-3.45
828.157	-41.86
828.329	-98.84
828.501	-63.33
828.674	-34.23
828.846	-33.41
829.018	3.79
829.19	1.41
829.363	24.52
829.535	13.34
829.707	16
829.879	-17.6
830.051	-29.11
830.223	-40.88
830.395	-55.53
830.568	-62.84
830.74	-52.78
830.912	-9.79
831.084	-22.43
831.256	-21.14
831.428	-26.04
831.6	-31.77
831.772	-56.31
831.943	-74.87
832.115	-34.77
832.287	-6.33
832.459	4
832.631	12.46
832.803	45.77
832.975	45.04
833.146	23.13
833.318	9.56
833.49	18.44
833.662	-15.31
833.833	-25.41
834.005	-16.35
834.177	-7.75
834.348	-8.71
834.52	-19.6
834.692	-16.06
834.863	-57.52
835.035	-51.44
835.206	-126.84
835.378	-76.71
835.549	-90.8
835.721	-49.2
835.892	-36.04
836.064	-16.83
836.235	-19.44
836.407	-9.68
836.578	-48.45
836.749	-56.71
836.921	-116.65
837.092	-119.15
837.264	-87.04
837.435	-99.18
837.606	-38.8
837.777	14.56
837.949	21.39
838.12	22.28
838.291	39.1
838.462	25.52
838.633	-8.15
838.805	-13.11
838.976	-6.31
839.147	-53.37
839.318	-72.33
839.489	-115.51
839.66	-49.33
839.831	-18.25
840.002	-15.84
840.173	-61.53
840.344	-5.35
840.515	-96.04
840.686	-302.2
840.857	-237.4
841.028	-184.81
841.199	-131.22
841.369	-131.1
841.54	-101.74
841.711	-39.65
841.882	1.93
842.053	-20.29
842.223	-25.94
842.394	-5.17
842.565	-8.62
842.736	-15.95
842.906	-16.6
843.077	-3.72
843.248	0.54
843.418	-11.65
843.589	-50.03
843.759	-32.25
843.93	-29.33
844.101	-6.53
844.271	2.94
844.442	25.32
844.612	39.54
844.783	24.54
844.953	-12.17
845.123	-38.86
845.294	-61.45
845.464	-368.88
845.635	-226.49
845.805	-127.64
845.975	-52.29
846.146	-110.86
846.316	-71.65
846.486	-27.69
846.656	-6.29
846.827	-19.25
846.997	-6.38
847.167	22.11
847.337	-19.09
847.507	-67.3
847.677	-65.5
847.848	4.59
848.018	6.78
848.188	15.11
848.358	-7.77
848.528	-17.59
848.698	-73.93
848.868	-217.21
849.038	-356.67
849.208	-151.23
849.378	-103.95
849.548	-71.36
849.718	-32.99
849.887	-14.99
850.057	-22.73
850.227	-50.82
850.397	-79.65
850.567	-141.99
850.737	-288.15
850.906	-910.94
851.076	-637.3
851.246	-276.31
851.415	-54.04
851.585	-65.23
851.755	-96.89
851.924	-59.75
852.094	-88.45
852.264	-175.83
852.433	-1026.68
852.603	-228.65
852.772	-199.57
852.942	-128.53
853.111	-108.38
853.281	-37.21
853.45	35.35
853.62	-29.01
853.789	-28.99
853.959	44.7
854.128	-36.04
854.297	-101.64
854.467	-131.27
854.636	-110.05
854.805	-74.65
854.975	-92.61
855.144	-133.9
855.313	-100.52
855.482	-477.19
855.652	-260.83
855.821	-201.38
855.99	-36.82
856.159	-7.77
856.328	0.02
856.497	-7.52
856.667	-7.3
856.836	-5.36
857.005	-49.88
857.174	-89.76
857.343	-145.35
857.512	-104.24
857.681	-150.65
857.85	-161.62
858.019	-64.33
858.188	-57.42
858.356	-84.35
858.525	-143.96
858.694	-136.63
858.863	-270.51
859.032	-152.03
859.201	-213.25
859.369	-187.44
859.538	-82.93
859.707	-90.42
859.876	-167.29
860.044	-171.38
860.213	-29.95
860.382	-51.08
860.55	-30.77
860.719	17.46
860.888	31.37
861.056	-18.15
861.225	-39.57
861.393	-16.93
861.562	-35.7
861.73	-144.68
861.899	-312.43
862.067	-2699.14
862.236	-171.27
862.404	-358.72
862.572	-155.95
862.741	-31.3
862.909	-12.77
863.078	-94.48
863.246	-66.98
863.414	-89.29
863.582	-96.54
863.751	-134.52
863.919	-126.41
864.087	-52
864.255	-67.5
864.424	-463.65
864.592	-59.87
864.76	-107.37
864.928	-429.4
865.096	-228.26
865.264	-138.21
865.432	-2317.61
865.6	-203.88
865.768	-143.46
865.936	-133.67
866.104	-181.01
866.272	-290.55
866.44	-499.51
866.608	922.69
866.776	432.36
866.944	3780.81
867.112	-654.56
867.28	-297.87
867.448	-120.41
867.615	-73.22
867.783	-49.88
867.951	-38.56
868.119	12.68
868.286	-30.1
868.454	-120.24
868.622	-163.19
868.789	-250.28
868.957	-6426.79
869.125	-3220.39
869.292	-222.54
869.46	-306.48
869.627	-46.78
869.795	-58.71
869.963	-27.63
870.13	-11.44
870.298	18.81
870.465	-78.08
870.632	-78.92
870.8	-46.69
870.967	-116.34
871.135	-192.44
871.302	-154.35
871.469	-126.71
871.637	-119.48
871.804	-74.81
871.971	-122.68
872.139	-491.05
872.306	-49.3
872.473	-129.55
872.64	-485.3
872.807	-168.43
872.975	15.13
873.142	-318.45
873.309	1953.38
873.476	21.87
873.643	53.41
873.81	-4.36
873.977	12.77
874.144	27.82
874.311	-139.71
874.478	-179.45
874.645	-213.8
874.812	-97.91
874.979	-81.12
875.146	-99.31
875.313	-99.69
875.48	-13.86
875.647	-41.61
875.813	-86.77
875.98	-53
876.147	-90.92
876.314	-180.59
876.481	1403.1
876.647	-1577.25
876.814	609.2
876.981	-194.9
877.147	-114.07
877.314	-25.38
877.481	-18.24
877.647	-34.76
877.814	-79.65
877.98	-138.39
878.147	-100.1
878.314	-30.35
878.48	-59.37
878.647	-47.38
878.813	5.06
878.979	-21.36
879.146	-65.91
879.312	-46.85
879.479	-87.67
879.645	-211.86
879.811	-414.43
879.978	-1025.76
880.144	-346.28
880.31	-165.17
880.477	-433.05
880.643	-443.57
880.809	-142.02
880.975	-96.09
881.142	-927.05
881.308	-127.1
881.474	-113.19
881.64	-161.89
881.806	-212.24
881.972	-92.37
882.138	-75.98
882.304	-53.53
882.47	-228.32
882.636	-1000.61
882.802	-325.72
882.968	-121.08
883.134	-75.81
883.3	-57.61
883.466	15.76
883.632	69.51
883.798	35.8
883.964	50.08
884.129	42.94
884.295	26.86
884.461	-69.98
884.627	-88.09
884.793	-108.53
884.958	-50.53
885.124	-145.04
885.29	-261.22
885.455	-548.91
885.621	-217.23
885.787	-343.89
885.952	-163.13
886.118	-162.3
886.283	-128.5
886.449	-262.33
886.614	-250.67
886.78	-539.9
886.945	2089.75
887.111	-840.9
887.276	-627.13
887.442	-1112.5
887.607	-507.9
887.773	-267.44
887.938	-260.77
888.103	-318.5
888.269	-252.03
888.434	-330.68
888.599	-182.64
888.764	-72.61
888.93	-33.34
889.095	-43.07
889.26	-123.3
889.425	-89.41
889.59	-95.21
889.756	-151.03
889.921	-112.47
890.086	-26.97
890.251	-29.66
890.416	-192.16
890.581	-1518.95
890.746	147.77
890.911	414.49
891.076	221.01
891.241	-839.37
891.406	-43.92
891.571	-149.23
891.736	-397.59
891.901	-732.52
892.065	500.82
892.23	192.1
892.395	288.8
892.56	436.92
892.725	-632.62
892.889	-1967.68
893.054	-263.01
893.219	-83.17
893.384	-37.42
893.548	-80.32
893.713	-96.79
893.878	-68.11
