Data from Ofra_1a_PS_1GT37_Reflection_2.txt Node
Date: Tue Jul 20 10:44:43 EDT 2021
User: Adam
Spectrometer: FLMT01687
Trigger mode: 0
Integration Time (sec): 1.004000E0
Scans to average: 2
Electric dark correction enabled: true
Nonlinearity correction enabled: false
Boxcar width: 2
XAxis mode: Wavelengths
Number of Pixels in Spectrum: 3648
>>>>>Begin Spectral Data<<<<<
179.494	-417.26
179.716	-522.14
179.937	1105.69
180.158	-1471.34
180.38	147.36
180.601	95.06
180.823	31.75
181.044	38.45
181.265	7.16
181.486	157.25
181.708	104.46
181.929	-2236.36
182.15	11
182.372	32.51
182.593	352.65
182.814	-221.05
183.035	-57.24
183.257	2.33
183.478	-11.22
183.699	-33.96
183.92	-79.94
184.141	-53.16
184.363	-42.53
184.584	-38.98
184.805	-24.93
185.026	21.72
185.247	-6.8
185.468	-44.45
185.689	-35.5
185.91	-57.68
186.132	-39.85
186.353	-26.86
186.574	-27.96
186.795	-49.11
187.016	-10.85
187.237	-23.02
187.458	-17.5
187.679	-23.25
187.9	14.05
188.121	11.73
188.342	25.78
188.563	29.75
188.784	51.81
189.005	42.62
189.226	43.5
189.447	37.22
189.667	21.95
189.888	6.63
190.109	-16.49
190.33	-19.41
190.551	-25.69
190.772	-16.19
190.993	-15.94
191.214	-11.92
191.434	-36.97
191.655	-71.62
191.876	-28.41
192.097	-25.63
192.318	-9.08
192.538	-36.71
192.759	-12.21
192.98	-1.11
193.201	3.71
193.421	9.64
193.642	12.77
193.863	5.11
194.083	1.8
194.304	9.05
194.525	-4.43
194.745	1.74
194.966	10.07
195.187	6.53
195.407	-10.14
195.628	1.52
195.848	-7.1
196.069	-12.34
196.29	-19.82
196.51	-28.03
196.731	-41.85
196.951	-30.98
197.172	-35.83
197.392	-35.69
197.613	-3.36
197.833	-2.2
198.054	-15.46
198.274	-8.39
198.495	-30.82
198.715	-56.54
198.936	-34.08
199.156	-21.73
199.377	-23.68
199.597	9.04
199.817	10.77
200.038	-33.56
200.258	-7.55
200.479	-9.68
200.699	-27.98
200.919	-16.24
201.14	-10.21
201.36	-23.48
201.58	-38.52
201.801	-51.55
202.021	-55.91
202.241	-24.75
202.461	-7.08
202.682	4.27
202.902	26.72
203.122	24.68
203.342	14.67
203.563	-11.84
203.783	-34.63
204.003	-53.95
204.223	-44.21
204.443	-50.35
204.663	-89.64
204.884	-50.65
205.104	-46.56
205.324	-33.01
205.544	-46.92
205.764	22.86
205.984	12.72
206.204	14.22
206.424	-6.02
206.644	0.14
206.864	-45.94
207.084	-16.02
207.304	-38.2
207.525	-15.48
207.745	-6.02
207.964	8.47
208.184	-9.2
208.404	8.91
208.624	7.94
208.844	-7.99
209.064	-11.71
209.284	-12.21
209.504	-19.6
209.724	-19.34
209.944	-12.94
210.164	-10.55
210.384	-13.96
210.604	-66.58
210.823	-104.42
211.043	-66.92
211.263	-166.51
211.483	-85.1
211.703	-34.65
211.922	-7.16
212.142	-26.67
212.362	4.53
212.582	-22.09
212.801	-52.08
213.021	-66.16
213.241	-70.87
213.461	-68.8
213.68	-30.19
213.9	-20.56
214.12	-33.42
214.339	-32.07
214.559	-23.19
214.779	-44.67
214.998	-39.12
215.218	-18.23
215.438	-6.39
215.657	-0.54
215.877	-1.13
216.096	11.17
216.316	15.87
216.535	16.79
216.755	14.99
216.974	-2.71
217.194	-6.77
217.413	1.19
217.633	-0.33
217.852	-3.44
218.072	17.71
218.291	20.73
218.511	9.33
218.73	7.16
218.95	-19.57
219.169	-38.65
219.389	-24.37
219.608	-12.69
219.827	-10.35
220.047	13.68
220.266	-1.2
220.485	-11.19
220.705	-0.75
220.924	13.85
221.143	-7.55
221.363	16.3
221.582	16.55
221.801	8.46
222.021	3.68
222.24	6.11
222.459	19.68
222.678	31.14
222.897	25.63
223.117	30.23
223.336	37.52
223.555	23.82
223.774	5.96
223.993	14.67
224.213	38.2
224.432	14.5
224.651	-2.58
224.87	-1.2
225.089	3.2
225.308	-3.16
225.527	-3.16
225.746	-2.9
225.965	-1.74
226.184	-24.78
226.404	-20.55
226.623	5.73
226.842	15.07
227.061	12.06
227.28	24.18
227.499	17.28
227.718	-1.73
227.936	-11.6
228.155	-15.33
228.374	-13.35
228.593	-5.47
228.812	9.02
229.031	22.27
229.25	18.72
229.469	10.57
229.688	0.09
229.907	-3.28
230.125	-6.26
230.344	-9.77
230.563	-8.07
230.782	-7.29
231.001	3.2
231.22	-5.4
231.438	15.25
231.657	9.9
231.876	7.23
232.095	1.38
232.313	-13.9
232.532	-17.17
232.751	-28.75
232.969	-28.36
233.188	-46.6
233.407	-15.99
233.625	-11.99
233.844	6.81
234.063	4.45
234.281	23.93
234.5	15.31
234.719	6.12
234.937	-23.91
235.156	-23.53
235.374	-39.87
235.593	-24.78
235.811	-11.19
236.03	15.49
236.249	23.39
236.467	24.3
236.686	-1.07
236.904	5.38
237.123	-14.02
237.341	-39.62
237.559	-63.51
237.778	-26.41
237.996	-67.48
238.215	-151.23
238.433	-213.83
238.652	-71.08
238.87	-64.7
239.088	-83.91
239.307	-30.6
239.525	-7.68
239.743	-34.18
239.962	-63.71
240.18	-27.82
240.398	-22.21
240.617	-25.64
240.835	-21.12
241.053	-5.66
241.271	-6.48
241.49	0.26
241.708	-9.48
241.926	-18.19
242.144	-18.43
242.363	-43.14
242.581	-110
242.799	-115.62
243.017	-70.91
243.235	-47.61
243.453	-57.82
243.672	-31.29
243.89	-9.56
244.108	3.23
244.326	21.1
244.544	34.92
244.762	25.38
244.98	17.8
245.198	10.04
245.416	-5.56
245.634	-7.31
245.852	-15.9
246.07	14.08
246.288	12.91
246.506	6.61
246.724	-1.94
246.942	1.98
247.16	-5.73
247.378	-17.65
247.596	-9.51
247.814	-36.11
248.032	-21.11
248.25	7.29
248.468	11.49
248.685	22.79
248.903	31.73
249.121	30.58
249.339	16.48
249.557	20.41
249.775	16.58
249.992	16.39
250.21	19.16
250.428	21.35
250.646	19.93
250.863	-6.35
251.081	-8.73
251.299	-27.26
251.517	-26.86
251.734	-26.09
251.952	-0.39
252.17	-12.02
252.387	-15.41
252.605	-12.69
252.823	-16.79
253.04	-5.21
253.258	2.65
253.475	19.41
253.693	3.78
253.911	-2.75
254.128	-18.3
254.346	-7.74
254.563	-4.31
254.781	-0.28
254.998	8.57
255.216	-4.04
255.433	-9.27
255.651	-4.39
255.868	-16.77
256.086	4.37
256.303	21.67
256.521	19.75
256.738	12.45
256.956	13.6
257.173	-31.12
257.39	-42.82
257.608	-40.39
257.825	-28.87
258.043	-16.55
258.26	-0.48
258.477	6.2
258.695	-3.48
258.912	-18.34
259.129	-41.43
259.346	-37.2
259.564	-23.21
259.781	-27.72
259.998	4.5
260.216	26.5
260.433	13.89
260.65	-3.52
260.867	11.18
261.084	-6.28
261.302	-33.75
261.519	-21.86
261.736	-6.47
261.953	-14.24
262.17	-5.26
262.387	-1.84
262.604	4.75
262.822	10.96
263.039	14.51
263.256	9.58
263.473	9.33
263.69	2.6
263.907	-8.17
264.124	-14.74
264.341	-2.67
264.558	-6.03
264.775	-11.2
264.992	-12.21
265.209	-37.18
265.426	-56.05
265.643	-42.05
265.86	-64.95
266.077	-51.32
266.294	-19.65
266.51	-3.17
266.727	-5.74
266.944	5.2
267.161	7.58
267.378	16.71
267.595	2.15
267.812	-16.05
268.028	-40.72
268.245	-40.11
268.462	-30.55
268.679	-23.66
268.896	-0.44
269.112	1.98
269.329	-18.92
269.546	-15.56
269.763	1.18
269.979	-0.75
270.196	12.92
270.413	19.55
270.629	6.77
270.846	-17.5
271.063	-18.56
271.279	-21.17
271.496	-36.5
271.712	-15.53
271.929	10.01
272.146	11.43
272.362	25.77
272.579	30.98
272.795	41.68
273.012	34.61
273.228	48.57
273.445	30.57
273.661	25.1
273.878	-2.09
274.094	-14.82
274.311	-34.15
274.527	-55.23
274.744	-25.69
274.96	-5.4
275.177	5.41
275.393	27.42
275.609	34.63
275.826	19.55
276.042	12.26
276.259	8.18
276.475	-9.95
276.691	-0.94
276.908	5
277.124	-1.2
277.34	4.94
277.557	-13.92
277.773	-40.8
277.989	-35.71
278.205	-18.27
278.422	-32.36
278.638	-14.15
278.854	-16.53
279.07	-0.84
279.286	-7.99
279.503	7.6
279.719	3.39
279.935	8.87
280.151	2.72
280.367	6.01
280.583	-9.9
280.799	-15.38
281.016	-42.86
281.232	-39.85
281.448	-39.36
281.664	-13.02
281.88	1.76
282.096	15.01
282.312	1.18
282.528	-5.53
282.744	-26.49
282.96	-60.7
283.176	-106.53
283.392	-141.09
283.608	-103.23
283.824	-125.72
284.04	-150.14
284.256	-81.07
284.471	-40.28
284.687	-43.26
284.903	-14.76
285.119	10.84
285.335	23.91
285.551	20.66
285.767	11.45
285.982	11.07
286.198	-20.7
286.414	-33.27
286.63	-49.59
286.846	-31.69
287.061	-32.99
287.277	-0.38
287.493	-20.12
287.709	-17.21
287.924	5.7
288.14	18.11
288.356	19.54
288.571	27.96
288.787	22.72
289.003	15.97
289.218	-20.99
289.434	-33.23
289.65	-5.04
289.865	0.22
290.081	5.42
290.296	20.01
290.512	10.22
290.727	-19.75
290.943	-14.43
291.159	-23.86
291.374	-55.64
291.59	-37.01
291.805	-34.45
292.021	-33.01
292.236	-23.79
292.451	-2.08
292.667	-8.71
292.882	2.13
293.098	-7.64
293.313	-20.55
293.529	-15.19
293.744	-9.08
293.959	-13.52
294.175	-7.17
294.39	-18.63
294.605	3.16
294.821	7.69
295.036	12.64
295.251	15.15
295.467	15.81
295.682	13.31
295.897	0.08
296.112	-0.57
296.328	5.41
296.543	3.85
296.758	-6.17
296.973	-14.37
297.188	-21.63
297.404	-61.38
297.619	-33.59
297.834	-41.74
298.049	-8.55
298.264	0.13
298.479	12.77
298.694	24.88
298.909	23.11
299.125	32.57
299.34	29.37
299.555	22.06
299.77	20.88
299.985	19.33
300.2	9.7
300.415	10.9
300.63	17.02
300.845	-0.83
301.06	-5.64
301.275	-9.58
301.49	9.17
301.704	6.54
301.919	6.1
302.134	9.42
302.349	7.3
302.564	-14.39
302.779	-29.96
302.994	-8.61
303.209	-15.03
303.423	-13.84
303.638	-14.79
303.853	-14.33
304.068	-56.92
304.283	-38.69
304.497	-57.47
304.712	-32.31
304.927	-12.98
305.142	-1.27
305.356	7.71
305.571	16
305.786	14.16
306	16.24
306.215	29
306.43	20.49
306.644	20.53
306.859	-1.07
307.074	9.41
307.288	13.48
307.503	15.89
307.717	7.7
307.932	22.94
308.147	14.45
308.361	6.38
308.576	-14.9
308.79	-0.89
309.005	-13.55
309.219	-8.47
309.434	2.19
309.648	8.78
309.863	10.82
310.077	15.23
310.292	24.53
310.506	9.24
310.72	0.3
310.935	15.57
311.149	4.88
311.364	-5.56
311.578	2.48
311.792	13.51
312.007	-25.24
312.221	-34.74
312.435	-20.9
312.649	-11.71
312.864	-0.21
313.078	3.52
313.292	13.48
313.507	19.18
313.721	11.72
313.935	-5.1
314.149	-15.64
314.363	-12.5
314.578	-21.24
314.792	-65.56
315.006	-58.26
315.22	-32.71
315.434	-40.22
315.648	-60.87
315.862	-37.71
316.077	-34.56
316.291	-36.7
316.505	-49.33
316.719	-14.03
316.933	-3.82
317.147	-16.33
317.361	-7.24
317.575	1.51
317.789	4.21
318.003	-4.91
318.217	19.85
318.431	8.68
318.645	-2.72
318.859	-13.33
319.073	-2.89
319.287	-11.49
319.5	-7.81
319.714	-3.36
319.928	3.48
320.142	-0.07
320.356	9.22
320.57	-7.48
320.784	-2.42
320.997	-34.28
321.211	-21.2
321.425	-54.24
321.639	-15.86
321.853	-14.64
322.066	-5.21
322.28	-25.66
322.494	-17.05
322.707	-21.81
322.921	-34.59
323.135	-32.49
323.349	-20.95
323.562	-11.87
323.776	-24.8
323.989	-9.73
324.203	-20.42
324.417	-17.71
324.63	-25.41
324.844	-31.55
325.057	-60.01
325.271	-42.38
325.485	-59.18
325.698	-38.92
325.912	-17.11
326.125	-11.91
326.339	-6.73
326.552	-7.91
326.766	-38.01
326.979	-50.54
327.193	-46.35
327.406	-60.77
327.619	-35
327.833	-19.25
328.046	-7.63
328.26	-13.29
328.473	-2.79
328.686	-17.46
328.9	-3.51
329.113	-18.78
329.326	-14.19
329.54	-0.35
329.753	11.87
329.966	7.9
330.179	14.68
330.393	17.13
330.606	-1.11
330.819	-19.77
331.032	-21.79
331.246	-16.37
331.459	-3.85
331.672	-10.86
331.885	0.26
332.098	6.45
332.311	5.28
332.525	-1.39
332.738	0.53
332.951	-10.47
333.164	-11.81
333.377	-12.29
333.59	-19.61
333.803	-8.9
334.016	-5.05
334.229	-8.33
334.442	-10
334.655	-7.76
334.868	-18.9
335.081	-11.09
335.294	-26.41
335.507	-21.98
335.72	-21.92
335.933	-17.98
336.146	-30.39
336.359	-10.09
336.572	-20.52
336.785	-32.62
336.997	-39.18
337.21	-17.14
337.423	-29.14
337.636	-11.22
337.849	-14.65
338.062	-3.19
338.274	-2.86
338.487	-10.04
338.7	-14.18
338.913	-3.93
339.125	-20.17
339.338	-11.57
339.551	-8.93
339.763	-7.96
339.976	-11.74
340.189	-8.54
340.402	-4.93
340.614	13.02
340.827	15
341.039	6.78
341.252	0.56
341.465	-14.45
341.677	-16.58
341.89	-23.89
342.102	-5.55
342.315	5.71
342.527	2.45
342.74	-7.32
342.952	-12.3
343.165	-21.62
343.377	-15.65
343.59	-25
343.802	-21.84
344.015	-7.14
344.227	0.2
344.44	-5.39
344.652	13.64
344.864	9.54
345.077	19.89
345.289	20.16
345.502	26.92
345.714	24.13
345.926	31.21
346.139	20.47
346.351	11.2
346.563	14.64
346.775	12.57
346.988	8.46
347.2	-9.66
347.412	-9.85
347.624	-13.94
347.837	-9.88
348.049	-13.82
348.261	-14.47
348.473	-23.61
348.685	-32.37
348.897	-54.97
349.11	-42.11
349.322	-33.06
349.534	-38.97
349.746	-33.56
349.958	-41.05
350.17	-71.65
350.382	-75.44
350.594	-49.14
350.806	-29.05
351.018	3.6
351.23	25.93
351.442	38.12
351.654	32.22
351.866	22.04
352.078	14.33
352.29	0.35
352.502	-8.63
352.714	-13.75
352.926	-7.08
353.138	-5.35
353.35	-8.16
353.561	-13.89
353.773	-6.52
353.985	1.97
354.197	4.56
354.409	9.1
354.621	1.95
354.832	-6.6
355.044	-27.86
355.256	-27.79
355.468	-23.56
355.679	4.54
355.891	12.44
356.103	19.73
356.314	14.11
356.526	-2.4
356.738	-8.12
356.949	-16.46
357.161	-18.91
357.373	-29.19
357.584	-11.17
357.796	-11.85
358.008	-0.28
358.219	6.22
358.431	7.19
358.642	12.97
358.854	16.23
359.065	3.59
359.277	-5.51
359.488	4.31
359.7	0.93
359.911	-10.79
360.123	11.07
360.334	10.68
360.546	9.18
360.757	1.84
360.969	1.56
361.18	-10.41
361.391	-3.29
361.603	-4.65
361.814	0.08
362.025	14.24
362.237	8.17
362.448	16.61
362.659	15.65
362.871	2.51
363.082	-7.15
363.293	-16.15
363.504	-26.49
363.716	-37.96
363.927	4.67
364.138	-16.6
364.349	-20.74
364.56	-35.75
364.772	-19.52
364.983	-27.93
365.194	-3.72
365.405	19.19
365.616	37.66
365.827	27.08
366.038	30.24
366.25	26.27
366.461	20.84
366.672	7.15
366.883	9.67
367.094	-8.09
367.305	-23.87
367.516	-19.89
367.727	-24.68
367.938	-16.59
368.149	-17.27
368.36	-8.36
368.571	-39.16
368.781	-29.28
368.992	-35.98
369.203	-22.87
369.414	-21.86
369.625	-8.77
369.836	-3.26
370.047	-3.31
370.258	-2.44
370.468	-4.49
370.679	0.07
370.89	-13.47
371.101	-4.41
371.312	-13.1
371.522	-20.86
371.733	-25.41
371.944	-26.26
372.155	-27.92
372.365	-22.46
372.576	-19.22
372.787	-7.34
372.997	-3.02
373.208	-7.38
373.419	-24.09
373.629	-19.19
373.84	-29.09
374.05	-33.44
374.261	-52.33
374.472	-16.06
374.682	-7.35
374.893	-14.59
375.103	-3.57
375.314	19.77
375.524	5.79
375.735	-0.68
375.945	14.66
376.156	5.69
376.366	-9.2
376.577	-0.72
376.787	8.05
376.997	3.05
377.208	8.11
377.418	13.2
377.629	11.49
377.839	9.58
378.049	9.28
378.26	4.39
378.47	-2.28
378.68	-8.4
378.89	-8.12
379.101	-10.17
379.311	-7.2
379.521	-7.51
379.732	1.28
379.942	-1.7
380.152	-8.9
380.362	-3.25
380.572	13.86
380.783	18.92
380.993	14.26
381.203	12.29
381.413	10.09
381.623	1.37
381.833	0.68
382.043	-2.51
382.253	6.64
382.463	15.73
382.674	21.49
382.884	14.94
383.094	17.34
383.304	21.02
383.514	17.72
383.724	8.54
383.934	1.61
384.144	4.66
384.353	-0.34
384.563	-7.63
384.773	-0.86
384.983	-3
385.193	-5.78
385.403	-1.22
385.613	2.38
385.823	-0.63
386.033	1.81
386.242	-1.01
386.452	-6.55
386.662	-9.79
386.872	-4.45
387.082	-3.08
387.291	-0.28
387.501	6.18
387.711	11.11
387.921	7.06
388.13	10.56
388.34	15.11
388.55	7.22
388.759	-0.18
388.969	4.5
389.179	5.32
389.388	-3.47
389.598	-2.49
389.807	1.52
390.017	-6.48
390.227	-10.82
390.436	-6.97
390.646	-6.29
390.855	-6.5
391.065	-2.06
391.274	-2.34
391.484	-1.67
391.693	-1.31
391.903	-1.62
392.112	-1.52
392.322	-0.4
392.531	-3.17
392.74	-5.26
392.95	-3.44
393.159	-3.79
393.369	-3.65
393.578	-0.39
393.787	1.22
393.997	0.69
394.206	0.06
394.415	1.61
394.625	0.55
394.834	0.6
395.043	1.09
395.252	3.39
395.462	2.87
395.671	3.05
395.88	3.93
396.089	3.32
396.298	2.41
396.508	3.62
396.717	3.03
396.926	2.4
397.135	2.88
397.344	2.31
397.553	1.19
397.762	2.83
397.971	2.47
398.181	2.28
398.39	1.82
398.599	2.14
398.808	1.42
399.017	2.54
399.226	2.93
399.435	3.33
399.644	3.59
399.853	3.68
400.062	3.58
400.27	3.15
400.479	3.31
400.688	3.19
400.897	3.03
401.106	2.8
401.315	2.83
401.524	2.7
401.733	2.3
401.941	2.19
402.15	2.12
402.359	2.11
402.568	2.33
402.777	2.65
402.985	2.43
403.194	2.4
403.403	2.92
403.612	2.74
403.82	2.41
404.029	2.93
404.238	3.1
404.446	2.99
404.655	3.13
404.864	3.48
405.072	3.35
405.281	3.22
405.489	2.97
405.698	3
405.906	3.03
406.115	2.89
406.324	2.86
406.532	2.94
406.741	3.01
406.949	2.91
407.158	2.97
407.366	2.94
407.574	3
407.783	2.94
407.991	3.01
408.2	3.16
408.408	3.18
408.617	3.06
408.825	2.9
409.033	2.77
409.242	2.67
409.45	2.68
409.658	2.63
409.867	2.8
410.075	2.86
410.283	2.8
410.491	2.68
410.7	2.7
410.908	2.66
411.116	2.72
411.324	2.74
411.533	2.82
411.741	2.82
411.949	2.78
412.157	2.71
412.365	2.75
412.573	2.79
412.781	2.82
412.99	2.81
413.198	2.85
413.406	2.85
413.614	2.96
413.822	3.01
414.03	3.04
414.238	2.97
414.446	3
414.654	2.87
414.862	2.81
415.07	2.73
415.278	2.75
415.486	2.55
415.694	2.66
415.902	2.65
416.109	2.65
416.317	2.7
416.525	2.81
416.733	2.64
416.941	2.61
417.149	2.49
417.357	2.5
417.564	2.46
417.772	2.53
417.98	2.55
418.188	2.55
418.395	2.28
418.603	2.23
418.811	2.16
419.019	2.13
419.226	2.32
419.434	2.43
419.642	2.31
419.849	2.22
420.057	2.22
420.265	2.03
420.472	2.01
420.68	2.22
420.887	2.29
421.095	2.3
421.302	2.4
421.51	2.51
421.717	2.5
421.925	2.6
422.132	2.48
422.34	2.38
422.547	2.26
422.755	2.23
422.962	2.16
423.17	2.05
423.377	2.14
423.585	2.3
423.792	2.2
423.999	2.31
424.207	2.34
424.414	2.3
424.621	2.17
424.829	2.38
425.036	2.31
425.243	2.54
425.451	2.56
425.658	2.51
425.865	2.48
426.072	2.47
426.28	2.5
426.487	2.45
426.694	2.46
426.901	2.43
427.108	2.23
427.315	2.05
427.523	1.95
427.73	1.94
427.937	1.8
428.144	2.07
428.351	2.14
428.558	2.32
428.765	2.3
428.972	2.43
429.179	2.06
429.386	2.08
429.593	1.93
429.8	1.91
430.007	1.93
430.214	2.13
430.421	2.19
430.628	2.25
430.835	2.4
431.042	2.29
431.249	2.29
431.456	2.28
431.662	2.47
431.869	2.51
432.076	2.66
432.283	2.8
432.49	2.71
432.697	2.67
432.903	2.59
433.11	2.51
433.317	2.57
433.524	2.65
433.73	2.59
433.937	2.73
434.144	2.64
434.35	2.5
434.557	2.56
434.764	2.56
434.97	2.39
435.177	2.51
435.384	2.61
435.59	2.5
435.797	2.57
436.003	2.58
436.21	2.51
436.416	2.49
436.623	2.6
436.829	2.53
437.036	2.56
437.242	2.7
437.449	2.63
437.655	2.68
437.862	2.74
438.068	2.74
438.275	2.72
438.481	2.78
438.687	2.65
438.894	2.7
439.1	2.56
439.307	2.6
439.513	2.6
439.719	2.7
439.926	2.64
440.132	2.81
440.338	2.71
440.544	2.76
440.751	2.63
440.957	2.72
441.163	2.62
441.369	2.7
441.575	2.58
441.782	2.68
441.988	2.65
442.194	2.65
442.4	2.61
442.606	2.79
442.812	2.79
443.018	2.77
443.224	2.91
443.431	2.91
443.637	2.77
443.843	2.82
444.049	2.92
444.255	2.92
444.461	2.78
444.667	2.79
444.873	2.74
445.079	2.75
445.284	2.7
445.49	2.85
445.696	2.89
445.902	2.9
446.108	2.83
446.314	2.89
446.52	3.03
446.726	3.11
446.931	3.05
447.137	3.04
447.343	3.07
447.549	3.01
447.755	2.9
447.96	3
448.166	3.12
448.372	3.05
448.578	3
448.783	3.07
448.989	3.09
449.195	3.01
449.4	3.1
449.606	3.12
449.812	2.98
450.017	2.98
450.223	2.89
450.428	2.8
450.634	2.75
450.84	2.83
451.045	2.79
451.251	2.96
451.456	3.08
451.662	3.23
451.867	3.31
452.073	3.4
452.278	3.34
452.483	3.31
452.689	3.31
452.894	3.31
453.1	3.22
453.305	3.18
453.51	3.23
453.716	3.11
453.921	3.12
454.127	3.14
454.332	3.14
454.537	3.1
454.742	3.09
454.948	3.04
455.153	3.07
455.358	3.09
455.563	3.2
455.769	3.28
455.974	3.33
456.179	3.25
456.384	3.19
456.589	3
456.795	3.03
457	2.89
457.205	2.93
457.41	2.93
457.615	2.97
457.82	3.02
458.025	3.12
458.23	3.12
458.435	3.16
458.64	3.21
458.845	3.07
459.05	3.12
459.255	3.08
459.46	3.04
459.665	2.97
459.87	3
460.075	3
460.28	3.07
460.485	3.22
460.69	3.25
460.895	3.29
461.099	3.22
461.304	3.11
461.509	3.06
461.714	3.12
461.919	3.1
462.123	3.12
462.328	3.1
462.533	2.96
462.738	2.83
462.942	2.83
463.147	2.85
463.352	2.94
463.556	3.08
463.761	3.19
463.966	3.24
464.17	3.35
464.375	3.37
464.58	3.3
464.784	3.23
464.989	3.22
465.193	3.08
465.398	3.1
465.602	3.17
465.807	3.25
466.011	3.22
466.216	3.22
466.42	3.23
466.625	3.28
466.829	3.24
467.034	3.32
467.238	3.43
467.443	3.44
467.647	3.37
467.851	3.37
468.056	3.33
468.26	3.36
468.464	3.34
468.669	3.44
468.873	3.54
469.077	3.55
469.282	3.48
469.486	3.5
469.69	3.47
469.894	3.42
470.099	3.47
470.303	3.44
470.507	3.43
470.711	3.41
470.915	3.42
471.119	3.44
471.324	3.6
471.528	3.66
471.732	3.73
471.936	3.7
472.14	3.62
472.344	3.61
472.548	3.67
472.752	3.62
472.956	3.71
473.16	3.75
473.364	3.7
473.568	3.62
473.772	3.62
473.976	3.74
474.18	3.85
474.384	3.85
474.588	3.93
474.792	3.99
474.995	3.91
475.199	3.87
475.403	3.87
475.607	3.9
475.811	3.87
476.015	3.73
476.218	3.66
476.422	3.77
476.626	3.73
476.83	3.84
477.033	4.01
477.237	4.08
477.441	3.99
477.644	4.02
477.848	3.99
478.052	4.02
478.255	4.04
478.459	3.99
478.663	4.07
478.866	4.12
479.07	4.02
479.273	4.08
479.477	4.17
479.681	4.2
479.884	4.12
480.088	4.21
480.291	4.12
480.495	4.15
480.698	4.09
480.901	4.17
481.105	4.14
481.308	4.21
481.512	4.27
481.715	4.29
481.919	4.27
482.122	4.28
482.325	4.32
482.529	4.33
482.732	4.3
482.935	4.29
483.138	4.3
483.342	4.29
483.545	4.3
483.748	4.34
483.952	4.4
484.155	4.4
484.358	4.44
484.561	4.41
484.764	4.38
484.967	4.33
485.171	4.36
485.374	4.3
485.577	4.33
485.78	4.34
485.983	4.32
486.186	4.29
486.389	4.33
486.592	4.32
486.795	4.4
486.998	4.43
487.201	4.46
487.404	4.53
487.607	4.45
487.81	4.38
488.013	4.37
488.216	4.37
488.419	4.31
488.622	4.38
488.825	4.46
489.028	4.44
489.231	4.44
489.433	4.43
489.636	4.39
489.839	4.36
490.042	4.43
490.245	4.41
490.447	4.41
490.65	4.47
490.853	4.47
491.056	4.43
491.258	4.48
491.461	4.51
491.664	4.48
491.866	4.45
492.069	4.5
492.272	4.42
492.474	4.46
492.677	4.47
492.879	4.49
493.082	4.49
493.285	4.61
493.487	4.62
493.69	4.58
493.892	4.57
494.095	4.61
494.297	4.59
494.5	4.56
494.702	4.62
494.905	4.67
495.107	4.66
495.309	4.69
495.512	4.64
495.714	4.64
495.917	4.66
496.119	4.72
496.321	4.66
496.524	4.65
496.726	4.6
496.928	4.59
497.13	4.45
497.333	4.41
497.535	4.5
497.737	4.56
497.939	4.52
498.142	4.58
498.344	4.65
498.546	4.67
498.748	4.73
498.95	4.74
499.152	4.77
499.355	4.75
499.557	4.71
499.759	4.73
499.961	4.77
500.163	4.76
500.365	4.83
500.567	4.86
500.769	4.83
500.971	4.85
501.173	4.85
501.375	4.93
501.577	4.95
501.779	4.95
501.981	4.95
502.183	4.94
502.385	4.86
502.587	4.86
502.788	4.92
502.99	4.93
503.192	4.99
503.394	5.06
503.596	5.06
503.798	5.01
503.999	4.99
504.201	4.95
504.403	4.94
504.605	4.93
504.806	4.96
505.008	4.99
505.21	5.08
505.411	5.03
505.613	5.05
505.815	5.12
506.016	5.2
506.218	5.2
506.42	5.21
506.621	5.29
506.823	5.26
507.024	5.19
507.226	5.21
507.427	5.27
507.629	5.26
507.83	5.21
508.032	5.3
508.233	5.31
508.435	5.34
508.636	5.43
508.838	5.53
509.039	5.54
509.24	5.54
509.442	5.56
509.643	5.5
509.845	5.49
510.046	5.53
510.247	5.66
510.448	5.7
510.65	5.75
510.851	5.77
511.052	5.77
511.254	5.75
511.455	5.72
511.656	5.69
511.857	5.7
512.058	5.73
512.26	5.72
512.461	5.75
512.662	5.81
512.863	5.75
513.064	5.71
513.265	5.64
513.466	5.71
513.667	5.79
513.868	5.86
514.069	5.89
514.27	5.92
514.471	5.87
514.672	5.8
514.873	5.75
515.074	5.75
515.275	5.74
515.476	5.79
515.677	5.83
515.878	5.93
516.079	5.95
516.28	5.98
516.481	5.94
516.682	5.92
516.882	5.89
517.083	5.89
517.284	5.92
517.485	5.95
517.686	5.99
517.886	5.99
518.087	6.03
518.288	6.04
518.488	6.05
518.689	6.07
518.89	6.1
519.091	6.17
519.291	6.09
519.492	6.14
519.692	6.12
519.893	6.11
520.094	6.05
520.294	6.16
520.495	6.12
520.695	6.16
520.896	6.21
521.096	6.26
521.297	6.3
521.497	6.33
521.698	6.32
521.898	6.34
522.099	6.36
522.299	6.34
522.499	6.29
522.7	6.33
522.9	6.3
523.101	6.25
523.301	6.23
523.501	6.31
523.702	6.33
523.902	6.34
524.102	6.39
524.302	6.44
524.503	6.43
524.703	6.4
524.903	6.43
525.103	6.41
525.304	6.42
525.504	6.44
525.704	6.5
525.904	6.51
526.104	6.53
526.304	6.53
526.504	6.54
526.705	6.49
526.905	6.48
527.105	6.51
527.305	6.56
527.505	6.54
527.705	6.55
527.905	6.63
528.105	6.6
528.305	6.57
528.505	6.55
528.705	6.61
528.905	6.63
529.105	6.65
529.304	6.72
529.504	6.8
529.704	6.78
529.904	6.78
530.104	6.81
530.304	6.75
530.503	6.79
530.703	6.78
530.903	6.75
531.103	6.77
531.303	6.85
531.502	6.86
531.702	6.9
531.902	7
532.101	6.96
532.301	7
532.501	7.07
532.7	7.1
532.9	7.14
533.1	7.15
533.299	7.14
533.499	7.04
533.698	7.05
533.898	7.03
534.097	7.1
534.297	7.13
534.496	7.15
534.696	7.14
534.895	7.12
535.095	7.13
535.294	7.16
535.494	7.18
535.693	7.22
535.892	7.24
536.092	7.22
536.291	7.19
536.491	7.24
536.69	7.25
536.889	7.21
537.088	7.25
537.288	7.23
537.487	7.21
537.686	7.19
537.886	7.24
538.085	7.25
538.284	7.35
538.483	7.35
538.682	7.42
538.882	7.44
539.081	7.47
539.28	7.4
539.479	7.51
539.678	7.51
539.877	7.61
540.076	7.64
540.275	7.74
540.474	7.75
540.673	7.82
540.872	7.77
541.071	7.81
541.27	7.8
541.469	7.77
541.668	7.75
541.867	7.81
542.066	7.82
542.265	7.88
542.464	7.92
542.663	7.97
542.862	8.05
543.06	8.1
543.259	8.14
543.458	8.25
543.657	8.32
543.856	8.31
544.054	8.3
544.253	8.32
544.452	8.32
544.651	8.29
544.849	8.32
545.048	8.39
545.247	8.46
545.445	8.48
545.644	8.53
545.843	8.58
546.041	8.54
546.24	8.54
546.438	8.62
546.637	8.67
546.836	8.77
547.034	8.86
547.233	8.98
547.431	8.97
547.63	9.01
547.828	9.01
548.027	9.09
548.225	9.02
548.423	9.07
548.622	9.13
548.82	9.15
549.019	9.16
549.217	9.33
549.415	9.36
549.614	9.49
549.812	9.55
550.01	9.59
550.209	9.56
550.407	9.63
550.605	9.54
550.803	9.56
551.002	9.61
551.2	9.59
551.398	9.64
551.596	9.77
551.794	9.84
551.993	9.93
552.191	10.11
552.389	10.16
552.587	10.21
552.785	10.24
552.983	10.39
553.181	10.38
553.379	10.47
553.577	10.54
553.775	10.71
553.973	10.69
554.171	10.78
554.369	10.87
554.567	10.99
554.765	11.02
554.963	11.08
555.161	11.13
555.359	11.1
555.557	11.05
555.755	11.17
555.952	11.26
556.15	11.4
556.348	11.53
556.546	11.71
556.744	11.74
556.941	11.78
557.139	11.81
557.337	11.92
557.535	11.96
557.732	11.99
557.93	12.13
558.128	12.2
558.325	12.22
558.523	12.31
558.721	12.41
558.918	12.55
559.116	12.73
559.313	12.84
559.511	12.99
559.708	13.13
559.906	13.22
560.104	13.22
560.301	13.33
560.498	13.37
560.696	13.45
560.893	13.51
561.091	13.61
561.288	13.76
561.486	13.77
561.683	13.83
561.88	13.98
562.078	14.05
562.275	14.13
562.473	14.26
562.67	14.37
562.867	14.41
563.064	14.54
563.262	14.57
563.459	14.7
563.656	14.76
563.853	14.78
564.051	14.86
564.248	14.95
564.445	15
564.642	15.17
564.839	15.31
565.036	15.42
565.234	15.58
565.431	15.68
565.628	15.72
565.825	15.78
566.022	15.84
566.219	15.85
566.416	15.97
566.613	16.13
566.81	16.21
567.007	16.27
567.204	16.42
567.401	16.49
567.598	16.5
567.795	16.56
567.991	16.62
568.188	16.62
568.385	16.7
568.582	16.77
568.779	16.9
568.976	17
569.172	17.08
569.369	17.07
569.566	17.08
569.763	17.03
569.96	17.13
570.156	17.2
570.353	17.32
570.55	17.43
570.746	17.57
570.943	17.59
571.14	17.6
571.336	17.59
571.533	17.59
571.729	17.56
571.926	17.58
572.123	17.67
572.319	17.74
572.516	17.81
572.712	17.84
572.909	17.83
573.105	17.84
573.302	17.85
573.498	17.89
573.695	18
573.891	18
574.087	17.92
574.284	17.97
574.48	18.03
574.677	17.94
574.873	18.04
575.069	18.2
575.266	18.21
575.462	18.16
575.658	18.27
575.854	18.27
576.051	18.2
576.247	18.17
576.443	18.19
576.639	18.12
576.835	18.11
577.032	18.2
577.228	18.28
577.424	18.27
577.62	18.35
577.816	18.31
578.012	18.32
578.208	18.26
578.404	18.26
578.6	18.27
578.796	18.36
578.993	18.34
579.189	18.36
579.384	18.35
579.58	18.33
579.776	18.28
579.972	18.29
580.168	18.28
580.364	18.29
580.56	18.26
580.756	18.26
580.952	18.19
581.148	18.2
581.343	18.26
581.539	18.32
581.735	18.31
581.931	18.33
582.127	18.3
582.322	18.18
582.518	18.08
582.714	18.11
582.909	18.12
583.105	18.1
583.301	18.2
583.496	18.2
583.692	18.07
583.888	18.04
584.083	18.06
584.279	17.93
584.474	17.86
584.67	17.9
584.866	17.86
585.061	17.82
585.257	17.9
585.452	17.94
585.648	17.92
585.843	17.95
586.039	17.96
586.234	18.01
586.429	18.01
586.625	18.11
586.82	18.22
587.015	18.16
587.211	18.13
587.406	18.23
587.601	18.2
587.797	18.13
587.992	18.2
588.187	18.1
588.383	18.01
588.578	18.01
588.773	18.04
588.968	18.08
589.163	18.27
589.359	18.23
589.554	18.28
589.749	18.24
589.944	18.29
590.139	18.19
590.334	18.28
590.529	18.18
590.724	18.26
590.919	18.32
591.114	18.38
591.309	18.46
591.504	18.54
591.699	18.46
591.894	18.35
592.089	18.29
592.284	18.26
592.479	18.35
592.674	18.45
592.869	18.49
593.064	18.68
593.259	18.73
593.454	18.77
593.648	18.79
593.843	18.79
594.038	18.79
594.233	18.81
594.428	18.86
594.622	18.97
594.817	19.2
595.012	19.18
595.206	19.26
595.401	19.38
595.596	19.29
595.79	19.28
595.985	19.29
596.18	19.35
596.374	19.39
596.569	19.57
596.763	19.67
596.958	19.86
597.153	19.93
597.347	19.93
597.542	20.03
597.736	20.04
597.931	20.07
598.125	20.17
598.319	20.3
598.514	20.29
598.708	20.3
598.903	20.35
599.097	20.44
599.291	20.45
599.486	20.6
599.68	20.68
599.874	20.79
600.069	20.74
600.263	20.78
600.457	20.73
600.651	20.73
600.846	20.72
601.04	20.73
601.234	20.72
601.428	20.75
601.622	20.8
601.817	20.86
602.011	20.93
602.205	20.95
602.399	20.93
602.593	20.99
602.787	20.93
602.981	20.85
603.175	20.91
603.369	20.91
603.563	20.87
603.757	20.84
603.951	20.95
604.145	20.88
604.339	20.88
604.533	20.95
604.727	21.02
604.921	20.99
605.115	20.99
605.309	20.96
605.502	20.97
605.696	20.99
605.89	21.01
606.084	21
606.278	21.07
606.471	20.96
606.665	20.82
606.859	20.68
607.053	20.58
607.246	20.45
607.44	20.32
607.634	20.38
607.827	20.32
608.021	20.3
608.214	20.27
608.408	20.32
608.602	20.24
608.795	20.33
608.989	20.3
609.182	20.34
609.376	20.23
609.569	20.22
609.763	20.09
609.956	20.06
610.15	19.86
610.343	19.87
610.537	19.73
610.73	19.57
610.923	19.55
611.117	19.61
611.31	19.47
611.504	19.45
611.697	19.45
611.89	19.36
612.083	19.23
612.277	19.2
612.47	19.08
612.663	19.03
612.856	18.98
613.05	18.96
613.243	18.82
613.436	18.78
613.629	18.7
613.822	18.62
614.015	18.57
614.209	18.51
614.402	18.4
614.595	18.4
614.788	18.32
614.981	18.16
615.174	18.11
615.367	18
615.56	17.8
615.753	17.78
615.946	17.75
616.139	17.7
616.332	17.73
616.525	17.76
616.718	17.62
616.911	17.6
617.103	17.58
617.296	17.54
617.489	17.44
617.682	17.49
617.875	17.48
618.067	17.51
618.26	17.42
618.453	17.41
618.646	17.35
618.838	17.27
619.031	17.22
619.224	17.22
619.417	17.28
619.609	17.23
619.802	17.16
619.994	17.06
620.187	16.95
620.38	16.86
620.572	16.82
620.765	16.79
620.957	16.78
621.15	16.77
621.342	16.74
621.535	16.65
621.727	16.65
621.92	16.6
622.112	16.67
622.305	16.65
622.497	16.65
622.69	16.66
622.882	16.6
623.074	16.63
623.267	16.56
623.459	16.56
623.651	16.5
623.844	16.62
624.036	16.57
624.228	16.58
624.42	16.5
624.613	16.47
624.805	16.39
624.997	16.29
625.189	16.26
625.381	16.26
625.574	16.2
625.766	16.13
625.958	16.2
626.15	16.13
626.342	16.1
626.534	16.09
626.726	16.15
626.918	16.05
627.11	16.06
627.302	16
627.494	16
627.686	15.84
627.878	15.76
628.07	15.72
628.262	15.78
628.454	15.76
628.646	15.76
628.838	15.85
629.029	15.8
629.221	15.69
629.413	15.66
629.605	15.59
629.797	15.5
629.989	15.48
630.18	15.54
630.372	15.49
630.564	15.5
630.755	15.44
630.947	15.43
631.139	15.34
631.33	15.37
631.522	15.37
631.714	15.28
631.905	15.23
632.097	15.19
632.289	15.04
632.48	15.02
632.672	15.08
632.863	14.96
633.055	14.98
633.246	15.07
633.438	15
633.629	14.98
633.821	14.96
634.012	14.89
634.203	14.86
634.395	14.86
634.586	14.8
634.777	14.92
634.969	14.92
635.16	14.86
635.351	14.84
635.543	14.76
635.734	14.69
635.925	14.72
636.117	14.77
636.308	14.82
636.499	14.87
636.69	14.82
636.881	14.8
637.073	14.79
637.264	14.72
637.455	14.69
637.646	14.69
637.837	14.62
638.028	14.5
638.219	14.58
638.41	14.6
638.601	14.59
638.792	14.62
638.983	14.63
639.174	14.47
639.365	14.42
639.556	14.39
639.747	14.34
639.938	14.39
640.129	14.44
640.32	14.47
640.511	14.47
640.701	14.4
640.892	14.29
641.083	14.18
641.274	14.03
641.465	14
641.655	14.07
641.846	14
642.037	13.99
642.228	13.97
642.418	13.84
642.609	13.78
642.8	13.77
642.99	13.79
643.181	13.85
643.372	13.84
643.562	13.81
643.753	13.84
643.943	13.76
644.134	13.66
644.324	13.73
644.515	13.65
644.705	13.61
644.896	13.64
645.086	13.57
645.277	13.53
645.467	13.57
645.658	13.5
645.848	13.44
646.038	13.51
646.229	13.5
646.419	13.39
646.61	13.44
646.8	13.43
646.99	13.32
647.18	13.18
647.371	13.25
647.561	13.15
647.751	13.08
647.941	13.1
648.132	13.19
648.322	13.09
648.512	13.08
648.702	13.15
648.892	13.2
649.082	13.17
649.272	13.21
649.462	13.17
649.653	13.09
649.843	13.01
650.033	13.04
650.223	13.01
650.413	13.02
650.603	13.03
650.793	13
650.983	12.9
651.172	12.87
651.362	12.76
651.552	12.71
651.742	12.75
651.932	12.74
652.122	12.71
652.312	12.77
652.502	12.64
652.691	12.55
652.881	12.46
653.071	12.41
653.261	12.36
653.45	12.46
653.64	12.32
653.83	12.29
654.019	12.23
654.209	12.11
654.399	11.94
654.588	11.98
654.778	11.87
654.968	11.77
655.157	11.67
655.347	11.52
655.536	11.34
655.726	11.08
655.915	10.98
656.105	10.91
656.294	10.79
656.484	10.64
656.673	10.71
656.863	10.72
657.052	10.51
657.241	10.47
657.431	10.47
657.62	10.36
657.809	10.12
657.999	10.17
658.188	10.04
658.377	9.87
658.567	9.81
658.756	9.69
658.945	9.53
659.134	9.41
659.324	9.38
659.513	9.09
659.702	8.93
659.891	8.81
660.08	8.72
660.269	8.49
660.458	8.43
660.648	8.39
660.837	8.26
661.026	8.16
661.215	8.15
661.404	8.07
661.593	7.97
661.782	7.8
661.971	7.6
662.16	7.44
662.349	7.25
662.538	7.15
662.726	7.03
662.915	7.05
663.104	6.91
663.293	6.93
663.482	6.86
663.671	6.85
663.86	6.72
664.048	6.78
664.237	6.71
664.426	6.61
664.615	6.54
664.803	6.44
664.992	6.25
665.181	6.13
665.369	5.99
665.558	5.94
665.747	6.03
665.935	6
666.124	6.02
666.312	6.06
666.501	6.04
666.69	5.91
666.878	5.92
667.067	5.81
667.255	5.71
667.444	5.73
667.632	5.83
667.82	5.81
668.009	5.86
668.197	5.94
668.386	5.79
668.574	5.65
668.762	5.59
668.951	5.56
669.139	5.5
669.327	5.57
669.516	5.63
669.704	5.65
669.892	5.61
670.08	5.65
670.269	5.66
670.457	5.6
670.645	5.62
670.833	5.74
671.021	5.8
671.21	5.79
671.398	5.88
671.586	5.91
671.774	5.99
671.962	5.98
672.15	6.1
672.338	6.18
672.526	6.27
672.714	6.19
672.902	6.2
673.09	6.15
673.278	6.18
673.466	6.24
673.654	6.34
673.842	6.46
674.03	6.63
674.218	6.69
674.405	6.72
674.593	6.75
674.781	6.73
674.969	6.77
675.157	6.75
675.344	6.84
675.532	6.77
675.72	6.9
675.908	6.87
676.095	6.93
676.283	7.01
676.471	7.25
676.658	7.33
676.846	7.41
677.033	7.49
677.221	7.54
677.409	7.55
677.596	7.54
677.784	7.71
677.971	7.59
678.159	7.58
678.346	7.66
678.534	7.8
678.721	7.85
678.909	8.16
679.096	8.29
679.283	8.3
679.471	8.31
679.658	8.43
679.846	8.4
680.033	8.58
680.22	8.83
680.408	8.84
680.595	8.91
680.782	9.18
680.969	9.31
681.157	9.32
681.344	9.4
681.531	9.44
681.718	9.39
681.905	9.42
682.093	9.54
682.28	9.69
682.467	9.82
682.654	9.94
682.841	10.06
683.028	10.23
683.215	10.49
683.402	10.48
683.589	10.67
683.776	10.74
683.963	10.86
684.15	10.95
684.337	11.26
684.524	11.54
684.711	11.84
684.898	11.99
685.085	12.23
685.271	12.59
685.458	12.76
685.645	12.83
685.832	13.14
686.019	13.39
686.205	13.57
686.392	13.82
686.579	14.19
686.766	14.36
686.952	14.65
687.139	14.99
687.326	15.3
687.512	15.52
687.699	16.05
687.886	16.34
688.072	16.63
688.259	17.05
688.445	17.57
688.632	17.84
688.818	18.33
689.005	18.6
689.191	18.86
689.378	19.28
689.564	19.66
689.751	20.19
689.937	20.89
690.124	21.44
690.31	21.73
690.496	22.43
690.683	22.92
690.869	23.24
691.055	23.78
691.242	24.4
691.428	24.81
691.614	25.08
691.8	25.73
691.987	26.6
692.173	27.22
692.359	27.9
692.545	28.64
692.731	29.17
692.918	29.34
693.104	30
693.29	30.51
693.476	31.23
693.662	31.81
693.848	32.6
694.034	33.41
694.22	33.94
694.406	34.58
694.592	35.41
694.778	35.92
694.964	36.51
695.15	37.38
695.336	37.81
695.522	38.45
695.708	39.25
695.894	39.88
696.08	40.51
696.265	41.21
696.451	41.79
696.637	42.57
696.823	42.94
697.009	43.51
697.194	44.29
697.38	44.93
697.566	45.31
697.751	46.21
697.937	46.88
698.123	47.36
698.308	47.78
698.494	48.76
698.68	49.22
698.865	49.73
699.051	50.35
699.236	51.03
699.422	51.23
699.607	51.88
699.793	52.67
699.978	53.44
700.164	53.91
700.349	54.68
700.535	55.02
700.72	55.3
700.906	55.4
701.091	56.01
701.276	56.19
701.462	56.53
701.647	57
701.832	57.7
702.018	58.21
702.203	58.88
702.388	59.62
702.573	60.16
702.759	60.68
702.944	60.96
703.129	61.31
703.314	61.43
703.499	61.8
703.684	62.15
703.87	62.47
704.055	62.98
704.24	63.52
704.425	63.79
704.61	64.08
704.795	64.78
704.98	64.89
705.165	65.46
705.35	65.99
705.535	66.5
705.72	66.49
705.905	67.11
706.09	67.37
706.275	67.62
706.459	67.77
706.644	68.09
706.829	68.53
707.014	68.77
707.199	69.09
707.384	69.28
707.568	69.54
707.753	69.83
707.938	70.18
708.123	70.4
708.307	71.14
708.492	71.62
708.677	71.56
708.861	71.61
709.046	71.9
709.231	71.57
709.415	71.82
709.6	71.84
709.784	72.03
709.969	72.66
710.153	73.31
710.338	73.92
710.522	74.77
710.707	75.01
710.891	74.58
711.076	74.51
711.26	74.39
711.445	74.26
711.629	74.7
711.813	75.14
711.998	75.65
712.182	75.54
712.366	76.06
712.551	76.33
712.735	76.58
712.919	76.73
713.103	77.31
713.288	77.02
713.472	77.55
713.656	77.41
713.84	77.53
714.024	77.37
714.208	77.34
714.393	76.99
714.577	77.47
714.761	77.6
714.945	78.14
715.129	78.84
715.313	78.88
715.497	78.84
715.681	78.84
715.865	78.58
716.049	78.42
716.233	78.35
716.417	78.54
716.601	78.78
716.785	79.19
716.968	79.1
717.152	79.3
717.336	79.28
717.52	79.27
717.704	79.49
717.888	79.75
718.071	79.96
718.255	80.21
718.439	80.29
718.622	80.3
718.806	80.46
718.99	80.83
719.174	81.2
719.357	81.73
719.541	81.85
719.724	82.09
719.908	82.21
720.092	81.63
720.275	81.65
720.459	82.05
720.642	81.81
720.826	81.93
721.009	82.59
721.193	82.28
721.376	82.38
721.559	82.87
721.743	83.2
721.926	83.11
722.11	83.71
722.293	83.82
722.476	83.72
722.66	84.19
722.843	84.22
723.026	84.56
723.21	84.04
723.393	84.5
723.576	83.84
723.759	84.36
723.942	84.15
724.126	84.82
724.309	84.79
724.492	84.78
724.675	84.74
724.858	85.29
725.041	85
725.224	85.55
725.407	86.54
725.59	86.48
725.774	85.45
725.957	85.71
726.14	85.3
726.322	84.86
726.505	84.93
726.688	85.79
726.871	85.58
727.054	85.98
727.237	86.42
727.42	86.54
727.603	86.54
727.786	87.26
727.968	86.74
728.151	85.82
728.334	86.27
728.517	86.37
728.699	86.36
728.882	86.34
729.065	86.43
729.248	86.31
729.43	85.94
729.613	85.6
729.796	86.4
729.978	86.88
730.161	86.98
730.343	87.2
730.526	86.98
730.708	86.59
730.891	87.07
731.073	86.88
731.256	87.21
731.438	88.24
731.621	88.63
731.803	88.19
731.986	88.89
732.168	89.03
732.35	88.81
732.533	88.85
732.715	89.37
732.898	88.94
733.08	89.41
733.262	89.43
733.444	90.38
733.627	90.8
733.809	91.65
733.991	90.99
734.173	90.87
734.355	89.72
734.538	89.68
734.72	88.98
734.902	89.8
735.084	90
735.266	90.6
735.448	90.94
735.63	91.2
735.812	90.92
735.994	91.69
736.176	92.12
736.358	91.74
736.54	92.39
736.722	91.8
736.904	90.81
737.086	90.27
737.268	90.85
737.45	90.86
737.632	91.64
737.814	92.22
737.995	92.27
738.177	91.3
738.359	91.81
738.541	91.85
738.723	92.18
738.904	92.3
739.086	93.71
739.268	92.39
739.449	91.7
739.631	91.09
739.813	90.58
739.994	89.45
740.176	90.26
740.358	91.58
740.539	91.6
740.721	93.09
740.902	92.92
741.084	92.83
741.265	93.05
741.447	93.41
741.628	92.83
741.81	93.7
741.991	93.85
742.172	92.41
742.354	92.28
742.535	92.17
742.717	91.56
742.898	91.28
743.079	93.25
743.261	93.13
743.442	91.99
743.623	92.36
743.804	92.49
743.986	91.44
744.167	91.97
744.348	92.53
744.529	92.61
744.71	92.29
744.891	91.58
745.073	91.53
745.254	91.53
745.435	90.74
745.616	90.48
745.797	90.78
745.978	90.42
746.159	90.23
746.34	91.5
746.521	92.01
746.702	92.92
746.883	93.7
747.064	93.5
747.245	92.98
747.426	94.07
747.606	93.26
747.787	93.03
747.968	92.83
748.149	90.66
748.33	88.86
748.51	88.04
748.691	88.01
748.872	90.36
749.053	91.45
749.233	92.24
749.414	93.01
749.595	92.82
749.775	90.91
749.956	91.87
750.137	90.81
750.317	90.42
750.498	90.48
750.678	91.01
750.859	91.11
751.04	92.18
751.22	91.51
751.4	92.19
751.581	92.68
751.761	93.22
751.942	93.48
752.122	93.62
752.303	93.18
752.483	93
752.663	92.25
752.844	91.84
753.024	93.49
753.204	92.75
753.385	91.62
753.565	91.1
753.745	91.47
753.925	89.55
754.106	90.25
754.286	90.67
754.466	91.43
754.646	90.93
754.826	92.38
755.006	90.99
755.187	91.68
755.367	90.29
755.547	90.12
755.727	90.58
755.907	91.05
756.087	90.1
756.267	89.57
756.447	89.17
756.627	88.7
756.807	89.75
756.987	90.36
757.167	90.72
757.346	90.06
757.526	91.3
757.706	91.06
757.886	90.63
758.066	91.96
758.246	91.79
758.425	89.65
758.605	87.85
758.785	87.96
758.965	87.26
759.144	87.95
759.324	89.06
759.504	91.75
759.683	90.55
759.863	92
760.043	90.4
760.222	89.46
760.402	87.07
760.581	87.32
760.761	84.96
760.94	86.9
761.12	86.13
761.299	87.83
761.479	89.73
761.658	90.36
761.838	91.2
762.017	93.09
762.197	91.74
762.376	90.78
762.555	90.35
762.735	90.1
762.914	88.33
763.093	88.02
763.273	87.94
763.452	87.36
763.631	85.99
763.81	86.56
763.99	86.23
764.169	86.58
764.348	87.69
764.527	88.31
764.706	87.76
764.885	89.38
765.064	90.43
765.243	89.95
765.423	90.59
765.602	90.48
765.781	88.97
765.96	87.47
766.139	87.26
766.318	88.39
766.497	88.71
766.676	87.61
766.854	87.84
767.033	89.05
767.212	88.1
767.391	88.97
767.57	93.36
767.749	91.32
767.928	92.34
768.106	90.51
768.285	87.64
768.464	85.31
768.643	85.53
768.821	84.01
769	84.39
769.179	87.15
769.357	87.51
769.536	87.02
769.715	86.17
769.893	87.29
770.072	86.39
770.25	84.3
770.429	85.08
770.607	86.45
770.786	84.82
770.964	84.5
771.143	85.85
771.321	85.53
771.5	84.54
771.678	85.73
771.857	83.63
772.035	82.45
772.213	83.28
772.392	82.18
772.57	81.4
772.748	82.52
772.927	83.72
773.105	84.53
773.283	85.68
773.461	87.55
773.64	88.88
773.818	89.59
773.996	90.14
774.174	90.11
774.352	87.82
774.531	87.48
774.709	86.52
774.887	83.36
775.065	83.77
775.243	84.19
775.421	84.17
775.599	84.53
775.777	86.22
775.955	85.39
776.133	85.66
776.311	84.68
776.489	83.48
776.667	82.22
776.844	81.68
777.022	80.61
777.2	81.71
777.378	80.48
777.556	82.99
777.734	84.08
777.911	84.59
778.089	85.83
778.267	84.87
778.445	85.28
778.622	83.43
778.8	80.37
778.978	77.73
779.155	80.87
779.333	78.83
779.511	79.8
779.688	82.47
779.866	84.43
780.043	84.86
780.221	86.89
780.398	87.66
780.576	87.8
780.753	86.06
780.931	85.52
781.108	85.97
781.286	85.3
781.463	85.23
781.64	86.28
781.818	87.09
781.995	84.57
782.172	84.53
782.35	84.93
782.527	86.13
782.704	83.47
782.882	79.38
783.059	78.82
783.236	79.56
783.413	77.35
783.59	79.32
783.768	81.43
783.945	81.58
784.122	81.98
784.299	84.83
784.476	80.86
784.653	82.06
784.83	81.13
785.007	78.54
785.184	75.13
785.361	79.84
785.538	78.45
785.715	79.76
785.892	79.97
786.069	80.98
786.246	80.22
786.423	83.52
786.6	84.07
786.776	84.02
786.953	81.87
787.13	81.11
787.307	78.45
787.484	74.51
787.66	73.24
787.837	75.35
788.014	73.43
788.191	74.44
788.367	76.83
788.544	77.56
788.721	76.28
788.897	76.28
789.074	76.63
789.25	78.73
789.427	79.35
789.603	77.52
789.78	75.59
789.956	72.64
790.133	70.17
790.309	71.15
790.486	73.05
790.662	74.11
790.839	77.09
791.015	77.34
791.192	74.34
791.368	73.51
791.544	73.83
791.721	71.75
791.897	67.6
792.073	68.17
792.249	70.71
792.426	72.8
792.602	75.19
792.778	78.25
792.954	79.21
793.13	77.46
793.307	75.23
793.483	70.57
793.659	71.74
793.835	74.12
794.011	76.3
794.187	76
794.363	78.39
794.539	76.38
794.715	75.45
794.891	74.18
795.067	76.1
795.243	78.64
795.419	79.75
795.595	81.19
795.771	76.29
795.947	79.27
796.122	74.88
796.298	74.09
796.474	78.78
796.65	85.18
796.826	76.96
797.001	78.71
797.177	72.3
797.353	61.86
797.529	57.18
797.704	64.83
797.88	63.83
798.056	70.24
798.231	70.43
798.407	71.78
798.582	63.64
798.758	66.61
798.934	66.41
799.109	70.3
799.285	71.45
799.46	71.89
799.636	67.46
799.811	70.17
799.986	68.15
800.162	63.31
800.337	69.14
800.513	73.75
800.688	69.4
800.863	76.22
801.039	85.95
801.214	80
801.389	74.31
801.565	75.93
801.74	69.82
801.915	65.88
802.09	65.54
802.265	68.07
802.441	69.91
802.616	73.39
802.791	74.32
802.966	76.4
803.141	79.85
803.316	76.27
803.491	74.39
803.666	73.6
803.841	70.36
804.016	67.6
804.191	72.72
804.366	72.29
804.541	75.74
804.716	79.62
804.891	80.71
805.066	79.95
805.241	79.83
805.416	81.36
805.591	85.03
805.765	88.39
805.94	85.26
806.115	81.37
806.29	82.98
806.464	78.5
806.639	74.95
806.814	73.92
806.989	77.23
807.163	77.46
807.338	76.55
807.512	73.15
807.687	76.54
807.862	77.48
808.036	73.13
808.211	75.38
808.385	87.53
808.56	88.36
808.734	71.78
808.909	73.81
809.083	75.79
809.258	69.52
809.432	64.79
809.606	89.52
809.781	85.23
809.955	80.95
810.13	69.47
810.304	64.81
810.478	58.79
810.652	57.32
810.827	58.05
811.001	61.68
811.175	62.7
811.349	65.47
811.524	65.76
811.698	64.58
811.872	67.5
812.046	65.44
812.22	61.4
812.394	58.85
812.568	60.55
812.742	58.94
812.916	66.2
813.09	64.53
813.264	65
813.438	64.83
813.612	61.02
813.786	57.9
813.96	64.77
814.134	61.16
814.308	62.02
814.482	70.94
814.656	66.48
814.83	58
815.003	67.87
815.177	67.53
815.351	66.94
815.525	80.38
815.698	77.85
815.872	68.52
816.046	61.53
816.219	66.79
816.393	57.25
816.567	57.73
816.74	62.56
816.914	67.71
817.088	56.35
817.261	58.71
817.435	64.12
817.608	54.72
817.782	50.22
817.955	62.66
818.129	57.12
818.302	51.48
818.475	59.49
818.649	62.14
818.822	48.21
818.996	58.15
819.169	69.87
819.342	71.51
819.516	70.96
819.689	69.66
819.862	63.68
820.035	57.09
820.209	53.58
820.382	50.15
820.555	49.45
820.728	55.08
820.901	46.84
821.075	41.91
821.248	34.54
821.421	42.41
821.594	45.6
821.767	52.58
821.94	46.54
822.113	53.09
822.286	56.95
822.459	51.45
822.632	54.5
822.805	69.3
822.978	71.49
823.151	60.91
823.324	52.46
823.496	49.46
823.669	45.4
823.842	42.14
824.015	50.46
824.188	49.15
824.361	45.31
824.533	41.25
824.706	44.58
824.879	54.65
825.051	67.43
825.224	67.74
825.397	70.33
825.569	67.6
825.742	64.3
825.915	55.94
826.087	39.9
826.26	44.86
826.432	46.95
826.605	41.93
826.777	48.9
826.95	67.04
827.122	48.04
827.295	52.95
827.467	50.83
827.64	24.65
827.812	12.44
827.984	46.78
828.157	39.7
828.329	48.11
828.501	57.32
828.674	64.33
828.846	60.46
829.018	72.43
829.19	66.4
829.363	60.5
829.535	52.29
829.707	47.36
829.879	34.95
830.051	33.19
830.223	58.86
830.395	64.18
830.568	55
830.74	42.78
830.912	50.32
831.084	32.12
831.256	33.59
831.428	34.01
831.6	35.82
831.772	21.24
831.943	11.6
832.115	-1.7
832.287	18.72
832.459	20.16
832.631	27.96
832.803	34.48
832.975	41.71
833.146	23.49
833.318	35.18
833.49	33.6
833.662	47.88
833.833	40.82
834.005	56.28
834.177	49.02
834.348	53.96
834.52	47.39
834.692	43.68
834.863	40.86
835.035	46.58
835.206	44.87
835.378	46.88
835.549	52.1
835.721	48.6
835.892	42
836.064	42.11
836.235	41.92
836.407	41.18
836.578	42.08
836.749	41.11
836.921	27.41
837.092	4.98
837.264	9.93
837.435	-2.97
837.606	5.34
837.777	12
837.949	33.78
838.12	31.72
838.291	45.9
838.462	52.04
838.633	45.91
838.805	47.1
838.976	43.07
839.147	43.43
839.318	52.41
839.489	61.1
839.66	51.39
839.831	46.46
840.002	28.09
840.173	20.46
840.344	30.27
840.515	19.47
840.686	28.52
840.857	33.79
841.028	36.71
841.199	25.27
841.369	39.18
841.54	42.83
841.711	72.26
841.882	62.67
842.053	62.46
842.223	56.37
842.394	46.36
842.565	37.04
842.736	37.7
842.906	29.72
843.077	33.36
843.248	45.04
843.418	43.11
843.589	46.67
843.759	64.56
843.93	72.15
844.101	65.39
844.271	98.76
844.442	84.63
844.612	76.59
844.783	58.02
844.953	58.12
845.123	43.79
845.294	52.15
845.464	37.99
845.635	41.38
845.805	42.12
845.975	27.42
846.146	38.39
846.316	38.25
846.486	45.31
846.656	41.72
846.827	49.57
846.997	38.68
847.167	37.67
847.337	30.97
847.507	37.44
847.677	35.72
847.848	49.47
848.018	59.58
848.188	75.21
848.358	56.2
848.528	66.89
848.698	39.89
848.868	37.4
849.038	21.76
849.208	39.75
849.378	34.61
849.548	23.4
849.718	1.13
849.887	1.58
850.057	-26.32
850.227	-61.73
850.397	-16.56
850.567	-16.06
850.737	0.4
850.906	-5.09
851.076	4.64
851.246	17.92
851.415	17.77
851.585	41.12
851.755	41.61
851.924	61.9
852.094	60.77
852.264	43.47
852.433	7.79
852.603	-2.92
852.772	-13.25
852.942	-4.32
853.111	8.77
853.281	33.13
853.45	29.73
853.62	29.54
853.789	17.88
853.959	28.52
854.128	24.13
854.297	31.45
854.467	40.31
854.636	58.58
854.805	42.98
854.975	31.17
855.144	38.83
855.313	43.28
855.482	24.28
855.652	32.21
855.821	34.66
855.99	16
856.159	8.62
856.328	6.83
856.497	-0.35
856.667	19.33
856.836	42.86
857.005	46.33
857.174	46.41
857.343	65
857.512	52.24
857.681	19.5
857.85	11.53
858.019	-7.64
858.188	-24.77
858.356	3.12
858.525	26.77
858.694	33.82
858.863	20.75
859.032	46.92
859.201	27.86
859.369	-10.84
859.538	17.55
859.707	43.33
859.876	32.17
860.044	49.89
860.213	72.86
860.382	59.58
860.55	33.88
860.719	39.92
860.888	7.55
861.056	-13.72
861.225	-42.53
861.393	-37.41
861.562	-68.67
861.73	-47.79
861.899	-49.7
862.067	-49.83
862.236	-28.59
862.404	-19.85
862.572	-32.77
862.741	-48.62
862.909	4.93
863.078	9.34
863.246	8.35
863.414	22.67
863.582	20.15
863.751	-0.43
863.919	19.6
864.087	19.13
864.255	-2.93
864.424	-9.18
864.592	11.28
864.76	13.05
864.928	26.8
865.096	53.63
865.264	60.89
865.432	47.04
865.6	-0.2
865.768	-34.17
865.936	-28.18
866.104	16.8
866.272	20.62
866.44	62.24
866.608	38.46
866.776	22.74
866.944	19.75
867.112	11.6
867.28	11.87
867.448	17.7
867.615	22.99
867.783	-12.83
867.951	4.54
868.119	7.33
868.286	8.7
868.454	7.27
868.622	24.78
868.789	7.35
868.957	9.95
869.125	20.11
869.292	3.34
869.46	9.5
869.627	31.47
869.795	21.45
869.963	38.13
870.13	59.63
870.298	52.45
870.465	43.54
870.632	9.1
870.8	0.16
870.967	-3.52
871.135	6.42
871.302	-2.27
871.469	17.31
871.637	-1.58
871.804	16.95
871.971	-5.67
872.139	-4.83
872.306	-59.07
872.473	-69.09
872.64	-179.18
872.807	-181.87
872.975	-383.85
873.142	-62.85
873.309	-46.26
873.476	-11.71
873.643	9.65
873.81	-2.7
873.977	-58.58
874.144	-15.91
874.311	-40.27
874.478	-51.07
874.645	-85.88
874.812	-14.36
874.979	-58.23
875.146	-103.93
875.313	-61.46
875.48	-10.47
875.647	-10.45
875.813	-42.19
875.98	1.45
876.147	-14.12
876.314	-4.12
876.481	12.74
876.647	62.64
876.814	33.28
876.981	25.63
877.147	3.27
877.314	19.53
877.481	1.39
877.647	-9.87
877.814	-20.51
877.98	12
878.147	20.41
878.314	33.85
878.48	69.65
878.647	79.31
878.813	103.31
878.979	103.39
879.146	98.03
879.312	84.99
879.479	44.28
879.645	13.45
879.811	-23.61
879.978	-9.35
880.144	-17.15
880.31	-4.78
880.477	9.32
880.643	15.73
880.809	-70.25
880.975	-89.08
881.142	-93.68
881.308	362.58
881.474	584.58
881.64	-9.91
881.806	-6.88
881.972	-21.92
882.138	3.72
882.304	36.61
882.47	14.06
882.636	-10.55
882.802	-24.51
882.968	-39.61
883.134	-36.82
883.3	-35.38
883.466	-49.39
883.632	-31.31
883.798	-63.47
883.964	-84.66
884.129	-610.48
884.295	7.39
884.461	-35.69
884.627	-3.14
884.793	-33.89
884.958	6.87
885.124	-24.47
885.29	-49.76
885.455	-103.09
885.621	-50.86
885.787	-50.21
885.952	-96.59
886.118	-41.17
886.283	-39.83
886.449	-37.57
886.614	-40.02
886.78	-13.22
886.945	-41.26
887.111	-29.53
887.276	-48.68
887.442	-87.61
887.607	-56.43
887.773	-34.97
887.938	-34.3
888.103	-19.92
888.269	10.26
888.434	7.75
888.599	14.4
888.764	21.65
888.93	25.26
889.095	11.05
889.26	5.93
889.425	23.69
889.59	20.69
889.756	-13.07
889.921	-11.62
890.086	18.85
890.251	-47.21
890.416	-12.21
890.581	7.44
890.746	15.58
890.911	-14.07
891.076	-0.4
891.241	-25.71
891.406	-57.53
891.571	-107.13
891.736	-152.58
891.901	-54.17
892.065	-15.69
892.23	3.97
892.395	4.3
892.56	13.52
892.725	37.47
892.889	9.41
893.054	15.59
893.219	-52.58
893.384	-42.22
893.548	-87.21
893.713	-101.25
893.878	-153.9
