Data from Ofra_PS_T2_1A_8HS23_Reflection_1.txt Node
Date: Wed Jul 21 18:15:40 EDT 2021
User: Adam
Spectrometer: FLMT01687
Trigger mode: 0
Integration Time (sec): 1.100000E0
Scans to average: 2
Electric dark correction enabled: true
Nonlinearity correction enabled: false
Boxcar width: 2
XAxis mode: Wavelengths
Number of Pixels in Spectrum: 3648
>>>>>Begin Spectral Data<<<<<
179.494	593.8
179.716	637.88
179.937	640.57
180.158	602.31
180.38	1005.16
180.601	368.09
180.823	149.68
181.044	-66.71
181.265	24.45
181.486	36.26
181.708	107.45
181.929	631.12
182.15	-300.35
182.372	64.78
182.593	17.68
182.814	23.71
183.035	77.7
183.257	49.17
183.478	-26.86
183.699	18.12
183.92	-31.39
184.141	-44.66
184.363	-108.42
184.584	-65.25
184.805	-50.54
185.026	5.19
185.247	8.66
185.468	3.14
185.689	7.11
185.91	17.12
186.132	15.69
186.353	-3.36
186.574	17
186.795	11.88
187.016	-40.98
187.237	-39.56
187.458	-37.48
187.679	-17.43
187.9	2.21
188.121	2.76
188.342	-51.11
188.563	-11.67
188.784	-38.4
189.005	-51.02
189.226	-28.89
189.447	9.54
189.667	-214.2
189.888	-334.11
190.109	-1379.55
190.33	-718.23
190.551	-1399.34
190.772	-308.78
190.993	-250.66
191.214	-204.42
191.434	-135.86
191.655	-37.21
191.876	-120.47
192.097	-125.39
192.318	-140.22
192.538	-238.49
192.759	-209.03
192.98	-58.5
193.201	-31.5
193.421	-10.69
193.642	10.4
193.863	31.57
194.083	-6.65
194.304	-28.19
194.525	-26.05
194.745	-52.03
194.966	-69.76
195.187	-69.68
195.407	-88.18
195.628	-164.44
195.848	-154.33
196.069	-156.43
196.29	-88.51
196.51	-108.48
196.731	-73.97
196.951	-100.88
197.172	-115.56
197.392	-148.75
197.613	-138.7
197.833	-197.34
198.054	-152.1
198.274	-82.62
198.495	-76.91
198.715	-28.87
198.936	-38.35
199.156	-38.99
199.377	-127.84
199.597	-129.67
199.817	-121.2
200.038	-41.09
200.258	-75.93
200.479	-17.33
200.699	-18.6
200.919	-22.45
201.14	-73.82
201.36	-70.45
201.58	-20.95
201.801	9.18
202.021	-30.02
202.241	-25.89
202.461	-31.06
202.682	-128.91
202.902	-206.28
203.122	-109.86
203.342	-82.09
203.563	-8.56
203.783	2.45
204.003	-26.34
204.223	-16.34
204.443	31.25
204.663	-25.14
204.884	4.69
205.104	31.27
205.324	30.92
205.544	23.73
205.764	35.26
205.984	34.18
206.204	36.74
206.424	30.58
206.644	-0.83
206.864	19.52
207.084	-7.16
207.304	-21.58
207.525	-154.77
207.745	-105.86
207.964	-74.57
208.184	-123.52
208.404	-149.73
208.624	-141.17
208.844	-169
209.064	-523.33
209.284	-499.81
209.504	-306.24
209.724	-126.14
209.944	-72.02
210.164	-38.59
210.384	-28.06
210.604	-21.15
210.823	-60.13
211.043	-80.09
211.263	-70.63
211.483	-61.72
211.703	-112.68
211.922	-98.74
212.142	-40.52
212.362	-10.58
212.582	-27.89
212.801	-26.48
213.021	-48.13
213.241	-62.74
213.461	-108.32
213.68	-120.37
213.9	-86.99
214.12	-60.48
214.339	-126.74
214.559	-106.77
214.779	-71.85
214.998	-85.96
215.218	-147.95
215.438	-87.31
215.657	-94.02
215.877	-92.85
216.096	-42.78
216.316	-3.26
216.535	-5.41
216.755	-4.34
216.974	-37.92
217.194	-83.83
217.413	-143.46
217.633	-169.37
217.852	-327.11
218.072	-144.51
218.291	-78.94
218.511	-17.63
218.73	-28.28
218.95	-9.56
219.169	-21.72
219.389	-62.58
219.608	-46.24
219.827	-34.64
220.047	-19.46
220.266	-13.81
220.485	-9.1
220.705	-19.73
220.924	-37.56
221.143	-8.65
221.363	-28.58
221.582	-14.82
221.801	-18.82
222.021	-8.17
222.24	-78.81
222.459	-30.51
222.678	-74.48
222.897	-136.75
223.117	-189.65
223.336	-171.4
223.555	-139.98
223.774	-65.94
223.993	-60.83
224.213	31.38
224.432	13.32
224.651	35.64
224.87	0.41
225.089	3.94
225.308	-22.27
225.527	1.92
225.746	-2.05
225.965	-12.12
226.184	-21.85
226.404	1.17
226.623	-19.53
226.842	-15.9
227.061	15.94
227.28	24.97
227.499	15.77
227.718	26.84
227.936	11.37
228.155	12.67
228.374	-7.45
228.593	8.45
228.812	8.7
229.031	11.26
229.25	-43.62
229.469	-61.53
229.688	-68.56
229.907	-40.46
230.125	-28.15
230.344	-8.42
230.563	14.72
230.782	24.36
231.001	-41.31
231.22	-48.54
231.438	-11.14
231.657	-17.88
231.876	-34.75
232.095	19.08
232.313	27.03
232.532	-12.64
232.751	-38.15
232.969	-32.8
233.188	-96.2
233.407	-16.77
233.625	0.21
233.844	7.37
234.063	2.12
234.281	12.68
234.5	-8.49
234.719	-14.39
234.937	2.4
235.156	1.87
235.374	-7.94
235.593	-24.01
235.811	-21.97
236.03	-35.14
236.249	-81.73
236.467	-77.49
236.686	-25.57
236.904	-13.04
237.123	-25.23
237.341	-15.69
237.559	2.93
237.778	-20.24
237.996	-30.07
238.215	-4.41
238.433	0.47
238.652	-3.78
238.87	-6.84
239.088	5.6
239.307	9.67
239.525	17.32
239.743	-27.37
239.962	-20.45
240.18	-51.89
240.398	-98.38
240.617	-100.11
240.835	-71.52
241.053	-68.66
241.271	-31.98
241.49	-8.72
241.708	-41.06
241.926	-92.07
242.144	-29.87
242.363	-85.21
242.581	-130.18
242.799	-66.57
243.017	-15.86
243.235	-48.57
243.453	-43.2
243.672	-29.91
243.89	-36.62
244.108	-48.88
244.326	-30.03
244.544	-15.34
244.762	-4.56
244.98	-8.57
245.198	4.76
245.416	-15.09
245.634	-12.53
245.852	-4.58
246.07	2.36
246.288	-28.49
246.506	-32.56
246.724	-29.04
246.942	-50.37
247.16	-24.98
247.378	-3.13
247.596	10.62
247.814	18.94
248.032	-11.88
248.25	-4.3
248.468	-1.91
248.685	-3.36
248.903	27.2
249.121	37.49
249.339	12.64
249.557	5.76
249.775	5.14
249.992	-76.53
250.21	-68.55
250.428	-42.56
250.646	-63.3
250.863	-78.93
251.081	-37.62
251.299	-42.09
251.517	-59.35
251.734	-43.99
251.952	-42.05
252.17	-43.87
252.387	-21.21
252.605	-19.86
252.823	-17.05
253.04	-2.71
253.258	17.05
253.475	-2.46
253.693	31.18
253.911	34.64
254.128	36.96
254.346	43.79
254.563	25.32
254.781	-10.65
254.998	-41.86
255.216	-37.75
255.433	-40.81
255.651	0.82
255.868	24.35
256.086	44.95
256.303	19.77
256.521	12.17
256.738	-12.48
256.956	-43.06
257.173	-56.18
257.39	-63.86
257.608	-99.33
257.825	-14.58
258.043	22.54
258.26	37.95
258.477	80.49
258.695	84.64
258.912	11.97
259.129	6.08
259.346	-43.89
259.564	-95.22
259.781	-109.35
259.998	-34.04
260.216	1.13
260.433	47.12
260.65	56.43
260.867	71.43
261.084	41.41
261.302	2.67
261.519	-18.29
261.736	-67.04
261.953	-99.17
262.17	-67.6
262.387	-85.43
262.604	-128.3
262.822	-95.91
263.039	-74.31
263.256	-119.02
263.473	-80.55
263.69	-36.33
263.907	-4.95
264.124	9.76
264.341	12.8
264.558	5.62
264.775	18.82
264.992	6.29
265.209	7.59
265.426	24.18
265.643	22.68
265.86	28.81
266.077	24.5
266.294	-10.55
266.51	-28.95
266.727	-46.68
266.944	-50.77
267.161	-30.62
267.378	-20.17
267.595	-3.63
267.812	-8.02
268.028	-36.78
268.245	-55.37
268.462	-66.18
268.679	-82.13
268.896	-29.91
269.112	-12.26
269.329	-5.12
269.546	5.56
269.763	1.7
269.979	-4.92
270.196	-13.99
270.413	-62.07
270.629	-78.98
270.846	-95.16
271.063	-99.68
271.279	-112.27
271.496	-83.84
271.712	-46.38
271.929	-10.08
272.146	-26.64
272.362	-7.39
272.579	25.94
272.795	30.48
273.012	22.51
273.228	32.58
273.445	18.82
273.661	-3.23
273.878	-30.99
274.094	-29.32
274.311	-58.76
274.527	1.33
274.744	-2.87
274.96	-20.31
275.177	-7.28
275.393	8.87
275.609	-19.02
275.826	12.85
276.042	24.31
276.259	-2.37
276.475	17.09
276.691	19.58
276.908	-5.95
277.124	8.21
277.34	19.67
277.557	-3.26
277.773	-3.02
277.989	-13.17
278.205	-15.98
278.422	0.73
278.638	0.57
278.854	14.55
279.07	24.95
279.286	6.37
279.503	-22.59
279.719	-32.09
279.935	-64.59
280.151	-78.57
280.367	-43.98
280.583	-68.88
280.799	-48.28
281.016	-72.45
281.232	-39.91
281.448	-57.59
281.664	-27.52
281.88	-64.55
282.096	-18.84
282.312	4.27
282.528	3.68
282.744	4.88
282.96	24.95
283.176	5.01
283.392	-11.36
283.608	2.61
283.824	-11.5
284.04	-11.98
284.256	-14.75
284.471	-10.14
284.687	-24.76
284.903	6.24
285.119	17.07
285.335	-11.97
285.551	-16.32
285.767	-39.63
285.982	-54.51
286.198	-80.62
286.414	2.81
286.63	6.48
286.846	34.11
287.061	13.94
287.277	38.55
287.493	-1.31
287.709	1.99
287.924	-18.56
288.14	31.26
288.356	21.87
288.571	48.85
288.787	43.56
289.003	54.78
289.218	22.48
289.434	-17.23
289.65	-14.85
289.865	-51.38
290.081	-52.23
290.296	-27.93
290.512	-0.63
290.727	-32.59
290.943	-19.02
291.159	-31.33
291.374	-38.72
291.59	-59.03
291.805	-43.52
292.021	-24.79
292.236	-20.99
292.451	-7.48
292.667	4.1
292.882	21.65
293.098	20.07
293.313	9.73
293.529	-13.08
293.744	-41.6
293.959	-53.82
294.175	-51.56
294.39	-5
294.605	6.64
294.821	36.63
295.036	35.17
295.251	32.11
295.467	-14.96
295.682	-26.38
295.897	-97.4
296.112	-92.82
296.328	-61.18
296.543	-55.54
296.758	-49.94
296.973	14.45
297.188	38.25
297.404	-2.02
297.619	-12.18
297.834	-33.07
298.049	-76.27
298.264	-100.72
298.479	-34.32
298.694	-27.83
298.909	-3.92
299.125	9.47
299.34	6.7
299.555	-13.16
299.77	-3.69
299.985	-51.2
300.2	-106.02
300.415	-122.84
300.63	-90.81
300.845	-77.43
301.06	-61.53
301.275	-24.09
301.49	12.77
301.704	-2.61
301.919	-24.39
302.134	-25.96
302.349	-24.14
302.564	-102.23
302.779	-109.69
302.994	-74.33
303.209	-58.04
303.423	-48.36
303.638	20.13
303.853	-11.2
304.068	-17.8
304.283	-15.72
304.497	-18.51
304.712	-30.88
304.927	-20.55
305.142	-26.85
305.356	-28.98
305.571	-29.8
305.786	-45.22
306	-65.17
306.215	-67.47
306.43	-76.89
306.644	-68.73
306.859	-20.6
307.074	-2
307.288	-25.15
307.503	-18.4
307.717	-25.46
307.932	-45.25
308.147	-55.56
308.361	-26.75
308.576	-45.75
308.79	-96.75
309.005	-82.78
309.219	-59.5
309.434	-71.26
309.648	-66.97
309.863	-33.68
310.077	-20.63
310.292	-24.35
310.506	-19.89
310.72	-0.45
310.935	-8.36
311.149	-22.44
311.364	-5.33
311.578	-0.61
311.792	-10.5
312.007	7.75
312.221	6.91
312.435	6.36
312.649	-6.67
312.864	15.9
313.078	35.67
313.292	106.67
313.507	64.03
313.721	114.35
313.935	44.42
314.149	14.55
314.363	-8.32
314.578	2.03
314.792	-0.98
315.006	-20.89
315.22	-3.89
315.434	2.83
315.648	15.59
315.862	12.6
316.077	29.28
316.291	12.85
316.505	11.61
316.719	-16.93
316.933	-19.99
317.147	-19.61
317.361	-46.92
317.575	-70.7
317.789	-76.85
318.003	-117.36
318.217	-98.81
318.431	-26.49
318.645	5.03
318.859	-7.28
319.073	9.22
319.287	-2.81
319.5	-36
319.714	-76.93
319.928	-82.09
320.142	-105.74
320.356	-63.01
320.57	-9.38
320.784	-15.26
320.997	-35.44
321.211	2.71
321.425	-45.74
321.639	-75.94
321.853	-29.27
322.066	-13.48
322.28	-30.52
322.494	-23.18
322.707	-14.16
322.921	-20.27
323.135	-25.34
323.349	-4.79
323.562	-6.89
323.776	-11.45
323.989	-15.04
324.203	-20.62
324.417	-39.8
324.63	-72.51
324.844	-76.47
325.057	-75.38
325.271	-57.81
325.485	-25.81
325.698	-2.73
325.912	16.09
326.125	-0.97
326.339	9.22
326.552	-14.91
326.766	-10.18
326.979	-6.4
327.193	30.09
327.406	9.16
327.619	12.22
327.833	18.14
328.046	-15.61
328.26	-48.99
328.473	-22.03
328.686	-48.76
328.9	-52.5
329.113	-20.23
329.326	-36.78
329.54	-21.55
329.753	-29.24
329.966	-39.19
330.179	-30.49
330.393	-4.31
330.606	-7.46
330.819	6.33
331.032	19
331.246	19.91
331.459	35.78
331.672	26.22
331.885	16.48
332.098	-6.55
332.311	-15.04
332.525	-92.31
332.738	-69.7
332.951	-35.99
333.164	-7.56
333.377	11.9
333.59	51.41
333.803	32.74
334.016	22.65
334.229	18.19
334.442	-6.82
334.655	-9.21
334.868	6.56
335.081	10.26
335.294	7.25
335.507	2.33
335.72	-14.16
335.933	-26.48
336.146	-20.18
336.359	-20.63
336.572	-27.88
336.785	-51.73
336.997	-35.42
337.21	-39.74
337.423	-46.91
337.636	-46.44
337.849	-17.72
338.062	-35.7
338.274	-27.18
338.487	-29.3
338.7	-26.39
338.913	-57.11
339.125	-56.96
339.338	-96.64
339.551	-72.69
339.763	-27.7
339.976	0.2
340.189	20.76
340.402	35.87
340.614	14.33
340.827	-7.05
341.039	-27.15
341.252	-39.74
341.465	-31.22
341.677	-24.86
341.89	-61.07
342.102	-36.84
342.315	-48.08
342.527	-73.66
342.74	-57.2
342.952	-9.99
343.165	-12.52
343.377	-0.63
343.59	4.52
343.802	18.38
344.015	8
344.227	19.9
344.44	25.9
344.652	28.01
344.864	3.51
345.077	18.78
345.289	14.2
345.502	9.69
345.714	-1.47
345.926	11.35
346.139	-0.14
346.351	13
346.563	19.47
346.775	25.77
346.988	14.24
347.2	2.67
347.412	-56.39
347.624	-61.41
347.837	-97.39
348.049	-72.76
348.261	-28.93
348.473	4.83
348.685	-15.83
348.897	3.48
349.11	-24.86
349.322	-53.52
349.534	-56.25
349.746	-38.78
349.958	-33.82
350.17	-27.21
350.382	-13.34
350.594	-17.18
350.806	-7.58
351.018	-11.82
351.23	-39.96
351.442	-78.24
351.654	-77.24
351.866	-73.32
352.078	-70.79
352.29	-15.34
352.502	7.03
352.714	7.93
352.926	-15.66
353.138	-5.73
353.35	-20.21
353.561	-28.95
353.773	-43.08
353.985	-17.73
354.197	-32.27
354.409	-25.48
354.621	-23.65
354.832	-2.97
355.044	-16.66
355.256	-14.22
355.468	-9.34
355.679	-5.83
355.891	-9.42
356.103	-11.2
356.314	-8.19
356.526	-12.34
356.738	-31.98
356.949	-45.66
357.161	-41.42
357.373	-38.2
357.584	-50.74
357.796	-34.97
358.008	-35.88
358.219	-11.37
358.431	-13.9
358.642	-7.68
358.854	-8.75
359.065	-24.87
359.277	-61.72
359.488	-62.86
359.7	-84.42
359.911	-97.44
360.123	-59.14
360.334	-68.68
360.546	-89.96
360.757	-86.35
360.969	-73.79
361.18	-77.99
361.391	-45.9
361.603	-40.25
361.814	-25.9
362.025	-17.86
362.237	-21.15
362.448	-6.51
362.659	5.88
362.871	1.64
363.082	-0.3
363.293	3.1
363.504	-7.55
363.716	-25.77
363.927	-28.4
364.138	-55.04
364.349	-73.41
364.56	-71.64
364.772	-62.96
364.983	-31.61
365.194	-28.26
365.405	-1.02
365.616	13.23
365.827	9.76
366.038	-19.9
366.25	-19.21
366.461	-68.64
366.672	-40.99
366.883	-12.59
367.094	-7.92
367.305	-8.36
367.516	1.84
367.727	-28.75
367.938	-42.49
368.149	-31.25
368.36	-22.82
368.571	-19.24
368.781	-33.88
368.992	-46.48
369.203	-69.2
369.414	-83.78
369.625	-97.38
369.836	-73.96
370.047	-91.66
370.258	-83.5
370.468	-78.92
370.679	-82.89
370.89	-80.66
371.101	-54.47
371.312	-44.87
371.522	-37.98
371.733	-21.8
371.944	-9.25
372.155	-9.08
372.365	-17.74
372.576	-15.26
372.787	-20.8
372.997	-47.33
373.208	-40.47
373.419	-11.43
373.629	-42.61
373.84	-58.86
374.05	-64.63
374.261	-60.52
374.472	-88.97
374.682	-30.4
374.893	-14.08
375.103	15.24
375.314	8.34
375.524	18.79
375.735	7.67
375.945	10.01
376.156	-12.4
376.366	-5.97
376.577	-2.52
376.787	-7.45
376.997	-12.85
377.208	-3.59
377.418	-13.1
377.629	-20.23
377.839	-19.23
378.049	-6.28
378.26	9.95
378.47	18.13
378.68	12.85
378.89	14.68
379.101	-1.76
379.311	-42.28
379.521	-73.83
379.732	-74.34
379.942	-75.72
380.152	-87.16
380.362	-47.04
380.572	-34.58
380.783	-32.15
380.993	-17.6
381.203	-6.54
381.413	-5.52
381.623	-8.73
381.833	11.74
382.043	-3.98
382.253	-1.99
382.463	1.29
382.674	-4.33
382.884	-29.73
383.094	-18.67
383.304	-13.67
383.514	-12.44
383.724	-0.69
383.934	-0.25
384.144	-14.57
384.353	-23.95
384.563	-29.63
384.773	-20.86
384.983	-30.72
385.193	-12.36
385.403	-6.69
385.613	-4.1
385.823	-25.78
386.033	-11.02
386.242	-17.26
386.452	-20.48
386.662	-26.05
386.872	-5.26
387.082	-11.23
387.291	-20.14
387.501	-20.87
387.711	-13.68
387.921	-25.38
388.13	-18.37
388.34	-2.49
388.55	-5.11
388.759	-7.18
388.969	-1.07
389.179	-3.07
389.388	-4.76
389.598	0.43
389.807	-6.65
390.017	-6.77
390.227	-8.25
390.436	-13.21
390.646	-16.96
390.855	-9.62
391.065	-11.07
391.274	-10.86
391.484	-10.9
391.693	-4.71
391.903	-4.38
392.112	-0.58
392.322	1.37
392.531	5.91
392.74	3.6
392.95	-1.46
393.159	-3.1
393.369	-1.94
393.578	-2.58
393.787	-1.82
393.997	1.05
394.206	0.74
394.415	-0.57
394.625	-1.02
394.834	-3.31
395.043	-2.16
395.252	-0.9
395.462	2.06
395.671	3.83
395.88	5.1
396.089	5.37
396.298	4.37
396.508	3.55
396.717	1.06
396.926	1.23
397.135	0.64
397.344	1.12
397.553	0.81
397.762	2.67
397.971	2.48
398.181	2.61
398.39	2.18
398.599	1.97
398.808	1.87
399.017	2.74
399.226	3.8
399.435	4.52
399.644	5.04
399.853	4.22
400.062	3.76
400.27	3.02
400.479	2.77
400.688	2.13
400.897	2.07
401.106	2.21
401.315	2.17
401.524	2.17
401.733	2.63
401.941	3.32
402.15	3.56
402.359	3.45
402.568	3.75
402.777	3.89
402.985	3.71
403.194	3.53
403.403	3.71
403.612	3.25
403.82	3.11
404.029	3.18
404.238	2.94
404.446	3.3
404.655	3.26
404.864	3.15
405.072	3.05
405.281	3.43
405.489	3.14
405.698	3.21
405.906	3.25
406.115	3.09
406.324	2.95
406.532	3.08
406.741	3.32
406.949	3.38
407.158	3.55
407.366	3.54
407.574	3.38
407.783	3.21
407.991	2.85
408.2	3.07
408.408	3.08
408.617	3.02
408.825	2.9
409.033	3.08
409.242	2.84
409.45	2.85
409.658	2.8
409.867	2.94
410.075	2.88
410.283	2.8
410.491	2.68
410.7	2.67
410.908	2.65
411.116	2.89
411.324	2.87
411.533	2.76
411.741	3.01
411.949	2.9
412.157	2.61
412.365	2.61
412.573	2.81
412.781	2.7
412.99	2.77
413.198	3.01
413.406	3.08
413.614	3.04
413.822	2.78
414.03	2.66
414.238	2.46
414.446	2.51
414.654	2.36
414.862	2.53
415.07	2.63
415.278	2.74
415.486	2.52
415.694	2.53
415.902	2.46
416.109	2.44
416.317	2.41
416.525	2.42
416.733	2.39
416.941	2.46
417.149	2.35
417.357	2.33
417.564	2.47
417.772	2.72
417.98	2.7
418.188	2.65
418.395	2.71
418.603	2.85
418.811	2.47
419.019	2.41
419.226	2.58
419.434	2.64
419.642	2.38
419.849	2.68
420.057	2.75
420.265	2.77
420.472	2.64
420.68	2.71
420.887	2.43
421.095	2.48
421.302	2.41
421.51	2.49
421.717	2.59
421.925	2.61
422.132	2.42
422.34	2.23
422.547	2.28
422.755	2.01
422.962	2.03
423.17	2.04
423.377	2.14
423.585	2
423.792	1.97
423.999	2.1
424.207	2.01
424.414	2.21
424.621	2.26
424.829	2.45
425.036	2.52
425.243	2.78
425.451	2.54
425.658	2.38
425.865	2.38
426.072	2.34
426.28	2.59
426.487	2.65
426.694	2.77
426.901	2.63
427.108	2.56
427.315	2.25
427.523	2.45
427.73	2.39
427.937	2.44
428.144	2.44
428.351	2.39
428.558	2.62
428.765	2.58
428.972	2.59
429.179	2.71
429.386	2.93
429.593	2.54
429.8	2.4
430.007	2.57
430.214	2.6
430.421	2.38
430.628	2.22
430.835	2.27
431.042	2.35
431.249	2.36
431.456	2.42
431.662	2.59
431.869	2.71
432.076	2.56
432.283	2.49
432.49	2.55
432.697	2.57
432.903	2.44
433.11	2.48
433.317	2.58
433.524	2.74
433.73	2.77
433.937	2.99
434.144	2.96
434.35	3
434.557	2.78
434.764	2.74
434.97	2.66
435.177	2.78
435.384	2.74
435.59	2.88
435.797	3.12
436.003	3.26
436.21	3.28
436.416	3.34
436.623	3.3
436.829	3.32
437.036	3.33
437.242	3.27
437.449	3.16
437.655	3.26
437.862	3.19
438.068	3.06
438.275	3.2
438.481	3.43
438.687	3.39
438.894	3.43
439.1	3.57
439.307	3.7
439.513	3.57
439.719	3.62
439.926	3.64
440.132	3.66
440.338	3.47
440.544	3.67
440.751	3.59
440.957	3.67
441.163	3.57
441.369	3.71
441.575	3.45
441.782	3.48
441.988	3.31
442.194	3.29
442.4	3.2
442.606	3.54
442.812	3.68
443.018	3.8
443.224	3.91
443.431	4.04
443.637	3.69
443.843	3.57
444.049	3.62
444.255	3.54
444.461	3.53
444.667	3.65
444.873	3.78
445.079	3.77
445.284	3.92
445.49	3.73
445.696	3.6
445.902	3.44
446.108	3.37
446.314	3.33
446.52	3.46
446.726	3.73
446.931	3.84
447.137	3.95
447.343	3.96
447.549	3.88
447.755	3.71
447.96	3.81
448.166	3.67
448.372	3.71
448.578	3.83
448.783	3.91
448.989	3.97
449.195	4.21
449.4	4.26
449.606	4.15
449.812	4.05
450.017	3.93
450.223	3.73
450.428	3.72
450.634	3.86
450.84	4.09
451.045	4.1
451.251	4.07
451.456	4.17
451.662	4.29
451.867	4.25
452.073	4.21
452.278	4.39
452.483	4.47
452.689	4.26
452.894	4.34
453.1	4.42
453.305	4.35
453.51	4.29
453.716	4.32
453.921	4.22
454.127	4.21
454.332	4.14
454.537	4.06
454.742	4.1
454.948	4.06
455.153	4.12
455.358	4.22
455.563	4.36
455.769	4.39
455.974	4.45
456.179	4.27
456.384	4.23
456.589	4.16
456.795	4
457	3.91
457.205	4.17
457.41	4.22
457.615	4.17
457.82	4.33
458.025	4.35
458.23	4.2
458.435	4.17
458.64	4.12
458.845	4.24
459.05	4.29
459.255	4.36
459.46	4.39
459.665	4.49
459.87	4.49
460.075	4.45
460.28	4.48
460.485	4.58
460.69	4.59
460.895	4.4
461.099	4.39
461.304	4.46
461.509	4.44
461.714	4.32
461.919	4.49
462.123	4.46
462.328	4.53
462.533	4.51
462.738	4.69
462.942	4.61
463.147	4.78
463.352	4.76
463.556	4.79
463.761	4.77
463.966	4.87
464.17	4.85
464.375	4.73
464.58	4.62
464.784	4.54
464.989	4.42
465.193	4.48
465.398	4.54
465.602	4.71
465.807	4.75
466.011	4.84
466.216	4.83
466.42	4.9
466.625	4.93
466.829	5.06
467.034	5.06
467.238	5.24
467.443	5.16
467.647	5.03
467.851	5
468.056	5.06
468.26	4.89
468.464	4.96
468.669	5.19
468.873	5.3
469.077	5.32
469.282	5.4
469.486	5.45
469.69	5.42
469.894	5.3
470.099	5.39
470.303	5.51
470.507	5.47
470.711	5.37
470.915	5.42
471.119	5.31
471.324	5.25
471.528	5.26
471.732	5.25
471.936	5.2
472.14	5.3
472.344	5.33
472.548	5.37
472.752	5.6
472.956	5.82
473.16	5.83
473.364	5.76
473.568	5.82
473.772	5.74
473.976	5.65
474.18	5.58
474.384	5.63
474.588	5.64
474.792	5.58
474.995	5.65
475.199	5.77
475.403	5.81
475.607	5.82
475.811	5.85
476.015	5.84
476.218	5.95
476.422	5.91
476.626	6.01
476.83	6.08
477.033	6.02
477.237	5.88
477.441	6.04
477.644	5.98
477.848	5.95
478.052	5.92
478.255	5.99
478.459	5.97
478.663	6.04
478.866	6.09
479.07	6.22
479.273	6.44
479.477	6.46
479.681	6.42
479.884	6.45
480.088	6.44
480.291	6.26
480.495	6.23
480.698	6.29
480.901	6.33
481.105	6.44
481.308	6.45
481.512	6.51
481.715	6.54
481.919	6.56
482.122	6.53
482.325	6.54
482.529	6.54
482.732	6.47
482.935	6.39
483.138	6.27
483.342	6.35
483.545	6.36
483.748	6.52
483.952	6.61
484.155	6.88
484.358	6.92
484.561	6.93
484.764	6.82
484.967	6.87
485.171	6.81
485.374	6.73
485.577	6.78
485.78	6.86
485.983	6.85
486.186	6.74
486.389	6.78
486.592	6.79
486.795	6.83
486.998	6.81
487.201	6.88
487.404	6.95
487.607	7.03
487.81	7.03
488.013	7.06
488.216	7.1
488.419	7.05
488.622	6.92
488.825	6.87
489.028	6.84
489.231	6.79
489.433	6.75
489.636	6.78
489.839	6.79
490.042	6.73
490.245	6.69
490.447	6.78
490.65	6.74
490.853	6.72
491.056	6.84
491.258	6.88
491.461	6.88
491.664	6.97
491.866	6.91
492.069	6.97
492.272	6.98
492.474	7.03
492.677	7
492.879	7.09
493.082	7.12
493.285	7.23
493.487	7.2
493.69	7.21
493.892	7.17
494.095	7.1
494.297	7.1
494.5	7.14
494.702	7.16
494.905	7.23
495.107	7.29
495.309	7.27
495.512	7.29
495.714	7.31
495.917	7.31
496.119	7.26
496.321	7.35
496.524	7.36
496.726	7.38
496.928	7.42
497.13	7.43
497.333	7.31
497.535	7.27
497.737	7.24
497.939	7.23
498.142	7.29
498.344	7.32
498.546	7.3
498.748	7.39
498.95	7.53
499.152	7.45
499.355	7.57
499.557	7.69
499.759	7.8
499.961	7.73
500.163	7.87
500.365	7.79
500.567	7.86
500.769	7.67
500.971	7.66
501.173	7.56
501.375	7.61
501.577	7.55
501.779	7.63
501.981	7.69
502.183	7.78
502.385	7.73
502.587	7.69
502.788	7.75
502.99	7.72
503.192	7.79
503.394	7.83
503.596	7.86
503.798	7.94
503.999	8.02
504.201	7.97
504.403	8.06
504.605	8.11
504.806	7.99
505.008	8.01
505.21	8.1
505.411	8.07
505.613	8.14
505.815	8.19
506.016	8.24
506.218	8.3
506.42	8.25
506.621	8.23
506.823	8.28
507.024	8.2
507.226	8.11
507.427	8.19
507.629	8.2
507.83	8.26
508.032	8.31
508.233	8.42
508.435	8.48
508.636	8.56
508.838	8.5
509.039	8.58
509.24	8.55
509.442	8.53
509.643	8.46
509.845	8.54
510.046	8.59
510.247	8.62
510.448	8.67
510.65	8.81
510.851	8.94
511.052	8.91
511.254	8.96
511.455	9.06
511.656	9.07
511.857	9.03
512.058	9.05
512.26	9.07
512.461	8.97
512.662	9.01
512.863	8.95
513.064	8.98
513.265	9.03
513.466	9.12
513.667	9.16
513.868	9.18
514.069	9.21
514.27	9.21
514.471	9.2
514.672	9.16
514.873	9.26
515.074	9.32
515.275	9.23
515.476	9.22
515.677	9.26
515.878	9.32
516.079	9.31
516.28	9.36
516.481	9.5
516.682	9.56
516.882	9.48
517.083	9.47
517.284	9.47
517.485	9.42
517.686	9.33
517.886	9.33
518.087	9.31
518.288	9.35
518.488	9.29
518.689	9.31
518.89	9.3
519.091	9.4
519.291	9.41
519.492	9.52
519.692	9.54
519.893	9.62
520.094	9.55
520.294	9.57
520.495	9.54
520.695	9.6
520.896	9.6
521.096	9.73
521.297	9.75
521.497	9.74
521.698	9.71
521.898	9.71
522.099	9.64
522.299	9.69
522.499	9.75
522.7	9.75
522.9	9.77
523.101	9.86
523.301	9.83
523.501	9.81
523.702	9.89
523.902	9.99
524.102	10.03
524.302	10.02
524.503	10.13
524.703	10.16
524.903	10.15
525.103	10.07
525.304	10.21
525.504	10.25
525.704	10.31
525.904	10.3
526.104	10.27
526.304	10.24
526.504	10.17
526.705	10.15
526.905	10.23
527.105	10.28
527.305	10.27
527.505	10.22
527.705	10.16
527.905	10.15
528.105	10.21
528.305	10.19
528.505	10.32
528.705	10.44
528.905	10.4
529.105	10.4
529.304	10.47
529.504	10.52
529.704	10.43
529.904	10.4
530.104	10.45
530.304	10.51
530.503	10.47
530.703	10.43
530.903	10.44
531.103	10.41
531.303	10.35
531.502	10.36
531.702	10.55
531.902	10.62
532.101	10.59
532.301	10.63
532.501	10.64
532.7	10.6
532.9	10.64
533.1	10.73
533.299	10.79
533.499	10.77
533.698	10.73
533.898	10.74
534.097	10.73
534.297	10.8
534.496	10.87
534.696	10.98
534.895	11.09
535.095	11.2
535.294	11.13
535.494	11.1
535.693	11.05
535.892	11.01
536.092	10.92
536.291	10.93
536.491	11.08
536.69	11.18
536.889	11.14
537.088	11.09
537.288	11.17
537.487	11.18
537.686	11.14
537.886	11.18
538.085	11.35
538.284	11.42
538.483	11.38
538.682	11.42
538.882	11.48
539.081	11.48
539.28	11.36
539.479	11.36
539.678	11.37
539.877	11.47
540.076	11.49
540.275	11.58
540.474	11.69
540.673	11.74
540.872	11.71
541.071	11.75
541.27	11.85
541.469	11.85
541.668	11.84
541.867	11.88
542.066	11.92
542.265	11.93
542.464	11.97
542.663	12.05
542.862	12.17
543.06	12.27
543.259	12.32
543.458	12.36
543.657	12.42
543.856	12.44
544.054	12.37
544.253	12.35
544.452	12.35
544.651	12.38
544.849	12.32
545.048	12.44
545.247	12.53
545.445	12.63
545.644	12.69
545.843	12.74
546.041	12.78
546.24	12.85
546.438	12.97
546.637	12.99
546.836	13.14
547.034	13.18
547.233	13.21
547.431	13.12
547.63	13.18
547.828	13.17
548.027	13.21
548.225	13.23
548.423	13.36
548.622	13.48
548.82	13.51
549.019	13.59
549.217	13.74
549.415	13.75
549.614	13.77
549.812	13.84
550.01	13.78
550.209	13.79
550.407	13.86
550.605	13.88
550.803	14.02
551.002	14.18
551.2	14.25
551.398	14.33
551.596	14.48
551.794	14.53
551.993	14.6
552.191	14.7
552.389	14.87
552.587	14.93
552.785	15.02
552.983	15.11
553.181	15.24
553.379	15.25
553.577	15.35
553.775	15.39
553.973	15.46
554.171	15.49
554.369	15.51
554.567	15.53
554.765	15.62
554.963	15.74
555.161	15.74
555.359	15.9
555.557	16.09
555.755	16.17
555.952	16.31
556.15	16.48
556.348	16.56
556.546	16.6
556.744	16.69
556.941	16.58
557.139	16.71
557.337	16.78
557.535	16.81
557.732	16.91
557.93	17.2
558.128	17.21
558.325	17.29
558.523	17.4
558.721	17.56
558.918	17.47
559.116	17.55
559.313	17.6
559.511	17.74
559.708	17.73
559.906	17.97
560.104	18.12
560.301	18.27
560.498	18.4
560.696	18.49
560.893	18.52
561.091	18.63
561.288	18.72
561.486	18.78
561.683	18.97
561.88	19.11
562.078	19.25
562.275	19.36
562.473	19.47
562.67	19.55
562.867	19.61
563.064	19.67
563.262	19.8
563.459	19.82
563.656	19.99
563.853	20.1
564.051	20.17
564.248	20.29
564.445	20.54
564.642	20.57
564.839	20.74
565.036	20.96
565.234	21.08
565.431	21.12
565.628	21.27
565.825	21.4
566.022	21.47
566.219	21.55
566.416	21.58
566.613	21.67
566.81	21.73
567.007	21.72
567.204	21.76
567.401	21.89
567.598	21.93
567.795	21.98
567.991	22.17
568.188	22.32
568.385	22.47
568.582	22.61
568.779	22.68
568.976	22.73
569.172	22.77
569.369	22.75
569.566	22.8
569.763	22.94
569.96	22.96
570.156	23.02
570.353	23.01
570.55	23.08
570.746	23.09
570.943	23.27
571.14	23.32
571.336	23.49
571.533	23.65
571.729	23.65
571.926	23.68
572.123	23.77
572.319	23.86
572.516	23.8
572.712	23.9
572.909	23.87
573.105	23.97
573.302	24.02
573.498	24.05
573.695	24.01
573.891	24.05
574.087	24.06
574.284	24.05
574.48	24.06
574.677	24.2
574.873	24.26
575.069	24.28
575.266	24.35
575.462	24.33
575.658	24.42
575.854	24.43
576.051	24.42
576.247	24.37
576.443	24.35
576.639	24.28
576.835	24.18
577.032	24.16
577.228	24.32
577.424	24.49
577.62	24.49
577.816	24.62
578.012	24.73
578.208	24.55
578.404	24.53
578.6	24.64
578.796	24.71
578.993	24.67
579.189	24.72
579.384	24.64
579.58	24.55
579.776	24.46
579.972	24.41
580.168	24.37
580.364	24.42
580.56	24.42
580.756	24.47
580.952	24.39
581.148	24.44
581.343	24.42
581.539	24.53
581.735	24.47
581.931	24.56
582.127	24.6
582.322	24.6
582.518	24.61
582.714	24.63
582.909	24.67
583.105	24.64
583.301	24.65
583.496	24.62
583.692	24.61
583.888	24.58
584.083	24.67
584.279	24.7
584.474	24.61
584.67	24.68
584.866	24.72
585.061	24.59
585.257	24.65
585.452	24.64
585.648	24.64
585.843	24.7
586.039	24.73
586.234	24.73
586.429	24.72
586.625	24.73
586.82	24.6
587.015	24.68
587.211	24.65
587.406	24.77
587.601	24.66
587.797	24.77
587.992	24.73
588.187	24.73
588.383	24.64
588.578	24.71
588.773	24.75
588.968	24.73
589.163	24.79
589.359	24.88
589.554	24.91
589.749	24.84
589.944	24.93
590.139	24.95
590.334	25.04
590.529	25.03
590.724	25.17
590.919	25.3
591.114	25.28
591.309	25.29
591.504	25.35
591.699	25.3
591.894	25.3
592.089	25.38
592.284	25.39
592.479	25.59
592.674	25.65
592.869	25.69
593.064	25.73
593.259	25.86
593.454	25.85
593.648	25.92
593.843	25.88
594.038	25.97
594.233	25.97
594.428	25.99
594.622	25.99
594.817	26.28
595.012	26.28
595.206	26.33
595.401	26.48
595.596	26.57
595.79	26.52
595.985	26.65
596.18	26.77
596.374	26.84
596.569	26.97
596.763	26.99
596.958	27.11
597.153	27.15
597.347	27.11
597.542	27.21
597.736	27.18
597.931	27.2
598.125	27.3
598.319	27.48
598.514	27.5
598.708	27.7
598.903	27.76
599.097	27.75
599.291	27.81
599.486	27.89
599.68	27.94
599.874	28.01
600.069	28.06
600.263	27.97
600.457	27.99
600.651	28.02
600.846	28.03
601.04	28.08
601.234	28.23
601.428	28.29
601.622	28.31
601.817	28.37
602.011	28.49
602.205	28.5
602.399	28.5
602.593	28.6
602.787	28.63
602.981	28.65
603.175	28.74
603.369	28.68
603.563	28.69
603.757	28.7
603.951	28.72
604.145	28.64
604.339	28.75
604.533	28.59
604.727	28.58
604.921	28.5
605.115	28.5
605.309	28.53
605.502	28.59
605.696	28.57
605.89	28.57
606.084	28.55
606.278	28.52
606.471	28.45
606.665	28.3
606.859	28.25
607.053	28.17
607.246	28.07
607.44	28.12
607.634	28.09
607.827	28.05
608.021	27.96
608.214	27.98
608.408	27.93
608.602	27.94
608.795	27.95
608.989	27.96
609.182	27.75
609.376	27.64
609.569	27.54
609.763	27.39
609.956	27.25
610.15	27.31
610.343	27.28
610.537	27.23
610.73	27.23
610.923	27.28
611.117	27.16
611.31	27.08
611.504	27.08
611.697	26.93
611.89	26.77
612.083	26.78
612.277	26.68
612.47	26.52
612.663	26.51
612.856	26.5
613.05	26.35
613.243	26.37
613.436	26.27
613.629	26.12
613.822	25.96
614.015	25.86
614.209	25.65
614.402	25.74
614.595	25.76
614.788	25.69
614.981	25.58
615.174	25.51
615.367	25.36
615.56	25.23
615.753	25.2
615.946	25.1
616.139	25.1
616.332	25.16
616.525	25.24
616.718	25.24
616.911	25.31
617.103	25.33
617.296	25.25
617.489	25.06
617.682	24.95
617.875	24.89
618.067	24.81
618.26	24.61
618.453	24.64
618.646	24.7
618.838	24.74
619.031	24.71
619.224	24.81
619.417	24.8
619.609	24.82
619.802	24.62
619.994	24.52
620.187	24.37
620.38	24.26
620.572	24.12
620.765	24.28
620.957	24.27
621.15	24.25
621.342	24.25
621.535	24.29
621.727	24.15
621.92	24.15
622.112	24.23
622.305	24.21
622.497	24.18
622.69	24.21
622.882	24.22
623.074	24.17
623.267	24.14
623.459	24
623.651	23.93
623.844	24.01
624.036	24.01
624.228	23.98
624.42	24
624.613	24.09
624.805	23.95
624.997	23.86
625.189	23.88
625.381	23.89
625.574	23.7
625.766	23.67
625.958	23.66
626.15	23.6
626.342	23.51
626.534	23.59
626.726	23.53
626.918	23.59
627.11	23.58
627.302	23.58
627.494	23.51
627.686	23.51
627.878	23.4
628.07	23.34
628.262	23.19
628.454	23.22
628.646	23.23
628.838	23.19
629.029	23.09
629.221	23.2
629.413	23.05
629.605	22.87
629.797	22.79
629.989	22.79
630.18	22.76
630.372	22.73
630.564	22.77
630.755	22.84
630.947	22.86
631.139	22.73
631.33	22.63
631.522	22.68
631.714	22.7
631.905	22.66
632.097	22.56
632.289	22.68
632.48	22.48
632.672	22.36
632.863	22.29
633.055	22.27
633.246	22.23
633.438	22.24
633.629	22.18
633.821	22.21
634.012	22.29
634.203	22.08
634.395	22.01
634.586	22.05
634.777	21.95
634.969	21.98
635.16	22.18
635.351	22.18
635.543	22.16
635.734	22.1
635.925	22.04
636.117	21.97
636.308	22.04
636.499	21.99
636.69	21.99
636.881	21.96
637.073	21.96
637.264	21.89
637.455	21.85
637.646	21.96
637.837	22
638.028	22
638.219	22.03
638.41	21.98
638.601	21.81
638.792	21.82
638.983	21.8
639.174	21.69
639.365	21.75
639.556	21.75
639.747	21.61
639.938	21.59
640.129	21.64
640.32	21.6
640.511	21.68
640.701	21.82
640.892	21.7
641.083	21.66
641.274	21.62
641.465	21.55
641.655	21.36
641.846	21.41
642.037	21.38
642.228	21.4
642.418	21.49
642.609	21.55
642.8	21.56
642.99	21.53
643.181	21.53
643.372	21.49
643.562	21.4
643.753	21.34
643.943	21.23
644.134	21.11
644.324	21
644.515	21.02
644.705	21.03
644.896	21.09
645.086	21.14
645.277	21.1
645.467	21.05
645.658	20.95
645.848	20.95
646.038	21
646.229	20.99
646.419	20.93
646.61	20.84
646.8	20.78
646.99	20.63
647.18	20.58
647.371	20.54
647.561	20.57
647.751	20.59
647.941	20.51
648.132	20.55
648.322	20.57
648.512	20.6
648.702	20.6
648.892	20.66
649.082	20.6
649.272	20.54
649.462	20.46
649.653	20.33
649.843	20.19
650.033	20.15
650.223	20.06
650.413	19.94
650.603	19.98
650.793	19.98
650.983	19.96
651.172	19.98
651.362	20.04
651.552	19.9
651.742	19.88
651.932	19.8
652.122	19.79
652.312	19.83
652.502	19.87
652.691	19.77
652.881	19.75
653.071	19.7
653.261	19.48
653.45	19.28
653.64	19.41
653.83	19.3
654.019	19.14
654.209	19.12
654.399	19.14
654.588	18.91
654.778	18.8
654.968	18.67
655.157	18.54
655.347	18.43
655.536	18.27
655.726	18.09
655.915	18
656.105	17.76
656.294	17.66
656.484	17.52
656.673	17.42
656.863	17.38
657.052	17.26
657.241	17.06
657.431	16.88
657.62	16.71
657.809	16.34
657.999	16.2
658.188	15.97
658.377	15.75
658.567	15.57
658.756	15.49
658.945	15.34
659.134	15.15
659.324	15
659.513	14.84
659.702	14.65
659.891	14.51
660.08	14.29
660.269	14.21
660.458	14.05
660.648	13.87
660.837	13.66
661.026	13.63
661.215	13.38
661.404	13.2
661.593	13.14
661.782	12.91
661.971	12.72
662.16	12.59
662.349	12.49
662.538	12.28
662.726	12.2
662.915	12.09
663.104	11.95
663.293	11.85
663.482	11.79
663.671	11.68
663.86	11.51
664.048	11.33
664.237	11.22
664.426	10.94
664.615	10.94
664.803	10.79
664.992	10.61
665.181	10.42
665.369	10.38
665.558	10.23
665.747	10.17
665.935	10.28
666.124	10.34
666.312	10.29
666.501	10.15
666.69	10.08
666.878	9.99
667.067	9.84
667.255	9.91
667.444	10.14
667.632	10.22
667.82	10.27
668.009	10.21
668.197	10.05
668.386	9.83
668.574	9.81
668.762	9.7
668.951	9.71
669.139	9.71
669.327	9.6
669.516	9.53
669.704	9.47
669.892	9.57
670.08	9.6
670.269	9.58
670.457	9.59
670.645	9.49
670.833	9.56
671.021	9.54
671.21	9.63
671.398	9.81
671.586	9.94
671.774	9.76
671.962	9.87
672.15	9.95
672.338	9.75
672.526	9.81
672.714	9.75
672.902	9.74
673.09	9.89
673.278	10.12
673.466	10.21
673.654	10.56
673.842	10.63
674.03	10.62
674.218	10.62
674.405	10.64
674.593	10.46
674.781	10.55
674.969	10.63
675.157	10.71
675.344	10.87
675.532	11.04
675.72	11.17
675.908	11.24
676.095	11.17
676.283	11.23
676.471	11.4
676.658	11.37
676.846	11.32
677.033	11.7
677.221	11.77
677.409	11.69
677.596	11.83
677.784	11.93
677.971	11.86
678.159	11.94
678.346	12.09
678.534	12.09
678.721	12.34
678.909	12.37
679.096	12.44
679.283	12.72
679.471	12.92
679.658	13.05
679.846	13.3
680.033	13.55
680.22	13.59
680.408	13.7
680.595	13.78
680.782	13.77
680.969	13.88
681.157	14.03
681.344	14.09
681.531	14.23
681.718	14.4
681.905	14.54
682.093	14.65
682.28	14.87
682.467	15.2
682.654	15.52
682.841	15.65
683.028	16.06
683.215	16.32
683.402	16.2
683.589	16.34
683.776	16.7
683.963	16.63
684.15	16.96
684.337	17.32
684.524	17.6
684.711	17.87
684.898	18.2
685.085	18.42
685.271	18.78
685.458	19.06
685.645	19.22
685.832	19.63
686.019	20.08
686.205	20.43
686.392	20.77
686.579	21.27
686.766	21.63
686.952	21.88
687.139	22.4
687.326	22.67
687.512	22.98
687.699	23.31
687.886	23.66
688.072	23.82
688.259	24.38
688.445	24.86
688.632	25.26
688.818	26.01
689.005	26.67
689.191	27.1
689.378	27.71
689.564	28.34
689.751	28.81
689.937	29.15
690.124	29.72
690.31	29.92
690.496	30.31
690.683	30.7
690.869	31.22
691.055	31.77
691.242	32.7
691.428	33.37
691.614	34.04
691.8	34.66
691.987	35.4
692.173	35.85
692.359	36.41
692.545	36.92
692.731	37.6
692.918	37.92
693.104	38.49
693.29	39.11
693.476	39.93
693.662	40.5
693.848	41.23
694.034	41.71
694.22	42.01
694.406	42.36
694.592	43.06
694.778	43.7
694.964	44.31
695.15	45.01
695.336	45.47
695.522	46.11
695.708	46.69
695.894	47.14
696.08	48
696.265	48.69
696.451	49.31
696.637	49.91
696.823	50.59
697.009	50.73
697.194	51.02
697.38	51.11
697.566	51.4
697.751	51.73
697.937	52.69
698.123	53.22
698.308	54.01
698.494	54.62
698.68	55.24
698.865	55.56
699.051	56.32
699.236	56.55
699.422	56.59
699.607	56.79
699.793	57.05
699.978	57.03
700.164	57.37
700.349	58.01
700.535	58.67
700.72	59.12
700.906	59.92
701.091	60.26
701.276	60.68
701.462	61.3
701.647	61.99
701.832	62.17
702.018	62.55
702.203	62.84
702.388	62.64
702.573	62.59
702.759	63.17
702.944	63.46
703.129	63.47
703.314	63.78
703.499	63.76
703.684	63.71
703.87	64.65
704.055	65.58
704.24	66.01
704.425	66.99
704.61	67.6
704.795	67.27
704.98	66.97
705.165	67.07
705.35	67.07
705.535	67.02
705.72	67.46
705.905	68.06
706.09	68.67
706.275	68.58
706.459	68.55
706.644	68.65
706.829	68.61
707.014	68.22
707.199	68.6
707.384	69.25
707.568	69.5
707.753	69.69
707.938	70.47
708.123	70.33
708.307	70.16
708.492	70.24
708.677	70.61
708.861	70.36
709.046	70.76
709.231	71.14
709.415	71.48
709.6	71.36
709.784	71.58
709.969	71.78
710.153	71.86
710.338	71.79
710.522	72.02
710.707	72.32
710.891	72.27
711.076	72.41
711.26	72.24
711.445	72.45
711.629	72.45
711.813	73.13
711.998	73.48
712.182	73.73
712.366	74.46
712.551	75.19
712.735	74.79
712.919	74.56
713.103	74.88
713.288	73.99
713.472	73.47
713.656	74.13
713.84	74.04
714.024	74.25
714.208	74.58
714.393	74.98
714.577	74.68
714.761	74.89
714.945	74.63
715.129	74.68
715.313	74.49
715.497	74.49
715.681	75.26
715.865	75.27
716.049	75.64
716.233	75.83
716.417	76.17
716.601	75.66
716.785	75.66
716.968	75.67
717.152	75.65
717.336	75.5
717.52	75.52
717.704	75.84
717.888	76.07
718.071	76.41
718.255	76.88
718.439	76.59
718.622	76.85
718.806	76.61
718.99	76.58
719.174	76.22
719.357	77.2
719.541	77.02
719.724	77.18
719.908	77.75
720.092	78.26
720.275	78.38
720.459	78.43
720.642	78.48
720.826	78.06
721.009	77.59
721.193	76.71
721.376	76.78
721.559	76.76
721.743	76.67
721.926	77.07
722.11	77.79
722.293	77.46
722.476	77.39
722.66	77.47
722.843	77.39
723.026	76.78
723.21	77.32
723.393	78.23
723.576	77.78
723.759	77.62
723.942	78.13
724.126	78.08
724.309	77.6
724.492	78.04
724.675	77.87
724.858	77.76
725.041	78.14
725.224	78.42
725.407	78.65
725.59	78.96
725.774	78.8
725.957	78.06
726.14	77.88
726.322	78.1
726.505	78.12
726.688	79.1
726.871	79.55
727.054	79.78
727.237	79.75
727.42	80.26
727.603	79.91
727.786	80.28
727.968	80.54
728.151	80.55
728.334	80.48
728.517	80.67
728.699	80.88
728.882	80.72
729.065	81.1
729.248	81.58
729.43	82.06
729.613	82.68
729.796	83.29
729.978	82.29
730.161	81.64
730.343	81.24
730.526	81.48
730.708	80.52
730.891	81.37
731.073	81.67
731.256	81.15
731.438	80.45
731.621	81.13
731.803	80.85
731.986	80.85
732.168	80.43
732.35	80.74
732.533	81.32
732.715	82.25
732.898	82.48
733.08	83.88
733.262	83.93
733.444	83.28
733.627	83.02
733.809	83.42
733.991	83.58
734.173	83.15
734.355	83.16
734.538	83.75
734.72	83.67
734.902	83.8
735.084	83.92
735.266	84.28
735.448	84.07
735.63	83.79
735.812	83.56
735.994	84.48
736.176	84.39
736.358	84.15
736.54	85.14
736.722	84.45
736.904	83.99
737.086	84
737.268	84.75
737.45	84.99
737.632	85.58
737.814	85.74
737.995	85.85
738.177	85.53
738.359	84.24
738.541	84.23
738.723	84.15
738.904	84.09
739.086	83.97
739.268	84.39
739.449	84.82
739.631	85.11
739.813	85.26
739.994	85.56
740.176	85.91
740.358	85.32
740.539	85.54
740.721	85.8
740.902	86.6
741.084	86.29
741.265	86.95
741.447	86.8
741.628	86.42
741.81	85.18
741.991	85.51
742.172	85.87
742.354	86.25
742.535	86.88
742.717	87.67
742.898	88.35
743.079	88.14
743.261	87.84
743.442	87.19
743.623	87.57
743.804	87.9
743.986	87.65
744.167	86.9
744.348	86.48
744.529	86.27
744.71	83.86
744.891	83.97
745.073	84.01
745.254	84.37
745.435	83.57
745.616	84.61
745.797	84.42
745.978	84.68
746.159	84.78
746.34	84.28
746.521	85.78
746.702	84.95
746.883	85.18
747.064	84.92
747.245	85.96
747.426	84.99
747.606	86.22
747.787	86.09
747.968	86.42
748.149	86.49
748.33	86.29
748.51	85.76
748.691	86.09
748.872	86.22
749.053	85.91
749.233	84.39
749.414	83.1
749.595	82.31
749.775	81.88
749.956	80.96
750.137	82.59
750.317	85.26
750.498	87.26
750.678	87.65
750.859	88.78
751.04	88.51
751.22	85.8
751.4	83.82
751.581	82.7
751.761	81.78
751.942	82.73
752.122	83.42
752.303	83.69
752.483	84.07
752.663	84.55
752.844	83.39
753.024	85.13
753.204	84.91
753.385	84.54
753.565	85.13
753.745	84.14
753.925	82.04
754.106	82.01
754.286	82.93
754.466	81.31
754.646	83.02
754.826	83.17
755.006	82.43
755.187	82.39
755.367	83.42
755.547	82.8
755.727	84.33
755.907	85.31
756.087	85.45
756.267	84.19
756.447	84.1
756.627	81.73
756.807	81.21
756.987	82.11
757.167	82.83
757.346	83.12
757.526	83.25
757.706	84.99
757.886	84.83
758.066	84.91
758.246	86.35
758.425	86.46
758.605	85.05
758.785	84.73
758.965	84.54
759.144	82.12
759.324	83.67
759.504	84.09
759.683	83.81
759.863	82.91
760.043	81.25
760.222	80.09
760.402	79.51
760.581	78.36
760.761	79.96
760.94	79.96
761.12	81.73
761.299	82.42
761.479	82.58
761.658	81.64
761.838	82.66
762.017	81.67
762.197	81.82
762.376	82.61
762.555	83.45
762.735	83.96
762.914	82.16
763.093	81.72
763.273	80.9
763.452	80.94
763.631	81.76
763.81	82.23
763.99	81.43
764.169	81.92
764.348	80.18
764.527	79.14
764.706	81.62
764.885	82.94
765.064	81.56
765.243	82.28
765.423	82.57
765.602	81.04
765.781	78.67
765.96	78.8
766.139	77.43
766.318	77.62
766.497	76.37
766.676	77.83
766.854	79.74
767.033	80.66
767.212	78.78
767.391	79.8
767.57	80.23
767.749	78.23
767.928	80.06
768.106	81.45
768.285	79.22
768.464	78.58
768.643	78.76
768.821	77.78
769	79.28
769.179	79.8
769.357	79.01
769.536	79.15
769.715	78.22
769.893	77.66
770.072	78.4
770.25	79.13
770.429	80.8
770.607	80.59
770.786	80.82
770.964	81.25
771.143	79.74
771.321	79.47
771.5	80.75
771.678	79.47
771.857	78.87
772.035	80.16
772.213	79.9
772.392	77.5
772.57	79.52
772.748	79.61
772.927	78.66
773.105	77.12
773.283	78.57
773.461	76.74
773.64	78.23
773.818	78.46
773.996	80.6
774.174	81.51
774.352	79.4
774.531	76.31
774.709	76.15
774.887	74.54
775.065	72.84
775.243	74.5
775.421	75.82
775.599	77.01
775.777	73.88
775.955	72.19
776.133	72.27
776.311	71.71
776.489	69.16
776.667	71.57
776.844	72.03
777.022	69.73
777.2	68.75
777.378	69.22
777.556	69.74
777.734	71.25
777.911	74.21
778.089	73.45
778.267	73.15
778.445	70.94
778.622	70.04
778.8	68.66
778.978	72.8
779.155	73.39
779.333	75.32
779.511	75.59
779.688	78.4
779.866	73.83
780.043	71.57
780.221	71.15
780.398	68.52
780.576	68.47
780.753	70.45
780.931	70.63
781.108	71.31
781.286	74.83
781.463	68.76
781.64	67.54
781.818	70.15
781.995	70.37
782.172	68.03
782.35	69.03
782.527	71.32
782.704	69.09
782.882	68.77
783.059	67.5
783.236	68.59
783.413	69.27
783.59	71.56
783.768	67.6
783.945	69.29
784.122	71.52
784.299	71.62
784.476	69.31
784.653	72.33
784.83	72.18
785.007	68.51
785.184	67.11
785.361	67.75
785.538	69.65
785.715	71.07
785.892	74.12
786.069	76.18
786.246	75.99
786.423	73.46
786.6	74.21
786.776	74.75
786.953	73.51
787.13	76.55
787.307	76.67
787.484	76.09
787.66	72.47
787.837	70.33
788.014	64.74
788.191	64.81
788.367	59.07
788.544	64.91
788.721	66.11
788.897	70
789.074	70.23
789.25	71.38
789.427	68.51
789.603	67.56
789.78	65.83
789.956	63.69
790.133	67.49
790.309	68.33
790.486	68.49
790.662	66.83
790.839	67.61
791.015	66.69
791.192	64
791.368	65.53
791.544	66.71
791.721	67.03
791.897	66.87
792.073	64.12
792.249	58.1
792.426	61.43
792.602	62.74
792.778	60.23
792.954	62.71
793.13	66.28
793.307	57.78
793.483	50.42
793.659	51.49
793.835	53.79
794.011	52.05
794.187	55.66
794.363	57.85
794.539	58.02
794.715	53.51
794.891	55.78
795.067	58.04
795.243	64.15
795.419	62.54
795.595	66.32
795.771	60.74
795.947	59.64
796.122	57.41
796.298	60.34
796.474	60.22
796.65	62.05
796.826	61.05
797.001	57.25
797.177	54.3
797.353	62.42
797.529	64.77
797.704	65.2
797.88	62.91
798.056	61.12
798.231	55.03
798.407	57.69
798.582	56.19
798.758	66.58
798.934	74.12
799.109	68.19
799.285	64.59
799.46	68.33
799.636	62.86
799.811	58.45
799.986	59.78
800.162	58.91
800.337	56.57
800.513	54.47
800.688	52.13
800.863	57.79
801.039	56.66
801.214	55.67
801.389	64.1
801.565	66.78
801.74	49.66
801.915	62.15
802.09	57.64
802.265	60.04
802.441	57.59
802.616	69.16
802.791	59.7
802.966	62.51
803.141	54.47
803.316	51.89
803.491	56.26
803.666	59.15
803.841	60.11
804.016	55.36
804.191	59.1
804.366	47.17
804.541	43.14
804.716	43.49
804.891	45.52
805.066	48.67
805.241	54.08
805.416	56.29
805.591	53.96
805.765	56.55
805.94	58.35
806.115	56.24
806.29	47.06
806.464	52.33
806.639	48.08
806.814	34.1
806.989	29.26
807.163	40.25
807.338	39.14
807.512	37.95
807.687	32.36
807.862	45.07
808.036	49.18
808.211	46.82
808.385	58.99
808.56	78.69
808.734	78.75
808.909	69.01
809.083	69.86
809.258	65.51
809.432	59.6
809.606	48.08
809.781	50.73
809.955	56.8
810.13	57.14
810.304	53.18
810.478	51.98
810.652	56.1
810.827	45.92
811.001	41.95
811.175	47.74
811.349	44.47
811.524	35.69
811.698	30.44
811.872	32.88
812.046	33.34
812.22	45.14
812.394	47.33
812.568	56.09
812.742	60.4
812.916	62.44
813.09	56
813.264	57.05
813.438	57.62
813.612	50.57
813.786	44.55
813.96	56.07
814.134	59.89
814.308	65.67
814.482	65.83
814.656	60.03
814.83	59.45
815.003	52.67
815.177	40.94
815.351	31.22
815.525	33.87
815.698	23.34
815.872	18.41
816.046	9.23
816.219	20.32
816.393	29.03
816.567	47.71
816.74	57.42
816.914	69.09
817.088	69.98
817.261	64.34
817.435	39.58
817.608	40.51
817.782	26.85
817.955	29.35
818.129	27.64
818.302	35.23
818.475	37.22
818.649	42.03
818.822	39.53
818.996	52.98
819.169	51.47
819.342	43.82
819.516	47.78
819.689	50.51
819.862	39.7
820.035	35.7
820.209	33.65
820.382	34.61
820.555	43
820.728	41.79
820.901	40.74
821.075	43.66
821.248	43.52
821.421	17.82
821.594	21.09
821.767	43.03
821.94	48.98
822.113	25.95
822.286	31.26
822.459	34.53
822.632	11.59
822.805	7.2
822.978	18.93
823.151	17.1
823.324	0.39
823.496	-6.71
823.669	-15.35
823.842	-8.87
824.015	-13.62
824.188	-4.96
824.361	-0.88
824.533	4.85
824.706	14.16
824.879	12.89
825.051	26.27
825.224	27.17
825.397	26.01
825.569	8.28
825.742	36.13
825.915	36.15
826.087	40.83
826.26	30.53
826.432	36.94
826.605	26.58
826.777	6.91
826.95	7.64
827.122	-1.12
827.295	-4.27
827.467	1.95
827.64	-11.27
827.812	-35.64
827.984	-26.15
828.157	-42.1
828.329	-83.79
828.501	-55.85
828.674	-3.5
828.846	-21.19
829.018	14.56
829.19	10.46
829.363	25.43
829.535	14.16
829.707	34.03
829.879	14.35
830.051	13.61
830.223	4.17
830.395	-28.76
830.568	-54.6
830.74	-71.23
830.912	-42
831.084	-60.89
831.256	-34.26
831.428	-34.19
831.6	-41.64
831.772	-85.58
831.943	-90.59
832.115	-67.05
832.287	-36.79
832.459	-13.62
832.631	17.1
832.803	37.82
832.975	45.62
833.146	31.76
833.318	27.72
833.49	32.38
833.662	17.56
833.833	-17.52
834.005	-6.62
834.177	-2
834.348	-11.46
834.52	-31.22
834.692	-17.38
834.863	-48.38
835.035	-51.75
835.206	-107.08
835.378	-73.15
835.549	-58.43
835.721	-43.38
835.892	-54.11
836.064	-39.25
836.235	-31.06
836.407	-28.03
836.578	-67.39
836.749	-47.13
836.921	-83.2
837.092	-87.74
837.264	-67.56
837.435	-55.44
837.606	-16.75
837.777	25.53
837.949	28.33
838.12	26.06
838.291	35.5
838.462	26.81
838.633	-7.14
838.805	-1.08
838.976	10.21
839.147	-40.45
839.318	-55.79
839.489	-96.37
839.66	-113.8
839.831	-93.65
840.002	-69.95
840.173	-104.02
840.344	-17.95
840.515	-21
840.686	-95.79
840.857	-82.29
841.028	-45.48
841.199	-61.47
841.369	-53.12
841.54	-55.51
841.711	-29.43
841.882	-35.48
842.053	-43.05
842.223	-72.25
842.394	-34.38
842.565	-42.74
842.736	-10.72
842.906	-2.9
843.077	22.2
843.248	22.71
843.418	31.12
843.589	9.14
843.759	21.85
843.93	47.16
844.101	25.44
844.271	20.87
844.442	14.94
844.612	37.06
844.783	-11.2
844.953	-49.55
845.123	-95.54
845.294	-69.45
845.464	-317.99
845.635	-105.78
845.805	-16.13
845.975	38.38
846.146	-12.91
846.316	-9.78
846.486	17.89
846.656	41.53
846.827	14.82
846.997	20.54
847.167	41.78
847.337	0.21
847.507	-57.52
847.677	-24.56
847.848	22.28
848.018	17.18
848.188	20.87
848.358	12.28
848.528	0.16
848.698	-38.72
848.868	-108.45
849.038	-168.96
849.208	-48.29
849.378	-1.57
849.548	-0.02
849.718	5.48
849.887	-4.15
850.057	-34.82
850.227	-72.43
850.397	-119.2
850.567	-251.72
850.737	-494.46
850.906	-1166.56
851.076	-858.01
851.246	-381.81
851.415	-31.07
851.585	-34.28
851.755	-77.07
851.924	-37.2
852.094	-63.06
852.264	-152.05
852.433	-931.97
852.603	-173.08
852.772	-103.5
852.942	-32.97
853.111	-55.74
853.281	-0.73
853.45	21.81
853.62	-43.22
853.789	-62.79
853.959	-52.72
854.128	-80.26
854.297	-82.45
854.467	-94.71
854.636	-109.59
854.805	-28.03
854.975	-81.21
855.144	-188.29
855.313	-243.53
855.482	-604.56
855.652	-374.03
855.821	-183.21
855.99	-38
856.159	-31.43
856.328	-1.13
856.497	-13.02
856.667	-5.18
856.836	-7.68
857.005	-40.35
857.174	-82.25
857.343	-140.15
857.512	-169.05
857.681	-204.02
857.85	-234.32
858.019	-105.25
858.188	-73.1
858.356	-84.65
858.525	-134.11
858.694	-82.25
858.863	-194.21
859.032	-143.81
859.201	-131.22
859.369	-77.36
859.538	-88.14
859.707	-96.04
859.876	-104.08
860.044	-124.17
860.213	-26.28
860.382	-35.24
860.55	-28.62
860.719	-12.18
860.888	13.08
861.056	-13.04
861.225	-19.82
861.393	19.21
861.562	48.05
861.73	-51.61
861.899	-224.74
862.067	-2235.34
862.236	-143.66
862.404	-385.66
862.572	-259.25
862.741	-125.36
862.909	-102.05
863.078	-261.52
863.246	-132.1
863.414	-95.68
863.582	-54.65
863.751	-96.65
863.919	-47.15
864.087	-26.84
864.255	-59.3
864.424	-357.47
864.592	-69.78
864.76	-158.57
864.928	-737
865.096	-370.78
865.264	-309.77
865.432	-2891.48
865.6	-354.13
865.768	-150.05
865.936	-146.88
866.104	-139.7
866.272	-172.58
866.44	-373.33
866.608	686.55
866.776	337.67
866.944	3161.05
867.112	-545.44
867.28	-233.26
867.448	-102.74
867.615	-33.88
867.783	-21.13
867.951	-52.36
868.119	-33.64
868.286	-16.73
868.454	-180.51
868.622	-173.33
868.789	-189.57
868.957	-3751.79
869.125	-3024.34
869.292	-185.81
869.46	-277.58
869.627	-74.6
869.795	-83.08
869.963	-29.06
870.13	-2.57
870.298	12.86
870.465	-52.8
870.632	-55.65
870.8	-47.41
870.967	-83.5
871.135	-137.98
871.302	-100.73
871.469	-101.6
871.637	-113.26
871.804	-45.64
871.971	-104.4
872.139	-414.53
872.306	-32.11
872.473	-76.21
872.64	-342.6
872.807	-149.11
872.975	-11.93
873.142	-269.55
873.309	2862.84
873.476	-56.58
873.643	1.73
873.81	-36.38
873.977	-18.05
874.144	12.7
874.311	-223.82
874.478	-232.92
874.645	-207.14
874.812	-155.89
874.979	-76.44
875.146	-72.46
875.313	-66.66
875.48	3.85
875.647	-8.43
875.813	-39.38
875.98	-17.25
876.147	-53.3
876.314	-149.81
876.481	1368.8
876.647	-2042.98
876.814	915.67
876.981	-369.33
877.147	-174.05
877.314	-61.86
877.481	-3.75
877.647	3.69
877.814	-55.53
877.98	-111.06
878.147	-67.49
878.314	-32.13
878.48	-100.7
878.647	-37.23
878.813	11.31
878.979	11.44
879.146	-28.5
879.312	-12.12
879.479	-72.8
879.645	-180.05
879.811	-415.54
879.978	-1039.89
880.144	-325.35
880.31	-159.17
880.477	-364.82
880.643	-297.98
880.809	-155.44
880.975	-122.25
881.142	-913.86
881.308	-137.74
881.474	-94.4
881.64	-58.3
881.806	-98.2
881.972	-0.85
882.138	-17.73
882.304	24.14
882.47	-158.42
882.636	-718.24
882.802	-349.76
882.968	-72.71
883.134	-54.32
883.3	-69.13
883.466	-13.74
883.632	31.92
883.798	-20.81
883.964	-59.39
884.129	-26.38
884.295	-31.33
884.461	-89.99
884.627	-87.72
884.793	-93.54
884.958	-71.49
885.124	-150.68
885.29	-226.9
885.455	-460.32
885.621	-145.15
885.787	-216
885.952	-102.34
886.118	-84.33
886.283	-54.87
886.449	-146.48
886.614	-110.94
886.78	-232.02
886.945	1126.64
887.111	-792.63
887.276	-649.57
887.442	-1257.5
887.607	-625.59
887.773	-420.46
887.938	-321.21
888.103	-332.59
888.269	-228.69
888.434	-322.84
888.599	-93.19
888.764	55.62
888.93	-10.77
889.095	-27.87
889.26	-58.57
889.425	-47.92
889.59	-71.76
889.756	-64.33
889.921	-26.36
890.086	-4.61
890.251	-26.68
890.416	-275.34
890.581	-1785.89
890.746	327.95
890.911	665.13
891.076	245.91
891.241	-414.37
891.406	-61.83
891.571	-171.39
891.736	-291.86
891.901	-385.18
892.065	504.67
892.23	118.94
892.395	199.66
892.56	387.64
892.725	-790.04
892.889	-2195.73
893.054	-328.47
893.219	-135.2
893.384	-81.04
893.548	-128.84
893.713	-154.66
893.878	-112.73
