Data from Ofra_1a_PS_OGT14_Reflection_1.txt Node
Date: Tue Jul 20 10:41:20 EDT 2021
User: Adam
Spectrometer: FLMT01687
Trigger mode: 0
Integration Time (sec): 1.004000E0
Scans to average: 2
Electric dark correction enabled: true
Nonlinearity correction enabled: false
Boxcar width: 2
XAxis mode: Wavelengths
Number of Pixels in Spectrum: 3648
>>>>>Begin Spectral Data<<<<<
179.494	-285.28
179.716	-332.82
179.937	723.08
180.158	-765.61
180.38	177.35
180.601	131.75
180.823	121.79
181.044	-85.54
181.265	-300.24
181.486	256.32
181.708	169.39
181.929	-13618.18
182.15	-178
182.372	828.57
182.593	338.16
182.814	-63.5
183.035	-10.7
183.257	21.53
183.478	-5.14
183.699	-22.98
183.92	-64.76
184.141	-59.76
184.363	-14.08
184.584	-5.66
184.805	-3.55
185.026	34.89
185.247	24.15
185.468	4.01
185.689	1.68
185.91	-19.43
186.132	-16.94
186.353	9.49
186.574	30.46
186.795	21.06
187.016	51.93
187.237	52.48
187.458	15.64
187.679	-0.05
187.9	48.46
188.121	52.31
188.342	70.02
188.563	105.97
188.784	102.51
189.005	72.84
189.226	67.48
189.447	52.9
189.667	44.07
189.888	14.45
190.109	2.81
190.33	0.43
190.551	2.5
190.772	-2.37
190.993	12.02
191.214	5.63
191.434	20.82
191.655	17.72
191.876	48.63
192.097	63.19
192.318	58.06
192.538	27.09
192.759	20.19
192.98	5.22
193.201	-11.43
193.421	-14.44
193.642	-6.14
193.863	-3
194.083	4.29
194.304	22.11
194.525	28.31
194.745	38.47
194.966	34.99
195.187	36.33
195.407	15.44
195.628	20.72
195.848	5.77
196.069	-11.04
196.29	-26.64
196.51	-18.24
196.731	-19.99
196.951	4.64
197.172	16.7
197.392	13.1
197.613	26.64
197.833	19.63
198.054	1.64
198.274	19.79
198.495	41.35
198.715	62.41
198.936	61.89
199.156	59.55
199.377	24.67
199.597	11.89
199.817	-3.89
200.038	-28.61
200.258	-9.23
200.479	-3.23
200.699	-9.86
200.919	-22.96
201.14	-8.64
201.36	11.64
201.58	10.52
201.801	-14.78
202.021	-4.22
202.241	-0.37
202.461	-6.41
202.682	10.32
202.902	25.54
203.122	27.74
203.342	33.79
203.563	8.67
203.783	6.02
204.003	14.41
204.223	32.51
204.443	32.01
204.663	63.99
204.884	33.82
205.104	33.27
205.324	16.54
205.544	-28.02
205.764	-1.38
205.984	24.89
206.204	21.36
206.424	-2.29
206.644	10.91
206.864	-10.97
207.084	9.85
207.304	17.38
207.525	28.98
207.745	46.28
207.964	64.85
208.184	61.28
208.404	42.18
208.624	53.79
208.844	50.16
209.064	41.94
209.284	28.56
209.504	17.56
209.724	-8.49
209.944	-20.39
210.164	-26.05
210.384	-27.43
210.604	-26.23
210.823	-29.12
211.043	7.84
211.263	-35.75
211.483	9.97
211.703	18.88
211.922	29.94
212.142	37
212.362	67.1
212.582	35.35
212.801	33.08
213.021	12.62
213.241	-16.23
213.461	-26.44
213.68	4.16
213.9	-5.78
214.12	4
214.339	9.46
214.559	3.06
214.779	-4.74
214.998	4.46
215.218	3.16
215.438	14.23
215.657	23.67
215.877	14.57
216.096	30.22
216.316	45.64
216.535	34.15
216.755	33.18
216.974	33.29
217.194	-3.36
217.413	-17.17
217.633	-15.47
217.852	-22.93
218.072	-6.62
218.291	-6.85
218.511	-4.45
218.73	-8.15
218.95	-20.33
219.169	-34.37
219.389	-10.79
219.608	-8.68
219.827	2.68
220.047	11.29
220.266	-8.55
220.485	-22.13
220.705	-23.47
220.924	-14.12
221.143	-3.18
221.363	21.19
221.582	28.5
221.801	27.15
222.021	21.85
222.24	14.18
222.459	19.75
222.678	16.42
222.897	3.87
223.117	16.99
223.336	38.24
223.555	56.52
223.774	76.69
223.993	105.91
224.213	97.94
224.432	77.3
224.651	56.45
224.87	47.75
225.089	41.9
225.308	43.47
225.527	24.56
225.746	30.28
225.965	34.52
226.184	17.05
226.404	-6.99
226.623	13.06
226.842	7.62
227.061	-0.56
227.28	11.04
227.499	26.56
227.718	19.62
227.936	15.45
228.155	19.8
228.374	26.04
228.593	29.38
228.812	32.47
229.031	39.37
229.25	28.98
229.469	28.27
229.688	8.33
229.907	18.78
230.125	6.82
230.344	14.46
230.563	21.68
230.782	22.95
231.001	19.89
231.22	30.92
231.438	31.27
231.657	27.92
231.876	28.74
232.095	24.36
232.313	1.81
232.532	3.52
232.751	-16.57
232.969	-8.22
233.188	-18.83
233.407	-2.71
233.625	-15.26
233.844	-19.02
234.063	-21.03
234.281	-20.21
234.5	-21.56
234.719	-18.01
234.937	-35.43
235.156	-57.08
235.374	-60.97
235.593	-36.41
235.811	-21.4
236.03	3.51
236.249	20.48
236.467	35.97
236.686	25.09
236.904	35.52
237.123	30.1
237.341	26.84
237.559	13.48
237.778	18.59
237.996	-19.29
238.215	-51.56
238.433	-87.31
238.652	-13.19
238.87	0.24
239.088	18.26
239.307	9.46
239.525	15.68
239.743	1.55
239.962	-10.64
240.18	4.12
240.398	12.49
240.617	-4.49
240.835	6.27
241.053	-11.55
241.271	-24.1
241.49	-8.19
241.708	1.99
241.926	-0.96
242.144	21.16
242.363	13.92
242.581	-1.01
242.799	-16.37
243.017	-15.77
243.235	3.91
243.453	-12.48
243.672	10.87
243.89	20.48
244.108	28.93
244.326	16.85
244.544	39.12
244.762	31.62
244.98	33.31
245.198	30.58
245.416	38.21
245.634	27.8
245.852	15.08
246.07	20.54
246.288	14.28
246.506	8.66
246.724	7.38
246.942	24.24
247.16	22.7
247.378	18.25
247.596	37.44
247.814	28.76
248.032	27.3
248.25	31.15
248.468	32.39
248.685	19.47
248.903	16.82
249.121	20.53
249.339	23.9
249.557	30.47
249.775	39.77
249.992	43.83
250.21	33.41
250.428	37.02
250.646	29.9
250.863	12.84
251.081	26.07
251.299	31.23
251.517	26.73
251.734	38.01
251.952	42.56
252.17	31.72
252.387	18.06
252.605	11.42
252.823	-10.98
253.04	12.34
253.258	16.12
253.475	40.6
253.693	36.16
253.911	23.02
254.128	19.07
254.346	30.57
254.563	29.72
254.781	19.74
254.998	19.52
255.216	-6.03
255.433	-30.32
255.651	-47.65
255.868	-21.46
256.086	7.49
256.303	8.94
256.521	7.7
256.738	15.06
256.956	11.32
257.173	4.63
257.39	14.17
257.608	10.13
257.825	8.02
258.043	7.73
258.26	4.64
258.477	1.79
258.695	7.93
258.912	0.47
259.129	-3.17
259.346	1.75
259.564	3.37
259.781	-7.23
259.998	-0.48
260.216	3.69
260.433	-15.62
260.65	-6.9
260.867	-5.4
261.084	0.33
261.302	2.98
261.519	46.14
261.736	23.17
261.953	21.38
262.17	19
262.387	14.95
262.604	6.41
262.822	18.86
263.039	30.12
263.256	28.89
263.473	32.66
263.69	30.53
263.907	35.32
264.124	26.55
264.341	37.99
264.558	29.06
264.775	35.63
264.992	37.4
265.209	19.85
265.426	-3.9
265.643	4.92
265.86	-0.41
266.077	-19.78
266.294	4.44
266.51	12.83
266.727	6.19
266.944	2.9
267.161	9.69
267.378	17.83
267.595	10
267.812	12.43
268.028	5.38
268.245	2.03
268.462	-10.25
268.679	-2.41
268.896	0.15
269.112	0.32
269.329	-9.34
269.546	6.97
269.763	30.2
269.979	26.21
270.196	47.32
270.413	51.21
270.629	44.18
270.846	20.89
271.063	23.66
271.279	10.04
271.496	9.58
271.712	-0.21
271.929	12.67
272.146	8.91
272.362	11.26
272.579	7.42
272.795	17.57
273.012	17.98
273.228	15.58
273.445	14.58
273.661	15.16
273.878	9.19
274.094	-7.8
274.311	-0.62
274.527	-17
274.744	-1.42
274.96	3.79
275.177	17.11
275.393	13.58
275.609	24.71
275.826	14.66
276.042	6.22
276.259	11.35
276.475	6.33
276.691	-1.74
276.908	7.09
277.124	16.23
277.34	-2.98
277.557	-6.94
277.773	-23.81
277.989	-26.19
278.205	-16.13
278.422	-10.68
278.638	-1.24
278.854	7.88
279.07	17.81
279.286	19.59
279.503	36.44
279.719	29.61
279.935	31.4
280.151	18.92
280.367	18.5
280.583	5.52
280.799	5.13
281.016	-26.94
281.232	-10.28
281.448	-12.92
281.664	-3.34
281.88	13.04
282.096	38.63
282.312	33.47
282.528	39.9
282.744	48.11
282.96	40.31
283.176	25.4
283.392	-14.39
283.608	-28.93
283.824	-91.28
284.04	-133.99
284.256	-72.88
284.471	-37.69
284.687	-32.33
284.903	-17.11
285.119	13.29
285.335	17.89
285.551	14.64
285.767	15.8
285.982	32.82
286.198	-2.02
286.414	-17.1
286.63	9.27
286.846	-8.53
287.061	3.41
287.277	4.73
287.493	12.06
287.709	29.85
287.924	35.23
288.14	21.35
288.356	30.67
288.571	9.91
288.787	-9.78
289.003	6.71
289.218	-10.99
289.434	-17.86
289.65	12.29
289.865	10.71
290.081	-1.81
290.296	1.45
290.512	-9.27
290.727	-17.97
290.943	-7.86
291.159	-8.46
291.374	-12.25
291.59	8.38
291.805	-6.93
292.021	-11.18
292.236	-15.21
292.451	8.12
292.667	-9.01
292.882	-0.03
293.098	0.91
293.313	12.99
293.529	10.84
293.744	15.76
293.959	34.81
294.175	33.99
294.39	12.32
294.605	20.34
294.821	24.42
295.036	14.08
295.251	23.21
295.467	14.24
295.682	6.6
295.897	8.58
296.112	6.12
296.328	-2.83
296.543	8.33
296.758	1.44
296.973	0.64
297.188	4.59
297.404	-2.9
297.619	-4.55
297.834	-33.71
298.049	-52.62
298.264	-38.66
298.479	-54.04
298.694	-13.18
298.909	-1.38
299.125	-5.15
299.34	-5.7
299.555	13.39
299.77	24.11
299.985	18.25
300.2	38.21
300.415	45.89
300.63	36.14
300.845	30.35
301.06	28.67
301.275	14.3
301.49	8.27
301.704	4.68
301.919	-10.17
302.134	18.63
302.349	19.02
302.564	9.78
302.779	7.1
302.994	25.73
303.209	-8.62
303.423	-4.61
303.638	-1.75
303.853	-4.71
304.068	-38.67
304.283	-18.5
304.497	-37.94
304.712	-11.51
304.927	9
305.142	23.21
305.356	25.67
305.571	32.83
305.786	26.49
306	38.62
306.215	21.45
306.43	18.55
306.644	2.55
306.859	-24.38
307.074	-33.43
307.288	-6.08
307.503	20.28
307.717	21.62
307.932	35.69
308.147	34.65
308.361	34.33
308.576	23.62
308.79	30.93
309.005	8.4
309.219	14.72
309.434	23.16
309.648	7.33
309.863	-0.03
310.077	28.25
310.292	33.58
310.506	-5.4
310.72	-1.22
310.935	-2.5
311.149	-11.39
311.364	-31.59
311.578	-2.76
311.792	-3.34
312.007	-2.21
312.221	-11.58
312.435	9.6
312.649	17.06
312.864	13.24
313.078	23.43
313.292	23.72
313.507	18.92
313.721	7.98
313.935	17.04
314.149	17.23
314.363	25.9
314.578	18.59
314.792	16.97
315.006	-1.46
315.22	8.32
315.434	8.17
315.648	0.51
315.862	10.48
316.077	11.63
316.291	-2.32
316.505	-30.45
316.719	-3.41
316.933	-15.86
317.147	-4.43
317.361	4.8
317.575	23.5
317.789	25.53
318.003	32.73
318.217	22.27
318.431	5.69
318.645	-11.23
318.859	-11.47
319.073	0.38
319.287	17
319.5	21.84
319.714	25.66
319.928	21.68
320.142	14.55
320.356	8.54
320.57	-11.62
320.784	-0.36
320.997	-26.19
321.211	-12.77
321.425	-23.52
321.639	8.89
321.853	13.34
322.066	12.67
322.28	1.13
322.494	11.09
322.707	-4.32
322.921	-3.42
323.135	25.87
323.349	27.81
323.562	35.37
323.776	48.63
323.989	51.38
324.203	38.91
324.417	42.61
324.63	33.46
324.844	16.27
325.057	-14.29
325.271	-25.48
325.485	-19.29
325.698	1.16
325.912	25.28
326.125	31.08
326.339	45.7
326.552	26.97
326.766	21.35
326.979	6.05
327.193	5.07
327.406	-15.91
327.619	-6.78
327.833	-24.16
328.046	-17.9
328.26	-30.12
328.473	-15.53
328.686	-8.79
328.9	4.32
329.113	5.71
329.326	14.24
329.54	14
329.753	17.71
329.966	20.73
330.179	15.1
330.393	26.52
330.606	14.97
330.819	2.51
331.032	-1.1
331.246	6.14
331.459	-3.07
331.672	18.99
331.885	20.24
332.098	37.35
332.311	43.93
332.525	41.66
332.738	23.72
332.951	20.11
333.164	16.23
333.377	22.05
333.59	16.9
333.803	39.63
334.016	37.7
334.229	24.27
334.442	9.08
334.655	10.52
334.868	-8.96
335.081	-9.36
335.294	-17.11
335.507	-14.8
335.72	-9.89
335.933	-10.51
336.146	6.74
336.359	17.32
336.572	14.64
336.785	10.45
336.997	17.4
337.21	4.77
337.423	-3.41
337.636	9.96
337.849	19.12
338.062	29.58
338.274	49.15
338.487	36.53
338.7	24.77
338.913	21.93
339.125	-1.94
339.338	-19.6
339.551	-12.16
339.763	-13.9
339.976	-28.91
340.189	-23.54
340.402	-12.04
340.614	-0.38
340.827	6.92
341.039	17.15
341.252	30.08
341.465	31.65
341.677	36.11
341.89	38.39
342.102	54.97
342.315	46.91
342.527	45.54
342.74	30.89
342.952	37.95
343.165	9.09
343.377	10.57
343.59	10.74
343.802	11.24
344.015	21.71
344.227	35.52
344.44	30.02
344.652	20.26
344.864	27.61
345.077	30
345.289	28.44
345.502	43.41
345.714	35.16
345.926	19.82
346.139	-6.13
346.351	-1.54
346.563	-3.58
346.775	14.89
346.988	31.38
347.2	37.49
347.412	31.7
347.624	30.19
347.837	28.31
348.049	26.68
348.261	7.72
348.473	-0.02
348.685	-8.55
348.897	0.15
349.11	-9.26
349.322	7.04
349.534	12.45
349.746	16.25
349.958	-2.32
350.17	-10.03
350.382	-1.44
350.594	-14.29
350.806	2.08
351.018	14.92
351.23	25.73
351.442	29.15
351.654	33.18
351.866	20.43
352.078	20.38
352.29	19.73
352.502	8.06
352.714	5.66
352.926	13.16
353.138	11.74
353.35	3.88
353.561	0.5
353.773	-6.6
353.985	-11.22
354.197	-12.39
354.409	-7.98
354.621	-13.19
354.832	-6.4
355.044	-17.67
355.256	-32.14
355.468	-43.03
355.679	-5.95
355.891	1.49
356.103	7.68
356.314	10.25
356.526	13.53
356.738	9.38
356.949	7.46
357.161	26.71
357.373	32.55
357.584	38.17
357.796	31.58
358.008	29.23
358.219	19.66
358.431	12.15
358.642	8.58
358.854	16.53
359.065	5.8
359.277	1.87
359.488	-2.45
359.7	-4.38
359.911	-27.88
360.123	0.62
360.334	-0.47
360.546	2.75
360.757	4.28
360.969	20.08
361.18	4.4
361.391	7.73
361.603	16.59
361.814	26.78
362.025	29.92
362.237	36.51
362.448	45.25
362.659	32.2
362.871	11.58
363.082	15.05
363.293	8.99
363.504	-11.78
363.716	8.12
363.927	21.19
364.138	-5.66
364.349	-18.87
364.56	-7.2
364.772	0.86
364.983	16.58
365.194	31.36
365.405	38.36
365.616	30.53
365.827	13.63
366.038	7.59
366.25	6.83
366.461	12.7
366.672	10.8
366.883	15.53
367.094	11.1
367.305	2.15
367.516	-1.39
367.727	-7.17
367.938	-3.71
368.149	-9.07
368.36	-11.88
368.571	-17.25
368.781	-10.43
368.992	-8.4
369.203	-13.7
369.414	-10.84
369.625	-0.92
369.836	14.28
370.047	23.92
370.258	46.79
370.468	44.03
370.679	34.51
370.89	29.06
371.101	33.96
371.312	25.01
371.522	30.93
371.733	15.57
371.944	1.71
372.155	-8.57
372.365	-4.79
372.576	-7.53
372.787	12.08
372.997	17.38
373.208	7.43
373.419	2.73
373.629	-2.77
373.84	-12.67
374.05	-1.68
374.261	-5.03
374.472	-11.9
374.682	10.73
374.893	15.27
375.103	7.41
375.314	18.21
375.524	29.27
375.735	24.32
375.945	27.5
376.156	29.86
376.366	24.7
376.577	23.32
376.787	21.29
376.997	23.96
377.208	19.11
377.418	21.61
377.629	17.25
377.839	24.42
378.049	19.78
378.26	14.67
378.47	11.71
378.68	21
378.89	16.44
379.101	22.26
379.311	31.43
379.521	13.69
379.732	15.46
379.942	8.33
380.152	2.17
380.362	-2.9
380.572	24.62
380.783	21.67
380.993	27.41
381.203	23.42
381.413	28.84
381.623	22.49
381.833	18.43
382.043	11.14
382.253	12.56
382.463	13.66
382.674	11.48
382.884	15.62
383.094	14.45
383.304	17.38
383.514	16.42
383.724	8.56
383.934	-1.5
384.144	2.75
384.353	1.81
384.563	1.4
384.773	15.61
384.983	20.84
385.193	17.04
385.403	15.55
385.613	14.17
385.823	1.09
386.033	-4.06
386.242	-5.45
386.452	-5.51
386.662	-7.49
386.872	-3.95
387.082	-4.11
387.291	-3.4
387.501	-0.97
387.711	3.7
387.921	-0.57
388.13	1.13
388.34	3.8
388.55	-0.26
388.759	-5.57
388.969	-2.75
389.179	0.81
389.388	0.55
389.598	-2.67
389.807	-3.93
390.017	0.12
390.227	-2.56
390.436	-0.99
390.646	1.52
390.855	2.59
391.065	0.66
391.274	-0.4
391.484	-2.14
391.693	0.12
391.903	1.07
392.112	0.41
392.322	1.75
392.531	-0.32
392.74	-1.3
392.95	0.13
393.159	1.28
393.369	3.68
393.578	4.28
393.787	4.19
393.997	4.41
394.206	3.57
394.415	2.84
394.625	3.52
394.834	2.95
395.043	1.04
395.252	3.75
395.462	2.56
395.671	2.2
395.88	4.32
396.089	5.02
396.298	3.1
396.508	2.94
396.717	2.61
396.926	1.06
397.135	1.84
397.344	2.18
397.553	2.54
397.762	3.46
397.971	3.71
398.181	2.88
398.39	2.16
398.599	2.38
398.808	2.28
399.017	2.75
399.226	3.21
399.435	3.81
399.644	3.82
399.853	3.84
400.062	3.51
400.27	2.78
400.479	2.78
400.688	2.83
400.897	2.54
401.106	2.43
401.315	2.88
401.524	2.83
401.733	2.32
401.941	2.44
402.15	2.4
402.359	2.32
402.568	2.23
402.777	2.75
402.985	2.48
403.194	2.4
403.403	2.43
403.612	2.19
403.82	1.53
404.029	1.73
404.238	1.71
404.446	1.7
404.655	1.99
404.864	2.36
405.072	2.5
405.281	2.65
405.489	2.67
405.698	2.56
405.906	2.59
406.115	2.45
406.324	2.42
406.532	2.47
406.741	2.44
406.949	2.37
407.158	2.52
407.366	2.41
407.574	2.29
407.783	2.3
407.991	2.28
408.2	2.29
408.408	2.34
408.617	2.3
408.825	2.21
409.033	2.22
409.242	2.12
409.45	2.04
409.658	2.1
409.867	2.17
410.075	2.21
410.283	2.12
410.491	2.04
410.7	1.9
410.908	1.96
411.116	2.03
411.324	2.01
411.533	2.08
411.741	2.14
411.949	2.14
412.157	2.08
412.365	2.2
412.573	2.17
412.781	2.18
412.99	2.15
413.198	2.16
413.406	2.16
413.614	2.2
413.822	2.33
414.03	2.29
414.238	2.34
414.446	2.37
414.654	2.4
414.862	2.27
415.07	2.23
415.278	2.2
415.486	2
415.694	2
415.902	1.93
416.109	1.92
416.317	1.82
416.525	1.89
416.733	1.87
416.941	1.96
417.149	1.83
417.357	1.84
417.564	1.8
417.772	1.89
417.98	1.93
418.188	2.05
418.395	1.94
418.603	1.89
418.811	1.75
419.019	1.6
419.226	1.69
419.434	1.75
419.642	1.79
419.849	1.92
420.057	1.96
420.265	1.85
420.472	1.83
420.68	1.79
420.887	1.61
421.095	1.68
421.302	1.82
421.51	1.79
421.717	1.77
421.925	1.86
422.132	1.87
422.34	1.72
422.547	1.63
422.755	1.75
422.962	1.77
423.17	1.58
423.377	1.58
423.585	1.84
423.792	1.75
423.999	1.64
424.207	1.64
424.414	1.67
424.621	1.54
424.829	1.61
425.036	1.7
425.243	1.81
425.451	1.77
425.658	1.75
425.865	1.74
426.072	1.72
426.28	1.69
426.487	1.84
426.694	1.78
426.901	1.92
427.108	1.91
427.315	1.76
427.523	1.59
427.73	1.47
427.937	1.18
428.144	1.19
428.351	1.29
428.558	1.45
428.765	1.62
428.972	1.77
429.179	1.65
429.386	1.75
429.593	1.58
429.8	1.68
430.007	1.65
430.214	1.74
430.421	1.85
430.628	1.93
430.835	1.84
431.042	1.74
431.249	1.68
431.456	1.47
431.662	1.6
431.869	1.74
432.076	1.92
432.283	2.04
432.49	2.13
432.697	2.01
432.903	1.92
433.11	1.92
433.317	1.9
433.524	1.88
433.73	1.87
433.937	2.05
434.144	1.94
434.35	1.79
434.557	1.81
434.764	1.87
434.97	1.64
435.177	1.7
435.384	1.89
435.59	1.87
435.797	1.8
436.003	1.91
436.21	1.96
436.416	1.98
436.623	2.06
436.829	2.09
437.036	2.05
437.242	2.07
437.449	2.12
437.655	2.15
437.862	2.23
438.068	2.22
438.275	2.34
438.481	2.29
438.687	2.26
438.894	2.35
439.1	2.43
439.307	2.38
439.513	2.38
439.719	2.42
439.926	2.32
440.132	2.37
440.338	2.25
440.544	2.19
440.751	2.16
440.957	2.24
441.163	2.09
441.369	2.17
441.575	2.17
441.782	2.25
441.988	2.21
442.194	2.26
442.4	2.17
442.606	2.29
442.812	2.21
443.018	2.26
443.224	2.46
443.431	2.55
443.637	2.47
443.843	2.51
444.049	2.56
444.255	2.49
444.461	2.49
444.667	2.53
444.873	2.6
445.079	2.53
445.284	2.55
445.49	2.55
445.696	2.56
445.902	2.52
446.108	2.55
446.314	2.52
446.52	2.57
446.726	2.66
446.931	2.63
447.137	2.6
447.343	2.61
447.549	2.59
447.755	2.53
447.96	2.62
448.166	2.61
448.372	2.6
448.578	2.56
448.783	2.58
448.989	2.6
449.195	2.66
449.4	2.71
449.606	2.71
449.812	2.63
450.017	2.62
450.223	2.58
450.428	2.58
450.634	2.59
450.84	2.63
451.045	2.68
451.251	2.72
451.456	2.72
451.662	2.68
451.867	2.71
452.073	2.63
452.278	2.6
452.483	2.53
452.689	2.61
452.894	2.68
453.1	2.72
453.305	2.79
453.51	2.94
453.716	2.93
453.921	2.9
454.127	2.79
454.332	2.73
454.537	2.62
454.742	2.6
454.948	2.58
455.153	2.73
455.358	2.79
455.563	2.91
455.769	2.9
455.974	2.89
456.179	2.75
456.384	2.65
456.589	2.49
456.795	2.48
457	2.48
457.205	2.4
457.41	2.48
457.615	2.51
457.82	2.64
458.025	2.69
458.23	2.81
458.435	2.83
458.64	2.87
458.845	2.83
459.05	2.88
459.255	2.91
459.46	2.89
459.665	2.89
459.87	2.89
460.075	2.87
460.28	2.91
460.485	2.98
460.69	2.98
460.895	3
461.099	2.92
461.304	2.86
461.509	2.79
461.714	2.84
461.919	2.84
462.123	2.98
462.328	2.91
462.533	2.88
462.738	2.82
462.942	2.75
463.147	2.68
463.352	2.79
463.556	2.87
463.761	2.85
463.966	2.86
464.17	2.93
464.375	3.07
464.58	3.05
464.784	3.09
464.989	3.15
465.193	3.15
465.398	3.07
465.602	3.25
465.807	3.36
466.011	3.33
466.216	3.29
466.42	3.32
466.625	3.21
466.829	3.19
467.034	3.38
467.238	3.45
467.443	3.51
467.647	3.53
467.851	3.51
468.056	3.38
468.26	3.39
468.464	3.35
468.669	3.36
468.873	3.35
469.077	3.31
469.282	3.33
469.486	3.29
469.69	3.31
469.894	3.37
470.099	3.47
470.303	3.48
470.507	3.55
470.711	3.55
470.915	3.57
471.119	3.6
471.324	3.71
471.528	3.7
471.732	3.75
471.936	3.77
472.14	3.76
472.344	3.86
472.548	3.92
472.752	3.88
472.956	3.9
473.16	3.79
473.364	3.63
473.568	3.55
473.772	3.57
473.976	3.64
474.18	3.73
474.384	3.77
474.588	3.92
474.792	3.95
474.995	3.95
475.199	4.02
475.403	4.01
475.607	4.01
475.811	4.02
476.015	3.97
476.218	3.84
476.422	3.88
476.626	3.85
476.83	3.96
477.033	4.05
477.237	4.18
477.441	4.15
477.644	4.21
477.848	4.21
478.052	4.27
478.255	4.29
478.459	4.32
478.663	4.32
478.866	4.33
479.07	4.18
479.273	4.22
479.477	4.27
479.681	4.35
479.884	4.3
480.088	4.42
480.291	4.37
480.495	4.4
480.698	4.36
480.901	4.35
481.105	4.37
481.308	4.38
481.512	4.38
481.715	4.46
481.919	4.62
482.122	4.63
482.325	4.77
482.529	4.77
482.732	4.73
482.935	4.61
483.138	4.55
483.342	4.5
483.545	4.55
483.748	4.58
483.952	4.62
484.155	4.73
484.358	4.72
484.561	4.74
484.764	4.69
484.967	4.69
485.171	4.63
485.374	4.62
485.577	4.57
485.78	4.61
485.983	4.58
486.186	4.56
486.389	4.58
486.592	4.54
486.795	4.57
486.998	4.54
487.201	4.61
487.404	4.71
487.607	4.78
487.81	4.67
488.013	4.77
488.216	4.76
488.419	4.66
488.622	4.67
488.825	4.8
489.028	4.8
489.231	4.8
489.433	4.8
489.636	4.78
489.839	4.82
490.042	4.83
490.245	4.79
490.447	4.76
490.65	4.81
490.853	4.71
491.056	4.73
491.258	4.78
491.461	4.79
491.664	4.77
491.866	4.82
492.069	4.8
492.272	4.74
492.474	4.77
492.677	4.78
492.879	4.75
493.082	4.8
493.285	4.85
493.487	4.9
493.69	4.92
493.892	4.92
494.095	4.84
494.297	4.89
494.5	4.89
494.702	4.89
494.905	4.97
495.107	5
495.309	5.03
495.512	5.06
495.714	5.06
495.917	5.14
496.119	5.2
496.321	5.19
496.524	5.12
496.726	5.15
496.928	5.07
497.13	5.06
497.333	5.03
497.535	5.07
497.737	5.11
497.939	5.09
498.142	5.14
498.344	5.19
498.546	5.23
498.748	5.24
498.95	5.29
499.152	5.24
499.355	5.19
499.557	5.17
499.759	5.22
499.961	5.27
500.163	5.28
500.365	5.42
500.567	5.48
500.769	5.41
500.971	5.37
501.173	5.38
501.375	5.4
501.577	5.44
501.779	5.55
501.981	5.59
502.183	5.62
502.385	5.57
502.587	5.61
502.788	5.61
502.99	5.66
503.192	5.73
503.394	5.76
503.596	5.73
503.798	5.67
503.999	5.72
504.201	5.71
504.403	5.79
504.605	5.88
504.806	6.01
505.008	5.97
505.21	5.95
505.411	5.93
505.613	5.89
505.815	5.86
506.016	5.94
506.218	6.06
506.42	6.04
506.621	6.11
506.823	6.12
507.024	6.09
507.226	6.11
507.427	6.19
507.629	6.2
507.83	6.26
508.032	6.28
508.233	6.29
508.435	6.23
508.636	6.31
508.838	6.33
509.039	6.34
509.24	6.35
509.442	6.48
509.643	6.47
509.845	6.45
510.046	6.52
510.247	6.56
510.448	6.56
510.65	6.57
510.851	6.63
511.052	6.63
511.254	6.7
511.455	6.67
511.656	6.68
511.857	6.72
512.058	6.72
512.26	6.66
512.461	6.79
512.662	6.86
512.863	6.77
513.064	6.82
513.265	6.83
513.466	6.81
513.667	6.76
513.868	6.79
514.069	6.78
514.27	6.92
514.471	6.89
514.672	6.97
514.873	7.02
515.074	7.13
515.275	7.09
515.476	7.11
515.677	7.14
515.878	7.2
516.079	7.2
516.28	7.16
516.481	7.22
516.682	7.18
516.882	7.18
517.083	7.17
517.284	7.27
517.485	7.23
517.686	7.3
517.886	7.29
518.087	7.3
518.288	7.27
518.488	7.28
518.689	7.26
518.89	7.31
519.091	7.38
519.291	7.36
519.492	7.41
519.692	7.42
519.893	7.45
520.094	7.43
520.294	7.53
520.495	7.57
520.695	7.63
520.896	7.63
521.096	7.67
521.297	7.62
521.497	7.62
521.698	7.62
521.898	7.7
522.099	7.68
522.299	7.69
522.499	7.73
522.7	7.79
522.9	7.78
523.101	7.8
523.301	7.82
523.501	7.78
523.702	7.8
523.902	7.78
524.102	7.85
524.302	7.9
524.503	7.97
524.703	7.92
524.903	7.89
525.103	7.87
525.304	7.86
525.504	7.9
525.704	7.94
525.904	7.96
526.104	8.01
526.304	8.05
526.504	7.98
526.705	7.99
526.905	8.06
527.105	8.02
527.305	8.04
527.505	8.09
527.705	8.06
527.905	8.08
528.105	8.11
528.305	8.15
528.505	8.18
528.705	8.26
528.905	8.27
529.105	8.31
529.304	8.3
529.504	8.34
529.704	8.31
529.904	8.37
530.104	8.41
530.304	8.41
530.503	8.44
530.703	8.48
530.903	8.47
531.103	8.48
531.303	8.51
531.502	8.53
531.702	8.56
531.902	8.63
532.101	8.66
532.301	8.73
532.501	8.79
532.7	8.85
532.9	8.82
533.1	8.83
533.299	8.8
533.499	8.74
533.698	8.69
533.898	8.7
534.097	8.76
534.297	8.75
534.496	8.82
534.696	8.9
534.895	8.97
535.095	8.94
535.294	9.02
535.494	9.02
535.693	9.07
535.892	9.14
536.092	9.2
536.291	9.25
536.491	9.31
536.69	9.29
536.889	9.26
537.088	9.32
537.288	9.29
537.487	9.27
537.686	9.24
537.886	9.28
538.085	9.26
538.284	9.33
538.483	9.32
538.682	9.41
538.882	9.43
539.081	9.51
539.28	9.57
539.479	9.63
539.678	9.68
539.877	9.72
540.076	9.77
540.275	9.75
540.474	9.79
540.673	9.81
540.872	9.81
541.071	9.84
541.27	9.89
541.469	10
541.668	10.05
541.867	10.14
542.066	10.22
542.265	10.25
542.464	10.27
542.663	10.35
542.862	10.47
543.06	10.47
543.259	10.53
543.458	10.59
543.657	10.61
543.856	10.6
544.054	10.61
544.253	10.67
544.452	10.73
544.651	10.77
544.849	10.77
545.048	10.82
545.247	10.88
545.445	10.9
545.644	10.98
545.843	11.09
546.041	11.15
546.24	11.18
546.438	11.27
546.637	11.24
546.836	11.26
547.034	11.32
547.233	11.38
547.431	11.43
547.63	11.52
547.828	11.6
548.027	11.64
548.225	11.72
548.423	11.71
548.622	11.79
548.82	11.88
549.019	11.93
549.217	12.03
549.415	12.15
549.614	12.3
549.812	12.32
550.01	12.42
550.209	12.52
550.407	12.58
550.605	12.52
550.803	12.64
551.002	12.77
551.2	12.75
551.398	12.84
551.596	12.96
551.794	12.96
551.993	12.98
552.191	13.14
552.389	13.22
552.587	13.28
552.785	13.39
552.983	13.54
553.181	13.52
553.379	13.6
553.577	13.7
553.775	13.81
553.973	13.91
554.171	14.03
554.369	14.11
554.567	14.25
554.765	14.33
554.963	14.38
555.161	14.52
555.359	14.65
555.557	14.74
555.755	14.88
555.952	14.98
556.15	15.1
556.348	15.17
556.546	15.29
556.744	15.35
556.941	15.4
557.139	15.44
557.337	15.61
557.535	15.64
557.732	15.7
557.93	15.91
558.128	16.03
558.325	16.06
558.523	16.23
558.721	16.39
558.918	16.48
559.116	16.54
559.313	16.67
559.511	16.73
559.708	16.83
559.906	16.93
560.104	17.09
560.301	17.22
560.498	17.38
560.696	17.48
560.893	17.55
561.091	17.6
561.288	17.73
561.486	17.74
561.683	17.85
561.88	18.03
562.078	18.13
562.275	18.19
562.473	18.37
562.67	18.48
562.867	18.5
563.064	18.66
563.262	18.76
563.459	18.81
563.656	18.93
563.853	19.04
564.051	19.21
564.248	19.35
564.445	19.42
564.642	19.51
564.839	19.7
565.036	19.8
565.234	19.88
565.431	20.02
565.628	20.08
565.825	20.1
566.022	20.19
566.219	20.36
566.416	20.45
566.613	20.69
566.81	20.81
567.007	20.83
567.204	20.82
567.401	20.99
567.598	20.95
567.795	21.02
567.991	21.12
568.188	21.22
568.385	21.21
568.582	21.37
568.779	21.47
568.976	21.51
569.172	21.65
569.369	21.72
569.566	21.77
569.763	21.71
569.96	21.89
570.156	22.02
570.353	22.09
570.55	22.13
570.746	22.32
570.943	22.33
571.14	22.3
571.336	22.35
571.533	22.4
571.729	22.48
571.926	22.53
572.123	22.63
572.319	22.69
572.516	22.79
572.712	22.82
572.909	22.78
573.105	22.89
573.302	22.84
573.498	22.73
573.695	22.73
573.891	22.82
574.087	22.68
574.284	22.7
574.48	22.83
574.677	22.81
574.873	22.86
575.069	22.94
575.266	23.06
575.462	23.06
575.658	23.2
575.854	23.24
576.051	23.3
576.247	23.29
576.443	23.32
576.639	23.23
576.835	23.16
577.032	23.05
577.228	23.09
577.424	23.03
577.62	23.12
577.816	23.2
578.012	23.35
578.208	23.42
578.404	23.49
578.6	23.5
578.796	23.48
578.993	23.48
579.189	23.48
579.384	23.49
579.58	23.44
579.776	23.46
579.972	23.43
580.168	23.35
580.364	23.39
580.56	23.34
580.756	23.31
580.952	23.27
581.148	23.36
581.343	23.32
581.539	23.41
581.735	23.43
581.931	23.35
582.127	23.3
582.322	23.24
582.518	23.15
582.714	23.15
582.909	23.25
583.105	23.21
583.301	23.3
583.496	23.34
583.692	23.24
583.888	23.14
584.083	23.11
584.279	23.02
584.474	22.97
584.67	23.09
584.866	23.18
585.061	23.16
585.257	23.23
585.452	23.21
585.648	23.09
585.843	23.03
586.039	23.12
586.234	23.05
586.429	23.02
586.625	23.16
586.82	23.17
587.015	23.15
587.211	23.19
587.406	23.3
587.601	23.29
587.797	23.37
587.992	23.33
588.187	23.18
588.383	23.19
588.578	23.26
588.773	23.26
588.968	23.35
589.163	23.46
589.359	23.45
589.554	23.35
589.749	23.4
589.944	23.42
590.139	23.39
590.334	23.51
590.529	23.59
590.724	23.65
590.919	23.71
591.114	23.86
591.309	23.88
591.504	23.98
591.699	23.96
591.894	23.95
592.089	23.94
592.284	24.02
592.479	23.95
592.674	24.02
592.869	24.07
593.064	24.22
593.259	24.2
593.454	24.21
593.648	24.21
593.843	24.18
594.038	24.21
594.233	24.3
594.428	24.49
594.622	24.6
594.817	24.79
595.012	24.78
595.206	24.79
595.401	24.95
595.596	24.95
595.79	25.04
595.985	25.14
596.18	25.25
596.374	25.18
596.569	25.36
596.763	25.41
596.958	25.64
597.153	25.73
597.347	25.84
597.542	25.85
597.736	25.96
597.931	25.85
598.125	25.96
598.319	26
598.514	26.14
598.708	26.2
598.903	26.36
599.097	26.47
599.291	26.58
599.486	26.63
599.68	26.73
599.874	26.77
600.069	26.71
600.263	26.77
600.457	26.8
600.651	26.83
600.846	26.91
601.04	27
601.234	27.06
601.428	27.11
601.622	27.14
601.817	27.18
602.011	27.24
602.205	27.22
602.399	27.2
602.593	27.26
602.787	27.24
602.981	27.18
603.175	27.28
603.369	27.28
603.563	27.22
603.757	27.19
603.951	27.24
604.145	27.17
604.339	27.24
604.533	27.31
604.727	27.29
604.921	27.3
605.115	27.25
605.309	27.14
605.502	27.1
605.696	27.1
605.89	27.15
606.084	27.16
606.278	27.22
606.471	27.12
606.665	27.05
606.859	26.94
607.053	26.86
607.246	26.77
607.44	26.7
607.634	26.73
607.827	26.69
608.021	26.67
608.214	26.58
608.408	26.5
608.602	26.38
608.795	26.31
608.989	26.21
609.182	26.2
609.376	26.24
609.569	26.2
609.763	26.14
609.956	26.09
610.15	25.96
610.343	25.86
610.537	25.81
610.73	25.59
610.923	25.54
611.117	25.55
611.31	25.43
611.504	25.32
611.697	25.31
611.89	25.22
612.083	25.16
612.277	25.17
612.47	25.14
612.663	25.11
612.856	24.95
613.05	24.91
613.243	24.69
613.436	24.65
613.629	24.57
613.822	24.66
614.015	24.45
614.209	24.5
614.402	24.39
614.595	24.43
614.788	24.26
614.981	24.25
615.174	24.11
615.367	24.02
615.56	23.88
615.753	23.85
615.946	23.78
616.139	23.7
616.332	23.66
616.525	23.57
616.718	23.52
616.911	23.46
617.103	23.47
617.296	23.45
617.489	23.28
617.682	23.3
617.875	23.23
618.067	23.18
618.26	23.09
618.453	23.08
618.646	22.96
618.838	22.89
619.031	22.77
619.224	22.74
619.417	22.77
619.609	22.73
619.802	22.68
619.994	22.74
620.187	22.67
620.38	22.62
620.572	22.53
620.765	22.6
620.957	22.5
621.15	22.43
621.342	22.39
621.535	22.36
621.727	22.22
621.92	22.21
622.112	22.34
622.305	22.31
622.497	22.32
622.69	22.33
622.882	22.36
623.074	22.28
623.267	22.23
623.459	22.18
623.651	22.12
623.844	22.07
624.036	22
624.228	22
624.42	21.96
624.613	21.99
624.805	21.91
624.997	21.93
625.189	21.94
625.381	21.81
625.574	21.76
625.766	21.7
625.958	21.65
626.15	21.59
626.342	21.7
626.534	21.73
626.726	21.73
626.918	21.7
627.11	21.71
627.302	21.71
627.494	21.6
627.686	21.55
627.878	21.47
628.07	21.47
628.262	21.44
628.454	21.44
628.646	21.41
628.838	21.4
629.029	21.25
629.221	21.15
629.413	21.06
629.605	21.05
629.797	21
629.989	20.97
630.18	21.03
630.372	21.03
630.564	21.03
630.755	21.02
630.947	21.02
631.139	20.84
631.33	20.75
631.522	20.67
631.714	20.58
631.905	20.6
632.097	20.62
632.289	20.68
632.48	20.76
632.672	20.85
632.863	20.84
633.055	20.82
633.246	20.88
633.438	20.78
633.629	20.71
633.821	20.65
634.012	20.62
634.203	20.48
634.395	20.41
634.586	20.37
634.777	20.36
634.969	20.37
635.16	20.29
635.351	20.27
635.543	20.18
635.734	20.12
635.925	20.13
636.117	20.16
636.308	20.26
636.499	20.29
636.69	20.34
636.881	20.29
637.073	20.41
637.264	20.37
637.455	20.44
637.646	20.46
637.837	20.47
638.028	20.32
638.219	20.36
638.41	20.37
638.601	20.28
638.792	20.22
638.983	20.28
639.174	20.21
639.365	20.15
639.556	20.11
639.747	20.2
639.938	20.21
640.129	20.26
640.32	20.26
640.511	20.23
640.701	20.1
640.892	20.03
641.083	19.87
641.274	19.8
641.465	19.78
641.655	19.73
641.846	19.75
642.037	19.71
642.228	19.65
642.418	19.57
642.609	19.64
642.8	19.52
642.99	19.57
643.181	19.58
643.372	19.58
643.562	19.53
643.753	19.47
643.943	19.41
644.134	19.33
644.324	19.33
644.515	19.33
644.705	19.46
644.896	19.57
645.086	19.58
645.277	19.59
645.467	19.52
645.658	19.32
645.848	19.22
646.038	19.22
646.229	19.2
646.419	19.11
646.61	19.24
646.8	19.23
646.99	19.21
647.18	19.2
647.371	19.2
647.561	19.09
647.751	19.03
647.941	18.99
648.132	18.95
648.322	18.97
648.512	19.08
648.702	19.05
648.892	19.01
649.082	18.99
649.272	18.88
649.462	18.76
649.653	18.73
649.843	18.6
650.033	18.64
650.223	18.64
650.413	18.64
650.603	18.59
650.793	18.64
650.983	18.49
651.172	18.46
651.362	18.3
651.552	18.23
651.742	18.19
651.932	18.14
652.122	18.14
652.312	18.09
652.502	17.92
652.691	17.89
652.881	17.79
653.071	17.67
653.261	17.57
653.45	17.55
653.64	17.36
653.83	17.31
654.019	17.11
654.209	17.06
654.399	16.98
654.588	16.83
654.778	16.68
654.968	16.61
655.157	16.44
655.347	16.21
655.536	16.1
655.726	15.84
655.915	15.61
656.105	15.44
656.294	15.28
656.484	15.11
656.673	14.99
656.863	14.99
657.052	14.86
657.241	14.81
657.431	14.74
657.62	14.61
657.809	14.37
657.999	14.26
658.188	14.12
658.377	13.84
658.567	13.73
658.756	13.57
658.945	13.4
659.134	13.09
659.324	12.92
659.513	12.75
659.702	12.44
659.891	12.19
660.08	12.08
660.269	11.95
660.458	11.78
660.648	11.73
660.837	11.69
661.026	11.44
661.215	11.29
661.404	11.14
661.593	11
661.782	10.8
661.971	10.68
662.16	10.51
662.349	10.3
662.538	10.12
662.726	9.83
662.915	9.91
663.104	9.77
663.293	9.71
663.482	9.62
663.671	9.57
663.86	9.28
664.048	9.23
664.237	9.05
664.426	8.97
664.615	8.9
664.803	8.82
664.992	8.65
665.181	8.58
665.369	8.39
665.558	8.33
665.747	8.28
665.935	8.17
666.124	8.21
666.312	8.18
666.501	8.11
666.69	8.04
666.878	7.95
667.067	7.75
667.255	7.7
667.444	7.67
667.632	7.69
667.82	7.72
668.009	7.76
668.197	7.77
668.386	7.68
668.574	7.59
668.762	7.55
668.951	7.47
669.139	7.42
669.327	7.43
669.516	7.42
669.704	7.45
669.892	7.46
670.08	7.42
670.269	7.42
670.457	7.44
670.645	7.38
670.833	7.41
671.021	7.51
671.21	7.47
671.398	7.42
671.586	7.43
671.774	7.41
671.962	7.32
672.15	7.43
672.338	7.56
672.526	7.69
672.714	7.82
672.902	7.89
673.09	7.88
673.278	8.01
673.466	8.07
673.654	8.05
673.842	8.16
674.03	8.27
674.218	8.2
674.405	8.27
674.593	8.31
674.781	8.32
674.969	8.42
675.157	8.47
675.344	8.53
675.532	8.56
675.72	8.76
675.908	8.66
676.095	8.82
676.283	8.95
676.471	9.03
676.658	9
676.846	9.17
677.033	9.09
677.221	9.02
677.409	9.17
677.596	9.24
677.784	9.3
677.971	9.42
678.159	9.62
678.346	9.67
678.534	9.85
678.721	10.01
678.909	10.24
679.096	10.25
679.283	10.32
679.471	10.31
679.658	10.41
679.846	10.52
680.033	10.91
680.22	11.19
680.408	11.22
680.595	11.32
680.782	11.45
680.969	11.45
681.157	11.58
681.344	11.74
681.531	11.86
681.718	11.94
681.905	11.99
682.093	11.99
682.28	12.32
682.467	12.5
682.654	12.62
682.841	12.92
683.028	13.08
683.215	13.22
683.402	13.41
683.589	13.74
683.776	13.86
683.963	14.22
684.15	14.55
684.337	14.8
684.524	14.92
684.711	15.24
684.898	15.5
685.085	15.79
685.271	16.24
685.458	16.68
685.645	16.92
685.832	17.24
686.019	17.38
686.205	17.6
686.392	17.89
686.579	18.3
686.766	18.66
686.952	19.16
687.139	19.64
687.326	20.17
687.512	20.56
687.699	21.17
687.886	21.65
688.072	21.82
688.259	22.26
688.445	22.72
688.632	22.95
688.818	23.46
689.005	24.3
689.191	24.87
689.378	25.5
689.564	26.35
689.751	26.85
689.937	27.42
690.124	27.94
690.31	28.34
690.496	28.9
690.683	29.65
690.869	30.26
691.055	30.84
691.242	31.55
691.428	32.04
691.614	32.8
691.8	33.43
691.987	34.28
692.173	35.13
692.359	36.02
692.545	36.8
692.731	37.48
692.918	37.99
693.104	38.74
693.29	39.23
693.476	39.83
693.662	40.7
693.848	41.73
694.034	42.29
694.22	43.06
694.406	43.75
694.592	44.43
694.778	44.8
694.964	45.5
695.15	46.13
695.336	46.67
695.522	47.26
695.708	48.13
695.894	48.88
696.08	49.66
696.265	50.54
696.451	51.25
696.637	51.96
696.823	52.77
697.009	53.25
697.194	53.9
697.38	54.6
697.566	55.24
697.751	55.8
697.937	56.85
698.123	57.29
698.308	57.77
698.494	58.46
698.68	59.12
698.865	59.58
699.051	60.14
699.236	60.61
699.422	61.04
699.607	61.47
699.793	62.14
699.978	62.72
700.164	63.48
700.349	64.17
700.535	64.48
700.72	64.68
700.906	65.23
701.091	65.59
701.276	66.06
701.462	66.69
701.647	67.02
701.832	67.51
702.018	68.15
702.203	68.36
702.388	68.67
702.573	69.27
702.759	69.65
702.944	69.94
703.129	70.22
703.314	70.76
703.499	70.83
703.684	71.37
703.87	71.71
704.055	72.12
704.24	72.61
704.425	73.31
704.61	73.45
704.795	73.89
704.98	74.04
705.165	74.12
705.35	74.61
705.535	75.01
705.72	75.01
705.905	75.72
706.09	76.36
706.275	76.1
706.459	76.22
706.644	76.84
706.829	76.94
707.014	77.2
707.199	77.98
707.384	78.41
707.568	78.37
707.753	78.85
707.938	78.54
708.123	78.68
708.307	78.89
708.492	79.44
708.677	79.47
708.861	80.09
709.046	79.87
709.231	79.85
709.415	79.9
709.6	79.87
709.784	80.07
709.969	80.74
710.153	81.02
710.338	81.52
710.522	81.83
710.707	81.83
710.891	81.66
711.076	81.67
711.26	81.32
711.445	81.43
711.629	81.42
711.813	81.85
711.998	82.32
712.182	82.42
712.366	83.38
712.551	83.59
712.735	83.36
712.919	83.67
713.103	83.86
713.288	83.23
713.472	83.72
713.656	83.92
713.84	83.52
714.024	83.78
714.208	83.75
714.393	83.73
714.577	84.05
714.761	84.24
714.945	84.35
715.129	84.56
715.313	84.77
715.497	84.86
715.681	85.05
715.865	84.77
716.049	85.21
716.233	84.88
716.417	84.79
716.601	84.99
716.785	85.59
716.968	85.32
717.152	85.73
717.336	86.26
717.52	86.54
717.704	86.83
717.888	86.7
718.071	86.76
718.255	86.68
718.439	86.8
718.622	86.37
718.806	86.68
718.99	86.3
719.174	86.24
719.357	86.31
719.541	86.67
719.724	87.01
719.908	87.46
720.092	87.42
720.275	87.12
720.459	86.77
720.642	86.99
720.826	86.69
721.009	86.83
721.193	86.75
721.376	87.28
721.559	87.07
721.743	87.69
721.926	87.82
722.11	88.73
722.293	89.34
722.476	88.93
722.66	89.12
722.843	89.12
723.026	88.82
723.21	88.41
723.393	89.03
723.576	88.71
723.759	89.33
723.942	89.13
724.126	88.99
724.309	88.51
724.492	88.81
724.675	88.56
724.858	88.8
725.041	88.85
725.224	90
725.407	89.85
725.59	89.97
725.774	89.81
725.957	89.74
726.14	89.09
726.322	89.71
726.505	89.63
726.688	89.85
726.871	90.1
727.054	90.51
727.237	89.86
727.42	89.32
727.603	89.27
727.786	89.57
727.968	89.58
728.151	89.99
728.334	91.35
728.517	91.75
728.699	91.86
728.882	91.76
729.065	91.43
729.248	90.81
729.43	90.81
729.613	90.68
729.796	91.03
729.978	91.6
730.161	91.77
730.343	91.42
730.526	91.42
730.708	91.23
730.891	91.98
731.073	91.98
731.256	92.58
731.438	93.57
731.621	93.8
731.803	92.96
731.986	93.31
732.168	93.64
732.35	92.52
732.533	92.57
732.715	92.45
732.898	92.37
733.08	92.33
733.262	92.92
733.444	93.61
733.627	94.05
733.809	94.28
733.991	94.03
734.173	94.03
734.355	93.37
734.538	93.9
734.72	94.14
734.902	94.88
735.084	95.12
735.266	95.71
735.448	96.13
735.63	96.17
735.812	95.51
735.994	95.59
736.176	95.65
736.358	95.58
736.54	96.19
736.722	95.86
736.904	95.78
737.086	95.26
737.268	94.85
737.45	94.71
737.632	95.21
737.814	95.01
737.995	95.26
738.177	95.5
738.359	94.65
738.541	94.83
738.723	94.97
738.904	95.53
739.086	95.61
739.268	96.38
739.449	96.42
739.631	96.16
739.813	95.39
739.994	95.19
740.176	95.74
740.358	96.31
740.539	96.23
740.721	97.11
740.902	96.24
741.084	95.5
741.265	94.83
741.447	95.46
741.628	95.55
741.81	96.32
741.991	96.2
742.172	95.68
742.354	95.65
742.535	95.12
742.717	94.83
742.898	94.35
743.079	95.66
743.261	96.68
743.442	95.58
743.623	97.1
743.804	97.2
743.986	96.51
744.167	95.74
744.348	96.57
744.529	95.61
744.71	95.64
744.891	95.56
745.073	95.51
745.254	95.75
745.435	96.14
745.616	96.7
745.797	97.03
745.978	97.1
746.159	96.37
746.34	96.43
746.521	96.62
746.702	96.68
746.883	96.01
747.064	96.71
747.245	96.51
747.426	96.82
747.606	96.62
747.787	97.8
747.968	97.23
748.149	96.48
748.33	96.01
748.51	95.13
748.691	94.37
748.872	95.69
749.053	96.26
749.233	95.7
749.414	96.78
749.595	97.09
749.775	96.96
749.956	97.06
750.137	97.16
750.317	96.06
750.498	95.27
750.678	93.62
750.859	94.16
751.04	94.91
751.22	95.34
751.4	96.63
751.581	98.33
751.761	97.22
751.942	97.82
752.122	97.69
752.303	96.52
752.483	95.85
752.663	95.48
752.844	94.61
753.024	94.73
753.204	95.28
753.385	95.39
753.565	96.32
753.745	95.8
753.925	95.01
754.106	95.94
754.286	94.94
754.466	94.59
754.646	94.7
754.826	97.31
755.006	96.53
755.187	98.79
755.367	98.07
755.547	97.96
755.727	96.78
755.907	96.04
756.087	94.17
756.267	93.48
756.447	93.91
756.627	93.45
756.807	94.71
756.987	94.53
757.167	95.45
757.346	95.99
757.526	96.57
757.706	95.25
757.886	96.01
758.066	97.08
758.246	94.39
758.425	93.27
758.605	92.7
758.785	93.01
758.965	92.97
759.144	93.89
759.324	96.5
759.504	97
759.683	95.53
759.863	94.8
760.043	94.9
760.222	92.83
760.402	91.64
760.581	92.53
760.761	92.66
760.94	93.72
761.12	92.39
761.299	94.44
761.479	95.44
761.658	94.87
761.838	94.44
762.017	95.48
762.197	94.43
762.376	92.52
762.555	93.54
762.735	93.64
762.914	94.05
763.093	93.89
763.273	93.67
763.452	92.29
763.631	90.74
763.81	90.67
763.99	89.45
764.169	90.19
764.348	89.76
764.527	90.79
764.706	91.04
764.885	93.09
765.064	94.34
765.243	94.66
765.423	94.54
765.602	93.58
765.781	91.31
765.96	91.03
766.139	91.31
766.318	94.27
766.497	94.43
766.676	94.47
766.854	94.02
767.033	94.75
767.212	94.29
767.391	94.63
767.57	97.79
767.749	97.69
767.928	98.38
768.106	95.25
768.285	95.23
768.464	94.02
768.643	92.02
768.821	89.1
769	90.34
769.179	90.58
769.357	89.63
769.536	90.65
769.715	91.17
769.893	89.97
770.072	87.36
770.25	88.11
770.429	87.7
770.607	89.41
770.786	89.65
770.964	92.77
771.143	93.25
771.321	92.53
771.5	92.4
771.678	91.65
771.857	89.65
772.035	91
772.213	92.26
772.392	90.29
772.57	89.28
772.748	90.1
772.927	89.02
773.105	90.21
773.283	90.77
773.461	94.67
773.64	95.17
773.818	95.45
773.996	93.78
774.174	94.83
774.352	91.73
774.531	89.89
774.709	88.7
774.887	86.61
775.065	86.14
775.243	86.34
775.421	86.27
775.599	86.09
775.777	87.32
775.955	85.97
776.133	85.21
776.311	85.33
776.489	84.13
776.667	85.16
776.844	84.55
777.022	86
777.2	86.58
777.378	87.66
777.556	87.97
777.734	90.03
777.911	90.82
778.089	92.51
778.267	92.82
778.445	94.92
778.622	95.27
778.8	91.32
778.978	90.79
779.155	91.19
779.333	90.7
779.511	90.56
779.688	92.81
779.866	92.61
780.043	93.4
780.221	92.67
780.398	90.47
780.576	92.26
780.753	91.27
780.931	89.24
781.108	91.51
781.286	93.85
781.463	92.5
781.64	93.36
781.818	95.84
781.995	92.93
782.172	92.41
782.35	92.48
782.527	89.56
782.704	87.58
782.882	84.56
783.059	83.91
783.236	83
783.413	83.43
783.59	85.38
783.768	88.14
783.945	87.14
784.122	89.3
784.299	92.81
784.476	89.64
784.653	88.58
784.83	87.71
785.007	85.92
785.184	82.14
785.361	81.61
785.538	80.07
785.715	84.49
785.892	83.22
786.069	85.58
786.246	85.4
786.423	87.01
786.6	83.58
786.776	84.24
786.953	83.83
787.13	85.21
787.307	86.36
787.484	84.47
787.66	83.04
787.837	83.01
788.014	83.38
788.191	81.14
788.367	82.21
788.544	84.65
788.721	83.83
788.897	82.83
789.074	84.36
789.25	83.41
789.427	81.35
789.603	78.36
789.78	81.73
789.956	77.75
790.133	79.27
790.309	81.34
790.486	85.98
790.662	79.51
790.839	82.63
791.015	84.24
791.192	81.89
791.368	78.42
791.544	86.28
791.721	86.8
791.897	84.58
792.073	86.87
792.249	89.46
792.426	80.27
792.602	80.7
792.778	80.09
792.954	80.66
793.13	80.23
793.307	86.1
793.483	84.64
793.659	86.98
793.835	85.33
794.011	89.15
794.187	87.14
794.363	86.43
794.539	85.3
794.715	84.86
794.891	82.65
795.067	83.59
795.243	83.44
795.419	84.83
795.595	91.38
795.771	88.06
795.947	90.05
796.122	87.33
796.298	87.24
796.474	88.54
796.65	95.09
796.826	87.94
797.001	87.27
797.177	79.15
797.353	71.9
797.529	69.18
797.704	71.95
797.88	76.12
798.056	84.77
798.231	82.25
798.407	86.16
798.582	89.02
798.758	90.48
798.934	91.38
799.109	95.2
799.285	90.62
799.46	83.23
799.636	77.98
799.811	77.01
799.986	71.24
800.162	65.41
800.337	72.16
800.513	76.71
800.688	70.72
800.863	79.73
801.039	82.79
801.214	75.45
801.389	74.92
801.565	78.52
801.74	77.15
801.915	75.98
802.09	79.87
802.265	77.32
802.441	77.32
802.616	76.55
802.791	79.1
802.966	81.04
803.141	85.48
803.316	86.1
803.491	82.3
803.666	86.4
803.841	84.33
804.016	83.56
804.191	79.56
804.366	84.28
804.541	83.79
804.716	79.1
804.891	81.82
805.066	86.23
805.241	85.54
805.416	87.63
805.591	91.37
805.765	94.16
805.94	90.89
806.115	85.84
806.29	80.96
806.464	82.38
806.639	79.65
806.814	80.61
806.989	84.05
807.163	89.78
807.338	89.91
807.512	91.53
807.687	97.36
807.862	98.99
808.036	93.66
808.211	97.27
808.385	93.09
808.56	83.05
808.734	77.43
808.909	80.16
809.083	74.03
809.258	71.36
809.432	73.61
809.606	74.5
809.781	75.79
809.955	79.23
810.13	80.17
810.304	80.21
810.478	82.14
810.652	75.27
810.827	75.19
811.001	76.1
811.175	80.44
811.349	80.07
811.524	83.65
811.698	81.26
811.872	80.48
812.046	69.95
812.22	67.23
812.394	65.78
812.568	64.3
812.742	57.95
812.916	66.72
813.09	62.5
813.264	61.07
813.438	63.31
813.612	68.24
813.786	64.72
813.96	67.72
814.134	73.23
814.308	78.8
814.482	77.2
814.656	72.6
814.83	73.77
815.003	73.91
815.177	72.33
815.351	81.52
815.525	90.1
815.698	81.72
815.872	72.64
816.046	63.81
816.219	65.47
816.393	69.45
816.567	74.16
816.74	79.56
816.914	86.23
817.088	76.85
817.261	73.92
817.435	83.06
817.608	85.49
817.782	78.17
817.955	82.41
818.129	77.8
818.302	66.22
818.475	57.82
818.649	69.7
818.822	69.82
818.996	78.98
819.169	89.35
819.342	91.57
819.516	93.89
819.689	87.59
819.862	82.16
820.035	83.33
820.209	78.37
820.382	67.42
820.555	52.65
820.728	38.58
820.901	32.95
821.075	26.47
821.248	32.81
821.421	58.87
821.594	62.42
821.767	59.8
821.94	65.08
822.113	62.55
822.286	59.12
822.459	65.71
822.632	67.53
822.805	68.44
822.978	72.4
823.151	66.92
823.324	57.2
823.496	57.51
823.669	54.64
823.842	65.04
824.015	71.46
824.188	67.24
824.361	72.52
824.533	69.84
824.706	52.43
824.879	54.69
825.051	57.34
825.224	55.52
825.397	59.52
825.569	62.13
825.742	63.76
825.915	69.49
826.087	60
826.26	61.14
826.432	64.65
826.605	57.97
826.777	64.23
826.95	61.58
827.122	57.34
827.295	65.01
827.467	70.93
827.64	48.26
827.812	62.96
827.984	57.57
828.157	41.73
828.329	57.31
828.501	60.4
828.674	58.77
828.846	71.89
829.018	73.07
829.19	63.31
829.363	67.59
829.535	86.79
829.707	83.53
829.879	80.65
830.051	78.68
830.223	90.11
830.395	64.4
830.568	58.02
830.74	62.58
830.912	69.36
831.084	57.38
831.256	51.58
831.428	59.23
831.6	45.32
831.772	24.03
831.943	19.34
832.115	58.36
832.287	42.95
832.459	59.49
832.631	76.98
832.803	73.39
832.975	62.78
833.146	60.04
833.318	60.1
833.49	53.62
833.662	75.98
833.833	64.1
834.005	68.29
834.177	61
834.348	62.67
834.52	46.66
834.692	47.48
834.863	49.77
835.035	61.14
835.206	56.25
835.378	68.06
835.549	71.85
835.721	61.14
835.892	67.45
836.064	67.54
836.235	62.21
836.407	62.66
836.578	85.23
836.749	55.52
836.921	66.62
837.092	52.41
837.264	45.66
837.435	29.33
837.606	35.35
837.777	30.35
837.949	49.32
838.12	58.88
838.291	61.98
838.462	76.27
838.633	80.67
838.805	69
838.976	58.92
839.147	50.44
839.318	44.23
839.489	47.76
839.66	62.5
839.831	60.79
840.002	62.96
840.173	60.5
840.344	52.16
840.515	39.82
840.686	36.46
840.857	42.3
841.028	50.24
841.199	55.28
841.369	57.42
841.54	90.57
841.711	123.04
841.882	96.76
842.053	95.27
842.223	94.25
842.394	67.29
842.565	37.62
842.736	32.61
842.906	0.7
843.077	7.95
843.248	15.93
843.418	15.48
843.589	24.36
843.759	49.21
843.93	55.21
844.101	52.67
844.271	95.06
844.442	78.08
844.612	81.48
844.783	66.57
844.953	59.58
845.123	49.6
845.294	49.86
845.464	47.68
845.635	61.06
845.805	102.72
845.975	95.62
846.146	95.02
846.316	76.76
846.486	71.84
846.656	53.51
846.827	58.66
846.997	45.19
847.167	37.91
847.337	40.29
847.507	47.22
847.677	36.07
847.848	38.14
848.018	46.08
848.188	47.73
848.358	29.15
848.528	50.06
848.698	39.76
848.868	32.68
849.038	6.34
849.208	20.84
849.378	20.87
849.548	14.63
849.718	29.94
849.887	76.37
850.057	46.51
850.227	11.46
850.397	29.59
850.567	-0.65
850.737	17.68
850.906	12.39
851.076	8.33
851.246	20.66
851.415	43.28
851.585	10.47
851.755	47.1
851.924	78.05
852.094	65.24
852.264	44.89
852.433	34.37
852.603	-30.63
852.772	-21.19
852.942	42.24
853.111	52.31
853.281	53.06
853.45	62.98
853.62	55.21
853.789	16.01
853.959	26.93
854.128	36.1
854.297	51.04
854.467	48.64
854.636	47.41
854.805	46.74
854.975	46.17
855.144	46.6
855.313	61.59
855.482	66.13
855.652	47.87
855.821	44.28
855.99	41.71
856.159	21.7
856.328	21.61
856.497	52.73
856.667	52.41
856.836	54.78
857.005	52.22
857.174	51.85
857.343	38.75
857.512	47.57
857.681	45.51
857.85	59.38
858.019	44.96
858.188	35.88
858.356	38.63
858.525	53.51
858.694	71.6
858.863	75
859.032	77.53
859.201	66.48
859.369	42.21
859.538	18.84
859.707	-11.88
859.876	9.29
860.044	49.96
860.213	59.03
860.382	55.18
860.55	73.2
860.719	77.37
860.888	41.82
861.056	32.48
861.225	32.14
861.393	33.6
861.562	42.49
861.73	50.91
861.899	54.41
862.067	66.6
862.236	64.01
862.404	32.3
862.572	38.39
862.741	57.73
862.909	66.71
863.078	64.19
863.246	64.24
863.414	51.35
863.582	25.18
863.751	28.93
863.919	31.27
864.087	23.09
864.255	32.74
864.424	29.61
864.592	37.33
864.76	24.58
864.928	56.99
865.096	41.28
865.264	58.95
865.432	40.9
865.6	46.93
865.768	17.13
865.936	18.44
866.104	20.26
866.272	14.56
866.44	5.48
866.608	9.83
866.776	60.69
866.944	97.85
867.112	82.59
867.28	91.01
867.448	108.31
867.615	91.92
867.783	48.39
867.951	52.17
868.119	57.44
868.286	44.67
868.454	21.61
868.622	34.12
868.789	15.51
868.957	14.95
869.125	17.54
869.292	2.49
869.46	16.75
869.627	27.21
869.795	5.84
869.963	-2.25
870.13	-2.77
870.298	-8.3
870.465	10.69
870.632	24.09
870.8	48.63
870.967	53.45
871.135	73.84
871.302	34.49
871.469	51.74
871.637	46.51
871.804	88.38
871.971	73.19
872.139	72.59
872.306	35.1
872.473	10.85
872.64	-136.76
872.807	-139.74
872.975	-223.85
873.142	-20.78
873.309	-21.68
873.476	22.85
873.643	26.6
873.81	37.44
873.977	-1.43
874.144	38.48
874.311	-20.09
874.478	-24.67
874.645	-63.86
874.812	15.23
874.979	29.4
875.146	56.92
875.313	47.2
875.48	82.63
875.647	54.01
875.813	19.4
875.98	22.33
876.147	-29.09
876.314	-20.41
876.481	60.64
876.647	56.45
876.814	54.29
876.981	89.48
877.147	97.43
877.314	72.24
877.481	60.74
877.647	33.17
877.814	6.84
877.98	-6.63
878.147	21.62
878.314	34.24
878.48	67.93
878.647	58.59
878.813	86.27
878.979	51.72
879.146	72.32
879.312	73.74
879.479	71.4
879.645	48.38
879.811	52.34
879.978	34.09
880.144	18.83
880.31	12.7
880.477	25.09
880.643	38.38
880.809	13.79
880.975	-5.69
881.142	-18.46
881.308	295.83
881.474	455.25
881.64	-48.51
881.806	-62.49
881.972	-21.72
882.138	19.29
882.304	33.38
882.47	-2.31
882.636	-22.65
882.802	1.48
882.968	-35.71
883.134	-15
883.3	-7.93
883.466	55.43
883.632	25.2
883.798	48.46
883.964	-78
884.129	-226.2
884.295	-20.13
884.461	-64.8
884.627	-15.13
884.793	-6.91
884.958	26.26
885.124	24.93
885.29	22.09
885.455	52.3
885.621	48.11
885.787	23.28
885.952	9.83
886.118	41.28
886.283	13.49
886.449	25.11
886.614	11.83
886.78	2.68
886.945	-66.56
887.111	-54.87
887.276	-47.67
887.442	-70.32
887.607	-27.61
887.773	44.98
887.938	52.69
888.103	56.36
888.269	54.3
888.434	60.37
888.599	27.39
888.764	34.29
888.93	24.07
889.095	29.64
889.26	17.63
889.425	30.33
889.59	55.28
889.756	66.55
889.921	64.82
890.086	162.89
890.251	159.36
890.416	66.72
890.581	64.75
890.746	43.63
890.911	6.78
891.076	15.54
891.241	15.6
891.406	-7.77
891.571	-20.09
891.736	82.35
891.901	53.86
892.065	56.48
892.23	66.02
892.395	75.46
892.56	12.48
892.725	-14.64
892.889	-182.63
893.054	-94.47
893.219	-143.32
893.384	-124.85
893.548	-108.55
893.713	-99.69
893.878	-124.16
