Data from Ofra_PS_T2_2A_2CX10_Reflection_2.txt Node
Date: Wed Jul 21 16:57:23 EDT 2021
User: Adam
Spectrometer: FLMT01687
Trigger mode: 0
Integration Time (sec): 1.100000E0
Scans to average: 2
Electric dark correction enabled: true
Nonlinearity correction enabled: false
Boxcar width: 2
XAxis mode: Wavelengths
Number of Pixels in Spectrum: 3648
>>>>>Begin Spectral Data<<<<<
179.494	507.6
179.716	569.65
179.937	530.75
180.158	495.37
180.38	812.81
180.601	231.22
180.823	64.83
181.044	19.19
181.265	133.46
181.486	34.99
181.708	93.19
181.929	443.88
182.15	-280.99
182.372	67.4
182.593	23.52
182.814	12.65
183.035	59.74
183.257	84.25
183.478	22.66
183.699	38.15
183.92	47.24
184.141	30.85
184.363	-19.89
184.584	31.65
184.805	33.73
185.026	45.66
185.247	32.19
185.468	31.71
185.689	28.14
185.91	25.46
186.132	9.24
186.353	17.1
186.574	65.21
186.795	45.13
187.016	0.49
187.237	6.03
187.458	-5.9
187.679	-28.58
187.9	-4.32
188.121	5.42
188.342	34.66
188.563	71.4
188.784	100.67
189.005	74.63
189.226	96.53
189.447	85.54
189.667	-25.49
189.888	-155.91
190.109	-492.86
190.33	-237.1
190.551	-742.04
190.772	-158.72
190.993	-126.37
191.214	-105.13
191.434	-38.64
191.655	12.33
191.876	-9.33
192.097	-71.07
192.318	-122.03
192.538	-219.5
192.759	-154.33
192.98	-69.98
193.201	-21.41
193.421	6.52
193.642	23.31
193.863	38.25
194.083	34.04
194.304	27.1
194.525	28.98
194.745	29.74
194.966	5.26
195.187	-10.01
195.407	-37.55
195.628	-68.91
195.848	-74.53
196.069	-86.29
196.29	-44.03
196.51	-69.24
196.731	-66.28
196.951	-77.65
197.172	-87.84
197.392	-137.21
197.613	-96.91
197.833	-121.21
198.054	-116.88
198.274	-67.4
198.495	-69.69
198.715	-45
198.936	-64.66
199.156	-54.05
199.377	-125.35
199.597	-112.84
199.817	-104.78
200.038	-29.8
200.258	-52.65
200.479	11.06
200.699	2.92
200.919	34.6
201.14	5.02
201.36	-3.97
201.58	2.49
201.801	38.29
202.021	5.03
202.241	0.7
202.461	-1.06
202.682	-47.04
202.902	-138.63
203.122	-80.49
203.342	-77.71
203.563	-25.26
203.783	10.58
204.003	-3.18
204.223	0.16
204.443	26.06
204.663	-9.95
204.884	-14.28
205.104	41.31
205.324	44.68
205.544	71.75
205.764	78.66
205.984	81.81
206.204	60.76
206.424	54.16
206.644	19.13
206.864	17.03
207.084	-24.26
207.304	-10.27
207.525	-122.34
207.745	-0.28
207.964	30.22
208.184	-17.93
208.404	-71.94
208.624	-51.03
208.844	-79.54
209.064	-344.59
209.284	-252.2
209.504	-66.14
209.724	15.11
209.944	17.4
210.164	54.78
210.384	41.58
210.604	33.32
210.823	-12.41
211.043	-9.76
211.263	-17
211.483	-17.84
211.703	-40.16
211.922	-40.01
212.142	-0.35
212.362	8.89
212.582	-11.53
212.801	-18.64
213.021	-11.23
213.241	-26.56
213.461	-44.94
213.68	-39.78
213.9	-37.06
214.12	-22.26
214.339	-61.19
214.559	-61.14
214.779	-25.02
214.998	1.91
215.218	-27.77
215.438	0.63
215.657	-5.96
215.877	-11.32
216.096	8.27
216.316	18.7
216.535	-3.16
216.755	2.62
216.974	-54.64
217.194	-119.18
217.413	-117.33
217.633	-114.59
217.852	-188.58
218.072	-55.86
218.291	-20.58
218.511	9.84
218.73	-7.12
218.95	-2.47
219.169	-3.75
219.389	-26.6
219.608	-7.68
219.827	14.23
220.047	28.73
220.266	8.84
220.485	15.1
220.705	11.72
220.924	-5.13
221.143	24.31
221.363	10.27
221.582	17.78
221.801	20.16
222.021	34.78
222.24	-13.62
222.459	69.45
222.678	-16.62
222.897	-70.97
223.117	-128.02
223.336	-107.52
223.555	-90.25
223.774	-7.3
223.993	1.39
224.213	39.75
224.432	41.41
224.651	59.47
224.87	20.16
225.089	34.64
225.308	38.29
225.527	53.3
225.746	48.46
225.965	52.3
226.184	28.09
226.404	31.74
226.623	-8.32
226.842	-2.79
227.061	18.41
227.28	33.62
227.499	24.02
227.718	29.44
227.936	24.41
228.155	34.53
228.374	12.35
228.593	19.38
228.812	30.63
229.031	29.14
229.25	-18.64
229.469	-9.31
229.688	-19.39
229.907	13.59
230.125	8.42
230.344	13.23
230.563	18.52
230.782	28.68
231.001	-37.5
231.22	-31.38
231.438	-6.12
231.657	0.66
231.876	-7.65
232.095	34.9
232.313	44.55
232.532	43.32
232.751	28.36
232.969	15.34
233.188	-50.33
233.407	-12.03
233.625	-8.72
233.844	-23.9
234.063	-21.56
234.281	12.6
234.5	2.93
234.719	5.39
234.937	12.7
235.156	19.41
235.374	9.25
235.593	1.74
235.811	-2.29
236.03	13.67
236.249	-0.48
236.467	20.74
236.686	28.17
236.904	40.99
237.123	18.09
237.341	12.08
237.559	10.35
237.778	-9.22
237.996	-22.97
238.215	11.55
238.433	22.17
238.652	28.1
238.87	21.16
239.088	21.12
239.307	19.66
239.525	3.58
239.743	-34.19
239.962	-27.03
240.18	-41.27
240.398	-86.61
240.617	-78.03
240.835	-47.13
241.053	-18.16
241.271	-0.75
241.49	32.52
241.708	31.24
241.926	11.36
242.144	-6.18
242.363	-27.1
242.581	-68.87
242.799	-31.51
243.017	1.1
243.235	-4.24
243.453	11.7
243.672	12.75
243.89	4.04
244.108	-2.74
244.326	8.63
244.544	-4.96
244.762	-2.09
244.98	4.6
245.198	12.77
245.416	-7.53
245.634	-11.15
245.852	-24.12
246.07	-22.49
246.288	-36.28
246.506	-48.64
246.724	-30.45
246.942	-10.58
247.16	18.45
247.378	16.35
247.596	16.37
247.814	27
248.032	8.17
248.25	2.82
248.468	5.07
248.685	12.22
248.903	27.46
249.121	42.59
249.339	15.69
249.557	23.42
249.775	21.75
249.992	-23.88
250.21	-31.23
250.428	-24.93
250.646	-60.72
250.863	-60.4
251.081	-39.14
251.299	-39.85
251.517	-14.48
251.734	6.3
251.952	-14.62
252.17	-14.42
252.387	-9.82
252.605	-12.93
252.823	-7.94
253.04	22.24
253.258	43.32
253.475	42.36
253.693	64.11
253.911	65.14
254.128	56.38
254.346	67.22
254.563	54.62
254.781	33.67
254.998	16.52
255.216	7.21
255.433	-4.86
255.651	37.6
255.868	42.59
256.086	57.07
256.303	51.65
256.521	44.48
256.738	18.61
256.956	-10.67
257.173	-38.45
257.39	-39.14
257.608	-70.22
257.825	-46.74
258.043	-9.96
258.26	-7.53
258.477	23.79
258.695	31.5
258.912	13.95
259.129	13.18
259.346	4.67
259.564	-46.01
259.781	-66.78
259.998	-11.38
260.216	5.62
260.433	33.85
260.65	46.21
260.867	65.04
261.084	51.1
261.302	46.23
261.519	35.35
261.736	11.74
261.953	-21.48
262.17	0.11
262.387	-25.22
262.604	-62.72
262.822	-61.54
263.039	-30.57
263.256	-70.36
263.473	-53.26
263.69	-8.77
263.907	17.22
264.124	-0.62
264.341	-6.14
264.558	-11.04
264.775	-13.18
264.992	-35.49
265.209	-6.51
265.426	10.32
265.643	26.61
265.86	38.59
266.077	44.55
266.294	36.75
266.51	10.3
266.727	-18.49
266.944	-17.28
267.161	-31.32
267.378	-45.29
267.595	-4.71
267.812	-20.96
268.028	-39.86
268.245	-18.23
268.462	-22.09
268.679	-48.43
268.896	-0.43
269.112	10.71
269.329	14.92
269.546	20.68
269.763	31.87
269.979	17.81
270.196	9.63
270.413	-20.98
270.629	-32.83
270.846	-46.65
271.063	-51.37
271.279	-52.63
271.496	-35.82
271.712	3.78
271.929	13.12
272.146	26.49
272.362	10.23
272.579	13.6
272.795	16.6
273.012	16.35
273.228	10.98
273.445	-6.48
273.661	-27.79
273.878	-71.75
274.094	-54.96
274.311	-60.38
274.527	5.49
274.744	13.41
274.96	12.63
275.177	16.43
275.393	27.04
275.609	16.49
275.826	42.64
276.042	50.11
276.259	59.74
276.475	58.74
276.691	50.27
276.908	23.06
277.124	34.04
277.34	21.72
277.557	3.53
277.773	0.71
277.989	7.17
278.205	-10.29
278.422	-0.07
278.638	11.12
278.854	33.15
279.07	18.82
279.286	59.32
279.503	39.83
279.719	34.91
279.935	5.21
280.151	3.55
280.367	-32.34
280.583	-40.63
280.799	-25.53
281.016	-42.32
281.232	-10.84
281.448	-6.71
281.664	18.83
281.88	-10.59
282.096	13.61
282.312	41.45
282.528	58.05
282.744	42.18
282.96	50.66
283.176	39.13
283.392	30.33
283.608	26.25
283.824	27.05
284.04	27.27
284.256	30.26
284.471	15.85
284.687	0.99
284.903	7.86
285.119	17.35
285.335	-1.67
285.551	2.87
285.767	2.79
285.982	-7.19
286.198	-29.34
286.414	29.41
286.63	23.22
286.846	25.19
287.061	10.95
287.277	38.26
287.493	-3.54
287.709	4.4
287.924	6.43
288.14	45.44
288.356	23.56
288.571	51.4
288.787	35.57
289.003	33.94
289.218	11.91
289.434	-12.49
289.65	-17.1
289.865	-25.37
290.081	-6.53
290.296	5.48
290.512	20.2
290.727	-13.17
290.943	-9.07
291.159	-24.58
291.374	-35.35
291.59	-43.16
291.805	-20.94
292.021	-15.7
292.236	-9.2
292.451	25.91
292.667	34.22
292.882	36.09
293.098	56.23
293.313	45.63
293.529	-1.52
293.744	-19.85
293.959	-7.46
294.175	-30.5
294.39	1.73
294.605	12.05
294.821	34.49
295.036	30.68
295.251	47.02
295.467	40.77
295.682	25.34
295.897	-9.11
296.112	-7.16
296.328	-9.26
296.543	-38.72
296.758	-17.46
296.973	10.26
297.188	29.43
297.404	12.26
297.619	2.84
297.834	-2.98
298.049	-17.65
298.264	-36.92
298.479	3.69
298.694	13.63
298.909	22.73
299.125	27.75
299.34	29.27
299.555	13.93
299.77	26.23
299.985	-5.44
300.2	-58.24
300.415	-72.11
300.63	-49.27
300.845	-51.75
301.06	-49.94
301.275	-15
301.49	0.08
301.704	-8.84
301.919	-19.48
302.134	-15.09
302.349	-14.46
302.564	-55.24
302.779	-76.1
302.994	-88.64
303.209	-34.17
303.423	11.57
303.638	48.32
303.853	13.59
304.068	18.81
304.283	-2.07
304.497	-14.34
304.712	-38.58
304.927	-11.87
305.142	-7.22
305.356	12.78
305.571	27.12
305.786	34.82
306	16.58
306.215	13.87
306.43	-9.73
306.644	-27.69
306.859	11.21
307.074	24.09
307.288	6.28
307.503	-17.74
307.717	-12.25
307.932	-21.38
308.147	-20.41
308.361	-8.94
308.576	-7.02
308.79	-41.59
309.005	-30.41
309.219	-13.06
309.434	-12.91
309.648	-3.4
309.863	15.5
310.077	19.47
310.292	20.1
310.506	20.82
310.72	25.16
310.935	20.48
311.149	3.42
311.364	15.1
311.578	32.65
311.792	21.19
312.007	19.06
312.221	9.99
312.435	-1.32
312.649	-21.55
312.864	-53.31
313.078	-32.64
313.292	-2.06
313.507	-30.42
313.721	-42.13
313.935	25.48
314.149	17.16
314.363	20.31
314.578	26.58
314.792	28.55
315.006	19.94
315.22	32.12
315.434	24.94
315.648	24.56
315.862	23.13
316.077	25.01
316.291	-5
316.505	11.27
316.719	8.94
316.933	-18.16
317.147	-50.18
317.361	-82.93
317.575	-110.34
317.789	-140.33
318.003	-210.38
318.217	-140.39
318.431	-37.44
318.645	2.42
318.859	11.83
319.073	41.17
319.287	34.94
319.5	13.64
319.714	-20.14
319.928	-27.01
320.142	-60.71
320.356	-20.15
320.57	0.91
320.784	13.52
320.997	-21.28
321.211	-2.59
321.425	-54.24
321.639	-81.04
321.853	-41.89
322.066	-12.86
322.28	-16.81
322.494	-6.79
322.707	15.29
322.921	-0.44
323.135	4.8
323.349	4.53
323.562	-19.17
323.776	-27.31
323.989	-21.22
324.203	-37.15
324.417	-23.85
324.63	-15.77
324.844	-33.92
325.057	-30.67
325.271	-10.37
325.485	10.54
325.698	19.54
325.912	34.85
326.125	17.92
326.339	11.88
326.552	-13.8
326.766	-3.62
326.979	3.97
327.193	44.63
327.406	37.82
327.619	24.25
327.833	28.24
328.046	7.95
328.26	-20.8
328.473	-7.9
328.686	-2.48
328.9	-9.29
329.113	8.11
329.326	-27.44
329.54	-12.25
329.753	-36.16
329.966	-49.18
330.179	-44.74
330.393	-10.44
330.606	-16.19
330.819	14.06
331.032	27.31
331.246	30.16
331.459	49.73
331.672	51.5
331.885	39.46
332.098	26.38
332.311	9.23
332.525	-39.05
332.738	-49.69
332.951	-18.42
333.164	-3.42
333.377	19.61
333.59	35.98
333.803	45.54
334.016	31.83
334.229	28.63
334.442	27.88
334.655	34.96
334.868	25.38
335.081	12.08
335.294	22.61
335.507	23.55
335.72	12.8
335.933	0.43
336.146	5.04
336.359	-16.11
336.572	-53.39
336.785	-68.98
336.997	-52.9
337.21	-28.87
337.423	-13.86
337.636	1.32
337.849	23.97
338.062	6.51
338.274	4.29
338.487	-6.66
338.7	-8.76
338.913	-36.83
339.125	-35.05
339.338	-91.54
339.551	-71.39
339.763	-50.51
339.976	-46.19
340.189	-16.48
340.402	2.37
340.614	-0.6
340.827	6.47
341.039	6.88
341.252	8.9
341.465	14.82
341.677	15.09
341.89	-13.53
342.102	17.46
342.315	6.27
342.527	-4.37
342.74	1.74
342.952	18.8
343.165	-2.11
343.377	12.49
343.59	15.23
343.802	9.54
344.015	6.01
344.227	19.32
344.44	13.12
344.652	8.36
344.864	10.19
345.077	32.2
345.289	29.37
345.502	20.19
345.714	23.71
345.926	32.59
346.139	21.86
346.351	23.18
346.563	32.24
346.775	42.13
346.988	23.87
347.2	14.3
347.412	-33.14
347.624	-40.42
347.837	-74.72
348.049	-45.52
348.261	-26.97
348.473	-0.28
348.685	-4.92
348.897	-9.87
349.11	-20.13
349.322	-44.39
349.534	-29.72
349.746	-12.37
349.958	8.12
350.17	0.8
350.382	18.09
350.594	7.72
350.806	23.48
351.018	14.62
351.23	20.07
351.442	-0.85
351.654	10.63
351.866	-7.96
352.078	-16.56
352.29	-6.18
352.502	17.73
352.714	31.58
352.926	30.01
353.138	37.1
353.35	24.65
353.561	22.14
353.773	-1.26
353.985	5.85
354.197	0.75
354.409	3.57
354.621	-10.16
354.832	5.11
355.044	-6.15
355.256	6.14
355.468	17.49
355.679	32.57
355.891	31.49
356.103	25.76
356.314	22.48
356.526	17.67
356.738	0.45
356.949	-14.76
357.161	13.24
357.373	5.56
357.584	-3.99
357.796	13.06
358.008	12.29
358.219	1.83
358.431	1.96
358.642	3.22
358.854	-13.18
359.065	-20.98
359.277	-31.28
359.488	-33.1
359.7	-39.24
359.911	-39.67
360.123	-13.46
360.334	-12.67
360.546	-23.6
360.757	-18.15
360.969	-13.44
361.18	1.38
361.391	23.43
361.603	15
361.814	18.27
362.025	12.44
362.237	-8.27
362.448	-7.78
362.659	13.3
362.871	4.32
363.082	20.31
363.293	23.39
363.504	-3.55
363.716	-22.87
363.927	-17.12
364.138	-54.75
364.349	-60.06
364.56	-39.15
364.772	-37.59
364.983	-18.24
365.194	2.04
365.405	17.57
365.616	31.63
365.827	52.78
366.038	36.4
366.25	19.6
366.461	-22.57
366.672	-1.11
366.883	-4.42
367.094	6.67
367.305	9.25
367.516	28.31
367.727	-3.76
367.938	-6.29
368.149	-9.95
368.36	1.03
368.571	6.82
368.781	7.78
368.992	-13.1
369.203	-24.56
369.414	-39.34
369.625	-54.6
369.836	-44.6
370.047	-57.7
370.258	-35.2
370.468	-33.72
370.679	-43.44
370.89	-45
371.101	-25.59
371.312	-28.09
371.522	-26.06
371.733	-16.38
371.944	-7.83
372.155	4.07
372.365	-11.45
372.576	-17.68
372.787	-25.86
372.997	-48.32
373.208	-49.66
373.419	-20.93
373.629	-40.1
373.84	-30.38
374.05	-31.46
374.261	-34.23
374.472	-52.11
374.682	-3.43
374.893	1.52
375.103	41.76
375.314	51.21
375.524	56.7
375.735	44.99
375.945	42.83
376.156	16.85
376.366	8.54
376.577	5.08
376.787	6.56
376.997	15.29
377.208	8.14
377.418	-3.96
377.629	0.53
377.839	-0.64
378.049	-7.25
378.26	2.89
378.47	18.1
378.68	10.17
378.89	5.62
379.101	1.12
379.311	-17.62
379.521	-40.49
379.732	-26.59
379.942	-23.71
380.152	-35.93
380.362	-8.54
380.572	-6.84
380.783	-0.71
380.993	5.04
381.203	14.15
381.413	28.48
381.623	22.77
381.833	26.05
382.043	18.43
382.253	16.01
382.463	4.11
382.674	4.77
382.884	-11.58
383.094	-9.73
383.304	-3.3
383.514	7.98
383.724	17.19
383.934	12.42
384.144	7.68
384.353	-1.59
384.563	-8.33
384.773	-1.79
384.983	-0.67
385.193	13.86
385.403	20.4
385.613	17.49
385.823	7.35
386.033	11.63
386.242	1.3
386.452	-6.15
386.662	-9.2
386.872	0.03
387.082	-5.68
387.291	-8.66
387.501	-4.71
387.711	-7.2
387.921	-11.6
388.13	-5.63
388.34	4.01
388.55	-3.09
388.759	-0.64
388.969	2.05
389.179	0.62
389.388	-1.39
389.598	6.24
389.807	-1.23
390.017	-4.24
390.227	-5.76
390.436	-6.8
390.646	-5.16
390.855	0.32
391.065	1.04
391.274	1.94
391.484	2.69
391.693	2.81
391.903	4.93
392.112	8.71
392.322	9.32
392.531	12.32
392.74	12.1
392.95	7.16
393.159	3.99
393.369	5.27
393.578	1.91
393.787	0.96
393.997	4.48
394.206	4.03
394.415	1.66
394.625	2.32
394.834	1.81
395.043	1.29
395.252	2.66
395.462	4.37
395.671	4.69
395.88	5.57
396.089	6.57
396.298	5.17
396.508	5.37
396.717	5.15
396.926	5.24
397.135	4.15
397.344	4.59
397.553	4.58
397.762	5.48
397.971	5.55
398.181	5.76
398.39	5.68
398.599	6.04
398.808	6.11
399.017	6.2
399.226	7.19
399.435	8
399.644	8.11
399.853	7.02
400.062	6.9
400.27	6.19
400.479	5.63
400.688	4.8
400.897	5.16
401.106	5.1
401.315	5.31
401.524	5.28
401.733	5.79
401.941	6.21
402.15	6.26
402.359	6.18
402.568	6.58
402.777	6.78
402.985	6.41
403.194	6.61
403.403	6.64
403.612	6.27
403.82	6.04
404.029	6.09
404.238	5.81
404.446	5.78
404.655	5.74
404.864	5.53
405.072	5.37
405.281	5.44
405.489	5.41
405.698	5.22
405.906	5.33
406.115	5.41
406.324	5.41
406.532	5.56
406.741	6.02
406.949	6.04
407.158	6.14
407.366	6.17
407.574	6
407.783	5.89
407.991	5.76
408.2	5.73
408.408	5.72
408.617	5.67
408.825	5.48
409.033	5.59
409.242	5.52
409.45	5.53
409.658	5.36
409.867	5.55
410.075	5.4
410.283	5.43
410.491	5.31
410.7	5.39
410.908	5.32
411.116	5.6
411.324	5.56
411.533	5.56
411.741	5.69
411.949	5.66
412.157	5.43
412.365	5.41
412.573	5.4
412.781	5.35
412.99	5.28
413.198	5.42
413.406	5.32
413.614	5.33
413.822	5.24
414.03	5.14
414.238	5.01
414.446	5.03
414.654	4.84
414.862	4.9
415.07	5.03
415.278	5.11
415.486	5.08
415.694	5.2
415.902	5.04
416.109	4.91
416.317	4.82
416.525	4.68
416.733	4.67
416.941	4.89
417.149	4.87
417.357	4.9
417.564	5.11
417.772	5.26
417.98	5.12
418.188	5.09
418.395	5.07
418.603	5.11
418.811	4.71
419.019	4.62
419.226	4.85
419.434	4.98
419.642	4.82
419.849	5.05
420.057	5.08
420.265	4.99
420.472	4.75
420.68	4.75
420.887	4.62
421.095	4.63
421.302	4.53
421.51	4.69
421.717	4.7
421.925	4.84
422.132	4.79
422.34	4.51
422.547	4.36
422.755	4.3
422.962	4.14
423.17	4.14
423.377	4.31
423.585	4.28
423.792	4.35
423.999	4.41
424.207	4.36
424.414	4.52
424.621	4.58
424.829	4.48
425.036	4.53
425.243	4.61
425.451	4.37
425.658	4.14
425.865	4.29
426.072	4.38
426.28	4.54
426.487	4.56
426.694	4.64
426.901	4.51
427.108	4.39
427.315	4.26
427.523	4.52
427.73	4.56
427.937	4.54
428.144	4.5
428.351	4.44
428.558	4.41
428.765	4.44
428.972	4.48
429.179	4.59
429.386	4.81
429.593	4.67
429.8	4.64
430.007	4.79
430.214	4.91
430.421	4.64
430.628	4.61
430.835	4.59
431.042	4.59
431.249	4.63
431.456	4.82
431.662	5.03
431.869	5.25
432.076	5.35
432.283	5.28
432.49	5.31
432.697	5.35
432.903	5.15
433.11	5.12
433.317	5.22
433.524	5.37
433.73	5.41
433.937	5.71
434.144	5.66
434.35	5.66
434.557	5.59
434.764	5.51
434.97	5.38
435.177	5.66
435.384	5.53
435.59	5.71
435.797	5.95
436.003	6
436.21	5.88
436.416	6.07
436.623	5.93
436.829	5.91
437.036	5.94
437.242	5.97
437.449	5.93
437.655	6.05
437.862	6.09
438.068	6.17
438.275	6.27
438.481	6.58
438.687	6.6
438.894	6.62
439.1	6.62
439.307	6.67
439.513	6.55
439.719	6.42
439.926	6.59
440.132	6.74
440.338	6.66
440.544	6.78
440.751	6.91
440.957	6.78
441.163	6.72
441.369	6.96
441.575	6.69
441.782	6.66
441.988	6.65
442.194	6.62
442.4	6.54
442.606	7.01
442.812	7.2
443.018	7.24
443.224	7.28
443.431	7.36
443.637	7.09
443.843	6.97
444.049	7.02
444.255	7
444.461	7.06
444.667	7.05
444.873	7.22
445.079	7.24
445.284	7.39
445.49	7.17
445.696	7.1
445.902	6.93
446.108	6.97
446.314	6.88
446.52	7.03
446.726	7.28
446.931	7.42
447.137	7.45
447.343	7.54
447.549	7.47
447.755	7.38
447.96	7.44
448.166	7.4
448.372	7.37
448.578	7.5
448.783	7.43
448.989	7.55
449.195	7.75
449.4	7.75
449.606	7.65
449.812	7.69
450.017	7.64
450.223	7.5
450.428	7.5
450.634	7.7
450.84	7.86
451.045	7.82
451.251	7.75
451.456	8.02
451.662	8.04
451.867	8.1
452.073	8.12
452.278	8.22
452.483	8.23
452.689	8.14
452.894	8.13
453.1	8.14
453.305	8.21
453.51	8.14
453.716	8.14
453.921	8.13
454.127	8.06
454.332	8.01
454.537	7.96
454.742	7.97
454.948	8
455.153	8.08
455.358	8.12
455.563	8.24
455.769	8.32
455.974	8.27
456.179	8.17
456.384	8.1
456.589	8.1
456.795	7.96
457	8
457.205	8.18
457.41	8.31
457.615	8.31
457.82	8.39
458.025	8.37
458.23	8.37
458.435	8.26
458.64	8.11
458.845	8.29
459.05	8.31
459.255	8.32
459.46	8.35
459.665	8.45
459.87	8.42
460.075	8.45
460.28	8.5
460.485	8.7
460.69	8.78
460.895	8.62
461.099	8.62
461.304	8.69
461.509	8.55
461.714	8.46
461.919	8.71
462.123	8.64
462.328	8.65
462.533	8.67
462.738	8.82
462.942	8.68
463.147	8.81
463.352	8.79
463.556	8.89
463.761	8.82
463.966	8.75
464.17	8.84
464.375	8.84
464.58	8.84
464.784	8.9
464.989	9.04
465.193	9.03
465.398	9.14
465.602	9.2
465.807	9.23
466.011	9.35
466.216	9.3
466.42	9.26
466.625	9.4
466.829	9.42
467.034	9.37
467.238	9.58
467.443	9.58
467.647	9.37
467.851	9.46
468.056	9.47
468.26	9.42
468.464	9.52
468.669	9.67
468.873	9.77
469.077	9.84
469.282	9.95
469.486	9.95
469.69	9.95
469.894	9.78
470.099	9.8
470.303	9.84
470.507	9.83
470.711	9.83
470.915	9.89
471.119	9.89
471.324	9.8
471.528	9.79
471.732	9.82
471.936	9.85
472.14	9.95
472.344	10.06
472.548	10.15
472.752	10.34
472.956	10.53
473.16	10.51
473.364	10.41
473.568	10.42
473.772	10.4
473.976	10.31
474.18	10.31
474.384	10.44
474.588	10.46
474.792	10.41
474.995	10.45
475.199	10.57
475.403	10.64
475.607	10.67
475.811	10.68
476.015	10.74
476.218	10.84
476.422	10.78
476.626	10.86
476.83	10.91
477.033	10.79
477.237	10.6
477.441	10.62
477.644	10.7
477.848	10.72
478.052	10.75
478.255	10.81
478.459	10.86
478.663	10.87
478.866	10.93
479.07	11.06
479.273	11.23
479.477	11.18
479.681	11.08
479.884	10.97
480.088	10.93
480.291	10.84
480.495	10.92
480.698	11.07
480.901	11.19
481.105	11.22
481.308	11.23
481.512	11.23
481.715	11.2
481.919	11.24
482.122	11.32
482.325	11.32
482.529	11.37
482.732	11.32
482.935	11.28
483.138	11.21
483.342	11.27
483.545	11.31
483.748	11.44
483.952	11.42
484.155	11.56
484.358	11.51
484.561	11.56
484.764	11.45
484.967	11.55
485.171	11.56
485.374	11.64
485.577	11.68
485.78	11.78
485.983	11.79
486.186	11.71
486.389	11.66
486.592	11.62
486.795	11.61
486.998	11.58
487.201	11.66
487.404	11.74
487.607	11.75
487.81	11.78
488.013	11.79
488.216	11.73
488.419	11.69
488.622	11.73
488.825	11.71
489.028	11.79
489.231	11.82
489.433	11.83
489.636	11.74
489.839	11.73
490.042	11.71
490.245	11.77
490.447	11.85
490.65	11.88
490.853	11.94
491.056	12
491.258	12.08
491.461	12.18
491.664	12.31
491.866	12.38
492.069	12.5
492.272	12.45
492.474	12.47
492.677	12.54
492.879	12.69
493.082	12.8
493.285	12.98
493.487	13.07
493.69	13.12
493.892	13.11
494.095	13.09
494.297	13.18
494.5	13.35
494.702	13.49
494.905	13.61
495.107	13.74
495.309	13.76
495.512	13.84
495.714	13.92
495.917	13.98
496.119	14.02
496.321	14.18
496.524	14.21
496.726	14.28
496.928	14.47
497.13	14.59
497.333	14.72
497.535	14.91
497.737	15.04
497.939	15.1
498.142	15.25
498.344	15.3
498.546	15.27
498.748	15.41
498.95	15.52
499.152	15.57
499.355	15.66
499.557	15.82
499.759	15.87
499.961	15.95
500.163	16.1
500.365	16.19
500.567	16.36
500.769	16.48
500.971	16.59
501.173	16.53
501.375	16.58
501.577	16.51
501.779	16.47
501.981	16.53
502.183	16.63
502.385	16.59
502.587	16.59
502.788	16.78
502.99	16.8
503.192	16.89
503.394	16.91
503.596	16.97
503.798	16.95
503.999	16.97
504.201	16.91
504.403	16.97
504.605	17.07
504.806	16.98
505.008	17.01
505.21	17.15
505.411	17.18
505.613	17.2
505.815	17.25
506.016	17.26
506.218	17.26
506.42	17.3
506.621	17.23
506.823	17.21
507.024	17.15
507.226	17.11
507.427	17.05
507.629	17.08
507.83	17.14
508.032	17.15
508.233	17.18
508.435	17.25
508.636	17.21
508.838	17.12
509.039	17.07
509.24	16.98
509.442	16.88
509.643	16.77
509.845	16.73
510.046	16.75
510.247	16.78
510.448	16.72
510.65	16.78
510.851	16.79
511.052	16.71
511.254	16.64
511.455	16.73
511.656	16.79
511.857	16.84
512.058	16.89
512.26	16.92
512.461	16.9
512.662	16.84
512.863	16.75
513.064	16.68
513.265	16.66
513.466	16.67
513.667	16.63
513.868	16.62
514.069	16.65
514.27	16.66
514.471	16.53
514.672	16.52
514.873	16.51
515.074	16.59
515.275	16.5
515.476	16.51
515.677	16.54
515.878	16.68
516.079	16.61
516.28	16.64
516.481	16.72
516.682	16.7
516.882	16.48
517.083	16.41
517.284	16.34
517.485	16.31
517.686	16.33
517.886	16.39
518.087	16.47
518.288	16.51
518.488	16.48
518.689	16.44
518.89	16.39
519.091	16.34
519.291	16.34
519.492	16.39
519.692	16.34
519.893	16.41
520.094	16.38
520.294	16.29
520.495	16.2
520.695	16.27
520.896	16.25
521.096	16.29
521.297	16.38
521.497	16.36
521.698	16.28
521.898	16.28
522.099	16.25
522.299	16.28
522.499	16.3
522.7	16.29
522.9	16.21
523.101	16.22
523.301	16.2
523.501	16.17
523.702	16.18
523.902	16.33
524.102	16.35
524.302	16.26
524.503	16.28
524.703	16.3
524.903	16.23
525.103	16.2
525.304	16.33
525.504	16.37
525.704	16.36
525.904	16.34
526.104	16.35
526.304	16.25
526.504	16.22
526.705	16.2
526.905	16.24
527.105	16.26
527.305	16.27
527.505	16.27
527.705	16.25
527.905	16.21
528.105	16.13
528.305	16.14
528.505	16.16
528.705	16.25
528.905	16.24
529.105	16.31
529.304	16.32
529.504	16.38
529.704	16.35
529.904	16.4
530.104	16.43
530.304	16.48
530.503	16.43
530.703	16.37
530.903	16.36
531.103	16.36
531.303	16.36
531.502	16.43
531.702	16.49
531.902	16.53
532.101	16.47
532.301	16.45
532.501	16.45
532.7	16.46
532.9	16.49
533.1	16.53
533.299	16.52
533.499	16.52
533.698	16.54
533.898	16.53
534.097	16.59
534.297	16.7
534.496	16.64
534.696	16.61
534.895	16.67
535.095	16.71
535.294	16.6
535.494	16.61
535.693	16.66
535.892	16.69
536.092	16.64
536.291	16.68
536.491	16.79
536.69	16.83
536.889	16.71
537.088	16.74
537.288	16.88
537.487	16.89
537.686	16.89
537.886	17.02
538.085	17.01
538.284	17.06
538.483	17.01
538.682	17.07
538.882	17.04
539.081	17.07
539.28	16.94
539.479	17
539.678	16.96
539.877	17.06
540.076	17.07
540.275	17.14
540.474	17.2
540.673	17.25
540.872	17.19
541.071	17.25
541.27	17.24
541.469	17.24
541.668	17.31
541.867	17.33
542.066	17.35
542.265	17.45
542.464	17.43
542.663	17.4
542.862	17.55
543.06	17.65
543.259	17.73
543.458	17.79
543.657	17.86
543.856	17.87
544.054	17.85
544.253	17.84
544.452	17.86
544.651	17.87
544.849	17.85
545.048	17.92
545.247	17.92
545.445	18.01
545.644	18.07
545.843	18.08
546.041	18.12
546.24	18.19
546.438	18.24
546.637	18.29
546.836	18.47
547.034	18.45
547.233	18.48
547.431	18.43
547.63	18.4
547.828	18.39
548.027	18.49
548.225	18.51
548.423	18.56
548.622	18.62
548.82	18.59
549.019	18.56
549.217	18.64
549.415	18.7
549.614	18.85
549.812	18.91
550.01	18.96
550.209	18.99
550.407	19.07
550.605	19.03
550.803	19.15
551.002	19.31
551.2	19.39
551.398	19.42
551.596	19.47
551.794	19.5
551.993	19.47
552.191	19.51
552.389	19.67
552.587	19.78
552.785	19.81
552.983	19.95
553.181	20.07
553.379	20.15
553.577	20.18
553.775	20.34
553.973	20.33
554.171	20.4
554.369	20.39
554.567	20.55
554.765	20.55
554.963	20.69
555.161	20.63
555.359	20.69
555.557	20.77
555.755	20.89
555.952	21.03
556.15	21.18
556.348	21.32
556.546	21.42
556.744	21.45
556.941	21.4
557.139	21.54
557.337	21.59
557.535	21.64
557.732	21.79
557.93	21.93
558.128	22.01
558.325	22.09
558.523	22.08
558.721	22.16
558.918	22.27
559.116	22.34
559.313	22.42
559.511	22.6
559.708	22.63
559.906	22.73
560.104	22.8
560.301	22.9
560.498	22.98
560.696	23.03
560.893	23.17
561.091	23.29
561.288	23.45
561.486	23.52
561.683	23.71
561.88	23.76
562.078	23.86
562.275	23.9
562.473	24.02
562.67	24.19
562.867	24.3
563.064	24.38
563.262	24.5
563.459	24.56
563.656	24.65
563.853	24.78
564.051	24.91
564.248	25.05
564.445	25.16
564.642	25.24
564.839	25.32
565.036	25.49
565.234	25.68
565.431	25.86
565.628	25.99
565.825	26.13
566.022	26.27
566.219	26.32
566.416	26.44
566.613	26.57
566.81	26.66
567.007	26.7
567.204	26.81
567.401	26.89
567.598	26.94
567.795	27.04
567.991	27.08
568.188	27.08
568.385	27.19
568.582	27.32
568.779	27.42
568.976	27.54
569.172	27.75
569.369	27.73
569.566	27.8
569.763	27.94
569.96	27.99
570.156	28
570.353	28.01
570.55	28.04
570.746	28.04
570.943	28.16
571.14	28.19
571.336	28.36
571.533	28.54
571.729	28.56
571.926	28.62
572.123	28.79
572.319	28.89
572.516	28.78
572.712	28.91
572.909	28.93
573.105	28.97
573.302	29.06
573.498	29.26
573.695	29.25
573.891	29.4
574.087	29.43
574.284	29.36
574.48	29.32
574.677	29.44
574.873	29.46
575.069	29.59
575.266	29.81
575.462	29.85
575.658	29.9
575.854	30.02
576.051	30.01
576.247	29.92
576.443	29.95
576.639	29.96
576.835	29.81
577.032	29.76
577.228	29.81
577.424	29.9
577.62	29.93
577.816	30.08
578.012	30.14
578.208	30.14
578.404	30.14
578.6	30.12
578.796	30.05
578.993	30.1
579.189	30.07
579.384	30.01
579.58	29.96
579.776	29.98
579.972	29.97
580.168	29.98
580.364	30.05
580.56	30.04
580.756	30.06
580.952	30.01
581.148	30.04
581.343	30.09
581.539	30.19
581.735	30.18
581.931	30.18
582.127	30.33
582.322	30.21
582.518	30.2
582.714	30.24
582.909	30.25
583.105	30.07
583.301	30.08
583.496	30.09
583.692	30.03
583.888	30.05
584.083	30.2
584.279	30.32
584.474	30.31
584.67	30.36
584.866	30.24
585.061	30.04
585.257	30.01
585.452	30.04
585.648	30.04
585.843	30.17
586.039	30.22
586.234	30.2
586.429	30.09
586.625	30.1
586.82	30.02
587.015	30.07
587.211	29.98
587.406	30.11
587.601	30.16
587.797	30.21
587.992	30.21
588.187	30.35
588.383	30.3
588.578	30.29
588.773	30.32
588.968	30.24
589.163	30.26
589.359	30.25
589.554	30.14
589.749	30.19
589.944	30.39
590.139	30.45
590.334	30.52
590.529	30.59
590.724	30.66
590.919	30.63
591.114	30.62
591.309	30.75
591.504	30.85
591.699	30.79
591.894	30.92
592.089	31.03
592.284	30.93
592.479	30.99
592.674	31.04
592.869	31.11
593.064	31.1
593.259	31.33
593.454	31.4
593.648	31.59
593.843	31.55
594.038	31.55
594.233	31.46
594.428	31.52
594.622	31.57
594.817	31.72
595.012	31.76
595.206	31.81
595.401	31.88
595.596	31.88
595.79	31.96
595.985	32.15
596.18	32.31
596.374	32.52
596.569	32.64
596.763	32.63
596.958	32.78
597.153	32.89
597.347	32.82
597.542	32.92
597.736	32.98
597.931	32.94
598.125	32.95
598.319	33.12
598.514	33.12
598.708	33.34
598.903	33.49
599.097	33.55
599.291	33.53
599.486	33.5
599.68	33.47
599.874	33.53
600.069	33.56
600.263	33.55
600.457	33.77
600.651	33.86
600.846	33.88
601.04	34.03
601.234	34.11
601.428	34.07
601.622	34.08
601.817	34.15
602.011	34.2
602.205	34.24
602.399	34.33
602.593	34.34
602.787	34.34
602.981	34.21
603.175	34.2
603.369	34.12
603.563	34.15
603.757	34.26
603.951	34.36
604.145	34.44
604.339	34.45
604.533	34.41
604.727	34.35
604.921	34.29
605.115	34.34
605.309	34.47
605.502	34.41
605.696	34.36
605.89	34.41
606.084	34.24
606.278	34.13
606.471	34.14
606.665	34.03
606.859	33.87
607.053	33.83
607.246	33.77
607.44	33.74
607.634	33.7
607.827	33.69
608.021	33.68
608.214	33.59
608.408	33.47
608.602	33.49
608.795	33.5
608.989	33.44
609.182	33.4
609.376	33.46
609.569	33.25
609.763	33.13
609.956	32.98
610.15	32.87
610.343	32.75
610.537	32.7
610.73	32.63
610.923	32.69
611.117	32.65
611.31	32.53
611.504	32.48
611.697	32.4
611.89	32.26
612.083	32.16
612.277	32.26
612.47	32.22
612.663	32.12
612.856	32.11
613.05	32.05
613.243	31.87
613.436	31.77
613.629	31.74
613.822	31.65
614.015	31.61
614.209	31.56
614.402	31.57
614.595	31.54
614.788	31.46
614.981	31.33
615.174	31.1
615.367	31
615.56	30.92
615.753	30.88
615.946	30.84
616.139	31
616.332	31
616.525	30.99
616.718	31.01
616.911	30.97
617.103	30.81
617.296	30.82
617.489	30.76
617.682	30.65
617.875	30.69
618.067	30.7
618.26	30.51
618.453	30.43
618.646	30.39
618.838	30.44
619.031	30.43
619.224	30.46
619.417	30.39
619.609	30.4
619.802	30.28
619.994	30.26
620.187	30.26
620.38	30.3
620.572	30.26
620.765	30.29
620.957	30.15
621.15	30.08
621.342	30
621.535	30.04
621.727	29.89
621.92	29.86
622.112	29.78
622.305	29.82
622.497	29.75
622.69	29.79
622.882	29.83
623.074	29.81
623.267	29.76
623.459	29.6
623.651	29.47
623.844	29.47
624.036	29.47
624.228	29.38
624.42	29.47
624.613	29.61
624.805	29.55
624.997	29.55
625.189	29.63
625.381	29.64
625.574	29.51
625.766	29.42
625.958	29.36
626.15	29.29
626.342	29.32
626.534	29.35
626.726	29.37
626.918	29.4
627.11	29.37
627.302	29.16
627.494	29.08
627.686	29.07
627.878	28.94
628.07	28.94
628.262	28.97
628.454	28.91
628.646	28.92
628.838	28.98
629.029	28.84
629.221	28.86
629.413	28.81
629.605	28.77
629.797	28.72
629.989	28.73
630.18	28.68
630.372	28.65
630.564	28.61
630.755	28.57
630.947	28.63
631.139	28.52
631.33	28.48
631.522	28.47
631.714	28.49
631.905	28.41
632.097	28.46
632.289	28.47
632.48	28.44
632.672	28.36
632.863	28.24
633.055	28.1
633.246	28.07
633.438	27.94
633.629	27.94
633.821	27.91
634.012	27.96
634.203	27.9
634.395	27.93
634.586	27.87
634.777	27.86
634.969	27.94
635.16	28.02
635.351	27.93
635.543	27.92
635.734	27.97
635.925	27.93
636.117	27.97
636.308	27.97
636.499	27.95
636.69	27.89
636.881	27.86
637.073	27.83
637.264	27.92
637.455	27.9
637.646	27.96
637.837	27.98
638.028	27.87
638.219	27.83
638.41	27.81
638.601	27.73
638.792	27.7
638.983	27.68
639.174	27.54
639.365	27.5
639.556	27.44
639.747	27.38
639.938	27.39
640.129	27.34
640.32	27.36
640.511	27.43
640.701	27.47
640.892	27.39
641.083	27.52
641.274	27.57
641.465	27.55
641.655	27.37
641.846	27.41
642.037	27.39
642.228	27.25
642.418	27.17
642.609	27.24
642.8	27.26
642.99	27.23
643.181	27.28
643.372	27.33
643.562	27.25
643.753	27.11
643.943	27.04
644.134	26.91
644.324	26.89
644.515	26.87
644.705	26.97
644.896	26.93
645.086	26.89
645.277	26.74
645.467	26.72
645.658	26.7
645.848	26.7
646.038	26.81
646.229	26.83
646.419	26.77
646.61	26.61
646.8	26.61
646.99	26.48
647.18	26.47
647.371	26.42
647.561	26.43
647.751	26.43
647.941	26.45
648.132	26.51
648.322	26.52
648.512	26.48
648.702	26.42
648.892	26.4
649.082	26.23
649.272	26.13
649.462	26.08
649.653	25.92
649.843	25.81
650.033	25.87
650.223	25.91
650.413	25.85
650.603	25.88
650.793	25.99
650.983	25.92
651.172	25.74
651.362	25.68
651.552	25.56
651.742	25.36
651.932	25.33
652.122	25.38
652.312	25.38
652.502	25.26
652.691	25.2
652.881	25.07
653.071	24.99
653.261	24.78
653.45	24.66
653.64	24.55
653.83	24.36
654.019	24.21
654.209	24.19
654.399	24.11
654.588	24
654.778	23.98
654.968	23.81
655.157	23.72
655.347	23.67
655.536	23.52
655.726	23.38
655.915	23.28
656.105	22.99
656.294	22.82
656.484	22.67
656.673	22.46
656.863	22.41
657.052	22.32
657.241	22.04
657.431	21.8
657.62	21.72
657.809	21.42
657.999	21.26
658.188	21.16
658.377	21.07
658.567	20.83
658.756	20.73
658.945	20.55
659.134	20.31
659.324	20.15
659.513	19.98
659.702	19.76
659.891	19.62
660.08	19.49
660.269	19.34
660.458	19.17
660.648	19.05
660.837	18.76
661.026	18.65
661.215	18.46
661.404	18.21
661.593	17.96
661.782	17.84
661.971	17.68
662.16	17.52
662.349	17.4
662.538	17.34
662.726	17.27
662.915	17.14
663.104	17.05
663.293	16.97
663.482	16.81
663.671	16.59
663.86	16.39
664.048	16.21
664.237	16.13
664.426	15.94
664.615	15.92
664.803	15.84
664.992	15.7
665.181	15.55
665.369	15.47
665.558	15.42
665.747	15.33
665.935	15.41
666.124	15.37
666.312	15.33
666.501	15.18
666.69	15.03
666.878	14.79
667.067	14.7
667.255	14.78
667.444	14.95
667.632	15.08
667.82	15.12
668.009	15.08
668.197	14.93
668.386	14.67
668.574	14.62
668.762	14.47
668.951	14.33
669.139	14.26
669.327	14.25
669.516	14.16
669.704	14.14
669.892	14.26
670.08	14.28
670.269	14.09
670.457	13.98
670.645	13.87
670.833	13.84
671.021	13.83
671.21	13.95
671.398	14.1
671.586	14.14
671.774	14.07
671.962	14.07
672.15	14.12
672.338	13.97
672.526	14.08
672.714	13.97
672.902	13.97
673.09	14.08
673.278	14.27
673.466	14.29
673.654	14.52
673.842	14.57
674.03	14.57
674.218	14.41
674.405	14.44
674.593	14.25
674.781	14.34
674.969	14.36
675.157	14.46
675.344	14.62
675.532	14.74
675.72	14.74
675.908	14.77
676.095	14.88
676.283	14.86
676.471	15.06
676.658	15.04
676.846	15.05
677.033	15.08
677.221	15.03
677.409	14.94
677.596	15.1
677.784	15.2
677.971	15.27
678.159	15.39
678.346	15.46
678.534	15.57
678.721	15.88
678.909	15.86
679.096	16.01
679.283	16.2
679.471	16.18
679.658	16.09
679.846	16.38
680.033	16.55
680.22	16.79
680.408	16.85
680.595	17.06
680.782	17.02
680.969	17.07
681.157	17.08
681.344	17.34
681.531	17.36
681.718	17.46
681.905	17.81
682.093	18.02
682.28	18.26
682.467	18.54
682.654	18.83
682.841	18.84
683.028	19.09
683.215	19.24
683.402	19.28
683.589	19.45
683.776	19.72
683.963	19.78
684.15	19.97
684.337	20.27
684.524	20.54
684.711	20.91
684.898	21.09
685.085	21.5
685.271	21.83
685.458	22.12
685.645	22.23
685.832	22.67
686.019	22.97
686.205	23.34
686.392	23.73
686.579	24.19
686.766	24.58
686.952	24.92
687.139	25.47
687.326	26
687.512	26.34
687.699	26.78
687.886	27.22
688.072	27.37
688.259	27.6
688.445	28.28
688.632	28.54
688.818	29.12
689.005	29.89
689.191	30.34
689.378	30.88
689.564	31.62
689.751	32.3
689.937	32.65
690.124	33.4
690.31	33.67
690.496	34.11
690.683	34.59
690.869	35.07
691.055	35.63
691.242	36.46
691.428	37.28
691.614	37.79
691.8	38.78
691.987	39.44
692.173	40.06
692.359	40.64
692.545	41.41
692.731	41.83
692.918	42.5
693.104	43.05
693.29	43.8
693.476	44.45
693.662	45.16
693.848	45.8
694.034	46.5
694.22	47.14
694.406	47.82
694.592	48.39
694.778	48.94
694.964	49.65
695.15	50.16
695.336	50.74
695.522	51.86
695.708	52.78
695.894	53.39
696.08	54.28
696.265	54.99
696.451	55.2
696.637	55.83
696.823	56.42
697.009	56.79
697.194	57.46
697.38	58.02
697.566	58.29
697.751	58.93
697.937	59.98
698.123	60.33
698.308	61.27
698.494	61.97
698.68	62.4
698.865	62.53
699.051	63.22
699.236	63.16
699.422	63.62
699.607	63.91
699.793	64.34
699.978	64.69
700.164	65.31
700.349	65.78
700.535	66.4
700.72	66.94
700.906	67.56
701.091	68.03
701.276	68.48
701.462	69.13
701.647	69.66
701.832	69.8
702.018	70.34
702.203	70.75
702.388	70.66
702.573	71
702.759	71.75
702.944	72
703.129	71.98
703.314	72.41
703.499	72.6
703.684	72.46
703.87	73.28
704.055	74.09
704.24	74.43
704.425	74.98
704.61	75.8
704.795	75.66
704.98	75.75
705.165	76.04
705.35	75.98
705.535	75.95
705.72	76.15
705.905	76.59
706.09	77.38
706.275	77.65
706.459	77.84
706.644	78.11
706.829	78.22
707.014	78.11
707.199	78.58
707.384	79.06
707.568	79.75
707.753	80.5
707.938	80.93
708.123	80.74
708.307	80.48
708.492	80.21
708.677	79.99
708.861	80.06
709.046	80.34
709.231	81.3
709.415	81.88
709.6	81.9
709.784	81.88
709.969	82.15
710.153	81.73
710.338	81.48
710.522	81.6
710.707	82.16
710.891	82.38
711.076	82.76
711.26	82.78
711.445	83.02
711.629	82.89
711.813	83.1
711.998	83.22
712.182	83.31
712.366	84.06
712.551	84.51
712.735	84.69
712.919	84.56
713.103	84.62
713.288	83.95
713.472	83.76
713.656	83.86
713.84	84.42
714.024	85.19
714.208	85.55
714.393	86.05
714.577	86.31
714.761	85.94
714.945	85.62
715.129	85.76
715.313	85.45
715.497	85.32
715.681	86.2
715.865	86.51
716.049	86.56
716.233	86.47
716.417	86.83
716.601	86.35
716.785	85.94
716.968	86.19
717.152	86.49
717.336	86.5
717.52	86.36
717.704	86.69
717.888	86.63
718.071	86.74
718.255	86.54
718.439	86.46
718.622	86.86
718.806	86.7
718.99	86.62
719.174	86.68
719.357	87.56
719.541	87.4
719.724	87.82
719.908	88.61
720.092	89.16
720.275	89.1
720.459	89.01
720.642	88.44
720.826	87.64
721.009	86.95
721.193	86.61
721.376	86.96
721.559	87.67
721.743	87.88
721.926	88.29
722.11	88.63
722.293	88.41
722.476	88.3
722.66	88.43
722.843	88.74
723.026	88.02
723.21	88.19
723.393	88.71
723.576	88.69
723.759	88.42
723.942	89.01
724.126	88.65
724.309	88.37
724.492	88.38
724.675	88.3
724.858	88.74
725.041	89.46
725.224	89.69
725.407	89.87
725.59	90.59
725.774	90.28
725.957	89.66
726.14	88.99
726.322	88.53
726.505	87.82
726.688	88.31
726.871	88.84
727.054	89.41
727.237	89.62
727.42	90.34
727.603	89.96
727.786	90.01
727.968	89.74
728.151	89.78
728.334	89.32
728.517	89.68
728.699	89.92
728.882	90.07
729.065	90.8
729.248	90.99
729.43	91.23
729.613	91.36
729.796	92.22
729.978	91.33
730.161	91.19
730.343	90.32
730.526	90.66
730.708	89.93
730.891	90.72
731.073	90.61
731.256	90.67
731.438	90.39
731.621	90.51
731.803	90.06
731.986	90.62
732.168	90.28
732.35	89.99
732.533	90.03
732.715	90.1
732.898	90
733.08	90.51
733.262	91.08
733.444	90.75
733.627	90.97
733.809	91.45
733.991	91.88
734.173	91.04
734.355	91.48
734.538	91.75
734.72	91.25
734.902	90.68
735.084	91.46
735.266	91.15
735.448	91.58
735.63	91.49
735.812	92.06
735.994	92.39
736.176	92.62
736.358	92
736.54	93.05
736.722	92.67
736.904	91.85
737.086	92.2
737.268	93.8
737.45	93.2
737.632	93.34
737.814	93.31
737.995	93.46
738.177	92.12
738.359	91.96
738.541	92.07
738.723	92.5
738.904	93
739.086	92.79
739.268	92.24
739.449	92.66
739.631	92.11
739.813	92.22
739.994	93.55
740.176	94.39
740.358	93.9
740.539	94.46
740.721	93.66
740.902	93.39
741.084	92.88
741.265	92.74
741.447	92.44
741.628	92.93
741.81	92.53
741.991	92.62
742.172	93.64
742.354	94.94
742.535	94.73
742.717	94.68
742.898	95.53
743.079	96.08
743.261	95.15
743.442	94.28
743.623	94.79
743.804	94.2
743.986	92.81
744.167	91.16
744.348	90.84
744.529	89.93
744.71	89.41
744.891	89.75
745.073	90.71
745.254	90.83
745.435	91.18
745.616	91.07
745.797	91.69
745.978	91.4
746.159	92.49
746.34	91.35
746.521	93.08
746.702	91.32
746.883	91.71
747.064	91.37
747.245	92
747.426	90.96
747.606	91.79
747.787	92.55
747.968	92.73
748.149	92.93
748.33	93.28
748.51	93.78
748.691	92.91
748.872	91.52
749.053	90.58
749.233	89.57
749.414	88.75
749.595	87.86
749.775	88.83
749.956	88.89
750.137	89.75
750.317	90.53
750.498	93.21
750.678	93.62
750.859	95.36
751.04	94.8
751.22	94.13
751.4	92.08
751.581	91.44
751.761	90.96
751.942	91.08
752.122	90.99
752.303	90.75
752.483	90.51
752.663	90.08
752.844	89
753.024	90.17
753.204	90.82
753.385	90.53
753.565	90.23
753.745	90.9
753.925	89.56
754.106	89.62
754.286	90.35
754.466	90.98
754.646	91.56
754.826	90.81
755.006	89.78
755.187	90.08
755.367	89.08
755.547	89.03
755.727	91.26
755.907	91.88
756.087	91.55
756.267	91.28
756.447	90.79
756.627	88.86
756.807	89.76
756.987	89.62
757.167	90.19
757.346	90.47
757.526	90.2
757.706	90.54
757.886	91.98
758.066	92.42
758.246	92.84
758.425	92.85
758.605	91.66
758.785	91.15
758.965	91.8
759.144	90.55
759.324	92.07
759.504	92.98
759.683	92.81
759.863	90.96
760.043	91.3
760.222	90.6
760.402	89.48
760.581	88.44
760.761	90.03
760.94	88.9
761.12	90.21
761.299	90.84
761.479	90.64
761.658	88.97
761.838	89.36
762.017	87.91
762.197	88.5
762.376	88.83
762.555	88.76
762.735	89.66
762.914	88.82
763.093	87.77
763.273	87.11
763.452	87.99
763.631	87.89
763.81	87.56
763.99	86.87
764.169	87.62
764.348	86.13
764.527	85.33
764.706	87.34
764.885	88.57
765.064	86.34
765.243	87.21
765.423	87.57
765.602	85.98
765.781	85.1
765.96	85.09
766.139	84.96
766.318	85.97
766.497	86.11
766.676	86.95
766.854	90.42
767.033	91.45
767.212	90.44
767.391	91.28
767.57	92.64
767.749	91.17
767.928	90.53
768.106	90.45
768.285	89.14
768.464	86.35
768.643	85.54
768.821	85.34
769	86.49
769.179	85.88
769.357	85.95
769.536	86.3
769.715	85.69
769.893	86.11
770.072	87.27
770.25	89.27
770.429	87.7
770.607	87.24
770.786	84.52
770.964	83.45
771.143	81.48
771.321	84.26
771.5	86.18
771.678	86.91
771.857	86.24
772.035	87.24
772.213	86.04
772.392	83.9
772.57	85.76
772.748	88.18
772.927	86.8
773.105	86.6
773.283	87.49
773.461	85.78
773.64	84.62
773.818	85.48
773.996	85.46
774.174	85.04
774.352	84.41
774.531	81.8
774.709	83.28
774.887	81.88
775.065	81.63
775.243	83.05
775.421	85.77
775.599	86.31
775.777	84.95
775.955	84.03
776.133	82.38
776.311	82.45
776.489	78.4
776.667	81.14
776.844	82.05
777.022	81.7
777.2	81.33
777.378	82.39
777.556	81.98
777.734	84.92
777.911	86.77
778.089	86.72
778.267	88.48
778.445	86.36
778.622	82.72
778.8	81.74
778.978	82.57
779.155	79.4
779.333	81.86
779.511	83
779.688	85.4
779.866	81.47
780.043	82.04
780.221	79.44
780.398	77.37
780.576	77.66
780.753	81.62
780.931	82.17
781.108	83.07
781.286	87.5
781.463	85.4
781.64	79.9
781.818	80.99
781.995	81.31
782.172	79
782.35	78.55
782.527	83.84
782.704	81.81
782.882	82.6
783.059	80.02
783.236	83.36
783.413	81.8
783.59	83.85
783.768	80
783.945	82.93
784.122	78.58
784.299	79.17
784.476	77.46
784.653	76.57
784.83	74.97
785.007	73.01
785.184	72.6
785.361	72.38
785.538	79.17
785.715	80.69
785.892	82.03
786.069	82.78
786.246	83.61
786.423	80.89
786.6	80.5
786.776	82.95
786.953	81.69
787.13	83.67
787.307	82.25
787.484	80.46
787.66	78.19
787.837	80.33
788.014	76.51
788.191	75.05
788.367	74.22
788.544	77.33
788.721	75.1
788.897	78.31
789.074	77.56
789.25	75.18
789.427	72.88
789.603	73.52
789.78	73.83
789.956	77.35
790.133	80.2
790.309	82.05
790.486	81.65
790.662	79.15
790.839	77.16
791.015	78.47
791.192	74.8
791.368	77.47
791.544	75.7
791.721	76.97
791.897	77.86
792.073	77.89
792.249	72.42
792.426	77.96
792.602	80.98
792.778	80.41
792.954	83.16
793.13	86.43
793.307	79.19
793.483	70.56
793.659	67.56
793.835	68.49
794.011	64.34
794.187	65.74
794.363	69.57
794.539	74.61
794.715	65.31
794.891	67.05
795.067	66.91
795.243	72.77
795.419	68.74
795.595	73.68
795.771	72.21
795.947	72.08
796.122	67.1
796.298	70.56
796.474	71.86
796.65	72.72
796.826	72.29
797.001	72.91
797.177	71.92
797.353	74.88
797.529	78.82
797.704	80.87
797.88	79.94
798.056	75.78
798.231	72.87
798.407	70.73
798.582	70.21
798.758	75.71
798.934	82.4
799.109	79.9
799.285	78.13
799.46	78.87
799.636	73.3
799.811	73.42
799.986	76.73
800.162	80.71
800.337	80.98
800.513	76.78
800.688	74.46
800.863	79.08
801.039	70.76
801.214	66.38
801.389	78.22
801.565	76.6
801.74	64.93
801.915	72.17
802.09	76.85
802.265	68.18
802.441	60.53
802.616	65.52
802.791	64.37
802.966	66
803.141	71.38
803.316	78.26
803.491	79.62
803.666	86.28
803.841	86.25
804.016	80.96
804.191	81.81
804.366	80.92
804.541	71.52
804.716	68.87
804.891	64.72
805.066	60.96
805.241	59.58
805.416	62.13
805.591	62.77
805.765	71.92
805.94	76.65
806.115	77.82
806.29	71.04
806.464	72.52
806.639	66.13
806.814	66.53
806.989	59.55
807.163	67.91
807.338	70.14
807.512	76.21
807.687	65.34
807.862	74.58
808.036	79.41
808.211	75
808.385	73.58
808.56	84.51
808.734	89.44
808.909	79.85
809.083	77.57
809.258	81.61
809.432	75.75
809.606	60.01
809.781	64.34
809.955	71.1
810.13	67.69
810.304	65.11
810.478	63.91
810.652	57.04
810.827	57.76
811.001	58.67
811.175	56.08
811.349	54.86
811.524	54.8
811.698	44.91
811.872	44.19
812.046	52.99
812.22	64.56
812.394	60.36
812.568	67.65
812.742	66.32
812.916	67.61
813.09	65.46
813.264	72.48
813.438	73.16
813.612	70.88
813.786	63.51
813.96	67.2
814.134	68.98
814.308	78.7
814.482	82.25
814.656	80.94
814.83	73.9
815.003	83.92
815.177	70.77
815.351	64.63
815.525	63.6
815.698	62.92
815.872	46.18
816.046	41.64
816.219	50.96
816.393	63.82
816.567	66.61
816.74	79.66
816.914	78.1
817.088	75.31
817.261	67.44
817.435	63.15
817.608	54.85
817.782	54.04
817.955	52.21
818.129	45.2
818.302	58.58
818.475	61.82
818.649	65.5
818.822	56.91
818.996	80.23
819.169	83.99
819.342	75.33
819.516	77.45
819.689	85.64
819.862	71.1
820.035	65.55
820.209	61.47
820.382	58.6
820.555	62.13
820.728	46.53
820.901	37.01
821.075	42.81
821.248	48.53
821.421	37.83
821.594	46.11
821.767	61.5
821.94	68.29
822.113	49.84
822.286	49.8
822.459	53.66
822.632	46.46
822.805	41.76
822.978	48.48
823.151	47.38
823.324	36.95
823.496	10.18
823.669	7.22
823.842	9.96
824.015	3.48
824.188	17.77
824.361	46.04
824.533	47.67
824.706	46.98
824.879	44.4
825.051	44.59
825.224	35.51
825.397	32.37
825.569	31
825.742	37.63
825.915	64.86
826.087	84.79
826.26	62.01
826.432	64.59
826.605	79.43
826.777	55.53
826.95	42
827.122	37.45
827.295	42.64
827.467	32.62
827.64	15.28
827.812	30.6
827.984	36.44
828.157	20.23
828.329	2.31
828.501	11.49
828.674	23.89
828.846	31.04
829.018	58.58
829.19	51.08
829.363	70.19
829.535	71.12
829.707	67.14
829.879	26.08
830.051	28.66
830.223	17.79
830.395	-11.56
830.568	-21.61
830.74	-5.22
830.912	14.33
831.084	-3.9
831.256	4.45
831.428	7.65
831.6	4.41
831.772	-13.98
831.943	-16.46
832.115	9.87
832.287	35.75
832.459	42.89
832.631	52.36
832.803	72.27
832.975	76.64
833.146	61.38
833.318	70.23
833.49	69.79
833.662	52.85
833.833	28.84
834.005	26.98
834.177	13.82
834.348	4.36
834.52	-9.03
834.692	-9.83
834.863	-27.07
835.035	-6.59
835.206	-53.69
835.378	-17.66
835.549	-10.16
835.721	-1.99
835.892	-20.4
836.064	9.81
836.235	-3.36
836.407	15.67
836.578	-2.05
836.749	45.43
836.921	-7
837.092	-17.64
837.264	-27.71
837.435	-31.34
837.606	-7.03
837.777	19.64
837.949	40.04
838.12	41.97
838.291	47.77
838.462	33.16
838.633	23.71
838.805	25.46
838.976	33.24
839.147	34.3
839.318	13.87
839.489	-35.49
839.66	-30.28
839.831	-10.82
840.002	-14.95
840.173	-29.32
840.344	45.57
840.515	2.81
840.686	-98.37
840.857	-99.9
841.028	-92.69
841.199	-77.19
841.369	-33.74
841.54	-10.18
841.711	24.51
841.882	63.41
842.053	53.06
842.223	27.26
842.394	36.42
842.565	30.12
842.736	31.51
842.906	39.46
843.077	47.06
843.248	62.33
843.418	74.37
843.589	41.85
843.759	52.83
843.93	-0.79
844.101	-6.68
844.271	2.4
844.442	30
844.612	35.02
844.783	36.4
844.953	37.73
845.123	33.7
845.294	-10.48
845.464	-127.61
845.635	-58.7
845.805	-10.12
845.975	6.2
846.146	-11.24
846.316	-12.32
846.486	18.94
846.656	41.14
846.827	34.86
846.997	31.71
847.167	46.96
847.337	14.67
847.507	-35.6
847.677	-34.71
847.848	19.54
848.018	25.86
848.188	32.24
848.358	23.73
848.528	13.74
848.698	-2.1
848.868	-80.07
849.038	-161.03
849.208	-40.88
849.378	46.79
849.548	34.11
849.718	57.02
849.887	83.21
850.057	71.08
850.227	31.54
850.397	14.03
850.567	-10.31
850.737	-94.57
850.906	-586.88
851.076	-537.89
851.246	-223.82
851.415	-20.45
851.585	-19.34
851.755	-30.71
851.924	5.58
852.094	-20.5
852.264	-87.94
852.433	-895.67
852.603	-119.93
852.772	-118.26
852.942	-49.85
853.111	-22.02
853.281	15.28
853.45	23.12
853.62	5.92
853.789	31.02
853.959	66.13
854.128	66.69
854.297	7.12
854.467	-17.34
854.636	-14.59
854.805	-8.21
854.975	-48.31
855.144	-85.89
855.313	-103.85
855.482	-467.52
855.652	-237.15
855.821	-140.84
855.99	-10.98
856.159	18.14
856.328	45.38
856.497	33.67
856.667	25.5
856.836	22.54
857.005	-6.53
857.174	-59.69
857.343	-63.91
857.512	-27.48
857.681	-26.42
857.85	-77.65
858.019	-10.39
858.188	-20.33
858.356	-45.23
858.525	-104.54
858.694	-62.3
858.863	-139.98
859.032	-86.94
859.201	-79.52
859.369	23.34
859.538	-32.87
859.707	-51.46
859.876	-98.26
860.044	-151.11
860.213	-54.13
860.382	-39.06
860.55	-25.99
860.719	17.1
860.888	50.36
861.056	47.6
861.225	21.86
861.393	46.47
861.562	38.6
861.73	-55.37
861.899	-181.41
862.067	-1050
862.236	-28.79
862.404	-133.57
862.572	-43.5
862.741	0.9
862.909	-9.12
863.078	-109.67
863.246	-69.97
863.414	-58.42
863.582	-43.73
863.751	-36.84
863.919	-63.02
864.087	-31.73
864.255	-20.44
864.424	-292.23
864.592	-47.17
864.76	-16.7
864.928	-30
865.096	-114.17
865.264	-91.78
865.432	-1414.77
865.6	-155.25
865.768	-99.91
865.936	-121.31
866.104	-103.23
866.272	-195.47
866.44	-350.2
866.608	566.58
866.776	270.16
866.944	2229.07
867.112	-364.19
867.28	-148.43
867.448	-68.53
867.615	5.69
867.783	13.83
867.951	9.58
868.119	38.49
868.286	64.68
868.454	-9.28
868.622	-68.38
868.789	18.61
868.957	-32.14
869.125	-1851.32
869.292	-117.57
869.46	-133.59
869.627	-29.26
869.795	-29.21
869.963	13.41
870.13	15.66
870.298	35.29
870.465	-34.7
870.632	-43.24
870.8	-28.87
870.967	-78.59
871.135	-138.2
871.302	-111.27
871.469	-152.99
871.637	-209.79
871.804	-64.45
871.971	-93.97
872.139	-264.42
872.306	22.94
872.473	6.87
872.64	-121.67
872.807	-37.5
872.975	11.2
873.142	-258
873.309	2712.16
873.476	-42.82
873.643	11.56
873.81	36.06
873.977	86.31
874.144	89.23
874.311	13.06
874.478	-27.2
874.645	-64.1
874.812	-28.11
874.979	-22.66
875.146	-19.2
875.313	-66.42
875.48	-15.66
875.647	-19.73
875.813	-50.7
875.98	-41.64
876.147	-47.76
876.314	-99.48
876.481	983.06
876.647	-1181.46
876.814	425.13
876.981	-40.96
877.147	-29.17
877.314	38.72
877.481	61.05
877.647	42.35
877.814	10.05
877.98	-26.69
878.147	-45.88
878.314	-4.66
878.48	-45.42
878.647	3.88
878.813	53.36
878.979	75.15
879.146	39.11
879.312	53.07
879.479	11.21
879.645	-106.91
879.811	-258.83
879.978	-511.83
880.144	-158.01
880.31	-80.73
880.477	-193.77
880.643	-237.15
880.809	-141.75
880.975	-85.42
881.142	-593.18
881.308	-109.86
881.474	-51.53
881.64	-31.75
881.806	-88.05
881.972	-17.3
882.138	-16.21
882.304	-81.7
882.47	-199.34
882.636	-817.62
882.802	-241.24
882.968	-10.02
883.134	1.97
883.3	15.67
883.466	41.72
883.632	51.39
883.798	18.01
883.964	24.22
884.129	33.69
884.295	47.17
884.461	-9.22
884.627	-26.93
884.793	-22.38
884.958	-0.51
885.124	-39.59
885.29	-88.83
885.455	-120.15
885.621	-75.35
885.787	-117.61
885.952	-81.8
886.118	-71.23
886.283	-72.19
886.449	-129.92
886.614	-168.48
886.78	-351.35
886.945	1389.34
887.111	-614.74
887.276	-503.69
887.442	-778.64
887.607	-361.56
887.773	-214.49
887.938	-119.45
888.103	-140.71
888.269	14.91
888.434	10.54
888.599	-7.46
888.764	-12.6
888.93	5.56
889.095	-42.6
889.26	-51.44
889.425	-57.59
889.59	19.43
889.756	-13.66
889.921	4.99
890.086	59.21
890.251	88.13
890.416	-47.71
890.581	-602.42
890.746	80.89
890.911	214.97
891.076	120.96
891.241	-175.75
891.406	46.47
891.571	30.92
891.736	-76.38
891.901	-187.17
892.065	-90.66
892.23	20.32
892.395	78.38
892.56	205.92
892.725	-270.7
892.889	-1101.22
893.054	-245.58
893.219	-82.42
893.384	1.02
893.548	-12.72
893.713	-40.31
893.878	4.91
