Data from Ofra_2a_PS_2H59_Reflection_2.txt Node
Date: Tue Jul 20 09:48:29 EDT 2021
User: Adam
Spectrometer: FLMT01687
Trigger mode: 0
Integration Time (sec): 9.450000E-1
Scans to average: 3
Electric dark correction enabled: true
Nonlinearity correction enabled: false
Boxcar width: 3
XAxis mode: Wavelengths
Number of Pixels in Spectrum: 3648
>>>>>Begin Spectral Data<<<<<
179.494	1073.96
179.716	621.13
179.937	662.64
180.158	2545.31
180.38	-1350
180.601	-181.78
180.823	-22.19
181.044	95.62
181.265	14.35
181.486	49.07
181.708	-182.61
181.929	61.4
182.15	218.18
182.372	48.74
182.593	153.08
182.814	12.57
183.035	107.85
183.257	142.48
183.478	87.61
183.699	81.43
183.92	73.95
184.141	86.43
184.363	76.21
184.584	54.48
184.805	33.97
185.026	38.61
185.247	24.24
185.468	12.33
185.689	6.16
185.91	13.71
186.132	24.95
186.353	19.3
186.574	16.25
186.795	1.31
187.016	17.96
187.237	20.59
187.458	7.16
187.679	13.37
187.9	8.73
188.121	26.36
188.342	48.52
188.563	35
188.784	36.89
189.005	53.61
189.226	41.98
189.447	46.86
189.667	43.02
189.888	43.41
190.109	42.08
190.33	37.06
190.551	31.57
190.772	25.24
190.993	38.28
191.214	32.09
191.434	37
191.655	43.33
191.876	51.18
192.097	42.89
192.318	46.01
192.538	35.58
192.759	44.21
192.98	32.98
193.201	38.93
193.421	42.56
193.642	41.62
193.863	52.01
194.083	51.9
194.304	38.74
194.525	42.26
194.745	23.6
194.966	28.86
195.187	38.9
195.407	29.13
195.628	33.34
195.848	29.45
196.069	37.52
196.29	37.88
196.51	21.52
196.731	30.91
196.951	29.97
197.172	39.65
197.392	41.29
197.613	28.63
197.833	31.15
198.054	27.82
198.274	13.97
198.495	27.63
198.715	12.54
198.936	8.87
199.156	21.2
199.377	28.42
199.597	27.55
199.817	36.05
200.038	23.63
200.258	24.48
200.479	33.26
200.699	38.88
200.919	27.63
201.14	30.43
201.36	31.69
201.58	38.05
201.801	32.12
202.021	26.63
202.241	21.91
202.461	31.45
202.682	42.73
202.902	47.42
203.122	39.55
203.342	49.63
203.563	55.99
203.783	52.8
204.003	50.55
204.223	46.04
204.443	41.71
204.663	45.93
204.884	37.2
205.104	35.33
205.324	42.49
205.544	46.2
205.764	39.24
205.984	29.54
206.204	30.74
206.424	37.14
206.644	34.39
206.864	21.61
207.084	38.07
207.304	40.93
207.525	42.44
207.745	47.24
207.964	56.62
208.184	39.83
208.404	55.01
208.624	39.48
208.844	22.2
209.064	25.51
209.284	29.51
209.504	18.49
209.724	13.68
209.944	9.88
210.164	11.36
210.384	35.38
210.604	27.82
210.823	10.93
211.043	21.33
211.263	32.74
211.483	30.88
211.703	46.91
211.922	42.36
212.142	53.42
212.362	56.1
212.582	56.24
212.801	49.31
213.021	48.11
213.241	32.07
213.461	28.03
213.68	23.53
213.9	35.61
214.12	31.26
214.339	40.8
214.559	54.47
214.779	53.99
214.998	51.27
215.218	47.34
215.438	47.82
215.657	47
215.877	50.23
216.096	39.59
216.316	42.04
216.535	47.08
216.755	44.64
216.974	37.84
217.194	42.93
217.413	55.23
217.633	50.65
217.852	45.15
218.072	56.47
218.291	71.98
218.511	63.23
218.73	64.43
218.95	46.94
219.169	54.01
219.389	44.08
219.608	46.03
219.827	26.58
220.047	43.8
220.266	37.65
220.485	51.5
220.705	39.81
220.924	55.86
221.143	35.92
221.363	34.39
221.582	29.25
221.801	33.31
222.021	20.66
222.24	27.76
222.459	14.66
222.678	21.11
222.897	16.05
223.117	15.2
223.336	22.04
223.555	24.23
223.774	45.09
223.993	52.2
224.213	36.41
224.432	48.79
224.651	48.7
224.87	32.89
225.089	36.75
225.308	25.81
225.527	20.58
225.746	34.92
225.965	27.34
226.184	28.95
226.404	33.86
226.623	43.34
226.842	37.98
227.061	48.39
227.28	66.57
227.499	61.97
227.718	52.1
227.936	42.03
228.155	35.15
228.374	33.32
228.593	25.94
228.812	15.61
229.031	8.56
229.25	24.96
229.469	42.67
229.688	44.17
229.907	47.7
230.125	47.31
230.344	51.86
230.563	61.21
230.782	45.81
231.001	37.12
231.22	29.28
231.438	31.56
231.657	34.22
231.876	32.31
232.095	19.83
232.313	33.88
232.532	37.71
232.751	43.89
232.969	44.5
233.188	42.38
233.407	41.78
233.625	35.23
233.844	38.31
234.063	33.47
234.281	31.36
234.5	32.76
234.719	26.21
234.937	25.37
235.156	30.51
235.374	19.54
235.593	27.33
235.811	26.76
236.03	13.43
236.249	32.11
236.467	29.51
236.686	41.7
236.904	41.6
237.123	39.35
237.341	34.27
237.559	34.42
237.778	35.41
237.996	42.72
238.215	29.27
238.433	38.83
238.652	38.1
238.87	39.74
239.088	39.19
239.307	36.46
239.525	27.74
239.743	29.23
239.962	19.7
240.18	22.94
240.398	25.05
240.617	27.77
240.835	22.09
241.053	27.98
241.271	37.32
241.49	25.97
241.708	22.82
241.926	17.06
242.144	9
242.363	7.68
242.581	4.45
242.799	-10.76
243.017	6.33
243.235	3.57
243.453	18.69
243.672	25.03
243.89	27.17
244.108	45.28
244.326	47.19
244.544	51.63
244.762	48.7
244.98	43.29
245.198	37.75
245.416	46.78
245.634	38.36
245.852	50.34
246.07	47.64
246.288	48.73
246.506	52.19
246.724	67.69
246.942	57.32
247.16	52.49
247.378	34.83
247.596	36.28
247.814	27.55
248.032	32.47
248.25	24.19
248.468	33.05
248.685	28.51
248.903	35.67
249.121	37.11
249.339	41.53
249.557	29.01
249.775	19.3
249.992	9.34
250.21	5.48
250.428	1.2
250.646	2.5
250.863	11.96
251.081	14.35
251.299	31.83
251.517	30.36
251.734	40.11
251.952	52.82
252.17	33.87
252.387	24.69
252.605	29.47
252.823	11.48
253.04	16.95
253.258	13.36
253.475	17.09
253.693	38.16
253.911	43.25
254.128	38.89
254.346	43.81
254.563	43.72
254.781	45.26
254.998	37.2
255.216	30.66
255.433	29.58
255.651	21.89
255.868	23.54
256.086	29.86
256.303	24.36
256.521	20.75
256.738	20.01
256.956	8.4
257.173	19.7
257.39	24.1
257.608	21.1
257.825	23.26
258.043	35.08
258.26	36.55
258.477	45.62
258.695	41.83
258.912	43.2
259.129	38.69
259.346	40.55
259.564	31.96
259.781	39.21
259.998	42.5
260.216	49.29
260.433	40.28
260.65	46.17
260.867	37.21
261.084	42.52
261.302	26.26
261.519	7.33
261.736	1.57
261.953	8.48
262.17	12.14
262.387	27.29
262.604	19.58
262.822	38.4
263.039	43.22
263.256	40.31
263.473	32.9
263.69	29.2
263.907	18.01
264.124	14.64
264.341	-2.63
264.558	7.33
264.775	4.96
264.992	10.31
265.209	20.58
265.426	20.99
265.643	27.4
265.86	33.26
266.077	36.02
266.294	38.29
266.51	42.53
266.727	29.76
266.944	28.72
267.161	14.76
267.378	18
267.595	-1.6
267.812	-13.91
268.028	-12.07
268.245	-0.47
268.462	8.01
268.679	13.38
268.896	11.75
269.112	26.88
269.329	39.49
269.546	34.63
269.763	40.97
269.979	32.5
270.196	34.76
270.413	31.07
270.629	24
270.846	24.41
271.063	21.17
271.279	12.59
271.496	5.79
271.712	4.96
271.929	18.03
272.146	21.88
272.362	13.72
272.579	15.53
272.795	22.73
273.012	26.34
273.228	25.49
273.445	19.47
273.661	6.93
273.878	11.46
274.094	16.41
274.311	11.2
274.527	16.16
274.744	16.98
274.96	11.24
275.177	27.99
275.393	25.95
275.609	22.71
275.826	27.05
276.042	36.57
276.259	37.11
276.475	37.66
276.691	30.5
276.908	30.01
277.124	30.54
277.34	31.48
277.557	19.18
277.773	16.05
277.989	25.3
278.205	19.65
278.422	23
278.638	32.09
278.854	32.56
279.07	28.64
279.286	28.1
279.503	21.73
279.719	36.39
279.935	31.97
280.151	25.71
280.367	22.45
280.583	32.82
280.799	42.13
281.016	49.03
281.232	47.35
281.448	41.59
281.664	44.44
281.88	48.9
282.096	51.82
282.312	34.59
282.528	15.55
282.744	13.02
282.96	26.67
283.176	21.32
283.392	29.78
283.608	24.39
283.824	35.26
284.04	34.79
284.256	32.66
284.471	33.84
284.687	34.82
284.903	19.41
285.119	6.9
285.335	4.12
285.551	15.96
285.767	14.36
285.982	1.43
286.198	-2.75
286.414	20.15
286.63	36.84
286.846	39.6
287.061	37.22
287.277	33.77
287.493	44.43
287.709	44.31
287.924	36.13
288.14	33.12
288.356	37.59
288.571	19.06
288.787	32.39
289.003	31.26
289.218	32.35
289.434	34.42
289.65	35.82
289.865	40.78
290.081	41.77
290.296	41.3
290.512	44.18
290.727	51.14
290.943	41.91
291.159	34.1
291.374	30.25
291.59	33.49
291.805	24.52
292.021	11.46
292.236	15.79
292.451	30.25
292.667	33.58
292.882	29.73
293.098	28.54
293.313	30.68
293.529	41.71
293.744	30.31
293.959	23.85
294.175	18.06
294.39	21.99
294.605	28.77
294.821	26.56
295.036	20.56
295.251	24.42
295.467	12.59
295.682	17.6
295.897	12.15
296.112	8.79
296.328	14.32
296.543	6.3
296.758	4.47
296.973	9.08
297.188	6.81
297.404	12.13
297.619	17.56
297.834	20.52
298.049	23.01
298.264	25.9
298.479	20.39
298.694	27.42
298.909	23.49
299.125	19.71
299.34	17.79
299.555	25.49
299.77	23.03
299.985	29.1
300.2	29.36
300.415	36
300.63	36.06
300.845	43.59
301.06	45.65
301.275	49.32
301.49	47.28
301.704	40.55
301.919	28.1
302.134	25.49
302.349	12.4
302.564	-2.43
302.779	-3.26
302.994	3.6
303.209	-1.7
303.423	19.53
303.638	34.3
303.853	44.22
304.068	45.97
304.283	36.77
304.497	36.81
304.712	37.84
304.927	29.98
305.142	25.79
305.356	26.77
305.571	32.26
305.786	30.86
306	32.47
306.215	39.33
306.43	46.09
306.644	43.86
306.859	41.76
307.074	35.63
307.288	40.15
307.503	34.01
307.717	30.59
307.932	31.3
308.147	35.38
308.361	29.25
308.576	33.95
308.79	36.15
309.005	40.62
309.219	38.5
309.434	30.57
309.648	20.82
309.863	21.31
310.077	9.01
310.292	14.35
310.506	23.67
310.72	38.72
310.935	34.9
311.149	39.98
311.364	38.25
311.578	38.9
311.792	28.85
312.007	18.04
312.221	11.23
312.435	19.03
312.649	21.25
312.864	23.64
313.078	25.27
313.292	38.74
313.507	40.49
313.721	37.51
313.935	48.49
314.149	37.43
314.363	39.04
314.578	67.16
314.792	66.16
315.006	68.51
315.22	80.21
315.434	69.33
315.648	71.25
315.862	67.16
316.077	47.9
316.291	48.45
316.505	51.85
316.719	28.76
316.933	34.33
317.147	27.09
317.361	23.71
317.575	22.59
317.789	20.34
318.003	18.31
318.217	26.32
318.431	23.3
318.645	24.79
318.859	22.65
319.073	19.97
319.287	22.36
319.5	19.43
319.714	21.74
319.928	28.22
320.142	39.39
320.356	45.9
320.57	48.79
320.784	54.83
320.997	57.11
321.211	55.89
321.425	43.2
321.639	43.89
321.853	37.62
322.066	39.48
322.28	29.92
322.494	29.45
322.707	27.03
322.921	28.51
323.135	28.92
323.349	34.08
323.562	27.85
323.776	25.95
323.989	28.35
324.203	37.16
324.417	31.78
324.63	13.68
324.844	4.32
325.057	12.5
325.271	10.84
325.485	9.33
325.698	1.48
325.912	15.61
326.125	28.76
326.339	41.01
326.552	39.41
326.766	44.43
326.979	44.74
327.193	48.01
327.406	47.3
327.619	36.57
327.833	23.1
328.046	17.85
328.26	9.09
328.473	4.75
328.686	-7.27
328.9	-10.63
329.113	-3.72
329.326	6.25
329.54	10.63
329.753	12.12
329.966	17.15
330.179	30.97
330.393	35.33
330.606	41.43
330.819	43.36
331.032	44.43
331.246	47.64
331.459	40.28
331.672	38.2
331.885	34.6
332.098	27.96
332.311	14.24
332.525	18.33
332.738	21.59
332.951	27.07
333.164	20.25
333.377	7.41
333.59	16.86
333.803	24.61
334.016	10.75
334.229	-0.1
334.442	6.76
334.655	16.61
334.868	34.23
335.081	36.83
335.294	29.46
335.507	39.68
335.72	39.95
335.933	45.34
336.146	41.61
336.359	25.87
336.572	16.44
336.785	29.05
336.997	16.59
337.21	15.46
337.423	8.6
337.636	10.26
337.849	15.22
338.062	17.51
338.274	10.5
338.487	13.07
338.7	17.52
338.913	14.93
339.125	9.57
339.338	18.52
339.551	17.16
339.763	15.41
339.976	24.57
340.189	23.02
340.402	26.66
340.614	33.24
340.827	25.11
341.039	26.51
341.252	27.19
341.465	19.09
341.677	16.03
341.89	11.73
342.102	13.97
342.315	24.05
342.527	18.29
342.74	3.79
342.952	16.63
343.165	28.23
343.377	31.13
343.59	28.25
343.802	29.88
344.015	41.07
344.227	48.05
344.44	42.18
344.652	34.54
344.864	29.5
345.077	19.94
345.289	11.83
345.502	-0
345.714	-3.49
345.926	0.61
346.139	3.75
346.351	0.46
346.563	16.95
346.775	13.13
346.988	15.53
347.2	24.04
347.412	23.69
347.624	24.39
347.837	23.9
348.049	18.78
348.261	23.9
348.473	19.03
348.685	20.63
348.897	14.73
349.11	19.07
349.322	22.01
349.534	22.75
349.746	26.26
349.958	29.77
350.17	34.1
350.382	29.5
350.594	24.17
350.806	29.45
351.018	34.87
351.23	30.43
351.442	37.76
351.654	42.13
351.866	47.62
352.078	44.66
352.29	44.09
352.502	40.41
352.714	45.79
352.926	42.44
353.138	38.67
353.35	30.28
353.561	25.99
353.773	23.28
353.985	21.54
354.197	16.62
354.409	17.53
354.621	18.42
354.832	15.2
355.044	29.36
355.256	29.5
355.468	31.54
355.679	27.67
355.891	29.62
356.103	23.94
356.314	35.97
356.526	31.18
356.738	30.45
356.949	31.56
357.161	35.39
357.373	29.3
357.584	34.36
357.796	29.27
358.008	32.98
358.219	38.82
358.431	32.88
358.642	32.5
358.854	36.18
359.065	34.01
359.277	27.72
359.488	19.42
359.7	20.57
359.911	24.68
360.123	24.93
360.334	21.06
360.546	11.25
360.757	18.45
360.969	20.68
361.18	13.63
361.391	15.31
361.603	18.36
361.814	19.74
362.025	27.18
362.237	24.34
362.448	30.01
362.659	29.78
362.871	35.34
363.082	30.34
363.293	30.39
363.504	36.86
363.716	39.36
363.927	37.06
364.138	35.96
364.349	32.62
364.56	32.58
364.772	38.7
364.983	26.03
365.194	22.7
365.405	22.75
365.616	19.79
365.827	13.69
366.038	17.34
366.25	11.66
366.461	16.75
366.672	16.77
366.883	24.3
367.094	20.88
367.305	24.26
367.516	25.79
367.727	25.25
367.938	30.67
368.149	35
368.36	31.28
368.571	36.43
368.781	31.78
368.992	32.08
369.203	32.56
369.414	25.07
369.625	21.06
369.836	16.95
370.047	13.87
370.258	11.19
370.468	7.08
370.679	7.57
370.89	19.04
371.101	16.24
371.312	20.35
371.522	28.1
371.733	26.98
371.944	30.6
372.155	25.93
372.365	20.62
372.576	18.06
372.787	14.31
372.997	6.87
373.208	21.33
373.419	20.67
373.629	28.75
373.84	24.74
374.05	30.26
374.261	32.56
374.472	36.08
374.682	26.39
374.893	20.18
375.103	24.18
375.314	23.85
375.524	26.38
375.735	23.94
375.945	25.76
376.156	31.1
376.366	27.02
376.577	24.31
376.787	30.99
376.997	25.76
377.208	20.81
377.418	13.71
377.629	6.3
377.839	13.28
378.049	13.69
378.26	7.42
378.47	12.53
378.68	16.03
378.89	15.9
379.101	13.53
379.311	7.85
379.521	11.83
379.732	1.9
379.942	-0.35
380.152	2.64
380.362	5.6
380.572	14.22
380.783	21.4
380.993	17.29
381.203	28.25
381.413	32.54
381.623	31.26
381.833	31.16
382.043	26.71
382.253	25.48
382.463	28.23
382.674	31.32
382.884	21.53
383.094	22.48
383.304	21.26
383.514	17.26
383.724	11.53
383.934	8.2
384.144	8.27
384.353	11.84
384.563	11.33
384.773	14.66
384.983	19.19
385.193	22.29
385.403	23.68
385.613	18.81
385.823	16.56
386.033	16.81
386.242	16.57
386.452	13.36
386.662	15.65
386.872	14.03
387.082	10.93
387.291	11.84
387.501	11.01
387.711	8.4
387.921	7.3
388.13	4.22
388.34	4.32
388.55	7.84
388.759	7.66
388.969	7.35
389.179	9.41
389.388	8.8
389.598	7.91
389.807	5.29
390.017	2.75
390.227	1.42
390.436	0.59
390.646	0.21
390.855	-0.07
391.065	1.32
391.274	1.22
391.484	3.31
391.693	4.88
391.903	4.72
392.112	4.91
392.322	7.55
392.531	6.85
392.74	5.78
392.95	6.05
393.159	4.89
393.369	4.53
393.578	4.4
393.787	2.8
393.997	3.72
394.206	5.24
394.415	4.8
394.625	3.99
394.834	3.55
395.043	3.34
395.252	3.67
395.462	3.26
395.671	3.16
395.88	3.39
396.089	4.49
396.298	4.89
396.508	4.76
396.717	4.58
396.926	3.89
397.135	3.34
397.344	2.95
397.553	2.67
397.762	2.76
397.971	2.53
398.181	1.88
398.39	2.34
398.599	2.79
398.808	2.84
399.017	3.26
399.226	3.29
399.435	3.36
399.644	3.6
399.853	3.52
400.062	3.26
400.27	3.27
400.479	2.99
400.688	2.81
400.897	3.02
401.106	3.14
401.315	2.95
401.524	3.14
401.733	3.26
401.941	3.15
402.15	3.04
402.359	2.87
402.568	2.94
402.777	3
402.985	2.84
403.194	2.79
403.403	2.71
403.612	2.71
403.82	2.76
404.029	2.66
404.238	2.73
404.446	2.7
404.655	2.5
404.864	2.52
405.072	2.64
405.281	2.52
405.489	2.63
405.698	2.59
405.906	2.59
406.115	2.7
406.324	2.57
406.532	2.52
406.741	2.59
406.949	2.45
407.158	2.53
407.366	2.63
407.574	2.6
407.783	2.59
407.991	2.45
408.2	2.36
408.408	2.34
408.617	2.18
408.825	2.13
409.033	2.12
409.242	2.17
409.45	2.26
409.658	2.23
409.867	2.22
410.075	2.22
410.283	2.18
410.491	2.12
410.7	2.17
410.908	2.23
411.116	2.28
411.324	2.31
411.533	2.23
411.741	2.15
411.949	2.24
412.157	2.23
412.365	2.19
412.573	2.16
412.781	2.22
412.99	2.44
413.198	2.51
413.406	2.39
413.614	2.43
413.822	2.43
414.03	2.38
414.238	2.34
414.446	2.19
414.654	2.18
414.862	2.21
415.07	2.21
415.278	2.11
415.486	2.25
415.694	2.17
415.902	2.06
416.109	2.04
416.317	2.03
416.525	2.06
416.733	2.12
416.941	2.04
417.149	2.19
417.357	2.3
417.564	2.32
417.772	2.35
417.98	2.24
418.188	2.1
418.395	2.13
418.603	1.97
418.811	1.89
419.019	1.87
419.226	1.86
419.434	1.85
419.642	1.97
419.849	1.9
420.057	1.93
420.265	1.97
420.472	1.93
420.68	1.9
420.887	1.99
421.095	1.97
421.302	2.06
421.51	2.21
421.717	2.18
421.925	2.09
422.132	2.11
422.34	2.07
422.547	2.06
422.755	2.01
422.962	1.84
423.17	1.92
423.377	2.09
423.585	1.97
423.792	1.97
423.999	1.94
424.207	1.85
424.414	1.95
424.621	1.92
424.829	1.87
425.036	1.89
425.243	1.91
425.451	1.9
425.658	1.96
425.865	1.87
426.072	1.87
426.28	1.89
426.487	1.93
426.694	1.9
426.901	1.9
427.108	1.95
427.315	1.97
427.523	1.96
427.73	1.99
427.937	1.93
428.144	1.96
428.351	2.03
428.558	1.93
428.765	1.95
428.972	1.93
429.179	1.78
429.386	1.85
429.593	1.77
429.8	1.82
430.007	1.93
430.214	1.89
430.421	1.92
430.628	1.97
430.835	1.98
431.042	2.06
431.249	1.96
431.456	1.91
431.662	1.9
431.869	1.96
432.076	2.01
432.283	1.92
432.49	1.89
432.697	1.92
432.903	1.96
433.11	1.98
433.317	1.94
433.524	1.89
433.73	2
433.937	2
434.144	2.07
434.35	2.03
434.557	2
434.764	1.95
434.97	2.12
435.177	2.09
435.384	2.16
435.59	2.14
435.797	2.18
436.003	2.24
436.21	2.28
436.416	2.14
436.623	2.21
436.829	2.16
437.036	2.16
437.242	2.15
437.449	2.14
437.655	2.14
437.862	2.21
438.068	2.23
438.275	2.23
438.481	2.28
438.687	2.33
438.894	2.31
439.1	2.37
439.307	2.31
439.513	2.23
439.719	2.25
439.926	2.24
440.132	2.19
440.338	2.29
440.544	2.26
440.751	2.3
440.957	2.32
441.163	2.38
441.369	2.36
441.575	2.38
441.782	2.33
441.988	2.32
442.194	2.41
442.4	2.43
442.606	2.4
442.812	2.41
443.018	2.39
443.224	2.44
443.431	2.46
443.637	2.39
443.843	2.44
444.049	2.42
444.255	2.38
444.461	2.41
444.667	2.34
444.873	2.36
445.079	2.39
445.284	2.33
445.49	2.25
445.696	2.32
445.902	2.38
446.108	2.42
446.314	2.43
446.52	2.44
446.726	2.47
446.931	2.57
447.137	2.55
447.343	2.5
447.549	2.46
447.755	2.46
447.96	2.39
448.166	2.44
448.372	2.41
448.578	2.47
448.783	2.46
448.989	2.54
449.195	2.54
449.4	2.6
449.606	2.59
449.812	2.65
450.017	2.64
450.223	2.65
450.428	2.63
450.634	2.68
450.84	2.66
451.045	2.68
451.251	2.67
451.456	2.64
451.662	2.66
451.867	2.63
452.073	2.6
452.278	2.61
452.483	2.58
452.689	2.6
452.894	2.61
453.1	2.55
453.305	2.63
453.51	2.65
453.716	2.69
453.921	2.73
454.127	2.7
454.332	2.73
454.537	2.84
454.742	2.79
454.948	2.78
455.153	2.82
455.358	2.85
455.563	2.86
455.769	2.78
455.974	2.69
456.179	2.62
456.384	2.62
456.589	2.62
456.795	2.54
457	2.57
457.205	2.64
457.41	2.72
457.615	2.83
457.82	2.84
458.025	2.81
458.23	2.85
458.435	2.8
458.64	2.83
458.845	2.79
459.05	2.76
459.255	2.75
459.46	2.74
459.665	2.8
459.87	2.84
460.075	2.85
460.28	2.91
460.485	2.96
460.69	2.93
460.895	3
461.099	3.02
461.304	3.04
461.509	2.97
461.714	2.96
461.919	2.91
462.123	2.97
462.328	2.93
462.533	2.87
462.738	2.87
462.942	2.94
463.147	2.96
463.352	3
463.556	3.03
463.761	3.07
463.966	3.1
464.17	3.12
464.375	3.08
464.58	3.04
464.784	3.07
464.989	3.06
465.193	3.05
465.398	3.02
465.602	3.03
465.807	3.09
466.011	3.14
466.216	3.11
466.42	3.14
466.625	3.16
466.829	3.24
467.034	3.25
467.238	3.24
467.443	3.26
467.647	3.27
467.851	3.25
468.056	3.25
468.26	3.23
468.464	3.19
468.669	3.21
468.873	3.19
469.077	3.22
469.282	3.27
469.486	3.3
469.69	3.28
469.894	3.36
470.099	3.41
470.303	3.44
470.507	3.46
470.711	3.45
470.915	3.47
471.119	3.5
471.324	3.46
471.528	3.44
471.732	3.43
471.936	3.48
472.14	3.52
472.344	3.51
472.548	3.52
472.752	3.61
472.956	3.67
473.16	3.67
473.364	3.61
473.568	3.6
473.772	3.67
473.976	3.7
474.18	3.67
474.384	3.64
474.588	3.68
474.792	3.68
474.995	3.72
475.199	3.7
475.403	3.71
475.607	3.72
475.811	3.73
476.015	3.77
476.218	3.79
476.422	3.8
476.626	3.79
476.83	3.83
477.033	3.84
477.237	3.84
477.441	3.84
477.644	3.88
477.848	3.86
478.052	3.86
478.255	3.82
478.459	3.83
478.663	3.89
478.866	3.89
479.07	3.89
479.273	3.89
479.477	3.94
479.681	3.94
479.884	3.93
480.088	3.91
480.291	3.94
480.495	3.98
480.698	4
480.901	3.98
481.105	4.02
481.308	4.05
481.512	4.09
481.715	4.14
481.919	4.12
482.122	4.15
482.325	4.14
482.529	4.18
482.732	4.19
482.935	4.2
483.138	4.15
483.342	4.21
483.545	4.21
483.748	4.26
483.952	4.26
484.155	4.3
484.358	4.28
484.561	4.29
484.764	4.29
484.967	4.31
485.171	4.28
485.374	4.27
485.577	4.27
485.78	4.3
485.983	4.32
486.186	4.3
486.389	4.31
486.592	4.36
486.795	4.42
486.998	4.4
487.201	4.38
487.404	4.44
487.607	4.44
487.81	4.45
488.013	4.44
488.216	4.38
488.419	4.36
488.622	4.35
488.825	4.25
489.028	4.26
489.231	4.23
489.433	4.21
489.636	4.18
489.839	4.21
490.042	4.25
490.245	4.29
490.447	4.28
490.65	4.37
490.853	4.4
491.056	4.44
491.258	4.44
491.461	4.42
491.664	4.41
491.866	4.41
492.069	4.36
492.272	4.35
492.474	4.34
492.677	4.33
492.879	4.36
493.082	4.41
493.285	4.42
493.487	4.43
493.69	4.42
493.892	4.45
494.095	4.45
494.297	4.47
494.5	4.48
494.702	4.48
494.905	4.5
495.107	4.51
495.309	4.46
495.512	4.53
495.714	4.52
495.917	4.49
496.119	4.54
496.321	4.59
496.524	4.61
496.726	4.64
496.928	4.64
497.13	4.66
497.333	4.71
497.535	4.71
497.737	4.67
497.939	4.68
498.142	4.68
498.344	4.67
498.546	4.68
498.748	4.63
498.95	4.6
499.152	4.57
499.355	4.57
499.557	4.62
499.759	4.68
499.961	4.68
500.163	4.74
500.365	4.76
500.567	4.81
500.769	4.87
500.971	4.83
501.173	4.87
501.375	4.87
501.577	4.88
501.779	4.94
501.981	4.95
502.183	4.91
502.385	4.96
502.587	4.92
502.788	4.94
502.99	4.91
503.192	4.9
503.394	4.9
503.596	4.95
503.798	5
503.999	5.03
504.201	5.08
504.403	5.15
504.605	5.18
504.806	5.18
505.008	5.17
505.21	5.14
505.411	5.18
505.613	5.16
505.815	5.15
506.016	5.17
506.218	5.19
506.42	5.25
506.621	5.29
506.823	5.28
507.024	5.29
507.226	5.3
507.427	5.24
507.629	5.3
507.83	5.25
508.032	5.29
508.233	5.32
508.435	5.36
508.636	5.36
508.838	5.45
509.039	5.47
509.24	5.55
509.442	5.49
509.643	5.47
509.845	5.5
510.046	5.53
510.247	5.54
510.448	5.51
510.65	5.53
510.851	5.54
511.052	5.59
511.254	5.61
511.455	5.6
511.656	5.58
511.857	5.62
512.058	5.62
512.26	5.67
512.461	5.69
512.662	5.67
512.863	5.67
513.064	5.68
513.265	5.66
513.466	5.69
513.667	5.67
513.868	5.7
514.069	5.77
514.27	5.78
514.471	5.86
514.672	5.87
514.873	5.91
515.074	5.94
515.275	5.91
515.476	5.91
515.677	5.95
515.878	5.97
516.079	6.04
516.28	6
516.481	6
516.682	6.03
516.882	6.04
517.083	6.05
517.284	6.04
517.485	6.03
517.686	6.06
517.886	6.09
518.087	6.1
518.288	6.08
518.488	6.07
518.689	6.08
518.89	6.1
519.091	6.12
519.291	6.16
519.492	6.19
519.692	6.27
519.893	6.31
520.094	6.33
520.294	6.34
520.495	6.36
520.695	6.32
520.896	6.31
521.096	6.28
521.297	6.28
521.497	6.3
521.698	6.3
521.898	6.29
522.099	6.33
522.299	6.35
522.499	6.39
522.7	6.4
522.9	6.4
523.101	6.41
523.301	6.44
523.501	6.45
523.702	6.44
523.902	6.44
524.102	6.45
524.302	6.47
524.503	6.5
524.703	6.54
524.903	6.57
525.103	6.64
525.304	6.66
525.504	6.7
525.704	6.68
525.904	6.66
526.104	6.68
526.304	6.66
526.504	6.65
526.705	6.67
526.905	6.68
527.105	6.74
527.305	6.74
527.505	6.75
527.705	6.78
527.905	6.76
528.105	6.75
528.305	6.75
528.505	6.76
528.705	6.79
528.905	6.78
529.105	6.78
529.304	6.82
529.504	6.83
529.704	6.84
529.904	6.86
530.104	6.87
530.304	6.9
530.503	6.87
530.703	6.88
530.903	6.89
531.103	6.92
531.303	6.92
531.502	6.92
531.702	6.93
531.902	6.96
532.101	6.99
532.301	7.01
532.501	7.02
532.7	7.02
532.9	7.06
533.1	7.07
533.299	7.12
533.499	7.11
533.698	7.13
533.898	7.15
534.097	7.18
534.297	7.18
534.496	7.19
534.696	7.19
534.895	7.24
535.095	7.25
535.294	7.24
535.494	7.29
535.693	7.33
535.892	7.35
536.092	7.35
536.291	7.37
536.491	7.4
536.69	7.42
536.889	7.41
537.088	7.38
537.288	7.4
537.487	7.43
537.686	7.44
537.886	7.43
538.085	7.47
538.284	7.52
538.483	7.58
538.682	7.64
538.882	7.65
539.081	7.7
539.28	7.72
539.479	7.75
539.678	7.79
539.877	7.8
540.076	7.8
540.275	7.87
540.474	7.88
540.673	7.93
540.872	7.92
541.071	7.92
541.27	7.91
541.469	7.96
541.668	7.96
541.867	8.01
542.066	8.06
542.265	8.1
542.464	8.14
542.663	8.23
542.862	8.21
543.06	8.24
543.259	8.22
543.458	8.21
543.657	8.23
543.856	8.24
544.054	8.24
544.253	8.3
544.452	8.29
544.651	8.34
544.849	8.4
545.048	8.43
545.247	8.46
545.445	8.48
545.644	8.53
545.843	8.61
546.041	8.64
546.24	8.72
546.438	8.82
546.637	8.89
546.836	8.95
547.034	9.01
547.233	9.05
547.431	9.11
547.63	9.16
547.828	9.18
548.027	9.2
548.225	9.26
548.423	9.29
548.622	9.34
548.82	9.39
549.019	9.43
549.217	9.49
549.415	9.57
549.614	9.59
549.812	9.67
550.01	9.76
550.209	9.85
550.407	9.92
550.605	9.97
550.803	10.01
551.002	10.07
551.2	10.14
551.398	10.16
551.596	10.23
551.794	10.31
551.993	10.36
552.191	10.46
552.389	10.56
552.587	10.63
552.785	10.72
552.983	10.74
553.181	10.76
553.379	10.81
553.577	10.86
553.775	10.92
553.973	11
554.171	11.06
554.369	11.16
554.567	11.24
554.765	11.34
554.963	11.43
555.161	11.49
555.359	11.52
555.557	11.59
555.755	11.69
555.952	11.75
556.15	11.79
556.348	11.88
556.546	12.02
556.744	12.15
556.941	12.23
557.139	12.32
557.337	12.42
557.535	12.56
557.732	12.65
557.93	12.7
558.128	12.73
558.325	12.83
558.523	12.88
558.721	13.01
558.918	13.09
559.116	13.14
559.313	13.22
559.511	13.34
559.708	13.39
559.906	13.51
560.104	13.56
560.301	13.62
560.498	13.73
560.696	13.81
560.893	13.9
561.091	14.04
561.288	14.08
561.486	14.2
561.683	14.32
561.88	14.41
562.078	14.52
562.275	14.62
562.473	14.65
562.67	14.74
562.867	14.82
563.064	14.92
563.262	15.07
563.459	15.21
563.656	15.33
563.853	15.45
564.051	15.55
564.248	15.63
564.445	15.75
564.642	15.77
564.839	15.84
565.036	15.92
565.234	16.01
565.431	16.16
565.628	16.27
565.825	16.33
566.022	16.46
566.219	16.54
566.416	16.62
566.613	16.74
566.81	16.76
567.007	16.81
567.204	16.86
567.401	16.93
567.598	16.96
567.795	17.03
567.991	17.09
568.188	17.18
568.385	17.31
568.582	17.4
568.779	17.46
568.976	17.58
569.172	17.65
569.369	17.72
569.566	17.77
569.763	17.83
569.96	17.92
570.156	18.03
570.353	18.11
570.55	18.17
570.746	18.24
570.943	18.36
571.14	18.38
571.336	18.42
571.533	18.45
571.729	18.47
571.926	18.52
572.123	18.54
572.319	18.55
572.516	18.59
572.712	18.63
572.909	18.64
573.105	18.71
573.302	18.76
573.498	18.81
573.695	18.87
573.891	18.93
574.087	19
574.284	19.03
574.48	18.97
574.677	19
574.873	19.06
575.069	19.12
575.266	19.14
575.462	19.17
575.658	19.26
575.854	19.34
576.051	19.32
576.247	19.3
576.443	19.25
576.639	19.27
576.835	19.24
577.032	19.27
577.228	19.33
577.424	19.36
577.62	19.43
577.816	19.51
578.012	19.54
578.208	19.59
578.404	19.62
578.6	19.63
578.796	19.67
578.993	19.67
579.189	19.64
579.384	19.61
579.58	19.55
579.776	19.54
579.972	19.52
580.168	19.49
580.364	19.47
580.56	19.51
580.756	19.52
580.952	19.58
581.148	19.54
581.343	19.55
581.539	19.54
581.735	19.58
581.931	19.57
582.127	19.55
582.322	19.53
582.518	19.5
582.714	19.49
582.909	19.5
583.105	19.44
583.301	19.47
583.496	19.43
583.692	19.39
583.888	19.42
584.083	19.51
584.279	19.54
584.474	19.53
584.67	19.51
584.866	19.57
585.061	19.58
585.257	19.61
585.452	19.56
585.648	19.52
585.843	19.55
586.039	19.54
586.234	19.51
586.429	19.57
586.625	19.57
586.82	19.54
587.015	19.57
587.211	19.62
587.406	19.68
587.601	19.67
587.797	19.63
587.992	19.6
588.187	19.66
588.383	19.67
588.578	19.66
588.773	19.63
588.968	19.72
589.163	19.74
589.359	19.77
589.554	19.8
589.749	19.86
589.944	19.92
590.139	19.96
590.334	19.97
590.529	20.07
590.724	20.14
590.919	20.15
591.114	20.14
591.309	20.07
591.504	20.13
591.699	20.14
591.894	20.17
592.089	20.18
592.284	20.18
592.479	20.2
592.674	20.29
592.869	20.33
593.064	20.41
593.259	20.43
593.454	20.48
593.648	20.57
593.843	20.64
594.038	20.72
594.233	20.82
594.428	20.9
594.622	20.99
594.817	21.1
595.012	21.15
595.206	21.25
595.401	21.32
595.596	21.4
595.79	21.45
595.985	21.54
596.18	21.6
596.374	21.68
596.569	21.79
596.763	21.84
596.958	21.89
597.153	21.93
597.347	21.93
597.542	21.99
597.736	22.09
597.931	22.13
598.125	22.21
598.319	22.25
598.514	22.35
598.708	22.41
598.903	22.53
599.097	22.59
599.291	22.66
599.486	22.74
599.68	22.8
599.874	22.89
600.069	22.94
600.263	22.96
600.457	23
600.651	23.02
600.846	23.05
601.04	23.12
601.234	23.15
601.428	23.19
601.622	23.2
601.817	23.23
602.011	23.29
602.205	23.33
602.399	23.34
602.593	23.35
602.787	23.45
602.981	23.5
603.175	23.5
603.369	23.51
603.563	23.51
603.757	23.52
603.951	23.49
604.145	23.45
604.339	23.41
604.533	23.38
604.727	23.35
604.921	23.33
605.115	23.33
605.309	23.35
605.502	23.35
605.696	23.38
605.89	23.44
606.084	23.4
606.278	23.39
606.471	23.29
606.665	23.23
606.859	23.2
607.053	23.17
607.246	23.12
607.44	23.07
607.634	23.02
607.827	23.01
608.021	22.98
608.214	22.95
608.408	22.84
608.602	22.75
608.795	22.7
608.989	22.67
609.182	22.7
609.376	22.6
609.569	22.51
609.763	22.58
609.956	22.48
610.15	22.41
610.343	22.35
610.537	22.27
610.73	22.27
610.923	22.23
611.117	22.12
611.31	22.14
611.504	22.15
611.697	22.08
611.89	21.95
612.083	21.85
612.277	21.75
612.47	21.67
612.663	21.59
612.856	21.48
613.05	21.37
613.243	21.3
613.436	21.3
613.629	21.28
613.822	21.15
614.015	21.05
614.209	21.03
614.402	21.03
614.595	21
614.788	20.89
614.981	20.83
615.174	20.86
615.367	20.77
615.56	20.66
615.753	20.64
615.946	20.62
616.139	20.61
616.332	20.55
616.525	20.48
616.718	20.47
616.911	20.46
617.103	20.35
617.296	20.29
617.489	20.27
617.682	20.21
617.875	20.16
618.067	20.12
618.26	20.06
618.453	20.02
618.646	19.94
618.838	19.85
619.031	19.84
619.224	19.82
619.417	19.82
619.609	19.75
619.802	19.74
619.994	19.73
620.187	19.74
620.38	19.67
620.572	19.65
620.765	19.63
620.957	19.61
621.15	19.56
621.342	19.55
621.535	19.51
621.727	19.5
621.92	19.46
622.112	19.42
622.305	19.42
622.497	19.39
622.69	19.32
622.882	19.27
623.074	19.24
623.267	19.21
623.459	19.22
623.651	19.2
623.844	19.22
624.036	19.27
624.228	19.3
624.42	19.28
624.613	19.28
624.805	19.24
624.997	19.22
625.189	19.21
625.381	19.15
625.574	19.09
625.766	19.08
625.958	19.08
626.15	19.1
626.342	19.05
626.534	19.02
626.726	19.02
626.918	18.98
627.11	18.91
627.302	18.83
627.494	18.73
627.686	18.69
627.878	18.62
628.07	18.55
628.262	18.53
628.454	18.51
628.646	18.5
628.838	18.48
629.029	18.4
629.221	18.4
629.413	18.36
629.605	18.31
629.797	18.33
629.989	18.33
630.18	18.28
630.372	18.28
630.564	18.24
630.755	18.23
630.947	18.23
631.139	18.13
631.33	18.1
631.522	18.08
631.714	18.08
631.905	18.01
632.097	18
632.289	17.96
632.48	17.95
632.672	17.84
632.863	17.79
633.055	17.74
633.246	17.73
633.438	17.67
633.629	17.64
633.821	17.63
634.012	17.62
634.203	17.67
634.395	17.66
634.586	17.64
634.777	17.63
634.969	17.6
635.16	17.57
635.351	17.57
635.543	17.52
635.734	17.51
635.925	17.55
636.117	17.53
636.308	17.46
636.499	17.45
636.69	17.48
636.881	17.49
637.073	17.49
637.264	17.45
637.455	17.47
637.646	17.5
637.837	17.48
638.028	17.42
638.219	17.38
638.41	17.36
638.601	17.38
638.792	17.35
638.983	17.3
639.174	17.28
639.365	17.26
639.556	17.2
639.747	17.19
639.938	17.14
640.129	17.1
640.32	17.09
640.511	17.07
640.701	17.03
640.892	17.02
641.083	16.94
641.274	16.9
641.465	16.85
641.655	16.84
641.846	16.76
642.037	16.72
642.228	16.68
642.418	16.59
642.609	16.54
642.8	16.53
642.99	16.52
643.181	16.55
643.372	16.56
643.562	16.52
643.753	16.56
643.943	16.51
644.134	16.51
644.324	16.46
644.515	16.43
644.705	16.42
644.896	16.36
645.086	16.28
645.277	16.33
645.467	16.29
645.658	16.24
645.848	16.19
646.038	16.11
646.229	16.09
646.419	16.15
646.61	16.04
646.8	16
646.99	15.99
647.18	16.01
647.371	16.05
647.561	16.08
647.751	16.01
647.941	15.97
648.132	16.01
648.322	16.03
648.512	15.97
648.702	15.89
648.892	15.93
649.082	15.94
649.272	15.9
649.462	15.88
649.653	15.87
649.843	15.77
650.033	15.8
650.223	15.73
650.413	15.77
650.603	15.83
650.793	15.72
650.983	15.64
651.172	15.68
651.362	15.6
651.552	15.53
651.742	15.4
651.932	15.36
652.122	15.36
652.312	15.29
652.502	15.25
652.691	15.24
652.881	15.21
653.071	15.17
653.261	15.09
653.45	15
653.64	15.01
653.83	14.93
654.019	14.81
654.209	14.7
654.399	14.64
654.588	14.55
654.778	14.44
654.968	14.34
655.157	14.2
655.347	14.08
655.536	13.95
655.726	13.84
655.915	13.72
656.105	13.65
656.294	13.45
656.484	13.38
656.673	13.23
656.863	13.15
657.052	13
657.241	12.82
657.431	12.64
657.62	12.5
657.809	12.35
657.999	12.26
658.188	12.1
658.377	11.97
658.567	11.81
658.756	11.66
658.945	11.51
659.134	11.33
659.324	11.15
659.513	10.98
659.702	10.76
659.891	10.62
660.08	10.5
660.269	10.44
660.458	10.29
660.648	10.2
660.837	10.11
661.026	10.02
661.215	9.9
661.404	9.74
661.593	9.54
661.782	9.4
661.971	9.26
662.16	9.08
662.349	8.93
662.538	8.83
662.726	8.75
662.915	8.66
663.104	8.51
663.293	8.38
663.482	8.3
663.671	8.2
663.86	8.08
664.048	7.93
664.237	7.79
664.426	7.77
664.615	7.71
664.803	7.61
664.992	7.62
665.181	7.57
665.369	7.47
665.558	7.44
665.747	7.4
665.935	7.31
666.124	7.29
666.312	7.13
666.501	7
666.69	6.98
666.878	6.92
667.067	6.85
667.255	6.84
667.444	6.78
667.632	6.77
667.82	6.74
668.009	6.7
668.197	6.63
668.386	6.59
668.574	6.52
668.762	6.48
668.951	6.45
669.139	6.51
669.327	6.54
669.516	6.59
669.704	6.63
669.892	6.61
670.08	6.58
670.269	6.66
670.457	6.62
670.645	6.6
670.833	6.57
671.021	6.53
671.21	6.58
671.398	6.62
671.586	6.59
671.774	6.58
671.962	6.61
672.15	6.66
672.338	6.69
672.526	6.7
672.714	6.73
672.902	6.77
673.09	6.89
673.278	6.9
673.466	7.02
673.654	7.04
673.842	7.14
674.03	7.19
674.218	7.22
674.405	7.28
674.593	7.4
674.781	7.36
674.969	7.4
675.157	7.38
675.344	7.45
675.532	7.53
675.72	7.51
675.908	7.53
676.095	7.67
676.283	7.71
676.471	7.78
676.658	7.85
676.846	7.94
677.033	8.05
677.221	8.18
677.409	8.2
677.596	8.39
677.784	8.52
677.971	8.6
678.159	8.68
678.346	8.74
678.534	8.73
678.721	8.78
678.909	8.83
679.096	8.85
679.283	8.99
679.471	9.07
679.658	9.2
679.846	9.37
680.033	9.56
680.22	9.63
680.408	9.84
680.595	9.9
680.782	10
680.969	10.06
681.157	10.12
681.344	10.25
681.531	10.42
681.718	10.54
681.905	10.72
682.093	10.94
682.28	11.19
682.467	11.37
682.654	11.48
682.841	11.66
683.028	11.85
683.215	11.98
683.402	12.13
683.589	12.27
683.776	12.48
683.963	12.66
684.15	12.8
684.337	12.94
684.524	13.18
684.711	13.38
684.898	13.65
685.085	13.92
685.271	14.27
685.458	14.66
685.645	14.97
685.832	15.24
686.019	15.57
686.205	15.9
686.392	16.14
686.579	16.37
686.766	16.7
686.952	17.19
687.139	17.52
687.326	17.97
687.512	18.32
687.699	18.69
687.886	19.05
688.072	19.5
688.259	19.87
688.445	20.32
688.632	20.81
688.818	21.25
689.005	21.87
689.191	22.39
689.378	22.83
689.564	23.3
689.751	23.89
689.937	24.37
690.124	24.94
690.31	25.41
690.496	26.12
690.683	26.71
690.869	27.37
691.055	28.05
691.242	28.55
691.428	29.19
691.614	29.86
691.8	30.44
691.987	31.14
692.173	31.77
692.359	32.41
692.545	33.13
692.731	33.83
692.918	34.51
693.104	35.11
693.29	35.79
693.476	36.35
693.662	37.03
693.848	37.6
694.034	38.17
694.22	38.84
694.406	39.65
694.592	40.15
694.778	40.78
694.964	41.27
695.15	41.95
695.336	42.73
695.522	43.34
695.708	43.93
695.894	44.73
696.08	45.44
696.265	46.08
696.451	46.86
696.637	47.46
696.823	48
697.009	48.56
697.194	49.19
697.38	49.69
697.566	50.33
697.751	50.82
697.937	51.39
698.123	52.04
698.308	52.38
698.494	52.73
698.68	53.42
698.865	54.17
699.051	54.82
699.236	55.38
699.422	55.89
699.607	56.58
699.793	57.26
699.978	57.62
700.164	57.93
700.349	58.32
700.535	58.62
700.72	59.13
700.906	59.55
701.091	59.81
701.276	60.36
701.462	60.76
701.647	61.11
701.832	61.55
702.018	62.02
702.203	62.31
702.388	62.74
702.573	63.09
702.759	63.47
702.944	63.96
703.129	64.37
703.314	64.6
703.499	65.08
703.684	65.41
703.87	65.89
704.055	66.36
704.24	66.53
704.425	66.87
704.61	67.13
704.795	67.4
704.98	67.69
705.165	67.87
705.35	68.08
705.535	68.44
705.72	68.63
705.905	68.93
706.09	69.23
706.275	69.55
706.459	69.74
706.644	70.01
706.829	70.26
707.014	70.53
707.199	70.67
707.384	70.96
707.568	71.23
707.753	71.58
707.938	71.74
708.123	71.8
708.307	72.07
708.492	72.25
708.677	72.55
708.861	72.58
709.046	72.76
709.231	73.02
709.415	73.31
709.6	73.2
709.784	73.52
709.969	73.57
710.153	74.04
710.338	74.04
710.522	74.08
710.707	73.91
710.891	74.32
711.076	74.5
711.26	74.7
711.445	74.5
711.629	74.79
711.813	74.95
711.998	75.32
712.182	75.78
712.366	76.11
712.551	76.36
712.735	76.7
712.919	76.88
713.103	77.01
713.288	77.4
713.472	77.42
713.656	77.37
713.84	77.33
714.024	77.69
714.208	77.74
714.393	78.03
714.577	78.03
714.761	78.15
714.945	78.24
715.129	78.42
715.313	78.19
715.497	78.46
715.681	78.6
715.865	78.84
716.049	78.88
716.233	79.28
716.417	79.37
716.601	79.45
716.785	79.48
716.968	79.33
717.152	79.43
717.336	79.5
717.52	79.27
717.704	79.64
717.888	79.97
718.071	79.97
718.255	80.04
718.439	80.02
718.622	80.22
718.806	80.25
718.99	80.15
719.174	80.12
719.357	80.51
719.541	80.7
719.724	80.63
719.908	80.55
720.092	80.86
720.275	80.82
720.459	80.82
720.642	80.8
720.826	81.01
721.009	81.25
721.193	81.28
721.376	81.22
721.559	81.34
721.743	81.53
721.926	81.11
722.11	81.25
722.293	81.26
722.476	81.22
722.66	81.3
722.843	81.44
723.026	81.55
723.21	81.58
723.393	81.53
723.576	81.76
723.759	82.11
723.942	82.26
724.126	82.28
724.309	82.18
724.492	82.61
724.675	82.51
724.858	82.6
725.041	82.54
725.224	82.7
725.407	82.59
725.59	82.95
725.774	83.01
725.957	83.27
726.14	83.36
726.322	83.27
726.505	83.67
726.688	84.23
726.871	84.25
727.054	84.64
727.237	84.63
727.42	84.76
727.603	85.09
727.786	84.84
727.968	84.82
728.151	85.25
728.334	85.28
728.517	85.58
728.699	85.54
728.882	85.96
729.065	85.89
729.248	85.68
729.43	85.32
729.613	85.32
729.796	85.06
729.978	85.48
730.161	85.38
730.343	85.84
730.526	86.22
730.708	86.49
730.891	86.63
731.073	87.02
731.256	86.88
731.438	86.98
731.621	87.2
731.803	87.19
731.986	87.3
732.168	87.31
732.35	87.36
732.533	87.43
732.715	87.75
732.898	87.72
733.08	88.28
733.262	88.53
733.444	88.68
733.627	88.94
733.809	89.02
733.991	88.98
734.173	88.63
734.355	88.5
734.538	88.44
734.72	88.53
734.902	88.47
735.084	88.56
735.266	88.43
735.448	88.76
735.63	88.73
735.812	88.66
735.994	88.49
736.176	88.62
736.358	88.83
736.54	88.63
736.722	88.53
736.904	88.74
737.086	88.52
737.268	88.46
737.45	88.65
737.632	88.14
737.814	88.45
737.995	88.77
738.177	88.69
738.359	89.21
738.541	89.25
738.723	89.07
738.904	89.06
739.086	89.43
739.268	89.68
739.449	89.8
739.631	89.78
739.813	90.15
739.994	90.72
740.176	91.29
740.358	91.05
740.539	90.79
740.721	90.76
740.902	90.68
741.084	90.78
741.265	90.41
741.447	89.87
741.628	89.55
741.81	89.7
741.991	89.85
742.172	90.11
742.354	90.17
742.535	90.35
742.717	90.97
742.898	91.69
743.079	91.67
743.261	91.92
743.442	91.89
743.623	91.91
743.804	91.93
743.986	91.42
744.167	91.22
744.348	91.35
744.529	90.53
744.71	90.49
744.891	90.5
745.073	90.65
745.254	91.38
745.435	91.16
745.616	91.03
745.797	91.49
745.978	91.25
746.159	90.92
746.34	90.84
746.521	91.04
746.702	90.86
746.883	90.91
747.064	90.59
747.245	91.4
747.426	91.77
747.606	91.41
747.787	91.3
747.968	91.83
748.149	91.62
748.33	92.33
748.51	91.21
748.691	91.32
748.872	91.37
749.053	90.78
749.233	90.18
749.414	90.35
749.595	89.69
749.775	90.56
749.956	89.91
750.137	89.78
750.317	90.04
750.498	90.55
750.678	91.05
750.859	91.21
751.04	91.27
751.22	91.35
751.4	91.74
751.581	91.66
751.761	92.21
751.942	91.27
752.122	91.18
752.303	90.32
752.483	90.88
752.663	91.11
752.844	90.82
753.024	90.55
753.204	91.2
753.385	91.15
753.565	91.49
753.745	91.08
753.925	90.68
754.106	91.19
754.286	90.99
754.466	90.77
754.646	90.26
754.826	90.03
755.006	90.15
755.187	89.95
755.367	89.03
755.547	89.04
755.727	88.5
755.907	89.83
756.087	90.47
756.267	90.31
756.447	90.42
756.627	91.28
756.807	91.45
756.987	92.28
757.167	91.82
757.346	90.65
757.526	91.66
757.706	92
757.886	91.95
758.066	91.49
758.246	91.3
758.425	91.44
758.605	92.53
758.785	91.53
758.965	90.56
759.144	90.78
759.324	91.22
759.504	90.95
759.683	90.49
759.863	89.89
760.043	89.95
760.222	89.96
760.402	90.06
760.581	89.76
760.761	89.27
760.94	88.51
761.12	88.76
761.299	88.98
761.479	90.06
761.658	88.65
761.838	88.68
762.017	89.61
762.197	90.43
762.376	90.22
762.555	90.48
762.735	89.49
762.914	90.89
763.093	90.46
763.273	89.95
763.452	89.1
763.631	88.1
763.81	87.97
763.99	88.86
764.169	88.16
764.348	88.97
764.527	88.3
764.706	89.13
764.885	91.19
765.064	90.89
765.243	90.37
765.423	91.84
765.602	90.69
765.781	91.28
765.96	91.75
766.139	90.29
766.318	90.5
766.497	91.37
766.676	90.62
766.854	90.28
767.033	91.17
767.212	89.76
767.391	89.63
767.57	89.27
767.749	88.91
767.928	87.99
768.106	88.12
768.285	86.84
768.464	87.57
768.643	88.04
768.821	88.06
769	88.03
769.179	87.67
769.357	87.65
769.536	87.51
769.715	87.26
769.893	87.48
770.072	87.44
770.25	86.66
770.429	88.11
770.607	89.07
770.786	90.24
770.964	90.37
771.143	90.55
771.321	90.13
771.5	89.44
771.678	88.68
771.857	87.85
772.035	86.88
772.213	86.97
772.392	86.44
772.57	86.82
772.748	87.43
772.927	87.14
773.105	87.94
773.283	87.3
773.461	86.67
773.64	86.52
773.818	85.75
773.996	85.68
774.174	85.76
774.352	84.76
774.531	85.51
774.709	86.53
774.887	85.84
775.065	85.35
775.243	86.18
775.421	86.31
775.599	86.1
775.777	86.1
775.955	84.53
776.133	84.76
776.311	84.76
776.489	84.06
776.667	83.05
776.844	83.66
777.022	82.74
777.2	83.2
777.378	83.74
777.556	85.64
777.734	85.92
777.911	87.11
778.089	86.44
778.267	87.54
778.445	87.9
778.622	87.66
778.8	86.13
778.978	85.7
779.155	84.76
779.333	83.76
779.511	82.37
779.688	80.81
779.866	80.44
780.043	81.47
780.221	81.98
780.398	81.79
780.576	82.57
780.753	82.88
780.931	84.75
781.108	85.04
781.286	82.97
781.463	82.91
781.64	83.52
781.818	83.43
781.995	84.74
782.172	85.39
782.35	84.95
782.527	87.22
782.704	86.17
782.882	86.58
783.059	86.07
783.236	86.45
783.413	87.12
783.59	86.36
783.768	85.06
783.945	86.08
784.122	84.24
784.299	86.43
784.476	85.71
784.653	81.5
784.83	81.47
785.007	81.13
785.184	80.48
785.361	81.03
785.538	80.07
785.715	79.39
785.892	81.32
786.069	81.92
786.246	81.69
786.423	83.13
786.6	83.61
786.776	81.84
786.953	81.87
787.13	83.5
787.307	84.56
787.484	85.16
787.66	83.75
787.837	84.37
788.014	85.04
788.191	84.8
788.367	82.58
788.544	82.25
788.721	82.26
788.897	84.03
789.074	84.12
789.25	87.55
789.427	90.28
789.603	92.94
789.78	94.97
789.956	94.69
790.133	91.4
790.309	89.23
790.486	88.29
790.662	86.47
790.839	85.49
791.015	82.7
791.192	83.57
791.368	86.68
791.544	89.21
791.721	86.7
791.897	85.34
792.073	84.73
792.249	86.09
792.426	85.17
792.602	82.84
792.778	81.2
792.954	80.85
793.13	82.8
793.307	81.88
793.483	80.99
793.659	82.86
793.835	83.52
794.011	82.31
794.187	79.76
794.363	79.09
794.539	78.95
794.715	77.95
794.891	73.54
795.067	73.76
795.243	75.95
795.419	80.69
795.595	80.15
795.771	81.49
795.947	82.16
796.122	86.05
796.298	86.79
796.474	86.88
796.65	84.33
796.826	86.17
797.001	86.1
797.177	89.12
797.353	89.99
797.529	89.02
797.704	88.53
797.88	89.77
798.056	89.52
798.231	88.5
798.407	85.16
798.582	82.08
798.758	82.8
798.934	83.04
799.109	81.73
799.285	80.98
799.46	82.39
799.636	82.56
799.811	85.02
799.986	83.81
800.162	84.45
800.337	84.99
800.513	86.12
800.688	85.47
800.863	87
801.039	83.11
801.214	82.08
801.389	79.86
801.565	83.43
801.74	79.46
801.915	78.71
802.09	74.93
802.265	76.22
802.441	78.04
802.616	78.55
802.791	77.84
802.966	80.25
803.141	74.42
803.316	77.5
803.491	78.19
803.666	76.27
803.841	78.11
804.016	76.17
804.191	75.81
804.366	82.46
804.541	82.34
804.716	79.82
804.891	85.26
805.066	82.39
805.241	79.97
805.416	77.42
805.591	80.01
805.765	78.98
805.94	78.56
806.115	69.69
806.29	71.31
806.464	73.49
806.639	77.46
806.814	71.83
806.989	70.81
807.163	69.9
807.338	71.63
807.512	70.13
807.687	64.91
807.862	61.96
808.036	62.6
808.211	64.38
808.385	62.09
808.56	62.85
808.734	60.48
808.909	60.86
809.083	64.19
809.258	68.72
809.432	64.07
809.606	72.7
809.781	75.7
809.955	78.56
810.13	84.4
810.304	78.15
810.478	77.3
810.652	84.62
810.827	79.21
811.001	79.36
811.175	77.11
811.349	74.89
811.524	76.38
811.698	76.21
811.872	74.11
812.046	76.31
812.22	74.84
812.394	78.28
812.568	83.69
812.742	86.21
812.916	88.61
813.09	84.68
813.264	82.07
813.438	88.62
813.612	85.25
813.786	81.44
813.96	83.3
814.134	78.13
814.308	81.76
814.482	84.1
814.656	83.36
814.83	86.63
815.003	88.13
815.177	88.84
815.351	90.52
815.525	88.47
815.698	85.75
815.872	82.34
816.046	82.04
816.219	80.74
816.393	74.7
816.567	71.2
816.74	73.92
816.914	77.82
817.088	74.67
817.261	72.59
817.435	71.32
817.608	75.23
817.782	85.07
817.955	82.44
818.129	86.44
818.302	94.24
818.475	91.52
818.649	87.17
818.822	81.16
818.996	73.64
819.169	74.74
819.342	71.65
819.516	71.32
819.689	74.92
819.862	74.4
820.035	79.06
820.209	76.7
820.382	75.28
820.555	74.69
820.728	68.32
820.901	68.25
821.075	74.54
821.248	76.23
821.421	74.55
821.594	77.45
821.767	78.01
821.94	72.36
822.113	72.37
822.286	70.17
822.459	75.08
822.632	83.79
822.805	82.72
822.978	77.52
823.151	87.33
823.324	82.07
823.496	74.95
823.669	72.74
823.842	65.84
824.015	60.37
824.188	67.48
824.361	67.06
824.533	80.7
824.706	102.63
824.879	96.18
825.051	97.71
825.224	97.87
825.397	86.63
825.569	83.25
825.742	78.2
825.915	72.64
826.087	66.89
826.26	67.93
826.432	82.57
826.605	89.52
826.777	92.03
826.95	81.51
827.122	80.44
827.295	87.69
827.467	79.91
827.64	64.8
827.812	60.4
827.984	64.61
828.157	65.03
828.329	62.9
828.501	56.52
828.674	55.69
828.846	61.98
829.018	57.63
829.19	50.11
829.363	56.9
829.535	59.13
829.707	59.21
829.879	68.14
830.051	68.06
830.223	59.97
830.395	61.05
830.568	68.5
830.74	65.35
830.912	65.83
831.084	61.15
831.256	52.92
831.428	68.27
831.6	68.59
831.772	61.37
831.943	66.8
832.115	61.09
832.287	58.02
832.459	63.35
832.631	68.69
832.803	70.93
832.975	71.83
833.146	69.1
833.318	78.02
833.49	88.16
833.662	83.34
833.833	79.14
834.005	77.94
834.177	76.61
834.348	77.88
834.52	79.42
834.692	74.46
834.863	73.82
835.035	68.42
835.206	66.99
835.378	64.54
835.549	64.87
835.721	63.72
835.892	67.26
836.064	71.08
836.235	76.44
836.407	69.59
836.578	70.51
836.749	68.66
836.921	69.76
837.092	77.36
837.264	71.33
837.435	61.88
837.606	69.59
837.777	66.66
837.949	57.75
838.12	52.56
838.291	45.74
838.462	51.07
838.633	53.6
838.805	52.83
838.976	53.54
839.147	53.72
839.318	54.9
839.489	44.04
839.66	55.62
839.831	52.65
840.002	56.31
840.173	56.66
840.344	69.92
840.515	65.33
840.686	82.1
840.857	61.59
841.028	66.42
841.199	65.47
841.369	70.77
841.54	67.99
841.711	73.23
841.882	72.67
842.053	88.54
842.223	87.24
842.394	86.35
842.565	81.32
842.736	88.04
842.906	95.18
843.077	77.97
843.248	84.07
843.418	87.28
843.589	93.96
843.759	92.03
843.93	89.58
844.101	89.09
844.271	95.3
844.442	95.74
844.612	86.28
844.783	67.6
844.953	63.2
845.123	62.9
845.294	51.76
845.464	58.73
845.635	46.36
845.805	51.78
845.975	44.21
846.146	43.15
846.316	51.39
846.486	63.85
846.656	68.51
846.827	73.06
846.997	80.2
847.167	82.37
847.337	89.4
847.507	77.24
847.677	82.74
847.848	80.34
848.018	78.02
848.188	71.44
848.358	79.39
848.528	83.56
848.698	74.45
848.868	63.39
849.038	77.24
849.208	85.07
849.378	84.3
849.548	92.75
849.718	84.8
849.887	84.5
850.057	85.16
850.227	61.44
850.397	47.25
850.567	71.5
850.737	61.6
850.906	47.84
851.076	51.2
851.246	51.4
851.415	64.3
851.585	63.38
851.755	50.52
851.924	65.1
852.094	77.36
852.264	75.47
852.433	70.64
852.603	76.07
852.772	65.82
852.942	62.37
853.111	64.73
853.281	53.39
853.45	59.47
853.62	70.14
853.789	52.28
853.959	62.84
854.128	54.31
854.297	42.64
854.467	48.3
854.636	36.55
854.805	44.21
854.975	65.83
855.144	81.4
855.313	99.13
855.482	97.56
855.652	102.52
855.821	100.71
855.99	99.26
856.159	85.29
856.328	65.87
856.497	52.18
856.667	60
856.836	53.73
857.005	59.72
857.174	58.71
857.343	55.85
857.512	39.9
857.681	43.75
857.85	38.49
858.019	50.08
858.188	49.64
858.356	30.63
858.525	50.43
858.694	59.32
858.863	61.13
859.032	59.7
859.201	51.19
859.369	65.81
859.538	66.61
859.707	55.17
859.876	73.09
860.044	82.47
860.213	68.75
860.382	75.3
860.55	91.26
860.719	93.86
860.888	90.01
861.056	88.87
861.225	90.26
861.393	110.38
861.562	85.83
861.73	64.65
861.899	66.7
862.067	65.46
862.236	51.82
862.404	43.65
862.572	31.67
862.741	33.56
862.909	24.06
863.078	17.14
863.246	15.53
863.414	28.59
863.582	27.36
863.751	34.4
863.919	58.18
864.087	66.41
864.255	75.72
864.424	84.5
864.592	76.29
864.76	90.03
864.928	83.8
865.096	61.65
865.264	63.94
865.432	62.84
865.6	43.58
865.768	36.63
865.936	21.09
866.104	26.51
866.272	40.03
866.44	2.6
866.608	15.87
866.776	37.73
866.944	41.6
867.112	10.58
867.28	6.89
867.448	33.14
867.615	67.51
867.783	42.21
867.951	82.47
868.119	115.05
868.286	144.36
868.454	97.41
868.622	105.58
868.789	94.7
868.957	107.24
869.125	66.81
869.292	63.21
869.46	62.09
869.627	65.55
869.795	51.55
869.963	55.2
870.13	60.4
870.298	84.28
870.465	61.6
870.632	65.13
870.8	57.45
870.967	65.09
871.135	61.97
871.302	55.77
871.469	47.25
871.637	51.04
871.804	48.22
871.971	51.32
872.139	48.35
872.306	40.29
872.473	23.34
872.64	35.26
872.807	45.91
872.975	52.27
873.142	61.49
873.309	91.66
873.476	170.58
873.643	186.68
873.81	142.36
873.977	96.39
874.144	97.32
874.311	82.92
874.478	6.1
874.645	-1.28
874.812	18.93
874.979	-1.57
875.146	-24.59
875.313	-45.52
875.48	-22.02
875.647	28.19
875.813	-6.83
875.98	-6.73
876.147	51.17
876.314	52.51
876.481	51.3
876.647	54.05
876.814	53.61
876.981	52.86
877.147	48.51
877.314	62.6
877.481	71.2
877.647	78.39
877.814	65.35
877.98	93.13
878.147	112.76
878.314	113.29
878.48	88.11
878.647	91.21
878.813	81.76
878.979	101.64
879.146	58.93
879.312	60.77
879.479	67.59
879.645	59.56
879.811	43.86
879.978	42.02
880.144	43.99
880.31	61.55
880.477	40.8
880.643	9.8
880.809	64.29
880.975	26.91
881.142	7.13
881.308	31.1
881.474	55.93
881.64	17
881.806	38.52
881.972	64.08
882.138	68.21
882.304	66.34
882.47	33.8
882.636	-16.53
882.802	-1.99
882.968	-102.66
883.134	-303.68
883.3	-76.82
883.466	41.22
883.632	7.7
883.798	40.73
883.964	37.92
884.129	79.97
884.295	72.91
884.461	79.04
884.627	38.9
884.793	62.81
884.958	50.75
885.124	40.71
885.29	37.22
885.455	3.94
885.621	3.84
885.787	4.95
885.952	-15.24
886.118	1.5
886.283	24.05
886.449	-2.6
886.614	39.77
886.78	45.95
886.945	32.63
887.111	70.87
887.276	30.47
887.442	20.56
887.607	31.25
887.773	-4.62
887.938	-22.21
888.103	31.82
888.269	33.95
888.434	47.28
888.599	67
888.764	58.53
888.93	89.04
889.095	108.22
889.26	109.2
889.425	112.12
889.59	86.03
889.756	71.14
889.921	82.61
890.086	100.32
890.251	67.92
890.416	49.75
890.581	28.98
890.746	55.58
890.911	46.13
891.076	8.63
891.241	-46.4
891.406	28.39
891.571	41.7
891.736	35.42
891.901	23.77
892.065	20.58
892.23	31.97
892.395	25.25
892.56	26.99
892.725	29.81
892.889	13.95
893.054	2.8
893.219	15.13
893.384	-5.4
893.548	-0
893.713	175.25
893.878	174.46
