Data from Ofra_2a_PS_OGT5C_Reflection_3.txt Node
Date: Tue Jul 20 09:30:54 EDT 2021
User: Adam
Spectrometer: FLMT01687
Trigger mode: 0
Integration Time (sec): 9.450000E-1
Scans to average: 3
Electric dark correction enabled: true
Nonlinearity correction enabled: false
Boxcar width: 3
XAxis mode: Wavelengths
Number of Pixels in Spectrum: 3648
>>>>>Begin Spectral Data<<<<<
179.494	362.13
179.716	189.35
179.937	198.35
180.158	730.08
180.38	-424.71
180.601	-25.37
180.823	-40.89
181.044	-132.37
181.265	-265.19
181.486	-95.85
181.708	-2318.48
181.929	-88.95
182.15	-318.75
182.372	-107.49
182.593	-170.8
182.814	672.31
183.035	491.22
183.257	208.42
183.478	101.17
183.699	109.23
183.92	74.86
184.141	70.7
184.363	58.64
184.584	48.02
184.805	59.3
185.026	81.52
185.247	49.25
185.468	37.39
185.689	39.21
185.91	39.71
186.132	43.07
186.353	15.36
186.574	18.29
186.795	4.79
187.016	4.37
187.237	-9.21
187.458	-32.99
187.679	-55
187.9	-19.63
188.121	-11.88
188.342	10.08
188.563	28.13
188.784	37.21
189.005	44.3
189.226	54.14
189.447	38.91
189.667	39.36
189.888	60.76
190.109	52.9
190.33	34.5
190.551	32.72
190.772	23.76
190.993	42.35
191.214	37.24
191.434	25.01
191.655	29.78
191.876	42.64
192.097	40.8
192.318	41.75
192.538	36.32
192.759	54.19
192.98	50.39
193.201	62.89
193.421	58.27
193.642	58.66
193.863	67.76
194.083	60.51
194.304	33.09
194.525	48.97
194.745	33.2
194.966	44.15
195.187	53.6
195.407	45.84
195.628	46.56
195.848	53.76
196.069	43.92
196.29	32.91
196.51	35.67
196.731	45.18
196.951	50.43
197.172	44.42
197.392	36.14
197.613	27.78
197.833	29.32
198.054	16.08
198.274	-14.44
198.495	-6.8
198.715	-2.38
198.936	1.91
199.156	18.93
199.377	24.43
199.597	30.97
199.817	53
200.038	41.17
200.258	35
200.479	22.04
200.699	26.57
200.919	9.29
201.14	16.66
201.36	9.27
201.58	7.03
201.801	11.73
202.021	21.41
202.241	11.7
202.461	30.63
202.682	30.26
202.902	24.64
203.122	23.56
203.342	32.82
203.563	37.19
203.783	41.13
204.003	38.75
204.223	36.98
204.443	35.29
204.663	38.99
204.884	28.14
205.104	16.96
205.324	18.35
205.544	13.78
205.764	10.3
205.984	20.85
206.204	11.84
206.424	22.34
206.644	25.03
206.864	21.53
207.084	33.07
207.304	38.56
207.525	35.9
207.745	53.07
207.964	64.22
208.184	50.58
208.404	46.08
208.624	30.81
208.844	17.42
209.064	22.21
209.284	20.21
209.504	14.49
209.724	0.47
209.944	-5.06
210.164	-0.35
210.384	16.73
210.604	3.15
210.823	-5.57
211.043	-20.33
211.263	12.86
211.483	30.7
211.703	38.8
211.922	29.91
212.142	43.84
212.362	47.34
212.582	55.28
212.801	45.92
213.021	42.92
213.241	38.3
213.461	47.92
213.68	43.61
213.9	48.69
214.12	44.87
214.339	52.05
214.559	53.13
214.779	52.66
214.998	39.24
215.218	42.9
215.438	48.53
215.657	50.61
215.877	43.36
216.096	43.09
216.316	46.19
216.535	46.8
216.755	22.84
216.974	13.98
217.194	16.41
217.413	23.42
217.633	22.39
217.852	14.91
218.072	19.22
218.291	43.44
218.511	38.56
218.73	36.43
218.95	31.62
219.169	41.1
219.389	43.99
219.608	49.44
219.827	36.28
220.047	38.29
220.266	44.66
220.485	48.35
220.705	31.65
220.924	37.33
221.143	34.42
221.363	42.64
221.582	42.02
221.801	31.5
222.021	33.43
222.24	34.09
222.459	22.29
222.678	13.34
222.897	20.59
223.117	21.47
223.336	20.13
223.555	5.13
223.774	13.1
223.993	13.26
224.213	16.83
224.432	13.22
224.651	1.91
224.87	16.24
225.089	22.9
225.308	26.48
225.527	28.84
225.746	41.38
225.965	34.53
226.184	39.88
226.404	25.5
226.623	35.52
226.842	24.73
227.061	27.83
227.28	28.88
227.499	36.77
227.718	32.34
227.936	33.76
228.155	26.6
228.374	34.14
228.593	25.07
228.812	17.75
229.031	7.12
229.25	23.82
229.469	34.05
229.688	38.61
229.907	36.03
230.125	48.08
230.344	50.57
230.563	54.67
230.782	44.25
231.001	39.86
231.22	32.54
231.438	33.02
231.657	34.72
231.876	28.83
232.095	22.16
232.313	24.9
232.532	21.57
232.751	35.23
232.969	30.16
233.188	32.93
233.407	30.49
233.625	36.96
233.844	45.9
234.063	43.05
234.281	29.53
234.5	27.75
234.719	22.29
234.937	26.24
235.156	18.42
235.374	6.7
235.593	3.39
235.811	1.96
236.03	-4.39
236.249	0.03
236.467	7.4
236.686	18.33
236.904	12.3
237.123	35.4
237.341	31.51
237.559	35.93
237.778	39.41
237.996	41.4
238.215	35.53
238.433	46.42
238.652	34.58
238.87	35.79
239.088	28.68
239.307	30.15
239.525	24.85
239.743	16.91
239.962	13.71
240.18	18.59
240.398	30.57
240.617	43.48
240.835	35.92
241.053	46.57
241.271	56.99
241.49	41.57
241.708	46.5
241.926	36.9
242.144	28.72
242.363	33.34
242.581	29.48
242.799	22.98
243.017	32.75
243.235	21.91
243.453	21.96
243.672	15.67
243.89	19.4
244.108	10.2
244.326	1.84
244.544	2.72
244.762	5.37
244.98	9.74
245.198	7.73
245.416	7.77
245.634	24.04
245.852	38.01
246.07	41.28
246.288	54.81
246.506	51.19
246.724	63.38
246.942	58.34
247.16	43.9
247.378	27.77
247.596	28.09
247.814	17.13
248.032	14.51
248.25	14.33
248.468	19.3
248.685	31.39
248.903	38.12
249.121	38.59
249.339	42.72
249.557	45.87
249.775	36.21
249.992	20.32
250.21	1.67
250.428	6.77
250.646	4.04
250.863	-0.53
251.081	-6.57
251.299	2.91
251.517	18.82
251.734	27.06
251.952	27.95
252.17	17.03
252.387	24.18
252.605	27.54
252.823	21.74
253.04	8.57
253.258	23.72
253.475	13.18
253.693	29.33
253.911	31.59
254.128	23.72
254.346	20.91
254.563	21.35
254.781	17.72
254.998	21.95
255.216	18.86
255.433	19.95
255.651	30.1
255.868	40.62
256.086	49.31
256.303	44.78
256.521	39.72
256.738	46.61
256.956	38.01
257.173	39.16
257.39	39.19
257.608	36.38
257.825	37.32
258.043	40.87
258.26	26.62
258.477	29.29
258.695	23.78
258.912	24.28
259.129	18.54
259.346	17.46
259.564	19.81
259.781	41.87
259.998	42.24
260.216	42.71
260.433	33.93
260.65	37.18
260.867	33.09
261.084	38.57
261.302	16.45
261.519	12.35
261.736	13.93
261.953	27.35
262.17	27.88
262.387	27.41
262.604	4.24
262.822	21.4
263.039	22.55
263.256	18.09
263.473	-1.3
263.69	-2.89
263.907	4.13
264.124	13.52
264.341	-2.01
264.558	1.5
264.775	8.85
264.992	19.18
265.209	28.59
265.426	23.33
265.643	22.53
265.86	22.25
266.077	23.01
266.294	18.89
266.51	13.9
266.727	-3.93
266.944	-50.19
267.161	-56.93
267.378	-52.77
267.595	-53.01
267.812	-57.73
268.028	-51.08
268.245	-43.53
268.462	12.31
268.679	7.35
268.896	1.17
269.112	16.81
269.329	25.16
269.546	27.39
269.763	29.98
269.979	22.98
270.196	36.36
270.413	39.33
270.629	25.31
270.846	23.28
271.063	19.4
271.279	19.6
271.496	10.49
271.712	5.57
271.929	10.74
272.146	13.43
272.362	-19.28
272.579	-12.53
272.795	-16.93
273.012	1.57
273.228	-0.4
273.445	-2.6
273.661	1.85
273.878	28.88
274.094	34.8
274.311	30.95
274.527	20.7
274.744	19.96
274.96	17.85
275.177	19.55
275.393	5.46
275.609	2.32
275.826	6.53
276.042	17.95
276.259	15.9
276.475	13.78
276.691	14.69
276.908	23.86
277.124	25.62
277.34	26.07
277.557	20.27
277.773	20.08
277.989	26.28
278.205	11.56
278.422	20.47
278.638	15.66
278.854	8.08
279.07	-4.11
279.286	-9.65
279.503	-16.99
279.719	7.51
279.935	-13.91
280.151	-1.66
280.367	0.02
280.583	11.41
280.799	27.56
281.016	33.16
281.232	23.13
281.448	36.39
281.664	29.53
281.88	41.26
282.096	37.25
282.312	20.66
282.528	8.93
282.744	8.84
282.96	10.22
283.176	9.86
283.392	17.11
283.608	16.6
283.824	18.3
284.04	29.77
284.256	34.57
284.471	31.9
284.687	33.75
284.903	25.66
285.119	27.12
285.335	30.64
285.551	34.7
285.767	30.77
285.982	22.7
286.198	21.27
286.414	29.2
286.63	31.12
286.846	27.4
287.061	29.08
287.277	38.21
287.493	43.18
287.709	37.62
287.924	30.35
288.14	33.06
288.356	34.32
288.571	18.12
288.787	16.66
289.003	13.18
289.218	20.26
289.434	22.12
289.65	21.6
289.865	27.87
290.081	27.72
290.296	29.17
290.512	36.65
290.727	37.41
290.943	33.34
291.159	27.65
291.374	26.31
291.59	23.26
291.805	14.15
292.021	3.63
292.236	7.43
292.451	16.33
292.667	17.21
292.882	9.29
293.098	18.84
293.313	16.63
293.529	21.98
293.744	24.82
293.959	28.24
294.175	31.03
294.39	41.29
294.605	38.19
294.821	39.03
295.036	44.41
295.251	34.64
295.467	18.19
295.682	20.88
295.897	20.63
296.112	21.56
296.328	23.94
296.543	9.93
296.758	3.91
296.973	1.73
297.188	-3.43
297.404	-0.24
297.619	-7.74
297.834	-4
298.049	5.12
298.264	10.09
298.479	12.18
298.694	12.25
298.909	7.21
299.125	12.23
299.34	11.14
299.555	13.92
299.77	15.83
299.985	12.04
300.2	17.68
300.415	19.18
300.63	16.41
300.845	16.27
301.06	18.3
301.275	20.04
301.49	30.51
301.704	22.64
301.919	16.25
302.134	19.54
302.349	17.66
302.564	11.98
302.779	11.97
302.994	-3.95
303.209	-2.31
303.423	11.58
303.638	10.11
303.853	8.1
304.068	16.2
304.283	16.25
304.497	20.98
304.712	27.6
304.927	25.12
305.142	22.59
305.356	26.86
305.571	28.14
305.786	26.01
306	34.72
306.215	33.9
306.43	36.41
306.644	36.01
306.859	34.08
307.074	34.12
307.288	42.59
307.503	35.98
307.717	34.6
307.932	27.19
308.147	23.01
308.361	29.92
308.576	22.67
308.79	11.04
309.005	11.84
309.219	18.15
309.434	24.03
309.648	17.15
309.863	11.23
310.077	9.96
310.292	14.55
310.506	20.46
310.72	15.66
310.935	8.23
311.149	23.31
311.364	26.64
311.578	34.42
311.792	34.93
312.007	36.45
312.221	31.88
312.435	34.04
312.649	48.62
312.864	40.23
313.078	30.56
313.292	35.25
313.507	30.53
313.721	34.59
313.935	47.36
314.149	39.17
314.363	54.46
314.578	55.7
314.792	50.07
315.006	44.28
315.22	45.89
315.434	36.73
315.648	21.05
315.862	8.45
316.077	7.23
316.291	9.16
316.505	13.71
316.719	-1.9
316.933	4.18
317.147	19.26
317.361	27.82
317.575	29.43
317.789	30.7
318.003	29.37
318.217	35.53
318.431	31.79
318.645	28.3
318.859	16.26
319.073	13.1
319.287	10.37
319.5	13.09
319.714	11.52
319.928	19.74
320.142	15.41
320.356	27.36
320.57	25.43
320.784	27.7
320.997	20.65
321.211	25.42
321.425	16.4
321.639	20.97
321.853	16.95
322.066	22.48
322.28	19.73
322.494	16.14
322.707	19.01
322.921	23.42
323.135	43.19
323.349	41.86
323.562	32.77
323.776	35.49
323.989	44.5
324.203	41.2
324.417	36.48
324.63	18.46
324.844	17.07
325.057	30.64
325.271	29.05
325.485	31.33
325.698	26.07
325.912	37.69
326.125	33.72
326.339	40.06
326.552	36.59
326.766	37.43
326.979	40.11
327.193	44.86
327.406	42.97
327.619	37.64
327.833	31.33
328.046	33.36
328.26	37.31
328.473	27.62
328.686	24.88
328.9	14.86
329.113	19.69
329.326	28.81
329.54	20.34
329.753	23.47
329.966	19.34
330.179	25.73
330.393	28.39
330.606	31.99
330.819	31.72
331.032	41.38
331.246	39.78
331.459	49.47
331.672	41.36
331.885	41.06
332.098	37.22
332.311	24.79
332.525	24.74
332.738	20.49
332.951	12.97
333.164	9.34
333.377	-2.77
333.59	7.3
333.803	13.53
334.016	4.77
334.229	19.49
334.442	32.41
334.655	38.66
334.868	47.93
335.081	46.84
335.294	34.24
335.507	36.06
335.72	22.75
335.933	17.9
336.146	20.86
336.359	15.84
336.572	13.88
336.785	26.1
336.997	21.46
337.21	31.29
337.423	27.38
337.636	24.24
337.849	23.14
338.062	27.65
338.274	27.41
338.487	23.89
338.7	25.26
338.913	27.07
339.125	26.62
339.338	37.41
339.551	30.89
339.763	30
339.976	30
340.189	22.54
340.402	18.92
340.614	16.21
340.827	-3.36
341.039	-1.57
341.252	-3.06
341.465	-0.95
341.677	-3.61
341.89	5
342.102	15.03
342.315	31.31
342.527	18.38
342.74	21.22
342.952	23.61
343.165	39.89
343.377	41.55
343.59	36.29
343.802	39.71
344.015	51.87
344.227	40.27
344.44	34.72
344.652	23.63
344.864	18.9
345.077	20.91
345.289	15.6
345.502	14.04
345.714	19.31
345.926	16.1
346.139	20.6
346.351	17.23
346.563	20.66
346.775	17.17
346.988	14.9
347.2	15.95
347.412	20.01
347.624	16.27
347.837	18.42
348.049	14.38
348.261	12.37
348.473	4.89
348.685	3.21
348.897	3.35
349.11	6.84
349.322	7.09
349.534	6.75
349.746	20.42
349.958	33.64
350.17	37.03
350.382	27.35
350.594	25.87
350.806	28.3
351.018	27.04
351.23	24.74
351.442	17.4
351.654	21.92
351.866	26.42
352.078	28.06
352.29	25.43
352.502	25.2
352.714	21.42
352.926	22.98
353.138	21.7
353.35	18.06
353.561	15.51
353.773	18.96
353.985	20.61
354.197	16.51
354.409	17.02
354.621	21.95
354.832	13.2
355.044	15.58
355.256	12.3
355.468	5.51
355.679	9.51
355.891	7.61
356.103	7.35
356.314	15.72
356.526	18.91
356.738	13.24
356.949	24.72
357.161	26.42
357.373	37.76
357.584	41.05
357.796	44.87
358.008	40.04
358.219	52.93
358.431	47.15
358.642	43.08
358.854	35.27
359.065	27.81
359.277	22.65
359.488	15.51
359.7	10.61
359.911	6.08
360.123	10.45
360.334	6.47
360.546	-4.02
360.757	6.17
360.969	18.62
361.18	11.16
361.391	17.49
361.603	17.15
361.814	19.39
362.025	28.88
362.237	24.85
362.448	18.35
362.659	8.55
362.871	11.51
363.082	12
363.293	16.39
363.504	17.57
363.716	12.97
363.927	15.14
364.138	29.12
364.349	25.34
364.56	24.03
364.772	22.81
364.983	19.36
365.194	18.84
365.405	18.54
365.616	1.19
365.827	3.66
366.038	11.41
366.25	12.63
366.461	18.14
366.672	17.74
366.883	19.63
367.094	27.18
367.305	19.64
367.516	18.93
367.727	17.49
367.938	14.65
368.149	22.12
368.36	21.49
368.571	21.07
368.781	24.69
368.992	24.57
369.203	23.98
369.414	20.19
369.625	17.93
369.836	15.8
370.047	14.29
370.258	13.09
370.468	9.89
370.679	15.34
370.89	31.4
371.101	31.9
371.312	31.19
371.522	35.79
371.733	30.85
371.944	31.08
372.155	24.4
372.365	9.97
372.576	2.18
372.787	-0.41
372.997	-3.45
373.208	3.42
373.419	-2.24
373.629	4.51
373.84	-0.92
374.05	11.24
374.261	11.79
374.472	9.41
374.682	2.08
374.893	-1
375.103	0.02
375.314	3.88
375.524	-2.2
375.735	-1.41
375.945	2.5
376.156	10.38
376.366	19.46
376.577	19.34
376.787	22.57
376.997	28.37
377.208	29.03
377.418	29.44
377.629	37.34
377.839	35.93
378.049	36.11
378.26	34.27
378.47	34.61
378.68	33.42
378.89	32.89
379.101	17.1
379.311	10.88
379.521	17.56
379.732	15.69
379.942	14.32
380.152	19.82
380.362	16.62
380.572	20.77
380.783	21.9
380.993	13.9
381.203	10.83
381.413	10.46
381.623	10.42
381.833	11.56
382.043	11.38
382.253	17.6
382.463	19.73
382.674	20.01
382.884	18.63
383.094	19.14
383.304	15.48
383.514	19.45
383.724	16.77
383.934	13.1
384.144	18.34
384.353	20.91
384.563	14.88
384.773	16.53
384.983	14.77
385.193	14.83
385.403	17.82
385.613	11.68
385.823	10.32
386.033	11.58
386.242	11.56
386.452	10.84
386.662	7.53
386.872	5.19
387.082	9.23
387.291	8.14
387.501	8.31
387.711	9.52
387.921	6.7
388.13	5.11
388.34	6.23
388.55	5.37
388.759	4.15
388.969	1.69
389.179	1.87
389.388	4.12
389.598	5.8
389.807	5.43
390.017	3.17
390.227	3.21
390.436	4.37
390.646	3.46
390.855	2.41
391.065	2.79
391.274	1.74
391.484	3.49
391.693	3.53
391.903	2.19
392.112	2.3
392.322	4.37
392.531	3.87
392.74	3.55
392.95	3.4
393.159	3.7
393.369	5.03
393.578	5.27
393.787	4.03
393.997	4.76
394.206	5.2
394.415	5.31
394.625	4.36
394.834	3.39
395.043	3.41
395.252	4.78
395.462	4.14
395.671	3.95
395.88	3.89
396.089	4.12
396.298	4.42
396.508	3.88
396.717	2.51
396.926	2.67
397.135	2.57
397.344	2.3
397.553	2.53
397.762	2.28
397.971	1.98
398.181	2.09
398.39	1.84
398.599	2.09
398.808	2.01
399.017	2.01
399.226	2.46
399.435	2.78
399.644	2.75
399.853	2.83
400.062	2.64
400.27	2.84
400.479	2.82
400.688	2.67
400.897	2.61
401.106	2.8
401.315	2.74
401.524	2.86
401.733	2.83
401.941	2.7
402.15	2.51
402.359	2.5
402.568	2.34
402.777	2.28
402.985	2.21
403.194	2.16
403.403	1.99
403.612	1.99
403.82	2.09
404.029	2.18
404.238	2.2
404.446	2.13
404.655	2.06
404.864	2.16
405.072	2.23
405.281	2.09
405.489	2.02
405.698	1.97
405.906	1.96
406.115	2.02
406.324	1.96
406.532	2.01
406.741	2.15
406.949	2.1
407.158	2.15
407.366	2.17
407.574	2.13
407.783	2.11
407.991	2.03
408.2	1.89
408.408	1.92
408.617	1.85
408.825	1.85
409.033	1.83
409.242	1.8
409.45	1.74
409.658	1.79
409.867	1.76
410.075	1.74
410.283	1.67
410.491	1.64
410.7	1.69
410.908	1.72
411.116	1.63
411.324	1.66
411.533	1.63
411.741	1.67
411.949	1.68
412.157	1.76
412.365	1.72
412.573	1.82
412.781	1.84
412.99	1.94
413.198	1.95
413.406	1.96
413.614	1.9
413.822	1.89
414.03	1.79
414.238	1.79
414.446	1.7
414.654	1.73
414.862	1.69
415.07	1.75
415.278	1.8
415.486	1.9
415.694	1.8
415.902	1.82
416.109	1.76
416.317	1.8
416.525	1.76
416.733	1.79
416.941	1.65
417.149	1.77
417.357	1.81
417.564	1.81
417.772	1.78
417.98	1.69
418.188	1.57
418.395	1.65
418.603	1.55
418.811	1.48
419.019	1.49
419.226	1.54
419.434	1.6
419.642	1.64
419.849	1.63
420.057	1.65
420.265	1.72
420.472	1.71
420.68	1.62
420.887	1.61
421.095	1.66
421.302	1.69
421.51	1.74
421.717	1.74
421.925	1.67
422.132	1.68
422.34	1.65
422.547	1.57
422.755	1.55
422.962	1.47
423.17	1.43
423.377	1.54
423.585	1.49
423.792	1.5
423.999	1.51
424.207	1.43
424.414	1.48
424.621	1.46
424.829	1.35
425.036	1.42
425.243	1.52
425.451	1.52
425.658	1.54
425.865	1.5
426.072	1.49
426.28	1.53
426.487	1.48
426.694	1.4
426.901	1.37
427.108	1.53
427.315	1.53
427.523	1.6
427.73	1.66
427.937	1.71
428.144	1.71
428.351	1.82
428.558	1.65
428.765	1.54
428.972	1.5
429.179	1.42
429.386	1.41
429.593	1.41
429.8	1.38
430.007	1.45
430.214	1.6
430.421	1.62
430.628	1.59
430.835	1.59
431.042	1.62
431.249	1.59
431.456	1.61
431.662	1.57
431.869	1.59
432.076	1.6
432.283	1.53
432.49	1.46
432.697	1.42
432.903	1.42
433.11	1.43
433.317	1.42
433.524	1.41
433.73	1.47
433.937	1.47
434.144	1.59
434.35	1.53
434.557	1.48
434.764	1.51
434.97	1.57
435.177	1.61
435.384	1.67
435.59	1.58
435.797	1.63
436.003	1.71
436.21	1.67
436.416	1.68
436.623	1.72
436.829	1.7
437.036	1.75
437.242	1.74
437.449	1.71
437.655	1.71
437.862	1.72
438.068	1.74
438.275	1.73
438.481	1.79
438.687	1.86
438.894	1.89
439.1	1.92
439.307	1.89
439.513	1.84
439.719	1.93
439.926	1.94
440.132	1.87
440.338	1.93
440.544	1.91
440.751	1.91
440.957	1.89
441.163	1.86
441.369	1.83
441.575	1.82
441.782	1.75
441.988	1.75
442.194	1.85
442.4	1.89
442.606	1.91
442.812	1.92
443.018	1.96
443.224	1.99
443.431	2
443.637	1.91
443.843	1.91
444.049	1.85
444.255	1.8
444.461	1.78
444.667	1.79
444.873	1.8
445.079	1.86
445.284	1.83
445.49	1.87
445.696	1.93
445.902	2.01
446.108	2
446.314	2.01
446.52	2
446.726	2.03
446.931	2.04
447.137	1.99
447.343	1.94
447.549	1.9
447.755	1.88
447.96	1.83
448.166	1.86
448.372	1.81
448.578	1.87
448.783	1.83
448.989	1.9
449.195	1.96
449.4	2.01
449.606	1.99
449.812	2.03
450.017	1.99
450.223	2.01
450.428	2.01
450.634	2
450.84	2.01
451.045	2.01
451.251	2.05
451.456	2.02
451.662	1.99
451.867	1.95
452.073	1.9
452.278	1.91
452.483	1.9
452.689	1.83
452.894	1.84
453.1	1.82
453.305	1.85
453.51	1.88
453.716	1.88
453.921	1.9
454.127	1.97
454.332	1.99
454.537	2.07
454.742	2.01
454.948	2.03
455.153	1.99
455.358	2.01
455.563	2.02
455.769	2.01
455.974	2
456.179	2.04
456.384	2.02
456.589	2.11
456.795	2.04
457	2.02
457.205	1.98
457.41	2.01
457.615	2.04
457.82	2.1
458.025	2.05
458.23	2.1
458.435	2.07
458.64	2.18
458.845	2.11
459.05	2.08
459.255	1.99
459.46	1.98
459.665	2.03
459.87	2.08
460.075	2.06
460.28	2.13
460.485	2.19
460.69	2.2
460.895	2.25
461.099	2.21
461.304	2.24
461.509	2.12
461.714	2.14
461.919	2.09
462.123	2.16
462.328	2.14
462.533	2.12
462.738	2.11
462.942	2.18
463.147	2.14
463.352	2.17
463.556	2.21
463.761	2.2
463.966	2.27
464.17	2.27
464.375	2.32
464.58	2.3
464.784	2.3
464.989	2.24
465.193	2.3
465.398	2.27
465.602	2.27
465.807	2.28
466.011	2.33
466.216	2.29
466.42	2.3
466.625	2.27
466.829	2.31
467.034	2.31
467.238	2.28
467.443	2.29
467.647	2.34
467.851	2.36
468.056	2.34
468.26	2.32
468.464	2.35
468.669	2.38
468.873	2.38
469.077	2.4
469.282	2.42
469.486	2.45
469.69	2.45
469.894	2.46
470.099	2.49
470.303	2.48
470.507	2.48
470.711	2.44
470.915	2.46
471.119	2.45
471.324	2.47
471.528	2.47
471.732	2.48
471.936	2.51
472.14	2.55
472.344	2.57
472.548	2.63
472.752	2.67
472.956	2.72
473.16	2.7
473.364	2.66
473.568	2.68
473.772	2.72
473.976	2.69
474.18	2.65
474.384	2.59
474.588	2.63
474.792	2.65
474.995	2.65
475.199	2.65
475.403	2.68
475.607	2.7
475.811	2.72
476.015	2.78
476.218	2.77
476.422	2.79
476.626	2.76
476.83	2.73
477.033	2.78
477.237	2.8
477.441	2.8
477.644	2.86
477.848	2.85
478.052	2.87
478.255	2.9
478.459	2.89
478.663	2.86
478.866	2.83
479.07	2.84
479.273	2.83
479.477	2.84
479.681	2.84
479.884	2.81
480.088	2.85
480.291	2.87
480.495	2.88
480.698	2.87
480.901	2.88
481.105	2.92
481.308	2.93
481.512	2.95
481.715	2.97
481.919	2.98
482.122	3.04
482.325	3.05
482.529	3.09
482.732	3.14
482.935	3.17
483.138	3.17
483.342	3.23
483.545	3.21
483.748	3.24
483.952	3.22
484.155	3.26
484.358	3.27
484.561	3.34
484.764	3.37
484.967	3.41
485.171	3.41
485.374	3.43
485.577	3.47
485.78	3.51
485.983	3.49
486.186	3.46
486.389	3.49
486.592	3.56
486.795	3.57
486.998	3.56
487.201	3.59
487.404	3.67
487.607	3.72
487.81	3.79
488.013	3.8
488.216	3.89
488.419	3.95
488.622	3.97
488.825	3.98
489.028	4.03
489.231	4.1
489.433	4.18
489.636	4.22
489.839	4.28
490.042	4.37
490.245	4.45
490.447	4.54
490.65	4.58
490.853	4.65
491.056	4.72
491.258	4.78
491.461	4.84
491.664	4.91
491.866	5.02
492.069	5.13
492.272	5.21
492.474	5.33
492.677	5.45
492.879	5.58
493.082	5.71
493.285	5.84
493.487	5.92
493.69	6.06
493.892	6.2
494.095	6.26
494.297	6.4
494.5	6.53
494.702	6.58
494.905	6.68
495.107	6.78
495.309	6.86
495.512	7.04
495.714	7.19
495.917	7.3
496.119	7.49
496.321	7.67
496.524	7.81
496.726	7.93
496.928	8.07
497.13	8.18
497.333	8.34
497.535	8.4
497.737	8.5
497.939	8.61
498.142	8.72
498.344	8.84
498.546	8.99
498.748	9.03
498.95	9.16
499.152	9.23
499.355	9.32
499.557	9.46
499.759	9.59
499.961	9.64
500.163	9.76
500.365	9.85
500.567	9.93
500.769	10.04
500.971	10.05
501.173	10.03
501.375	10.07
501.577	10.12
501.779	10.17
501.981	10.21
502.183	10.16
502.385	10.2
502.587	10.22
502.788	10.21
502.99	10.18
503.192	10.14
503.394	10.17
503.596	10.17
503.798	10.25
503.999	10.24
504.201	10.24
504.403	10.24
504.605	10.25
504.806	10.23
505.008	10.22
505.21	10.11
505.411	10.09
505.613	10.06
505.815	10.05
506.016	10.01
506.218	9.96
506.42	9.91
506.621	9.87
506.823	9.86
507.024	9.77
507.226	9.7
507.427	9.62
507.629	9.54
507.83	9.45
508.032	9.37
508.233	9.29
508.435	9.22
508.636	9.15
508.838	9.11
509.039	9.09
509.24	9.06
509.442	8.99
509.643	8.92
509.845	8.92
510.046	8.85
510.247	8.81
510.448	8.76
510.65	8.7
510.851	8.65
511.052	8.59
511.254	8.48
511.455	8.44
511.656	8.34
511.857	8.25
512.058	8.25
512.26	8.18
512.461	8.16
512.662	8.14
512.863	8.07
513.064	8.03
513.265	8
513.466	7.96
513.667	7.93
513.868	7.85
514.069	7.82
514.27	7.82
514.471	7.81
514.672	7.76
514.873	7.72
515.074	7.71
515.275	7.68
515.476	7.65
515.677	7.62
515.878	7.64
516.079	7.64
516.28	7.59
516.481	7.53
516.682	7.51
516.882	7.47
517.083	7.43
517.284	7.31
517.485	7.27
517.686	7.27
517.886	7.25
518.087	7.26
518.288	7.23
518.488	7.21
518.689	7.23
518.89	7.24
519.091	7.22
519.291	7.21
519.492	7.18
519.692	7.2
519.893	7.16
520.094	7.13
520.294	7.06
520.495	7.03
520.695	7
520.896	6.96
521.096	6.92
521.297	6.92
521.497	6.93
521.698	6.92
521.898	6.92
522.099	6.93
522.299	6.93
522.499	6.92
522.7	6.93
522.9	6.88
523.101	6.91
523.301	6.91
523.501	6.91
523.702	6.88
523.902	6.85
524.102	6.83
524.302	6.86
524.503	6.82
524.703	6.82
524.903	6.81
525.103	6.81
525.304	6.82
525.504	6.81
525.704	6.76
525.904	6.78
526.104	6.74
526.304	6.73
526.504	6.73
526.705	6.72
526.905	6.7
527.105	6.71
527.305	6.67
527.505	6.69
527.705	6.68
527.905	6.67
528.105	6.68
528.305	6.67
528.505	6.68
528.705	6.71
528.905	6.69
529.105	6.72
529.304	6.71
529.504	6.7
529.704	6.71
529.904	6.71
530.104	6.69
530.304	6.73
530.503	6.71
530.703	6.76
530.903	6.77
531.103	6.77
531.303	6.8
531.502	6.8
531.702	6.78
531.902	6.78
532.101	6.79
532.301	6.81
532.501	6.84
532.7	6.84
532.9	6.87
533.1	6.85
533.299	6.88
533.499	6.88
533.698	6.88
533.898	6.88
534.097	6.89
534.297	6.89
534.496	6.92
534.696	6.9
534.895	6.92
535.095	6.94
535.294	6.92
535.494	6.9
535.693	6.91
535.892	6.92
536.092	6.92
536.291	6.93
536.491	6.91
536.69	6.93
536.889	6.97
537.088	6.94
537.288	6.98
537.487	6.98
537.686	6.97
537.886	6.99
538.085	7.04
538.284	7.05
538.483	7.09
538.682	7.07
538.882	7.08
539.081	7.09
539.28	7.1
539.479	7.06
539.678	7.11
539.877	7.09
540.076	7.13
540.275	7.15
540.474	7.14
540.673	7.2
540.872	7.25
541.071	7.21
541.27	7.22
541.469	7.23
541.668	7.25
541.867	7.3
542.066	7.26
542.265	7.26
542.464	7.29
542.663	7.31
542.862	7.27
543.06	7.25
543.259	7.21
543.458	7.21
543.657	7.21
543.856	7.21
544.054	7.27
544.253	7.31
544.452	7.34
544.651	7.38
544.849	7.41
545.048	7.44
545.247	7.45
545.445	7.41
545.644	7.42
545.843	7.44
546.041	7.47
546.24	7.5
546.438	7.54
546.637	7.59
546.836	7.62
547.034	7.65
547.233	7.69
547.431	7.71
547.63	7.76
547.828	7.77
548.027	7.78
548.225	7.85
548.423	7.88
548.622	7.92
548.82	7.97
549.019	7.96
549.217	8.03
549.415	8.06
549.614	8.07
549.812	8.07
550.01	8.11
550.209	8.15
550.407	8.22
550.605	8.24
550.803	8.31
551.002	8.36
551.2	8.42
551.398	8.42
551.596	8.44
551.794	8.46
551.993	8.45
552.191	8.51
552.389	8.55
552.587	8.56
552.785	8.63
552.983	8.68
553.181	8.7
553.379	8.77
553.577	8.81
553.775	8.84
553.973	8.94
554.171	9
554.369	9.05
554.567	9.13
554.765	9.15
554.963	9.17
555.161	9.24
555.359	9.25
555.557	9.28
555.755	9.33
555.952	9.36
556.15	9.43
556.348	9.47
556.546	9.52
556.744	9.58
556.941	9.69
557.139	9.74
557.337	9.83
557.535	9.88
557.732	9.95
557.93	10
558.128	10.07
558.325	10.13
558.523	10.21
558.721	10.28
558.918	10.37
559.116	10.43
559.313	10.51
559.511	10.56
559.708	10.63
559.906	10.66
560.104	10.73
560.301	10.74
560.498	10.83
560.696	10.87
560.893	10.95
561.091	11.05
561.288	11.15
561.486	11.24
561.683	11.33
561.88	11.41
562.078	11.49
562.275	11.61
562.473	11.63
562.67	11.67
562.867	11.72
563.064	11.85
563.262	11.94
563.459	12.05
563.656	12.13
563.853	12.27
564.051	12.37
564.248	12.48
564.445	12.52
564.642	12.58
564.839	12.67
565.036	12.78
565.234	12.86
565.431	12.96
565.628	13.04
565.825	13.15
566.022	13.24
566.219	13.31
566.416	13.35
566.613	13.39
566.81	13.48
567.007	13.56
567.204	13.65
567.401	13.76
567.598	13.81
567.795	13.88
567.991	13.96
568.188	14.02
568.385	14.13
568.582	14.23
568.779	14.28
568.976	14.4
569.172	14.53
569.369	14.6
569.566	14.67
569.763	14.73
569.96	14.78
570.156	14.85
570.353	14.89
570.55	14.93
570.746	15
570.943	15.11
571.14	15.18
571.336	15.23
571.533	15.31
571.729	15.39
571.926	15.46
572.123	15.5
572.319	15.55
572.516	15.62
572.712	15.71
572.909	15.81
573.105	15.92
573.302	15.98
573.498	16.09
573.695	16.18
573.891	16.19
574.087	16.22
574.284	16.21
574.48	16.16
574.677	16.28
574.873	16.34
575.069	16.41
575.266	16.51
575.462	16.57
575.658	16.68
575.854	16.79
576.051	16.75
576.247	16.81
576.443	16.82
576.639	16.84
576.835	16.87
577.032	16.87
577.228	16.93
577.424	17.05
577.62	17.12
577.816	17.2
578.012	17.26
578.208	17.34
578.404	17.45
578.6	17.52
578.796	17.55
578.993	17.56
579.189	17.52
579.384	17.54
579.58	17.54
579.776	17.5
579.972	17.49
580.168	17.47
580.364	17.48
580.56	17.53
580.756	17.55
580.952	17.61
581.148	17.66
581.343	17.7
581.539	17.73
581.735	17.7
581.931	17.75
582.127	17.75
582.322	17.76
582.518	17.75
582.714	17.72
582.909	17.76
583.105	17.76
583.301	17.7
583.496	17.69
583.692	17.64
583.888	17.61
584.083	17.64
584.279	17.6
584.474	17.64
584.67	17.69
584.866	17.74
585.061	17.77
585.257	17.82
585.452	17.8
585.648	17.83
585.843	17.84
586.039	17.83
586.234	17.82
586.429	17.83
586.625	17.76
586.82	17.73
587.015	17.68
587.211	17.68
587.406	17.69
587.601	17.67
587.797	17.63
587.992	17.66
588.187	17.74
588.383	17.77
588.578	17.73
588.773	17.7
588.968	17.76
589.163	17.8
589.359	17.83
589.554	17.82
589.749	17.84
589.944	17.92
590.139	17.97
590.334	17.95
590.529	17.98
590.724	17.99
590.919	18.07
591.114	18.08
591.309	18.11
591.504	18.13
591.699	18.17
591.894	18.19
592.089	18.27
592.284	18.22
592.479	18.2
592.674	18.22
592.869	18.27
593.064	18.33
593.259	18.39
593.454	18.42
593.648	18.49
593.843	18.58
594.038	18.6
594.233	18.69
594.428	18.75
594.622	18.75
594.817	18.83
595.012	18.9
595.206	18.95
595.401	18.99
595.596	19.01
595.79	19.05
595.985	19.18
596.18	19.25
596.374	19.3
596.569	19.38
596.763	19.48
596.958	19.52
597.153	19.6
597.347	19.6
597.542	19.66
597.736	19.77
597.931	19.88
598.125	19.98
598.319	20.09
598.514	20.1
598.708	20.2
598.903	20.24
599.097	20.27
599.291	20.3
599.486	20.27
599.68	20.29
599.874	20.4
600.069	20.46
600.263	20.47
600.457	20.49
600.651	20.52
600.846	20.6
601.04	20.65
601.234	20.68
601.428	20.68
601.622	20.72
601.817	20.73
602.011	20.79
602.205	20.83
602.399	20.86
602.593	20.84
602.787	20.85
602.981	20.88
603.175	20.87
603.369	20.9
603.563	20.88
603.757	20.89
603.951	20.93
604.145	20.92
604.339	20.93
604.533	20.96
604.727	20.91
604.921	20.87
605.115	20.82
605.309	20.82
605.502	20.83
605.696	20.77
605.89	20.81
606.084	20.78
606.278	20.75
606.471	20.73
606.665	20.62
606.859	20.56
607.053	20.57
607.246	20.45
607.44	20.44
607.634	20.37
607.827	20.31
608.021	20.29
608.214	20.25
608.408	20.18
608.602	20.12
608.795	20.04
608.989	20.05
609.182	20.06
609.376	20
609.569	19.97
609.763	19.95
609.956	19.92
610.15	19.86
610.343	19.82
610.537	19.74
610.73	19.66
610.923	19.55
611.117	19.48
611.31	19.41
611.504	19.34
611.697	19.28
611.89	19.23
612.083	19.19
612.277	19.17
612.47	19.11
612.663	19.04
612.856	18.97
613.05	18.89
613.243	18.75
613.436	18.65
613.629	18.62
613.822	18.51
614.015	18.44
614.209	18.43
614.402	18.39
614.595	18.37
614.788	18.35
614.981	18.24
615.174	18.17
615.367	18.1
615.56	17.99
615.753	17.93
615.946	17.88
616.139	17.86
616.332	17.83
616.525	17.83
616.718	17.81
616.911	17.77
617.103	17.72
617.296	17.7
617.489	17.67
617.682	17.6
617.875	17.54
618.067	17.48
618.26	17.46
618.453	17.39
618.646	17.31
618.838	17.24
619.031	17.22
619.224	17.23
619.417	17.19
619.609	17.17
619.802	17.15
619.994	17.14
620.187	17.1
620.38	17.09
620.572	17.04
620.765	17.06
620.957	17
621.15	16.95
621.342	16.96
621.535	16.99
621.727	16.95
621.92	16.91
622.112	16.88
622.305	16.86
622.497	16.84
622.69	16.78
622.882	16.72
623.074	16.7
623.267	16.69
623.459	16.65
623.651	16.67
623.844	16.72
624.036	16.71
624.228	16.71
624.42	16.7
624.613	16.66
624.805	16.64
624.997	16.61
625.189	16.57
625.381	16.56
625.574	16.51
625.766	16.46
625.958	16.44
626.15	16.46
626.342	16.45
626.534	16.42
626.726	16.41
626.918	16.34
627.11	16.33
627.302	16.35
627.494	16.28
627.686	16.22
627.878	16.18
628.07	16.09
628.262	16.12
628.454	16.11
628.646	16.01
628.838	16
629.029	15.96
629.221	15.94
629.413	15.91
629.605	15.84
629.797	15.8
629.989	15.83
630.18	15.79
630.372	15.81
630.564	15.82
630.755	15.82
630.947	15.81
631.139	15.76
631.33	15.74
631.522	15.68
631.714	15.6
631.905	15.53
632.097	15.48
632.289	15.44
632.48	15.41
632.672	15.34
632.863	15.33
633.055	15.36
633.246	15.35
633.438	15.34
633.629	15.39
633.821	15.44
634.012	15.43
634.203	15.44
634.395	15.43
634.586	15.41
634.777	15.44
634.969	15.39
635.16	15.33
635.351	15.36
635.543	15.3
635.734	15.22
635.925	15.26
636.117	15.24
636.308	15.2
636.499	15.2
636.69	15.22
636.881	15.27
637.073	15.31
637.264	15.23
637.455	15.25
637.646	15.29
637.837	15.3
638.028	15.29
638.219	15.3
638.41	15.32
638.601	15.33
638.792	15.3
638.983	15.23
639.174	15.22
639.365	15.13
639.556	15.07
639.747	15.06
639.938	15.08
640.129	15.04
640.32	15.07
640.511	15.04
640.701	15.01
640.892	14.97
641.083	14.92
641.274	14.88
641.465	14.88
641.655	14.86
641.846	14.8
642.037	14.83
642.228	14.83
642.418	14.8
642.609	14.77
642.8	14.75
642.99	14.71
643.181	14.72
643.372	14.71
643.562	14.71
643.753	14.69
643.943	14.67
644.134	14.63
644.324	14.65
644.515	14.61
644.705	14.55
644.896	14.52
645.086	14.46
645.277	14.49
645.467	14.51
645.658	14.47
645.848	14.47
646.038	14.46
646.229	14.48
646.419	14.5
646.61	14.43
646.8	14.36
646.99	14.32
647.18	14.32
647.371	14.31
647.561	14.27
647.751	14.23
647.941	14.21
648.132	14.22
648.322	14.23
648.512	14.23
648.702	14.19
648.892	14.19
649.082	14.18
649.272	14.14
649.462	14.12
649.653	14.09
649.843	14.04
650.033	14
650.223	13.97
650.413	13.98
650.603	13.97
650.793	13.92
650.983	13.9
651.172	13.87
651.362	13.84
651.552	13.74
651.742	13.66
651.932	13.63
652.122	13.56
652.312	13.42
652.502	13.39
652.691	13.33
652.881	13.3
653.071	13.24
653.261	13.15
653.45	13.06
653.64	13.04
653.83	12.9
654.019	12.74
654.209	12.63
654.399	12.52
654.588	12.42
654.778	12.36
654.968	12.26
655.157	12.16
655.347	12.13
655.536	12.01
655.726	11.95
655.915	11.85
656.105	11.74
656.294	11.63
656.484	11.5
656.673	11.42
656.863	11.31
657.052	11.14
657.241	10.98
657.431	10.81
657.62	10.61
657.809	10.49
657.999	10.33
658.188	10.16
658.377	10.05
658.567	9.92
658.756	9.82
658.945	9.72
659.134	9.56
659.324	9.41
659.513	9.27
659.702	9.12
659.891	8.95
660.08	8.87
660.269	8.76
660.458	8.63
660.648	8.52
660.837	8.41
661.026	8.32
661.215	8.25
661.404	8.07
661.593	7.93
661.782	7.8
661.971	7.68
662.16	7.57
662.349	7.4
662.538	7.28
662.726	7.16
662.915	7.09
663.104	6.99
663.293	6.89
663.482	6.78
663.671	6.7
663.86	6.6
664.048	6.52
664.237	6.47
664.426	6.41
664.615	6.29
664.803	6.2
664.992	6.19
665.181	6.1
665.369	6.03
665.558	5.96
665.747	5.91
665.935	5.89
666.124	5.85
666.312	5.72
666.501	5.67
666.69	5.63
666.878	5.54
667.067	5.52
667.255	5.49
667.444	5.49
667.632	5.48
667.82	5.45
668.009	5.46
668.197	5.45
668.386	5.37
668.574	5.41
668.762	5.39
668.951	5.37
669.139	5.39
669.327	5.35
669.516	5.32
669.704	5.3
669.892	5.27
670.08	5.26
670.269	5.28
670.457	5.22
670.645	5.26
670.833	5.26
671.021	5.24
671.21	5.26
671.398	5.3
671.586	5.26
671.774	5.29
671.962	5.3
672.15	5.32
672.338	5.42
672.526	5.43
672.714	5.43
672.902	5.49
673.09	5.55
673.278	5.55
673.466	5.61
673.654	5.63
673.842	5.65
674.03	5.72
674.218	5.78
674.405	5.83
674.593	5.85
674.781	5.86
674.969	5.85
675.157	5.86
675.344	5.87
675.532	5.92
675.72	5.9
675.908	5.93
676.095	6.02
676.283	6.05
676.471	6.13
676.658	6.14
676.846	6.22
677.033	6.34
677.221	6.46
677.409	6.53
677.596	6.69
677.784	6.76
677.971	6.82
678.159	6.87
678.346	6.88
678.534	6.92
678.721	6.92
678.909	6.94
679.096	6.98
679.283	7.11
679.471	7.14
679.658	7.27
679.846	7.36
680.033	7.48
680.22	7.47
680.408	7.55
680.595	7.6
680.782	7.74
680.969	7.81
681.157	7.92
681.344	8
681.531	8.17
681.718	8.32
681.905	8.41
682.093	8.54
682.28	8.69
682.467	8.73
682.654	8.86
682.841	9.01
683.028	9.21
683.215	9.38
683.402	9.48
683.589	9.59
683.776	9.79
683.963	9.94
684.15	10.11
684.337	10.2
684.524	10.4
684.711	10.53
684.898	10.76
685.085	11
685.271	11.25
685.458	11.48
685.645	11.72
685.832	11.97
686.019	12.32
686.205	12.49
686.392	12.77
686.579	13.03
686.766	13.3
686.952	13.64
687.139	13.91
687.326	14.16
687.512	14.54
687.699	14.88
687.886	15.17
688.072	15.57
688.259	15.89
688.445	16.27
688.632	16.77
688.818	17.2
689.005	17.7
689.191	18.15
689.378	18.54
689.564	19.03
689.751	19.62
689.937	20.07
690.124	20.51
690.31	20.9
690.496	21.43
690.683	22.06
690.869	22.53
691.055	23.09
691.242	23.54
691.428	24.12
691.614	24.78
691.8	25.45
691.987	26.02
692.173	26.74
692.359	27.27
692.545	28.01
692.731	28.69
692.918	29.27
693.104	29.84
693.29	30.41
693.476	30.89
693.662	31.57
693.848	32.13
694.034	32.7
694.22	33.34
694.406	34.02
694.592	34.66
694.778	35.41
694.964	36.05
695.15	36.75
695.336	37.64
695.522	38.26
695.708	38.88
695.894	39.55
696.08	40.08
696.265	40.57
696.451	41.25
696.637	41.67
696.823	42.28
697.009	42.93
697.194	43.54
697.38	44.25
697.566	44.91
697.751	45.32
697.937	45.87
698.123	46.5
698.308	46.99
698.494	47.59
698.68	48.1
698.865	48.77
699.051	49.45
699.236	50.12
699.422	50.58
699.607	50.95
699.793	51.36
699.978	51.73
700.164	52.01
700.349	52.45
700.535	52.76
700.72	53.28
700.906	53.91
701.091	54.37
701.276	54.86
701.462	55.3
701.647	55.62
701.832	56.02
702.018	56.32
702.203	56.63
702.388	56.99
702.573	57.45
702.759	58.01
702.944	58.52
703.129	58.95
703.314	59.48
703.499	59.92
703.684	60.44
703.87	60.87
704.055	61.1
704.24	61.44
704.425	61.91
704.61	62.22
704.795	62.58
704.98	62.68
705.165	62.92
705.35	63.28
705.535	63.65
705.72	63.89
705.905	64.12
706.09	64.36
706.275	64.71
706.459	65.09
706.644	65.3
706.829	65.54
707.014	65.66
707.199	65.7
707.384	65.9
707.568	66.25
707.753	66.52
707.938	66.76
708.123	66.71
708.307	67.03
708.492	67.39
708.677	67.74
708.861	67.84
709.046	67.65
709.231	67.81
709.415	68.1
709.6	68.26
709.784	68.53
709.969	68.72
710.153	69.03
710.338	69.55
710.522	69.65
710.707	69.73
710.891	69.84
711.076	69.83
711.26	69.85
711.445	69.73
711.629	69.84
711.813	69.95
711.998	70.28
712.182	70.5
712.366	70.88
712.551	71.02
712.735	71.27
712.919	71.52
713.103	71.93
713.288	72.12
713.472	72.12
713.656	72
713.84	72.27
714.024	72.56
714.208	72.46
714.393	72.46
714.577	72.7
714.761	73
714.945	73.19
715.129	73.2
715.313	73.3
715.497	73.39
715.681	73.63
715.865	73.67
716.049	73.77
716.233	74.07
716.417	74.18
716.601	74.23
716.785	74.47
716.968	74.26
717.152	74.27
717.336	74.36
717.52	74.31
717.704	74.59
717.888	74.67
718.071	74.75
718.255	74.85
718.439	74.69
718.622	74.82
718.806	74.71
718.99	74.64
719.174	74.56
719.357	74.63
719.541	74.83
719.724	75.15
719.908	75.06
720.092	75.38
720.275	75.7
720.459	75.96
720.642	76
720.826	76.08
721.009	75.97
721.193	75.93
721.376	75.82
721.559	75.49
721.743	75.56
721.926	75.43
722.11	75.63
722.293	75.59
722.476	75.92
722.66	76.02
722.843	76.21
723.026	76.25
723.21	76.47
723.393	76.42
723.576	76.68
723.759	76.93
723.942	77.13
724.126	77.21
724.309	77.2
724.492	77.23
724.675	77.3
724.858	77.62
725.041	77.36
725.224	77.52
725.407	77.28
725.59	77.65
725.774	78.1
725.957	78.56
726.14	78.35
726.322	78.32
726.505	78.52
726.688	79.12
726.871	78.84
727.054	78.85
727.237	78.38
727.42	78.78
727.603	79.15
727.786	79.36
727.968	79.48
728.151	80.14
728.334	80.07
728.517	80.43
728.699	80.57
728.882	80.77
729.065	80.67
729.248	80.41
729.43	79.92
729.613	80.23
729.796	80.25
729.978	80.04
730.161	80.1
730.343	80.45
730.526	80.76
730.708	81.37
730.891	81.26
731.073	81.4
731.256	81.66
731.438	81.88
731.621	81.86
731.803	82.32
731.986	82.36
732.168	82.4
732.35	82.93
732.533	82.94
732.715	82.84
732.898	83.01
733.08	82.66
733.262	82.44
733.444	82.29
733.627	82.23
733.809	82.39
733.991	82.44
734.173	81.66
734.355	82.03
734.538	82.09
734.72	82.84
734.902	82.79
735.084	82.7
735.266	82.91
735.448	83.72
735.63	83.49
735.812	83.9
735.994	83.83
736.176	84.09
736.358	84.68
736.54	84.18
736.722	84.15
736.904	84.59
737.086	84.4
737.268	84.37
737.45	84.34
737.632	84.02
737.814	84.54
737.995	84.74
738.177	84.62
738.359	84.81
738.541	84.62
738.723	84.29
738.904	83.96
739.086	84.15
739.268	84.53
739.449	84.3
739.631	84.6
739.813	84.5
739.994	85.19
740.176	85.51
740.358	85.35
740.539	84.95
740.721	84.96
740.902	84.42
741.084	84.73
741.265	84.15
741.447	83.84
741.628	83.69
741.81	84.1
741.991	84.82
742.172	84.91
742.354	85.22
742.535	85.32
742.717	85.64
742.898	86.04
743.079	85.94
743.261	86.02
743.442	86.19
743.623	86.06
743.804	86.32
743.986	86.4
744.167	86.27
744.348	86.04
744.529	85.68
744.71	85.21
744.891	85.11
745.073	84.97
745.254	84.77
745.435	84.7
745.616	84.62
745.797	84.39
745.978	85.03
746.159	84.78
746.34	84.99
746.521	84.95
746.702	84.73
746.883	85.25
747.064	85.34
747.245	86.21
747.426	86.79
747.606	86.41
747.787	87.12
747.968	87.9
748.149	87.12
748.33	87.72
748.51	86.7
748.691	86.95
748.872	86.75
749.053	86.34
749.233	86.21
749.414	86.74
749.595	85.85
749.775	85.97
749.956	84.86
750.137	85.2
750.317	85.03
750.498	85.26
750.678	85.02
750.859	84.6
751.04	84.69
751.22	84.9
751.4	85.11
751.581	85.2
751.761	84.95
751.942	85.38
752.122	86.2
752.303	85.85
752.483	87.05
752.663	87.12
752.844	86.83
753.024	86.84
753.204	86.47
753.385	86.15
753.565	86.33
753.745	85.35
753.925	84.15
754.106	84.47
754.286	84.46
754.466	84.44
754.646	84.32
754.826	84.41
755.006	84.42
755.187	85.74
755.367	85.84
755.547	85.45
755.727	85.18
755.907	86.23
756.087	86.16
756.267	86.4
756.447	86.54
756.627	86.64
756.807	87.55
756.987	88.12
757.167	87.93
757.346	87.61
757.526	87.68
757.706	86.78
757.886	86.84
758.066	86.2
758.246	85.49
758.425	85.45
758.605	86.44
758.785	86.33
758.965	86.12
759.144	85.57
759.324	85.54
759.504	86.15
759.683	85.15
759.863	83.91
760.043	83.24
760.222	83.03
760.402	84.02
760.581	82.93
760.761	81.7
760.94	81.84
761.12	82.45
761.299	82.54
761.479	83.68
761.658	82.71
761.838	83.25
762.017	84.21
762.197	84.58
762.376	84.23
762.555	84.21
762.735	83.61
762.914	84.39
763.093	84.3
763.273	84.4
763.452	84.1
763.631	83.4
763.81	83.91
763.99	84.98
764.169	84.08
764.348	84.46
764.527	83.58
764.706	84.15
764.885	84.89
765.064	84.78
765.243	83.63
765.423	84.67
765.602	84.84
765.781	85.43
765.96	85.6
766.139	85.15
766.318	85.75
766.497	86.09
766.676	85.54
766.854	84.58
767.033	84.31
767.212	83.51
767.391	83.36
767.57	82.48
767.749	82.33
767.928	81.59
768.106	82.94
768.285	82.82
768.464	83.29
768.643	84.79
768.821	84.96
769	85.17
769.179	84.82
769.357	83.51
769.536	83.09
769.715	82.63
769.893	80.94
770.072	80.38
770.25	80.26
770.429	81.32
770.607	82.33
770.786	83.43
770.964	83.07
771.143	83.17
771.321	82.99
771.5	82.21
771.678	81.22
771.857	79.87
772.035	79.5
772.213	79.4
772.392	80.59
772.57	81.28
772.748	81.31
772.927	82.22
773.105	83.87
773.283	83.26
773.461	83.27
773.64	82.8
773.818	82.17
773.996	82.65
774.174	82.71
774.352	82.45
774.531	82.46
774.709	82.86
774.887	82.98
775.065	82.83
775.243	84.03
775.421	82.98
775.599	81.52
775.777	82.98
775.955	82.98
776.133	81.84
776.311	82.43
776.489	81.7
776.667	82.46
776.844	82.59
777.022	81.22
777.2	81.29
777.378	82.23
777.556	82.86
777.734	82
777.911	83.33
778.089	82.69
778.267	83.28
778.445	81.76
778.622	81.24
778.8	80.22
778.978	81.53
779.155	79.46
779.333	79.16
779.511	78.28
779.688	78.61
779.866	79.11
780.043	79.58
780.221	79.1
780.398	78.77
780.576	78.44
780.753	77.98
780.931	79.08
781.108	78.35
781.286	78.51
781.463	77.88
781.64	78.41
781.818	81.02
781.995	81.93
782.172	82.02
782.35	81.93
782.527	82.95
782.704	81.9
782.882	83.71
783.059	82.23
783.236	82.97
783.413	82.34
783.59	82.06
783.768	80.58
783.945	80.14
784.122	78.58
784.299	79.54
784.476	79.2
784.653	78.86
784.83	79.63
785.007	78.33
785.184	79.19
785.361	79.38
785.538	79.2
785.715	77.39
785.892	76.68
786.069	76.01
786.246	75.46
786.423	77.31
786.6	76.69
786.776	75.16
786.953	75.94
787.13	77.49
787.307	79.04
787.484	81.27
787.66	79.25
787.837	79.96
788.014	80.65
788.191	81.08
788.367	79.72
788.544	79.34
788.721	78.24
788.897	80.18
789.074	79.51
789.25	82.75
789.427	82.84
789.603	85.03
789.78	85.83
789.956	86.77
790.133	85.86
790.309	84.48
790.486	83.15
790.662	83.9
790.839	84.96
791.015	83.1
791.192	81.92
791.368	83.96
791.544	84.7
791.721	81.93
791.897	79.48
792.073	76.3
792.249	78.13
792.426	78.99
792.602	75.13
792.778	75.32
792.954	75.88
793.13	77.61
793.307	77.01
793.483	74.85
793.659	76.2
793.835	76.79
794.011	77.61
794.187	77.44
794.363	77.82
794.539	79.8
794.715	77.82
794.891	74.75
795.067	76.88
795.243	75.23
795.419	75.19
795.595	73.13
795.771	72.83
795.947	76.03
796.122	76.03
796.298	74.18
796.474	74.65
796.65	74.54
796.826	77.79
797.001	77.93
797.177	75.85
797.353	77.26
797.529	79.49
797.704	80.51
797.88	80.63
798.056	80.76
798.231	79.13
798.407	80.84
798.582	81.19
798.758	79.98
798.934	79.87
799.109	77.9
799.285	76.92
799.46	78.26
799.636	76.31
799.811	77.26
799.986	77.37
800.162	78.84
800.337	81.02
800.513	82.09
800.688	83.1
800.863	85.58
801.039	82.24
801.214	81.87
801.389	81.45
801.565	84.16
801.74	81.23
801.915	77.17
802.09	74.84
802.265	76.42
802.441	76.56
802.616	76.51
802.791	75.65
802.966	77.77
803.141	79.84
803.316	81.19
803.491	79.35
803.666	79
803.841	78.99
804.016	77.34
804.191	74.06
804.366	72.01
804.541	73.04
804.716	71.68
804.891	72.26
805.066	71.8
805.241	69.4
805.416	71.36
805.591	76.04
805.765	77.49
805.94	79.69
806.115	75.34
806.29	72.03
806.464	73.41
806.639	72.22
806.814	70.27
806.989	65.91
807.163	66.84
807.338	68.03
807.512	65.36
807.687	68.01
807.862	69.23
808.036	66.15
808.211	71.62
808.385	70.31
808.56	72.05
808.734	74.61
808.909	73.32
809.083	69.01
809.258	73.25
809.432	64.34
809.606	66.99
809.781	66.55
809.955	68.38
810.13	68.42
810.304	70.72
810.478	67.53
810.652	74.42
810.827	72.29
811.001	73.43
811.175	69.95
811.349	71.87
811.524	70.93
811.698	69.78
811.872	70
812.046	72.18
812.22	70.78
812.394	74.7
812.568	68.71
812.742	68.97
812.916	75.02
813.09	70.12
813.264	67.69
813.438	71.57
813.612	72.75
813.786	78.2
813.96	78.11
814.134	73.84
814.308	71.9
814.482	70.32
814.656	70.83
814.83	72.7
815.003	73.87
815.177	78.08
815.351	81.29
815.525	82.66
815.698	87.61
815.872	81.38
816.046	74.37
816.219	72.14
816.393	69.89
816.567	65.24
816.74	68.61
816.914	63.94
817.088	65.31
817.261	71.81
817.435	71.08
817.608	67.96
817.782	70.18
817.955	70.11
818.129	74.91
818.302	81.88
818.475	80.32
818.649	78.89
818.822	80.72
818.996	80.51
819.169	84.2
819.342	81.16
819.516	79.12
819.689	80.09
819.862	78.61
820.035	80.45
820.209	76.79
820.382	68.83
820.555	71.29
820.728	70.64
820.901	69.65
821.075	71.43
821.248	71.07
821.421	72.35
821.594	80.33
821.767	76.25
821.94	71.55
822.113	72.43
822.286	76.64
822.459	76.86
822.632	76.12
822.805	73.86
822.978	72.88
823.151	75.51
823.324	73.69
823.496	60.76
823.669	63.33
823.842	69.16
824.015	70.54
824.188	77.04
824.361	75.13
824.533	83.25
824.706	112.65
824.879	105.02
825.051	99.22
825.224	93.26
825.397	88.89
825.569	95.87
825.742	87.54
825.915	78.1
826.087	74.93
826.26	78.2
826.432	80.26
826.605	79.76
826.777	73.87
826.95	75.37
827.122	73.98
827.295	74.21
827.467	66.81
827.64	61.32
827.812	64.06
827.984	71.59
828.157	70.34
828.329	76.28
828.501	79.67
828.674	78.6
828.846	80.68
829.018	73.55
829.19	66.8
829.363	72.36
829.535	67.05
829.707	65.85
829.879	74.98
830.051	69.44
830.223	65.68
830.395	61.14
830.568	60.58
830.74	66.41
830.912	70.39
831.084	59.49
831.256	63.76
831.428	66.63
831.6	71.08
831.772	70.69
831.943	66.75
832.115	63.4
832.287	73.75
832.459	72.56
832.631	79.95
832.803	85.11
832.975	79.96
833.146	77.54
833.318	72.67
833.49	75.33
833.662	82.41
833.833	80.36
834.005	79.04
834.177	86.95
834.348	85.11
834.52	92.07
834.692	90.08
834.863	82.09
835.035	74.29
835.206	68.67
835.378	58.63
835.549	58.4
835.721	55.13
835.892	49.35
836.064	48.93
836.235	59.73
836.407	58.94
836.578	62.22
836.749	62.61
836.921	62.16
837.092	73.08
837.264	78.57
837.435	62.8
837.606	62.74
837.777	61.36
837.949	56.99
838.12	58
838.291	59.64
838.462	61.84
838.633	72.66
838.805	71.92
838.976	73.2
839.147	74.54
839.318	71.89
839.489	66.65
839.66	67.33
839.831	59.34
840.002	64.59
840.173	71.24
840.344	71.99
840.515	79.87
840.686	75.74
840.857	71.2
841.028	72.92
841.199	62.4
841.369	58.64
841.54	67.74
841.711	72.88
841.882	77.36
842.053	81.68
842.223	91.13
842.394	88.3
842.565	81.69
842.736	77.64
842.906	71.42
843.077	71.19
843.248	70.8
843.418	64.59
843.589	61.33
843.759	50.29
843.93	44.82
844.101	49.19
844.271	41.48
844.442	45
844.612	44.38
844.783	39.03
844.953	47.98
845.123	57.45
845.294	48.32
845.464	56.19
845.635	51.65
845.805	66.21
845.975	71.52
846.146	80.83
846.316	99.65
846.486	107.21
846.656	111.3
846.827	116.7
846.997	113.92
847.167	109.44
847.337	103.1
847.507	93.18
847.677	86.29
847.848	80.05
848.018	66.61
848.188	62.81
848.358	69.87
848.528	74.44
848.698	68.25
848.868	74.73
849.038	72.15
849.208	79.14
849.378	70.6
849.548	79.78
849.718	84.83
849.887	78.1
850.057	72.11
850.227	69.29
850.397	67.89
850.567	77.55
850.737	64.75
850.906	48.93
851.076	59.84
851.246	60.93
851.415	62.46
851.585	63.41
851.755	64.52
851.924	70.99
852.094	77.88
852.264	75.9
852.433	79.6
852.603	86.45
852.772	74.82
852.942	63.01
853.111	59.63
853.281	49.74
853.45	45.1
853.62	33.67
853.789	31.92
853.959	29.79
854.128	30.52
854.297	23.79
854.467	41.73
854.636	45.26
854.805	53.21
854.975	62.58
855.144	70.58
855.313	74.74
855.482	73.73
855.652	68.56
855.821	69.43
855.99	76.69
856.159	67.34
856.328	58.27
856.497	58.8
856.667	65.23
856.836	57.75
857.005	55.29
857.174	60.12
857.343	59.2
857.512	64.83
857.681	64.27
857.85	65.08
858.019	70.89
858.188	80.38
858.356	65.94
858.525	66.19
858.694	62.75
858.863	65.98
859.032	55.7
859.201	67.26
859.369	57.4
859.538	50.12
859.707	52.4
859.876	48.11
860.044	43.3
860.213	58.69
860.382	55.61
860.55	63.8
860.719	70.64
860.888	73.63
861.056	91.78
861.225	95.29
861.393	89.29
861.562	78.2
861.73	82.55
861.899	68.1
862.067	66.77
862.236	53.59
862.404	58.69
862.572	57.09
862.741	54.38
862.909	50.72
863.078	51.33
863.246	56.28
863.414	68.08
863.582	50.55
863.751	57.84
863.919	73.23
864.087	64.26
864.255	73.25
864.424	78.34
864.592	84.06
864.76	99.51
864.928	94.34
865.096	89.06
865.264	101.26
865.432	106.88
865.6	90.02
865.768	81.57
865.936	65.61
866.104	76.39
866.272	77.13
866.44	46.86
866.608	40.7
866.776	64.03
866.944	73.32
867.112	60.67
867.28	69.28
867.448	61.94
867.615	72.75
867.783	62.27
867.951	81.47
868.119	63.44
868.286	76.92
868.454	60.2
868.622	59.39
868.789	81
868.957	94.19
869.125	76.67
869.292	79.95
869.46	75.69
869.627	73.32
869.795	79.71
869.963	58.2
870.13	64.33
870.298	63.7
870.465	54.56
870.632	73.49
870.8	61.49
870.967	56.65
871.135	53.81
871.302	53.74
871.469	61.27
871.637	64.88
871.804	65.82
871.971	71.7
872.139	78.84
872.306	85.13
872.473	81.8
872.64	91.04
872.807	109.38
872.975	135.53
873.142	124.65
873.309	157.27
873.476	253.03
873.643	314.92
873.81	258.48
873.977	165.22
874.144	109.25
874.311	122.17
874.478	76.76
874.645	50.77
874.812	17.8
874.979	-15.09
875.146	-26.26
875.313	-11.27
875.48	53.29
875.647	19.76
875.813	33.8
875.98	56.7
876.147	106.7
876.314	99.7
876.481	63.9
876.647	46.31
876.814	51.39
876.981	57.46
877.147	44.22
877.314	20.08
877.481	46.55
877.647	78.17
877.814	66.33
877.98	78.42
878.147	63.17
878.314	60.86
878.48	76.2
878.647	76.93
878.813	75.99
878.979	104.29
879.146	83.25
879.312	112.96
879.479	116.76
879.645	97.55
879.811	67.83
879.978	59.97
880.144	56.65
880.31	58.46
880.477	28.25
880.643	14.51
880.809	78.84
880.975	69.36
881.142	65.66
881.308	83.99
881.474	107.11
881.64	74.72
881.806	53.65
881.972	58.2
882.138	54.4
882.304	-7.08
882.47	4.91
882.636	-16.76
882.802	-34.21
882.968	-167.67
883.134	-349.46
883.3	-84.48
883.466	-2.71
883.632	2.79
883.798	28.37
883.964	50.22
884.129	96.78
884.295	81.31
884.461	89.38
884.627	100.21
884.793	98.07
884.958	80.84
885.124	38.04
885.29	29.2
885.455	36.09
885.621	29.85
885.787	35.9
885.952	21.77
886.118	41.46
886.283	70.72
886.449	64.89
886.614	75.54
886.78	81.39
886.945	60.01
887.111	74.55
887.276	41.23
887.442	21.39
887.607	24.74
887.773	19.06
887.938	-16.66
888.103	12.95
888.269	27.6
888.434	40.23
888.599	55.44
888.764	51.06
888.93	57.03
889.095	61.19
889.26	92.42
889.425	89.52
889.59	65.22
889.756	60.48
889.921	71.81
890.086	85.74
890.251	89.49
890.416	60.91
890.581	49.98
890.746	39.84
890.911	9.24
891.076	21.26
891.241	11.2
891.406	21.3
891.571	41.01
891.736	53.75
891.901	82.79
892.065	90.05
892.23	62.9
892.395	36.8
892.56	45.16
892.725	38
892.889	0.34
893.054	-8.31
893.219	24.59
893.384	81.75
893.548	304.17
893.713	-421.04
893.878	-221.74
