Data from Ofra_PS_T2_1A_4HS15.2_Reflection_1.txt Node
Date: Wed Jul 21 18:08:12 EDT 2021
User: Adam
Spectrometer: FLMT01687
Trigger mode: 0
Integration Time (sec): 1.100000E0
Scans to average: 2
Electric dark correction enabled: true
Nonlinearity correction enabled: false
Boxcar width: 2
XAxis mode: Wavelengths
Number of Pixels in Spectrum: 3648
>>>>>Begin Spectral Data<<<<<
179.494	617.4
179.716	662.82
179.937	637.05
180.158	612.19
180.38	904.22
180.601	398.2
180.823	154.41
181.044	-25.24
181.265	90.99
181.486	103.95
181.708	84.7
181.929	454.59
182.15	-415.14
182.372	80.83
182.593	76.05
182.814	71.13
183.035	96.91
183.257	87.41
183.478	5.59
183.699	23.75
183.92	-24.06
184.141	-31.14
184.363	-101.64
184.584	-12.37
184.805	-2.54
185.026	49.29
185.247	66.98
185.468	55.14
185.689	44.25
185.91	49.11
186.132	34.95
186.353	16.61
186.574	65.3
186.795	50.88
187.016	8.04
187.237	-22.5
187.458	-66.45
187.679	-43.4
187.9	-21.83
188.121	-28.99
188.342	-12.67
188.563	56.49
188.784	70.07
189.005	59.09
189.226	126.34
189.447	124
189.667	-35.32
189.888	-316.63
190.109	-1169.81
190.33	-643.06
190.551	-1269.69
190.772	-255.87
190.993	-224.28
191.214	-136.41
191.434	-114.44
191.655	-7.45
191.876	-44.36
192.097	-92.44
192.318	-198.1
192.538	-231.6
192.759	-193.7
192.98	-98.39
193.201	-41.75
193.421	7.53
193.642	18.74
193.863	4.7
194.083	-5.51
194.304	-11.9
194.525	-24.66
194.745	-51.44
194.966	-31.04
195.187	-41.2
195.407	-78.45
195.628	-151.66
195.848	-155.14
196.069	-174.82
196.29	-100.64
196.51	-53.81
196.731	-26.83
196.951	-30.05
197.172	-16.96
197.392	-74.63
197.613	-112.69
197.833	-144.96
198.054	-107
198.274	-50.82
198.495	-44.73
198.715	-2.12
198.936	-17.72
199.156	-31.83
199.377	-127.91
199.597	-141.94
199.817	-185.82
200.038	-98.46
200.258	-147.12
200.479	-104.26
200.699	-95.01
200.919	6.86
201.14	-34.73
201.36	-19.42
201.58	38.42
201.801	62.75
202.021	23.31
202.241	34.24
202.461	17.69
202.682	-101.98
202.902	-195.58
203.122	-109.91
203.342	-88.45
203.563	-51.52
203.783	-4.98
204.003	-31.53
204.223	-35.9
204.443	22.64
204.663	10.68
204.884	18.78
205.104	75.49
205.324	113.29
205.544	66.45
205.764	70.06
205.984	77.85
206.204	56.76
206.424	49.41
206.644	25.09
206.864	39.81
207.084	27.49
207.304	22.91
207.525	-125.86
207.745	-35.6
207.964	-11.96
208.184	-78.35
208.404	-97.25
208.624	-74.86
208.844	-61.93
209.064	-314.69
209.284	-276.88
209.504	-144.79
209.724	-28.03
209.944	-13.5
210.164	33.45
210.384	43.36
210.604	64.22
210.823	25.02
211.043	3.74
211.263	-6.34
211.483	-25.41
211.703	-89.37
211.922	-69.64
212.142	-8.9
212.362	15.9
212.582	28.06
212.801	43.24
213.021	23.68
213.241	6.34
213.461	-42.88
213.68	-48.27
213.9	-25.77
214.12	-17.05
214.339	-47.23
214.559	-22.53
214.779	11.51
214.998	10.04
215.218	-6.01
215.438	-3.07
215.657	-15.6
215.877	-48.44
216.096	-33.34
216.316	-28.37
216.535	-31.7
216.755	-28.71
216.974	-94.59
217.194	-137.36
217.413	-126.13
217.633	-139.31
217.852	-246.59
218.072	-106.43
218.291	-56.46
218.511	-11.24
218.73	-20.87
218.95	-12.13
219.169	-15.36
219.389	-60.99
219.608	-39.48
219.827	-28.69
220.047	-19.94
220.266	-10.15
220.485	11.6
220.705	7.61
220.924	-19.21
221.143	23.51
221.363	6.31
221.582	3.19
221.801	5.8
222.021	32.54
222.24	-20.22
222.459	54.09
222.678	34.01
222.897	-39.52
223.117	-74.74
223.336	-99.8
223.555	-67.19
223.774	-5.08
223.993	31.69
224.213	85.31
224.432	87.89
224.651	80.46
224.87	34.51
225.089	40.87
225.308	15.9
225.527	29.7
225.746	22.66
225.965	18.49
226.184	-16.01
226.404	12.15
226.623	-15.93
226.842	-21
227.061	17.11
227.28	27.93
227.499	7.07
227.718	18.41
227.936	5.65
228.155	-2.67
228.374	-37.64
228.593	-19.68
228.812	-31.45
229.031	-18.02
229.25	-66.47
229.469	-31.36
229.688	-16.61
229.907	20.51
230.125	29.23
230.344	37.68
230.563	30.01
230.782	30.93
231.001	-41.62
231.22	-29.69
231.438	0.61
231.657	5.78
231.876	8.4
232.095	44.58
232.313	32.68
232.532	8.9
232.751	9.84
232.969	-1.27
233.188	-52.71
233.407	-8.11
233.625	-6.62
233.844	-48.66
234.063	-41.52
234.281	-4.53
234.5	-5.5
234.719	1.09
234.937	32.62
235.156	50.07
235.374	42.41
235.593	38.09
235.811	47.93
236.03	28.53
236.249	-10.41
236.467	-16.9
236.686	2.31
236.904	8.51
237.123	-17.4
237.341	-20.98
237.559	-8.31
237.778	-20.27
237.996	-42.03
238.215	-0.24
238.433	9.87
238.652	-16.97
238.87	-34.57
239.088	-14.37
239.307	-22.22
239.525	-40.74
239.743	-41.52
239.962	-32.65
240.18	-57.28
240.398	-86.24
240.617	-97.06
240.835	-75.07
241.053	-53.84
241.271	-10.03
241.49	18.22
241.708	36.92
241.926	25.32
242.144	6.26
242.363	-61.74
242.581	-86.74
242.799	-66.07
243.017	-29.93
243.235	-39.52
243.453	-14.89
243.672	-21.15
243.89	-18.34
244.108	-29.63
244.326	-11.82
244.544	-7.62
244.762	-16.24
244.98	4.01
245.198	14.48
245.416	-13.1
245.634	-23.82
245.852	-19.5
246.07	-51.61
246.288	-58.55
246.506	-66.08
246.724	-43.76
246.942	-34.93
247.16	14.08
247.378	23.74
247.596	57.28
247.814	38.3
248.032	18.97
248.25	6.71
248.468	6.32
248.685	11.65
248.903	36.79
249.121	43.44
249.339	17.64
249.557	-1.45
249.775	-6.58
249.992	-56.68
250.21	-48.81
250.428	-33.91
250.646	-43.41
250.863	-67.97
251.081	-26.15
251.299	0.98
251.517	22.42
251.734	29.26
251.952	29.18
252.17	6.3
252.387	6.18
252.605	-9.61
252.823	-9.65
253.04	16.89
253.258	38.56
253.475	24.18
253.693	41.27
253.911	46.16
254.128	40.79
254.346	28.31
254.563	16.29
254.781	-5.47
254.998	-31.87
255.216	-54.83
255.433	-35.87
255.651	-8.46
255.868	23.45
256.086	45.37
256.303	35.14
256.521	21.24
256.738	-8.97
256.956	-40.83
257.173	-76.73
257.39	-83.52
257.608	-124.2
257.825	-47.14
258.043	-4.62
258.26	33.58
258.477	72.37
258.695	81.68
258.912	45.83
259.129	33.85
259.346	-3.03
259.564	-60.11
259.781	-84.01
259.998	-36.73
260.216	-25.54
260.433	4.34
260.65	20.42
260.867	39.28
261.084	12.91
261.302	-8.79
261.519	-42.96
261.736	-66.85
261.953	-61.59
262.17	-19.55
262.387	-40.64
262.604	-54.12
262.822	-49.98
263.039	-49.33
263.256	-92
263.473	-44.8
263.69	-28.52
263.907	6.14
264.124	22.7
264.341	27.2
264.558	22.5
264.775	38.11
264.992	31.47
265.209	15
265.426	25.94
265.643	22.5
265.86	24.69
266.077	31.45
266.294	38.25
266.51	0.98
266.727	-18.92
266.944	0.42
267.161	-4.81
267.378	-13.49
267.595	17.2
267.812	4.37
268.028	-31.11
268.245	-4.2
268.462	-25.74
268.679	-33.41
268.896	13.09
269.112	12.69
269.329	1.2
269.546	14.98
269.763	5.57
269.979	-16.82
270.196	-4.13
270.413	-39.84
270.629	-60.01
270.846	-48.24
271.063	-36.35
271.279	-61.14
271.496	-34.69
271.712	-9.45
271.929	1.66
272.146	-13.91
272.362	27.2
272.579	46.36
272.795	49.87
273.012	56.26
273.228	59.26
273.445	18.07
273.661	-16.37
273.878	-50.94
274.094	-51.15
274.311	-69.39
274.527	9.78
274.744	14.22
274.96	-1.84
275.177	3.92
275.393	18.19
275.609	11.69
275.826	32.83
276.042	48.44
276.259	36.64
276.475	40.08
276.691	30.23
276.908	10.9
277.124	15.19
277.34	11.51
277.557	-0.62
277.773	-5.41
277.989	-15.23
278.205	-18.14
278.422	2.65
278.638	3.16
278.854	20.69
279.07	20.43
279.286	16.4
279.503	-27.62
279.719	-31.44
279.935	-49.54
280.151	-56.83
280.367	-46.53
280.583	-39.38
280.799	-34.2
281.016	-63.48
281.232	-29.17
281.448	-21.93
281.664	-7.44
281.88	-36.34
282.096	-14.17
282.312	17.34
282.528	38.89
282.744	60.04
282.96	69.64
283.176	55.27
283.392	36.83
283.608	23.67
283.824	9.24
284.04	17.55
284.256	20.07
284.471	5.77
284.687	0.67
284.903	25.54
285.119	55.62
285.335	36.18
285.551	39.88
285.767	22.23
285.982	-1.47
286.198	-68
286.414	-13.6
286.63	-3.54
286.846	31.33
287.061	16.12
287.277	51.81
287.493	20.18
287.709	54.93
287.924	26.35
288.14	73.81
288.356	43.37
288.571	58.11
288.787	25.93
289.003	28.29
289.218	-5.96
289.434	-24.39
289.65	-7.83
289.865	-8.41
290.081	18.26
290.296	16.91
290.512	25.52
290.727	-21.7
290.943	-22.68
291.159	-33.53
291.374	-23.45
291.59	-41.28
291.805	-23.34
292.021	-21.5
292.236	-29.61
292.451	-30.54
292.667	-18.6
292.882	-1.47
293.098	4.46
293.313	-12.83
293.529	-27.12
293.744	-33.65
293.959	-49.7
294.175	-54.79
294.39	-7.2
294.605	12.19
294.821	37.31
295.036	44.01
295.251	62.02
295.467	19.94
295.682	5.15
295.897	-40.76
296.112	-47.01
296.328	-42.91
296.543	-36.76
296.758	-11.78
296.973	28.29
297.188	47.69
297.404	14.47
297.619	11.92
297.834	-16.66
298.049	-43.51
298.264	-73.89
298.479	-8.61
298.694	-3.91
298.909	25.24
299.125	30.28
299.34	48.35
299.555	13.8
299.77	32.47
299.985	-26.44
300.2	-82.71
300.415	-123.66
300.63	-81.38
300.845	-80.74
301.06	-68.19
301.275	-34.36
301.49	9.88
301.704	0.45
301.919	-21.84
302.134	-41.16
302.349	-22.04
302.564	-94.46
302.779	-103.88
302.994	-57.48
303.209	3.23
303.423	-2.85
303.638	36.59
303.853	2.27
304.068	-0.05
304.283	-11.12
304.497	-1.35
304.712	-5.13
304.927	13.22
305.142	-2.51
305.356	8.63
305.571	-4.57
305.786	-17.33
306	-49.5
306.215	-30.9
306.43	-49.51
306.644	-32.65
306.859	15.28
307.074	51.59
307.288	19.78
307.503	17.3
307.717	-14.1
307.932	-24.17
308.147	-42.63
308.361	-21.9
308.576	-20.35
308.79	-52.59
309.005	-35.76
309.219	-22.1
309.434	-21.26
309.648	-32.05
309.863	-0.2
310.077	-14.14
310.292	-11.4
310.506	-25.27
310.72	-1.36
310.935	-13.37
311.149	-17.37
311.364	0.1
311.578	22.37
311.792	17.25
312.007	27.52
312.221	18.25
312.435	10.91
312.649	-3.84
312.864	9.76
313.078	27.28
313.292	92.05
313.507	79.43
313.721	93.11
313.935	35.05
314.149	9.92
314.363	-5.68
314.578	-7.25
314.792	-3.65
315.006	-14.58
315.22	1.6
315.434	13.75
315.648	21.11
315.862	23.02
316.077	30.91
316.291	25.68
316.505	27.81
316.719	14.54
316.933	-19.76
317.147	-22.1
317.361	-57.18
317.575	-84.33
317.789	-85.3
318.003	-128.12
318.217	-79.64
318.431	-7.12
318.645	26.91
318.859	8.47
319.073	37.67
319.287	17.91
319.5	-19.08
319.714	-72.77
319.928	-97.4
320.142	-122.96
320.356	-84.14
320.57	-38.54
320.784	-31.48
320.997	-47.08
321.211	-43.89
321.425	-84.2
321.639	-122.75
321.853	-58.13
322.066	-12.46
322.28	-13.49
322.494	-7.83
322.707	29.83
322.921	15.85
323.135	-7.59
323.349	7.2
323.562	3.48
323.776	-21.47
323.989	-19.36
324.203	-22.44
324.417	-33.74
324.63	-51.24
324.844	-43.88
325.057	-30.62
325.271	-22.35
325.485	-5.77
325.698	7.66
325.912	22.48
326.125	8.56
326.339	10.41
326.552	3.13
326.766	7.38
326.979	4.79
327.193	26.88
327.406	15.54
327.619	14.67
327.833	11.73
328.046	-6.37
328.26	-41.82
328.473	-12.65
328.686	-46.42
328.9	-35.59
329.113	-18.66
329.326	-35.33
329.54	-42.65
329.753	-44.87
329.966	-74.93
330.179	-62.9
330.393	-16.24
330.606	1.17
330.819	17.55
331.032	39.7
331.246	49.3
331.459	55.73
331.672	48.83
331.885	39.08
332.098	23.68
332.311	3
332.525	-48.61
332.738	-29.29
332.951	8.01
333.164	23.83
333.377	32.68
333.59	61.73
333.803	54.1
334.016	39.77
334.229	43.51
334.442	37.84
334.655	38.01
334.868	47
335.081	35.53
335.294	12.48
335.507	9.14
335.72	11.59
335.933	-7.73
336.146	-12.98
336.359	0.35
336.572	-16.53
336.785	-54.9
336.997	-39.21
337.21	-11.37
337.423	-23.58
337.636	-19.92
337.849	-4.72
338.062	-10.43
338.274	-15.64
338.487	-27.08
338.7	-24.01
338.913	-62.29
339.125	-74.03
339.338	-122.22
339.551	-101.01
339.763	-73.88
339.976	-42.09
340.189	-25.62
340.402	-13.72
340.614	-16.29
340.827	-23.22
341.039	-40.19
341.252	-34.9
341.465	-9.76
341.677	-2.8
341.89	-25.65
342.102	1.52
342.315	-30.91
342.527	-68.75
342.74	-69.49
342.952	-25.93
343.165	-15.59
343.377	23.54
343.59	24.48
343.802	37.43
344.015	32.03
344.227	38.6
344.44	29.96
344.652	36.73
344.864	33.21
345.077	40.71
345.289	30.31
345.502	27.7
345.714	15.18
345.926	15.85
346.139	2.99
346.351	12.28
346.563	18.8
346.775	28.83
346.988	14.77
347.2	2.65
347.412	-58.11
347.624	-82.93
347.837	-108.02
348.049	-76.6
348.261	-22.81
348.473	5.36
348.685	11.13
348.897	1.35
349.11	-21.29
349.322	-60.47
349.534	-34.49
349.746	-33.12
349.958	-4.28
350.17	11.82
350.382	29.9
350.594	23.71
350.806	24.22
351.018	20.48
351.23	6
351.442	-39.41
351.654	-29.66
351.866	-25.08
352.078	-21.98
352.29	8.08
352.502	21.22
352.714	26.48
352.926	15.48
353.138	13.89
353.35	-5.87
353.561	-5.19
353.773	-30.11
353.985	-2.86
354.197	-12.83
354.409	-6.05
354.621	-16.9
354.832	-4.22
355.044	-28.84
355.256	-31.77
355.468	-15.5
355.679	-6.73
355.891	-10.03
356.103	-17.37
356.314	-3.07
356.526	-21.62
356.738	-13.41
356.949	-26.85
357.161	4.04
357.373	-6.97
357.584	-7.24
357.796	-6.39
358.008	-0.17
358.219	6.32
358.431	12.51
358.642	21.04
358.854	18.99
359.065	7.88
359.277	-25.78
359.488	-32.56
359.7	-62.11
359.911	-81.27
360.123	-52.94
360.334	-52.52
360.546	-64.26
360.757	-54.97
360.969	-31.64
361.18	-26.4
361.391	-6.99
361.603	-30.58
361.814	-15.47
362.025	-11.54
362.237	-17.77
362.448	-18.69
362.659	6.29
362.871	-0.99
363.082	-13.29
363.293	-0.46
363.504	-15.12
363.716	-29.6
363.927	-26.83
364.138	-48.53
364.349	-76.01
364.56	-62.61
364.772	-58.4
364.983	-35.44
365.194	-26.18
365.405	-4.74
365.616	14.4
365.827	24.87
366.038	-2.86
366.25	-8.01
366.461	-47.84
366.672	-30.26
366.883	-14.12
367.094	3.47
367.305	-4.51
367.516	9.81
367.727	-21.93
367.938	-25.94
368.149	-25.23
368.36	4.64
368.571	7.24
368.781	5.33
368.992	-18.99
369.203	-36.68
369.414	-83.63
369.625	-95.98
369.836	-94.32
370.047	-103.66
370.258	-75.25
370.468	-61.82
370.679	-70.78
370.89	-49.85
371.101	-25.56
371.312	-40.37
371.522	-25.4
371.733	-15.25
371.944	-11.55
372.155	-12.44
372.365	-14.92
372.576	-14.76
372.787	-13.81
372.997	-30.35
373.208	-22.22
373.419	-0.88
373.629	-27.63
373.84	-29.06
374.05	-41.42
374.261	-36.38
374.472	-42.88
374.682	1.71
374.893	12.87
375.103	47.13
375.314	40.03
375.524	30.76
375.735	35.2
375.945	22.71
376.156	-6.94
376.366	3.18
376.577	3.28
376.787	-16.06
376.997	-2.8
377.208	4.36
377.418	-14.5
377.629	0.8
377.839	0.09
378.049	3.47
378.26	14.2
378.47	20.05
378.68	8.43
378.89	10.25
379.101	-2.36
379.311	-35.03
379.521	-60.24
379.732	-48.33
379.942	-52.8
380.152	-66.64
380.362	-25.6
380.572	-14.81
380.783	-2.54
380.993	11.26
381.203	30.22
381.413	33.27
381.623	26.65
381.833	19.84
382.043	8.64
382.253	-2.63
382.463	-6.58
382.674	-10.17
382.884	-23.18
383.094	-22.05
383.304	-19.59
383.514	-11.33
383.724	-0.88
383.934	-6.17
384.144	-12.74
384.353	-17.86
384.563	-18.75
384.773	-10.21
384.983	-10.89
385.193	6.36
385.403	6.51
385.613	3.7
385.823	-13.46
386.033	-2.12
386.242	-10.44
386.452	-6.34
386.662	-14.64
386.872	0.05
387.082	-7.45
387.291	-13.69
387.501	-17.26
387.711	-12.74
387.921	-24.34
388.13	-24.42
388.34	-12.89
388.55	-14.77
388.759	-13.55
388.969	-5.18
389.179	-7.09
389.388	-8.66
389.598	-0.35
389.807	-4.83
390.017	-10.86
390.227	-6.47
390.436	-7.1
390.646	-7.6
390.855	-2.2
391.065	0.21
391.274	-1.55
391.484	-5.39
391.693	-3.27
391.903	-3.76
392.112	0.48
392.322	1.88
392.531	7.56
392.74	4.9
392.95	0.07
393.159	0.43
393.369	-0.1
393.578	-2.03
393.787	-2.8
393.997	-0.17
394.206	-3.74
394.415	-3.28
394.625	-2.95
394.834	-3.44
395.043	-2.1
395.252	1.25
395.462	4.39
395.671	5.3
395.88	5.89
396.089	6.92
396.298	4.27
396.508	3.19
396.717	2.45
396.926	3.24
397.135	2.64
397.344	3.56
397.553	4.22
397.762	5.97
397.971	6.27
398.181	5.52
398.39	5.15
398.599	4.37
398.808	3.63
399.017	4.11
399.226	6.37
399.435	7.45
399.644	7.54
399.853	6.52
400.062	5.83
400.27	4.39
400.479	3.84
400.688	3.39
400.897	4.04
401.106	4.32
401.315	4.5
401.524	4.38
401.733	4.84
401.941	5.4
402.15	5.43
402.359	5.13
402.568	5.49
402.777	5.65
402.985	5.07
403.194	5
403.403	5.04
403.612	4.56
403.82	4.22
404.029	4.48
404.238	4.36
404.446	4.46
404.655	4.23
404.864	4.35
405.072	3.98
405.281	3.9
405.489	3.63
405.698	3.81
405.906	3.66
406.115	3.7
406.324	3.77
406.532	4.15
406.741	4.43
406.949	4.53
407.158	4.63
407.366	4.66
407.574	4.45
407.783	4.39
407.991	4.16
408.2	4.47
408.408	4.34
408.617	4.18
408.825	3.99
409.033	4.17
409.242	3.98
409.45	4.09
409.658	4.16
409.867	4.4
410.075	4.24
410.283	4.1
410.491	4.05
410.7	4.04
410.908	3.89
411.116	4.2
411.324	4.21
411.533	4.12
411.741	4.37
411.949	4.43
412.157	4.17
412.365	4.13
412.573	4.19
412.781	4.07
412.99	3.94
413.198	3.99
413.406	3.95
413.614	3.92
413.822	3.73
414.03	3.64
414.238	3.44
414.446	3.57
414.654	3.52
414.862	3.67
415.07	3.69
415.278	3.91
415.486	3.77
415.694	3.85
415.902	3.71
416.109	3.67
416.317	3.66
416.525	3.53
416.733	3.32
416.941	3.49
417.149	3.5
417.357	3.54
417.564	3.76
417.772	4.05
417.98	3.92
418.188	3.99
418.395	3.95
418.603	3.89
418.811	3.64
419.019	3.54
419.226	3.75
419.434	3.84
419.642	3.63
419.849	3.82
420.057	3.78
420.265	3.63
420.472	3.26
420.68	3.46
420.887	3.27
421.095	3.45
421.302	3.34
421.51	3.62
421.717	3.61
421.925	3.68
422.132	3.53
422.34	3.29
422.547	3.4
422.755	3.43
422.962	3.36
423.17	3.25
423.377	3.41
423.585	3.37
423.792	3.18
423.999	3.24
424.207	3.34
424.414	3.5
424.621	3.35
424.829	3.39
425.036	3.3
425.243	3.46
425.451	3.21
425.658	3.13
425.865	3.46
426.072	3.46
426.28	3.65
426.487	3.86
426.694	4
426.901	3.63
427.108	3.69
427.315	3.43
427.523	3.61
427.73	3.53
427.937	3.53
428.144	3.38
428.351	3.42
428.558	3.39
428.765	3.4
428.972	3.39
429.179	3.64
429.386	3.88
429.593	3.62
429.8	3.53
430.007	3.84
430.214	3.87
430.421	3.57
430.628	3.48
430.835	3.45
431.042	3.47
431.249	3.5
431.456	3.51
431.662	3.68
431.869	3.83
432.076	3.7
432.283	3.7
432.49	3.63
432.697	3.64
432.903	3.44
433.11	3.48
433.317	3.58
433.524	3.9
433.73	3.88
433.937	4.19
434.144	4.08
434.35	4.06
434.557	3.88
434.764	3.84
434.97	3.67
435.177	3.83
435.384	3.71
435.59	3.86
435.797	4.09
436.003	4.19
436.21	4.16
436.416	4.29
436.623	4.25
436.829	4.28
437.036	4.43
437.242	4.43
437.449	4.27
437.655	4.3
437.862	4.26
438.068	4.19
438.275	4.32
438.481	4.62
438.687	4.55
438.894	4.59
439.1	4.52
439.307	4.63
439.513	4.43
439.719	4.41
439.926	4.39
440.132	4.52
440.338	4.31
440.544	4.48
440.751	4.48
440.957	4.5
441.163	4.32
441.369	4.49
441.575	4.26
441.782	4.22
441.988	4.16
442.194	4.27
442.4	4.24
442.606	4.53
442.812	4.71
443.018	4.79
443.224	4.78
443.431	4.86
443.637	4.66
443.843	4.48
444.049	4.51
444.255	4.46
444.461	4.42
444.667	4.46
444.873	4.75
445.079	4.67
445.284	4.83
445.49	4.64
445.696	4.49
445.902	4.29
446.108	4.31
446.314	4.16
446.52	4.25
446.726	4.54
446.931	4.58
447.137	4.62
447.343	4.75
447.549	4.73
447.755	4.61
447.96	4.66
448.166	4.63
448.372	4.51
448.578	4.52
448.783	4.55
448.989	4.64
449.195	4.89
449.4	5.04
449.606	5.03
449.812	4.97
450.017	4.99
450.223	4.81
450.428	4.67
450.634	4.81
450.84	4.92
451.045	4.79
451.251	4.75
451.456	5.08
451.662	5.13
451.867	5.24
452.073	5.26
452.278	5.4
452.483	5.34
452.689	5.25
452.894	5.33
453.1	5.33
453.305	5.24
453.51	5.24
453.716	5.24
453.921	5.17
454.127	5.23
454.332	5.23
454.537	5.08
454.742	5.1
454.948	5.05
455.153	5.07
455.358	5.11
455.563	5.34
455.769	5.47
455.974	5.53
456.179	5.46
456.384	5.51
456.589	5.38
456.795	5.11
457	5.06
457.205	5.26
457.41	5.21
457.615	5.24
457.82	5.46
458.025	5.48
458.23	5.35
458.435	5.49
458.64	5.47
458.845	5.62
459.05	5.65
459.255	5.68
459.46	5.66
459.665	5.62
459.87	5.58
460.075	5.54
460.28	5.65
460.485	5.73
460.69	5.79
460.895	5.55
461.099	5.52
461.304	5.6
461.509	5.52
461.714	5.5
461.919	5.77
462.123	5.69
462.328	5.56
462.533	5.5
462.738	5.6
462.942	5.51
463.147	5.69
463.352	5.8
463.556	5.86
463.761	5.95
463.966	6.03
464.17	5.99
464.375	5.91
464.58	5.94
464.784	5.8
464.989	5.7
465.193	5.68
465.398	5.69
465.602	5.78
465.807	5.78
466.011	5.88
466.216	6
466.42	6.1
466.625	6.18
466.829	6.21
467.034	6.26
467.238	6.36
467.443	6.24
467.647	6.11
467.851	6.22
468.056	6.31
468.26	6.2
468.464	6.29
468.669	6.48
468.873	6.55
469.077	6.47
469.282	6.52
469.486	6.53
469.69	6.43
469.894	6.3
470.099	6.38
470.303	6.51
470.507	6.38
470.711	6.34
470.915	6.34
471.119	6.22
471.324	6.08
471.528	6.21
471.732	6.29
471.936	6.33
472.14	6.39
472.344	6.43
472.548	6.43
472.752	6.59
472.956	6.85
473.16	6.77
473.364	6.66
473.568	6.66
473.772	6.59
473.976	6.31
474.18	6.33
474.384	6.43
474.588	6.42
474.792	6.3
474.995	6.32
475.199	6.35
475.403	6.39
475.607	6.47
475.811	6.52
476.015	6.64
476.218	6.73
476.422	6.67
476.626	6.71
476.83	6.7
477.033	6.6
477.237	6.48
477.441	6.58
477.644	6.54
477.848	6.54
478.052	6.48
478.255	6.56
478.459	6.52
478.663	6.61
478.866	6.66
479.07	6.77
479.273	6.94
479.477	7.02
479.681	7
479.884	6.92
480.088	6.8
480.291	6.61
480.495	6.58
480.698	6.52
480.901	6.55
481.105	6.78
481.308	6.8
481.512	6.72
481.715	6.8
481.919	6.81
482.122	6.73
482.325	6.78
482.529	6.83
482.732	6.8
482.935	6.74
483.138	6.73
483.342	6.76
483.545	6.86
483.748	6.87
483.952	6.97
484.155	7.08
484.358	7.05
484.561	7.03
484.764	7.05
484.967	7.11
485.171	7.14
485.374	7.1
485.577	7.15
485.78	7.15
485.983	7.13
486.186	7
486.389	7.02
486.592	6.95
486.795	6.94
486.998	6.89
487.201	6.89
487.404	6.93
487.607	7.02
487.81	6.99
488.013	7.08
488.216	7.15
488.419	7.11
488.622	7.03
488.825	7.04
489.028	6.96
489.231	6.85
489.433	6.83
489.636	6.78
489.839	6.7
490.042	6.64
490.245	6.65
490.447	6.73
490.65	6.73
490.853	6.82
491.056	6.86
491.258	6.88
491.461	6.85
491.664	6.89
491.866	6.8
492.069	6.86
492.272	6.83
492.474	6.87
492.677	6.91
492.879	6.96
493.082	7.02
493.285	7.16
493.487	7.08
493.69	6.99
493.892	6.97
494.095	6.86
494.297	6.79
494.5	6.89
494.702	7
494.905	7.05
495.107	6.99
495.309	6.97
495.512	6.98
495.714	6.96
495.917	6.96
496.119	6.93
496.321	6.94
496.524	6.95
496.726	6.9
496.928	6.9
497.13	6.98
497.333	6.96
497.535	6.95
497.737	7
497.939	7
498.142	6.99
498.344	7.01
498.546	6.91
498.748	6.89
498.95	6.98
499.152	6.94
499.355	6.9
499.557	6.96
499.759	7.04
499.961	6.99
500.163	7.07
500.365	7.11
500.567	7.12
500.769	6.98
500.971	6.96
501.173	6.87
501.375	6.88
501.577	6.9
501.779	6.92
501.981	6.9
502.183	6.95
502.385	6.9
502.587	6.84
502.788	6.88
502.99	6.88
503.192	6.92
503.394	6.84
503.596	6.83
503.798	6.9
503.999	6.94
504.201	6.92
504.403	7
504.605	7.03
504.806	6.95
505.008	6.95
505.21	6.99
505.411	7.04
505.613	7.04
505.815	7
506.016	7.02
506.218	7.09
506.42	7.02
506.621	7.02
506.823	7.09
507.024	7.01
507.226	6.89
507.427	6.89
507.629	6.92
507.83	6.92
508.032	6.94
508.233	7
508.435	7.07
508.636	7.14
508.838	7.06
509.039	7.1
509.24	7.09
509.442	7.09
509.643	6.94
509.845	6.98
510.046	7.02
510.247	7.04
510.448	7.01
510.65	7.12
510.851	7.2
511.052	7.14
511.254	7.15
511.455	7.22
511.656	7.26
511.857	7.31
512.058	7.34
512.26	7.33
512.461	7.28
512.662	7.29
512.863	7.21
513.064	7.19
513.265	7.23
513.466	7.24
513.667	7.14
513.868	7.11
514.069	7.16
514.27	7.21
514.471	7.14
514.672	7.22
514.873	7.18
515.074	7.18
515.275	7.02
515.476	7.05
515.677	7.08
515.878	7.25
516.079	7.21
516.28	7.31
516.481	7.4
516.682	7.4
516.882	7.27
517.083	7.25
517.284	7.18
517.485	7.18
517.686	7.11
517.886	7.12
518.087	7.19
518.288	7.25
518.488	7.18
518.689	7.2
518.89	7.12
519.091	7.11
519.291	7.08
519.492	7.14
519.692	7.21
519.893	7.33
520.094	7.29
520.294	7.27
520.495	7.19
520.695	7.16
520.896	7.14
521.096	7.22
521.297	7.29
521.497	7.35
521.698	7.32
521.898	7.26
522.099	7.24
522.299	7.27
522.499	7.3
522.7	7.37
522.9	7.39
523.101	7.41
523.301	7.38
523.501	7.31
523.702	7.3
523.902	7.38
524.102	7.4
524.302	7.36
524.503	7.42
524.703	7.4
524.903	7.4
525.103	7.34
525.304	7.46
525.504	7.5
525.704	7.58
525.904	7.5
526.104	7.52
526.304	7.47
526.504	7.42
526.705	7.4
526.905	7.47
527.105	7.51
527.305	7.48
527.505	7.42
527.705	7.37
527.905	7.4
528.105	7.36
528.305	7.35
528.505	7.4
528.705	7.52
528.905	7.46
529.105	7.49
529.304	7.53
529.504	7.59
529.704	7.52
529.904	7.57
530.104	7.57
530.304	7.64
530.503	7.61
530.703	7.57
530.903	7.54
531.103	7.52
531.303	7.44
531.502	7.45
531.702	7.58
531.902	7.6
532.101	7.55
532.301	7.59
532.501	7.65
532.7	7.58
532.9	7.59
533.1	7.65
533.299	7.66
533.499	7.64
533.698	7.62
533.898	7.57
534.097	7.59
534.297	7.6
534.496	7.58
534.696	7.63
534.895	7.81
535.095	7.84
535.294	7.84
535.494	7.82
535.693	7.84
535.892	7.79
536.092	7.73
536.291	7.67
536.491	7.74
536.69	7.76
536.889	7.65
537.088	7.65
537.288	7.77
537.487	7.77
537.686	7.73
537.886	7.77
538.085	7.83
538.284	7.91
538.483	7.87
538.682	7.93
538.882	7.94
539.081	8
539.28	7.88
539.479	7.87
539.678	7.86
539.877	8.02
540.076	7.95
540.275	8.04
540.474	8.18
540.673	8.18
540.872	8.09
541.071	8.16
541.27	8.16
541.469	8.14
541.668	8.14
541.867	8.16
542.066	8.19
542.265	8.23
542.464	8.19
542.663	8.21
542.862	8.33
543.06	8.36
543.259	8.35
543.458	8.39
543.657	8.47
543.856	8.45
544.054	8.39
544.253	8.4
544.452	8.4
544.651	8.43
544.849	8.36
545.048	8.48
545.247	8.54
545.445	8.62
545.644	8.64
545.843	8.7
546.041	8.67
546.24	8.71
546.438	8.8
546.637	8.79
546.836	8.95
547.034	9
547.233	9.02
547.431	8.98
547.63	8.98
547.828	8.9
548.027	8.93
548.225	8.91
548.423	8.94
548.622	9.05
548.82	9.09
549.019	9.13
549.217	9.26
549.415	9.29
549.614	9.33
549.812	9.33
550.01	9.32
550.209	9.32
550.407	9.36
550.605	9.37
550.803	9.5
551.002	9.58
551.2	9.61
551.398	9.67
551.596	9.78
551.794	9.85
551.993	9.93
552.191	10.01
552.389	10.1
552.587	10.12
552.785	10.14
552.983	10.15
553.181	10.22
553.379	10.28
553.577	10.28
553.775	10.33
553.973	10.44
554.171	10.49
554.369	10.43
554.567	10.46
554.765	10.49
554.963	10.53
555.161	10.52
555.359	10.61
555.557	10.74
555.755	10.89
555.952	10.99
556.15	11.05
556.348	11.12
556.546	11.19
556.744	11.13
556.941	11.16
557.139	11.3
557.337	11.43
557.535	11.42
557.732	11.52
557.93	11.58
558.128	11.63
558.325	11.7
558.523	11.72
558.721	11.84
558.918	11.9
559.116	11.91
559.313	11.9
559.511	12.04
559.708	12
559.906	11.99
560.104	12.1
560.301	12.21
560.498	12.23
560.696	12.31
560.893	12.42
561.091	12.46
561.288	12.57
561.486	12.66
561.683	12.77
561.88	12.92
562.078	12.97
562.275	12.98
562.473	13.04
562.67	13.14
562.867	13.16
563.064	13.28
563.262	13.31
563.459	13.37
563.656	13.45
563.853	13.49
564.051	13.52
564.248	13.59
564.445	13.7
564.642	13.72
564.839	13.87
565.036	13.98
565.234	14.15
565.431	14.23
565.628	14.28
565.825	14.39
566.022	14.53
566.219	14.51
566.416	14.58
566.613	14.7
566.81	14.71
567.007	14.64
567.204	14.7
567.401	14.73
567.598	14.73
567.795	14.73
567.991	14.75
568.188	14.79
568.385	14.89
568.582	14.98
568.779	15.06
568.976	15.13
569.172	15.3
569.369	15.29
569.566	15.28
569.763	15.36
569.96	15.41
570.156	15.36
570.353	15.34
570.55	15.45
570.746	15.47
570.943	15.56
571.14	15.54
571.336	15.68
571.533	15.69
571.729	15.66
571.926	15.68
572.123	15.8
572.319	15.74
572.516	15.74
572.712	15.74
572.909	15.78
573.105	15.77
573.302	15.87
573.498	16.05
573.695	16.07
573.891	15.99
574.087	16.04
574.284	15.98
574.48	15.81
574.677	15.86
574.873	15.95
575.069	15.98
575.266	16.11
575.462	16.12
575.658	16.25
575.854	16.24
576.051	16.22
576.247	16.13
576.443	16.17
576.639	16.08
576.835	16.09
577.032	16.02
577.228	16.05
577.424	16.06
577.62	15.93
577.816	15.95
578.012	15.95
578.208	15.91
578.404	15.92
578.6	16.05
578.796	15.98
578.993	16.05
579.189	16.05
579.384	15.89
579.58	15.85
579.776	15.84
579.972	15.75
580.168	15.7
580.364	15.85
580.56	15.89
580.756	15.94
580.952	15.92
581.148	15.94
581.343	15.91
581.539	15.84
581.735	15.81
581.931	15.86
582.127	15.91
582.322	15.79
582.518	15.85
582.714	15.82
582.909	15.72
583.105	15.63
583.301	15.65
583.496	15.61
583.692	15.54
583.888	15.62
584.083	15.64
584.279	15.67
584.474	15.59
584.67	15.57
584.866	15.56
585.061	15.42
585.257	15.47
585.452	15.46
585.648	15.48
585.843	15.47
586.039	15.65
586.234	15.61
586.429	15.61
586.625	15.66
586.82	15.6
587.015	15.54
587.211	15.44
587.406	15.47
587.601	15.43
587.797	15.4
587.992	15.35
588.187	15.45
588.383	15.36
588.578	15.28
588.773	15.39
588.968	15.45
589.163	15.49
589.359	15.55
589.554	15.62
589.749	15.58
589.944	15.63
590.139	15.58
590.334	15.64
590.529	15.68
590.724	15.77
590.919	15.76
591.114	15.75
591.309	15.78
591.504	15.8
591.699	15.7
591.894	15.74
592.089	15.81
592.284	15.81
592.479	15.9
592.674	15.94
592.869	15.99
593.064	16.02
593.259	16.12
593.454	16.12
593.648	16.16
593.843	16.14
594.038	16.14
594.233	16.01
594.428	15.96
594.622	16.04
594.817	16.23
595.012	16.28
595.206	16.36
595.401	16.52
595.596	16.57
595.79	16.5
595.985	16.57
596.18	16.7
596.374	16.69
596.569	16.75
596.763	16.75
596.958	16.79
597.153	16.85
597.347	16.89
597.542	16.93
597.736	17
597.931	17.05
598.125	17.06
598.319	17.16
598.514	17.21
598.708	17.33
598.903	17.31
599.097	17.4
599.291	17.41
599.486	17.45
599.68	17.42
599.874	17.54
600.069	17.53
600.263	17.48
600.457	17.5
600.651	17.59
600.846	17.55
601.04	17.69
601.234	17.76
601.428	17.89
601.622	17.92
601.817	18.03
602.011	17.98
602.205	18.12
602.399	17.97
602.593	17.98
602.787	17.98
602.981	17.93
603.175	17.88
603.369	17.85
603.563	17.82
603.757	17.79
603.951	17.83
604.145	17.76
604.339	17.91
604.533	17.86
604.727	17.84
604.921	17.73
605.115	17.76
605.309	17.78
605.502	17.77
605.696	17.72
605.89	17.75
606.084	17.74
606.278	17.65
606.471	17.58
606.665	17.52
606.859	17.41
607.053	17.31
607.246	17.24
607.44	17.19
607.634	17.1
607.827	17.2
608.021	17.15
608.214	17.11
608.408	17.05
608.602	17.08
608.795	16.99
608.989	16.92
609.182	16.87
609.376	16.96
609.569	16.85
609.763	16.74
609.956	16.65
610.15	16.48
610.343	16.34
610.537	16.27
610.73	16.3
610.923	16.34
611.117	16.31
611.31	16.29
611.504	16.31
611.697	16.2
611.89	16.18
612.083	16.2
612.277	16.19
612.47	16.13
612.663	16.04
612.856	15.93
613.05	15.85
613.243	15.69
613.436	15.58
613.629	15.51
613.822	15.43
614.015	15.32
614.209	15.22
614.402	15.2
614.595	15.27
614.788	15.26
614.981	15.14
615.174	15.14
615.367	15.06
615.56	14.92
615.753	14.87
615.946	14.83
616.139	14.89
616.332	14.88
616.525	14.85
616.718	14.85
616.911	14.89
617.103	14.83
617.296	14.87
617.489	14.81
617.682	14.7
617.875	14.73
618.067	14.64
618.26	14.48
618.453	14.5
618.646	14.54
618.838	14.45
619.031	14.45
619.224	14.42
619.417	14.4
619.609	14.4
619.802	14.36
619.994	14.35
620.187	14.37
620.38	14.35
620.572	14.22
620.765	14.2
620.957	14.06
621.15	13.97
621.342	13.91
621.535	13.99
621.727	13.94
621.92	13.91
622.112	13.91
622.305	13.97
622.497	13.86
622.69	13.86
622.882	13.92
623.074	13.97
623.267	13.86
623.459	13.74
623.651	13.66
623.844	13.61
624.036	13.6
624.228	13.59
624.42	13.62
624.613	13.81
624.805	13.75
624.997	13.67
625.189	13.59
625.381	13.63
625.574	13.47
625.766	13.48
625.958	13.5
626.15	13.59
626.342	13.58
626.534	13.61
626.726	13.56
626.918	13.48
627.11	13.37
627.302	13.33
627.494	13.29
627.686	13.26
627.878	13.26
628.07	13.34
628.262	13.32
628.454	13.3
628.646	13.38
628.838	13.4
629.029	13.32
629.221	13.34
629.413	13.23
629.605	13.08
629.797	13.01
629.989	12.95
630.18	12.94
630.372	12.95
630.564	12.99
630.755	12.99
630.947	13.05
631.139	12.87
631.33	12.78
631.522	12.9
631.714	12.89
631.905	12.85
632.097	12.85
632.289	12.9
632.48	12.77
632.672	12.72
632.863	12.59
633.055	12.59
633.246	12.56
633.438	12.47
633.629	12.39
633.821	12.5
634.012	12.48
634.203	12.44
634.395	12.5
634.586	12.57
634.777	12.44
634.969	12.42
635.16	12.5
635.351	12.4
635.543	12.39
635.734	12.43
635.925	12.44
636.117	12.39
636.308	12.37
636.499	12.25
636.69	12.22
636.881	12.15
637.073	12.2
637.264	12.26
637.455	12.31
637.646	12.42
637.837	12.54
638.028	12.43
638.219	12.46
638.41	12.39
638.601	12.23
638.792	12.2
638.983	12.15
639.174	12.03
639.365	12.1
639.556	12.04
639.747	11.97
639.938	12.05
640.129	12.06
640.32	11.98
640.511	12.09
640.701	12.23
640.892	12.13
641.083	12.19
641.274	12.25
641.465	12.19
641.655	11.96
641.846	11.93
642.037	11.79
642.228	11.7
642.418	11.76
642.609	11.82
642.8	11.9
642.99	11.93
643.181	12.06
643.372	12.02
643.562	12.06
643.753	12.06
643.943	12.05
644.134	11.9
644.324	11.81
644.515	11.65
644.705	11.64
644.896	11.56
645.086	11.6
645.277	11.57
645.467	11.67
645.658	11.6
645.848	11.68
646.038	11.67
646.229	11.68
646.419	11.56
646.61	11.55
646.8	11.47
646.99	11.45
647.18	11.41
647.371	11.4
647.561	11.28
647.751	11.32
647.941	11.28
648.132	11.25
648.322	11.34
648.512	11.53
648.702	11.54
648.892	11.52
649.082	11.51
649.272	11.37
649.462	11.22
649.653	11.12
649.843	11.07
650.033	11.1
650.223	11.1
650.413	11
650.603	11.05
650.793	11.15
650.983	11.04
651.172	11.08
651.362	11.15
651.552	11.09
651.742	10.94
651.932	10.97
652.122	10.93
652.312	10.92
652.502	10.85
652.691	10.88
652.881	10.83
653.071	10.84
653.261	10.69
653.45	10.57
653.64	10.54
653.83	10.43
654.019	10.33
654.209	10.32
654.399	10.29
654.588	10.12
654.778	10.07
654.968	9.98
655.157	9.94
655.347	9.88
655.536	9.82
655.726	9.81
655.915	9.67
656.105	9.62
656.294	9.62
656.484	9.57
656.673	9.43
656.863	9.46
657.052	9.29
657.241	9.05
657.431	8.92
657.62	8.83
657.809	8.59
657.999	8.52
658.188	8.52
658.377	8.36
658.567	8.32
658.756	8.31
658.945	8.24
659.134	8.13
659.324	8.13
659.513	7.96
659.702	7.78
659.891	7.67
660.08	7.66
660.269	7.68
660.458	7.61
660.648	7.63
660.837	7.53
661.026	7.43
661.215	7.34
661.404	7.25
661.593	7.33
661.782	7.07
661.971	7.03
662.16	6.9
662.349	6.89
662.538	6.61
662.726	6.73
662.915	6.65
663.104	6.55
663.293	6.57
663.482	6.71
663.671	6.59
663.86	6.53
664.048	6.53
664.237	6.52
664.426	6.21
664.615	6.26
664.803	6.29
664.992	6.23
665.181	6.07
665.369	6.17
665.558	6.06
665.747	5.93
665.935	6.02
666.124	6.18
666.312	6.23
666.501	6.24
666.69	6.22
666.878	6.08
667.067	5.79
667.255	5.8
667.444	5.99
667.632	6.08
667.82	6.28
668.009	6.31
668.197	6.27
668.386	6.15
668.574	6.19
668.762	6.08
668.951	6.08
669.139	6.13
669.327	6.05
669.516	6.16
669.704	6.07
669.892	6.18
670.08	6.18
670.269	6.12
670.457	5.89
670.645	5.84
670.833	5.96
671.021	5.88
671.21	5.91
671.398	6.15
671.586	6.23
671.774	6.04
671.962	6.08
672.15	6.16
672.338	5.95
672.526	5.98
672.714	5.93
672.902	5.91
673.09	6.02
673.278	6.2
673.466	6.24
673.654	6.41
673.842	6.48
674.03	6.39
674.218	6.33
674.405	6.4
674.593	6.32
674.781	6.35
674.969	6.42
675.157	6.54
675.344	6.58
675.532	6.75
675.72	6.85
675.908	6.89
676.095	6.8
676.283	6.78
676.471	6.83
676.658	6.75
676.846	6.69
677.033	6.76
677.221	6.8
677.409	6.57
677.596	6.7
677.784	6.86
677.971	6.86
678.159	6.97
678.346	7.2
678.534	7.17
678.721	7.34
678.909	7.36
679.096	7.32
679.283	7.51
679.471	7.61
679.658	7.51
679.846	7.66
680.033	7.9
680.22	7.83
680.408	7.79
680.595	7.93
680.782	7.85
680.969	7.83
681.157	7.89
681.344	7.96
681.531	7.88
681.718	7.91
681.905	8.05
682.093	8.19
682.28	8.41
682.467	8.6
682.654	8.75
682.841	8.76
683.028	8.93
683.215	9.02
683.402	8.96
683.589	9.15
683.776	9.15
683.963	9.07
684.15	9.13
684.337	9.34
684.524	9.32
684.711	9.64
684.898	9.64
685.085	9.73
685.271	10.01
685.458	10.14
685.645	10.16
685.832	10.54
686.019	10.79
686.205	10.79
686.392	11.11
686.579	11.24
686.766	11.46
686.952	11.62
687.139	11.97
687.326	12.06
687.512	12.13
687.699	12.27
687.886	12.47
688.072	12.52
688.259	12.79
688.445	13.45
688.632	13.62
688.818	13.94
689.005	14.16
689.191	14.46
689.378	14.76
689.564	15.26
689.751	15.55
689.937	15.94
690.124	16.45
690.31	16.6
690.496	16.97
690.683	17.39
690.869	17.91
691.055	18.29
691.242	18.92
691.428	19.31
691.614	19.81
691.8	20.44
691.987	20.86
692.173	21.29
692.359	21.78
692.545	22.41
692.731	22.69
692.918	23.3
693.104	23.61
693.29	24.23
693.476	24.67
693.662	25.43
693.848	25.8
694.034	26.42
694.22	26.65
694.406	27.1
694.592	27.53
694.778	28.21
694.964	28.82
695.15	29.68
695.336	30.29
695.522	31.13
695.708	31.75
695.894	32.53
696.08	33.28
696.265	33.88
696.451	34.34
696.637	35.13
696.823	35.52
697.009	35.92
697.194	36.55
697.38	36.87
697.566	37.19
697.751	37.98
697.937	38.88
698.123	39.65
698.308	40.69
698.494	41.49
698.68	42.1
698.865	42.47
699.051	42.93
699.236	43.01
699.422	43.56
699.607	43.92
699.793	44.55
699.978	45.08
700.164	45.66
700.349	46.23
700.535	46.83
700.72	47.38
700.906	48.17
701.091	49.03
701.276	49.43
701.462	50.3
701.647	51.13
701.832	51.39
702.018	51.92
702.203	52.29
702.388	52.52
702.573	52.66
702.759	53.51
702.944	53.96
703.129	54.36
703.314	54.88
703.499	55.35
703.684	55.54
703.87	56.48
704.055	57.44
704.24	57.8
704.425	58.44
704.61	58.66
704.795	58.81
704.98	59.16
705.165	59.45
705.35	59.96
705.535	60.68
705.72	60.83
705.905	61.58
706.09	62.36
706.275	62.47
706.459	62.54
706.644	63
706.829	62.98
707.014	63.04
707.199	63.52
707.384	64.36
707.568	64.48
707.753	64.89
707.938	65.21
708.123	65.38
708.307	65.37
708.492	65.91
708.677	66.07
708.861	66.34
709.046	66.52
709.231	67.17
709.415	67.7
709.6	67.74
709.784	67.88
709.969	68.04
710.153	67.93
710.338	68.02
710.522	68.8
710.707	69.43
710.891	69.87
711.076	70.09
711.26	69.9
711.445	69.97
711.629	69.91
711.813	70.08
711.998	70.93
712.182	71.18
712.366	71.87
712.551	73.09
712.735	73.47
712.919	73.02
713.103	73.97
713.288	73.5
713.472	72.79
713.656	73.65
713.84	73.89
714.024	73.7
714.208	74.12
714.393	74.8
714.577	74.65
714.761	75.24
714.945	75.26
715.129	75.15
715.313	75.25
715.497	75.27
715.681	75.42
715.865	75.64
716.049	75.89
716.233	75.86
716.417	75.88
716.601	75.48
716.785	75.39
716.968	75.95
717.152	76.12
717.336	76.54
717.52	76.85
717.704	77.13
717.888	77.23
718.071	77.2
718.255	77.19
718.439	77.3
718.622	77.6
718.806	77.89
718.99	77.97
719.174	78.12
719.357	78.87
719.541	79.44
719.724	79.63
719.908	80.39
720.092	80.7
720.275	80.77
720.459	80.1
720.642	79.68
720.826	79.36
721.009	79.35
721.193	79.03
721.376	79.38
721.559	79.71
721.743	79.93
721.926	80.21
722.11	80.35
722.293	80.5
722.476	80.27
722.66	80.38
722.843	79.8
723.026	79.61
723.21	79.75
723.393	81.02
723.576	80.98
723.759	80.93
723.942	81.48
724.126	81.38
724.309	80.87
724.492	81.23
724.675	81.86
724.858	81.94
725.041	83.11
725.224	83.15
725.407	83.07
725.59	83.4
725.774	83.2
725.957	81.87
726.14	81.86
726.322	82.12
726.505	81.76
726.688	82.38
726.871	82.69
727.054	82.62
727.237	82.57
727.42	83.17
727.603	83.11
727.786	83.21
727.968	83.75
728.151	83.75
728.334	83.55
728.517	83.53
728.699	83.97
728.882	83.43
729.065	83.75
729.248	84.08
729.43	84.16
729.613	84.89
729.796	86
729.978	85.43
730.161	85.62
730.343	85.46
730.526	85.97
730.708	84.8
730.891	85.4
731.073	84.82
731.256	84.93
731.438	83.97
731.621	85.42
731.803	85.63
731.986	85.97
732.168	85.64
732.35	86.28
732.533	85.09
732.715	84.61
732.898	84.97
733.08	84.98
733.262	84.94
733.444	85.8
733.627	86.23
733.809	86.26
733.991	87.45
734.173	86.59
734.355	86.17
734.538	86.39
734.72	86.36
734.902	86.11
735.084	87.11
735.266	87.64
735.448	88.11
735.63	88.09
735.812	88.12
735.994	89
736.176	88.65
736.358	88.14
736.54	88.51
736.722	88.33
736.904	86.8
737.086	86.78
737.268	87.69
737.45	87.8
737.632	88
737.814	87.58
737.995	87.53
738.177	87.74
738.359	86.56
738.541	87.37
738.723	88.41
738.904	88.89
739.086	88.35
739.268	88.93
739.449	88.29
739.631	88.17
739.813	88.44
739.994	88.7
740.176	88.77
740.358	88.75
740.539	89.31
740.721	89.14
740.902	89.34
741.084	89.6
741.265	89.69
741.447	89.95
741.628	90.18
741.81	89.14
741.991	89.95
742.172	90.53
742.354	90.51
742.535	90.47
742.717	91.35
742.898	91.2
743.079	92.11
743.261	91.72
743.442	91.59
743.623	92.11
743.804	92.3
743.986	91.51
744.167	90.68
744.348	90.55
744.529	90.02
744.71	88.67
744.891	88.5
745.073	88.62
745.254	88.5
745.435	87.99
745.616	88.74
745.797	88.63
745.978	88.58
746.159	89.66
746.34	89.43
746.521	90.1
746.702	88.14
746.883	88.08
747.064	87.39
747.245	87.37
747.426	86.54
747.606	87.71
747.787	87.59
747.968	86.82
748.149	87.61
748.33	87.8
748.51	88.34
748.691	88.6
748.872	89.68
749.053	88.85
749.233	88.5
749.414	87.71
749.595	87.19
749.775	85.68
749.956	85.45
750.137	85.39
750.317	86.55
750.498	88.39
750.678	89.8
750.859	90.62
751.04	90.28
751.22	89.74
751.4	88.61
751.581	87.29
751.761	87.04
751.942	88.11
752.122	87.8
752.303	86.42
752.483	86.19
752.663	85.96
752.844	85.18
753.024	86.54
753.204	88.24
753.385	88.03
753.565	88.26
753.745	88.33
753.925	86.96
754.106	87.18
754.286	88.06
754.466	87.37
754.646	88.68
754.826	88.37
755.006	86.82
755.187	88.34
755.367	88.82
755.547	87.84
755.727	89.38
755.907	89.62
756.087	90.57
756.267	89.42
756.447	88.86
756.627	86.77
756.807	87.88
756.987	85.29
757.167	86.64
757.346	87.58
757.526	87.45
757.706	87.95
757.886	88.87
758.066	89.86
758.246	92.68
758.425	93.13
758.605	91.86
758.785	92.03
758.965	91.8
759.144	87.97
759.324	88.25
759.504	88.89
759.683	87.58
759.863	85.55
760.043	84.64
760.222	84.5
760.402	84.87
760.581	85.04
760.761	87.67
760.94	87.36
761.12	88.79
761.299	88.05
761.479	87.83
761.658	84.77
761.838	85.37
762.017	84.37
762.197	84.99
762.376	85.61
762.555	87.97
762.735	88.66
762.914	87.61
763.093	87.56
763.273	86.8
763.452	84.57
763.631	84.32
763.81	84.11
763.99	84.01
764.169	84.43
764.348	83.67
764.527	82.67
764.706	85.77
764.885	86.83
765.064	85.46
765.243	87.03
765.423	88.61
765.602	87.13
765.781	84.23
765.96	83.1
766.139	81.82
766.318	82.39
766.497	80.84
766.676	81.48
766.854	83.39
767.033	85.44
767.212	84.13
767.391	84.2
767.57	85.56
767.749	86.8
767.928	86.56
768.106	84.78
768.285	84.09
768.464	83.76
768.643	82.06
768.821	81.18
769	83.97
769.179	83.22
769.357	80.92
769.536	80.49
769.715	81.08
769.893	80.23
770.072	81.54
770.25	82.7
770.429	84.55
770.607	84.67
770.786	84.8
770.964	84.9
771.143	83.55
771.321	83.5
771.5	82.53
771.678	81.69
771.857	80.36
772.035	81.83
772.213	80.62
772.392	78.29
772.57	80.48
772.748	82.32
772.927	81.69
773.105	80.05
773.283	82.56
773.461	80.67
773.64	80.32
773.818	81.49
773.996	85.16
774.174	84.91
774.352	84.63
774.531	82.17
774.709	82.39
774.887	78.55
775.065	77.86
775.243	77.71
775.421	79.68
775.599	80.02
775.777	78.32
775.955	77.87
776.133	77
776.311	77.58
776.489	74.76
776.667	78.12
776.844	79.2
777.022	76.95
777.2	77.66
777.378	77.96
777.556	77.92
777.734	78.31
777.911	83.01
778.089	80.2
778.267	81.16
778.445	79.16
778.622	78.91
778.8	77.31
778.978	77.83
779.155	76.12
779.333	77.71
779.511	77.88
779.688	78.25
779.866	73.87
780.043	73.59
780.221	75.01
780.398	71.31
780.576	72.54
780.753	77.29
780.931	76.43
781.108	74.72
781.286	79.22
781.463	75.38
781.64	70.73
781.818	72.18
781.995	73.06
782.172	71.61
782.35	73.99
782.527	79.8
782.704	81.85
782.882	83.22
783.059	81.27
783.236	79.3
783.413	79.23
783.59	76.54
783.768	71.56
783.945	75.35
784.122	78.07
784.299	76.9
784.476	76.28
784.653	76.86
784.83	70.53
785.007	65.89
785.184	67.1
785.361	66.72
785.538	73.1
785.715	79.56
785.892	82.72
786.069	83.16
786.246	85.72
786.423	82.2
786.6	79.26
786.776	77.73
786.953	73.1
787.13	75.88
787.307	76.63
787.484	77.5
787.66	81.11
787.837	85.13
788.014	82.42
788.191	77.68
788.367	73.32
788.544	72.55
788.721	72.18
788.897	71.26
789.074	73.34
789.25	73.47
789.427	73.82
789.603	73.7
789.78	77.76
789.956	74.89
790.133	75.82
790.309	74.29
790.486	77.27
790.662	74.13
790.839	77.79
791.015	80.48
791.192	80.24
791.368	81.26
791.544	78.15
791.721	74.6
791.897	72.84
792.073	67.91
792.249	59.16
792.426	62.76
792.602	67.44
792.778	69.28
792.954	72.94
793.13	76.86
793.307	69.35
793.483	62.82
793.659	60.37
793.835	61.96
794.011	58.15
794.187	63.2
794.363	65.76
794.539	70.73
794.715	64.86
794.891	65.79
795.067	66.52
795.243	69.41
795.419	63.77
795.595	65.25
795.771	67.54
795.947	66.65
796.122	64.68
796.298	68.26
796.474	72.04
796.65	71.49
796.826	69.57
797.001	70.85
797.177	65.67
797.353	66.87
797.529	67.81
797.704	67.94
797.88	64.09
798.056	63.34
798.231	57.52
798.407	58.67
798.582	56.99
798.758	66.31
798.934	71.22
799.109	72.09
799.285	65.95
799.46	73.2
799.636	70.41
799.811	67.96
799.986	72.24
800.162	80.09
800.337	82.44
800.513	77.07
800.688	73.99
800.863	79.44
801.039	68.99
801.214	63.18
801.389	65.47
801.565	67.43
801.74	54.24
801.915	62.33
802.09	60.4
802.265	60.56
802.441	59.52
802.616	61.07
802.791	59.4
802.966	62.29
803.141	63.65
803.316	63.36
803.491	78.37
803.666	83.64
803.841	83.63
804.016	81.42
804.191	85.12
804.366	68.05
804.541	57.8
804.716	56.21
804.891	51.43
805.066	56.69
805.241	58.87
805.416	61.61
805.591	62.04
805.765	66.67
805.94	67.38
806.115	67.26
806.29	66.6
806.464	66.22
806.639	62.93
806.814	53.39
806.989	51.21
807.163	63.33
807.338	71.18
807.512	72.46
807.687	59.51
807.862	68.04
808.036	60.28
808.211	52.03
808.385	60.18
808.56	78.13
808.734	76.1
808.909	68.08
809.083	66.2
809.258	66.95
809.432	67.97
809.606	57.57
809.781	61.79
809.955	68.76
810.13	67.25
810.304	57.68
810.478	53.22
810.652	53.57
810.827	55.46
811.001	51.44
811.175	55.33
811.349	58.45
811.524	54.52
811.698	41.83
811.872	45.27
812.046	49.04
812.22	55.94
812.394	60.07
812.568	72.57
812.742	72.47
812.916	63.62
813.09	53.41
813.264	44.26
813.438	49.37
813.612	47.76
813.786	44.16
813.96	58.43
814.134	71.45
814.308	76.04
814.482	86.46
814.656	85.38
814.83	85.84
815.003	83.94
815.177	66.13
815.351	54.33
815.525	66.04
815.698	55.79
815.872	45.6
816.046	48.02
816.219	53.95
816.393	55.78
816.567	56.29
816.74	59.66
816.914	68.08
817.088	71.31
817.261	64.93
817.435	61.74
817.608	67.43
817.782	47.98
817.955	53.79
818.129	52.58
818.302	59.96
818.475	64.24
818.649	68.73
818.822	48.22
818.996	58.17
819.169	54.95
819.342	47.37
819.516	55.07
819.689	67.03
819.862	53.67
820.035	46.83
820.209	47.52
820.382	44.12
820.555	43.27
820.728	37.93
820.901	35.84
821.075	36.18
821.248	45.81
821.421	39.96
821.594	46.8
821.767	72.75
821.94	81.26
822.113	55.56
822.286	49.83
822.459	59.81
822.632	52.08
822.805	27.66
822.978	36.03
823.151	44.77
823.324	30.35
823.496	6.66
823.669	9.79
823.842	18.85
824.015	2.13
824.188	5.61
824.361	25.45
824.533	32.65
824.706	39.08
824.879	46.21
825.051	59.51
825.224	55.77
825.397	42.55
825.569	29.92
825.742	56.36
825.915	63.15
826.087	67.04
826.26	64.19
826.432	69.03
826.605	60.75
826.777	40.83
826.95	44.75
827.122	41.23
827.295	44.24
827.467	46.55
827.64	29.44
827.812	0.13
827.984	19.69
828.157	5.79
828.329	-28.55
828.501	-19.38
828.674	39.73
828.846	24.65
829.018	39.73
829.19	25.63
829.363	59.37
829.535	46.19
829.707	37.48
829.879	14.15
830.051	13.21
830.223	-14.12
830.395	-41.98
830.568	-32.51
830.74	-34.23
830.912	9.02
831.084	-2.14
831.256	2.14
831.428	-15.53
831.6	-16.25
831.772	-51.26
831.943	-60.14
832.115	-35.23
832.287	-4.15
832.459	1.45
832.631	22.37
832.803	39.06
832.975	46.81
833.146	38.74
833.318	43.21
833.49	30.34
833.662	19.78
833.833	6.4
834.005	13.18
834.177	16.39
834.348	2.28
834.52	-11.42
834.692	-13.6
834.863	-47.76
835.035	-47.65
835.206	-66.49
835.378	-33.43
835.549	-45.09
835.721	-8.03
835.892	7.38
836.064	1.14
836.235	-2.14
836.407	21
836.578	-21.17
836.749	-52.01
836.921	-68.85
837.092	-81.44
837.264	-82.63
837.435	-85.39
837.606	-23.19
837.777	15.96
837.949	39.46
838.12	49.04
838.291	54.69
838.462	46.04
838.633	10.38
838.805	1.55
838.976	8.71
839.147	-51.27
839.318	-76.43
839.489	-91.63
839.66	-52.95
839.831	-26.22
840.002	-2.4
840.173	-4.94
840.344	45.04
840.515	19.8
840.686	-72.55
840.857	-41.26
841.028	-36.27
841.199	-74.3
841.369	-69.16
841.54	-49.98
841.711	-21.71
841.882	-0.89
842.053	18.8
842.223	-0.3
842.394	2.76
842.565	0.42
842.736	8.79
842.906	5.73
843.077	33.88
843.248	65.53
843.418	72.5
843.589	64.87
843.759	140.01
843.93	99.52
844.101	25.65
844.271	18.33
844.442	27.75
844.612	26.2
844.783	-16.33
844.953	-47.26
845.123	-84.44
845.294	-87.23
845.464	-366.49
845.635	-190.33
845.805	-80.58
845.975	-2.49
846.146	-30.64
846.316	-10.71
846.486	17.85
846.656	30.51
846.827	9.5
846.997	-5.67
847.167	28.48
847.337	4.04
847.507	-43.87
847.677	-29.9
847.848	33.5
848.018	24.2
848.188	33.13
848.358	30.77
848.528	13.43
848.698	-24.96
848.868	-151.14
849.038	-254.78
849.208	-84.72
849.378	-24.74
849.548	-6.39
849.718	42.05
849.887	55.86
850.057	36.11
850.227	19.9
850.397	-12.9
850.567	-135.71
850.737	-313.37
850.906	-1230.94
851.076	-1031.84
851.246	-503.01
851.415	-43.38
851.585	-48.5
851.755	-48.02
851.924	-9.22
852.094	-44.14
852.264	-118.97
852.433	-958.41
852.603	-207.36
852.772	-113.91
852.942	-13.65
853.111	-17.79
853.281	50.5
853.45	94.57
853.62	6.4
853.789	-10.61
853.959	21.61
854.128	2.73
854.297	-48.23
854.467	-66.72
854.636	-56.83
854.805	-4.59
854.975	-39.82
855.144	-34.73
855.313	330.94
855.482	-177.92
855.652	-293.93
855.821	-232.19
855.99	-59.65
856.159	-26.36
856.328	8.6
856.497	20.21
856.667	31.37
856.836	45.3
857.005	-5.59
857.174	-41.37
857.343	-55.45
857.512	-64.34
857.681	-126
857.85	-149.07
858.019	-79.09
858.188	-77.7
858.356	-77.85
858.525	-122.85
858.694	-88.89
858.863	-191.18
859.032	-110.16
859.201	-151.7
859.369	-96.62
859.538	-67.82
859.707	-34.73
859.876	-43.07
860.044	-29.64
860.213	37.59
860.382	25.35
860.55	6.26
860.719	20.37
860.888	22.71
861.056	-32.62
861.225	-17.12
861.393	55.35
861.562	83.27
861.73	-11.28
861.899	-184.16
862.067	-2754.31
862.236	-199.94
862.404	-422.12
862.572	-183.75
862.741	-8.37
862.909	-5.84
863.078	-70.51
863.246	-47.4
863.414	-38.91
863.582	-69.76
863.751	-92.32
863.919	-103.37
864.087	-39.52
864.255	-57.08
864.424	-400.7
864.592	-64.49
864.76	-118.72
864.928	-262.2
865.096	-149.28
865.264	-67.32
865.432	-1385.8
865.6	49.13
865.768	-108.98
865.936	-109.04
866.104	-163.86
866.272	-260.86
866.44	-496.36
866.608	763.45
866.776	378.68
866.944	3301.74
867.112	-549.47
867.28	-260.48
867.448	-89.87
867.615	-34.22
867.783	-1.21
867.951	-7.35
868.119	23.04
868.286	-7.53
868.454	-94.49
868.622	-143.38
868.789	-124.34
868.957	-1419.64
869.125	-1612.5
869.292	-139.5
869.46	-142.73
869.627	-21.35
869.795	-34.18
869.963	-14.72
870.13	33.04
870.298	65.14
870.465	1.14
870.632	-36.33
870.8	13.26
870.967	-49.27
871.135	-145.94
871.302	-89.46
871.469	-87.11
871.637	-218.06
871.804	-90.76
871.971	-124.65
872.139	-458.02
872.306	-1.11
872.473	1.47
872.64	-150.97
872.807	9.5
872.975	101.87
873.142	-89.73
873.309	1210.14
873.476	85.49
873.643	181.87
873.81	112.71
873.977	142.64
874.144	122.46
874.311	23.12
874.478	-93.18
874.645	-115.87
874.812	-134.28
874.979	-110.18
875.146	-94.69
875.313	-111.27
875.48	-29.14
875.647	-28.31
875.813	-64.7
875.98	-34.74
876.147	-36.12
876.314	-102.5
876.481	833.68
876.647	-806.46
876.814	325.26
876.981	-3.75
877.147	-22.85
877.314	20.43
877.481	3.3
877.647	-1.66
877.814	-46.06
877.98	-101.22
878.147	-72.17
878.314	-4.57
878.48	-45.29
878.647	-30.35
878.813	28.88
878.979	51.68
879.146	18.81
879.312	13.23
879.479	-43.98
879.645	-142.5
879.811	-349.45
879.978	-886.83
880.144	-270.72
880.31	-120.4
880.477	-403.27
880.643	-506.25
880.809	-220.24
880.975	-185.47
881.142	-1127.05
881.308	-97.41
881.474	-47.54
881.64	-5.97
881.806	-41.94
881.972	6.41
882.138	15.18
882.304	49.93
882.47	-203.12
882.636	-632.58
882.802	-240.05
882.968	-79.31
883.134	-51.34
883.3	-35.81
883.466	18.61
883.632	59.99
883.798	10.09
883.964	6.98
884.129	10.82
884.295	1.68
884.461	-64.08
884.627	-70.44
884.793	-108.23
884.958	-47.61
885.124	-134.49
885.29	-220.85
885.455	-329.49
885.621	-105.32
885.787	-174.49
885.952	-101.98
886.118	-88.07
886.283	-76.4
886.449	-156.23
886.614	-188.17
886.78	-401.83
886.945	1619.26
887.111	-709.68
887.276	-559.52
887.442	-731.59
887.607	-287.62
887.773	-195.14
887.938	-178.79
888.103	-252.86
888.269	-225.23
888.434	-386.35
888.599	-141.65
888.764	-51.71
888.93	-14.29
889.095	-23.62
889.26	-63.83
889.425	-38.49
889.59	-42.84
889.756	-71.38
889.921	-53.16
890.086	-15.48
890.251	-26.74
890.416	-168.36
890.581	-1114.11
890.746	45.27
890.911	50.16
891.076	76.27
891.241	-49.81
891.406	46.61
891.571	-42.83
891.736	-257.68
891.901	-773.23
892.065	693.13
892.23	158.15
892.395	232.05
892.56	361.78
892.725	-47.46
892.889	-279.88
893.054	-62.7
893.219	2.52
893.384	58.92
893.548	-23.52
893.713	-47.18
893.878	-19.98
