Data from Ofra_2a_PS_OCX4_Reflection_1.txt Node
Date: Tue Jul 20 09:21:36 EDT 2021
User: Adam
Spectrometer: FLMT01687
Trigger mode: 0
Integration Time (sec): 9.450000E-1
Scans to average: 3
Electric dark correction enabled: true
Nonlinearity correction enabled: false
Boxcar width: 3
XAxis mode: Wavelengths
Number of Pixels in Spectrum: 3648
>>>>>Begin Spectral Data<<<<<
179.494	28.4
179.716	-9.77
179.937	60.99
180.158	-78.52
180.38	504.94
180.601	160.32
180.823	72.95
181.044	36.75
181.265	-64.95
181.486	33.47
181.708	-277.17
181.929	-26.86
182.15	-697.16
182.372	90.16
182.593	13.61
182.814	277.99
183.035	238.95
183.257	140.95
183.478	71.75
183.699	90.48
183.92	71.18
184.141	72.92
184.363	63.26
184.584	60.68
184.805	42.96
185.026	12.08
185.247	4.54
185.468	-12.37
185.689	-8.55
185.91	-12.03
186.132	-9.89
186.353	-15.79
186.574	0.19
186.795	-21.47
187.016	-4.96
187.237	-4.52
187.458	-16.31
187.679	-32.49
187.9	-17.87
188.121	7.07
188.342	38
188.563	34.96
188.784	27.81
189.005	38.01
189.226	31.87
189.447	28.97
189.667	24.55
189.888	20.94
190.109	6.76
190.33	-1.07
190.551	0.96
190.772	-8.87
190.993	2.93
191.214	5.51
191.434	4.8
191.655	23.24
191.876	32.08
192.097	21.68
192.318	33.13
192.538	32.25
192.759	31.4
192.98	15.87
193.201	19.2
193.421	18.58
193.642	22.98
193.863	6.37
194.083	-8.61
194.304	-11.83
194.525	20.02
194.745	-3
194.966	9.63
195.187	9.19
195.407	17.53
195.628	24.44
195.848	21.06
196.069	17.99
196.29	16.59
196.51	4.1
196.731	18.94
196.951	13.83
197.172	19.36
197.392	33.61
197.613	23.05
197.833	14.91
198.054	15.27
198.274	3.59
198.495	6.07
198.715	2.38
198.936	-26.46
199.156	-2.03
199.377	12.23
199.597	-5.96
199.817	12.32
200.038	20.42
200.258	5.46
200.479	13.1
200.699	-1.09
200.919	1.74
201.14	21.24
201.36	11.19
201.58	7.36
201.801	6.85
202.021	6.35
202.241	13.62
202.461	15
202.682	22.38
202.902	24.14
203.122	15.51
203.342	30.66
203.563	35.23
203.783	36.06
204.003	37.64
204.223	36.86
204.443	29.47
204.663	35.67
204.884	33.07
205.104	32.69
205.324	29.08
205.544	40.06
205.764	22.96
205.984	31.88
206.204	35.77
206.424	26.18
206.644	22.24
206.864	23.49
207.084	11.56
207.304	11.74
207.525	5.1
207.745	-5.36
207.964	-6.86
208.184	-0.85
208.404	-1.16
208.624	-18.58
208.844	-9.8
209.064	-8.46
209.284	0.41
209.504	-8.8
209.724	-20.91
209.944	-27.12
210.164	6.99
210.384	0.89
210.604	14.82
210.823	21.68
211.043	33.82
211.263	45.78
211.483	48.27
211.703	45.77
211.922	42.06
212.142	41.88
212.362	46.93
212.582	45.47
212.801	35.47
213.021	30.56
213.241	36.1
213.461	42.13
213.68	46.11
213.9	34.91
214.12	36.41
214.339	32.95
214.559	36.32
214.779	34.48
214.998	24.54
215.218	16.25
215.438	24.37
215.657	21.12
215.877	24.1
216.096	24.98
216.316	23.25
216.535	26.7
216.755	15.11
216.974	5.76
217.194	4.48
217.413	16.53
217.633	16.97
217.852	20.75
218.072	20.06
218.291	37
218.511	38.15
218.73	40.57
218.95	44.56
219.169	47.18
219.389	41
219.608	45.61
219.827	38.87
220.047	58.31
220.266	50.88
220.485	37.67
220.705	28.39
220.924	20.3
221.143	19.22
221.363	20.98
221.582	13.28
221.801	15.56
222.021	24.39
222.24	27.51
222.459	31.91
222.678	32.78
222.897	29.81
223.117	35.32
223.336	45.08
223.555	31.04
223.774	42.88
223.993	47.21
224.213	41.19
224.432	56.94
224.651	39.26
224.87	19.61
225.089	38.61
225.308	33.99
225.527	31.07
225.746	37.73
225.965	11.55
226.184	14.5
226.404	22.91
226.623	7.43
226.842	16.93
227.061	14.63
227.28	17.58
227.499	36.29
227.718	33.19
227.936	25.66
228.155	30.3
228.374	24.81
228.593	22.43
228.812	17.42
229.031	6.53
229.25	14.56
229.469	23.31
229.688	23.37
229.907	22.43
230.125	29.58
230.344	29.24
230.563	32.62
230.782	27.56
231.001	31.14
231.22	23.72
231.438	30.18
231.657	24.71
231.876	33.84
232.095	35.72
232.313	39.38
232.532	33.35
232.751	42.41
232.969	44.06
233.188	42.74
233.407	30.73
233.625	32.75
233.844	36.99
234.063	31.6
234.281	30.67
234.5	27.25
234.719	22.9
234.937	25.01
235.156	24.35
235.374	21.87
235.593	28.32
235.811	14.67
236.03	13.4
236.249	32.08
236.467	44.23
236.686	54.74
236.904	39.73
237.123	40.3
237.341	47.43
237.559	47.89
237.778	54.15
237.996	50.31
238.215	35.57
238.433	37.65
238.652	41.19
238.87	36.04
239.088	31.79
239.307	24.47
239.525	16.52
239.743	15.62
239.962	14.34
240.18	20.91
240.398	29.63
240.617	35.75
240.835	40.11
241.053	46.7
241.271	56.55
241.49	56.19
241.708	46.62
241.926	28.74
242.144	25.7
242.363	13.64
242.581	14.56
242.799	5.2
243.017	4.46
243.235	-0.12
243.453	3.42
243.672	1.89
243.89	16.7
244.108	12.7
244.326	7.25
244.544	25.41
244.762	27.91
244.98	37.1
245.198	34.14
245.416	28.97
245.634	38.14
245.852	45.06
246.07	24.62
246.288	12.52
246.506	7.98
246.724	10.2
246.942	13.92
247.16	15.33
247.378	5.6
247.596	17.87
247.814	16.43
248.032	19.13
248.25	19.32
248.468	20.79
248.685	23.18
248.903	24.88
249.121	27.86
249.339	34.9
249.557	40.19
249.775	24.53
249.992	17.35
250.21	10.24
250.428	12.45
250.646	16.84
250.863	21.14
251.081	10.97
251.299	34.69
251.517	41.28
251.734	44.12
251.952	42.03
252.17	24.36
252.387	22.73
252.605	18.35
252.823	-7.64
253.04	6.21
253.258	-6.33
253.475	-7.92
253.693	10.98
253.911	11.85
254.128	14.36
254.346	17.86
254.563	10.75
254.781	10.92
254.998	18.93
255.216	10.93
255.433	4.57
255.651	12.35
255.868	16.54
256.086	5.84
256.303	13.82
256.521	-6.8
256.738	5.51
256.956	2.64
257.173	5.42
257.39	13.89
257.608	20.55
257.825	17.39
258.043	30.91
258.26	23.43
258.477	23.59
258.695	22.8
258.912	26.01
259.129	26.47
259.346	28.59
259.564	9
259.781	16.68
259.998	18.52
260.216	14.9
260.433	3.43
260.65	8.8
260.867	-6.35
261.084	9.33
261.302	3.02
261.519	-3.58
261.736	1.09
261.953	-6.16
262.17	-4.35
262.387	9.58
262.604	-7.31
262.822	-1.79
263.039	0.79
263.256	-1.09
263.473	4.9
263.69	-0.61
263.907	3.15
264.124	9.25
264.341	17.44
264.558	19.31
264.775	20.44
264.992	25.96
265.209	36.47
265.426	31.93
265.643	34.34
265.86	23.56
266.077	28.1
266.294	27.44
266.51	28.02
266.727	11.24
266.944	-0.23
267.161	-10.33
267.378	-7.88
267.595	-11.55
267.812	-16.74
268.028	-12.31
268.245	0.81
268.462	10.35
268.679	11.23
268.896	5.57
269.112	17.48
269.329	32.22
269.546	28.56
269.763	23.26
269.979	19.77
270.196	31.99
270.413	42.07
270.629	30.51
270.846	25.55
271.063	24.66
271.279	31.95
271.496	30.68
271.712	26.79
271.929	21.84
272.146	23.75
272.362	7.07
272.579	3.32
272.795	-5.41
273.012	-3.81
273.228	-1.45
273.445	-0.18
273.661	-3.29
273.878	7.91
274.094	18.2
274.311	15.88
274.527	21.3
274.744	13.77
274.96	11.38
275.177	8.6
275.393	6.29
275.609	1.08
275.826	7.24
276.042	5.52
276.259	8.39
276.475	9.64
276.691	15.35
276.908	12.48
277.124	13.76
277.34	11.07
277.557	10.22
277.773	12.17
277.989	9.26
278.205	-2.45
278.422	0.75
278.638	5.68
278.854	5.69
279.07	2.54
279.286	-3.05
279.503	6.57
279.719	23.97
279.935	25.27
280.151	29.21
280.367	34.49
280.583	32.12
280.799	35.52
281.016	29.29
281.232	16.11
281.448	12.02
281.664	-0.3
281.88	3.94
282.096	8.3
282.312	1.15
282.528	-23.8
282.744	-20.6
282.96	-9.22
283.176	-8.13
283.392	-10.91
283.608	-9.17
283.824	0.72
284.04	21.01
284.256	32.8
284.471	29.34
284.687	32.91
284.903	23.41
285.119	16.42
285.335	12.75
285.551	23.34
285.767	22.58
285.982	21.67
286.198	22.01
286.414	33.27
286.63	41.43
286.846	42.22
287.061	48.07
287.277	43.97
287.493	39.18
287.709	34.35
287.924	35.53
288.14	32.03
288.356	34.81
288.571	17.11
288.787	25.16
289.003	34.75
289.218	40.45
289.434	39.38
289.65	47.73
289.865	47.23
290.081	46.88
290.296	45.05
290.512	50.79
290.727	58.69
290.943	49.59
291.159	34.5
291.374	34.11
291.59	32.61
291.805	28.61
292.021	11.43
292.236	7.74
292.451	10.18
292.667	19.9
292.882	17.78
293.098	16.77
293.313	20.63
293.529	28.5
293.744	23.08
293.959	19.06
294.175	28.74
294.39	36.55
294.605	37.11
294.821	37.69
295.036	45.48
295.251	44.5
295.467	47.06
295.682	38.44
295.897	33.4
296.112	34.34
296.328	35.9
296.543	29.46
296.758	27.22
296.973	29.18
297.188	22.31
297.404	31.4
297.619	31.99
297.834	28.7
298.049	27.02
298.264	31.03
298.479	25.06
298.694	26.64
298.909	17.64
299.125	16.98
299.34	15.07
299.555	16.07
299.77	15.93
299.985	19.59
300.2	20.84
300.415	23.34
300.63	19.19
300.845	17.57
301.06	13.88
301.275	17.82
301.49	20.53
301.704	19.58
301.919	16.78
302.134	25.54
302.349	26.48
302.564	28.24
302.779	14.19
302.994	13.05
303.209	12.93
303.423	12.33
303.638	10.82
303.853	15.2
304.068	16.89
304.283	19.72
304.497	21.03
304.712	21.57
304.927	22.32
305.142	15.39
305.356	11.66
305.571	15.01
305.786	9.36
306	10.19
306.215	11.11
306.43	14.88
306.644	16.74
306.859	21.81
307.074	17.98
307.288	27.82
307.503	28.14
307.717	29.09
307.932	32.59
308.147	36.79
308.361	27.59
308.576	29.17
308.79	23.57
309.005	21.3
309.219	20.63
309.434	7.1
309.648	-2.86
309.863	0.65
310.077	0.4
310.292	12.08
310.506	24.78
310.72	26.07
310.935	39.15
311.149	39.48
311.364	40.23
311.578	38.82
311.792	32.34
312.007	23.62
312.221	19.05
312.435	15.05
312.649	24.9
312.864	22.93
313.078	17.66
313.292	24.34
313.507	24.23
313.721	30.32
313.935	38.87
314.149	25.08
314.363	24.15
314.578	32.17
314.792	24.26
315.006	29.31
315.22	39.18
315.434	29.93
315.648	35.19
315.862	41.06
316.077	30.63
316.291	35.94
316.505	29.62
316.719	4.56
316.933	8.39
317.147	4.23
317.361	2.88
317.575	8.55
317.789	10.57
318.003	14.97
318.217	22.02
318.431	23.96
318.645	24.03
318.859	12.74
319.073	19.95
319.287	20.81
319.5	20.82
319.714	18.83
319.928	18.57
320.142	17.63
320.356	37.86
320.57	30.15
320.784	29.3
320.997	31.59
321.211	40.85
321.425	39.28
321.639	39.81
321.853	28.65
322.066	33.35
322.28	29.62
322.494	20.9
322.707	16.34
322.921	17.47
323.135	19.36
323.349	23.88
323.562	27.09
323.776	30.53
323.989	37.96
324.203	37.56
324.417	28.33
324.63	24.15
324.844	23.51
325.057	19.7
325.271	19.73
325.485	17.42
325.698	14.18
325.912	25.89
326.125	25.41
326.339	24.78
326.552	26.18
326.766	21.43
326.979	16.65
327.193	19.89
327.406	15.02
327.619	3.9
327.833	3.79
328.046	2.67
328.26	6.22
328.473	6.78
328.686	7.25
328.9	6.39
329.113	17.38
329.326	10.55
329.54	8.71
329.753	10.37
329.966	20.68
330.179	29.1
330.393	28.71
330.606	38.91
330.819	51.14
331.032	57.86
331.246	63.6
331.459	59.35
331.672	49.96
331.885	51.18
332.098	43.39
332.311	26.86
332.525	21.62
332.738	21.5
332.951	22.51
333.164	23.69
333.377	14.8
333.59	19.9
333.803	28.35
334.016	17.58
334.229	11.07
334.442	15.25
334.655	21.54
334.868	30.39
335.081	31.58
335.294	20.24
335.507	25.47
335.72	11.46
335.933	15.44
336.146	13.39
336.359	9.34
336.572	0.47
336.785	12.03
336.997	7.42
337.21	22.22
337.423	15.03
337.636	11.69
337.849	13.66
338.062	17.71
338.274	13.23
338.487	21.39
338.7	19.09
338.913	23.16
339.125	22.09
339.338	25.01
339.551	21.56
339.763	22.89
339.976	15.34
340.189	13.95
340.402	9.05
340.614	17.67
340.827	4.59
341.039	5.23
341.252	9.09
341.465	12.25
341.677	10.34
341.89	18.81
342.102	14.09
342.315	26.62
342.527	24.17
342.74	16.41
342.952	19.99
343.165	28.21
343.377	22.18
343.59	22.65
343.802	22.24
344.015	24.97
344.227	18.25
344.44	13.74
344.652	16.47
344.864	25.11
345.077	20.79
345.289	16.89
345.502	23.59
345.714	29.5
345.926	37.81
346.139	27.34
346.351	9.77
346.563	10.6
346.775	7.33
346.988	0.87
347.2	9.52
347.412	8.28
347.624	8.24
347.837	14.21
348.049	17.88
348.261	21.95
348.473	21.51
348.685	13.16
348.897	10.94
349.11	14
349.322	4.75
349.534	-7.6
349.746	-4.33
349.958	0.91
350.17	0.59
350.382	4.32
350.594	-1.36
350.806	6.4
351.018	20.4
351.23	16.42
351.442	19.99
351.654	23.38
351.866	26.21
352.078	29.98
352.29	32.31
352.502	31.88
352.714	39.4
352.926	37.57
353.138	40.5
353.35	36.2
353.561	38.18
353.773	39.76
353.985	40.11
354.197	33.53
354.409	34.98
354.621	36.58
354.832	31.68
355.044	32.3
355.256	26.78
355.468	15.71
355.679	12.44
355.891	14.92
356.103	10.82
356.314	12.81
356.526	8.6
356.738	7.44
356.949	13.19
357.161	24.48
357.373	21.78
357.584	25.88
357.796	29.18
358.008	28.74
358.219	34.47
358.431	32.66
358.642	25.6
358.854	30.82
359.065	26.71
359.277	18.97
359.488	11.48
359.7	12.6
359.911	13.08
360.123	14.47
360.334	7.5
360.546	3.82
360.757	3.93
360.969	10.62
361.18	1.96
361.391	5.39
361.603	4.41
361.814	6.77
362.025	6.17
362.237	10.28
362.448	9.85
362.659	9.91
362.871	7.43
363.082	8.91
363.293	9.35
363.504	14.59
363.716	16.95
363.927	16.14
364.138	28.79
364.349	33.51
364.56	33.52
364.772	32.94
364.983	30.62
365.194	36.04
365.405	40.56
365.616	25.32
365.827	28.57
366.038	28.78
366.25	32.06
366.461	38.02
366.672	27.86
366.883	29.11
367.094	29.64
367.305	21.39
367.516	20.46
367.727	17.65
367.938	19.71
368.149	21.72
368.36	18.87
368.571	16.75
368.781	17.21
368.992	17.01
369.203	18.09
369.414	6.79
369.625	7
369.836	4.41
370.047	1.94
370.258	2.78
370.468	-7.1
370.679	-10.56
370.89	2.42
371.101	3.06
371.312	3.03
371.522	4.34
371.733	-6.62
371.944	0.68
372.155	-2.6
372.365	-6.38
372.576	-5.96
372.787	-5.58
372.997	-2.74
373.208	3.81
373.419	5.78
373.629	8.73
373.84	5.06
374.05	5.88
374.261	4.02
374.472	6.2
374.682	11.51
374.893	9.73
375.103	11.32
375.314	8.49
375.524	8.1
375.735	7.32
375.945	7.97
376.156	8.9
376.366	13.14
376.577	18.93
376.787	24.76
376.997	23.81
377.208	27.95
377.418	24.5
377.629	20.38
377.839	19.49
378.049	17.79
378.26	15.15
378.47	22.01
378.68	18.2
378.89	15.68
379.101	11.73
379.311	9.37
379.521	15.48
379.732	8.33
379.942	4.4
380.152	14.39
380.362	17
380.572	23.76
380.783	22.02
380.993	19.75
381.203	24.62
381.413	20.77
381.623	18.22
381.833	16.27
382.043	10.91
382.253	11.16
382.463	13.48
382.674	19.32
382.884	15.19
383.094	11.93
383.304	7.89
383.514	14.72
383.724	12.64
383.934	8.94
384.144	6.19
384.353	14.06
384.563	14.04
384.773	18.02
384.983	13.46
385.193	15.19
385.403	15.55
385.613	13.8
385.823	10.17
386.033	8.81
386.242	7.99
386.452	8.08
386.662	5.46
386.872	5.01
387.082	8.01
387.291	8.19
387.501	10.63
387.711	9.06
387.921	11.04
388.13	13.09
388.34	11.71
388.55	10.78
388.759	10.16
388.969	6.8
389.179	8.92
389.388	7.49
389.598	6.49
389.807	6.44
390.017	7.25
390.227	7.08
390.436	8.04
390.646	7.55
390.855	7.7
391.065	7.46
391.274	6.59
391.484	6.06
391.693	5.93
391.903	5.31
392.112	6.25
392.322	7.86
392.531	8.68
392.74	7.41
392.95	7.22
393.159	7.69
393.369	8.68
393.578	7.11
393.787	5.55
393.997	5.51
394.206	6.79
394.415	6.43
394.625	5.3
394.834	3.99
395.043	4.43
395.252	4.5
395.462	4.19
395.671	4.02
395.88	4.15
396.089	4.15
396.298	4.11
396.508	3.98
396.717	3.78
396.926	3.61
397.135	3.6
397.344	3.42
397.553	3.91
397.762	3.98
397.971	3.8
398.181	3.85
398.39	3.68
398.599	3.7
398.808	3.72
399.017	3.59
399.226	3.99
399.435	4.03
399.644	3.9
399.853	4.24
400.062	4.16
400.27	4.34
400.479	4.19
400.688	4.27
400.897	4.49
401.106	4.65
401.315	4.41
401.524	4.45
401.733	4.13
401.941	4.2
402.15	3.76
402.359	3.6
402.568	3.52
402.777	3.5
402.985	3.42
403.194	3.48
403.403	3.33
403.612	3.48
403.82	3.49
404.029	3.52
404.238	3.51
404.446	3.51
404.655	3.45
404.864	3.62
405.072	3.63
405.281	3.5
405.489	3.55
405.698	3.49
405.906	3.49
406.115	3.56
406.324	3.36
406.532	3.3
406.741	3.41
406.949	3.3
407.158	3.38
407.366	3.44
407.574	3.44
407.783	3.49
407.991	3.44
408.2	3.35
408.408	3.32
408.617	3.27
408.825	3.23
409.033	3.15
409.242	3.16
409.45	3.19
409.658	3.19
409.867	3.21
410.075	3.22
410.283	3.08
410.491	3.09
410.7	3.1
410.908	3.2
411.116	3.15
411.324	3.24
411.533	3.13
411.741	3.23
411.949	3.2
412.157	3.13
412.365	2.98
412.573	2.96
412.781	2.85
412.99	2.97
413.198	2.93
413.406	2.86
413.614	2.85
413.822	2.98
414.03	2.96
414.238	2.96
414.446	2.95
414.654	2.92
414.862	2.9
415.07	3.01
415.278	2.86
415.486	2.93
415.694	2.89
415.902	2.76
416.109	2.78
416.317	2.8
416.525	2.76
416.733	2.88
416.941	2.83
417.149	2.93
417.357	2.99
417.564	2.98
417.772	3.02
417.98	2.97
418.188	2.86
418.395	2.91
418.603	2.81
418.811	2.75
419.019	2.76
419.226	2.82
419.434	2.77
419.642	2.72
419.849	2.65
420.057	2.66
420.265	2.74
420.472	2.73
420.68	2.61
420.887	2.58
421.095	2.65
421.302	2.69
421.51	2.78
421.717	2.77
421.925	2.63
422.132	2.67
422.34	2.66
422.547	2.56
422.755	2.53
422.962	2.3
423.17	2.22
423.377	2.35
423.585	2.29
423.792	2.3
423.999	2.35
424.207	2.29
424.414	2.42
424.621	2.48
424.829	2.45
425.036	2.45
425.243	2.55
425.451	2.54
425.658	2.6
425.865	2.49
426.072	2.51
426.28	2.54
426.487	2.55
426.694	2.47
426.901	2.46
427.108	2.5
427.315	2.5
427.523	2.45
427.73	2.47
427.937	2.46
428.144	2.49
428.351	2.62
428.558	2.5
428.765	2.58
428.972	2.6
429.179	2.49
429.386	2.58
429.593	2.59
429.8	2.53
430.007	2.57
430.214	2.56
430.421	2.56
430.628	2.58
430.835	2.48
431.042	2.43
431.249	2.4
431.456	2.42
431.662	2.42
431.869	2.41
432.076	2.44
432.283	2.48
432.49	2.51
432.697	2.54
432.903	2.52
433.11	2.57
433.317	2.61
433.524	2.55
433.73	2.6
433.937	2.54
434.144	2.61
434.35	2.61
434.557	2.62
434.764	2.6
434.97	2.72
435.177	2.74
435.384	2.85
435.59	2.82
435.797	2.85
436.003	2.86
436.21	2.82
436.416	2.74
436.623	2.72
436.829	2.71
437.036	2.69
437.242	2.71
437.449	2.76
437.655	2.81
437.862	2.86
438.068	2.89
438.275	2.86
438.481	2.92
438.687	2.95
438.894	2.86
439.1	2.88
439.307	2.88
439.513	2.89
439.719	2.92
439.926	2.92
440.132	2.88
440.338	2.94
440.544	2.93
440.751	2.95
440.957	2.94
441.163	2.98
441.369	2.99
441.575	3.02
441.782	3.04
441.988	3.02
442.194	3.09
442.4	3.15
442.606	3.12
442.812	3.2
443.018	3.2
443.224	3.2
443.431	3.29
443.637	3.27
443.843	3.27
444.049	3.28
444.255	3.2
444.461	3.26
444.667	3.3
444.873	3.25
445.079	3.25
445.284	3.23
445.49	3.26
445.696	3.35
445.902	3.41
446.108	3.39
446.314	3.45
446.52	3.45
446.726	3.48
446.931	3.47
447.137	3.39
447.343	3.36
447.549	3.38
447.755	3.34
447.96	3.38
448.166	3.34
448.372	3.4
448.578	3.47
448.783	3.47
448.989	3.45
449.195	3.52
449.4	3.57
449.606	3.61
449.812	3.58
450.017	3.57
450.223	3.56
450.428	3.57
450.634	3.55
450.84	3.52
451.045	3.55
451.251	3.57
451.456	3.54
451.662	3.5
451.867	3.51
452.073	3.5
452.278	3.48
452.483	3.41
452.689	3.42
452.894	3.43
453.1	3.45
453.305	3.47
453.51	3.51
453.716	3.49
453.921	3.56
454.127	3.56
454.332	3.59
454.537	3.59
454.742	3.57
454.948	3.56
455.153	3.59
455.358	3.57
455.563	3.56
455.769	3.58
455.974	3.63
456.179	3.63
456.384	3.6
456.589	3.63
456.795	3.6
457	3.59
457.205	3.56
457.41	3.58
457.615	3.61
457.82	3.72
458.025	3.71
458.23	3.74
458.435	3.74
458.64	3.79
458.845	3.75
459.05	3.75
459.255	3.66
459.46	3.61
459.665	3.67
459.87	3.71
460.075	3.69
460.28	3.69
460.485	3.74
460.69	3.77
460.895	3.81
461.099	3.77
461.304	3.73
461.509	3.72
461.714	3.74
461.919	3.7
462.123	3.73
462.328	3.79
462.533	3.78
462.738	3.83
462.942	3.91
463.147	3.95
463.352	3.96
463.556	4.02
463.761	3.99
463.966	4.03
464.17	4.05
464.375	4.04
464.58	4
464.784	4.02
464.989	3.99
465.193	4.01
465.398	4.06
465.602	4.05
465.807	4.03
466.011	4.1
466.216	4.08
466.42	4.06
466.625	4.07
466.829	4.1
467.034	4.1
467.238	4.14
467.443	4.21
467.647	4.23
467.851	4.28
468.056	4.33
468.26	4.29
468.464	4.32
468.669	4.36
468.873	4.29
469.077	4.34
469.282	4.36
469.486	4.37
469.69	4.46
469.894	4.53
470.099	4.58
470.303	4.64
470.507	4.68
470.711	4.69
470.915	4.74
471.119	4.75
471.324	4.72
471.528	4.74
471.732	4.77
471.936	4.77
472.14	4.77
472.344	4.8
472.548	4.8
472.752	4.88
472.956	4.94
473.16	5
473.364	5.01
473.568	5.04
473.772	5.08
473.976	5.12
474.18	5.11
474.384	5.11
474.588	5.07
474.792	5.11
474.995	5.18
475.199	5.18
475.403	5.22
475.607	5.29
475.811	5.29
476.015	5.35
476.218	5.4
476.422	5.43
476.626	5.45
476.83	5.49
477.033	5.51
477.237	5.54
477.441	5.59
477.644	5.65
477.848	5.71
478.052	5.73
478.255	5.71
478.459	5.76
478.663	5.79
478.866	5.79
479.07	5.83
479.273	5.8
479.477	5.86
479.681	5.94
479.884	5.91
480.088	5.93
480.291	5.99
480.495	5.97
480.698	5.96
480.901	5.97
481.105	5.98
481.308	6.05
481.512	6.04
481.715	6.02
481.919	6.04
482.122	6.1
482.325	6.13
482.529	6.14
482.732	6.15
482.935	6.16
483.138	6.17
483.342	6.21
483.545	6.22
483.748	6.24
483.952	6.26
484.155	6.27
484.358	6.32
484.561	6.38
484.764	6.38
484.967	6.45
485.171	6.46
485.374	6.51
485.577	6.5
485.78	6.52
485.983	6.52
486.186	6.57
486.389	6.49
486.592	6.51
486.795	6.47
486.998	6.48
487.201	6.51
487.404	6.53
487.607	6.51
487.81	6.58
488.013	6.56
488.216	6.57
488.419	6.6
488.622	6.58
488.825	6.54
489.028	6.52
489.231	6.51
489.433	6.53
489.636	6.54
489.839	6.54
490.042	6.56
490.245	6.63
490.447	6.66
490.65	6.66
490.853	6.68
491.056	6.71
491.258	6.72
491.461	6.69
491.664	6.65
491.866	6.68
492.069	6.71
492.272	6.71
492.474	6.69
492.677	6.69
492.879	6.77
493.082	6.86
493.285	6.86
493.487	6.86
493.69	6.89
493.892	6.96
494.095	6.98
494.297	6.99
494.5	7.01
494.702	7.05
494.905	7.11
495.107	7.11
495.309	7.1
495.512	7.14
495.714	7.18
495.917	7.16
496.119	7.2
496.321	7.23
496.524	7.28
496.726	7.33
496.928	7.38
497.13	7.41
497.333	7.46
497.535	7.49
497.737	7.52
497.939	7.55
498.142	7.55
498.344	7.54
498.546	7.58
498.748	7.56
498.95	7.58
499.152	7.56
499.355	7.6
499.557	7.69
499.759	7.75
499.961	7.8
500.163	7.9
500.365	7.94
500.567	8.01
500.769	8.07
500.971	8.07
501.173	8.08
501.375	8.09
501.577	8.1
501.779	8.15
501.981	8.16
502.183	8.15
502.385	8.17
502.587	8.22
502.788	8.25
502.99	8.28
503.192	8.31
503.394	8.42
503.596	8.44
503.798	8.58
503.999	8.64
504.201	8.68
504.403	8.71
504.605	8.74
504.806	8.76
505.008	8.82
505.21	8.81
505.411	8.89
505.613	8.93
505.815	9
506.016	9.06
506.218	9.1
506.42	9.18
506.621	9.21
506.823	9.22
507.024	9.28
507.226	9.33
507.427	9.35
507.629	9.41
507.83	9.43
508.032	9.49
508.233	9.49
508.435	9.48
508.636	9.5
508.838	9.52
509.039	9.56
509.24	9.58
509.442	9.59
509.643	9.64
509.845	9.73
510.046	9.76
510.247	9.81
510.448	9.87
510.65	9.91
510.851	9.97
511.052	10.02
511.254	10.03
511.455	10.04
511.656	10.07
511.857	10.12
512.058	10.18
512.26	10.19
512.461	10.2
512.662	10.24
512.863	10.33
513.064	10.38
513.265	10.41
513.466	10.46
513.667	10.51
513.868	10.57
514.069	10.6
514.27	10.63
514.471	10.69
514.672	10.68
514.873	10.7
515.074	10.74
515.275	10.76
515.476	10.77
515.677	10.81
515.878	10.85
516.079	10.91
516.28	10.92
516.481	10.94
516.682	10.98
516.882	11.05
517.083	11.06
517.284	11.06
517.485	11.08
517.686	11.1
517.886	11.15
518.087	11.19
518.288	11.22
518.488	11.26
518.689	11.26
518.89	11.33
519.091	11.37
519.291	11.39
519.492	11.39
519.692	11.44
519.893	11.44
520.094	11.49
520.294	11.45
520.495	11.5
520.695	11.54
520.896	11.6
521.096	11.64
521.297	11.68
521.497	11.69
521.698	11.76
521.898	11.81
522.099	11.82
522.299	11.84
522.499	11.83
522.7	11.9
522.9	11.94
523.101	12
523.301	12.02
523.501	12.07
523.702	12.11
523.902	12.13
524.102	12.17
524.302	12.18
524.503	12.19
524.703	12.22
524.903	12.26
525.103	12.26
525.304	12.31
525.504	12.32
525.704	12.35
525.904	12.38
526.104	12.41
526.304	12.4
526.504	12.45
526.705	12.49
526.905	12.52
527.105	12.54
527.305	12.56
527.505	12.59
527.705	12.61
527.905	12.63
528.105	12.68
528.305	12.68
528.505	12.73
528.705	12.73
528.905	12.75
529.105	12.83
529.304	12.89
529.504	12.88
529.704	12.92
529.904	12.97
530.104	13
530.304	13.04
530.503	13.07
530.703	13.1
530.903	13.14
531.103	13.18
531.303	13.21
531.502	13.25
531.702	13.27
531.902	13.29
532.101	13.3
532.301	13.38
532.501	13.42
532.7	13.43
532.9	13.5
533.1	13.54
533.299	13.6
533.499	13.64
533.698	13.65
533.898	13.68
534.097	13.74
534.297	13.76
534.496	13.78
534.696	13.79
534.895	13.82
535.095	13.89
535.294	13.96
535.494	14
535.693	14.05
535.892	14.09
536.092	14.13
536.291	14.21
536.491	14.21
536.69	14.26
536.889	14.28
537.088	14.27
537.288	14.37
537.487	14.43
537.686	14.49
537.886	14.54
538.085	14.57
538.284	14.63
538.483	14.71
538.682	14.74
538.882	14.79
539.081	14.79
539.28	14.8
539.479	14.87
539.678	14.94
539.877	14.98
540.076	15.05
540.275	15.07
540.474	15.08
540.673	15.18
540.872	15.23
541.071	15.28
541.27	15.3
541.469	15.33
541.668	15.43
541.867	15.53
542.066	15.58
542.265	15.61
542.464	15.7
542.663	15.82
542.862	15.88
543.06	15.9
543.259	15.93
543.458	15.97
543.657	16.05
543.856	16.09
544.054	16.11
544.253	16.22
544.452	16.28
544.651	16.39
544.849	16.48
545.048	16.56
545.247	16.64
545.445	16.73
545.644	16.78
545.843	16.91
546.041	16.99
546.24	17.04
546.438	17.15
546.637	17.26
546.836	17.31
547.034	17.37
547.233	17.42
547.431	17.5
547.63	17.61
547.828	17.67
548.027	17.7
548.225	17.82
548.423	17.91
548.622	18.03
548.82	18.1
549.019	18.2
549.217	18.29
549.415	18.41
549.614	18.5
549.812	18.58
550.01	18.63
550.209	18.72
550.407	18.81
550.605	18.9
550.803	18.98
551.002	19.09
551.2	19.2
551.398	19.33
551.596	19.45
551.794	19.55
551.993	19.65
552.191	19.77
552.389	19.89
552.587	19.97
552.785	20.08
552.983	20.2
553.181	20.3
553.379	20.4
553.577	20.5
553.775	20.59
553.973	20.74
554.171	20.87
554.369	20.98
554.567	21.09
554.765	21.21
554.963	21.37
555.161	21.47
555.359	21.59
555.557	21.73
555.755	21.83
555.952	22
556.15	22.15
556.348	22.27
556.546	22.43
556.744	22.57
556.941	22.7
557.139	22.9
557.337	22.95
557.535	23.07
557.732	23.2
557.93	23.31
558.128	23.38
558.325	23.46
558.523	23.52
558.721	23.7
558.918	23.87
559.116	23.97
559.313	24.18
559.511	24.35
559.708	24.48
559.906	24.65
560.104	24.73
560.301	24.82
560.498	24.98
560.696	25.06
560.893	25.18
561.091	25.34
561.288	25.45
561.486	25.64
561.683	25.74
561.88	25.8
562.078	25.93
562.275	26.06
562.473	26.13
562.67	26.26
562.867	26.35
563.064	26.52
563.262	26.74
563.459	26.9
563.656	27.08
563.853	27.28
564.051	27.43
564.248	27.6
564.445	27.67
564.642	27.78
564.839	27.87
565.036	27.95
565.234	28.06
565.431	28.16
565.628	28.26
565.825	28.42
566.022	28.5
566.219	28.62
566.416	28.8
566.613	28.9
566.81	29.01
567.007	29.1
567.204	29.22
567.401	29.38
567.598	29.47
567.795	29.5
567.991	29.62
568.188	29.72
568.385	29.83
568.582	29.95
568.779	30.01
568.976	30.13
569.172	30.23
569.369	30.27
569.566	30.34
569.763	30.43
569.96	30.49
570.156	30.58
570.353	30.62
570.55	30.71
570.746	30.8
570.943	30.95
571.14	31.01
571.336	31.06
571.533	31.12
571.729	31.18
571.926	31.23
572.123	31.25
572.319	31.18
572.516	31.21
572.712	31.27
572.909	31.34
573.105	31.39
573.302	31.39
573.498	31.51
573.695	31.62
573.891	31.66
574.087	31.69
574.284	31.66
574.48	31.7
574.677	31.74
574.873	31.73
575.069	31.8
575.266	31.86
575.462	31.83
575.658	31.93
575.854	31.97
576.051	32.04
576.247	32.09
576.443	32.09
576.639	32.07
576.835	32.13
577.032	32.13
577.228	32.11
577.424	32.11
577.62	32.1
577.816	32.05
578.012	32.06
578.208	32.12
578.404	32.13
578.6	32.14
578.796	32.16
578.993	32.16
579.189	32.18
579.384	32.18
579.58	32.2
579.776	32.16
579.972	32.22
580.168	32.19
580.364	32.22
580.56	32.22
580.756	32.26
580.952	32.22
581.148	32.16
581.343	32.15
581.539	32.12
581.735	32.08
581.931	32.15
582.127	32.11
582.322	32.14
582.518	32.17
582.714	32.09
582.909	32.12
583.105	32.11
583.301	32.08
583.496	32.07
583.692	32.02
583.888	32.09
584.083	32.12
584.279	32.16
584.474	32.16
584.67	32.12
584.866	32.11
585.061	32.12
585.257	32.11
585.452	32.11
585.648	32.11
585.843	32.13
586.039	32.12
586.234	32.16
586.429	32.13
586.625	32.09
586.82	32.11
587.015	32.1
587.211	32.09
587.406	32.22
587.601	32.23
587.797	32.27
587.992	32.32
588.187	32.34
588.383	32.4
588.578	32.45
588.773	32.41
588.968	32.47
589.163	32.55
589.359	32.55
589.554	32.53
589.749	32.46
589.944	32.48
590.139	32.48
590.334	32.46
590.529	32.5
590.724	32.55
590.919	32.73
591.114	32.76
591.309	32.81
591.504	32.84
591.699	32.91
591.894	32.98
592.089	33.03
592.284	33.03
592.479	33.17
592.674	33.24
592.869	33.36
593.064	33.45
593.259	33.44
593.454	33.48
593.648	33.59
593.843	33.65
594.038	33.74
594.233	33.78
594.428	33.88
594.622	33.97
594.817	34.07
595.012	34.08
595.206	34.18
595.401	34.27
595.596	34.46
595.79	34.51
595.985	34.65
596.18	34.75
596.374	34.9
596.569	35
596.763	35.16
596.958	35.14
597.153	35.21
597.347	35.3
597.542	35.47
597.736	35.6
597.931	35.64
598.125	35.64
598.319	35.77
598.514	35.85
598.708	35.93
598.903	35.97
599.097	36
599.291	36.13
599.486	36.27
599.68	36.3
599.874	36.42
600.069	36.47
600.263	36.5
600.457	36.59
600.651	36.67
600.846	36.7
601.04	36.81
601.234	36.86
601.428	36.93
601.622	36.9
601.817	37.01
602.011	37.02
602.205	37.13
602.399	37.13
602.593	37.17
602.787	37.19
602.981	37.29
603.175	37.24
603.369	37.22
603.563	37.13
603.757	37.1
603.951	37.07
604.145	37.1
604.339	37.08
604.533	37.06
604.727	37.13
604.921	37.12
605.115	37.12
605.309	37.15
605.502	37.17
605.696	37.12
605.89	37.13
606.084	37.01
606.278	36.97
606.471	36.95
606.665	36.87
606.859	36.76
607.053	36.73
607.246	36.7
607.44	36.72
607.634	36.71
607.827	36.65
608.021	36.59
608.214	36.55
608.408	36.52
608.602	36.39
608.795	36.26
608.989	36.19
609.182	36.17
609.376	36.12
609.569	36.03
609.763	36.03
609.956	35.96
610.15	35.99
610.343	35.9
610.537	35.79
610.73	35.75
610.923	35.71
611.117	35.54
611.31	35.44
611.504	35.35
611.697	35.31
611.89	35.21
612.083	35.12
612.277	34.95
612.47	34.9
612.663	34.87
612.856	34.68
613.05	34.57
613.243	34.47
613.436	34.3
613.629	34.26
613.822	34.2
614.015	34.12
614.209	34.15
614.402	34.05
614.595	34.01
614.788	33.96
614.981	33.86
615.174	33.76
615.367	33.67
615.56	33.53
615.753	33.51
615.946	33.44
616.139	33.42
616.332	33.39
616.525	33.34
616.718	33.29
616.911	33.25
617.103	33.18
617.296	33.11
617.489	33.01
617.682	32.98
617.875	32.89
618.067	32.8
618.26	32.67
618.453	32.59
618.646	32.6
618.838	32.63
619.031	32.55
619.224	32.53
619.417	32.51
619.609	32.55
619.802	32.57
619.994	32.52
620.187	32.44
620.38	32.38
620.572	32.37
620.765	32.33
620.957	32.27
621.15	32.19
621.342	32.09
621.535	32.03
621.727	32
621.92	31.94
622.112	31.93
622.305	31.88
622.497	31.82
622.69	31.82
622.882	31.84
623.074	31.77
623.267	31.73
623.459	31.68
623.651	31.65
623.844	31.61
624.036	31.59
624.228	31.54
624.42	31.59
624.613	31.55
624.805	31.52
624.997	31.52
625.189	31.55
625.381	31.51
625.574	31.4
625.766	31.33
625.958	31.29
626.15	31.34
626.342	31.25
626.534	31.18
626.726	31.18
626.918	31.19
627.11	31.16
627.302	31.17
627.494	31.14
627.686	31.16
627.878	31.1
628.07	31.06
628.262	31.01
628.454	31
628.646	30.98
628.838	30.82
629.029	30.69
629.221	30.72
629.413	30.64
629.605	30.66
629.797	30.66
629.989	30.58
630.18	30.62
630.372	30.69
630.564	30.64
630.755	30.61
630.947	30.53
631.139	30.4
631.33	30.34
631.522	30.27
631.714	30.21
631.905	30.14
632.097	30.13
632.289	30.11
632.48	30.11
632.672	30.09
632.863	30.07
633.055	30.02
633.246	30.05
633.438	29.97
633.629	30.01
633.821	30.02
634.012	29.98
634.203	29.98
634.395	29.99
634.586	29.93
634.777	29.98
634.969	29.91
635.16	29.79
635.351	29.76
635.543	29.68
635.734	29.63
635.925	29.61
636.117	29.65
636.308	29.6
636.499	29.65
636.69	29.69
636.881	29.72
637.073	29.7
637.264	29.66
637.455	29.56
637.646	29.61
637.837	29.6
638.028	29.62
638.219	29.65
638.41	29.67
638.601	29.66
638.792	29.6
638.983	29.48
639.174	29.47
639.365	29.42
639.556	29.35
639.747	29.3
639.938	29.33
640.129	29.34
640.32	29.35
640.511	29.27
640.701	29.24
640.892	29.23
641.083	29.18
641.274	29.13
641.465	29.08
641.655	28.96
641.846	28.94
642.037	28.89
642.228	28.76
642.418	28.69
642.609	28.62
642.8	28.59
642.99	28.65
643.181	28.64
643.372	28.6
643.562	28.59
643.753	28.59
643.943	28.53
644.134	28.54
644.324	28.47
644.515	28.48
644.705	28.48
644.896	28.47
645.086	28.43
645.277	28.47
645.467	28.43
645.658	28.41
645.848	28.32
646.038	28.25
646.229	28.28
646.419	28.24
646.61	28.15
646.8	28.09
646.99	28.01
647.18	27.98
647.371	27.98
647.561	27.89
647.751	27.87
647.941	27.83
648.132	27.78
648.322	27.78
648.512	27.73
648.702	27.65
648.892	27.61
649.082	27.61
649.272	27.58
649.462	27.6
649.653	27.62
649.843	27.53
650.033	27.5
650.223	27.5
650.413	27.45
650.603	27.39
650.793	27.28
650.983	27.18
651.172	27.15
651.362	27.08
651.552	26.98
651.742	26.87
651.932	26.84
652.122	26.81
652.312	26.66
652.502	26.57
652.691	26.56
652.881	26.52
653.071	26.41
653.261	26.31
653.45	26.16
653.64	26.15
653.83	26.01
654.019	25.77
654.209	25.64
654.399	25.48
654.588	25.29
654.778	25.17
654.968	24.99
655.157	24.82
655.347	24.7
655.536	24.45
655.726	24.34
655.915	24.16
656.105	23.95
656.294	23.71
656.484	23.58
656.673	23.36
656.863	23.13
657.052	22.9
657.241	22.69
657.431	22.51
657.62	22.27
657.809	22
657.999	21.82
658.188	21.62
658.377	21.45
658.567	21.2
658.756	20.93
658.945	20.75
659.134	20.48
659.324	20.15
659.513	19.92
659.702	19.62
659.891	19.34
660.08	19.09
660.269	18.88
660.458	18.67
660.648	18.52
660.837	18.3
661.026	18.04
661.215	17.86
661.404	17.63
661.593	17.32
661.782	17.13
661.971	16.84
662.16	16.51
662.349	16.29
662.538	16.04
662.726	15.8
662.915	15.6
663.104	15.3
663.293	15.05
663.482	14.85
663.671	14.64
663.86	14.41
664.048	14.26
664.237	14.07
664.426	13.95
664.615	13.74
664.803	13.57
664.992	13.48
665.181	13.33
665.369	13.06
665.558	12.86
665.747	12.72
665.935	12.64
666.124	12.5
666.312	12.22
666.501	12.1
666.69	12.03
666.878	11.91
667.067	11.88
667.255	11.72
667.444	11.64
667.632	11.61
667.82	11.47
668.009	11.45
668.197	11.36
668.386	11.11
668.574	11.06
668.762	10.94
668.951	10.82
669.139	10.77
669.327	10.65
669.516	10.56
669.704	10.57
669.892	10.49
670.08	10.39
670.269	10.32
670.457	10.24
670.645	10.18
670.833	10.16
671.021	10.13
671.21	10.17
671.398	10.22
671.586	10.24
671.774	10.24
671.962	10.22
672.15	10.23
672.338	10.19
672.526	10.21
672.714	10.2
672.902	10.17
673.09	10.2
673.278	10.18
673.466	10.19
673.654	10.19
673.842	10.13
674.03	10.24
674.218	10.31
674.405	10.34
674.593	10.39
674.781	10.41
674.969	10.48
675.157	10.54
675.344	10.59
675.532	10.66
675.72	10.68
675.908	10.81
676.095	10.94
676.283	11.03
676.471	11.07
676.658	11.14
676.846	11.19
677.033	11.38
677.221	11.44
677.409	11.55
677.596	11.63
677.784	11.75
677.971	11.85
678.159	12.02
678.346	12.08
678.534	12.24
678.721	12.35
678.909	12.44
679.096	12.61
679.283	12.72
679.471	12.85
679.658	12.99
679.846	13.1
680.033	13.27
680.22	13.44
680.408	13.53
680.595	13.63
680.782	13.74
680.969	13.89
681.157	14.06
681.344	14.18
681.531	14.42
681.718	14.71
681.905	15
682.093	15.27
682.28	15.63
682.467	15.87
682.654	16.13
682.841	16.37
683.028	16.67
683.215	16.91
683.402	17.13
683.589	17.36
683.776	17.68
683.963	18.03
684.15	18.38
684.337	18.71
684.524	19.03
684.711	19.5
684.898	19.84
685.085	20.28
685.271	20.68
685.458	21.14
685.645	21.5
685.832	22.04
686.019	22.47
686.205	22.93
686.392	23.33
686.579	23.8
686.766	24.26
686.952	24.84
687.139	25.38
687.326	25.92
687.512	26.49
687.699	27.16
687.886	27.64
688.072	28.26
688.259	28.87
688.445	29.4
688.632	30.09
688.818	30.71
689.005	31.42
689.191	32.21
689.378	32.82
689.564	33.42
689.751	34.17
689.937	34.76
690.124	35.46
690.31	36
690.496	36.7
690.683	37.46
690.869	38.21
691.055	38.87
691.242	39.57
691.428	40.35
691.614	41.22
691.8	41.96
691.987	42.77
692.173	43.56
692.359	44.33
692.545	45.11
692.731	45.85
692.918	46.52
693.104	47.17
693.29	47.88
693.476	48.48
693.662	49.23
693.848	49.89
694.034	50.42
694.22	51.22
694.406	51.98
694.592	52.6
694.778	53.3
694.964	53.95
695.15	54.72
695.336	55.64
695.522	56.27
695.708	56.99
695.894	57.65
696.08	58.42
696.265	59.13
696.451	59.88
696.637	60.4
696.823	60.88
697.009	61.57
697.194	62.3
697.38	62.83
697.566	63.21
697.751	63.7
697.937	64.22
698.123	64.88
698.308	65.2
698.494	65.64
698.68	66.27
698.865	66.99
699.051	67.68
699.236	68.2
699.422	68.84
699.607	69.37
699.793	69.75
699.978	70.06
700.164	70.59
700.349	71.09
700.535	71.73
700.72	72.04
700.906	72.56
701.091	73.15
701.276	73.77
701.462	74.22
701.647	74.3
701.832	74.66
702.018	75.03
702.203	75.39
702.388	75.68
702.573	76.03
702.759	76.3
702.944	76.8
703.129	77.04
703.314	77.45
703.499	77.91
703.684	78.41
703.87	78.83
704.055	79.02
704.24	79.34
704.425	79.77
704.61	80.04
704.795	80.32
704.98	80.57
705.165	80.66
705.35	81.04
705.535	81.5
705.72	81.66
705.905	81.85
706.09	81.95
706.275	82.01
706.459	82.38
706.644	82.52
706.829	82.61
707.014	82.66
707.199	82.93
707.384	83.23
707.568	83.6
707.753	83.8
707.938	84.12
708.123	84.21
708.307	84.86
708.492	85.13
708.677	85.59
708.861	85.8
709.046	85.75
709.231	85.96
709.415	86.09
709.6	86.05
709.784	85.99
709.969	86.14
710.153	86.41
710.338	86.72
710.522	86.75
710.707	86.65
710.891	86.88
711.076	87.18
711.26	87.14
711.445	87.08
711.629	87.36
711.813	87.57
711.998	87.91
712.182	88
712.366	88.13
712.551	88.3
712.735	88.44
712.919	88.5
713.103	88.53
713.288	88.88
713.472	88.77
713.656	88.68
713.84	88.68
714.024	88.93
714.208	88.78
714.393	89
714.577	89.02
714.761	89.33
714.945	89.55
715.129	89.86
715.313	89.98
715.497	90.32
715.681	90.38
715.865	90.27
716.049	90.45
716.233	90.64
716.417	90.81
716.601	90.76
716.785	90.8
716.968	90.84
717.152	91.18
717.336	91.19
717.52	91.51
717.704	91.3
717.888	91.38
718.071	91.55
718.255	91.69
718.439	91.31
718.622	91.56
718.806	91.23
718.99	91.31
719.174	91.1
719.357	91.19
719.541	91.36
719.724	91.63
719.908	91.32
720.092	91.59
720.275	91.87
720.459	92.11
720.642	91.97
720.826	91.98
721.009	92.21
721.193	92.26
721.376	92.02
721.559	91.79
721.743	91.87
721.926	91.77
722.11	91.96
722.293	91.76
722.476	91.9
722.66	92.15
722.843	92.24
723.026	92.19
723.21	92.4
723.393	92.19
723.576	92.4
723.759	92.53
723.942	92.69
724.126	92.76
724.309	93.03
724.492	92.9
724.675	93.04
724.858	93.32
725.041	93.54
725.224	93.54
725.407	93.37
725.59	93.45
725.774	93.9
725.957	94.12
726.14	93.99
726.322	93.8
726.505	94.19
726.688	94.6
726.871	94.53
727.054	94.36
727.237	93.98
727.42	94.15
727.603	94.28
727.786	94.1
727.968	94.28
728.151	94.31
728.334	94.32
728.517	94.65
728.699	94.85
728.882	95.23
729.065	95.14
729.248	94.85
729.43	94.94
729.613	95.2
729.796	95.34
729.978	95.31
730.161	95.46
730.343	95.6
730.526	95.71
730.708	96.03
730.891	95.89
731.073	95.71
731.256	95.78
731.438	95.59
731.621	95.91
731.803	96.06
731.986	95.89
732.168	95.95
732.35	95.94
732.533	95.83
732.715	95.88
732.898	95.92
733.08	96.02
733.262	96.13
733.444	96.3
733.627	96.63
733.809	96.44
733.991	96.47
734.173	95.82
734.355	96.39
734.538	96.18
734.72	96.47
734.902	96.46
735.084	97.15
735.266	97.19
735.448	97.89
735.63	97.54
735.812	97.7
735.994	97.28
736.176	97.3
736.358	96.85
736.54	96.79
736.722	96.45
736.904	96.44
737.086	96.54
737.268	97.02
737.45	96.85
737.632	96.51
737.814	96.31
737.995	96.51
738.177	97
738.359	97.45
738.541	97.11
738.723	97.13
738.904	97.64
739.086	97.91
739.268	98.27
739.449	97.9
739.631	97.64
739.813	97.6
739.994	98.2
740.176	98.62
740.358	98.53
740.539	98.27
740.721	97.66
740.902	97.61
741.084	98.11
741.265	97.6
741.447	96.85
741.628	96.87
741.81	96.83
741.991	97.24
742.172	96.86
742.354	96.8
742.535	96.88
742.717	97.41
742.898	97.79
743.079	97.94
743.261	98.37
743.442	98.54
743.623	98.12
743.804	98.3
743.986	98.04
744.167	97.57
744.348	97.85
744.529	96.99
744.71	96.62
744.891	96.72
745.073	96.27
745.254	95.93
745.435	95.9
745.616	95.22
745.797	95.25
745.978	96.26
746.159	95.71
746.34	96.17
746.521	96.33
746.702	95.62
746.883	96.15
747.064	96.53
747.245	97.02
747.426	97.53
747.606	97.45
747.787	97.18
747.968	97.84
748.149	96.97
748.33	97.24
748.51	95.76
748.691	96.19
748.872	95.99
749.053	96.78
749.233	96.78
749.414	97.53
749.595	96.9
749.775	97.85
749.956	96.81
750.137	97.13
750.317	96.9
750.498	97.42
750.678	96.98
750.859	97.66
751.04	96.57
751.22	96.89
751.4	97.05
751.581	96.6
751.761	96.55
751.942	96.1
752.122	96.11
752.303	96.68
752.483	97.18
752.663	97.19
752.844	96.8
753.024	96.61
753.204	96.94
753.385	96.36
753.565	95.92
753.745	94.87
753.925	93.91
754.106	94.71
754.286	94.72
754.466	94.64
754.646	94.33
754.826	94.71
755.006	94.83
755.187	95.87
755.367	95.47
755.547	95.32
755.727	95.61
755.907	96.35
756.087	96.06
756.267	96.34
756.447	95.94
756.627	95.97
756.807	95.98
756.987	96.23
757.167	96.05
757.346	95.42
757.526	95.78
757.706	95.87
757.886	95.88
758.066	95.51
758.246	95.12
758.425	95.45
758.605	95.95
758.785	95.69
758.965	94.26
759.144	94.7
759.324	95.45
759.504	95.26
759.683	94.69
759.863	95.13
760.043	95.4
760.222	96.21
760.402	96.44
760.581	94.92
760.761	94.86
760.94	93.97
761.12	93.64
761.299	92.75
761.479	93.78
761.658	92.43
761.838	93.37
762.017	93.35
762.197	94.23
762.376	93.84
762.555	94.7
762.735	93.89
762.914	94.43
763.093	94.29
763.273	93.95
763.452	94.33
763.631	94.19
763.81	94.3
763.99	94.67
764.169	95.28
764.348	95.45
764.527	95.34
764.706	94.89
764.885	95.9
765.064	95.85
765.243	95.65
765.423	95.17
765.602	95.04
765.781	95.57
765.96	96.02
766.139	96.23
766.318	96.39
766.497	95.83
766.676	96.23
766.854	95.53
767.033	94.92
767.212	93.36
767.391	92.05
767.57	91.11
767.749	91.63
767.928	91.23
768.106	92.22
768.285	92.79
768.464	94.17
768.643	95.24
768.821	95.76
769	95.91
769.179	94.73
769.357	94.43
769.536	94.16
769.715	93.15
769.893	91.76
770.072	91.75
770.25	90.95
770.429	92.26
770.607	91.84
770.786	91.62
770.964	91.87
771.143	92.9
771.321	92.32
771.5	91.67
771.678	91.53
771.857	91.15
772.035	92.14
772.213	92.84
772.392	91.94
772.57	92.91
772.748	92.44
772.927	91.86
773.105	92.42
773.283	90.44
773.461	90.19
773.64	90.6
773.818	89.26
773.996	89.78
774.174	91.68
774.352	90.93
774.531	91.06
774.709	90.48
774.887	90.6
775.065	91.65
775.243	94.11
775.421	91.59
775.599	91.55
775.777	93.49
775.955	92.92
776.133	92.14
776.311	92.33
776.489	90.51
776.667	91.41
776.844	92.05
777.022	91.72
777.2	91.46
777.378	93.27
777.556	93.79
777.734	93.19
777.911	93.53
778.089	92.62
778.267	90.63
778.445	90.88
778.622	89.73
778.8	87.98
778.978	88.2
779.155	86.72
779.333	86.77
779.511	87.22
779.688	87.72
779.866	86.89
780.043	88.44
780.221	89.12
780.398	90.26
780.576	90.24
780.753	91.56
780.931	92.34
781.108	92.79
781.286	92.08
781.463	92.17
781.64	90.41
781.818	89.86
781.995	89.47
782.172	87.73
782.35	87.22
782.527	87.86
782.704	86.91
782.882	90.44
783.059	90.9
783.236	91.44
783.413	93.95
783.59	94.46
783.768	92.54
783.945	93.77
784.122	91.99
784.299	94
784.476	93.58
784.653	91.32
784.83	90.75
785.007	90.87
785.184	90.36
785.361	88.23
785.538	87.74
785.715	86.46
785.892	85.13
786.069	85.76
786.246	85.83
786.423	87.34
786.6	89.19
786.776	87.49
786.953	88.4
787.13	92.44
787.307	91.85
787.484	92.41
787.66	90.07
787.837	90.12
788.014	89.68
788.191	87.98
788.367	86.01
788.544	86.98
788.721	87.24
788.897	88.52
789.074	89.04
789.25	91.14
789.427	91.21
789.603	91.61
789.78	92.02
789.956	90.55
790.133	88.74
790.309	85.93
790.486	86.73
790.662	88.67
790.839	89.49
791.015	88.29
791.192	86.79
791.368	89.7
791.544	91.12
791.721	89.01
791.897	88.04
792.073	88.03
792.249	88.96
792.426	91.37
792.602	89.53
792.778	90.06
792.954	90.01
793.13	92.55
793.307	90.15
793.483	88.77
793.659	87.91
793.835	87.51
794.011	87.92
794.187	86.3
794.363	86.59
794.539	88.15
794.715	87.41
794.891	86.57
795.067	86.44
795.243	84.72
795.419	86.78
795.595	82.62
795.771	80.95
795.947	82.18
796.122	81.64
796.298	82.27
796.474	83.47
796.65	84.21
796.826	89.36
797.001	90.51
797.177	91.48
797.353	94.1
797.529	96.4
797.704	96.23
797.88	96.79
798.056	95.8
798.231	95.01
798.407	92.63
798.582	92.59
798.758	90.18
798.934	89.7
799.109	85.21
799.285	83.26
799.46	85.28
799.636	85.89
799.811	85.99
799.986	86.1
800.162	86.37
800.337	87.84
800.513	91.16
800.688	91.68
800.863	92.98
801.039	91.35
801.214	91.43
801.389	90.34
801.565	95.17
801.74	90.06
801.915	88.88
802.09	86.93
802.265	87.52
802.441	89.58
802.616	89.65
802.791	85.62
802.966	82.78
803.141	81.8
803.316	83.07
803.491	85.6
803.666	85.29
803.841	89.26
804.016	89.92
804.191	90.05
804.366	90.5
804.541	92.12
804.716	86.67
804.891	87.37
805.066	84.59
805.241	82.83
805.416	85.02
805.591	85.89
805.765	84.86
805.94	90.63
806.115	86.01
806.29	86.15
806.464	87.75
806.639	86.93
806.814	86.29
806.989	82.07
807.163	79.42
807.338	81.33
807.512	79.59
807.687	79.01
807.862	80.07
808.036	75.81
808.211	81.66
808.385	79.64
808.56	76.14
808.734	75.26
808.909	74.73
809.083	73
809.258	75.76
809.432	73.73
809.606	75.88
809.781	76.83
809.955	82
810.13	86.4
810.304	91.05
810.478	90.84
810.652	91.93
810.827	91.11
811.001	92.31
811.175	87.21
811.349	83.15
811.524	83.83
811.698	85.92
811.872	86.18
812.046	84.38
812.22	84.69
812.394	87.96
812.568	90.14
812.742	85.51
812.916	82.83
813.09	80.94
813.264	83.37
813.438	85.76
813.612	85.37
813.786	85.3
813.96	87.3
814.134	86.18
814.308	77.19
814.482	76.19
814.656	78.28
814.83	78.4
815.003	74.53
815.177	76.87
815.351	79.86
815.525	85.97
815.698	86.04
815.872	83.35
816.046	80.93
816.219	85.3
816.393	84.37
816.567	80.72
816.74	81.13
816.914	81.92
817.088	80.79
817.261	83.18
817.435	80.15
817.608	80.44
817.782	85.06
817.955	81.77
818.129	84.07
818.302	85.17
818.475	85.11
818.649	86.1
818.822	86.91
818.996	83.23
819.169	82.38
819.342	75.42
819.516	73.86
819.689	71.67
819.862	67.04
820.035	64.41
820.209	66.9
820.382	70.73
820.555	80.08
820.728	74.75
820.901	71.83
821.075	74.8
821.248	73.18
821.421	64.47
821.594	60.88
821.767	53.41
821.94	57.54
822.113	64.13
822.286	66.18
822.459	74.05
822.632	84.29
822.805	88.97
822.978	88.21
823.151	90.49
823.324	84.61
823.496	75.81
823.669	74.69
823.842	75.87
824.015	77.02
824.188	83.3
824.361	81.01
824.533	85.07
824.706	101.94
824.879	87.19
825.051	82.97
825.224	84.43
825.397	79.31
825.569	81.65
825.742	76.89
825.915	73.04
826.087	77.99
826.26	80.88
826.432	77.23
826.605	73.78
826.777	73.77
826.95	75.9
827.122	78.63
827.295	75.52
827.467	73.49
827.64	69.67
827.812	72.66
827.984	77.19
828.157	77.94
828.329	76.31
828.501	77.38
828.674	78.12
828.846	80.89
829.018	75.58
829.19	66.45
829.363	63.43
829.535	63.92
829.707	61.67
829.879	58.67
830.051	58.61
830.223	63.47
830.395	65.75
830.568	71.24
830.74	70.9
830.912	78.23
831.084	73.27
831.256	75.8
831.428	77.25
831.6	74.62
831.772	70.46
831.943	67.72
832.115	63.23
832.287	62.14
832.459	54.22
832.631	54.04
832.803	58.09
832.975	55.17
833.146	59.66
833.318	59.66
833.49	73.15
833.662	83.25
833.833	92.08
834.005	89.97
834.177	89.62
834.348	87.46
834.52	90.22
834.692	82.32
834.863	71.48
835.035	64.22
835.206	66.55
835.378	69.28
835.549	76.7
835.721	70.99
835.892	74.4
836.064	79
836.235	85.92
836.407	81.73
836.578	75.88
836.749	70.33
836.921	73.59
837.092	75.99
837.264	71.99
837.435	60.68
837.606	66.78
837.777	75.52
837.949	71.25
838.12	78.58
838.291	72.16
838.462	69.96
838.633	76.07
838.805	73.55
838.976	66.82
839.147	68.47
839.318	63.07
839.489	59.35
839.66	64.62
839.831	63.47
840.002	72.14
840.173	74.98
840.344	74.9
840.515	67.39
840.686	85.89
840.857	85.58
841.028	83.38
841.199	75
841.369	82.25
841.54	87.43
841.711	85.66
841.882	73.59
842.053	74.2
842.223	65.27
842.394	59.2
842.565	64.4
842.736	66.66
842.906	86.93
843.077	76.32
843.248	78.44
843.418	81.63
843.589	82.83
843.759	75.52
843.93	76.69
844.101	66.84
844.271	69.43
844.442	63.73
844.612	66
844.783	66.26
844.953	51
845.123	52.78
845.294	46.83
845.464	59.26
845.635	63.84
845.805	64.65
845.975	52.79
846.146	63.2
846.316	51.07
846.486	55.18
846.656	60.63
846.827	60.22
846.997	65.05
847.167	81.51
847.337	90.25
847.507	87.64
847.677	93.99
847.848	80.53
848.018	72.86
848.188	69.13
848.358	62.63
848.528	45.34
848.698	48.67
848.868	43.34
849.038	51.7
849.208	56.81
849.378	37.58
849.548	47.47
849.718	49.28
849.887	54.25
850.057	53.71
850.227	55.08
850.397	46.86
850.567	75.24
850.737	75.37
850.906	83.08
851.076	59.55
851.246	66.18
851.415	76.01
851.585	94.94
851.755	85.33
851.924	81.79
852.094	69.51
852.264	77.05
852.433	69.64
852.603	50.94
852.772	31.68
852.942	19.88
853.111	12.75
853.281	22.58
853.45	30.75
853.62	30.48
853.789	38.2
853.959	45.07
854.128	50.44
854.297	59.17
854.467	52.12
854.636	50.71
854.805	54.19
854.975	60.49
855.144	65.37
855.313	70.83
855.482	59.61
855.652	66.81
855.821	60.8
855.99	57.78
856.159	54.06
856.328	48.46
856.497	45.24
856.667	48.43
856.836	44.79
857.005	54.65
857.174	64.95
857.343	64.89
857.512	60.44
857.681	65.47
857.85	76.81
858.019	72.61
858.188	75.88
858.356	70.19
858.525	51.87
858.694	59.83
858.863	67.33
859.032	54.25
859.201	43.84
859.369	35.29
859.538	16.49
859.707	24.25
859.876	28.64
860.044	23.08
860.213	22.49
860.382	30.45
860.55	34.97
860.719	49.75
860.888	51.81
861.056	46.79
861.225	37.78
861.393	52.53
861.562	46.24
861.73	58.13
861.899	43.32
862.067	44.5
862.236	40.99
862.404	38.77
862.572	34.83
862.741	42.74
862.909	37.68
863.078	40.52
863.246	37.6
863.414	37.93
863.582	33.96
863.751	48.63
863.919	48.38
864.087	34.81
864.255	49.37
864.424	51.33
864.592	51.14
864.76	57.58
864.928	56.83
865.096	56.12
865.264	76.63
865.432	57.1
865.6	57.08
865.768	59.97
865.936	56.91
866.104	44
866.272	63.9
866.44	35.55
866.608	49.17
866.776	76.03
866.944	67.43
867.112	67.84
867.28	65.56
867.448	50.42
867.615	56.27
867.783	60.19
867.951	43.97
868.119	55.08
868.286	55.94
868.454	59.16
868.622	71.03
868.789	82.45
868.957	99.58
869.125	91.76
869.292	92.05
869.46	81.16
869.627	86.38
869.795	74.62
869.963	53.68
870.13	30.5
870.298	30.26
870.465	8.87
870.632	40.93
870.8	32.48
870.967	27.36
871.135	39.82
871.302	55.13
871.469	52.13
871.637	61.34
871.804	64.47
871.971	63.03
872.139	73.7
872.306	70.26
872.473	68.79
872.64	71.27
872.807	71.02
872.975	67.44
873.142	74.2
873.309	101.13
873.476	144.78
873.643	105.52
873.81	121.66
873.977	76.87
874.144	53.74
874.311	48.33
874.478	-2.01
874.645	18.41
874.812	40.4
874.979	0.72
875.146	0.97
875.313	10.36
875.48	29.81
875.647	10.44
875.813	-7.4
875.98	-16.72
876.147	32.09
876.314	48.58
876.481	32.88
876.647	41.79
876.814	55.82
876.981	35.21
877.147	25.54
877.314	14.42
877.481	16.34
877.647	36.06
877.814	23.32
877.98	-0.27
878.147	36.51
878.314	30.46
878.48	40.6
878.647	53.28
878.813	32.61
878.979	48.56
879.146	51.28
879.312	75.1
879.479	71.28
879.645	58.72
879.811	45.71
879.978	54.87
880.144	53.07
880.31	47.96
880.477	5.8
880.643	-28.08
880.809	57.65
880.975	65.6
881.142	67.8
881.308	67.31
881.474	121.09
881.64	108.16
881.806	95.62
881.972	111.93
882.138	56.03
882.304	7.92
882.47	16.34
882.636	-46.54
882.802	-63.93
882.968	-174.13
883.134	-321.4
883.3	-91.05
883.466	-6.59
883.632	-1.3
883.798	24.03
883.964	31.62
884.129	40.15
884.295	37.2
884.461	62.34
884.627	82.74
884.793	74.74
884.958	71.43
885.124	78.6
885.29	72.52
885.455	62.09
885.621	40.84
885.787	36.11
885.952	22.34
886.118	32.56
886.283	45.56
886.449	32.97
886.614	28.61
886.78	47.76
886.945	38.68
887.111	53.83
887.276	22.6
887.442	-7.49
887.607	1.08
887.773	13.28
887.938	-12.72
888.103	11.09
888.269	20.3
888.434	26.15
888.599	41.63
888.764	34.13
888.93	41.41
889.095	39.28
889.26	43.2
889.425	46.2
889.59	54.42
889.756	68.09
889.921	62.12
890.086	77.94
890.251	83.72
890.416	83.54
890.581	35.89
890.746	-14.29
890.911	-75.98
891.076	-73.92
891.241	-135.63
891.406	-70.34
891.571	-61.98
891.736	-21.53
891.901	13.49
892.065	35.42
892.23	15.27
892.395	9.05
892.56	8.03
892.725	-12.14
892.889	-28.51
893.054	-39.99
893.219	-49.96
893.384	-40.95
893.548	-52.5
893.713	88.37
893.878	-81.52
