Data from Ofra_1a_PS_4HS13_Reflection_2.txt Node
Date: Tue Jul 20 10:56:32 EDT 2021
User: Adam
Spectrometer: FLMT01687
Trigger mode: 0
Integration Time (sec): 1.004000E0
Scans to average: 2
Electric dark correction enabled: true
Nonlinearity correction enabled: false
Boxcar width: 2
XAxis mode: Wavelengths
Number of Pixels in Spectrum: 3648
>>>>>Begin Spectral Data<<<<<
179.494	-322.34
179.716	-372.52
179.937	792.98
180.158	-860.51
180.38	181.41
180.601	2.76
180.823	-3.68
181.044	42.18
181.265	104.77
181.486	159.61
181.708	-26.83
181.929	7154.55
182.15	10.86
182.372	228.08
182.593	78.83
182.814	-21.56
183.035	20.89
183.257	22.2
183.478	12.7
183.699	-19.87
183.92	-82.71
184.141	-89.93
184.363	-95.67
184.584	-125.18
184.805	-75.61
185.026	-21.95
185.247	-39.86
185.468	-46.9
185.689	-17.58
185.91	-43.55
186.132	-29.45
186.353	-8.27
186.574	-20.48
186.795	-37.32
187.016	-11.09
187.237	-5.53
187.458	-16.13
187.679	-2.08
187.9	3.59
188.121	-16.18
188.342	-15.55
188.563	2.24
188.784	25.3
189.005	24.6
189.226	24.51
189.447	21.76
189.667	5.4
189.888	-29.5
190.109	-63.51
190.33	-49.07
190.551	-58.88
190.772	-58.17
190.993	-63.94
191.214	-82.39
191.434	-126.77
191.655	-121.96
191.876	-62.62
192.097	-4.57
192.318	22.13
192.538	-6.74
192.759	-18.5
192.98	-14.86
193.201	-23.76
193.421	-28.93
193.642	-8.5
193.863	-2.15
194.083	-0.38
194.304	-0.43
194.525	19.09
194.745	10.77
194.966	2.8
195.187	-7.04
195.407	-19.37
195.628	-26.76
195.848	-35.11
196.069	-63.94
196.29	-50.63
196.51	-55.96
196.731	-53.68
196.951	-54.42
197.172	-36.59
197.392	-74.88
197.613	-20.79
197.833	-22.29
198.054	-11.89
198.274	-4.05
198.495	23.18
198.715	14.71
198.936	20.52
199.156	15.18
199.377	14.51
199.597	12.8
199.817	4.4
200.038	-43.87
200.258	-17.19
200.479	-15.83
200.699	-29.33
200.919	-45.98
201.14	-14.1
201.36	-37.04
201.58	-64.05
201.801	-62.55
202.021	-54.34
202.241	-62.47
202.461	-62
202.682	-39.26
202.902	-27.37
203.122	-12.73
203.342	-7.83
203.563	-16.11
203.783	-22.77
204.003	-35.79
204.223	-25.21
204.443	-36.97
204.663	-42.9
204.884	-21.45
205.104	-12.61
205.324	-14.93
205.544	-17.84
205.764	4.39
205.984	-4.78
206.204	-6.39
206.424	-49.17
206.644	-50.99
206.864	-102.99
207.084	-58.61
207.304	-62.34
207.525	-30.62
207.745	-11.55
207.964	12.94
208.184	10.51
208.404	-5.74
208.624	1.17
208.844	-6.76
209.064	-16.58
209.284	-17.53
209.504	-38.63
209.724	-35
209.944	-46.36
210.164	-43.96
210.384	-61.58
210.604	-72.08
210.823	-90.12
211.043	-70.57
211.263	-163.54
211.483	-103.4
211.703	-74.3
211.922	-86.84
212.142	-57.68
212.362	-27.59
212.582	-25.73
212.801	-17.18
213.021	-38.96
213.241	-56.8
213.461	-17.89
213.68	-7.54
213.9	1.42
214.12	8.32
214.339	5.51
214.559	5.65
214.779	9.75
214.998	-13.39
215.218	-8.44
215.438	15.07
215.657	-16.72
215.877	-32.62
216.096	-9.17
216.316	-8.42
216.535	-29.78
216.755	-14.11
216.974	-6.83
217.194	-13.68
217.413	-9.67
217.633	-20.56
217.852	-9.23
218.072	-10.06
218.291	-15.54
218.511	-23.19
218.73	-19.14
218.95	-69.01
219.169	-70.31
219.389	-43.14
219.608	-44.38
219.827	-33.38
220.047	-10.67
220.266	-39.77
220.485	-61.82
220.705	-36.8
220.924	-55.24
221.143	-2.16
221.363	13
221.582	15.16
221.801	6.08
222.021	10.64
222.24	-5.24
222.459	24.46
222.678	20.66
222.897	-1.67
223.117	-3.44
223.336	-22.06
223.555	-57.17
223.774	-97.4
223.993	-54.28
224.213	-46.18
224.432	-31.03
224.651	-20.12
224.87	-11.36
225.089	-7.98
225.308	-5.34
225.527	-2.46
225.746	-11.95
225.965	-12.59
226.184	-24.38
226.404	-37.13
226.623	-21.38
226.842	-21.37
227.061	-27.39
227.28	-11.43
227.499	-3.25
227.718	-10.04
227.936	-2.05
228.155	6.76
228.374	-10.52
228.593	-12.19
228.812	-14.92
229.031	-11.68
229.25	-30.24
229.469	-34.66
229.688	-30.06
229.907	-18.89
230.125	-15.62
230.344	5.68
230.563	11.18
230.782	9.19
231.001	9.58
231.22	-18.24
231.438	-31.83
231.657	-18.73
231.876	-12.69
232.095	-19.6
232.313	-24.78
232.532	-19.39
232.751	-22.61
232.969	-27.79
233.188	-44.87
233.407	-23.71
233.625	-35.47
233.844	-28.16
234.063	-19.09
234.281	7.86
234.5	1.91
234.719	14.79
234.937	8.57
235.156	11.59
235.374	-6.96
235.593	16.26
235.811	27.9
236.03	15.9
236.249	19.89
236.467	15.88
236.686	4.37
236.904	4.04
237.123	1.67
237.341	-12.76
237.559	-1.53
237.778	23.97
237.996	0.41
238.215	-40.15
238.433	-80.9
238.652	-40.42
238.87	-80.43
239.088	-102.55
239.307	-41.93
239.525	-26.11
239.743	-35.77
239.962	-49.59
240.18	-12.39
240.398	-23.98
240.617	-31.98
240.835	-38.38
241.053	-22.96
241.271	-28.51
241.49	-3.75
241.708	-16.2
241.926	-25.85
242.144	-7.85
242.363	-24.54
242.581	-99.77
242.799	-79.62
243.017	-43.41
243.235	-56.34
243.453	-68.29
243.672	-45.33
243.89	-39.36
244.108	-22.8
244.326	2.14
244.544	9.17
244.762	3.98
244.98	7.79
245.198	10.44
245.416	0.38
245.634	0.22
245.852	-15.57
246.07	-6.34
246.288	-10.46
246.506	-17.86
246.724	-20.66
246.942	-5.26
247.16	-2.49
247.378	-30.56
247.596	-21.18
247.814	-32.23
248.032	-34.31
248.25	-17.03
248.468	15.74
248.685	12.4
248.903	14.21
249.121	13.04
249.339	1.73
249.557	-4.76
249.775	-2.36
249.992	-4.88
250.21	-9.24
250.428	12.71
250.646	5.73
250.863	-3.92
251.081	-6.07
251.299	7.53
251.517	-23.24
251.734	-23.83
251.952	-5.55
252.17	-5.72
252.387	-22.58
252.605	-4.88
252.823	-24.11
253.04	-10.58
253.258	8.69
253.475	12.15
253.693	-0.73
253.911	12.48
254.128	-10.28
254.346	-23.41
254.563	-7.41
254.781	-15.26
254.998	-32.17
255.216	-67.59
255.433	-63.32
255.651	-67.8
255.868	-47.52
256.086	-24.3
256.303	5.72
256.521	9.14
256.738	0.44
256.956	-3.71
257.173	-22.51
257.39	-21.62
257.608	-32.43
257.825	-26.25
258.043	-11.85
258.26	-6.66
258.477	-4.12
258.695	-1.65
258.912	-16.68
259.129	-32.06
259.346	-42.85
259.564	-50.3
259.781	-40.68
259.998	-17.05
260.216	-12.69
260.433	-8.41
260.65	-8.37
260.867	-15.7
261.084	-13.95
261.302	-19.39
261.519	18.03
261.736	15.89
261.953	20
262.17	24.44
262.387	20.76
262.604	12.78
262.822	19.82
263.039	24.18
263.256	15.95
263.473	13.71
263.69	8.87
263.907	1.24
264.124	6.22
264.341	17.7
264.558	14.28
264.775	7.24
264.992	5.17
265.209	-16.55
265.426	-35.14
265.643	-41.33
265.86	-42.8
266.077	-64.06
266.294	-45.53
266.51	-15.5
266.727	-7.12
266.944	5.04
267.161	8.86
267.378	16.16
267.595	-4.07
267.812	-10.45
268.028	-35.53
268.245	-36.22
268.462	-32.53
268.679	-15.36
268.896	7.48
269.112	1.8
269.329	7.37
269.546	12.04
269.763	6.27
269.979	-10.39
270.196	6.49
270.413	7.23
270.629	-19.02
270.846	-29.55
271.063	-17.83
271.279	-26.41
271.496	-32.02
271.712	-8.93
271.929	1.37
272.146	-14.43
272.362	-12.64
272.579	-7.37
272.795	-2.43
273.012	8.44
273.228	21.99
273.445	17.72
273.661	6.08
273.878	-22.76
274.094	-32.63
274.311	-25.5
274.527	-43.28
274.744	-3.36
274.96	9.37
275.177	5.73
275.393	15.48
275.609	24.54
275.826	6.38
276.042	4.56
276.259	15.28
276.475	-4.78
276.691	-9.86
276.908	-5.35
277.124	-0.48
277.34	-9.15
277.557	-14.95
277.773	-24.89
277.989	-38.14
278.205	-25.3
278.422	-34.53
278.638	-36.73
278.854	-27.62
279.07	-10.3
279.286	-13.86
279.503	0.78
279.719	6.71
279.935	-5.81
280.151	-18.88
280.367	-19.74
280.583	-35.43
280.799	-37.96
281.016	-64.76
281.232	-45.6
281.448	-51.24
281.664	-25.3
281.88	-17.35
282.096	0.83
282.312	-1.19
282.528	-2.42
282.744	-8.31
282.96	-20.38
283.176	-40.5
283.392	-89.25
283.608	-82.77
283.824	-117.67
284.04	-154.75
284.256	-84.81
284.471	-41.82
284.687	-29.15
284.903	-14.63
285.119	-2.99
285.335	-4.69
285.551	-8.83
285.767	-22.82
285.982	-21.58
286.198	-52.26
286.414	-11.66
286.63	-29.01
286.846	-35.44
287.061	-43.96
287.277	-20.75
287.493	-46.8
287.709	-48.13
287.924	-17.13
288.14	7.85
288.356	26.49
288.571	21.22
288.787	25.19
289.003	19.93
289.218	-4.78
289.434	-22.78
289.65	13.5
289.865	5.28
290.081	-2.69
290.296	7.39
290.512	-0.33
290.727	-18.43
290.943	-12.06
291.159	-13.93
291.374	-42.34
291.59	-37.92
291.805	-52.06
292.021	-52.41
292.236	-48.62
292.451	-23.39
292.667	-5.91
292.882	7.31
293.098	6.3
293.313	4.99
293.529	-1.97
293.744	-27.77
293.959	-31.14
294.175	-15.12
294.39	-29.45
294.605	-5.8
294.821	3.87
295.036	-5.25
295.251	-7.29
295.467	8
295.682	-0.49
295.897	1.37
296.112	1.85
296.328	1.6
296.543	-20.91
296.758	-31.59
296.973	-24.84
297.188	-20.03
297.404	-56.28
297.619	-58.05
297.834	-80.37
298.049	-62.11
298.264	-70.77
298.479	-45.39
298.694	0.51
298.909	8.8
299.125	-7.99
299.34	9.63
299.555	7.79
299.77	12.34
299.985	20.2
300.2	28.16
300.415	11.26
300.63	8.88
300.845	-20.99
301.06	-14.14
301.275	-17.93
301.49	-3.92
301.704	-6.85
301.919	4.19
302.134	-10.49
302.349	-7.46
302.564	-14.08
302.779	-31.71
302.994	-23.92
303.209	-19.69
303.423	-27.77
303.638	-31.21
303.853	-29.18
304.068	-41.94
304.283	-38.91
304.497	-45.27
304.712	-26.77
304.927	-15.36
305.142	-3.82
305.356	4.78
305.571	12.54
305.786	10.82
306	18.77
306.215	2.62
306.43	-30.16
306.644	-36.01
306.859	-63.13
307.074	-38.38
307.288	-22.31
307.503	0.84
307.717	-16.09
307.932	-7.58
308.147	-20.24
308.361	-21.4
308.576	-43.18
308.79	-17.27
309.005	-9.95
309.219	4.81
309.434	-2.58
309.648	2.91
309.863	5.25
310.077	-0.84
310.292	3.13
310.506	3.26
310.72	17.63
310.935	26.75
311.149	21.66
311.364	15.95
311.578	15.45
311.792	10.74
312.007	-14.39
312.221	-27.07
312.435	-21.11
312.649	-13.77
312.864	-16.2
313.078	-18.5
313.292	-14.74
313.507	-3.33
313.721	7.19
313.935	10.65
314.149	5.03
314.363	16.81
314.578	-9.15
314.792	-54.07
315.006	-54.5
315.22	-11.37
315.434	-14.24
315.648	-18.99
315.862	-5.52
316.077	-16.68
316.291	-24.92
316.505	-45.2
316.719	-34.29
316.933	-32.69
317.147	-13.13
317.361	-29.8
317.575	-14.56
317.789	-4.54
318.003	-10.39
318.217	-0.27
318.431	-12.13
318.645	-14.26
318.859	-3.4
319.073	4.35
319.287	-5.9
319.5	1.36
319.714	1.46
319.928	-13.36
320.142	-11.2
320.356	-10.53
320.57	-21.78
320.784	-28.93
320.997	-42.94
321.211	-41.46
321.425	-60.52
321.639	-24.97
321.853	-9.4
322.066	-17.06
322.28	-14.21
322.494	-9.27
322.707	-4.37
322.921	-0.86
323.135	19.77
323.349	9.72
323.562	18.2
323.776	-1.19
323.989	3.95
324.203	-4.37
324.417	-2.44
324.63	-17.58
324.844	-27.25
325.057	-66.22
325.271	-60.03
325.485	-71.89
325.698	-34.17
325.912	-10.87
326.125	-8.89
326.339	-1.68
326.552	-10.53
326.766	-34.23
326.979	-22.76
327.193	-4.66
327.406	-20.33
327.619	2.05
327.833	9.32
328.046	-0.52
328.26	-11.05
328.473	0.19
328.686	-5.44
328.9	-10.67
329.113	-24.37
329.326	-28.61
329.54	-27.71
329.753	-13.02
329.966	-6.22
330.179	-5.65
330.393	-7.03
330.606	-14.29
330.819	-32.47
331.032	-32.2
331.246	-17.79
331.459	-5.16
331.672	1.42
331.885	6.08
332.098	8.11
332.311	-6.31
332.525	-1.53
332.738	5.66
332.951	1.79
333.164	4.43
333.377	12.01
333.59	7.6
333.803	-6.88
334.016	9.38
334.229	-3.05
334.442	0.23
334.655	-5.81
334.868	-6.45
335.081	-13.82
335.294	-20.62
335.507	-26.07
335.72	-14.05
335.933	-14.29
336.146	-12.4
336.359	13.2
336.572	14.73
336.785	6.14
336.997	10.33
337.21	20.39
337.423	-4.81
337.636	-16.57
337.849	-8.92
338.062	2.18
338.274	3.01
338.487	-10.51
338.7	8.01
338.913	13.26
339.125	-11.39
339.338	-24.36
339.551	-11.08
339.763	-30.21
339.976	-44.35
340.189	-18.88
340.402	-10.32
340.614	-5.7
340.827	6.17
341.039	5.5
341.252	-2.03
341.465	1.76
341.677	-6.37
341.89	-19.14
342.102	-0.25
342.315	-3.95
342.527	-11.01
342.74	-14.07
342.952	-4.38
343.165	-22.37
343.377	-4.11
343.59	9.23
343.802	20.76
344.015	13.24
344.227	20.08
344.44	-2.67
344.652	-7.65
344.864	-7.69
345.077	8.6
345.289	5.55
345.502	22.38
345.714	12.99
345.926	9.73
346.139	-19.54
346.351	-14.04
346.563	-13.35
346.775	-12.39
346.988	-3.64
347.2	-3.11
347.412	13.53
347.624	18.74
347.837	22.26
348.049	17.41
348.261	12.01
348.473	-7.28
348.685	-23.86
348.897	-24.92
349.11	-31.78
349.322	-20.85
349.534	-21.16
349.746	-21.02
349.958	-30.51
350.17	-55.2
350.382	-39.19
350.594	-30.49
350.806	-4.59
351.018	6.17
351.23	17.86
351.442	18.7
351.654	18.73
351.866	-3.38
352.078	-10.84
352.29	-8.23
352.502	-9.58
352.714	-15.1
352.926	-2.21
353.138	15.75
353.35	3.96
353.561	1.09
353.773	0.87
353.985	-0.9
354.197	-6.59
354.409	0.7
354.621	-13.83
354.832	-11.62
355.044	-27.05
355.256	-37.35
355.468	-50.32
355.679	-5.61
355.891	-0.96
356.103	5.62
356.314	-0.21
356.526	-11.45
356.738	-36.2
356.949	-44.08
357.161	-50.09
357.373	-28.53
357.584	-9.44
357.796	-6.08
358.008	-3.81
358.219	6.33
358.431	-11.73
358.642	-5.86
358.854	-7.17
359.065	-19.32
359.277	-18.88
359.488	-20.34
359.7	-31.58
359.911	-38.1
360.123	-14.29
360.334	-15.7
360.546	-7.08
360.757	0.31
360.969	3.45
361.18	-4.36
361.391	-1.4
361.603	2.04
361.814	-0.84
362.025	8.78
362.237	12.11
362.448	13.91
362.659	14.84
362.871	7.22
363.082	-11.17
363.293	-20.86
363.504	-36.81
363.716	-51.79
363.927	-19.52
364.138	-32
364.349	-42.4
364.56	-44.87
364.772	-21.67
364.983	-18.66
365.194	2.1
365.405	1.01
365.616	17.27
365.827	2.34
366.038	3.8
366.25	-5.86
366.461	9.75
366.672	4.38
366.883	-1.46
367.094	-10.17
367.305	-7.55
367.516	-13.1
367.727	-22.79
367.938	-10.7
368.149	-24.82
368.36	-24.77
368.571	-30.66
368.781	-32.77
368.992	-30.18
369.203	-13.92
369.414	-26.11
369.625	-28.12
369.836	-5.05
370.047	-6.42
370.258	-7.77
370.468	-7.26
370.679	-1.06
370.89	-14.47
371.101	-0.5
371.312	-9.6
371.522	-2.97
371.733	-12.2
371.944	-31.34
372.155	-49.14
372.365	-47.07
372.576	-47.71
372.787	-31.85
372.997	-23.98
373.208	-10.11
373.419	-4.71
373.629	-10.4
373.84	-26.72
374.05	-27.5
374.261	-40.09
374.472	-34.33
374.682	-16.75
374.893	-19.96
375.103	-1.61
375.314	1.66
375.524	2.79
375.735	3.16
375.945	18.62
376.156	6.71
376.366	9.06
376.577	6.57
376.787	3.26
376.997	-8.2
377.208	2.66
377.418	-4
377.629	-6.97
377.839	-2.6
378.049	1.26
378.26	-11.43
378.47	-15.87
378.68	-7.96
378.89	-12.66
379.101	-4.48
379.311	1.54
379.521	4.88
379.732	2.16
379.942	-0.06
380.152	-13.93
380.362	-17.44
380.572	-7.88
380.783	0.72
380.993	-1.34
381.203	-2.52
381.413	3.96
381.623	-1.11
381.833	-3.22
382.043	-2
382.253	12.52
382.463	13.36
382.674	18.5
382.884	15.59
383.094	15.14
383.304	13.84
383.514	10.62
383.724	9.96
383.934	-0.46
384.144	0.55
384.353	-2.77
384.563	-3.49
384.773	-5.18
384.983	-1.52
385.193	-2.91
385.403	-3.29
385.613	-3.73
385.823	-3.88
386.033	-1.25
386.242	-5.41
386.452	-7.57
386.662	-5.17
386.872	-1.08
387.082	-2.62
387.291	-0.98
387.501	2.29
387.711	0.38
387.921	-3.52
388.13	-1.11
388.34	0.28
388.55	-2.17
388.759	-4.44
388.969	-6.3
389.179	-6.45
389.388	-3.98
389.598	-6.29
389.807	-6.99
390.017	-3.45
390.227	-4.23
390.436	-3.46
390.646	-1.93
390.855	-0.6
391.065	-0.69
391.274	-0.08
391.484	-2.92
391.693	-2.17
391.903	-2.87
392.112	-4.68
392.322	-5.57
392.531	-5.69
392.74	-6.79
392.95	-5.05
393.159	-3.4
393.369	-1.48
393.578	-0.09
393.787	0.23
393.997	0.48
394.206	-0.34
394.415	-0.14
394.625	-0.09
394.834	-0.51
395.043	-0.52
395.252	2.87
395.462	3.21
395.671	1.96
395.88	3.84
396.089	4.02
396.298	1.7
396.508	1.79
396.717	2.34
396.926	1.6
397.135	1.51
397.344	1.48
397.553	0.54
397.762	1.68
397.971	1.11
398.181	1.26
398.39	1.37
398.599	2
398.808	1.55
399.017	2.72
399.226	2.78
399.435	2.48
399.644	2.68
399.853	2.78
400.062	2.38
400.27	2.07
400.479	2.46
400.688	2.23
400.897	2.09
401.106	2.24
401.315	2.12
401.524	2.03
401.733	1.9
401.941	1.99
402.15	1.89
402.359	2.27
402.568	2.3
402.777	2.62
402.985	2.45
403.194	2.41
403.403	2.43
403.612	2.19
403.82	1.57
404.029	1.64
404.238	1.7
404.446	1.82
404.655	1.97
404.864	2.36
405.072	2.44
405.281	2.51
405.489	2.36
405.698	2.54
405.906	2.49
406.115	2.39
406.324	2.23
406.532	2.26
406.741	2.2
406.949	2.24
407.158	2.35
407.366	2.28
407.574	2.3
407.783	2.32
407.991	2.36
408.2	2.35
408.408	2.49
408.617	2.45
408.825	2.22
409.033	2.19
409.242	2.27
409.45	2.18
409.658	2.13
409.867	2.26
410.075	2.27
410.283	2.16
410.491	2.04
410.7	1.99
410.908	1.94
411.116	1.98
411.324	1.84
411.533	1.92
411.741	1.92
411.949	1.96
412.157	1.76
412.365	1.84
412.573	1.81
412.781	1.74
412.99	1.84
413.198	1.97
413.406	2.06
413.614	2.29
413.822	2.58
414.03	2.54
414.238	2.56
414.446	2.57
414.654	2.44
414.862	2.26
415.07	2.13
415.278	2.15
415.486	2.02
415.694	2.02
415.902	2.01
416.109	2
416.317	2
416.525	2.06
416.733	2.03
416.941	2.05
417.149	2.07
417.357	2.11
417.564	2.1
417.772	2.2
417.98	2.16
418.188	2.12
418.395	1.81
418.603	1.7
418.811	1.43
419.019	1.39
419.226	1.41
419.434	1.57
419.642	1.46
419.849	1.48
420.057	1.5
420.265	1.4
420.472	1.4
420.68	1.44
420.887	1.55
421.095	1.63
421.302	1.67
421.51	1.64
421.717	1.79
421.925	1.88
422.132	1.86
422.34	1.79
422.547	1.75
422.755	1.77
422.962	1.75
423.17	1.56
423.377	1.74
423.585	1.87
423.792	1.85
423.999	1.74
424.207	1.67
424.414	1.52
424.621	1.55
424.829	1.45
425.036	1.53
425.243	1.71
425.451	1.77
425.658	1.7
425.865	1.79
426.072	1.67
426.28	1.77
426.487	1.72
426.694	1.73
426.901	1.83
427.108	1.82
427.315	1.78
427.523	1.8
427.73	1.78
427.937	1.38
428.144	1.43
428.351	1.36
428.558	1.49
428.765	1.42
428.972	1.62
429.179	1.39
429.386	1.42
429.593	1.3
429.8	1.32
430.007	1.35
430.214	1.43
430.421	1.45
430.628	1.38
430.835	1.31
431.042	1.3
431.249	1.36
431.456	1.43
431.662	1.57
431.869	1.72
432.076	1.67
432.283	1.78
432.49	1.79
432.697	1.74
432.903	1.68
433.11	1.89
433.317	1.88
433.524	1.86
433.73	1.83
433.937	2
434.144	1.74
434.35	1.7
434.557	1.66
434.764	1.71
434.97	1.47
435.177	1.67
435.384	1.72
435.59	1.71
435.797	1.71
436.003	1.75
436.21	1.62
436.416	1.59
436.623	1.62
436.829	1.56
437.036	1.57
437.242	1.64
437.449	1.62
437.655	1.61
437.862	1.64
438.068	1.64
438.275	1.77
438.481	1.76
438.687	1.74
438.894	1.83
439.1	1.82
439.307	1.84
439.513	1.9
439.719	2.02
439.926	2.02
440.132	2.07
440.338	1.97
440.544	1.88
440.751	1.69
440.957	1.7
441.163	1.59
441.369	1.58
441.575	1.58
441.782	1.67
441.988	1.72
442.194	1.73
442.4	1.7
442.606	1.8
442.812	1.79
443.018	1.73
443.224	1.88
443.431	1.93
443.637	1.84
443.843	1.79
444.049	1.86
444.255	1.79
444.461	1.72
444.667	1.76
444.873	1.8
445.079	1.75
445.284	1.76
445.49	1.81
445.696	1.69
445.902	1.67
446.108	1.57
446.314	1.57
446.52	1.66
446.726	1.77
446.931	1.76
447.137	1.86
447.343	1.96
447.549	1.91
447.755	1.94
447.96	2.05
448.166	1.99
448.372	1.8
448.578	1.69
448.783	1.72
448.989	1.77
449.195	1.79
449.4	1.92
449.606	2.07
449.812	1.91
450.017	1.86
450.223	1.87
450.428	1.83
450.634	1.81
450.84	1.86
451.045	1.81
451.251	1.83
451.456	1.89
451.662	1.89
451.867	2.02
452.073	1.99
452.278	1.95
452.483	1.95
452.689	1.95
452.894	1.96
453.1	1.98
453.305	1.98
453.51	1.99
453.716	1.97
453.921	1.9
454.127	1.87
454.332	1.85
454.537	1.82
454.742	1.78
454.948	1.81
455.153	1.8
455.358	1.83
455.563	1.84
455.769	1.83
455.974	1.76
456.179	1.77
456.384	1.76
456.589	1.71
456.795	1.66
457	1.71
457.205	1.68
457.41	1.66
457.615	1.61
457.82	1.81
458.025	1.78
458.23	1.86
458.435	1.93
458.64	1.99
458.845	1.87
459.05	1.91
459.255	1.86
459.46	1.79
459.665	1.83
459.87	1.8
460.075	1.83
460.28	1.81
460.485	1.93
460.69	1.88
460.895	1.93
461.099	1.79
461.304	1.73
461.509	1.61
461.714	1.67
461.919	1.62
462.123	1.67
462.328	1.73
462.533	1.6
462.738	1.51
462.942	1.47
463.147	1.47
463.352	1.43
463.556	1.56
463.761	1.61
463.966	1.67
464.17	1.74
464.375	1.85
464.58	1.85
464.784	1.81
464.989	1.76
465.193	1.72
465.398	1.73
465.602	1.89
465.807	1.92
466.011	1.95
466.216	1.89
466.42	1.87
466.625	1.82
466.829	1.83
467.034	1.88
467.238	2
467.443	2
467.647	1.96
467.851	1.99
468.056	2.01
468.26	1.95
468.464	1.91
468.669	1.91
468.873	1.94
469.077	1.86
469.282	1.91
469.486	1.89
469.69	1.97
469.894	1.97
470.099	2.01
470.303	1.97
470.507	1.98
470.711	1.85
470.915	1.89
471.119	1.9
471.324	1.94
471.528	1.99
471.732	2.09
471.936	2.05
472.14	2.04
472.344	2.14
472.548	2.12
472.752	2.06
472.956	2.08
473.16	2.04
473.364	1.93
473.568	1.99
473.772	1.89
473.976	1.94
474.18	2.03
474.384	2
474.588	1.98
474.792	2.05
474.995	1.98
475.199	1.99
475.403	2.05
475.607	2.06
475.811	2.04
476.015	1.97
476.218	1.89
476.422	1.93
476.626	1.91
476.83	2
477.033	2.14
477.237	2.18
477.441	2.12
477.644	2.2
477.848	2.25
478.052	2.22
478.255	2.21
478.459	2.2
478.663	2.23
478.866	2.24
479.07	2.2
479.273	2.32
479.477	2.36
479.681	2.29
479.884	2.24
480.088	2.27
480.291	2.15
480.495	2.09
480.698	2.11
480.901	2.13
481.105	2.11
481.308	2.13
481.512	2.23
481.715	2.25
481.919	2.27
482.122	2.3
482.325	2.36
482.529	2.35
482.732	2.32
482.935	2.32
483.138	2.33
483.342	2.38
483.545	2.45
483.748	2.58
483.952	2.6
484.155	2.62
484.358	2.62
484.561	2.54
484.764	2.45
484.967	2.4
485.171	2.46
485.374	2.41
485.577	2.41
485.78	2.4
485.983	2.38
486.186	2.29
486.389	2.29
486.592	2.28
486.795	2.31
486.998	2.32
487.201	2.36
487.404	2.48
487.607	2.56
487.81	2.55
488.013	2.57
488.216	2.57
488.419	2.44
488.622	2.38
488.825	2.36
489.028	2.41
489.231	2.42
489.433	2.44
489.636	2.45
489.839	2.5
490.042	2.44
490.245	2.36
490.447	2.34
490.65	2.39
490.853	2.39
491.056	2.45
491.258	2.55
491.461	2.53
491.664	2.44
491.866	2.39
492.069	2.37
492.272	2.3
492.474	2.36
492.677	2.37
492.879	2.4
493.082	2.43
493.285	2.52
493.487	2.49
493.69	2.52
493.892	2.52
494.095	2.52
494.297	2.52
494.5	2.49
494.702	2.53
494.905	2.58
495.107	2.59
495.309	2.64
495.512	2.72
495.714	2.7
495.917	2.72
496.119	2.69
496.321	2.61
496.524	2.53
496.726	2.48
496.928	2.45
497.13	2.48
497.333	2.51
497.535	2.57
497.737	2.58
497.939	2.56
498.142	2.52
498.344	2.54
498.546	2.55
498.748	2.64
498.95	2.74
499.152	2.78
499.355	2.73
499.557	2.73
499.759	2.77
499.961	2.76
500.163	2.81
500.365	2.88
500.567	2.87
500.769	2.81
500.971	2.83
501.173	2.78
501.375	2.83
501.577	2.83
501.779	2.8
501.981	2.76
502.183	2.78
502.385	2.74
502.587	2.82
502.788	2.95
502.99	2.96
503.192	3.03
503.394	3.03
503.596	2.97
503.798	2.9
503.999	2.91
504.201	2.86
504.403	2.88
504.605	2.99
504.806	3.02
505.008	3.06
505.21	3.09
505.411	3.08
505.613	3.08
505.815	3.1
506.016	3.15
506.218	3.23
506.42	3.29
506.621	3.28
506.823	3.29
507.024	3.27
507.226	3.26
507.427	3.29
507.629	3.35
507.83	3.33
508.032	3.29
508.233	3.3
508.435	3.28
508.636	3.28
508.838	3.34
509.039	3.39
509.24	3.39
509.442	3.46
509.643	3.45
509.845	3.43
510.046	3.48
510.247	3.51
510.448	3.53
510.65	3.53
510.851	3.55
511.052	3.54
511.254	3.62
511.455	3.57
511.656	3.54
511.857	3.58
512.058	3.61
512.26	3.54
512.461	3.57
512.662	3.66
512.863	3.59
513.064	3.57
513.265	3.57
513.466	3.62
513.667	3.6
513.868	3.63
514.069	3.62
514.27	3.72
514.471	3.68
514.672	3.73
514.873	3.76
515.074	3.84
515.275	3.77
515.476	3.81
515.677	3.78
515.878	3.81
516.079	3.76
516.28	3.81
516.481	3.9
516.682	3.89
516.882	3.89
517.083	3.92
517.284	3.89
517.485	3.84
517.686	3.89
517.886	3.91
518.087	3.92
518.288	3.92
518.488	3.92
518.689	3.88
518.89	3.89
519.091	3.95
519.291	3.97
519.492	4
519.692	4.04
519.893	4.05
520.094	4
520.294	4.05
520.495	4.03
520.695	4.06
520.896	4.06
521.096	4.12
521.297	4.12
521.497	4.11
521.698	4.11
521.898	4.17
522.099	4.22
522.299	4.21
522.499	4.29
522.7	4.28
522.9	4.29
523.101	4.21
523.301	4.22
523.501	4.25
523.702	4.3
523.902	4.3
524.102	4.43
524.302	4.46
524.503	4.45
524.703	4.38
524.903	4.38
525.103	4.29
525.304	4.29
525.504	4.37
525.704	4.44
525.904	4.41
526.104	4.46
526.304	4.49
526.504	4.47
526.705	4.47
526.905	4.54
527.105	4.53
527.305	4.5
527.505	4.46
527.705	4.45
527.905	4.49
528.105	4.49
528.305	4.52
528.505	4.56
528.705	4.63
528.905	4.6
529.105	4.62
529.304	4.62
529.504	4.67
529.704	4.67
529.904	4.71
530.104	4.77
530.304	4.78
530.503	4.75
530.703	4.78
530.903	4.81
531.103	4.81
531.303	4.88
531.502	4.94
531.702	4.97
531.902	5.02
532.101	5.01
532.301	5
532.501	5.06
532.7	5.03
532.9	5.01
533.1	5.06
533.299	5.05
533.499	5.03
533.698	5.06
533.898	5.09
534.097	5.12
534.297	5.18
534.496	5.17
534.696	5.25
534.895	5.25
535.095	5.27
535.294	5.23
535.494	5.26
535.693	5.28
535.892	5.27
536.092	5.27
536.291	5.34
536.491	5.39
536.69	5.34
536.889	5.37
537.088	5.43
537.288	5.41
537.487	5.42
537.686	5.46
537.886	5.52
538.085	5.54
538.284	5.63
538.483	5.59
538.682	5.67
538.882	5.71
539.081	5.71
539.28	5.73
539.479	5.77
539.678	5.78
539.877	5.78
540.076	5.81
540.275	5.81
540.474	5.81
540.673	5.83
540.872	5.83
541.071	5.87
541.27	5.91
541.469	5.98
541.668	5.98
541.867	6.06
542.066	6.07
542.265	6.13
542.464	6.12
542.663	6.18
542.862	6.21
543.06	6.27
543.259	6.33
543.458	6.42
543.657	6.42
543.856	6.45
544.054	6.49
544.253	6.49
544.452	6.56
544.651	6.65
544.849	6.67
545.048	6.75
545.247	6.84
545.445	6.83
545.644	6.85
545.843	6.89
546.041	6.89
546.24	6.91
546.438	6.99
546.637	7.05
546.836	7.14
547.034	7.21
547.233	7.27
547.431	7.29
547.63	7.32
547.828	7.33
548.027	7.33
548.225	7.31
548.423	7.38
548.622	7.49
548.82	7.53
549.019	7.59
549.217	7.73
549.415	7.74
549.614	7.86
549.812	7.94
550.01	8.01
550.209	8.07
550.407	8.2
550.605	8.14
550.803	8.18
551.002	8.25
551.2	8.3
551.398	8.38
551.596	8.47
551.794	8.57
551.993	8.6
552.191	8.65
552.389	8.67
552.587	8.74
552.785	8.77
552.983	8.89
553.181	8.99
553.379	9.04
553.577	9.09
553.775	9.19
553.973	9.27
554.171	9.34
554.369	9.44
554.567	9.52
554.765	9.56
554.963	9.58
555.161	9.65
555.359	9.71
555.557	9.81
555.755	9.92
555.952	10.11
556.15	10.17
556.348	10.28
556.546	10.46
556.744	10.53
556.941	10.54
557.139	10.63
557.337	10.75
557.535	10.77
557.732	10.85
557.93	11.02
558.128	11.09
558.325	11.19
558.523	11.31
558.721	11.46
558.918	11.51
559.116	11.67
559.313	11.82
559.511	11.94
559.708	12.05
559.906	12.11
560.104	12.18
560.301	12.18
560.498	12.29
560.696	12.35
560.893	12.56
561.091	12.67
561.288	12.85
561.486	12.87
561.683	12.97
561.88	13
562.078	13.09
562.275	13.13
562.473	13.27
562.67	13.32
562.867	13.44
563.064	13.51
563.262	13.59
563.459	13.76
563.656	13.88
563.853	13.89
564.051	14.02
564.248	14.13
564.445	14.18
564.642	14.24
564.839	14.38
565.036	14.54
565.234	14.65
565.431	14.73
565.628	14.86
565.825	15
566.022	15.03
566.219	15.09
566.416	15.18
566.613	15.23
566.81	15.29
567.007	15.28
567.204	15.38
567.401	15.41
567.598	15.51
567.795	15.55
567.991	15.67
568.188	15.73
568.385	15.83
568.582	15.93
568.779	15.96
568.976	16.1
569.172	16.11
569.369	16.14
569.566	16.08
569.763	16.16
569.96	16.26
570.156	16.35
570.353	16.36
570.55	16.46
570.746	16.52
570.943	16.46
571.14	16.56
571.336	16.61
571.533	16.65
571.729	16.75
571.926	16.86
572.123	16.88
572.319	16.88
572.516	16.92
572.712	16.93
572.909	16.84
573.105	16.83
573.302	16.96
573.498	16.96
573.695	16.91
573.891	16.94
574.087	16.93
574.284	16.97
574.48	16.99
574.677	16.98
574.873	17.11
575.069	17.18
575.266	17.16
575.462	17.13
575.658	17.19
575.854	17.15
576.051	17.07
576.247	17.03
576.443	17.19
576.639	17.21
576.835	17.14
577.032	17.07
577.228	17.11
577.424	17
577.62	16.96
577.816	17.03
578.012	17.14
578.208	17.13
578.404	17.14
578.6	17.24
578.796	17.19
578.993	17.22
579.189	17.25
579.384	17.25
579.58	17.16
579.776	17.18
579.972	17.16
580.168	17.14
580.364	17.13
580.56	17.1
580.756	17.08
580.952	17
581.148	16.94
581.343	16.95
581.539	17.01
581.735	17.09
581.931	17.09
582.127	17.14
582.322	17.09
582.518	17.06
582.714	17
582.909	17
583.105	16.9
583.301	16.95
583.496	16.83
583.692	16.76
583.888	16.8
584.083	16.89
584.279	16.86
584.474	16.81
584.67	16.8
584.866	16.75
585.061	16.68
585.257	16.64
585.452	16.72
585.648	16.63
585.843	16.57
586.039	16.54
586.234	16.49
586.429	16.38
586.625	16.41
586.82	16.49
587.015	16.5
587.211	16.52
587.406	16.56
587.601	16.58
587.797	16.57
587.992	16.56
588.187	16.46
588.383	16.47
588.578	16.51
588.773	16.45
588.968	16.47
589.163	16.53
589.359	16.58
589.554	16.5
589.749	16.53
589.944	16.54
590.139	16.54
590.334	16.57
590.529	16.68
590.724	16.72
590.919	16.72
591.114	16.87
591.309	16.83
591.504	16.82
591.699	16.83
591.894	16.82
592.089	16.77
592.284	16.86
592.479	16.88
592.674	16.97
592.869	16.99
593.064	17.05
593.259	17.1
593.454	17.14
593.648	17.15
593.843	17.24
594.038	17.3
594.233	17.31
594.428	17.38
594.622	17.48
594.817	17.74
595.012	17.8
595.206	17.85
595.401	17.87
595.596	17.89
595.79	17.67
595.985	17.67
596.18	17.83
596.374	18.04
596.569	18.11
596.763	18.31
596.958	18.45
597.153	18.44
597.347	18.37
597.542	18.43
597.736	18.45
597.931	18.44
598.125	18.53
598.319	18.61
598.514	18.63
598.708	18.78
598.903	18.9
599.097	18.88
599.291	18.89
599.486	18.98
599.68	18.98
599.874	19.02
600.069	19.16
600.263	19.31
600.457	19.43
600.651	19.41
600.846	19.42
601.04	19.43
601.234	19.4
601.428	19.39
601.622	19.47
601.817	19.53
602.011	19.56
602.205	19.58
602.399	19.51
602.593	19.59
602.787	19.51
602.981	19.48
603.175	19.56
603.369	19.55
603.563	19.52
603.757	19.61
603.951	19.64
604.145	19.64
604.339	19.71
604.533	19.65
604.727	19.61
604.921	19.58
605.115	19.51
605.309	19.41
605.502	19.42
605.696	19.3
605.89	19.29
606.084	19.27
606.278	19.32
606.471	19.28
606.665	19.31
606.859	19.22
607.053	19.12
607.246	19.01
607.44	18.88
607.634	18.87
607.827	18.79
608.021	18.75
608.214	18.67
608.408	18.69
608.602	18.55
608.795	18.59
608.989	18.48
609.182	18.46
609.376	18.35
609.569	18.39
609.763	18.23
609.956	18.19
610.15	18.12
610.343	18.04
610.537	17.85
610.73	17.7
610.923	17.62
611.117	17.58
611.31	17.48
611.504	17.4
611.697	17.41
611.89	17.34
612.083	17.16
612.277	17.22
612.47	17.11
612.663	16.98
612.856	16.9
613.05	16.88
613.243	16.64
613.436	16.63
613.629	16.57
613.822	16.49
614.015	16.35
614.209	16.39
614.402	16.3
614.595	16.27
614.788	16.23
614.981	16.15
615.174	15.96
615.367	15.88
615.56	15.8
615.753	15.69
615.946	15.58
616.139	15.57
616.332	15.53
616.525	15.48
616.718	15.47
616.911	15.44
617.103	15.44
617.296	15.34
617.489	15.27
617.682	15.25
617.875	15.24
618.067	15.11
618.26	15.04
618.453	14.96
618.646	14.92
618.838	14.94
619.031	14.99
619.224	14.98
619.417	14.97
619.609	14.84
619.802	14.81
619.994	14.75
620.187	14.69
620.38	14.68
620.572	14.73
620.765	14.64
620.957	14.58
621.15	14.56
621.342	14.5
621.535	14.47
621.727	14.44
621.92	14.43
622.112	14.47
622.305	14.51
622.497	14.43
622.69	14.33
622.882	14.31
623.074	14.31
623.267	14.3
623.459	14.22
623.651	14.28
623.844	14.3
624.036	14.27
624.228	14.19
624.42	14.2
624.613	14.19
624.805	14.09
624.997	13.95
625.189	13.97
625.381	13.9
625.574	13.86
625.766	13.84
625.958	13.86
626.15	13.76
626.342	13.77
626.534	13.74
626.726	13.72
626.918	13.67
627.11	13.68
627.302	13.61
627.494	13.64
627.686	13.53
627.878	13.54
628.07	13.57
628.262	13.62
628.454	13.46
628.646	13.46
628.838	13.53
629.029	13.4
629.221	13.36
629.413	13.4
629.605	13.4
629.797	13.3
629.989	13.28
630.18	13.31
630.372	13.27
630.564	13.21
630.755	13.14
630.947	13.11
631.139	12.95
631.33	12.91
631.522	12.89
631.714	12.87
631.905	12.87
632.097	12.85
632.289	12.85
632.48	12.82
632.672	12.82
632.863	12.71
633.055	12.64
633.246	12.66
633.438	12.66
633.629	12.61
633.821	12.62
634.012	12.71
634.203	12.64
634.395	12.6
634.586	12.62
634.777	12.65
634.969	12.64
635.16	12.59
635.351	12.54
635.543	12.4
635.734	12.4
635.925	12.34
636.117	12.42
636.308	12.49
636.499	12.5
636.69	12.48
636.881	12.43
637.073	12.44
637.264	12.39
637.455	12.41
637.646	12.36
637.837	12.35
638.028	12.2
638.219	12.28
638.41	12.35
638.601	12.35
638.792	12.36
638.983	12.37
639.174	12.21
639.365	12.17
639.556	12.09
639.747	12.02
639.938	12.09
640.129	12.13
640.32	12
640.511	11.98
640.701	12.05
640.892	11.95
641.083	11.81
641.274	11.78
641.465	11.81
641.655	11.71
641.846	11.76
642.037	11.8
642.228	11.72
642.418	11.66
642.609	11.65
642.8	11.53
642.99	11.52
643.181	11.62
643.372	11.58
643.562	11.52
643.753	11.52
643.943	11.44
644.134	11.25
644.324	11.29
644.515	11.29
644.705	11.28
644.896	11.4
645.086	11.49
645.277	11.4
645.467	11.37
645.658	11.28
645.848	11.23
646.038	11.18
646.229	11.23
646.419	11.12
646.61	11.22
646.8	11.19
646.99	11.22
647.18	11.12
647.371	11.16
647.561	11.07
647.751	10.98
647.941	10.94
648.132	10.93
648.322	10.96
648.512	11.01
648.702	11.14
648.892	11.1
649.082	11.17
649.272	11.05
649.462	11.03
649.653	10.88
649.843	10.82
650.033	10.77
650.223	10.8
650.413	10.81
650.603	10.85
650.793	10.95
650.983	10.89
651.172	10.89
651.362	10.73
651.552	10.62
651.742	10.54
651.932	10.5
652.122	10.45
652.312	10.48
652.502	10.35
652.691	10.36
652.881	10.34
653.071	10.33
653.261	10.18
653.45	10.24
653.64	10.11
653.83	10.02
654.019	9.9
654.209	9.86
654.399	9.75
654.588	9.63
654.778	9.55
654.968	9.45
655.157	9.37
655.347	9.24
655.536	9.14
655.726	8.88
655.915	8.71
656.105	8.55
656.294	8.37
656.484	8.26
656.673	8.25
656.863	8.26
657.052	8.1
657.241	8.08
657.431	7.96
657.62	7.83
657.809	7.62
657.999	7.63
658.188	7.54
658.377	7.42
658.567	7.42
658.756	7.31
658.945	7.06
659.134	6.87
659.324	6.82
659.513	6.6
659.702	6.46
659.891	6.56
660.08	6.53
660.269	6.35
660.458	6.25
660.648	6.11
660.837	5.97
661.026	5.73
661.215	5.61
661.404	5.48
661.593	5.53
661.782	5.33
661.971	5.24
662.16	5.22
662.349	5.09
662.538	4.92
662.726	4.84
662.915	4.89
663.104	4.6
663.293	4.63
663.482	4.51
663.671	4.52
663.86	4.46
664.048	4.53
664.237	4.45
664.426	4.48
664.615	4.38
664.803	4.19
664.992	4.13
665.181	4.1
665.369	3.91
665.558	3.81
665.747	3.9
665.935	3.93
666.124	3.97
666.312	4.07
666.501	4.03
666.69	4.02
666.878	3.98
667.067	3.87
667.255	3.81
667.444	3.98
667.632	4
667.82	3.96
668.009	3.99
668.197	3.96
668.386	3.83
668.574	3.77
668.762	3.79
668.951	3.73
669.139	3.7
669.327	3.73
669.516	3.78
669.704	3.86
669.892	3.94
670.08	4.04
670.269	4.09
670.457	4.06
670.645	3.96
670.833	3.97
671.021	4.06
671.21	4.1
671.398	4.17
671.586	4.2
671.774	4.28
671.962	4.24
672.15	4.32
672.338	4.38
672.526	4.52
672.714	4.52
672.902	4.54
673.09	4.53
673.278	4.47
673.466	4.49
673.654	4.57
673.842	4.71
674.03	4.8
674.218	4.92
674.405	4.98
674.593	5.07
674.781	5.03
674.969	5.19
675.157	5.34
675.344	5.39
675.532	5.34
675.72	5.49
675.908	5.36
676.095	5.31
676.283	5.43
676.471	5.37
676.658	5.39
676.846	5.58
677.033	5.57
677.221	5.61
677.409	5.78
677.596	5.84
677.784	5.91
677.971	6.02
678.159	6.03
678.346	6.13
678.534	6.21
678.721	6.24
678.909	6.39
679.096	6.41
679.283	6.46
679.471	6.61
679.658	6.69
679.846	6.76
680.033	7.02
680.22	7.16
680.408	7.15
680.595	7.14
680.782	7.16
680.969	7.24
681.157	7.32
681.344	7.36
681.531	7.56
681.718	7.69
681.905	7.73
682.093	7.78
682.28	8.02
682.467	8.13
682.654	8.23
682.841	8.39
683.028	8.39
683.215	8.46
683.402	8.57
683.589	8.76
683.776	8.8
683.963	9.07
684.15	9.3
684.337	9.41
684.524	9.55
684.711	9.8
684.898	9.95
685.085	9.98
685.271	10.32
685.458	10.54
685.645	10.68
685.832	10.99
686.019	11.27
686.205	11.47
686.392	11.78
686.579	12.12
686.766	12.41
686.952	12.63
687.139	12.89
687.326	13.18
687.512	13.36
687.699	13.63
687.886	13.98
688.072	14.16
688.259	14.44
688.445	14.98
688.632	15.45
688.818	16
689.005	16.55
689.191	17.04
689.378	17.34
689.564	17.8
689.751	18.29
689.937	18.94
690.124	19.39
690.31	19.78
690.496	20.29
690.683	20.83
690.869	21.3
691.055	21.85
691.242	22.67
691.428	23.22
691.614	23.85
691.8	24.42
691.987	25.05
692.173	25.78
692.359	26.57
692.545	27.38
692.731	28.1
692.918	28.82
693.104	29.32
693.29	29.91
693.476	30.33
693.662	31.07
693.848	32.03
694.034	32.91
694.22	33.72
694.406	34.57
694.592	35.28
694.778	35.83
694.964	36.52
695.15	37.23
695.336	38.06
695.522	39.03
695.708	39.74
695.894	40.59
696.08	41.44
696.265	42.16
696.451	42.78
696.637	43.69
696.823	44.4
697.009	45.16
697.194	45.89
697.38	46.8
697.566	47.35
697.751	48.23
697.937	49.14
698.123	49.87
698.308	50.38
698.494	51.23
698.68	51.9
698.865	52.41
699.051	53.01
699.236	53.57
699.422	54.09
699.607	54.85
699.793	55.75
699.978	56.63
700.164	57.32
700.349	58.1
700.535	58.48
700.72	58.85
700.906	59.19
701.091	59.83
701.276	60.53
701.462	61.39
701.647	62.19
701.832	63.22
702.018	64
702.203	64.61
702.388	65.01
702.573	65.51
702.759	66.09
702.944	66.36
703.129	66.53
703.314	66.98
703.499	67.18
703.684	67.53
703.87	68.17
704.055	69.08
704.24	69.8
704.425	70.33
704.61	70.46
704.795	70.83
704.98	71.04
705.165	71.27
705.35	71.76
705.535	72.65
705.72	73.02
705.905	73.77
706.09	74.39
706.275	74.49
706.459	74.68
706.644	75.04
706.829	75.39
707.014	75.71
707.199	76.5
707.384	77.03
707.568	77.09
707.753	77.25
707.938	77.45
708.123	77.9
708.307	78.02
708.492	78.94
708.677	79.2
708.861	79.52
709.046	79.47
709.231	79.28
709.415	79.3
709.6	79.36
709.784	79.69
709.969	80.38
710.153	80.84
710.338	81.46
710.522	82.12
710.707	82.11
710.891	82.02
711.076	82.17
711.26	82.26
711.445	82.41
711.629	82.76
711.813	83.17
711.998	83.56
712.182	83.48
712.366	84.07
712.551	84.58
712.735	84.65
712.919	85.19
713.103	85.76
713.288	85.34
713.472	85.61
713.656	85.58
713.84	85.72
714.024	85.76
714.208	85.78
714.393	85.99
714.577	86.55
714.761	86.67
714.945	86.74
715.129	87.21
715.313	87.1
715.497	86.93
715.681	86.73
715.865	86.95
716.049	87.01
716.233	87.06
716.417	87.56
716.601	88.17
716.785	88.28
716.968	88.57
717.152	88.83
717.336	89.03
717.52	89.33
717.704	89.66
717.888	89.86
718.071	89.83
718.255	89.98
718.439	89.77
718.622	89.89
718.806	90.08
718.99	90.33
719.174	90.32
719.357	90.72
719.541	90.82
719.724	90.59
719.908	90.64
720.092	90.51
720.275	90.57
720.459	90.66
720.642	90.87
720.826	90.61
721.009	90.74
721.193	90.22
721.376	90.03
721.559	90.3
721.743	91.34
721.926	91.78
722.11	92.62
722.293	93.56
722.476	93.14
722.66	93.29
722.843	93.04
723.026	92.98
723.21	92.83
723.393	93.57
723.576	93.51
723.759	94.35
723.942	94.41
724.126	94.18
724.309	94.19
724.492	93.82
724.675	93.48
724.858	93.55
725.041	93.89
725.224	93.95
725.407	94.23
725.59	94.12
725.774	94.04
725.957	94.04
726.14	94.46
726.322	94.48
726.505	94.88
726.688	95.45
726.871	95.58
727.054	95.38
727.237	95.51
727.42	95.28
727.603	95.51
727.786	95.52
727.968	95.39
728.151	95.36
728.334	95.45
728.517	95.28
728.699	95.73
728.882	96.12
729.065	96.27
729.248	96.71
729.43	97.02
729.613	96.99
729.796	97.43
729.978	97.74
730.161	97.71
730.343	97.39
730.526	97.18
730.708	97
730.891	97.31
731.073	97.45
731.256	98.04
731.438	98.88
731.621	99.51
731.803	99.21
731.986	99.76
732.168	99.73
732.35	99.87
732.533	98.98
732.715	99.45
732.898	98.61
733.08	98.49
733.262	97.74
733.444	98.97
733.627	99.29
733.809	100.03
733.991	100.06
734.173	100.09
734.355	99.35
734.538	99.31
734.72	99.49
734.902	100.39
735.084	101.33
735.266	102
735.448	102.21
735.63	102.47
735.812	101.96
735.994	101.5
736.176	101.68
736.358	102.07
736.54	102.39
736.722	101.9
736.904	102.12
737.086	100.98
737.268	101.12
737.45	100.85
737.632	101.74
737.814	101.93
737.995	102.63
738.177	102.48
738.359	102.16
738.541	102.21
738.723	101.8
738.904	102.11
739.086	101.86
739.268	102
739.449	101.63
739.631	102.04
739.813	101.52
739.994	100.67
740.176	101.03
740.358	101.33
740.539	101.17
740.721	101.71
740.902	102.81
741.084	102.87
741.265	103.36
741.447	104.23
741.628	104.34
741.81	104.57
741.991	104.76
742.172	103.64
742.354	102.97
742.535	102.57
742.717	101.13
742.898	100.1
743.079	101.88
743.261	101.93
743.442	101.31
743.623	102.12
743.804	102.35
743.986	100.77
744.167	99.96
744.348	99.52
744.529	99.34
744.71	99.39
744.891	99.94
745.073	100.32
745.254	101.46
745.435	102.05
745.616	101.45
745.797	100.89
745.978	101.2
746.159	100.61
746.34	100.61
746.521	102.16
746.702	102.57
746.883	102.05
747.064	103.38
747.245	103.59
747.426	102.5
747.606	102.05
747.787	103.62
747.968	101.71
748.149	100.53
748.33	100.38
748.51	100.63
748.691	100.64
748.872	102.5
749.053	102.17
749.233	102.95
749.414	104.11
749.595	103.37
749.775	103.04
749.956	103.28
750.137	102.49
750.317	101.17
750.498	100.51
750.678	99.94
750.859	101.57
751.04	101.44
751.22	100.7
751.4	101.96
751.581	102.45
751.761	101.53
751.942	101.32
752.122	101.57
752.303	100.99
752.483	100
752.663	99.13
752.844	99.62
753.024	100.59
753.204	99.98
753.385	101.51
753.565	101.97
753.745	101.78
753.925	101.06
754.106	101.55
754.286	99.88
754.466	100.42
754.646	101.18
754.826	101.8
755.006	100.28
755.187	101.77
755.367	100.73
755.547	99.14
755.727	97.77
755.907	98.2
756.087	96.84
756.267	95.93
756.447	97.29
756.627	97.75
756.807	98.71
756.987	98.24
757.167	98.3
757.346	98.15
757.526	99.3
757.706	99.38
757.886	100.38
758.066	101.46
758.246	100.87
758.425	98.67
758.605	97.66
758.785	97.55
758.965	97.6
759.144	96.75
759.324	98.74
759.504	100.05
759.683	99.45
759.863	99.47
760.043	101.33
760.222	100.49
760.402	98.14
760.581	98.89
760.761	99.23
760.94	98.57
761.12	98.19
761.299	100.71
761.479	101.68
761.658	101.68
761.838	103.3
762.017	104.13
762.197	101.7
762.376	101.12
762.555	100.54
762.735	98.08
762.914	98.24
763.093	98.98
763.273	97.7
763.452	96.82
763.631	96.4
763.81	95.23
763.99	95.1
764.169	96.08
764.348	95.63
764.527	96.02
764.706	95.49
764.885	97.61
765.064	97.72
765.243	97.42
765.423	98.88
765.602	99.83
765.781	96.63
765.96	95.37
766.139	96.78
766.318	97.99
766.497	96.5
766.676	95.5
766.854	97.21
767.033	97.36
767.212	95.7
767.391	97.24
767.57	102.26
767.749	99.96
767.928	100.93
768.106	100.33
768.285	99.42
768.464	96.87
768.643	97.23
768.821	96.04
769	96.24
769.179	96.07
769.357	95.51
769.536	94.18
769.715	93.49
769.893	93.98
770.072	93.65
770.25	92.8
770.429	93.76
770.607	94.68
770.786	93.58
770.964	94.75
771.143	95.53
771.321	93.89
771.5	92.79
771.678	92.83
771.857	90.43
772.035	92.12
772.213	95.21
772.392	94.26
772.57	93.54
772.748	95.28
772.927	93.75
773.105	94.4
773.283	96
773.461	97.81
773.64	97.83
773.818	96.92
773.996	95.97
774.174	95.22
774.352	93.49
774.531	92.85
774.709	94.75
774.887	91.49
775.065	92.84
775.243	93.82
775.421	93.85
775.599	95.54
775.777	96.27
775.955	94.1
776.133	93.43
776.311	94.62
776.489	91.67
776.667	92.13
776.844	93.69
777.022	92.48
777.2	89.91
777.378	89.95
777.556	91.68
777.734	92.52
777.911	94.85
778.089	99.01
778.267	97.91
778.445	100.21
778.622	99.01
778.8	95.58
778.978	93.77
779.155	96.42
779.333	95.05
779.511	92.83
779.688	94.81
779.866	94.3
780.043	94.32
780.221	92.03
780.398	93.2
780.576	92.82
780.753	93.95
780.931	91.52
781.108	93.26
781.286	93.33
781.463	92.89
781.64	91.48
781.818	92.83
781.995	92.38
782.172	92.8
782.35	92.77
782.527	94.42
782.704	90.63
782.882	86.74
783.059	87.92
783.236	86.2
783.413	83.7
783.59	86.76
783.768	89.92
783.945	87.56
784.122	90.73
784.299	91.91
784.476	87.49
784.653	84.54
784.83	84.61
785.007	83.8
785.184	82.62
785.361	84.91
785.538	85.24
785.715	87.02
785.892	85.71
786.069	87.24
786.246	90.34
786.423	90.5
786.6	88.69
786.776	90.11
786.953	85.88
787.13	86.22
787.307	87.56
787.484	86.4
787.66	83.41
787.837	82.57
788.014	79.81
788.191	77.8
788.367	77.07
788.544	77.86
788.721	80.31
788.897	82.69
789.074	82.49
789.25	84.89
789.427	83.42
789.603	83.68
789.78	80.12
789.956	79.9
790.133	76.87
790.309	79.19
790.486	78.56
790.662	78.69
790.839	77.79
791.015	82.08
791.192	83.24
791.368	83.23
791.544	86.01
791.721	86.64
791.897	83.81
792.073	82.07
792.249	82.02
792.426	79
792.602	80.07
792.778	77.88
792.954	77.65
793.13	79.86
793.307	81.46
793.483	84.23
793.659	85.64
793.835	87.2
794.011	87.29
794.187	85.7
794.363	84.9
794.539	84.84
794.715	82.88
794.891	82.72
795.067	86.35
795.243	87.67
795.419	87.52
795.595	93.83
795.771	89.76
795.947	83.38
796.122	77.92
796.298	76.71
796.474	71.39
796.65	76.23
796.826	78.58
797.001	79.17
797.177	75.83
797.353	78.59
797.529	78.42
797.704	81.15
797.88	78.69
798.056	83.11
798.231	80.68
798.407	79.27
798.582	80.31
798.758	86.26
798.934	88.75
799.109	86.28
799.285	86.5
799.46	79.58
799.636	74.49
799.811	71.2
799.986	70.41
800.162	64.4
800.337	70.69
800.513	70.49
800.688	69.35
800.863	80.4
801.039	85.07
801.214	81.96
801.389	80.98
801.565	83.75
801.74	70.61
801.915	70.65
802.09	67.31
802.265	70.9
802.441	73.37
802.616	75.75
802.791	74.84
802.966	81.51
803.141	82.6
803.316	81.41
803.491	79.49
803.666	84.18
803.841	79.01
804.016	74.36
804.191	74.01
804.366	76.27
804.541	69.85
804.716	64.99
804.891	68.77
805.066	73.57
805.241	73.6
805.416	83.15
805.591	94.64
805.765	96.58
805.94	91.09
806.115	86.4
806.29	79.09
806.464	74.64
806.639	72.67
806.814	74.89
806.989	84.02
807.163	92.2
807.338	89.01
807.512	94.24
807.687	90.94
807.862	89.93
808.036	82.6
808.211	85.61
808.385	83.99
808.56	83.09
808.734	71.49
808.909	74.67
809.083	80.04
809.258	81.45
809.432	79.31
809.606	88.64
809.781	84.61
809.955	81.94
810.13	75.48
810.304	78.46
810.478	77.53
810.652	72.73
810.827	75.67
811.001	72.65
811.175	69.86
811.349	68.11
811.524	72.84
811.698	65.31
811.872	74.8
812.046	79.33
812.22	86.17
812.394	84.08
812.568	84.98
812.742	77.19
812.916	80.53
813.09	74.35
813.264	71.79
813.438	73.7
813.612	73.28
813.786	68.11
813.96	78.52
814.134	77.77
814.308	77.86
814.482	84.15
814.656	79.09
814.83	78.48
815.003	84.6
815.177	83.24
815.351	87.34
815.525	94.86
815.698	83.74
815.872	73.85
816.046	65.95
816.219	57.5
816.393	51.51
816.567	54.11
816.74	61.19
816.914	66.64
817.088	75.67
817.261	85.22
817.435	83.65
817.608	79.58
817.782	76.76
817.955	74.03
818.129	64.23
818.302	64.4
818.475	71.66
818.649	77.64
818.822	65.55
818.996	80.5
819.169	79.54
819.342	72.12
819.516	73.37
819.689	75.35
819.862	60.03
820.035	65.79
820.209	68.01
820.382	56.59
820.555	59.91
820.728	62.67
820.901	54.45
821.075	54.03
821.248	57.23
821.421	58.44
821.594	66.02
821.767	76.74
821.94	62.7
822.113	67.32
822.286	74.26
822.459	65.02
822.632	65.75
822.805	78.94
822.978	78.87
823.151	66.15
823.324	50.41
823.496	37.49
823.669	37.87
823.842	44.72
824.015	54.29
824.188	76.97
824.361	79.94
824.533	62.81
824.706	56.7
824.879	51.41
825.051	61.17
825.224	60.77
825.397	63.66
825.569	48.78
825.742	57.4
825.915	45.91
826.087	40.03
826.26	47
826.432	56.59
826.605	51.92
826.777	59.94
826.95	59.65
827.122	47.45
827.295	68.41
827.467	63.74
827.64	42.19
827.812	39.81
827.984	63.66
828.157	36.55
828.329	42
828.501	42.66
828.674	58.45
828.846	48.92
829.018	44.35
829.19	46.99
829.363	46.52
829.535	36.89
829.707	43.47
829.879	48.56
830.051	41.45
830.223	55.89
830.395	52.26
830.568	53.23
830.74	47.93
830.912	54.01
831.084	48.77
831.256	42.97
831.428	40.65
831.6	47.15
831.772	31.64
831.943	21.19
832.115	20.08
832.287	32.91
832.459	41.72
832.631	50.66
832.803	62.1
832.975	69.43
833.146	62.39
833.318	57.17
833.49	53.44
833.662	53.66
833.833	40.97
834.005	46.02
834.177	52.48
834.348	39.7
834.52	48.55
834.692	40.02
834.863	34.36
835.035	26.66
835.206	37.57
835.378	25.34
835.549	33.82
835.721	36.43
835.892	40.46
836.064	37.52
836.235	35.48
836.407	34.79
836.578	40.81
836.749	30.67
836.921	28.19
837.092	24.72
837.264	25.03
837.435	5.84
837.606	20.23
837.777	32.28
837.949	39.57
838.12	41.84
838.291	42.02
838.462	46.32
838.633	36.45
838.805	22.58
838.976	20.42
839.147	31.07
839.318	20.14
839.489	23
839.66	29.12
839.831	34.34
840.002	43.73
840.173	50.32
840.344	49.02
840.515	62
840.686	51.79
840.857	42.78
841.028	35.88
841.199	24.47
841.369	16.26
841.54	19.12
841.711	37.55
841.882	53.42
842.053	75.36
842.223	70.92
842.394	65.76
842.565	47.91
842.736	38.97
842.906	29.34
843.077	31.63
843.248	45.39
843.418	38.98
843.589	31.5
843.759	32.59
843.93	34.33
844.101	9.85
844.271	23.14
844.442	19.02
844.612	26.59
844.783	23.36
844.953	25.24
845.123	28.13
845.294	31.51
845.464	26.24
845.635	12.58
845.805	13.47
845.975	-38.35
846.146	-27.63
846.316	-17.25
846.486	18.02
846.656	22.39
846.827	38.45
846.997	45.1
847.167	43.15
847.337	23.48
847.507	31.93
847.677	25.59
847.848	39.73
848.018	51.63
848.188	71.62
848.358	52.04
848.528	67.69
848.698	28.97
848.868	16.62
849.038	-4.48
849.208	17.53
849.378	17.44
849.548	7.59
849.718	-7.93
849.887	-1.17
850.057	-5.14
850.227	-21.18
850.397	37.35
850.567	15.74
850.737	40.84
850.906	12.98
851.076	4.02
851.246	18.22
851.415	29.06
851.585	-11.21
851.755	21.14
851.924	36.95
852.094	21.11
852.264	18.72
852.433	2.57
852.603	-24.94
852.772	-39.11
852.942	12.95
853.111	15.71
853.281	39.33
853.45	44.41
853.62	43.39
853.789	8.13
853.959	28.5
854.128	30.6
854.297	39.13
854.467	36.49
854.636	49.72
854.805	50.17
854.975	43.3
855.144	10.52
855.313	33.99
855.482	11.2
855.652	-21.77
855.821	-41.23
855.99	-14.5
856.159	-14.74
856.328	-43.52
856.497	2.64
856.667	0.6
856.836	2.29
857.005	-8.23
857.174	-3.93
857.343	-29.05
857.512	-12.17
857.681	-30.02
857.85	-38.76
858.019	-50.64
858.188	-109.86
858.356	-60.87
858.525	-22.79
858.694	-29.03
858.863	-20.36
859.032	12.58
859.201	-17.42
859.369	-50.93
859.538	-3.53
859.707	1.6
859.876	0.34
860.044	27.32
860.213	50.25
860.382	32.07
860.55	18.07
860.719	18.54
860.888	-1.02
861.056	-29
861.225	-44.59
861.393	-22.73
861.562	-30.64
861.73	-22.47
861.899	-24.37
862.067	-9.8
862.236	-32.2
862.404	-13.99
862.572	-2.41
862.741	7.97
862.909	-12.62
863.078	-4.78
863.246	1.25
863.414	7.3
863.582	-14.32
863.751	-10.6
863.919	1.69
864.087	0.42
864.255	-27.17
864.424	-6.48
864.592	9.32
864.76	8.33
864.928	-24.31
865.096	-38.16
865.264	-32.14
865.432	-56.78
865.6	-67.94
865.768	-67.69
865.936	-25.33
866.104	-54.17
866.272	-64.01
866.44	-38.68
866.608	-7.96
866.776	-4.72
866.944	20.76
867.112	11.84
867.28	15.99
867.448	19.61
867.615	10.72
867.783	-8.77
867.951	-3.4
868.119	-24.27
868.286	-70.91
868.454	-34.54
868.622	-11.93
868.789	-1.61
868.957	14.18
869.125	25.14
869.292	-7.19
869.46	11.21
869.627	-16.69
869.795	-68.32
869.963	-65.52
870.13	-37.66
870.298	-54.95
870.465	-41.42
870.632	-25.12
870.8	2.42
870.967	8.38
871.135	-24.34
871.302	-3.21
871.469	12.77
871.637	-26.05
871.804	9.23
871.971	12.33
872.139	3.8
872.306	-13.27
872.473	-48.13
872.64	-189.39
872.807	-144.46
872.975	-239.38
873.142	-56.33
873.309	-18.29
873.476	31.42
873.643	30.66
873.81	12.62
873.977	-38.71
874.144	-24.02
874.311	-83.24
874.478	-109.56
874.645	-165.77
874.812	-56.92
874.979	-81.76
875.146	-138.94
875.313	-57.9
875.48	22.57
875.647	-0.65
875.813	-33.14
875.98	-29.69
876.147	-114.85
876.314	-115.1
876.481	-93.14
876.647	-35.25
876.814	0.93
876.981	7.5
877.147	-13.57
877.314	-6.95
877.481	-0.49
877.647	-8.96
877.814	13.59
877.98	38.28
878.147	53.16
878.314	60.34
878.48	73.29
878.647	59.64
878.813	64.24
878.979	38.99
879.146	29.05
879.312	16.63
879.479	10.04
879.645	18.53
879.811	7.38
879.978	25.31
880.144	33.35
880.31	49.67
880.477	37.1
880.643	23.51
880.809	9.12
880.975	-41.96
881.142	-140.39
881.308	469.31
881.474	795.5
881.64	-139.26
881.806	-115.13
881.972	-53.53
882.138	-34.09
882.304	-24.37
882.47	-97.55
882.636	-117.22
882.802	-131.84
882.968	-99.2
883.134	-68.87
883.3	-67.99
883.466	-28.98
883.632	4.69
883.798	-91.45
883.964	-66.87
884.129	-458.95
884.295	-40.48
884.461	-104.62
884.627	-20.32
884.793	-62.7
884.958	-21.8
885.124	-67.89
885.29	-117.6
885.455	-176.53
885.621	-122.05
885.787	-67.54
885.952	-64.65
886.118	-7.47
886.283	-10.83
886.449	5.58
886.614	-8.24
886.78	10.76
886.945	30.37
887.111	-19.52
887.276	-49.59
887.442	-97.15
887.607	-84
887.773	-57.34
887.938	-54.67
888.103	-31.17
888.269	1.31
888.434	7.5
888.599	-5.35
888.764	24.63
888.93	32.79
889.095	11.88
889.26	-14.54
889.425	-14.24
889.59	-38.57
889.756	-21.83
889.921	-26.56
890.086	9.13
890.251	17.8
890.416	-23.3
890.581	-83.04
890.746	0.66
890.911	21.42
891.076	10.32
891.241	1.09
891.406	-5.9
891.571	-31.6
891.736	-122.26
891.901	30.88
892.065	43.92
892.23	88.43
892.395	48.13
892.56	11.92
892.725	-49.63
892.889	-113.75
893.054	-87.61
893.219	-139.15
893.384	-156.94
893.548	-208.76
893.713	-268.75
893.878	-418.96
