Data from Ofra_PS_T2_1A_4HS15_Reflection_1.txt Node
Date: Wed Jul 21 18:06:59 EDT 2021
User: Adam
Spectrometer: FLMT01687
Trigger mode: 0
Integration Time (sec): 1.100000E0
Scans to average: 2
Electric dark correction enabled: true
Nonlinearity correction enabled: false
Boxcar width: 2
XAxis mode: Wavelengths
Number of Pixels in Spectrum: 3648
>>>>>Begin Spectral Data<<<<<
179.494	530.4
179.716	614.12
179.937	572.78
180.158	506.25
180.38	871.87
180.601	435.91
180.823	135.04
181.044	-17.06
181.265	225
181.486	94.1
181.708	47.11
181.929	110.2
182.15	-80.28
182.372	103.38
182.593	80.49
182.814	60.41
183.035	111.13
183.257	80.12
183.478	69.57
183.699	93.43
183.92	29.61
184.141	32.99
184.363	-1.83
184.584	30.69
184.805	48.05
185.026	64.44
185.247	47.99
185.468	24.44
185.689	21.65
185.91	13.41
186.132	31.99
186.353	42.82
186.574	109.99
186.795	100.09
187.016	92.63
187.237	63.64
187.458	44.78
187.679	52.9
187.9	26.23
188.121	6.12
188.342	14.19
188.563	55.45
188.784	55.18
189.005	48.01
189.226	116.69
189.447	68.53
189.667	-34.95
189.888	-180.3
190.109	-498.7
190.33	-427.74
190.551	-793.81
190.772	-140.92
190.993	-151.07
191.214	-117.9
191.434	-64.02
191.655	43.44
191.876	21.31
192.097	-38.29
192.318	-97.13
192.538	-159.24
192.759	-145.43
192.98	-50.06
193.201	20.7
193.421	30.59
193.642	35.17
193.863	45.47
194.083	12.87
194.304	-7.19
194.525	-17.08
194.745	-11.05
194.966	-51.7
195.187	-55.39
195.407	-79.81
195.628	-98.82
195.848	-126.65
196.069	-127.84
196.29	-63.94
196.51	-60.07
196.731	-76.05
196.951	-102.31
197.172	-91.32
197.392	-108.16
197.613	-80.1
197.833	-87.29
198.054	-77.52
198.274	-36.87
198.495	-44.91
198.715	-24.5
198.936	-24.26
199.156	-11.21
199.377	-92.54
199.597	-94
199.817	-123.59
200.038	-53.9
200.258	-83.84
200.479	8.04
200.699	26.5
200.919	90.08
201.14	44
201.36	13.12
201.58	31.89
201.801	47.89
202.021	3.42
202.241	-6.02
202.461	-5.21
202.682	-110.77
202.902	-161.17
203.122	-88.18
203.342	-70.04
203.563	-30.59
203.783	1.03
204.003	-44.46
204.223	-41.58
204.443	31.51
204.663	17.28
204.884	25.51
205.104	58.93
205.324	65.37
205.544	40.55
205.764	58.36
205.984	53.2
206.204	52.58
206.424	35.39
206.644	-9.1
206.864	4.49
207.084	-44.07
207.304	-58.1
207.525	-119.06
207.745	1.69
207.964	30.78
208.184	-7.48
208.404	-49.03
208.624	-60.45
208.844	-87.67
209.064	-417.51
209.284	-427.46
209.504	-158.16
209.724	-25.68
209.944	-12.48
210.164	37.25
210.384	43.98
210.604	27.39
210.823	-14.63
211.043	-39.02
211.263	-35.52
211.483	-32.09
211.703	-76.73
211.922	-54.45
212.142	13.27
212.362	20.8
212.582	19
212.801	23.58
213.021	4.7
213.241	-14.41
213.461	-72.45
213.68	-98.67
213.9	-60.44
214.12	-30.36
214.339	-67.98
214.559	-23.29
214.779	16.68
214.998	-3.37
215.218	-60.89
215.438	-22.58
215.657	-42.14
215.877	-48.65
216.096	-6.17
216.316	19.88
216.535	15
216.755	33.89
216.974	-4.79
217.194	-47.67
217.413	-50.26
217.633	-56.99
217.852	-143.95
218.072	-48.26
218.291	-10.46
218.511	6.01
218.73	-12.32
218.95	-6.04
219.169	-15
219.389	-52.58
219.608	-35.24
219.827	-29.18
220.047	-5.68
220.266	9.72
220.485	18.16
220.705	31.09
220.924	9.48
221.143	26.61
221.363	8.52
221.582	13.95
221.801	27.16
222.021	37.19
222.24	-35.2
222.459	5.16
222.678	7.98
222.897	-93.51
223.117	-116.01
223.336	-75.95
223.555	-60.65
223.774	-23.87
223.993	14.3
224.213	65.76
224.432	59.76
224.651	74.08
224.87	35.63
225.089	44.18
225.308	46.96
225.527	62.29
225.746	67.2
225.965	54.1
226.184	44.64
226.404	38.6
226.623	0.77
226.842	-16.56
227.061	19.23
227.28	18.52
227.499	2.6
227.718	25.09
227.936	34.5
228.155	46.11
228.374	42.61
228.593	30.64
228.812	32.49
229.031	21.52
229.25	-45.41
229.469	-61.78
229.688	-50.8
229.907	-12.57
230.125	10.38
230.344	47.78
230.563	55.85
230.782	71.66
231.001	9.41
231.22	-16.1
231.438	11.34
231.657	15.24
231.876	-5.94
232.095	45.63
232.313	63.93
232.532	15.7
232.751	-17.98
232.969	-19.36
233.188	-115.19
233.407	-45.35
233.625	-1.13
233.844	-3.43
234.063	9.29
234.281	24.46
234.5	17.96
234.719	8.89
234.937	25.75
235.156	25.14
235.374	27.83
235.593	5.13
235.811	19.77
236.03	14.05
236.249	-22.28
236.467	-20.89
236.686	16.14
236.904	12.61
237.123	-11.79
237.341	-7.18
237.559	-6.01
237.778	-25.42
237.996	-54.88
238.215	-7.07
238.433	2.44
238.652	9.19
238.87	-24.19
239.088	4.53
239.307	8.01
239.525	4.85
239.743	-28.87
239.962	2.33
240.18	-34.58
240.398	-71.66
240.617	-73.26
240.835	-60.99
241.053	-44.33
241.271	-5.73
241.49	6.31
241.708	1.87
241.926	11.17
242.144	16.88
242.363	-37.86
242.581	-68.01
242.799	-43.55
243.017	-20.66
243.235	-41.45
243.453	-25.11
243.672	-4.92
243.89	-5.95
244.108	-14.96
244.326	8.39
244.544	24.7
244.762	11.83
244.98	23.09
245.198	28.03
245.416	4.95
245.634	-2.92
245.852	6
246.07	2.98
246.288	15.61
246.506	-3.75
246.724	6.06
246.942	-1.79
247.16	17.45
247.378	23.8
247.596	39.61
247.814	48.93
248.032	18.81
248.25	8.56
248.468	-3.44
248.685	5.43
248.903	5.38
249.121	16.97
249.339	-3.99
249.557	0.8
249.775	-3.61
249.992	-41.71
250.21	-36.81
250.428	-19.91
250.646	-39.66
250.863	-40.41
251.081	-16.03
251.299	4.7
251.517	6.75
251.734	-1.37
251.952	-29.02
252.17	-9.51
252.387	0.42
252.605	-7.94
252.823	-3.2
253.04	24.11
253.258	31.64
253.475	2.89
253.693	34.03
253.911	52.61
254.128	62.17
254.346	68.72
254.563	62.61
254.781	35.23
254.998	8.08
255.216	-7.07
255.433	-10.2
255.651	40.82
255.868	48.18
256.086	66.87
256.303	52.91
256.521	39.48
256.738	1.85
256.956	-14.73
257.173	-28.08
257.39	-41.62
257.608	-63.62
257.825	8.42
258.043	42.72
258.26	35.49
258.477	71.85
258.695	66.71
258.912	6.92
259.129	5.56
259.346	-27
259.564	-65.91
259.781	-82.5
259.998	-10.82
260.216	17.67
260.433	57.92
260.65	56.63
260.867	70.92
261.084	32.51
261.302	15.67
261.519	-3.71
261.736	-38.07
261.953	-46.9
262.17	0.22
262.387	-32.3
262.604	-68.28
262.822	-75.14
263.039	-58.04
263.256	-119.62
263.473	-88.07
263.69	-46.84
263.907	16.06
264.124	26.48
264.341	30.8
264.558	32.28
264.775	55.68
264.992	35.8
265.209	26.2
265.426	50.17
265.643	50.51
265.86	43.15
266.077	46.84
266.294	51
266.51	7.04
266.727	6.04
266.944	4.77
267.161	-1.45
267.378	-4.4
267.595	20.45
267.812	-6.53
268.028	0.25
268.245	6.21
268.462	-23.63
268.679	-34.85
268.896	11.23
269.112	8.54
269.329	17.47
269.546	29.74
269.763	15.9
269.979	5.65
270.196	-5.28
270.413	-34.87
270.629	-48.98
270.846	-45.11
271.063	-42.65
271.279	-55.45
271.496	-53.67
271.712	-12.25
271.929	19.38
272.146	-0.27
272.362	29.73
272.579	49.17
272.795	36.37
273.012	34.87
273.228	51.85
273.445	30.85
273.661	28.52
273.878	-14.65
274.094	-0.23
274.311	-21.18
274.527	26.99
274.744	17.12
274.96	27.85
275.177	15.52
275.393	28.04
275.609	14.91
275.826	39.7
276.042	28.61
276.259	-8.24
276.475	6.87
276.691	11.47
276.908	-14.85
277.124	7.01
277.34	13.5
277.557	4.38
277.773	-7.11
277.989	-10.29
278.205	-24.52
278.422	-9.86
278.638	-13.52
278.854	-0.86
279.07	6.05
279.286	2.32
279.503	-16.06
279.719	-15.24
279.935	-34.39
280.151	-49.92
280.367	-3.56
280.583	-9.77
280.799	0.56
281.016	-24.64
281.232	13.3
281.448	-6.99
281.664	11.69
281.88	-29.22
282.096	-1.64
282.312	12.88
282.528	25.14
282.744	29.66
282.96	39.74
283.176	24.13
283.392	5.2
283.608	0.73
283.824	11.62
284.04	12.12
284.256	19.42
284.471	7.8
284.687	8.97
284.903	28.62
285.119	56.9
285.335	49.41
285.551	72.99
285.767	31.16
285.982	-7.7
286.198	-52.11
286.414	0.4
286.63	0.17
286.846	44.58
287.061	25.56
287.277	49.02
287.493	18.19
287.709	42.46
287.924	21.88
288.14	66.65
288.356	62.65
288.571	69.45
288.787	40.49
289.003	34.72
289.218	-4.44
289.434	-41.11
289.65	-46.68
289.865	-48.71
290.081	3.21
290.296	30.49
290.512	58.66
290.727	51.11
290.943	41.65
291.159	0.87
291.374	-2.19
291.59	-24.92
291.805	-19.07
292.021	-13.41
292.236	-13.07
292.451	7.78
292.667	20.55
292.882	24.85
293.098	20.46
293.313	13.7
293.529	-1.87
293.744	-20.2
293.959	-16.99
294.175	-12.49
294.39	10.11
294.605	20.89
294.821	41.41
295.036	34.51
295.251	40.64
295.467	16.13
295.682	-11.88
295.897	-56.22
296.112	-54.45
296.328	-55.34
296.543	-71.49
296.758	-51.56
296.973	-17
297.188	12.8
297.404	-20.51
297.619	-30.8
297.834	-35.04
298.049	-54.53
298.264	-81.88
298.479	-12.34
298.694	3.6
298.909	16.54
299.125	28.44
299.34	26.07
299.555	-6.48
299.77	2.52
299.985	-32.46
300.2	-91.36
300.415	-77.31
300.63	-45.02
300.845	-52.65
301.06	-54.7
301.275	-17.78
301.49	-8.74
301.704	-17.84
301.919	-32.78
302.134	-35.29
302.349	-39.92
302.564	-104.81
302.779	-99.39
302.994	-43.73
303.209	-8.5
303.423	30.38
303.638	75.64
303.853	32.2
304.068	12.6
304.283	9.1
304.497	-4.08
304.712	-25.44
304.927	-20.97
305.142	-21.74
305.356	-1.7
305.571	6.8
305.786	-3.66
306	-1.16
306.215	13.76
306.43	-30
306.644	-38.8
306.859	32.24
307.074	30.15
307.288	3.75
307.503	-3.57
307.717	-10.44
307.932	-15.79
308.147	-10.51
308.361	7.04
308.576	12.71
308.79	-16.89
309.005	-23.99
309.219	-8.52
309.434	-15.81
309.648	-23.54
309.863	4.88
310.077	0
310.292	-3.43
310.506	9.85
310.72	19.66
310.935	28.75
311.149	19.37
311.364	27.41
311.578	26.6
311.792	19.7
312.007	12.17
312.221	2.87
312.435	-4.99
312.649	-25.15
312.864	8.07
313.078	23.27
313.292	72.32
313.507	61.8
313.721	131.48
313.935	39.2
314.149	35.46
314.363	32.62
314.578	34.19
314.792	24.46
315.006	21.88
315.22	35.43
315.434	40.5
315.648	41.38
315.862	44.8
316.077	30.5
316.291	11.03
316.505	1.7
316.719	-4.55
316.933	-25.79
317.147	4.9
317.361	-49
317.575	-61.29
317.789	-105.42
318.003	-146.37
318.217	-137.24
318.431	-47.65
318.645	-20.56
318.859	-3.09
319.073	22.17
319.287	15.74
319.5	-9.36
319.714	-34.81
319.928	-47.42
320.142	-85.85
320.356	-35.77
320.57	-9.1
320.784	-13.37
320.997	-36.1
321.211	-18.56
321.425	-63.84
321.639	-70.93
321.853	-15.46
322.066	6.65
322.28	3.61
322.494	5.97
322.707	13.61
322.921	-1.92
323.135	-7.24
323.349	8.89
323.562	1.68
323.776	-8.7
323.989	-7.26
324.203	-26.35
324.417	-49.53
324.63	-66.02
324.844	-61.04
325.057	-64.9
325.271	-45.38
325.485	-6.59
325.698	14.03
325.912	18.95
326.125	-8.6
326.339	9.84
326.552	-3.97
326.766	-0.59
326.979	15.68
327.193	64.77
327.406	44.66
327.619	29.42
327.833	38.92
328.046	17.91
328.26	-42.31
328.473	-23.14
328.686	-45.94
328.9	-54.94
329.113	-37.42
329.326	-43.46
329.54	-33.21
329.753	-27.03
329.966	-32.21
330.179	-16.86
330.393	4.29
330.606	14.54
330.819	21.19
331.032	30.64
331.246	31.49
331.459	53
331.672	48.48
331.885	34.48
332.098	22.2
332.311	15.22
332.525	-40.99
332.738	-47.47
332.951	-9.59
333.164	6.32
333.377	19.38
333.59	48.49
333.803	57.58
334.016	51.44
334.229	29.85
334.442	28.56
334.655	20.31
334.868	15.62
335.081	20.93
335.294	27.97
335.507	33.62
335.72	45.82
335.933	31.93
336.146	24.73
336.359	26.62
336.572	-24
336.785	-59.25
336.997	-45.48
337.21	-28.77
337.423	-28.94
337.636	-12.49
337.849	9.69
338.062	-10.57
338.274	-4.91
338.487	-18.02
338.7	-22.95
338.913	-63.36
339.125	-70.52
339.338	-138.97
339.551	-108.58
339.763	-60.57
339.976	-35.85
340.189	-12.18
340.402	15.76
340.614	13.48
340.827	2.4
341.039	-24.5
341.252	-16.11
341.465	-10.35
341.677	-22.43
341.89	-58.32
342.102	-12.51
342.315	-32.17
342.527	-63.73
342.74	-32.06
342.952	-10.5
343.165	-17.41
343.377	17.53
343.59	21.54
343.802	30.74
344.015	35.33
344.227	50.96
344.44	29.21
344.652	21.7
344.864	0.61
345.077	20.14
345.289	24.45
345.502	22.87
345.714	16.45
345.926	25.7
346.139	23.11
346.351	23.11
346.563	34.39
346.775	47.84
346.988	31.96
347.2	8.69
347.412	-29.87
347.624	-34.58
347.837	-52.74
348.049	-11.17
348.261	20.71
348.473	21.99
348.685	3.86
348.897	9.25
349.11	-18.33
349.322	-38.97
349.534	-24.1
349.746	-4.16
349.958	1.33
350.17	-4.11
350.382	21.98
350.594	21.68
350.806	5.28
351.018	5.47
351.23	10.69
351.442	-21.38
351.654	-57.31
351.866	-20.98
352.078	-27.64
352.29	0.18
352.502	18.77
352.714	32.02
352.926	18.38
353.138	11.56
353.35	-5.11
353.561	-13.08
353.773	-21.2
353.985	-4.02
354.197	5.85
354.409	7.42
354.621	0
354.832	12.81
355.044	-9.38
355.256	-15.18
355.468	-7.49
355.679	-9.11
355.891	-8.83
356.103	-20.33
356.314	-20.59
356.526	-25.2
356.738	-29.08
356.949	-58.83
357.161	-28.08
357.373	-23.36
357.584	-32.72
357.796	-12.44
358.008	-2.79
358.219	17.98
358.431	22.65
358.642	39.28
358.854	36.78
359.065	25.01
359.277	-7.67
359.488	-27.15
359.7	-42.97
359.911	-68.03
360.123	-33.3
360.334	-44.14
360.546	-56.72
360.757	-55.49
360.969	-31.59
361.18	-37.61
361.391	-11.76
361.603	-14.37
361.814	-8.45
362.025	-8.07
362.237	-20.97
362.448	-14.2
362.659	7.04
362.871	9.74
363.082	2.42
363.293	10.32
363.504	3.62
363.716	-18
363.927	-31.76
364.138	-44.67
364.349	-68.42
364.56	-58.28
364.772	-42.94
364.983	-10.22
365.194	-16.53
365.405	1.57
365.616	11.12
365.827	8.26
366.038	-25.21
366.25	-12.04
366.461	-39.21
366.672	-20.66
366.883	-6.29
367.094	-3.11
367.305	-9.8
367.516	2.43
367.727	-19.3
367.938	-25.6
368.149	-15.47
368.36	-1.24
368.571	6.11
368.781	-4.97
368.992	-19.75
369.203	-42.12
369.414	-57.48
369.625	-79.8
369.836	-76.4
370.047	-90.52
370.258	-71.07
370.468	-65.36
370.679	-67.19
370.89	-54.28
371.101	-29.34
371.312	-30.71
371.522	-30.96
371.733	-19.32
371.944	-9.51
372.155	-11.2
372.365	-18.38
372.576	-11.17
372.787	-9.59
372.997	-32.01
373.208	-24.21
373.419	12.4
373.629	-22.74
373.84	-32.87
374.05	-39.51
374.261	-33.46
374.472	-56.53
374.682	6.32
374.893	14.64
375.103	32.29
375.314	25.4
375.524	20.9
375.735	11.7
375.945	15.79
376.156	-1.07
376.366	11.34
376.577	8.34
376.787	-3.72
376.997	-2.01
377.208	-2.66
377.418	-35.23
377.629	-13.72
377.839	-14.32
378.049	-14.39
378.26	5.31
378.47	18.58
378.68	7.92
378.89	8.93
379.101	6.22
379.311	-20.23
379.521	-48.16
379.732	-52.55
379.942	-45.17
380.152	-65.85
380.362	-31.19
380.572	-12.67
380.783	-0.55
380.993	2.32
381.203	20.86
381.413	15.53
381.623	14.88
381.833	14.04
382.043	2.61
382.253	-2.82
382.463	-0.46
382.674	-11.35
382.884	-25.95
383.094	-23.6
383.304	-19.48
383.514	-10.53
383.724	5.83
383.934	6.07
384.144	-1.05
384.353	-13.11
384.563	-14.32
384.773	-12.57
384.983	-19.04
385.193	0.49
385.403	8.07
385.613	8.2
385.823	-4.16
386.033	-0.29
386.242	-12.4
386.452	-12.94
386.662	-24.44
386.872	-8.88
387.082	-11.65
387.291	-13.45
387.501	-16.03
387.711	-10.75
387.921	-24.04
388.13	-18.37
388.34	-3.81
388.55	-6.54
388.759	-2.92
388.969	6.33
389.179	1.19
389.388	-1.87
389.598	2.92
389.807	-4.63
390.017	-8.9
390.227	-4.72
390.436	-8.15
390.646	-6.32
390.855	-2.64
391.065	-4.51
391.274	-5.29
391.484	-5.24
391.693	-2.57
391.903	-1.01
392.112	4.22
392.322	6.16
392.531	6.87
392.74	7.11
392.95	2.37
393.159	0.19
393.369	-0.36
393.578	0.74
393.787	-1.8
393.997	0.43
394.206	-1.58
394.415	-0.09
394.625	-0.9
394.834	-2.63
395.043	-0.63
395.252	2.09
395.462	2.7
395.671	3.54
395.88	4.71
396.089	3.9
396.298	2.36
396.508	2.06
396.717	1.6
396.926	1.71
397.135	1.51
397.344	2.09
397.553	2.37
397.762	3.81
397.971	3.99
398.181	4
398.39	3.18
398.599	2.43
398.808	2.1
399.017	2.97
399.226	4.1
399.435	5.39
399.644	5.6
399.853	4.63
400.062	4.12
400.27	3.33
400.479	2.48
400.688	1.79
400.897	2.03
401.106	1.66
401.315	1.65
401.524	1.9
401.733	2.58
401.941	3.26
402.15	3.37
402.359	3.11
402.568	3.2
402.777	3.19
402.985	2.63
403.194	2.63
403.403	2.75
403.612	2.4
403.82	2.12
404.029	2.55
404.238	2.42
404.446	2.87
404.655	2.74
404.864	2.76
405.072	2.21
405.281	2.41
405.489	1.94
405.698	2.16
405.906	2.2
406.115	2.27
406.324	2.33
406.532	2.46
406.741	2.76
406.949	2.71
407.158	2.77
407.366	2.74
407.574	2.81
407.783	2.66
407.991	2.52
408.2	2.67
408.408	2.68
408.617	2.55
408.825	2.35
409.033	2.46
409.242	2.37
409.45	2.19
409.658	2.07
409.867	2.22
410.075	2.15
410.283	2.12
410.491	2.19
410.7	2.13
410.908	2.2
411.116	2.48
411.324	2.47
411.533	2.4
411.741	2.66
411.949	2.6
412.157	2.28
412.365	2.34
412.573	2.38
412.781	2.41
412.99	2.3
413.198	2.51
413.406	2.47
413.614	2.58
413.822	2.4
414.03	2.38
414.238	2.13
414.446	2.28
414.654	1.97
414.862	2.12
415.07	2.16
415.278	2.47
415.486	2.17
415.694	2.25
415.902	2.03
416.109	1.89
416.317	1.7
416.525	1.63
416.733	1.6
416.941	1.71
417.149	1.66
417.357	1.83
417.564	2.09
417.772	2.4
417.98	2.35
418.188	2.46
418.395	2.36
418.603	2.36
418.811	2
419.019	2.02
419.226	2.23
419.434	2.23
419.642	2.07
419.849	2.17
420.057	2.23
420.265	2.07
420.472	1.8
420.68	1.91
420.887	1.91
421.095	1.88
421.302	1.88
421.51	2.26
421.717	2.26
421.925	2.43
422.132	2.36
422.34	2.13
422.547	2.06
422.755	1.98
422.962	1.84
423.17	1.73
423.377	1.93
423.585	1.9
423.792	1.8
423.999	1.8
424.207	1.91
424.414	1.96
424.621	1.83
424.829	1.91
425.036	1.83
425.243	1.92
425.451	1.71
425.658	1.62
425.865	1.68
426.072	1.7
426.28	1.91
426.487	1.99
426.694	2.12
426.901	2.09
427.108	2.06
427.315	1.8
427.523	2.03
427.73	2
427.937	1.84
428.144	1.82
428.351	1.82
428.558	1.85
428.765	1.8
428.972	1.81
429.179	2.01
429.386	2.28
429.593	1.96
429.8	1.8
430.007	1.9
430.214	1.82
430.421	1.52
430.628	1.37
430.835	1.38
431.042	1.61
431.249	1.61
431.456	1.72
431.662	1.95
431.869	2.25
432.076	2.08
432.283	2.12
432.49	1.99
432.697	1.98
432.903	1.7
433.11	1.67
433.317	1.74
433.524	2.09
433.73	1.97
433.937	2.29
434.144	2.3
434.35	2.23
434.557	1.9
434.764	2.03
434.97	1.89
435.177	2.01
435.384	1.93
435.59	2.08
435.797	2.28
436.003	2.28
436.21	2.21
436.416	2.32
436.623	2.25
436.829	2.25
437.036	2.24
437.242	2.17
437.449	2.13
437.655	2.14
437.862	1.96
438.068	1.95
438.275	2.05
438.481	2.27
438.687	2.25
438.894	2.27
439.1	2.34
439.307	2.53
439.513	2.34
439.719	2.32
439.926	2.42
440.132	2.37
440.338	2.19
440.544	2.33
440.751	2.37
440.957	2.38
441.163	2.26
441.369	2.29
441.575	2.06
441.782	2.1
441.988	1.98
442.194	2.06
442.4	2.04
442.606	2.4
442.812	2.44
443.018	2.56
443.224	2.64
443.431	2.77
443.637	2.54
443.843	2.41
444.049	2.43
444.255	2.31
444.461	2.21
444.667	2.11
444.873	2.22
445.079	2.17
445.284	2.31
445.49	2.04
445.696	1.99
445.902	1.91
446.108	1.86
446.314	1.81
446.52	2.02
446.726	2.22
446.931	2.27
447.137	2.34
447.343	2.29
447.549	2.21
447.755	2.09
447.96	2.12
448.166	2.08
448.372	2.1
448.578	2.13
448.783	2.17
448.989	2.17
449.195	2.28
449.4	2.35
449.606	2.31
449.812	2.24
450.017	2.3
450.223	2.22
450.428	2.14
450.634	2.3
450.84	2.47
451.045	2.42
451.251	2.31
451.456	2.61
451.662	2.62
451.867	2.61
452.073	2.6
452.278	2.71
452.483	2.63
452.689	2.54
452.894	2.5
453.1	2.55
453.305	2.52
453.51	2.42
453.716	2.36
453.921	2.43
454.127	2.32
454.332	2.28
454.537	2.22
454.742	2.22
454.948	2.17
455.153	2.23
455.358	2.33
455.563	2.46
455.769	2.55
455.974	2.49
456.179	2.37
456.384	2.31
456.589	2.32
456.795	2.18
457	2.17
457.205	2.38
457.41	2.37
457.615	2.22
457.82	2.3
458.025	2.33
458.23	2.15
458.435	2.16
458.64	2.2
458.845	2.35
459.05	2.34
459.255	2.45
459.46	2.46
459.665	2.5
459.87	2.48
460.075	2.49
460.28	2.5
460.485	2.57
460.69	2.52
460.895	2.3
461.099	2.29
461.304	2.34
461.509	2.26
461.714	2.28
461.919	2.47
462.123	2.39
462.328	2.48
462.533	2.51
462.738	2.63
462.942	2.55
463.147	2.65
463.352	2.6
463.556	2.61
463.761	2.59
463.966	2.57
464.17	2.57
464.375	2.46
464.58	2.42
464.784	2.28
464.989	2.27
465.193	2.27
465.398	2.35
465.602	2.52
465.807	2.5
466.011	2.6
466.216	2.68
466.42	2.67
466.625	2.71
466.829	2.89
467.034	2.91
467.238	3.08
467.443	3.05
467.647	2.82
467.851	2.86
468.056	2.91
468.26	2.76
468.464	2.8
468.669	3.01
468.873	3.1
469.077	3.06
469.282	3.09
469.486	3.15
469.69	3.02
469.894	2.83
470.099	2.89
470.303	3.04
470.507	2.96
470.711	2.96
470.915	2.96
471.119	2.93
471.324	2.75
471.528	2.75
471.732	2.79
471.936	2.75
472.14	2.76
472.344	2.84
472.548	2.85
472.752	3.02
472.956	3.28
473.16	3.27
473.364	3.17
473.568	3.2
473.772	3.09
473.976	2.92
474.18	2.87
474.384	2.95
474.588	2.91
474.792	2.83
474.995	2.91
475.199	3
475.403	3.04
475.607	3.11
475.811	3.17
476.015	3.19
476.218	3.21
476.422	3.04
476.626	3.15
476.83	3.25
477.033	3.2
477.237	3.1
477.441	3.22
477.644	3.14
477.848	3.07
478.052	3.09
478.255	3.15
478.459	3.15
478.663	3.33
478.866	3.39
479.07	3.39
479.273	3.54
479.477	3.55
479.681	3.38
479.884	3.31
480.088	3.29
480.291	3.19
480.495	3.18
480.698	3.23
480.901	3.27
481.105	3.35
481.308	3.31
481.512	3.31
481.715	3.35
481.919	3.38
482.122	3.37
482.325	3.36
482.529	3.41
482.732	3.38
482.935	3.33
483.138	3.27
483.342	3.33
483.545	3.38
483.748	3.37
483.952	3.44
484.155	3.54
484.358	3.62
484.561	3.54
484.764	3.51
484.967	3.6
485.171	3.64
485.374	3.58
485.577	3.66
485.78	3.73
485.983	3.7
486.186	3.62
486.389	3.6
486.592	3.58
486.795	3.57
486.998	3.51
487.201	3.54
487.404	3.61
487.607	3.71
487.81	3.75
488.013	3.83
488.216	3.82
488.419	3.8
488.622	3.67
488.825	3.56
489.028	3.47
489.231	3.45
489.433	3.4
489.636	3.35
489.839	3.37
490.042	3.36
490.245	3.38
490.447	3.48
490.65	3.52
490.853	3.55
491.056	3.58
491.258	3.57
491.461	3.56
491.664	3.61
491.866	3.58
492.069	3.7
492.272	3.67
492.474	3.69
492.677	3.76
492.879	3.81
493.082	3.79
493.285	3.92
493.487	3.91
493.69	3.84
493.892	3.78
494.095	3.78
494.297	3.7
494.5	3.73
494.702	3.76
494.905	3.86
495.107	3.81
495.309	3.84
495.512	3.9
495.714	3.95
495.917	3.95
496.119	3.94
496.321	4.04
496.524	4
496.726	4.01
496.928	4
497.13	4.01
497.333	3.89
497.535	3.92
497.737	3.9
497.939	3.89
498.142	3.99
498.344	4.03
498.546	3.92
498.748	4
498.95	4.13
499.152	4.11
499.355	4.12
499.557	4.26
499.759	4.26
499.961	4.18
500.163	4.2
500.365	4.24
500.567	4.28
500.769	4.2
500.971	4.24
501.173	4.16
501.375	4.24
501.577	4.19
501.779	4.23
501.981	4.2
502.183	4.25
502.385	4.17
502.587	4.15
502.788	4.28
502.99	4.33
503.192	4.42
503.394	4.43
503.596	4.47
503.798	4.51
503.999	4.56
504.201	4.51
504.403	4.62
504.605	4.65
504.806	4.57
505.008	4.54
505.21	4.63
505.411	4.55
505.613	4.56
505.815	4.56
506.016	4.63
506.218	4.68
506.42	4.71
506.621	4.74
506.823	4.83
507.024	4.77
507.226	4.69
507.427	4.72
507.629	4.75
507.83	4.73
508.032	4.73
508.233	4.89
508.435	4.93
508.636	4.98
508.838	4.93
509.039	4.99
509.24	4.97
509.442	4.98
509.643	4.88
509.845	4.97
510.046	5.05
510.247	5.03
510.448	5.08
510.65	5.18
510.851	5.29
511.052	5.28
511.254	5.32
511.455	5.49
511.656	5.54
511.857	5.56
512.058	5.61
512.26	5.59
512.461	5.45
512.662	5.55
512.863	5.46
513.064	5.4
513.265	5.43
513.466	5.53
513.667	5.47
513.868	5.53
514.069	5.66
514.27	5.72
514.471	5.67
514.672	5.67
514.873	5.64
515.074	5.65
515.275	5.54
515.476	5.58
515.677	5.6
515.878	5.78
516.079	5.77
516.28	5.88
516.481	5.95
516.682	5.98
516.882	5.83
517.083	5.8
517.284	5.75
517.485	5.68
517.686	5.72
517.886	5.76
518.087	5.81
518.288	5.87
518.488	5.89
518.689	5.87
518.89	5.85
519.091	5.88
519.291	5.89
519.492	5.95
519.692	5.98
519.893	6.13
520.094	6.14
520.294	6.14
520.495	6.15
520.695	6.19
520.896	6.14
521.096	6.2
521.297	6.24
521.497	6.25
521.698	6.22
521.898	6.23
522.099	6.22
522.299	6.25
522.499	6.28
522.7	6.34
522.9	6.32
523.101	6.39
523.301	6.41
523.501	6.41
523.702	6.39
523.902	6.52
524.102	6.61
524.302	6.6
524.503	6.67
524.703	6.7
524.903	6.72
525.103	6.61
525.304	6.73
525.504	6.81
525.704	6.89
525.904	6.87
526.104	6.87
526.304	6.82
526.504	6.76
526.705	6.75
526.905	6.83
527.105	6.87
527.305	6.88
527.505	6.84
527.705	6.82
527.905	6.82
528.105	6.83
528.305	6.81
528.505	6.89
528.705	6.99
528.905	6.91
529.105	6.94
529.304	7.04
529.504	7.09
529.704	7.01
529.904	7.09
530.104	7.1
530.304	7.18
530.503	7.19
530.703	7.16
530.903	7.15
531.103	7.18
531.303	7.13
531.502	7.16
531.702	7.33
531.902	7.41
532.101	7.38
532.301	7.4
532.501	7.42
532.7	7.37
532.9	7.37
533.1	7.46
533.299	7.52
533.499	7.59
533.698	7.58
533.898	7.55
534.097	7.59
534.297	7.65
534.496	7.61
534.696	7.66
534.895	7.84
535.095	7.93
535.294	7.88
535.494	7.81
535.693	7.88
535.892	7.83
536.092	7.75
536.291	7.77
536.491	7.9
536.69	7.96
536.889	7.9
537.088	7.92
537.288	8
537.487	8.04
537.686	8.04
537.886	8.11
538.085	8.2
538.284	8.3
538.483	8.31
538.682	8.4
538.882	8.47
539.081	8.56
539.28	8.48
539.479	8.49
539.678	8.43
539.877	8.56
540.076	8.51
540.275	8.55
540.474	8.65
540.673	8.73
540.872	8.65
541.071	8.72
541.27	8.76
541.469	8.78
541.668	8.85
541.867	8.92
542.066	8.96
542.265	9.07
542.464	9.05
542.663	9.05
542.862	9.16
543.06	9.26
543.259	9.29
543.458	9.39
543.657	9.52
543.856	9.58
544.054	9.55
544.253	9.59
544.452	9.62
544.651	9.68
544.849	9.63
545.048	9.73
545.247	9.8
545.445	9.91
545.644	9.96
545.843	9.98
546.041	10.06
546.24	10.17
546.438	10.28
546.637	10.37
546.836	10.52
547.034	10.55
547.233	10.59
547.431	10.57
547.63	10.64
547.828	10.69
548.027	10.79
548.225	10.8
548.423	10.84
548.622	10.87
548.82	10.9
549.019	10.94
549.217	11.11
549.415	11.14
549.614	11.23
549.812	11.3
550.01	11.39
550.209	11.44
550.407	11.62
550.605	11.65
550.803	11.82
551.002	11.9
551.2	11.97
551.398	12.05
551.596	12.19
551.794	12.25
551.993	12.28
552.191	12.35
552.389	12.45
552.587	12.53
552.785	12.59
552.983	12.75
553.181	12.92
553.379	13.01
553.577	13.11
553.775	13.21
553.973	13.32
554.171	13.37
554.369	13.38
554.567	13.52
554.765	13.6
554.963	13.74
555.161	13.77
555.359	13.9
555.557	14.01
555.755	14.11
555.952	14.23
556.15	14.36
556.348	14.47
556.546	14.58
556.744	14.63
556.941	14.72
557.139	14.9
557.337	14.98
557.535	14.99
557.732	15.17
557.93	15.26
558.128	15.32
558.325	15.53
558.523	15.6
558.721	15.76
558.918	15.83
559.116	15.92
559.313	15.95
559.511	16.18
559.708	16.21
559.906	16.36
560.104	16.47
560.301	16.64
560.498	16.64
560.696	16.74
560.893	16.86
561.091	16.99
561.288	17.08
561.486	17.19
561.683	17.37
561.88	17.42
562.078	17.53
562.275	17.53
562.473	17.7
562.67	17.86
562.867	17.97
563.064	18.08
563.262	18.22
563.459	18.31
563.656	18.4
563.853	18.48
564.051	18.55
564.248	18.74
564.445	18.77
564.642	18.92
564.839	19.16
565.036	19.39
565.234	19.55
565.431	19.63
565.628	19.58
565.825	19.7
566.022	19.75
566.219	19.75
566.416	19.93
566.613	20.03
566.81	20.02
567.007	20.01
567.204	19.99
567.401	20.09
567.598	20.13
567.795	20.18
567.991	20.21
568.188	20.41
568.385	20.53
568.582	20.7
568.779	20.84
568.976	21
569.172	21.06
569.369	21.05
569.566	21.09
569.763	21.16
569.96	21.12
570.156	21.15
570.353	21.11
570.55	21.13
570.746	21.16
570.943	21.26
571.14	21.29
571.336	21.4
571.533	21.46
571.729	21.4
571.926	21.51
572.123	21.58
572.319	21.64
572.516	21.59
572.712	21.72
572.909	21.65
573.105	21.73
573.302	21.73
573.498	21.9
573.695	21.79
573.891	21.87
574.087	21.84
574.284	21.8
574.48	21.63
574.677	21.7
574.873	21.76
575.069	21.84
575.266	21.99
575.462	22.02
575.658	22.18
575.854	22.16
576.051	22.14
576.247	22.04
576.443	22.1
576.639	21.98
576.835	21.87
577.032	21.72
577.228	21.83
577.424	21.84
577.62	21.78
577.816	21.94
578.012	22.03
578.208	21.98
578.404	21.99
578.6	22.01
578.796	21.91
578.993	21.96
579.189	21.95
579.384	21.86
579.58	21.8
579.776	21.75
579.972	21.72
580.168	21.6
580.364	21.59
580.56	21.58
580.756	21.6
580.952	21.5
581.148	21.63
581.343	21.66
581.539	21.62
581.735	21.67
581.931	21.74
582.127	21.64
582.322	21.57
582.518	21.67
582.714	21.55
582.909	21.44
583.105	21.37
583.301	21.42
583.496	21.35
583.692	21.31
583.888	21.35
584.083	21.46
584.279	21.39
584.474	21.36
584.67	21.34
584.866	21.28
585.061	21.09
585.257	21.13
585.452	21.13
585.648	21.15
585.843	21.14
586.039	21.23
586.234	21.19
586.429	21.14
586.625	21.17
586.82	21.09
587.015	21
587.211	20.89
587.406	20.96
587.601	20.91
587.797	20.98
587.992	20.99
588.187	21.2
588.383	21.14
588.578	21.13
588.773	21.25
588.968	21.33
589.163	21.26
589.359	21.28
589.554	21.29
589.749	21.23
589.944	21.25
590.139	21.23
590.334	21.28
590.529	21.27
590.724	21.27
590.919	21.3
591.114	21.31
591.309	21.38
591.504	21.5
591.699	21.5
591.894	21.61
592.089	21.69
592.284	21.59
592.479	21.71
592.674	21.64
592.869	21.67
593.064	21.71
593.259	21.82
593.454	21.83
593.648	21.95
593.843	21.92
594.038	21.94
594.233	21.88
594.428	21.81
594.622	21.96
594.817	22.11
595.012	22.14
595.206	22.3
595.401	22.38
595.596	22.47
595.79	22.56
595.985	22.67
596.18	22.83
596.374	23.04
596.569	23.06
596.763	23.02
596.958	23.14
597.153	23.2
597.347	23.18
597.542	23.3
597.736	23.4
597.931	23.46
598.125	23.45
598.319	23.58
598.514	23.57
598.708	23.69
598.903	23.62
599.097	23.71
599.291	23.78
599.486	23.86
599.68	23.81
599.874	23.97
600.069	24.03
600.263	23.94
600.457	23.99
600.651	24.04
600.846	24.04
601.04	24.06
601.234	24.22
601.428	24.22
601.622	24.34
601.817	24.3
602.011	24.4
602.205	24.48
602.399	24.53
602.593	24.52
602.787	24.68
602.981	24.57
603.175	24.45
603.369	24.36
603.563	24.41
603.757	24.43
603.951	24.47
604.145	24.51
604.339	24.61
604.533	24.46
604.727	24.35
604.921	24.35
605.115	24.36
605.309	24.43
605.502	24.52
605.696	24.5
605.89	24.48
606.084	24.38
606.278	24.28
606.471	24.13
606.665	24.1
606.859	23.99
607.053	23.95
607.246	23.86
607.44	23.86
607.634	23.76
607.827	23.82
608.021	23.75
608.214	23.75
608.408	23.69
608.602	23.59
608.795	23.41
608.989	23.29
609.182	23.15
609.376	23.17
609.569	23.1
609.763	23.04
609.956	22.96
610.15	22.84
610.343	22.68
610.537	22.64
610.73	22.53
610.923	22.55
611.117	22.5
611.31	22.42
611.504	22.33
611.697	22.34
611.89	22.19
612.083	22.11
612.277	22.08
612.47	22
612.663	21.87
612.856	21.76
613.05	21.67
613.243	21.58
613.436	21.38
613.629	21.27
613.822	21.17
614.015	20.99
614.209	20.82
614.402	20.84
614.595	20.81
614.788	20.76
614.981	20.7
615.174	20.55
615.367	20.43
615.56	20.43
615.753	20.48
615.946	20.49
616.139	20.54
616.332	20.64
616.525	20.44
616.718	20.41
616.911	20.34
617.103	20.24
617.296	20.22
617.489	20.19
617.682	20.05
617.875	20.06
618.067	20.06
618.26	19.78
618.453	19.8
618.646	19.68
618.838	19.55
619.031	19.62
619.224	19.74
619.417	19.7
619.609	19.73
619.802	19.7
619.994	19.49
620.187	19.34
620.38	19.21
620.572	19.12
620.765	19.17
620.957	19.07
621.15	19.07
621.342	19.12
621.535	19.21
621.727	19.11
621.92	19.12
622.112	19.02
622.305	18.98
622.497	18.86
622.69	18.86
622.882	18.88
623.074	18.94
623.267	18.84
623.459	18.81
623.651	18.69
623.844	18.7
624.036	18.73
624.228	18.72
624.42	18.7
624.613	18.77
624.805	18.71
624.997	18.62
625.189	18.55
625.381	18.57
625.574	18.43
625.766	18.26
625.958	18.29
626.15	18.37
626.342	18.33
626.534	18.38
626.726	18.4
626.918	18.3
627.11	18.23
627.302	18.24
627.494	18.22
627.686	18.39
627.878	18.29
628.07	18.23
628.262	18.06
628.454	17.99
628.646	17.9
628.838	18.01
629.029	17.92
629.221	18.01
629.413	17.96
629.605	17.86
629.797	17.73
629.989	17.81
630.18	17.74
630.372	17.76
630.564	17.66
630.755	17.71
630.947	17.71
631.139	17.59
631.33	17.43
631.522	17.54
631.714	17.5
631.905	17.35
632.097	17.3
632.289	17.46
632.48	17.41
632.672	17.36
632.863	17.26
633.055	17.28
633.246	17.17
633.438	17.08
633.629	16.96
633.821	17.02
634.012	17.02
634.203	16.92
634.395	16.93
634.586	16.98
634.777	16.96
634.969	16.95
635.16	17.02
635.351	16.91
635.543	16.97
635.734	17.01
635.925	16.98
636.117	16.92
636.308	16.91
636.499	16.73
636.69	16.59
636.881	16.57
637.073	16.66
637.264	16.63
637.455	16.62
637.646	16.71
637.837	16.72
638.028	16.57
638.219	16.69
638.41	16.63
638.601	16.5
638.792	16.46
638.983	16.43
639.174	16.25
639.365	16.26
639.556	16.21
639.747	16.11
639.938	16.15
640.129	16.13
640.32	16.09
640.511	16.14
640.701	16.29
640.892	16.15
641.083	16.21
641.274	16.24
641.465	16.18
641.655	16.01
641.846	15.98
642.037	15.92
642.228	15.93
642.418	15.95
642.609	15.92
642.8	15.97
642.99	15.84
643.181	15.83
643.372	15.81
643.562	15.78
643.753	15.69
643.943	15.66
644.134	15.53
644.324	15.44
644.515	15.39
644.705	15.37
644.896	15.42
645.086	15.36
645.277	15.29
645.467	15.29
645.658	15.21
645.848	15.21
646.038	15.22
646.229	15.18
646.419	15.12
646.61	15.1
646.8	14.98
646.99	14.95
647.18	14.92
647.371	14.83
647.561	14.78
647.751	14.79
647.941	14.7
648.132	14.76
648.322	14.77
648.512	14.82
648.702	14.84
648.892	14.87
649.082	14.78
649.272	14.68
649.462	14.58
649.653	14.46
649.843	14.37
650.033	14.36
650.223	14.32
650.413	14.29
650.603	14.29
650.793	14.21
650.983	14.15
651.172	14.13
651.362	14.05
651.552	13.95
651.742	13.93
651.932	13.89
652.122	13.89
652.312	14.04
652.502	14.03
652.691	14.05
652.881	13.96
653.071	13.87
653.261	13.54
653.45	13.41
653.64	13.38
653.83	13.34
654.019	13.26
654.209	13.25
654.399	13.23
654.588	13.1
654.778	12.97
654.968	12.83
655.157	12.8
655.347	12.69
655.536	12.53
655.726	12.39
655.915	12.2
656.105	12.04
656.294	11.91
656.484	11.81
656.673	11.71
656.863	11.74
657.052	11.53
657.241	11.32
657.431	11.04
657.62	10.88
657.809	10.51
657.999	10.38
658.188	10.24
658.377	10.17
658.567	10.03
658.756	9.96
658.945	9.81
659.134	9.66
659.324	9.52
659.513	9.38
659.702	9.17
659.891	9.12
660.08	9.03
660.269	8.98
660.458	8.85
660.648	8.82
660.837	8.62
661.026	8.49
661.215	8.27
661.404	8.09
661.593	7.96
661.782	7.77
661.971	7.64
662.16	7.51
662.349	7.46
662.538	7.3
662.726	7.25
662.915	7.11
663.104	7.01
663.293	6.97
663.482	6.97
663.671	6.85
663.86	6.78
664.048	6.69
664.237	6.63
664.426	6.46
664.615	6.38
664.803	6.36
664.992	6.3
665.181	6.15
665.369	6.04
665.558	6.03
665.747	5.97
665.935	6
666.124	5.96
666.312	6.04
666.501	5.97
666.69	5.83
666.878	5.73
667.067	5.63
667.255	5.64
667.444	5.89
667.632	6.02
667.82	6.09
668.009	6.11
668.197	6.03
668.386	5.82
668.574	5.91
668.762	5.83
668.951	5.86
669.139	5.9
669.327	5.82
669.516	5.8
669.704	5.85
669.892	6
670.08	5.99
670.269	5.94
670.457	5.77
670.645	5.6
670.833	5.55
671.021	5.56
671.21	5.78
671.398	6.04
671.586	6.19
671.774	6.14
671.962	6.22
672.15	6.22
672.338	6.02
672.526	6.17
672.714	6.08
672.902	6.1
673.09	6.28
673.278	6.62
673.466	6.58
673.654	6.85
673.842	6.9
674.03	6.87
674.218	6.6
674.405	6.75
674.593	6.75
674.781	6.76
674.969	6.69
675.157	6.95
675.344	7.09
675.532	7.18
675.72	7.42
675.908	7.68
676.095	7.66
676.283	7.57
676.471	7.71
676.658	7.64
676.846	7.58
677.033	7.74
677.221	7.8
677.409	7.71
677.596	7.93
677.784	8.01
677.971	8.03
678.159	8.2
678.346	8.28
678.534	8.27
678.721	8.58
678.909	8.63
679.096	8.71
679.283	8.93
679.471	9.09
679.658	9.06
679.846	9.3
680.033	9.56
680.22	9.61
680.408	9.55
680.595	9.66
680.782	9.61
680.969	9.55
681.157	9.73
681.344	9.96
681.531	10
681.718	10.11
681.905	10.39
682.093	10.46
682.28	10.68
682.467	10.94
682.654	11.1
682.841	11.12
683.028	11.43
683.215	11.54
683.402	11.47
683.589	11.65
683.776	11.91
683.963	11.77
684.15	12.03
684.337	12.29
684.524	12.55
684.711	12.78
684.898	13.15
685.085	13.32
685.271	13.64
685.458	13.91
685.645	14.06
685.832	14.44
686.019	14.79
686.205	15.04
686.392	15.43
686.579	15.79
686.766	16.13
686.952	16.34
687.139	16.95
687.326	17.17
687.512	17.54
687.699	17.9
687.886	18.16
688.072	18.35
688.259	18.87
688.445	19.29
688.632	19.7
688.818	20.52
689.005	20.97
689.191	21.29
689.378	21.93
689.564	22.49
689.751	22.82
689.937	23.24
690.124	23.79
690.31	24.12
690.496	24.72
690.683	25.34
690.869	26.04
691.055	26.65
691.242	27.49
691.428	28.11
691.614	28.8
691.8	29.64
691.987	30.43
692.173	31.08
692.359	31.62
692.545	32.36
692.731	32.88
692.918	33.48
693.104	33.92
693.29	34.66
693.476	35.34
693.662	35.98
693.848	36.5
694.034	37.34
694.22	37.96
694.406	38.69
694.592	39.52
694.778	40.24
694.964	41.02
695.15	41.81
695.336	42.41
695.522	43.32
695.708	44.34
695.894	45.06
696.08	45.9
696.265	46.49
696.451	47.09
696.637	47.95
696.823	48.66
697.009	49.17
697.194	50.16
697.38	50.67
697.566	51.24
697.751	51.89
697.937	52.86
698.123	53.39
698.308	54
698.494	54.74
698.68	55.35
698.865	55.82
699.051	56.63
699.236	57.57
699.422	57.95
699.607	58.3
699.793	59
699.978	59.44
700.164	59.98
700.349	60.83
700.535	61.71
700.72	61.91
700.906	62.62
701.091	63.05
701.276	63.77
701.462	64.66
701.647	65.71
701.832	66.19
702.018	66.56
702.203	66.69
702.388	66.58
702.573	67.11
702.759	67.72
702.944	68.4
703.129	68.75
703.314	69.46
703.499	69.75
703.684	70.15
703.87	71.17
704.055	72.05
704.24	72.46
704.425	72.96
704.61	73.6
704.795	73.72
704.98	74.09
705.165	74.51
705.35	74.87
705.535	75.07
705.72	75.26
705.905	75.72
706.09	76.48
706.275	76.74
706.459	76.75
706.644	77.24
706.829	77.7
707.014	77.84
707.199	78.45
707.384	79.29
707.568	79.52
707.753	79.89
707.938	80.2
708.123	80.29
708.307	80.37
708.492	80.66
708.677	80.62
708.861	80.61
709.046	80.73
709.231	81.61
709.415	81.95
709.6	81.92
709.784	82.03
709.969	82.52
710.153	82.21
710.338	82.51
710.522	83.01
710.707	83.71
710.891	83.77
711.076	84.04
711.26	83.92
711.445	84.59
711.629	84.72
711.813	85.24
711.998	85.38
712.182	85.61
712.366	85.86
712.551	86.65
712.735	87.3
712.919	87.67
713.103	88.09
713.288	87.65
713.472	87.39
713.656	87.53
713.84	87.5
714.024	87.9
714.208	87.97
714.393	88.24
714.577	88.02
714.761	88.48
714.945	88.74
715.129	89.26
715.313	89.62
715.497	89.71
715.681	90.31
715.865	89.68
716.049	89.65
716.233	89.66
716.417	90.34
716.601	89.55
716.785	90.12
716.968	90.58
717.152	90.61
717.336	90.39
717.52	90.88
717.704	91.15
717.888	91.29
718.071	91.55
718.255	91.81
718.439	91.85
718.622	91.77
718.806	92.34
718.99	92.09
719.174	91.79
719.357	91.84
719.541	92.25
719.724	91.68
719.908	92.56
720.092	93.45
720.275	93.7
720.459	93.45
720.642	93.47
720.826	92.89
721.009	92
721.193	91.8
721.376	92.06
721.559	92.87
721.743	93.03
721.926	93.65
722.11	94.25
722.293	93.93
722.476	93.16
722.66	93.84
722.843	93.56
723.026	93.08
723.21	93.24
723.393	94.26
723.576	93.83
723.759	93.57
723.942	93.91
724.126	93.98
724.309	94.12
724.492	94.33
724.675	95.02
724.858	95.79
725.041	96.27
725.224	96.18
725.407	96.37
725.59	97.05
725.774	96.35
725.957	95.72
726.14	95.77
726.322	96.1
726.505	95.17
726.688	95.63
726.871	96.48
727.054	96.06
727.237	95.34
727.42	96.19
727.603	96.55
727.786	96.84
727.968	97.5
728.151	97.63
728.334	97.32
728.517	97.66
728.699	98.21
728.882	97.32
729.065	98.11
729.248	98.42
729.43	97.86
729.613	98.26
729.796	99.71
729.978	99.26
730.161	99.32
730.343	98.99
730.526	99.05
730.708	98.4
730.891	99.19
731.073	98.72
731.256	99.25
731.438	98.36
731.621	99.22
731.803	98.95
731.986	99.15
732.168	98.78
732.35	99.06
732.533	98.55
732.715	98.2
732.898	98.91
733.08	99.33
733.262	99.68
733.444	99.26
733.627	99.83
733.809	100.22
733.991	100.89
734.173	100.04
734.355	100.25
734.538	100.57
734.72	99.96
734.902	99.63
735.084	100.5
735.266	100.71
735.448	101.24
735.63	101.37
735.812	101.39
735.994	102.09
736.176	102.48
736.358	101.85
736.54	101.97
736.722	101.88
736.904	101.32
737.086	100.69
737.268	101.74
737.45	102.1
737.632	102.24
737.814	101.4
737.995	102.07
738.177	100.62
738.359	100.21
738.541	100.86
738.723	102.14
738.904	102.7
739.086	103.97
739.268	103.81
739.449	103.77
739.631	102.62
739.813	102.44
739.994	102.03
740.176	102.79
740.358	102.22
740.539	103.81
740.721	103.77
740.902	104.43
741.084	104.39
741.265	104.83
741.447	104.64
741.628	104.34
741.81	102.63
741.991	103.44
742.172	103.74
742.354	103.67
742.535	103.65
742.717	105.02
742.898	104.64
743.079	104.88
743.261	105.01
743.442	104.64
743.623	105.07
743.804	104.95
743.986	105.44
744.167	103.81
744.348	103.4
744.529	102.81
744.71	101.37
744.891	100.61
745.073	100.15
745.254	100.22
745.435	99.94
745.616	99.96
745.797	99.95
745.978	100.55
746.159	101.6
746.34	100.6
746.521	102.33
746.702	100.81
746.883	101.8
747.064	100.08
747.245	101.74
747.426	100.77
747.606	101.88
747.787	101.49
747.968	102.53
748.149	102.33
748.33	102.46
748.51	102.53
748.691	101.69
748.872	102.19
749.053	101.88
749.233	101.35
749.414	100.87
749.595	101.68
749.775	100.85
749.956	100.17
750.137	100.55
750.317	102
750.498	103.33
750.678	104.42
750.859	105.15
751.04	105.24
751.22	102.67
751.4	101.15
751.581	99.44
751.761	98.67
751.942	98.89
752.122	99.9
752.303	99.23
752.483	100.39
752.663	99.97
752.844	98.45
753.024	98.67
753.204	99.91
753.385	98.91
753.565	99
753.745	100.25
753.925	99.16
754.106	98.16
754.286	97.72
754.466	98.25
754.646	98.72
754.826	99.27
755.006	97.88
755.187	100.23
755.367	100.42
755.547	100.58
755.727	101.54
755.907	103.58
756.087	102.88
756.267	101.8
756.447	100.12
756.627	98.31
756.807	98.32
756.987	97
757.167	98.18
757.346	99.3
757.526	99.7
757.706	100.04
757.886	100.95
758.066	101.17
758.246	102.31
758.425	102.06
758.605	100.83
758.785	99.89
758.965	99.13
759.144	96.25
759.324	97.21
759.504	97.42
759.683	97.75
759.863	96.88
760.043	97.7
760.222	96.83
760.402	96.11
760.581	95.88
760.761	97.25
760.94	96.47
761.12	98.1
761.299	99.54
761.479	99.88
761.658	98.62
761.838	99.61
762.017	98.72
762.197	99.22
762.376	99.1
762.555	100.27
762.735	99.69
762.914	99.38
763.093	98.09
763.273	96.94
763.452	96.33
763.631	96.45
763.81	96.39
763.99	96.36
764.169	96.94
764.348	95.5
764.527	95.22
764.706	96.82
764.885	98.55
765.064	96.67
765.243	97.77
765.423	98.61
765.602	96.32
765.781	92.75
765.96	93.7
766.139	93.34
766.318	94
766.497	93.75
766.676	96.28
766.854	98.81
767.033	98.44
767.212	96.09
767.391	96.39
767.57	96.44
767.749	95.74
767.928	97.68
768.106	97.75
768.285	95.53
768.464	93.82
768.643	91.72
768.821	89.65
769	91.82
769.179	92.97
769.357	91.87
769.536	93.72
769.715	93.44
769.893	93.75
770.072	93.79
770.25	95.18
770.429	93.88
770.607	93.63
770.786	91.47
770.964	92.13
771.143	91.32
771.321	92.76
771.5	94.44
771.678	93.33
771.857	92.03
772.035	93.09
772.213	91.93
772.392	89.58
772.57	91.4
772.748	92.27
772.927	91.83
773.105	91.12
773.283	91.96
773.461	92.64
773.64	94.04
773.818	93.79
773.996	93.92
774.174	93.79
774.352	91.22
774.531	87.64
774.709	89.15
774.887	88.65
775.065	88.83
775.243	90.25
775.421	93.27
775.599	93.66
775.777	93.72
775.955	91.6
776.133	88.32
776.311	86.66
776.489	84.6
776.667	85.24
776.844	86.77
777.022	88.01
777.2	88.48
777.378	87.55
777.556	86.5
777.734	89.08
777.911	91.7
778.089	89.81
778.267	91.75
778.445	91.7
778.622	87.88
778.8	86.53
778.978	90.45
779.155	89.27
779.333	88.94
779.511	90.44
779.688	91.18
779.866	86.19
780.043	83.79
780.221	85.63
780.398	84.79
780.576	87.36
780.753	91.36
780.931	91.45
781.108	90.67
781.286	91.81
781.463	87.9
781.64	84.05
781.818	85.71
781.995	82.37
782.172	81.66
782.35	83.27
782.527	87.13
782.704	84.88
782.882	90.02
783.059	88.66
783.236	88.67
783.413	88.96
783.59	91.95
783.768	87.4
783.945	91.38
784.122	90.78
784.299	89.06
784.476	86.94
784.653	86.66
784.83	80.88
785.007	77.63
785.184	78.29
785.361	77
785.538	81.26
785.715	86.32
785.892	90.28
786.069	90.08
786.246	93.36
786.423	92.53
786.6	92.95
786.776	92.21
786.953	91.19
787.13	92.62
787.307	91.83
787.484	89.32
787.66	84.68
787.837	86.14
788.014	80.74
788.191	80.06
788.367	77.72
788.544	84.62
788.721	82.25
788.897	86.71
789.074	86.55
789.25	86.54
789.427	84.83
789.603	84.71
789.78	84.64
789.956	84.81
790.133	84.13
790.309	82.93
790.486	85.63
790.662	82.79
790.839	84.25
791.015	86.29
791.192	82.67
791.368	82.97
791.544	80.28
791.721	80.02
791.897	81.78
792.073	80.81
792.249	74.49
792.426	78.47
792.602	78.69
792.778	80.1
792.954	84.13
793.13	87.75
793.307	84.67
793.483	79.42
793.659	78.83
793.835	82.57
794.011	77.78
794.187	78.76
794.363	78.53
794.539	78.3
794.715	70.83
794.891	75.5
795.067	73.63
795.243	80.98
795.419	75.12
795.595	75.6
795.771	78.63
795.947	82.12
796.122	76.75
796.298	86.28
796.474	87.17
796.65	85.18
796.826	84.64
797.001	88.11
797.177	79.91
797.353	80.38
797.529	81.03
797.704	79.33
797.88	76.96
798.056	74.12
798.231	73.57
798.407	71.17
798.582	69.1
798.758	73.97
798.934	80.98
799.109	80.71
799.285	76.73
799.46	80.96
799.636	74.57
799.811	70.85
799.986	72.88
800.162	77.35
800.337	77.3
800.513	71.96
800.688	73.63
800.863	80.56
801.039	74.25
801.214	71.08
801.389	81.15
801.565	72.07
801.74	61.75
801.915	71.45
802.09	68.78
802.265	70.73
802.441	76.7
802.616	77.69
802.791	78.11
802.966	78.78
803.141	76.76
803.316	72.91
803.491	79.59
803.666	80.89
803.841	77.56
804.016	76.12
804.191	78.36
804.366	67.61
804.541	59.71
804.716	66.07
804.891	61.25
805.066	61.87
805.241	62.59
805.416	64.53
805.591	61.99
805.765	68.52
805.94	72.47
806.115	72.28
806.29	64.65
806.464	67.83
806.639	57.83
806.814	50.05
806.989	49.02
807.163	61.01
807.338	63.64
807.512	62.07
807.687	57.25
807.862	67.17
808.036	63.6
808.211	61.97
808.385	71.38
808.56	87.76
808.734	93.17
808.909	94.59
809.083	85.93
809.258	101.14
809.432	92.79
809.606	72.75
809.781	73.45
809.955	76.39
810.13	67.35
810.304	59.76
810.478	61.67
810.652	65.03
810.827	72.28
811.001	69.83
811.175	71.01
811.349	72.54
811.524	73.75
811.698	65.05
811.872	58.69
812.046	66.11
812.22	78.16
812.394	72.92
812.568	81.74
812.742	93.72
812.916	90.89
813.09	80.5
813.264	78.4
813.438	76.93
813.612	66.99
813.786	61.15
813.96	69.46
814.134	76.03
814.308	84.97
814.482	98.58
814.656	93.44
814.83	88.26
815.003	84.64
815.177	65.83
815.351	52.04
815.525	55.88
815.698	49.84
815.872	45.62
816.046	44.67
816.219	56.22
816.393	65.01
816.567	74.17
816.74	73.82
816.914	75.88
817.088	72.99
817.261	66.05
817.435	48.83
817.608	56.41
817.782	55.15
817.955	57.81
818.129	63.89
818.302	71.63
818.475	74.66
818.649	84.5
818.822	66.82
818.996	73.7
819.169	75.88
819.342	64.91
819.516	69.58
819.689	82.17
819.862	69.82
820.035	58.9
820.209	59.9
820.382	52.42
820.555	51.11
820.728	43.57
820.901	41.45
821.075	40.24
821.248	49.91
821.421	35.11
821.594	46.17
821.767	77.74
821.94	84.19
822.113	46.94
822.286	49.42
822.459	49.9
822.632	36.75
822.805	29.25
822.978	42.8
823.151	45.36
823.324	36.22
823.496	10.5
823.669	11.32
823.842	11.51
824.015	0.93
824.188	-6.01
824.361	9.02
824.533	-3.04
824.706	19.56
824.879	32.66
825.051	45.86
825.224	44.51
825.397	65.58
825.569	49.18
825.742	56.75
825.915	65.48
826.087	73.64
826.26	55.8
826.432	63.38
826.605	50.38
826.777	38.94
826.95	41.2
827.122	24.87
827.295	26.68
827.467	40.83
827.64	22.51
827.812	0.85
827.984	25.79
828.157	11.88
828.329	-24.11
828.501	4.94
828.674	51.47
828.846	36.75
829.018	55.07
829.19	53.96
829.363	81.28
829.535	81.5
829.707	98.67
829.879	73.03
830.051	72.25
830.223	31.96
830.395	0.43
830.568	-11.99
830.74	-20.67
830.912	19.98
831.084	8.94
831.256	22.16
831.428	6.8
831.6	27.89
831.772	-13.87
831.943	-20.32
832.115	-18.18
832.287	3.92
832.459	4.48
832.631	17.27
832.803	39.26
832.975	59.14
833.146	60.66
833.318	63.46
833.49	86.98
833.662	57.25
833.833	25.98
834.005	26.27
834.177	24.2
834.348	10.47
834.52	8.02
834.692	30.38
834.863	8.85
835.035	13.45
835.206	-33.37
835.378	-0.56
835.549	-11.84
835.721	-7.27
835.892	-11.27
836.064	-0.2
836.235	-0.46
836.407	21.9
836.578	17
836.749	22.62
836.921	17.82
837.092	-11.12
837.264	-41.74
837.435	-43.33
837.606	2.14
837.777	28.45
837.949	42.28
838.12	48.63
838.291	63.6
838.462	44.1
838.633	25.88
838.805	24.66
838.976	47.48
839.147	0.37
839.318	-19.73
839.489	-56.57
839.66	-43.76
839.831	-17.43
840.002	1.56
840.173	17.49
840.344	75.9
840.515	131.86
840.686	45.23
840.857	28.96
841.028	21.69
841.199	-19.95
841.369	-46.06
841.54	-36.52
841.711	-10.26
841.882	15.55
842.053	28.77
842.223	13.22
842.394	17.29
842.565	19.68
842.736	18.01
842.906	13.55
843.077	27.64
843.248	63.5
843.418	59.78
843.589	33.63
843.759	83.21
843.93	90.21
844.101	43.11
844.271	48.68
844.442	58.08
844.612	63.81
844.783	37.87
844.953	2.85
845.123	-9.63
845.294	-34.47
845.464	-225.67
845.635	-96.11
845.805	-22.32
845.975	-2.42
846.146	-41.96
846.316	-39.05
846.486	-7.73
846.656	14.22
846.827	12.27
846.997	21.33
847.167	42.69
847.337	11.83
847.507	4.17
847.677	-1.67
847.848	49.17
848.018	47.91
848.188	58.7
848.358	47.15
848.528	40.42
848.698	-0.74
848.868	-111.31
849.038	-236.97
849.208	-114.53
849.378	-81.64
849.548	-48.99
849.718	-4.87
849.887	11.09
850.057	-11.83
850.227	-67.61
850.397	-87.64
850.567	-188.02
850.737	-404.35
850.906	-990
851.076	-442.97
851.246	-26.7
851.415	70.53
851.585	17.42
851.755	-19.53
851.924	20.88
852.094	-43.17
852.264	-153.98
852.433	-1084.62
852.603	-184.9
852.772	-198.63
852.942	-58.65
853.111	-69.26
853.281	-5.97
853.45	29.13
853.62	-31.34
853.789	-52.6
853.959	-12.6
854.128	-13.77
854.297	-53.92
854.467	-68.18
854.636	-75.96
854.805	-33.15
854.975	-83.82
855.144	-124.11
855.313	23.08
855.482	-243.07
855.652	-124.65
855.821	-43.6
855.99	36.48
856.159	31.17
856.328	55.03
856.497	52.77
856.667	54.88
856.836	57.84
857.005	16.83
857.174	-2.41
857.343	-33.82
857.512	-5.65
857.681	-80.4
857.85	-103.89
858.019	-62.66
858.188	-35.83
858.356	-66.89
858.525	-84.2
858.694	-60.66
858.863	-141.54
859.032	-147.92
859.201	-177.89
859.369	-131.63
859.538	-51.06
859.707	-56.31
859.876	-41.28
860.044	-22.82
860.213	17.84
860.382	-26.48
860.55	-26.67
860.719	-5.51
860.888	-19.11
861.056	-58.59
861.225	-36.85
861.393	13.37
861.562	28.24
861.73	-15.23
861.899	-31.41
862.067	-1624.14
862.236	-49.05
862.404	-213.54
862.572	-83.4
862.741	-10.08
862.909	-0.32
863.078	-110.45
863.246	-57.56
863.414	-59.1
863.582	-45.91
863.751	-56.47
863.919	-23.17
864.087	37.84
864.255	40.89
864.424	-194.82
864.592	8.05
864.76	9.17
864.928	-21.6
865.096	-58.28
865.264	-38.01
865.432	-1684.09
865.6	-234
865.768	-158.12
865.936	-161.43
866.104	-148.33
866.272	-89.06
866.44	-318.9
866.608	549.46
866.776	246.05
866.944	2155.81
867.112	-413.14
867.28	-163.83
867.448	-40.27
867.615	20.14
867.783	20.25
867.951	-3.78
868.119	23.49
868.286	4.17
868.454	-132.18
868.622	-138.19
868.789	-112.78
868.957	-3685.71
869.125	-2313.16
869.292	-168.06
869.46	-206.25
869.627	-7.8
869.795	15.47
869.963	16.59
870.13	35.4
870.298	54.74
870.465	-61.91
870.632	-67.46
870.8	-33.7
870.967	-87.17
871.135	-156.82
871.302	-105.85
871.469	-127.43
871.637	-143.06
871.804	-77.11
871.971	-104.94
872.139	-316.74
872.306	-18.26
872.473	-53.4
872.64	-222.75
872.807	-37.99
872.975	43.45
873.142	-136.36
873.309	713.51
873.476	106.34
873.643	196.25
873.81	147.52
873.977	154.61
874.144	94.42
874.311	-9.88
874.478	-138.31
874.645	-177.51
874.812	-129.13
874.979	-51.37
875.146	-47.1
875.313	-37.6
875.48	53.28
875.647	8.63
875.813	-50.56
875.98	-22.31
876.147	-62.42
876.314	-130.1
876.481	1009.09
876.647	-984.27
876.814	436.79
876.981	126.92
877.147	-6.2
877.314	27.86
877.481	65.95
877.647	76.19
877.814	35.41
877.98	34.49
878.147	69.97
878.314	92.17
878.48	30.93
878.647	45.78
878.813	96.96
878.979	60.43
879.146	0.3
879.312	18.75
879.479	-40.37
879.645	-167.87
879.811	-277.29
879.978	-650.38
880.144	-169.38
880.31	-76.29
880.477	-278.12
880.643	-283.1
880.809	-99.58
880.975	-65.44
881.142	-660
881.308	-36.33
881.474	29.03
881.64	49.51
881.806	-46.64
881.972	33.38
882.138	57.17
882.304	53.6
882.47	-93.9
882.636	-435.25
882.802	-175.8
882.968	-87.11
883.134	-86.45
883.3	-90
883.466	-19.34
883.632	25.64
883.798	13.78
883.964	25.99
884.129	44.42
884.295	108.2
884.461	25.22
884.627	23.59
884.793	5.76
884.958	9.44
885.124	-135.24
885.29	-205.33
885.455	-311.65
885.621	-35.75
885.787	-91.77
885.952	-32.81
886.118	-60.74
886.283	-47.91
886.449	-159.15
886.614	-172.5
886.78	-294.23
886.945	914.75
887.111	-520.23
887.276	-378.41
887.442	-608.18
887.607	-169.81
887.773	-140.45
887.938	-140.99
888.103	-195.98
888.269	-50.6
888.434	-120
888.599	-71.09
888.764	2.34
888.93	29.16
889.095	-6.3
889.26	-67.9
889.425	-18.21
889.59	-9.31
889.756	-45.54
889.921	-21.14
890.086	84.76
890.251	53.3
890.416	-67.96
890.581	-1045.16
890.746	140.36
890.911	500.64
891.076	183.83
891.241	-409.7
891.406	42.3
891.571	7.11
891.736	-132.11
891.901	-440.71
892.065	247.25
892.23	108.36
892.395	184.93
892.56	240.17
892.725	-42.19
892.889	36.59
893.054	-67.19
893.219	13.25
893.384	47.63
893.548	6.46
893.713	-27.02
893.878	14.02
