Data from Ofra_2a_PS_8HS23_Reflection_1.txt Node
Date: Tue Jul 20 09:56:42 EDT 2021
User: Adam
Spectrometer: FLMT01687
Trigger mode: 0
Integration Time (sec): 9.450000E-1
Scans to average: 3
Electric dark correction enabled: true
Nonlinearity correction enabled: false
Boxcar width: 3
XAxis mode: Wavelengths
Number of Pixels in Spectrum: 3648
>>>>>Begin Spectral Data<<<<<
179.494	976.33
179.716	614.26
179.937	564.84
180.158	2060.16
180.38	-727.33
180.601	-121
180.823	-25.07
181.044	18.53
181.265	16.51
181.486	-16.47
181.708	-1271.74
181.929	-136.05
182.15	-842.05
182.372	75.27
182.593	53.94
182.814	277.54
183.035	233.68
183.257	116.38
183.478	75.25
183.699	95.75
183.92	70.42
184.141	72.74
184.363	48.6
184.584	42.83
184.805	44.81
185.026	34.06
185.247	21.02
185.468	32.07
185.689	25.89
185.91	27.22
186.132	43.22
186.353	20.93
186.574	21.4
186.795	13.28
187.016	10.16
187.237	15.64
187.458	12.28
187.679	-7.77
187.9	29.05
188.121	37.04
188.342	42.13
188.563	36.28
188.784	39.55
189.005	41.22
189.226	37.96
189.447	19.57
189.667	16.16
189.888	25.12
190.109	17.28
190.33	2.27
190.551	8.51
190.772	0.06
190.993	12.78
191.214	27.33
191.434	27.75
191.655	36.49
191.876	43.5
192.097	35.9
192.318	41.93
192.538	41.88
192.759	36.59
192.98	27.6
193.201	39.77
193.421	41.25
193.642	47.66
193.863	54.22
194.083	55.56
194.304	46.53
194.525	64.75
194.745	36.07
194.966	32.49
195.187	42.39
195.407	30.53
195.628	27.49
195.848	34.57
196.069	12.69
196.29	25.74
196.51	14.89
196.731	14.71
196.951	16.18
197.172	12.74
197.392	11.8
197.613	9.74
197.833	5.73
198.054	7.22
198.274	-12.79
198.495	-2.25
198.715	-11.11
198.936	-28.99
199.156	-18.8
199.377	-1.26
199.597	-5.83
199.817	-3.31
200.038	-8.14
200.258	-0.81
200.479	22.57
200.699	25.81
200.919	2.38
201.14	12.83
201.36	40.43
201.58	52.38
201.801	46.52
202.021	33.67
202.241	35.7
202.461	51.65
202.682	59.73
202.902	41.63
203.122	30.72
203.342	39.77
203.563	41.04
203.783	46.82
204.003	35.05
204.223	32.02
204.443	32.25
204.663	35.65
204.884	28.83
205.104	31.62
205.324	37.94
205.544	48.14
205.764	41.38
205.984	41.36
206.204	44.17
206.424	41.79
206.644	29.79
206.864	21.27
207.084	36.68
207.304	34.09
207.525	22.67
207.745	27.17
207.964	18.31
208.184	14.79
208.404	12.65
208.624	-25.5
208.844	-27.62
209.064	-5.82
209.284	6.56
209.504	12.27
209.724	6.55
209.944	8.68
210.164	17.93
210.384	33.19
210.604	26.35
210.823	0.35
211.043	-2.55
211.263	16.18
211.483	16.55
211.703	31.5
211.922	27.37
212.142	29.02
212.362	25.31
212.582	19.84
212.801	11.5
213.021	3.76
213.241	-17.83
213.461	-18.34
213.68	-2.49
213.9	5.05
214.12	6.95
214.339	11.68
214.559	21.8
214.779	27.38
214.998	27.66
215.218	18.41
215.438	24.06
215.657	29.11
215.877	26.47
216.096	23.22
216.316	16.28
216.535	21.92
216.755	13.88
216.974	7.75
217.194	3.55
217.413	16.15
217.633	15.68
217.852	20.07
218.072	13.73
218.291	38.83
218.511	24.1
218.73	23.39
218.95	18.09
219.169	13.14
219.389	13.93
219.608	16.59
219.827	-5.13
220.047	9.53
220.266	11.66
220.485	13.96
220.705	12.37
220.924	15.56
221.143	5.67
221.363	10.5
221.582	16.66
221.801	26.74
222.021	25.06
222.24	37.04
222.459	28.29
222.678	36.65
222.897	33.41
223.117	30.81
223.336	27.24
223.555	20.82
223.774	25.81
223.993	42.81
224.213	39.26
224.432	41.5
224.651	31.57
224.87	32.83
225.089	45.36
225.308	39.09
225.527	30.58
225.746	27.3
225.965	16.77
226.184	15.44
226.404	-8.05
226.623	0.72
226.842	0.8
227.061	12.5
227.28	29.54
227.499	40.89
227.718	37.91
227.936	41.17
228.155	33.21
228.374	34.24
228.593	22.09
228.812	15.65
229.031	-0.59
229.25	14
229.469	25.24
229.688	31.62
229.907	28.53
230.125	36.71
230.344	44.1
230.563	60.79
230.782	46.8
231.001	41.93
231.22	33.42
231.438	30.96
231.657	36.49
231.876	33
232.095	17.74
232.313	36.78
232.532	46.03
232.751	50.91
232.969	56.9
233.188	48.02
233.407	49.2
233.625	53.61
233.844	43.6
234.063	31.49
234.281	32.32
234.5	28.07
234.719	30.35
234.937	32.28
235.156	26.95
235.374	25.67
235.593	27.48
235.811	29.71
236.03	29.8
236.249	34.27
236.467	42.42
236.686	54.36
236.904	47.85
237.123	46.09
237.341	45.94
237.559	44.72
237.778	50.77
237.996	37.66
238.215	29.31
238.433	37.48
238.652	28.59
238.87	30
239.088	23.43
239.307	15.91
239.525	9.28
239.743	7.16
239.962	1.96
240.18	26.44
240.398	16.9
240.617	28.05
240.835	26.02
241.053	43.17
241.271	53.08
241.49	49.22
241.708	39.77
241.926	38.58
242.144	44.57
242.363	45.73
242.581	30.93
242.799	19.83
243.017	28.37
243.235	21.18
243.453	33.7
243.672	27.61
243.89	30.83
244.108	46.9
244.326	53.2
244.544	46.3
244.762	54.37
244.98	43.42
245.198	38.41
245.416	37.61
245.634	24.26
245.852	35.54
246.07	33.45
246.288	31.2
246.506	35.88
246.724	58.41
246.942	61.44
247.16	63.93
247.378	44.87
247.596	56.86
247.814	36.29
248.032	35.34
248.25	14.77
248.468	13.83
248.685	8
248.903	-2.9
249.121	-11.87
249.339	-5.09
249.557	9.09
249.775	-2.46
249.992	-5.89
250.21	-5.78
250.428	5
250.646	14.95
250.863	22.5
251.081	7.07
251.299	32.61
251.517	30.8
251.734	27.33
251.952	45.14
252.17	27.7
252.387	15.72
252.605	21.91
252.823	7.42
253.04	18.42
253.258	25.14
253.475	4.44
253.693	22.82
253.911	34.83
254.128	28.16
254.346	28
254.563	20.6
254.781	14.66
254.998	14.75
255.216	7.5
255.433	2.06
255.651	4.3
255.868	15.42
256.086	12.96
256.303	20.45
256.521	15.72
256.738	11.34
256.956	17.05
257.173	20.28
257.39	10.89
257.608	17.99
257.825	13.84
258.043	18.63
258.26	18.28
258.477	20.88
258.695	22.86
258.912	27.29
259.129	19.85
259.346	25.57
259.564	28.86
259.781	31.36
259.998	28.48
260.216	21.03
260.433	21.02
260.65	21.82
260.867	10.73
261.084	24.21
261.302	19.23
261.519	0.61
261.736	-4.32
261.953	-5.41
262.17	3.53
262.387	8.8
262.604	-18.27
262.822	-17.07
263.039	-3.91
263.256	0.49
263.473	-7.26
263.69	-16.35
263.907	-6.21
264.124	5.33
264.341	5.98
264.558	9.59
264.775	14.53
264.992	21.47
265.209	35.15
265.426	32.51
265.643	35.5
265.86	32.98
266.077	25.49
266.294	28.92
266.51	27.46
266.727	14.67
266.944	1.46
267.161	4.29
267.378	-1.15
267.595	2.11
267.812	-10.82
268.028	-6.61
268.245	-4.61
268.462	0.59
268.679	-0.3
268.896	6.29
269.112	24.4
269.329	34.56
269.546	41.05
269.763	56.03
269.979	50.66
270.196	49.19
270.413	51.58
270.629	43.96
270.846	40.07
271.063	36.4
271.279	23.12
271.496	19.16
271.712	14
271.929	14.33
272.146	14.68
272.362	-9.23
272.579	-7.76
272.795	0.64
273.012	4.35
273.228	0.13
273.445	0.86
273.661	-1.39
273.878	17.74
274.094	14.86
274.311	13.48
274.527	21.14
274.744	20.37
274.96	22.37
275.177	36.82
275.393	35.29
275.609	40.87
275.826	38.45
276.042	41.97
276.259	48.87
276.475	41.16
276.691	36.91
276.908	34.72
277.124	28.76
277.34	30.74
277.557	24.03
277.773	21.54
277.989	25.98
278.205	14.93
278.422	20.66
278.638	30.52
278.854	29
279.07	19.68
279.286	16.53
279.503	13.67
279.719	30.3
279.935	13.41
280.151	9.41
280.367	7.39
280.583	15.55
280.799	20.57
281.016	24.32
281.232	11.97
281.448	14.27
281.664	11.85
281.88	18.55
282.096	15.48
282.312	4.86
282.528	-9.41
282.744	-8.24
282.96	8.24
283.176	15.75
283.392	18.66
283.608	28.82
283.824	28.26
284.04	41.49
284.256	40.29
284.471	38.35
284.687	35.59
284.903	25.76
285.119	14.36
285.335	16.3
285.551	14.67
285.767	24.41
285.982	19.05
286.198	2.41
286.414	20.43
286.63	28.57
286.846	29.98
287.061	28.35
287.277	27.26
287.493	31.64
287.709	33.76
287.924	33.52
288.14	39.66
288.356	50.46
288.571	48.76
288.787	54.24
289.003	55.48
289.218	60.09
289.434	50.71
289.65	50.44
289.865	36.64
290.081	33.91
290.296	27.06
290.512	24.74
290.727	31.1
290.943	28.17
291.159	20.7
291.374	31.73
291.59	24.9
291.805	22.21
292.021	21.16
292.236	18.25
292.451	25.74
292.667	24.22
292.882	13.87
293.098	23.81
293.313	16.74
293.529	22.43
293.744	22.37
293.959	24.46
294.175	21.35
294.39	39.02
294.605	37.28
294.821	42.31
295.036	26.94
295.251	25.25
295.467	20.61
295.682	29.57
295.897	21.23
296.112	24.48
296.328	24.74
296.543	31.12
296.758	28.28
296.973	34.56
297.188	26.91
297.404	30.77
297.619	25.76
297.834	29.2
298.049	25.44
298.264	23.51
298.479	15.58
298.694	27.84
298.909	10.75
299.125	11.86
299.34	-3.3
299.555	10.07
299.77	7.39
299.985	8.85
300.2	2.76
300.415	14.1
300.63	6.3
300.845	19.2
301.06	13.81
301.275	20.62
301.49	27.91
301.704	24.02
301.919	17.05
302.134	18.05
302.349	7.12
302.564	-16.17
302.779	-19.24
302.994	-40.4
303.209	-46.35
303.423	-22.37
303.638	-18.57
303.853	-5.44
304.068	25.05
304.283	18.47
304.497	28.64
304.712	35.04
304.927	19.86
305.142	20.67
305.356	30.44
305.571	30.92
305.786	34.83
306	37.12
306.215	35.39
306.43	50.56
306.644	54.75
306.859	38.44
307.074	29.74
307.288	28.3
307.503	25.36
307.717	24.01
307.932	21.36
308.147	18.12
308.361	25.49
308.576	24.19
308.79	27.29
309.005	27.85
309.219	30.66
309.434	30.54
309.648	23.16
309.863	23.96
310.077	20.59
310.292	16.21
310.506	28
310.72	26.81
310.935	25.09
311.149	30.19
311.364	29.89
311.578	32.57
311.792	34.61
312.007	19.15
312.221	14.54
312.435	11
312.649	-26.35
312.864	-28.72
313.078	-11.74
313.292	-5.05
313.507	12.65
313.721	17
313.935	42.32
314.149	52.52
314.363	51.43
314.578	70.8
314.792	59.36
315.006	53.53
315.22	53.17
315.434	35.11
315.648	42.76
315.862	45.22
316.077	31.63
316.291	42.62
316.505	49.47
316.719	34.31
316.933	38.44
317.147	35.95
317.361	39.35
317.575	39.78
317.789	36.3
318.003	34.56
318.217	46.15
318.431	48.88
318.645	52.5
318.859	37.76
319.073	27.56
319.287	25.33
319.5	22.61
319.714	26.1
319.928	26.48
320.142	20.15
320.356	32.64
320.57	26.6
320.784	33.42
320.997	35.98
321.211	30.01
321.425	22.68
321.639	26.78
321.853	19.88
322.066	32.39
322.28	30.64
322.494	32.92
322.707	25.17
322.921	30.38
323.135	31.38
323.349	32.7
323.562	28.55
323.776	23.52
323.989	12.58
324.203	16.71
324.417	7.85
324.63	1.45
324.844	-0.79
325.057	-1.16
325.271	-13.55
325.485	-2.83
325.698	2.57
325.912	17.53
326.125	21.37
326.339	29.69
326.552	35.15
326.766	54.89
326.979	53.77
327.193	52.91
327.406	45.58
327.619	42.17
327.833	23.05
328.046	10.15
328.26	-16.61
328.473	-17.57
328.686	-15.74
328.9	-11.02
329.113	-4.98
329.326	10.38
329.54	16.12
329.753	24.91
329.966	26.89
330.179	31.97
330.393	30.4
330.606	32.43
330.819	33.5
331.032	37.48
331.246	34.14
331.459	40.54
331.672	35.96
331.885	33.1
332.098	35.92
332.311	14.9
332.525	22.09
332.738	22.59
332.951	21.39
333.164	17.5
333.377	8.5
333.59	14.43
333.803	25.33
334.016	15.55
334.229	24.25
334.442	14.3
334.655	24.37
334.868	35.11
335.081	31.56
335.294	33.33
335.507	36.48
335.72	22.41
335.933	31.32
336.146	28.79
336.359	22.39
336.572	13.06
336.785	14.39
336.997	3.72
337.21	15.2
337.423	8.12
337.636	12.4
337.849	15.7
338.062	25.15
338.274	24.93
338.487	30.62
338.7	30.94
338.913	31.45
339.125	28.81
339.338	31.42
339.551	35.45
339.763	35.17
339.976	29.05
340.189	19.22
340.402	21.24
340.614	18.75
340.827	14.89
341.039	6.55
341.252	5.05
341.465	0.24
341.677	1.22
341.89	2.35
342.102	9.25
342.315	21.3
342.527	19.27
342.74	16.77
342.952	17.1
343.165	20.01
343.377	16.86
343.59	15.8
343.802	10.73
344.015	14.91
344.227	14.3
344.44	20.99
344.652	30.98
344.864	31.96
345.077	26.79
345.289	19.36
345.502	22.98
345.714	20.58
345.926	14.02
346.139	4.59
346.351	-16.7
346.563	-1.98
346.775	-7.92
346.988	-17.18
347.2	-10.11
347.412	-2.82
347.624	0.62
347.837	9.17
348.049	6.68
348.261	11.69
348.473	14.19
348.685	23.99
348.897	22.62
349.11	23.7
349.322	31.82
349.534	16.83
349.746	25.09
349.958	31.97
350.17	25.8
350.382	20.01
350.594	15.82
350.806	24.01
351.018	32.96
351.23	26.2
351.442	18.98
351.654	26.29
351.866	33.85
352.078	35.2
352.29	31.33
352.502	32.86
352.714	35.08
352.926	40.23
353.138	31.6
353.35	21.75
353.561	14.67
353.773	8.22
353.985	6.54
354.197	1.14
354.409	6.65
354.621	8.93
354.832	9.9
355.044	20.65
355.256	22.66
355.468	27.06
355.679	35.89
355.891	32.35
356.103	29.61
356.314	34.01
356.526	22.94
356.738	24.58
356.949	21.37
357.161	21.56
357.373	11.01
357.584	23.11
357.796	18.16
358.008	24.1
358.219	27.44
358.431	32.23
358.642	24.9
358.854	26.38
359.065	18.74
359.277	23.97
359.488	18.03
359.7	21.89
359.911	18.23
360.123	21.1
360.334	26.16
360.546	17.71
360.757	15.97
360.969	25.61
361.18	17.87
361.391	20.18
361.603	19.56
361.814	18.11
362.025	22.42
362.237	23.26
362.448	23.03
362.659	19.69
362.871	21.4
363.082	23.76
363.293	26.42
363.504	28.48
363.716	30.49
363.927	28.5
364.138	36.08
364.349	35.41
364.56	32.61
364.772	30.6
364.983	19.74
365.194	17.08
365.405	14.74
365.616	5.51
365.827	1.42
366.038	10.53
366.25	12.94
366.461	26.57
366.672	20.78
366.883	31.57
367.094	29.42
367.305	30.07
367.516	23.44
367.727	18.1
367.938	19.57
368.149	29.01
368.36	21.01
368.571	25.73
368.781	22.81
368.992	23.71
369.203	27.75
369.414	22.68
369.625	18.49
369.836	19.86
370.047	15.49
370.258	14.54
370.468	11.99
370.679	4.93
370.89	21.12
371.101	13.26
371.312	8.04
371.522	7.76
371.733	5.29
371.944	12.12
372.155	6.5
372.365	-9.41
372.576	-3.21
372.787	1.87
372.997	1.52
373.208	6.84
373.419	2.87
373.629	14.04
373.84	8.55
374.05	6.7
374.261	1.35
374.472	4.05
374.682	-2.48
374.893	-10.41
375.103	-9.65
375.314	-2.11
375.524	0.03
375.735	1.73
375.945	-2.63
376.156	4.34
376.366	13.29
376.577	8.57
376.787	10.91
376.997	12.4
377.208	11.21
377.418	19.82
377.629	18.69
377.839	20.87
378.049	29.39
378.26	23.25
378.47	24.89
378.68	25.66
378.89	18.23
379.101	9.49
379.311	-2.86
379.521	-8.58
379.732	-15.93
379.942	-16.89
380.152	-10.55
380.362	-5.94
380.572	0.43
380.783	7.03
380.993	12.41
381.203	22.17
381.413	24.56
381.623	23.51
381.833	24.07
382.043	23.84
382.253	24.53
382.463	23.87
382.674	19.69
382.884	14.39
383.094	12.74
383.304	13.67
383.514	20.03
383.724	18.38
383.934	15.99
384.144	18.97
384.353	22.07
384.563	18.87
384.773	15.75
384.983	10.88
385.193	10.4
385.403	13.85
385.613	9.63
385.823	5.49
386.033	5.7
386.242	7.09
386.452	7.56
386.662	9.04
386.872	6.51
387.082	8.23
387.291	11.91
387.501	12.88
387.711	10.24
387.921	8.23
388.13	7.62
388.34	7.36
388.55	9.25
388.759	8.36
388.969	5.96
389.179	7.64
389.388	8.71
389.598	8.32
389.807	6.67
390.017	4.28
390.227	2
390.436	2.67
390.646	1.76
390.855	2.53
391.065	2.5
391.274	1.47
391.484	2.47
391.693	3.89
391.903	4.34
392.112	4.89
392.322	5.8
392.531	5.18
392.74	4.28
392.95	5.02
393.159	4.36
393.369	4.38
393.578	5.72
393.787	4.38
393.997	5.95
394.206	6.54
394.415	5.97
394.625	5.6
394.834	5.04
395.043	4.59
395.252	4.56
395.462	3.68
395.671	4.18
395.88	4.15
396.089	4.19
396.298	4.28
396.508	3.84
396.717	4.13
396.926	3.72
397.135	3.45
397.344	3.26
397.553	3.7
397.762	3.86
397.971	3.82
398.181	3.39
398.39	3.86
398.599	3.96
398.808	3.97
399.017	4.36
399.226	4.6
399.435	4.5
399.644	4.7
399.853	4.53
400.062	4.42
400.27	4.43
400.479	3.91
400.688	3.79
400.897	4.11
401.106	4.08
401.315	4.06
401.524	4.26
401.733	4.44
401.941	4.4
402.15	4.14
402.359	3.97
402.568	3.94
402.777	3.78
402.985	3.62
403.194	3.6
403.403	3.46
403.612	3.66
403.82	3.67
404.029	3.61
404.238	3.74
404.446	3.69
404.655	3.46
404.864	3.57
405.072	3.47
405.281	3.31
405.489	3.28
405.698	3.15
405.906	3.13
406.115	3.23
406.324	3.22
406.532	3.24
406.741	3.35
406.949	3.38
407.158	3.51
407.366	3.52
407.574	3.58
407.783	3.45
407.991	3.3
408.2	3.22
408.408	3.2
408.617	3.08
408.825	3.1
409.033	2.99
409.242	3.01
409.45	3.08
409.658	3.11
409.867	3.13
410.075	3.15
410.283	3.05
410.491	3.12
410.7	3.22
410.908	3.23
411.116	3.17
411.324	3.19
411.533	3.07
411.741	3.11
411.949	3.05
412.157	3.05
412.365	3.02
412.573	3.09
412.781	3.08
412.99	3.25
413.198	3.3
413.406	3.28
413.614	3.27
413.822	3.26
414.03	3.15
414.238	3.22
414.446	3.09
414.654	3.05
414.862	3.03
415.07	3.03
415.278	2.98
415.486	3.13
415.694	2.99
415.902	3.02
416.109	3.04
416.317	3.03
416.525	3.08
416.733	3.18
416.941	2.98
417.149	3.11
417.357	3.15
417.564	3.09
417.772	3.14
417.98	3.01
418.188	2.82
418.395	2.87
418.603	2.74
418.811	2.72
419.019	2.81
419.226	2.84
419.434	2.81
419.642	2.99
419.849	3.04
420.057	3.03
420.265	2.96
420.472	2.85
420.68	2.75
420.887	2.77
421.095	2.8
421.302	2.86
421.51	2.99
421.717	3.08
421.925	3.02
422.132	3.04
422.34	3.1
422.547	2.99
422.755	2.88
422.962	2.76
423.17	2.76
423.377	2.93
423.585	2.98
423.792	2.87
423.999	2.86
424.207	2.77
424.414	2.82
424.621	2.9
424.829	2.8
425.036	2.72
425.243	2.89
425.451	2.95
425.658	3.1
425.865	2.95
426.072	2.85
426.28	2.86
426.487	2.82
426.694	2.76
426.901	2.68
427.108	2.67
427.315	2.89
427.523	2.91
427.73	2.98
427.937	3.01
428.144	3.01
428.351	3.13
428.558	3.08
428.765	2.94
428.972	2.92
429.179	2.81
429.386	2.86
429.593	2.82
429.8	2.81
430.007	2.86
430.214	2.87
430.421	2.92
430.628	2.82
430.835	2.84
431.042	2.87
431.249	2.85
431.456	2.88
431.662	2.92
431.869	2.95
432.076	3.09
432.283	3.04
432.49	3.01
432.697	3.03
432.903	3.12
433.11	3.17
433.317	3.19
433.524	3.11
433.73	3.2
433.937	3.23
434.144	3.28
434.35	3.2
434.557	3.13
434.764	3.08
434.97	3.15
435.177	3.1
435.384	3.19
435.59	3.2
435.797	3.17
436.003	3.19
436.21	3.15
436.416	3.1
436.623	3.25
436.829	3.25
437.036	3.17
437.242	3.21
437.449	3.28
437.655	3.41
437.862	3.44
438.068	3.44
438.275	3.39
438.481	3.49
438.687	3.53
438.894	3.51
439.1	3.54
439.307	3.55
439.513	3.49
439.719	3.54
439.926	3.59
440.132	3.57
440.338	3.61
440.544	3.58
440.751	3.63
440.957	3.6
441.163	3.58
441.369	3.54
441.575	3.55
441.782	3.51
441.988	3.49
442.194	3.57
442.4	3.67
442.606	3.68
442.812	3.72
443.018	3.74
443.224	3.85
443.431	3.89
443.637	3.79
443.843	3.78
444.049	3.78
444.255	3.71
444.461	3.74
444.667	3.66
444.873	3.62
445.079	3.67
445.284	3.61
445.49	3.59
445.696	3.65
445.902	3.67
446.108	3.7
446.314	3.72
446.52	3.78
446.726	3.86
446.931	3.94
447.137	3.96
447.343	3.95
447.549	3.96
447.755	3.97
447.96	3.89
448.166	3.93
448.372	3.92
448.578	3.95
448.783	3.94
448.989	3.99
449.195	4
449.4	4.03
449.606	3.96
449.812	3.97
450.017	3.93
450.223	3.94
450.428	3.93
450.634	3.95
450.84	3.96
451.045	3.95
451.251	4.01
451.456	4.01
451.662	4.03
451.867	4.02
452.073	4.01
452.278	4.01
452.483	4.05
452.689	3.98
452.894	4
453.1	3.97
453.305	3.98
453.51	4.01
453.716	4.03
453.921	4.03
454.127	4.02
454.332	4.04
454.537	4.12
454.742	4.15
454.948	4.12
455.153	4.17
455.358	4.22
455.563	4.26
455.769	4.25
455.974	4.22
456.179	4.19
456.384	4.21
456.589	4.24
456.795	4.17
457	4.24
457.205	4.25
457.41	4.24
457.615	4.29
457.82	4.38
458.025	4.32
458.23	4.39
458.435	4.3
458.64	4.39
458.845	4.4
459.05	4.4
459.255	4.36
459.46	4.4
459.665	4.43
459.87	4.5
460.075	4.47
460.28	4.53
460.485	4.62
460.69	4.61
460.895	4.65
461.099	4.66
461.304	4.65
461.509	4.63
461.714	4.65
461.919	4.51
462.123	4.61
462.328	4.6
462.533	4.62
462.738	4.65
462.942	4.75
463.147	4.74
463.352	4.85
463.556	4.89
463.761	4.89
463.966	4.95
464.17	4.99
464.375	4.96
464.58	4.97
464.784	4.99
464.989	4.96
465.193	5.01
465.398	4.98
465.602	4.98
465.807	5.03
466.011	5.15
466.216	5.16
466.42	5.21
466.625	5.24
466.829	5.32
467.034	5.39
467.238	5.41
467.443	5.39
467.647	5.4
467.851	5.44
468.056	5.43
468.26	5.38
468.464	5.36
468.669	5.38
468.873	5.39
469.077	5.45
469.282	5.45
469.486	5.55
469.69	5.57
469.894	5.65
470.099	5.71
470.303	5.73
470.507	5.73
470.711	5.7
470.915	5.75
471.119	5.83
471.324	5.82
471.528	5.84
471.732	5.87
471.936	5.91
472.14	5.96
472.344	5.93
472.548	5.9
472.752	5.92
472.956	5.93
473.16	5.91
473.364	5.92
473.568	5.98
473.772	6.1
473.976	6.16
474.18	6.18
474.384	6.17
474.588	6.21
474.792	6.21
474.995	6.2
475.199	6.13
475.403	6.14
475.607	6.18
475.811	6.24
476.015	6.29
476.218	6.32
476.422	6.35
476.626	6.35
476.83	6.36
477.033	6.39
477.237	6.39
477.441	6.38
477.644	6.44
477.848	6.47
478.052	6.51
478.255	6.53
478.459	6.6
478.663	6.64
478.866	6.69
479.07	6.7
479.273	6.75
479.477	6.81
479.681	6.8
479.884	6.71
480.088	6.71
480.291	6.73
480.495	6.71
480.698	6.66
480.901	6.62
481.105	6.63
481.308	6.68
481.512	6.69
481.715	6.71
481.919	6.75
482.122	6.79
482.325	6.86
482.529	6.9
482.732	6.94
482.935	6.96
483.138	6.99
483.342	7.01
483.545	6.99
483.748	6.99
483.952	6.99
484.155	7.02
484.358	6.99
484.561	6.97
484.764	6.96
484.967	6.99
485.171	6.96
485.374	7
485.577	6.99
485.78	7.06
485.983	7.05
486.186	7.08
486.389	7.06
486.592	7.11
486.795	7.1
486.998	7.1
487.201	7.08
487.404	7.13
487.607	7.13
487.81	7.14
488.013	7.15
488.216	7.14
488.419	7.14
488.622	7.09
488.825	7.04
489.028	7.04
489.231	7.01
489.433	6.96
489.636	6.93
489.839	6.93
490.042	6.98
490.245	6.98
490.447	6.97
490.65	7
490.853	7.03
491.056	7.03
491.258	7.04
491.461	7.02
491.664	7
491.866	7.07
492.069	7.06
492.272	7.03
492.474	7.03
492.677	7.07
492.879	7.06
493.082	7.09
493.285	7.05
493.487	7.03
493.69	7.04
493.892	7.09
494.095	7.06
494.297	7.11
494.5	7.13
494.702	7.15
494.905	7.2
495.107	7.21
495.309	7.15
495.512	7.2
495.714	7.21
495.917	7.22
496.119	7.24
496.321	7.25
496.524	7.27
496.726	7.32
496.928	7.31
497.13	7.27
497.333	7.24
497.535	7.2
497.737	7.2
497.939	7.19
498.142	7.17
498.344	7.17
498.546	7.23
498.748	7.23
498.95	7.28
499.152	7.24
499.355	7.27
499.557	7.33
499.759	7.38
499.961	7.38
500.163	7.4
500.365	7.4
500.567	7.42
500.769	7.44
500.971	7.38
501.173	7.35
501.375	7.33
501.577	7.33
501.779	7.38
501.981	7.37
502.183	7.34
502.385	7.39
502.587	7.4
502.788	7.41
502.99	7.39
503.192	7.37
503.394	7.38
503.596	7.4
503.798	7.43
503.999	7.45
504.201	7.47
504.403	7.5
504.605	7.51
504.806	7.55
505.008	7.56
505.21	7.55
505.411	7.57
505.613	7.6
505.815	7.64
506.016	7.72
506.218	7.72
506.42	7.8
506.621	7.81
506.823	7.8
507.024	7.77
507.226	7.74
507.427	7.64
507.629	7.64
507.83	7.56
508.032	7.58
508.233	7.62
508.435	7.63
508.636	7.68
508.838	7.75
509.039	7.78
509.24	7.85
509.442	7.84
509.643	7.83
509.845	7.88
510.046	7.85
510.247	7.9
510.448	7.91
510.65	7.91
510.851	7.96
511.052	7.98
511.254	7.98
511.455	8
511.656	7.96
511.857	7.98
512.058	8.01
512.26	7.97
512.461	7.97
512.662	7.98
512.863	7.98
513.064	7.98
513.265	7.99
513.466	8.01
513.667	8.02
513.868	8.03
514.069	8.09
514.27	8.09
514.471	8.1
514.672	8.1
514.873	8.1
515.074	8.13
515.275	8.11
515.476	8.06
515.677	8.11
515.878	8.17
516.079	8.21
516.28	8.19
516.481	8.23
516.682	8.31
516.882	8.29
517.083	8.28
517.284	8.25
517.485	8.21
517.686	8.22
517.886	8.2
518.087	8.19
518.288	8.2
518.488	8.23
518.689	8.25
518.89	8.29
519.091	8.28
519.291	8.29
519.492	8.26
519.692	8.33
519.893	8.32
520.094	8.3
520.294	8.3
520.495	8.36
520.695	8.39
520.896	8.39
521.096	8.36
521.297	8.4
521.497	8.4
521.698	8.36
521.898	8.35
522.099	8.32
522.299	8.33
522.499	8.34
522.7	8.33
522.9	8.37
523.101	8.4
523.301	8.4
523.501	8.45
523.702	8.45
523.902	8.45
524.102	8.46
524.302	8.47
524.503	8.49
524.703	8.48
524.903	8.47
525.103	8.5
525.304	8.51
525.504	8.51
525.704	8.5
525.904	8.5
526.104	8.54
526.304	8.53
526.504	8.51
526.705	8.5
526.905	8.53
527.105	8.54
527.305	8.52
527.505	8.53
527.705	8.56
527.905	8.55
528.105	8.57
528.305	8.58
528.505	8.59
528.705	8.61
528.905	8.6
529.105	8.6
529.304	8.64
529.504	8.61
529.704	8.6
529.904	8.64
530.104	8.63
530.304	8.64
530.503	8.63
530.703	8.68
530.903	8.73
531.103	8.74
531.303	8.74
531.502	8.77
531.702	8.77
531.902	8.78
532.101	8.74
532.301	8.72
532.501	8.74
532.7	8.72
532.9	8.75
533.1	8.74
533.299	8.76
533.499	8.78
533.698	8.84
533.898	8.87
534.097	8.91
534.297	8.91
534.496	8.92
534.696	8.93
534.895	8.97
535.095	8.96
535.294	8.96
535.494	8.97
535.693	9
535.892	9.03
536.092	9.03
536.291	9.05
536.491	9.06
536.69	9.05
536.889	9.01
537.088	9.01
537.288	9.03
537.487	9.06
537.686	9.07
537.886	9.08
538.085	9.13
538.284	9.17
538.483	9.21
538.682	9.21
538.882	9.23
539.081	9.23
539.28	9.24
539.479	9.24
539.678	9.27
539.877	9.3
540.076	9.31
540.275	9.34
540.474	9.33
540.673	9.4
540.872	9.44
541.071	9.46
541.27	9.47
541.469	9.52
541.668	9.59
541.867	9.64
542.066	9.65
542.265	9.68
542.464	9.72
542.663	9.76
542.862	9.78
543.06	9.75
543.259	9.79
543.458	9.79
543.657	9.83
543.856	9.84
544.054	9.84
544.253	9.88
544.452	9.86
544.651	9.88
544.849	9.91
545.048	9.94
545.247	9.99
545.445	10.02
545.644	10.09
545.843	10.13
546.041	10.16
546.24	10.21
546.438	10.24
546.637	10.28
546.836	10.31
547.034	10.31
547.233	10.38
547.431	10.42
547.63	10.48
547.828	10.5
548.027	10.51
548.225	10.59
548.423	10.63
548.622	10.68
548.82	10.72
549.019	10.72
549.217	10.79
549.415	10.87
549.614	10.86
549.812	10.91
550.01	10.96
550.209	11.02
550.407	11.08
550.605	11.1
550.803	11.14
551.002	11.19
551.2	11.26
551.398	11.31
551.596	11.34
551.794	11.41
551.993	11.44
552.191	11.55
552.389	11.62
552.587	11.64
552.785	11.66
552.983	11.78
553.181	11.82
553.379	11.89
553.577	11.93
553.775	12.01
553.973	12.06
554.171	12.17
554.369	12.16
554.567	12.22
554.765	12.26
554.963	12.3
555.161	12.34
555.359	12.4
555.557	12.46
555.755	12.57
555.952	12.62
556.15	12.72
556.348	12.83
556.546	12.93
556.744	13.02
556.941	13.13
557.139	13.19
557.337	13.28
557.535	13.38
557.732	13.43
557.93	13.48
558.128	13.55
558.325	13.64
558.523	13.7
558.721	13.8
558.918	13.86
559.116	13.89
559.313	13.99
559.511	14.06
559.708	14.12
559.906	14.22
560.104	14.28
560.301	14.33
560.498	14.48
560.696	14.57
560.893	14.67
561.091	14.72
561.288	14.8
561.486	14.92
561.683	14.99
561.88	15.05
562.078	15.14
562.275	15.22
562.473	15.34
562.67	15.39
562.867	15.47
563.064	15.61
563.262	15.73
563.459	15.83
563.656	15.94
563.853	16.07
564.051	16.18
564.248	16.27
564.445	16.36
564.642	16.43
564.839	16.55
565.036	16.67
565.234	16.74
565.431	16.85
565.628	16.96
565.825	17.05
566.022	17.19
566.219	17.23
566.416	17.34
566.613	17.47
566.81	17.54
567.007	17.59
567.204	17.66
567.401	17.77
567.598	17.86
567.795	17.89
567.991	17.96
568.188	18.04
568.385	18.15
568.582	18.25
568.779	18.3
568.976	18.38
569.172	18.5
569.369	18.56
569.566	18.59
569.763	18.67
569.96	18.73
570.156	18.76
570.353	18.82
570.55	18.89
570.746	18.94
570.943	19.1
571.14	19.16
571.336	19.25
571.533	19.31
571.729	19.38
571.926	19.44
572.123	19.48
572.319	19.49
572.516	19.51
572.712	19.56
572.909	19.63
573.105	19.68
573.302	19.69
573.498	19.77
573.695	19.87
573.891	19.91
574.087	19.94
574.284	19.97
574.48	19.99
574.677	20.07
574.873	20.08
575.069	20.16
575.266	20.25
575.462	20.29
575.658	20.37
575.854	20.4
576.051	20.4
576.247	20.44
576.443	20.43
576.639	20.42
576.835	20.48
577.032	20.5
577.228	20.51
577.424	20.58
577.62	20.62
577.816	20.62
578.012	20.62
578.208	20.58
578.404	20.62
578.6	20.71
578.796	20.72
578.993	20.73
579.189	20.73
579.384	20.74
579.58	20.77
579.776	20.76
579.972	20.71
580.168	20.7
580.364	20.72
580.56	20.72
580.756	20.72
580.952	20.71
581.148	20.71
581.343	20.69
581.539	20.67
581.735	20.65
581.931	20.68
582.127	20.72
582.322	20.73
582.518	20.72
582.714	20.71
582.909	20.71
583.105	20.71
583.301	20.69
583.496	20.66
583.692	20.63
583.888	20.59
584.083	20.7
584.279	20.77
584.474	20.77
584.67	20.77
584.866	20.83
585.061	20.87
585.257	20.91
585.452	20.84
585.648	20.79
585.843	20.75
586.039	20.75
586.234	20.74
586.429	20.71
586.625	20.72
586.82	20.71
587.015	20.68
587.211	20.75
587.406	20.81
587.601	20.82
587.797	20.81
587.992	20.82
588.187	20.91
588.383	20.98
588.578	21
588.773	21
588.968	21.03
589.163	21.14
589.359	21.19
589.554	21.19
589.749	21.21
589.944	21.22
590.139	21.25
590.334	21.26
590.529	21.34
590.724	21.36
590.919	21.38
591.114	21.39
591.309	21.44
591.504	21.48
591.699	21.53
591.894	21.48
592.089	21.55
592.284	21.53
592.479	21.59
592.674	21.63
592.869	21.69
593.064	21.77
593.259	21.86
593.454	21.87
593.648	21.96
593.843	22.07
594.038	22.1
594.233	22.17
594.428	22.21
594.622	22.27
594.817	22.37
595.012	22.46
595.206	22.5
595.401	22.61
595.596	22.68
595.79	22.74
595.985	22.81
596.18	22.92
596.374	22.99
596.569	23.09
596.763	23.19
596.958	23.23
597.153	23.32
597.347	23.4
597.542	23.47
597.736	23.6
597.931	23.63
598.125	23.64
598.319	23.7
598.514	23.75
598.708	23.84
598.903	23.92
599.097	23.95
599.291	24.07
599.486	24.12
599.68	24.18
599.874	24.25
600.069	24.27
600.263	24.25
600.457	24.31
600.651	24.32
600.846	24.39
601.04	24.43
601.234	24.51
601.428	24.51
601.622	24.59
601.817	24.67
602.011	24.73
602.205	24.8
602.399	24.83
602.593	24.82
602.787	24.9
602.981	24.89
603.175	24.82
603.369	24.83
603.563	24.82
603.757	24.82
603.951	24.82
604.145	24.78
604.339	24.8
604.533	24.81
604.727	24.81
604.921	24.82
605.115	24.82
605.309	24.86
605.502	24.95
605.696	24.93
605.89	24.92
606.084	24.88
606.278	24.83
606.471	24.77
606.665	24.71
606.859	24.6
607.053	24.57
607.246	24.52
607.44	24.44
607.634	24.38
607.827	24.35
608.021	24.22
608.214	24.18
608.408	24.12
608.602	24.05
608.795	23.99
608.989	23.99
609.182	24
609.376	23.96
609.569	23.89
609.763	23.89
609.956	23.83
610.15	23.82
610.343	23.7
610.537	23.63
610.73	23.6
610.923	23.5
611.117	23.43
611.31	23.39
611.504	23.32
611.697	23.3
611.89	23.21
612.083	23.14
612.277	23.09
612.47	22.96
612.663	22.88
612.856	22.79
613.05	22.71
613.243	22.64
613.436	22.57
613.629	22.57
613.822	22.55
614.015	22.47
614.209	22.46
614.402	22.36
614.595	22.3
614.788	22.22
614.981	22.12
615.174	22.06
615.367	22.01
615.56	21.93
615.753	21.91
615.946	21.95
616.139	21.96
616.332	21.9
616.525	21.88
616.718	21.85
616.911	21.83
617.103	21.84
617.296	21.72
617.489	21.68
617.682	21.72
617.875	21.61
618.067	21.53
618.26	21.44
618.453	21.35
618.646	21.29
618.838	21.2
619.031	21.14
619.224	21.13
619.417	21.13
619.609	21.17
619.802	21.15
619.994	21.13
620.187	21.14
620.38	21.04
620.572	21.06
620.765	21.01
620.957	20.92
621.15	20.88
621.342	20.87
621.535	20.85
621.727	20.86
621.92	20.78
622.112	20.79
622.305	20.77
622.497	20.71
622.69	20.67
622.882	20.64
623.074	20.59
623.267	20.58
623.459	20.54
623.651	20.52
623.844	20.58
624.036	20.6
624.228	20.58
624.42	20.56
624.613	20.59
624.805	20.59
624.997	20.58
625.189	20.59
625.381	20.52
625.574	20.54
625.766	20.57
625.958	20.55
626.15	20.54
626.342	20.54
626.534	20.43
626.726	20.43
626.918	20.39
627.11	20.32
627.302	20.29
627.494	20.29
627.686	20.23
627.878	20.23
628.07	20.19
628.262	20.14
628.454	20.12
628.646	20.08
628.838	19.99
629.029	19.9
629.221	19.9
629.413	19.82
629.605	19.76
629.797	19.75
629.989	19.73
630.18	19.71
630.372	19.74
630.564	19.71
630.755	19.68
630.947	19.64
631.139	19.56
631.33	19.49
631.522	19.47
631.714	19.44
631.905	19.42
632.097	19.39
632.289	19.36
632.48	19.33
632.672	19.34
632.863	19.32
633.055	19.31
633.246	19.28
633.438	19.3
633.629	19.34
633.821	19.38
634.012	19.35
634.203	19.34
634.395	19.32
634.586	19.28
634.777	19.27
634.969	19.24
635.16	19.17
635.351	19.16
635.543	19.12
635.734	19.07
635.925	19.14
636.117	19.18
636.308	19.18
636.499	19.2
636.69	19.25
636.881	19.28
637.073	19.3
637.264	19.23
637.455	19.21
637.646	19.25
637.837	19.21
638.028	19.16
638.219	19.21
638.41	19.18
638.601	19.2
638.792	19.15
638.983	19.1
639.174	19.12
639.365	19.07
639.556	19.03
639.747	19.05
639.938	19.06
640.129	19.11
640.32	19.06
640.511	19.06
640.701	19.05
640.892	18.99
641.083	18.95
641.274	18.92
641.465	18.87
641.655	18.89
641.846	18.86
642.037	18.84
642.228	18.86
642.418	18.81
642.609	18.72
642.8	18.71
642.99	18.69
643.181	18.68
643.372	18.71
643.562	18.66
643.753	18.66
643.943	18.65
644.134	18.66
644.324	18.64
644.515	18.62
644.705	18.63
644.896	18.55
645.086	18.52
645.277	18.62
645.467	18.59
645.658	18.55
645.848	18.52
646.038	18.49
646.229	18.57
646.419	18.6
646.61	18.53
646.8	18.5
646.99	18.46
647.18	18.45
647.371	18.37
647.561	18.23
647.751	18.2
647.941	18.17
648.132	18.2
648.322	18.18
648.512	18.19
648.702	18.16
648.892	18.27
649.082	18.22
649.272	18.14
649.462	18.03
649.653	18.03
649.843	17.93
650.033	17.95
650.223	17.87
650.413	17.91
650.603	17.89
650.793	17.89
650.983	17.89
651.172	17.88
651.362	17.85
651.552	17.82
651.742	17.71
651.932	17.63
652.122	17.56
652.312	17.4
652.502	17.36
652.691	17.29
652.881	17.24
653.071	17.13
653.261	17.1
653.45	17.05
653.64	17.04
653.83	16.93
654.019	16.8
654.209	16.67
654.399	16.63
654.588	16.54
654.778	16.39
654.968	16.32
655.157	16.18
655.347	16.09
655.536	15.91
655.726	15.81
655.915	15.67
656.105	15.56
656.294	15.39
656.484	15.29
656.673	15.16
656.863	15.11
657.052	14.93
657.241	14.79
657.431	14.63
657.62	14.4
657.809	14.23
657.999	14.09
658.188	13.96
658.377	13.89
658.567	13.73
658.756	13.58
658.945	13.47
659.134	13.32
659.324	13.18
659.513	13
659.702	12.78
659.891	12.6
660.08	12.5
660.269	12.37
660.458	12.23
660.648	12.1
660.837	11.98
661.026	11.88
661.215	11.77
661.404	11.62
661.593	11.48
661.782	11.39
661.971	11.24
662.16	11.07
662.349	10.88
662.538	10.84
662.726	10.69
662.915	10.59
663.104	10.43
663.293	10.31
663.482	10.22
663.671	10.15
663.86	10.01
664.048	9.95
664.237	9.89
664.426	9.86
664.615	9.75
664.803	9.68
664.992	9.62
665.181	9.52
665.369	9.4
665.558	9.35
665.747	9.25
665.935	9.25
666.124	9.19
666.312	9.08
666.501	8.98
666.69	8.98
666.878	8.83
667.067	8.83
667.255	8.82
667.444	8.78
667.632	8.7
667.82	8.65
668.009	8.63
668.197	8.65
668.386	8.52
668.574	8.37
668.762	8.36
668.951	8.38
669.139	8.43
669.327	8.42
669.516	8.38
669.704	8.39
669.892	8.41
670.08	8.33
670.269	8.32
670.457	8.24
670.645	8.2
670.833	8.22
671.021	8.19
671.21	8.24
671.398	8.28
671.586	8.31
671.774	8.27
671.962	8.24
672.15	8.21
672.338	8.25
672.526	8.28
672.714	8.27
672.902	8.28
673.09	8.38
673.278	8.45
673.466	8.54
673.654	8.53
673.842	8.54
674.03	8.6
674.218	8.6
674.405	8.67
674.593	8.65
674.781	8.64
674.969	8.73
675.157	8.76
675.344	8.8
675.532	8.83
675.72	8.84
675.908	8.89
676.095	9
676.283	8.99
676.471	9.09
676.658	9.18
676.846	9.29
677.033	9.32
677.221	9.42
677.409	9.45
677.596	9.58
677.784	9.55
677.971	9.6
678.159	9.69
678.346	9.76
678.534	9.8
678.721	9.87
678.909	9.93
679.096	10.08
679.283	10.17
679.471	10.27
679.658	10.41
679.846	10.55
680.033	10.69
680.22	10.76
680.408	10.78
680.595	10.83
680.782	10.87
680.969	10.9
681.157	10.96
681.344	11.12
681.531	11.25
681.718	11.41
681.905	11.53
682.093	11.71
682.28	11.98
682.467	12.18
682.654	12.25
682.841	12.44
683.028	12.66
683.215	12.86
683.402	13.02
683.589	13.14
683.776	13.29
683.963	13.5
684.15	13.63
684.337	13.87
684.524	14.09
684.711	14.3
684.898	14.53
685.085	14.77
685.271	15.03
685.458	15.41
685.645	15.62
685.832	15.96
686.019	16.21
686.205	16.46
686.392	16.78
686.579	17.02
686.766	17.24
686.952	17.56
687.139	17.85
687.326	18.32
687.512	18.74
687.699	19.11
687.886	19.58
688.072	20.01
688.259	20.46
688.445	20.9
688.632	21.34
688.818	21.72
689.005	22.26
689.191	22.82
689.378	23.28
689.564	23.81
689.751	24.44
689.937	24.93
690.124	25.58
690.31	26.13
690.496	26.53
690.683	27.17
690.869	27.77
691.055	28.43
691.242	28.98
691.428	29.57
691.614	30.26
691.8	30.98
691.987	31.67
692.173	32.35
692.359	32.95
692.545	33.69
692.731	34.4
692.918	35.01
693.104	35.68
693.29	36.37
693.476	37.06
693.662	37.74
693.848	38.38
694.034	39
694.22	39.84
694.406	40.52
694.592	41.12
694.778	41.8
694.964	42.31
695.15	43.07
695.336	43.9
695.522	44.4
695.708	45.16
695.894	45.95
696.08	46.54
696.265	47.29
696.451	47.98
696.637	48.46
696.823	49.12
697.009	49.67
697.194	50.29
697.38	50.94
697.566	51.64
697.751	52.35
697.937	53.2
698.123	53.85
698.308	54.55
698.494	55.13
698.68	55.77
698.865	56.47
699.051	56.97
699.236	57.42
699.422	58.06
699.607	58.6
699.793	59.16
699.978	59.64
700.164	60.12
700.349	60.66
700.535	61.15
700.72	61.62
700.906	62.1
701.091	62.69
701.276	63.28
701.462	63.9
701.647	64.35
701.832	64.94
702.018	65.52
702.203	65.98
702.388	66.29
702.573	66.88
702.759	67.14
702.944	67.65
703.129	67.96
703.314	68.32
703.499	68.8
703.684	69.56
703.87	69.9
704.055	70.28
704.24	70.74
704.425	71.27
704.61	71.56
704.795	71.93
704.98	71.99
705.165	72.26
705.35	72.7
705.535	73.03
705.72	73.27
705.905	73.54
706.09	73.77
706.275	74.1
706.459	74.64
706.644	75.1
706.829	75.39
707.014	75.69
707.199	76.06
707.384	76.45
707.568	76.84
707.753	77.06
707.938	76.96
708.123	76.94
708.307	77.32
708.492	77.6
708.677	77.96
708.861	78.17
709.046	78.28
709.231	78.67
709.415	78.96
709.6	79.01
709.784	79.19
709.969	79.39
710.153	79.56
710.338	79.61
710.522	79.79
710.707	79.94
710.891	80.27
711.076	80.31
711.26	80.37
711.445	80.42
711.629	80.74
711.813	80.86
711.998	80.95
712.182	81.02
712.366	81.48
712.551	81.71
712.735	81.93
712.919	82.34
713.103	82.51
713.288	83.12
713.472	83.23
713.656	83.12
713.84	83.22
714.024	83.45
714.208	83.15
714.393	83.48
714.577	83.45
714.761	83.87
714.945	84.13
715.129	84.33
715.313	84.4
715.497	84.92
715.681	85.17
715.865	85.21
716.049	85.22
716.233	85.41
716.417	85.73
716.601	85.94
716.785	85.81
716.968	85.51
717.152	85.55
717.336	85.7
717.52	85.78
717.704	85.69
717.888	85.84
718.071	86.01
718.255	86.21
718.439	86.25
718.622	86.67
718.806	86.45
718.99	86.65
719.174	86.51
719.357	86.78
719.541	87.07
719.724	87.25
719.908	86.87
720.092	87.39
720.275	87.43
720.459	87.66
720.642	87.49
720.826	87.36
721.009	87.49
721.193	87.66
721.376	87.61
721.559	87.7
721.743	87.79
721.926	87.92
722.11	88.15
722.293	88.08
722.476	88.07
722.66	88.29
722.843	88.28
723.026	88.26
723.21	88.23
723.393	88.33
723.576	88.61
723.759	88.73
723.942	88.77
724.126	88.62
724.309	88.78
724.492	89.01
724.675	89.05
724.858	89.43
725.041	89.6
725.224	89.68
725.407	89.83
725.59	89.91
725.774	89.97
725.957	90.07
726.14	89.85
726.322	89.68
726.505	89.85
726.688	90.38
726.871	90.5
727.054	90.61
727.237	90.65
727.42	90.86
727.603	91.11
727.786	91.5
727.968	91.23
728.151	91.36
728.334	91.77
728.517	92.18
728.699	92.7
728.882	93.31
729.065	93.04
729.248	93.57
729.43	93.41
729.613	93.58
729.796	93.49
729.978	93.16
730.161	93.25
730.343	93.69
730.526	93.56
730.708	94.54
730.891	94.35
731.073	94.41
731.256	94.7
731.438	94.68
731.621	94.98
731.803	95.19
731.986	94.93
732.168	94.95
732.35	95.16
732.533	95.45
732.715	95.43
732.898	94.96
733.08	95.5
733.262	95.49
733.444	95.61
733.627	95.77
733.809	95.53
733.991	95.72
734.173	95.84
734.355	95.68
734.538	95.49
734.72	95.87
734.902	95.73
735.084	95.89
735.266	95.95
735.448	96.46
735.63	96.21
735.812	96.83
735.994	96.45
736.176	96.92
736.358	97.39
736.54	97.11
736.722	96.58
736.904	96.69
737.086	96.13
737.268	96.62
737.45	96.5
737.632	95.55
737.814	95.54
737.995	96.16
738.177	96.74
738.359	97.57
738.541	97.13
738.723	97.02
738.904	97.51
739.086	97.94
739.268	98.41
739.449	98.18
739.631	97.88
739.813	98.2
739.994	98.69
740.176	98.71
740.358	98.97
740.539	98.28
740.721	97.93
740.902	97.65
741.084	97.86
741.265	97.56
741.447	97.27
741.628	97.17
741.81	97.48
741.991	98.2
742.172	98.58
742.354	99.05
742.535	98.89
742.717	99.07
742.898	99.45
743.079	99.29
743.261	99.22
743.442	99.13
743.623	98.57
743.804	99.1
743.986	99.15
744.167	98.76
744.348	98.95
744.529	98.4
744.71	97.82
744.891	98.14
745.073	98.41
745.254	99.01
745.435	98.81
745.616	98.79
745.797	98.53
745.978	99.88
746.159	99.78
746.34	99.69
746.521	99.75
746.702	99.67
746.883	99.29
747.064	99.59
747.245	99.89
747.426	100
747.606	99.71
747.787	99.6
747.968	99.75
748.149	100.16
748.33	100.73
748.51	99.41
748.691	99.22
748.872	99.06
749.053	98.37
749.233	98.25
749.414	97.85
749.595	97.06
749.775	97.23
749.956	96.71
750.137	96.16
750.317	96.74
750.498	96.99
750.678	97.54
750.859	98.04
751.04	98.42
751.22	98.42
751.4	98.9
751.581	99.41
751.761	99.92
751.942	99.43
752.122	99.31
752.303	99.11
752.483	100.17
752.663	100.51
752.844	99.53
753.024	99.34
753.204	99.27
753.385	98.86
753.565	98.2
753.745	97.93
753.925	97.16
754.106	97.18
754.286	96.19
754.466	96.25
754.646	96.03
754.826	96.68
755.006	96.28
755.187	97.31
755.367	97.25
755.547	97.77
755.727	97.98
755.907	98.67
756.087	98.47
756.267	98.56
756.447	98.42
756.627	98.39
756.807	99.2
756.987	99.92
757.167	99.95
757.346	99.19
757.526	99.33
757.706	99.03
757.886	99.41
758.066	98.44
758.246	98.01
758.425	98.33
758.605	98.83
758.785	98.78
758.965	97.87
759.144	97.48
759.324	98.37
759.504	98.29
759.683	97.52
759.863	97.49
760.043	97.73
760.222	97.53
760.402	98.24
760.581	97.03
760.761	96.13
760.94	95.84
761.12	95.51
761.299	95.1
761.479	96.04
761.658	95.35
761.838	96.35
762.017	96.66
762.197	97.71
762.376	98.36
762.555	97.93
762.735	97.57
762.914	98.38
763.093	97.25
763.273	97.09
763.452	96.41
763.631	94.86
763.81	95.51
763.99	96.34
764.169	95.4
764.348	97.03
764.527	97.39
764.706	98.02
764.885	99.71
765.064	98.84
765.243	98.05
765.423	99.44
765.602	98.21
765.781	98.57
765.96	97.95
766.139	96.66
766.318	98.75
766.497	99.29
766.676	99.34
766.854	98.23
767.033	98.35
767.212	97.97
767.391	98.49
767.57	97.29
767.749	96.42
767.928	94.5
768.106	95.84
768.285	95.08
768.464	95.61
768.643	96.27
768.821	95.95
769	96.37
769.179	95.62
769.357	95.46
769.536	94.87
769.715	94.43
769.893	94.19
770.072	93.75
770.25	93.54
770.429	94.73
770.607	95.05
770.786	95.05
770.964	94.38
771.143	94.17
771.321	94.06
771.5	93.41
771.678	93.41
771.857	92.72
772.035	93.26
772.213	93.21
772.392	93.56
772.57	94.08
772.748	94.22
772.927	93.53
773.105	92.97
773.283	91.87
773.461	92.33
773.64	91.28
773.818	90.38
773.996	90.74
774.174	91.33
774.352	92
774.531	91.61
774.709	91.95
774.887	92.12
775.065	91.78
775.243	91.51
775.421	91.08
775.599	89.91
775.777	89.86
775.955	89.19
776.133	88.75
776.311	89.2
776.489	89
776.667	89.45
776.844	89.25
777.022	90.08
777.2	90.25
777.378	91.38
777.556	91.71
777.734	92.19
777.911	92.33
778.089	92.45
778.267	92.4
778.445	91.52
778.622	91.16
778.8	91.26
778.978	91.48
779.155	89.17
779.333	88.57
779.511	88.96
779.688	88.65
779.866	87.23
780.043	88.28
780.221	88.51
780.398	91.16
780.576	91.45
780.753	90
780.931	91.82
781.108	92.19
781.286	89.89
781.463	89.83
781.64	89.22
781.818	89.26
781.995	91.23
782.172	91.57
782.35	92.08
782.527	92.93
782.704	92.32
782.882	92.72
783.059	93.01
783.236	92.73
783.413	91.97
783.59	90.99
783.768	90.3
783.945	90.93
784.122	90.31
784.299	91.03
784.476	90.72
784.653	88.24
784.83	88.55
785.007	89.68
785.184	89.5
785.361	90.17
785.538	88.49
785.715	87.38
785.892	89.16
786.069	88.98
786.246	88.1
786.423	88.46
786.6	87.78
786.776	88.35
786.953	88.36
787.13	90.1
787.307	91.14
787.484	91.46
787.66	89.86
787.837	88.8
788.014	89.93
788.191	89.34
788.367	86.8
788.544	84.79
788.721	84.57
788.897	85.96
789.074	87.3
789.25	87.58
789.427	88.71
789.603	91.85
789.78	95.04
789.956	93.84
790.133	92.46
790.309	90.79
790.486	91.35
790.662	91.34
790.839	90.06
791.015	87.72
791.192	87.77
791.368	87.16
791.544	88.2
791.721	86.4
791.897	87.48
792.073	85.17
792.249	89.23
792.426	91
792.602	90.49
792.778	88.55
792.954	89.13
793.13	89.17
793.307	87.88
793.483	83.48
793.659	85.45
793.835	85.98
794.011	86.52
794.187	83.38
794.363	81.49
794.539	83.02
794.715	81.78
794.891	75.77
795.067	76.96
795.243	76.62
795.419	80.44
795.595	81.25
795.771	83.02
795.947	84.76
796.122	87.73
796.298	86.08
796.474	86.45
796.65	84.66
796.826	85.81
797.001	84.99
797.177	85.03
797.353	88.53
797.529	87.21
797.704	88.06
797.88	86.21
798.056	87.43
798.231	86.34
798.407	86.13
798.582	84.3
798.758	90.32
798.934	90.35
799.109	91.59
799.285	90.8
799.46	92.8
799.636	95.87
799.811	96.72
799.986	95.07
800.162	96.82
800.337	95.37
800.513	97.95
800.688	98.36
800.863	95.54
801.039	90.14
801.214	87.49
801.389	82.84
801.565	87.89
801.74	83.81
801.915	81.96
802.09	79.93
802.265	82.17
802.441	83.08
802.616	84.34
802.791	84.11
802.966	84.91
803.141	81.23
803.316	86.23
803.491	86.94
803.666	85.55
803.841	87.38
804.016	85.3
804.191	83.2
804.366	84.9
804.541	79.84
804.716	74.85
804.891	78.03
805.066	77.32
805.241	77.06
805.416	77.69
805.591	83.82
805.765	85.12
805.94	90.59
806.115	84.76
806.29	84.46
806.464	82.74
806.639	80.37
806.814	72.18
806.989	72.03
807.163	68.51
807.338	72.57
807.512	68.03
807.687	67.54
807.862	67.78
808.036	69.45
808.211	72.33
808.385	69.36
808.56	72.72
808.734	74.59
808.909	77.85
809.083	79.94
809.258	84.51
809.432	78.08
809.606	84.32
809.781	79.23
809.955	86.3
810.13	88.81
810.304	88.82
810.478	89.7
810.652	95.42
810.827	93.62
811.001	91.35
811.175	84.94
811.349	80.95
811.524	80.27
811.698	78.01
811.872	79.23
812.046	80.14
812.22	80.68
812.394	83.56
812.568	87.04
812.742	86.86
812.916	87.36
813.09	81.88
813.264	76.53
813.438	84.85
813.612	80.41
813.786	82.64
813.96	83.87
814.134	83.75
814.308	79.67
814.482	80.99
814.656	80.14
814.83	84.55
815.003	80.69
815.177	81.25
815.351	80.43
815.525	80.77
815.698	77.18
815.872	69.01
816.046	64.69
816.219	66.21
816.393	63.11
816.567	61.19
816.74	68.54
816.914	79.21
817.088	79.38
817.261	80.21
817.435	74.66
817.608	74.59
817.782	79.16
817.955	74.96
818.129	71.21
818.302	75.09
818.475	78.65
818.649	79.36
818.822	86.75
818.996	84.62
819.169	81.09
819.342	76.59
819.516	78.4
819.689	75.97
819.862	73.24
820.035	67.87
820.209	67.41
820.382	67.31
820.555	69.76
820.728	61.17
820.901	60.88
821.075	67.36
821.248	62.97
821.421	56.12
821.594	61.49
821.767	60.22
821.94	63.14
822.113	65.15
822.286	61.63
822.459	71.58
822.632	81.52
822.805	74.45
822.978	75.16
823.151	76.15
823.324	71.1
823.496	62.3
823.669	61.21
823.842	60.76
824.015	63.03
824.188	63.86
824.361	62.46
824.533	68.26
824.706	86.38
824.879	83.86
825.051	82.48
825.224	79.99
825.397	76.16
825.569	82.4
825.742	82.86
825.915	76.87
826.087	69.89
826.26	68.38
826.432	80.81
826.605	76.14
826.777	69.89
826.95	61.22
827.122	61.19
827.295	68.47
827.467	56.86
827.64	44.57
827.812	38.62
827.984	38.75
828.157	44.04
828.329	43.08
828.501	40.31
828.674	46.84
828.846	48.51
829.018	48.83
829.19	50.71
829.363	54.52
829.535	55.15
829.707	51.22
829.879	51.83
830.051	56.88
830.223	57.42
830.395	49.81
830.568	51.91
830.74	50.24
830.912	52.6
831.084	51.19
831.256	40.53
831.428	46.6
831.6	51.08
831.772	45.91
831.943	48.04
832.115	52.17
832.287	59.06
832.459	72.58
832.631	73.27
832.803	88.57
832.975	92.05
833.146	85.32
833.318	78.42
833.49	81.61
833.662	79.59
833.833	81.82
834.005	71.48
834.177	73.67
834.348	70.35
834.52	80.17
834.692	76.43
834.863	77.21
835.035	71.7
835.206	73.49
835.378	66
835.549	70.52
835.721	62.89
835.892	62.33
836.064	65.83
836.235	71.39
836.407	66.04
836.578	76.7
836.749	82.92
836.921	90.59
837.092	101
837.264	91.39
837.435	83.84
837.606	86.33
837.777	75.5
837.949	61.41
838.12	54.14
838.291	49.86
838.462	44.91
838.633	43.61
838.805	42.31
838.976	41.06
839.147	45.8
839.318	32.55
839.489	24.56
839.66	38.48
839.831	32.49
840.002	29.91
840.173	28.86
840.344	32.2
840.515	49.97
840.686	54.12
840.857	51.95
841.028	65.5
841.199	72.07
841.369	63.17
841.54	63.47
841.711	67.99
841.882	59.99
842.053	61.01
842.223	61.68
842.394	64.29
842.565	81.38
842.736	72.99
842.906	67.28
843.077	77.62
843.248	77.75
843.418	68.21
843.589	67.62
843.759	68.58
843.93	83.92
844.101	79.53
844.271	79.74
844.442	78.84
844.612	73.46
844.783	40.6
844.953	36.26
845.123	30.54
845.294	27.49
845.464	36.34
845.635	25.35
845.805	41.55
845.975	59.3
846.146	50.38
846.316	70.61
846.486	83.38
846.656	93.98
846.827	88.31
846.997	91.59
847.167	88.27
847.337	89.88
847.507	77.28
847.677	72.55
847.848	76.1
848.018	79.57
848.188	66.71
848.358	77.21
848.528	75.32
848.698	55.42
848.868	46.66
849.038	21.59
849.208	35.98
849.378	45.55
849.548	55.66
849.718	72.47
849.887	88.31
850.057	87.79
850.227	87.44
850.397	72.86
850.567	72.55
850.737	55.44
850.906	35.8
851.076	27.55
851.246	31.89
851.415	39.32
851.585	43.68
851.755	51.08
851.924	52.8
852.094	56.94
852.264	49.37
852.433	52.49
852.603	63.65
852.772	53.55
852.942	42.21
853.111	54.31
853.281	54.47
853.45	63.38
853.62	60.56
853.789	42.61
853.959	55
854.128	53.35
854.297	36.79
854.467	37.09
854.636	52.13
854.805	46.91
854.975	63.85
855.144	62.81
855.313	68.64
855.482	66.45
855.652	63.51
855.821	49.96
855.99	57.75
856.159	33.65
856.328	26.48
856.497	33.44
856.667	43.01
856.836	38.53
857.005	31.84
857.174	44.03
857.343	41.81
857.512	34.62
857.681	31.95
857.85	13.08
858.019	27.21
858.188	43
858.356	2.65
858.525	10.42
858.694	31.29
858.863	35.8
859.032	45.81
859.201	28.55
859.369	41.04
859.538	46.22
859.707	63.62
859.876	70.06
860.044	85.65
860.213	80.96
860.382	84.08
860.55	107.63
860.719	109.06
860.888	97.76
861.056	82.71
861.225	66.79
861.393	75.2
861.562	53.86
861.73	10.19
861.899	-16.9
862.067	-7.72
862.236	0.49
862.404	7.75
862.572	14.24
862.741	30.58
862.909	36.87
863.078	45.99
863.246	48.34
863.414	60.37
863.582	47.52
863.751	24.48
863.919	39.75
864.087	34.9
864.255	43.97
864.424	55.06
864.592	40.66
864.76	69.31
864.928	75.18
865.096	61.49
865.264	68.88
865.432	65.21
865.6	51.5
865.768	50.08
865.936	25.01
866.104	33.25
866.272	32.09
866.44	-10.79
866.608	-3.63
866.776	18.56
866.944	26.23
867.112	-0.33
867.28	-31.02
867.448	0.99
867.615	42.04
867.783	25.66
867.951	29.76
868.119	49.17
868.286	56.53
868.454	54.82
868.622	46.84
868.789	52.93
868.957	65.76
869.125	60.93
869.292	63.04
869.46	71.7
869.627	60.87
869.795	46.3
869.963	28.01
870.13	44.29
870.298	30.04
870.465	-6.98
870.632	-19.24
870.8	-3.71
870.967	5.68
871.135	12.49
871.302	3.21
871.469	14.68
871.637	26.84
871.804	24.41
871.971	38.69
872.139	55.1
872.306	47.69
872.473	36.79
872.64	28.19
872.807	31.31
872.975	81.21
873.142	36.07
873.309	53.19
873.476	157.75
873.643	225.82
873.81	267.05
873.977	179.89
874.144	121.65
874.311	142.31
874.478	32.57
874.645	19.29
874.812	24.25
874.979	-0.39
875.146	-44.44
875.313	-15.25
875.48	67.52
875.647	67.7
875.813	50.3
875.98	23.55
876.147	66.45
876.314	57.78
876.481	41.21
876.647	23.27
876.814	42.22
876.981	34.74
877.147	31.53
877.314	13.06
877.481	46.06
877.647	55.15
877.814	51.51
877.98	67.62
878.147	68.22
878.314	53.59
878.48	52.88
878.647	68.88
878.813	68.13
878.979	73.58
879.146	34.56
879.312	54.35
879.479	69.45
879.645	42.8
879.811	26.49
879.978	4.26
880.144	8.28
880.31	2.44
880.477	-35.08
880.643	-169.22
880.809	-0.23
880.975	-72.23
881.142	2.71
881.308	-26.08
881.474	34
881.64	-1.66
881.806	37.16
881.972	31.9
882.138	45.03
882.304	-69.51
882.47	-24.95
882.636	-70.63
882.802	-102.33
882.968	-271.41
883.134	-489.11
883.3	-206.4
883.466	-63.07
883.632	-46.07
883.798	-52.03
883.964	-17.4
884.129	-6.14
884.295	-3.71
884.461	-27.53
884.627	-52.04
884.793	-23.33
884.958	-7.03
885.124	-69.95
885.29	-33.8
885.455	-6.66
885.621	-3.3
885.787	-3.09
885.952	-18.41
886.118	-0.66
886.283	25.01
886.449	17.71
886.614	18.53
886.78	25.85
886.945	18.97
887.111	35.89
887.276	21.52
887.442	38.67
887.607	19.81
887.773	4.71
887.938	-3.7
888.103	36.15
888.269	14.35
888.434	0.49
888.599	0.26
888.764	28.58
888.93	30.84
889.095	4.59
889.26	7.37
889.425	44.73
889.59	44.03
889.756	25.39
889.921	34.17
890.086	53.88
890.251	57.17
890.416	-13.04
890.581	-24.02
890.746	-18.83
890.911	-28.95
891.076	-75.32
891.241	-113.09
891.406	-7.31
891.571	27.17
891.736	7.65
891.901	17.47
892.065	7.99
892.23	-19.82
892.395	-29.05
892.56	-36.54
892.725	-58.48
892.889	-79.03
893.054	-136.7
893.219	-150.22
893.384	-163.5
893.548	-361.67
893.713	738.12
893.878	265.76
