Data from Ofra_PS_T2_1A_8HS21_Reflection_2.txt Node
Date: Wed Jul 21 18:14:56 EDT 2021
User: Adam
Spectrometer: FLMT01687
Trigger mode: 0
Integration Time (sec): 1.100000E0
Scans to average: 2
Electric dark correction enabled: true
Nonlinearity correction enabled: false
Boxcar width: 2
XAxis mode: Wavelengths
Number of Pixels in Spectrum: 3648
>>>>>Begin Spectral Data<<<<<
179.494	489.8
179.716	540.94
179.937	516.78
180.158	473.56
180.38	520.16
180.601	90.19
180.823	20.27
181.044	-197.04
181.265	14.15
181.486	104.89
181.708	91.74
181.929	633.16
182.15	-428.52
182.372	58.36
182.593	-40.16
182.814	-43.59
183.035	-13.26
183.257	-1.92
183.478	-46.22
183.699	0.82
183.92	-30.22
184.141	-8.31
184.363	-42.26
184.584	-22.03
184.805	-6.29
185.026	49.52
185.247	34.87
185.468	9.81
185.689	5.5
185.91	13.31
186.132	5.4
186.353	2.66
186.574	50.6
186.795	37.39
187.016	-16.71
187.237	-33.76
187.458	-62.45
187.679	-52.34
187.9	-18.36
188.121	-10.68
188.342	-10.71
188.563	14.58
188.784	-13.67
189.005	-25.09
189.226	2.37
189.447	-20.33
189.667	-264.2
189.888	-407.02
190.109	-1256.17
190.33	-703.39
190.551	-1219.69
190.772	-230.57
190.993	-159.96
191.214	-139.14
191.434	-96.68
191.655	-4.2
191.876	-41.25
192.097	-95.15
192.318	-150.26
192.538	-259.02
192.759	-177.89
192.98	-95.52
193.201	-32.16
193.421	0.38
193.642	22.98
193.863	24.94
194.083	10.65
194.304	9.83
194.525	-9.03
194.745	-29.06
194.966	-53.63
195.187	-37.96
195.407	-80.68
195.628	-130.02
195.848	-148.85
196.069	-123.33
196.29	-115.99
196.51	-110.26
196.731	-88.8
196.951	-89.31
197.172	-106.88
197.392	-107.22
197.613	-104.44
197.833	-141.35
198.054	-106.16
198.274	-74.56
198.495	-107.99
198.715	-75.21
198.936	-83.66
199.156	-69.51
199.377	-160.59
199.597	-130.46
199.817	-160.67
200.038	-86.81
200.258	-161.89
200.479	-84.22
200.699	-69.13
200.919	4.09
201.14	-33.75
201.36	-33.29
201.58	9.49
201.801	25.94
202.021	5.05
202.241	3.93
202.461	3.78
202.682	-87.49
202.902	-127.03
203.122	-64.46
203.342	-44.31
203.563	-10.3
203.783	15.53
204.003	-47.3
204.223	-68.26
204.443	0.14
204.663	-30.46
204.884	-7.6
205.104	44.15
205.324	41.55
205.544	6.2
205.764	21.65
205.984	15.96
206.204	21.38
206.424	22.59
206.644	-17.51
206.864	-1.96
207.084	-55.38
207.304	-59.31
207.525	-205.7
207.745	-70.03
207.964	-30.19
208.184	-68.43
208.404	-99.64
208.624	-92.06
208.844	-80.79
209.064	-352.82
209.284	-361.72
209.504	-161.77
209.724	-50.84
209.944	-55.78
210.164	-18.83
210.384	0.88
210.604	-6.34
210.823	-48.72
211.043	-38.62
211.263	-18.5
211.483	-3.46
211.703	-39.37
211.922	-8.09
212.142	15.5
212.362	4.7
212.582	-32.54
212.801	-39.31
213.021	-57.82
213.241	-59.63
213.461	-86.24
213.68	-94.8
213.9	-59.46
214.12	-51.05
214.339	-127.99
214.559	-99.38
214.779	-55.02
214.998	-58.88
215.218	-99.03
215.438	-57.55
215.657	-63.61
215.877	-40.1
216.096	-30.07
216.316	-15.44
216.535	-17.68
216.755	-14.65
216.974	-111.65
217.194	-135.51
217.413	-126.58
217.633	-109.26
217.852	-208.69
218.072	-80.26
218.291	-35.8
218.511	19.39
218.73	-12.41
218.95	2.8
219.169	-9.64
219.389	-44.31
219.608	-50.34
219.827	-31.98
220.047	-20.85
220.266	-5.13
220.485	-1.46
220.705	9.98
220.924	-14.6
221.143	8.02
221.363	-20.45
221.582	-11.98
221.801	-30.8
222.021	-5.1
222.24	-81.04
222.459	14.24
222.678	10.89
222.897	-27.73
223.117	-84.54
223.336	-41.97
223.555	-58.64
223.774	-25.45
223.993	-6.52
224.213	50.57
224.432	15.95
224.651	52.36
224.87	15.7
225.089	23.83
225.308	5.36
225.527	14.66
225.746	-2.48
225.965	-6.32
226.184	-23.65
226.404	-3.63
226.623	-24.76
226.842	-25.76
227.061	-3.79
227.28	7.78
227.499	-7.53
227.718	13.66
227.936	0.1
228.155	0.12
228.374	-23.91
228.593	-5.15
228.812	-10.56
229.031	-10.11
229.25	-48.44
229.469	-53.53
229.688	-60.55
229.907	-39.85
230.125	-21.54
230.344	-8.08
230.563	-2.41
230.782	-0.44
231.001	-62.57
231.22	-58.88
231.438	-29.89
231.657	-13.62
231.876	-13.8
232.095	32.38
232.313	39.08
232.532	8.29
232.751	-33.6
232.969	-56.13
233.188	-167.49
233.407	-98.87
233.625	-40.17
233.844	-33.12
234.063	5.14
234.281	35.02
234.5	40.06
234.719	44.56
234.937	39.5
235.156	37.56
235.374	20.01
235.593	-19.98
235.811	-40.13
236.03	-34.22
236.249	-93.14
236.467	-77.59
236.686	-17.22
236.904	-2.86
237.123	-24.8
237.341	-3.58
237.559	-3.8
237.778	-17.08
237.996	-39.34
238.215	8.9
238.433	-0.23
238.652	-5.73
238.87	-27.58
239.088	-19.11
239.307	-23.93
239.525	-36.61
239.743	-36.34
239.962	-12.78
240.18	-28.35
240.398	-69.75
240.617	-74.91
240.835	-88.84
241.053	-81.05
241.271	-29.37
241.49	-4.44
241.708	-29.35
241.926	-47.91
242.144	-13.39
242.363	-86.16
242.581	-130.64
242.799	-91.01
243.017	-47.21
243.235	-61.27
243.453	-37.56
243.672	-36.3
243.89	-28.13
244.108	-33.81
244.326	-14.75
244.544	-15.58
244.762	-4.99
244.98	2.9
245.198	14.24
245.416	-21.01
245.634	-11.76
245.852	-24.82
246.07	-36.17
246.288	-48.49
246.506	-51.12
246.724	-39.35
246.942	-3.1
247.16	27.74
247.378	34.15
247.596	43.28
247.814	31.87
248.032	2.15
248.25	5.99
248.468	6.29
248.685	13.7
248.903	34.8
249.121	42.77
249.339	3.74
249.557	-10.85
249.775	-14.68
249.992	-72.93
250.21	-68.62
250.428	-41.93
250.646	-51.46
250.863	-66.1
251.081	-31.32
251.299	-36.17
251.517	-41.17
251.734	-36.28
251.952	-13.96
252.17	-8.24
252.387	3.33
252.605	3.09
252.823	16.83
253.04	16.86
253.258	27.76
253.475	21.26
253.693	55.22
253.911	44
254.128	56.94
254.346	51.1
254.563	21.96
254.781	-28.23
254.998	-50.02
255.216	-58.54
255.433	-41.13
255.651	3.24
255.868	24.55
256.086	35.42
256.303	11.87
256.521	9.38
256.738	-17.08
256.956	-44.45
257.173	-59.38
257.39	-68.24
257.608	-89.85
257.825	16.05
258.043	64.46
258.26	66.76
258.477	99.23
258.695	90.04
258.912	14.66
259.129	14.09
259.346	-12.79
259.564	-54.05
259.781	-72.24
259.998	-11.36
260.216	10.92
260.433	43.86
260.65	47.94
260.867	65.75
261.084	18.61
261.302	1.25
261.519	-8.85
261.736	-31.33
261.953	-57.68
262.17	-8.1
262.387	-34.27
262.604	-82.09
262.822	-82.27
263.039	-49.89
263.256	-93.63
263.473	-71.97
263.69	-30.21
263.907	16.77
264.124	15.92
264.341	22.18
264.558	15.32
264.775	25.64
264.992	-11.27
265.209	-13.93
265.426	-1.84
265.643	-4.7
265.86	-8.26
266.077	9.29
266.294	-0.1
266.51	-13.92
266.727	-6.39
266.944	4.19
267.161	3.84
267.378	7.55
267.595	17.56
267.812	-9.15
268.028	-45.3
268.245	-52.87
268.462	-54.54
268.679	-66.8
268.896	-13.38
269.112	3.32
269.329	-3.47
269.546	-4.25
269.763	-4.43
269.979	-21.37
270.196	-29.9
270.413	-57.21
270.629	-69.76
270.846	-95.85
271.063	-96.26
271.279	-111.66
271.496	-88.83
271.712	-44.61
271.929	-7.46
272.146	-22.74
272.362	-15.39
272.579	27.35
272.795	24.08
273.012	16.37
273.228	26.17
273.445	4.61
273.661	-33.58
273.878	-73.66
274.094	-60.57
274.311	-108
274.527	-28.81
274.744	-38.32
274.96	-35.89
275.177	-22.85
275.393	7.75
275.609	1.04
275.826	32.81
276.042	34.37
276.259	28.56
276.475	46.44
276.691	32.28
276.908	1.19
277.124	5.72
277.34	-1.69
277.557	-24.86
277.773	-17.45
277.989	-10.87
278.205	-13.4
278.422	-9.77
278.638	-4.13
278.854	-1.44
279.07	-2.23
279.286	-1.44
279.503	-14.2
279.719	-18.75
279.935	-28.27
280.151	-49.04
280.367	-40.28
280.583	-49.9
280.799	-49.46
281.016	-84.52
281.232	-37.74
281.448	-27.67
281.664	-10.39
281.88	-38.82
282.096	0.94
282.312	15.72
282.528	31.45
282.744	42.2
282.96	40.48
283.176	22.22
283.392	15.69
283.608	-9.22
283.824	-6.98
284.04	-0.21
284.256	16.75
284.471	10.05
284.687	28.26
284.903	28.54
285.119	41.85
285.335	10.48
285.551	10.92
285.767	-19.89
285.982	-26.62
286.198	-60.49
286.414	-3.72
286.63	-4.23
286.846	26.8
287.061	14.92
287.277	43.09
287.493	15.68
287.709	35.6
287.924	4.11
288.14	39.23
288.356	25.69
288.571	52.28
288.787	32.65
289.003	40.07
289.218	15.48
289.434	-20.7
289.65	-31.92
289.865	-51.24
290.081	-43.61
290.296	-44.54
290.512	-22.82
290.727	-48.26
290.943	-33.6
291.159	-33.7
291.374	-31.59
291.59	-36.18
291.805	-16.69
292.021	-6.06
292.236	-5.23
292.451	15.65
292.667	15.81
292.882	20.17
293.098	-1.02
293.313	-22.39
293.529	-63.78
293.744	-73.39
293.959	-76.35
294.175	-59.3
294.39	-11.57
294.605	10.16
294.821	29.85
295.036	36.6
295.251	31.77
295.467	-1.69
295.682	-15.11
295.897	-75.66
296.112	-74.82
296.328	-48.56
296.543	-65.87
296.758	-69.47
296.973	-12.39
297.188	15.39
297.404	-20.08
297.619	-24.61
297.834	-26.08
298.049	-50.23
298.264	-64.4
298.479	-14.05
298.694	-6.15
298.909	7.89
299.125	10.93
299.34	-2.56
299.555	-26.18
299.77	-10.73
299.985	-49.12
300.2	-88.68
300.415	-92.3
300.63	-58.53
300.845	-62.4
301.06	-58.48
301.275	-26.3
301.49	-14.36
301.704	-14.99
301.919	-35.6
302.134	-54.78
302.349	-61.46
302.564	-135.19
302.779	-159.32
302.994	-140.79
303.209	-50.03
303.423	-10.5
303.638	49.84
303.853	-1.43
304.068	-10.82
304.283	-6.02
304.497	-0.21
304.712	-6.35
304.927	0.96
305.142	-2.4
305.356	-1.3
305.571	-17.55
305.786	-30.65
306	-54.57
306.215	-51.35
306.43	-75.57
306.644	-87.49
306.859	-48.34
307.074	-15.92
307.288	-40.65
307.503	-50.15
307.717	-50.4
307.932	-60.04
308.147	-52.29
308.361	-31.86
308.576	-35.73
308.79	-67.63
309.005	-63.87
309.219	-40.47
309.434	-55.52
309.648	-54.71
309.863	-29.01
310.077	-12.23
310.292	-20.45
310.506	-5.77
310.72	16.81
310.935	26.75
311.149	17.71
311.364	24.42
311.578	28.94
311.792	31.68
312.007	36.19
312.221	23.59
312.435	35
312.649	21.69
312.864	45.26
313.078	48.02
313.292	84.58
313.507	20.47
313.721	38.5
313.935	9.26
314.149	-12.16
314.363	-18.26
314.578	-8.53
314.792	7.45
315.006	-9.85
315.22	8.59
315.434	22.68
315.648	25.21
315.862	6.75
316.077	22.62
316.291	-2.33
316.505	-19.97
316.719	-27.76
316.933	-30.89
317.147	-36.83
317.361	-51.2
317.575	-56.69
317.789	-115.07
318.003	-199.65
318.217	-175.83
318.431	-94.89
318.645	-42.36
318.859	-22.49
319.073	4.71
319.287	-2.42
319.5	-21.21
319.714	-68.97
319.928	-76.01
320.142	-84.98
320.356	-34.81
320.57	5.61
320.784	18.83
320.997	-10.7
321.211	-8.95
321.425	-74.77
321.639	-104.66
321.853	-50.85
322.066	-26.66
322.28	-35.17
322.494	-12.92
322.707	7.17
322.921	-7.23
323.135	-6.36
323.349	16.72
323.562	1.31
323.776	-19.56
323.989	-19.88
324.203	-29.41
324.417	-51.84
324.63	-67.15
324.844	-69.93
325.057	-62.47
325.271	-38.28
325.485	-9.66
325.698	16.08
325.912	30.87
326.125	4.55
326.339	-1.43
326.552	-20.73
326.766	-32.13
326.979	-20.21
327.193	23.35
327.406	12.22
327.619	4.45
327.833	19.25
328.046	-11.64
328.26	-60.46
328.473	-27.99
328.686	-59.18
328.9	-68.91
329.113	-33.31
329.326	-49.52
329.54	-50.71
329.753	-42.23
329.966	-72.65
330.179	-74.09
330.393	-32.27
330.606	-25.69
330.819	-3.81
331.032	15.94
331.246	17.9
331.459	35.17
331.672	28.11
331.885	13.57
332.098	-8.12
332.311	-17.01
332.525	-57.12
332.738	-60.89
332.951	-13.83
333.164	6.25
333.377	3.59
333.59	14.05
333.803	18.63
334.016	2.17
334.229	-0.45
334.442	13.33
334.655	38.61
334.868	42.04
335.081	34.92
335.294	28.62
335.507	13.6
335.72	2.97
335.933	-12.19
336.146	-6.36
336.359	-17.09
336.572	-39.75
336.785	-67.08
336.997	-57.83
337.21	-54.47
337.423	-47.66
337.636	-37.35
337.849	-12.93
338.062	-23.3
338.274	-9.89
338.487	-17.54
338.7	0.72
338.913	-31.66
339.125	-35.46
339.338	-80.2
339.551	-67.13
339.763	-60.43
339.976	-22.49
340.189	-10.67
340.402	0.11
340.614	7.7
340.827	0.41
341.039	-31.74
341.252	-38.3
341.465	-14.02
341.677	-19.91
341.89	-41.21
342.102	-5.8
342.315	-9.43
342.527	-35.5
342.74	-42.97
342.952	-14.42
343.165	-20.01
343.377	-6.11
343.59	-6.15
343.802	17.65
344.015	19.24
344.227	37.39
344.44	34.65
344.652	32.03
344.864	12.19
345.077	19.64
345.289	15.38
345.502	25.89
345.714	22.15
345.926	26.09
346.139	17.01
346.351	24.43
346.563	10.41
346.775	11.49
346.988	-9.33
347.2	-20.3
347.412	-79.04
347.624	-83.58
347.837	-98.37
348.049	-59.77
348.261	-28.59
348.473	-5.11
348.685	-12.61
348.897	-12.47
349.11	-25.77
349.322	-42.76
349.534	-27.64
349.746	-27.03
349.958	-17.66
350.17	-27.51
350.382	-9.59
350.594	-13.08
350.806	-6.05
351.018	-9.99
351.23	-7.95
351.442	-40.91
351.654	-49.62
351.866	-48.13
352.078	-34.17
352.29	-23.89
352.502	-10.27
352.714	6.61
352.926	1.99
353.138	-0.67
353.35	-6.87
353.561	-7.98
353.773	-35.7
353.985	-22.02
354.197	-33.41
354.409	-30.98
354.621	-19.67
354.832	-3.99
355.044	-11.42
355.256	-3.65
355.468	6.58
355.679	-1.95
355.891	5.15
356.103	-4.79
356.314	1.75
356.526	8.44
356.738	4.08
356.949	-13.7
357.161	-8.96
357.373	-2.16
357.584	-18.85
357.796	-1.58
358.008	-5.1
358.219	14.95
358.431	1.29
358.642	14.18
358.854	9.38
359.065	-2.6
359.277	-34.5
359.488	-41.47
359.7	-70.16
359.911	-83.37
360.123	-46.43
360.334	-47.64
360.546	-55.18
360.757	-42.59
360.969	-36.77
361.18	-40.67
361.391	-15.7
361.603	-26.84
361.814	-19.35
362.025	-15.52
362.237	-8.76
362.448	-7.77
362.659	24.52
362.871	19.02
363.082	16.9
363.293	10.4
363.504	2.55
363.716	-34.41
363.927	-55.07
364.138	-78.16
364.349	-74.94
364.56	-57.24
364.772	-44.38
364.983	-13.83
365.194	-1.53
365.405	-1.62
365.616	6.57
365.827	1.46
366.038	-20.89
366.25	-32.93
366.461	-66.25
366.672	-37.81
366.883	-12.34
367.094	-3.42
367.305	-0.66
367.516	6.9
367.727	-20.31
367.938	-40.17
368.149	-33.21
368.36	-22.18
368.571	-13.57
368.781	-20.98
368.992	-21.51
369.203	-39.9
369.414	-56.32
369.625	-69.83
369.836	-71.57
370.047	-96.77
370.258	-85.55
370.468	-80.31
370.679	-83.68
370.89	-67.03
371.101	-22.85
371.312	-11.66
371.522	-9.4
371.733	-4.72
371.944	-3
372.155	-15
372.365	-33.96
372.576	-34.5
372.787	-33.4
372.997	-54.34
373.208	-51.53
373.419	-28.38
373.629	-60.7
373.84	-67.73
374.05	-74.18
374.261	-70.38
374.472	-81.23
374.682	-20.23
374.893	-17.03
375.103	9.23
375.314	3.77
375.524	13.55
375.735	11.27
375.945	22.46
376.156	7.57
376.366	13.82
376.577	10.23
376.787	7.85
376.997	1.71
377.208	4.57
377.418	-9.49
377.629	-4.66
377.839	-6.45
378.049	-4.36
378.26	8.59
378.47	19.6
378.68	11.59
378.89	4.38
379.101	5.21
379.311	-24.39
379.521	-49.8
379.732	-53.56
379.942	-51
380.152	-80.61
380.362	-39.1
380.572	-31.95
380.783	-19.07
380.993	-9.89
381.203	5.8
381.413	11.47
381.623	17.52
381.833	11.81
382.043	3.61
382.253	-0.36
382.463	-11.21
382.674	-17.42
382.884	-30.41
383.094	-23.74
383.304	-19.43
383.514	-16
383.724	-7.84
383.934	-11.27
384.144	-25.57
384.353	-29.44
384.563	-24.98
384.773	-23.43
384.983	-23.92
385.193	-2.73
385.403	-0.57
385.613	-2.31
385.823	-12.6
386.033	-3.65
386.242	-12.43
386.452	-14.18
386.662	-22.8
386.872	-15.46
387.082	-22.41
387.291	-25.59
387.501	-29.11
387.711	-19.41
387.921	-18.14
388.13	-14.18
388.34	-1.35
388.55	-5.38
388.759	-6.58
388.969	-3.87
389.179	-5.86
389.388	-11.71
389.598	2.13
389.807	-6.38
390.017	-9.05
390.227	-4.95
390.436	-6.8
390.646	-11.05
390.855	-3.21
391.065	-3.91
391.274	-8.46
391.484	-10.16
391.693	-8.57
391.903	-8.18
392.112	-0.56
392.322	0.79
392.531	5.79
392.74	6.33
392.95	1.05
393.159	-3.6
393.369	-2.65
393.578	-4.39
393.787	-7.76
393.997	-4.14
394.206	-4.98
394.415	-5.2
394.625	-5.84
394.834	-5.31
395.043	-4.61
395.252	-1.3
395.462	0.55
395.671	2.87
395.88	1.9
396.089	2.41
396.298	0.31
396.508	-0.25
396.717	-1.32
396.926	1
397.135	0.47
397.344	0.83
397.553	1.2
397.762	2.21
397.971	1.63
398.181	1.42
398.39	0.88
398.599	1.02
398.808	0.96
399.017	1.86
399.226	2.91
399.435	3.75
399.644	4.16
399.853	3.09
400.062	2.37
400.27	1.87
400.479	1.71
400.688	0.68
400.897	1.02
401.106	1.21
401.315	1.1
401.524	1.25
401.733	1.8
401.941	2.28
402.15	2.34
402.359	2.29
402.568	2.19
402.777	2.22
402.985	2.01
403.194	1.9
403.403	1.99
403.612	1.8
403.82	1.68
404.029	1.89
404.238	1.74
404.446	2.06
404.655	1.77
404.864	1.71
405.072	1.51
405.281	1.75
405.489	1.27
405.698	1.38
405.906	1.35
406.115	1.3
406.324	1.14
406.532	1.42
406.741	1.74
406.949	1.77
407.158	1.77
407.366	1.85
407.574	1.78
407.783	1.8
407.991	1.75
408.2	1.84
408.408	1.81
408.617	1.59
408.825	1.48
409.033	1.61
409.242	1.71
409.45	1.83
409.658	1.82
409.867	1.9
410.075	1.75
410.283	1.56
410.491	1.46
410.7	1.5
410.908	1.51
411.116	1.76
411.324	1.73
411.533	1.6
411.741	1.88
411.949	1.98
412.157	1.75
412.365	1.84
412.573	1.97
412.781	1.93
412.99	1.63
413.198	1.81
413.406	1.85
413.614	1.89
413.822	1.65
414.03	1.7
414.238	1.4
414.446	1.47
414.654	1.23
414.862	1.43
415.07	1.49
415.278	1.68
415.486	1.49
415.694	1.77
415.902	1.61
416.109	1.47
416.317	1.5
416.525	1.39
416.733	1.22
416.941	1.43
417.149	1.51
417.357	1.51
417.564	1.71
417.772	1.97
417.98	1.83
418.188	1.75
418.395	1.83
418.603	1.82
418.811	1.39
419.019	1.4
419.226	1.54
419.434	1.55
419.642	1.4
419.849	1.62
420.057	1.58
420.265	1.52
420.472	1.33
420.68	1.34
420.887	1.27
421.095	1.31
421.302	1.31
421.51	1.5
421.717	1.66
421.925	1.81
422.132	1.79
422.34	1.64
422.547	1.6
422.755	1.42
422.962	1.29
423.17	1.26
423.377	1.35
423.585	1.25
423.792	1.27
423.999	1.25
424.207	1.23
424.414	1.33
424.621	1.35
424.829	1.32
425.036	1.34
425.243	1.37
425.451	1.23
425.658	0.96
425.865	1.21
426.072	1.22
426.28	1.35
426.487	1.46
426.694	1.79
426.901	1.56
427.108	1.42
427.315	1.17
427.523	1.37
427.73	1.29
427.937	1.31
428.144	1.35
428.351	1.39
428.558	1.34
428.765	1.16
428.972	1.13
429.179	1.34
429.386	1.65
429.593	1.4
429.8	1.49
430.007	1.57
430.214	1.55
430.421	1.36
430.628	1.37
430.835	1.21
431.042	1.35
431.249	1.31
431.456	1.33
431.662	1.44
431.869	1.73
432.076	1.68
432.283	1.74
432.49	1.76
432.697	1.78
432.903	1.51
433.11	1.48
433.317	1.53
433.524	1.57
433.73	1.56
433.937	1.92
434.144	1.87
434.35	1.73
434.557	1.67
434.764	1.65
434.97	1.53
435.177	1.63
435.384	1.66
435.59	1.6
435.797	1.74
436.003	1.72
436.21	1.71
436.416	1.82
436.623	1.87
436.829	1.86
437.036	1.98
437.242	1.91
437.449	1.76
437.655	1.75
437.862	1.64
438.068	1.54
438.275	1.72
438.481	1.86
438.687	1.91
438.894	1.94
439.1	1.95
439.307	1.95
439.513	1.98
439.719	1.92
439.926	2.08
440.132	2.02
440.338	1.88
440.544	1.91
440.751	1.95
440.957	1.94
441.163	1.94
441.369	2.11
441.575	1.84
441.782	1.76
441.988	1.61
442.194	1.61
442.4	1.6
442.606	1.96
442.812	2.12
443.018	2.22
443.224	2.26
443.431	2.3
443.637	2.06
443.843	1.95
444.049	1.99
444.255	1.93
444.461	1.95
444.667	1.94
444.873	1.98
445.079	1.97
445.284	2.04
445.49	1.77
445.696	1.68
445.902	1.64
446.108	1.53
446.314	1.48
446.52	1.59
446.726	1.85
446.931	1.91
447.137	1.98
447.343	2.05
447.549	2.04
447.755	1.88
447.96	1.92
448.166	1.85
448.372	1.79
448.578	1.82
448.783	1.85
448.989	1.86
449.195	2.05
449.4	2.02
449.606	1.95
449.812	1.92
450.017	1.96
450.223	1.83
450.428	1.83
450.634	1.97
450.84	2.04
451.045	1.96
451.251	1.93
451.456	2.17
451.662	2.29
451.867	2.38
452.073	2.37
452.278	2.47
452.483	2.53
452.689	2.34
452.894	2.34
453.1	2.37
453.305	2.26
453.51	2.12
453.716	2.09
453.921	2.07
454.127	1.99
454.332	2
454.537	1.95
454.742	2.02
454.948	1.95
455.153	2.04
455.358	2.12
455.563	2.26
455.769	2.33
455.974	2.25
456.179	2.14
456.384	2.11
456.589	1.99
456.795	1.8
457	1.89
457.205	2.12
457.41	2.14
457.615	2.22
457.82	2.36
458.025	2.36
458.23	2.21
458.435	2.23
458.64	2.08
458.845	2.17
459.05	2.12
459.255	2.13
459.46	2.11
459.665	2.13
459.87	2.04
460.075	2.07
460.28	2.05
460.485	2.08
460.69	2.14
460.895	2.08
461.099	1.98
461.304	2.11
461.509	2.17
461.714	2.07
461.919	2.14
462.123	2.11
462.328	2.13
462.533	1.98
462.738	2.13
462.942	2.09
463.147	2.24
463.352	2.15
463.556	2.19
463.761	2.16
463.966	2.15
464.17	2.16
464.375	2.11
464.58	2.18
464.784	2.13
464.989	2.09
465.193	2.05
465.398	2.11
465.602	2.14
465.807	2.15
466.011	2.2
466.216	2.22
466.42	2.24
466.625	2.3
466.829	2.35
467.034	2.41
467.238	2.6
467.443	2.53
467.647	2.37
467.851	2.4
468.056	2.43
468.26	2.29
468.464	2.41
468.669	2.58
468.873	2.72
469.077	2.72
469.282	2.82
469.486	2.81
469.69	2.73
469.894	2.52
470.099	2.54
470.303	2.55
470.507	2.48
470.711	2.41
470.915	2.4
471.119	2.27
471.324	2.17
471.528	2.22
471.732	2.32
471.936	2.32
472.14	2.43
472.344	2.56
472.548	2.67
472.752	2.8
472.956	3.06
473.16	3.02
473.364	2.93
473.568	2.82
473.772	2.74
473.976	2.57
474.18	2.61
474.384	2.65
474.588	2.65
474.792	2.61
474.995	2.65
475.199	2.69
475.403	2.67
475.607	2.67
475.811	2.62
476.015	2.64
476.218	2.66
476.422	2.61
476.626	2.71
476.83	2.84
477.033	2.85
477.237	2.74
477.441	2.83
477.644	2.78
477.848	2.77
478.052	2.69
478.255	2.75
478.459	2.7
478.663	2.75
478.866	2.74
479.07	2.78
479.273	2.89
479.477	2.95
479.681	2.98
479.884	2.92
480.088	2.88
480.291	2.78
480.495	2.77
480.698	2.74
480.901	2.79
481.105	2.9
481.308	2.89
481.512	2.9
481.715	3
481.919	3.02
482.122	2.99
482.325	3.09
482.529	3.14
482.732	3.08
482.935	3
483.138	2.96
483.342	3.04
483.545	3.1
483.748	3.15
483.952	3.2
484.155	3.33
484.358	3.25
484.561	3.12
484.764	3.05
484.967	3.15
485.171	3.23
485.374	3.16
485.577	3.26
485.78	3.3
485.983	3.27
486.186	3.13
486.389	3.17
486.592	3.17
486.795	3.21
486.998	3.18
487.201	3.21
487.404	3.28
487.607	3.36
487.81	3.34
488.013	3.38
488.216	3.36
488.419	3.29
488.622	3.25
488.825	3.18
489.028	3.11
489.231	3.08
489.433	3.01
489.636	2.92
489.839	2.95
490.042	2.92
490.245	2.91
490.447	3.03
490.65	3.05
490.853	3.06
491.056	3.14
491.258	3.25
491.461	3.21
491.664	3.25
491.866	3.18
492.069	3.27
492.272	3.18
492.474	3.23
492.677	3.25
492.879	3.35
493.082	3.31
493.285	3.39
493.487	3.39
493.69	3.34
493.892	3.28
494.095	3.25
494.297	3.18
494.5	3.18
494.702	3.17
494.905	3.25
495.107	3.23
495.309	3.22
495.512	3.27
495.714	3.37
495.917	3.38
496.119	3.39
496.321	3.5
496.524	3.51
496.726	3.46
496.928	3.41
497.13	3.36
497.333	3.35
497.535	3.29
497.737	3.26
497.939	3.32
498.142	3.44
498.344	3.41
498.546	3.38
498.748	3.47
498.95	3.52
499.152	3.5
499.355	3.55
499.557	3.59
499.759	3.66
499.961	3.61
500.163	3.66
500.365	3.62
500.567	3.7
500.769	3.58
500.971	3.57
501.173	3.47
501.375	3.53
501.577	3.42
501.779	3.45
501.981	3.5
502.183	3.52
502.385	3.46
502.587	3.41
502.788	3.42
502.99	3.4
503.192	3.46
503.394	3.48
503.596	3.57
503.798	3.57
503.999	3.59
504.201	3.58
504.403	3.58
504.605	3.6
504.806	3.58
505.008	3.56
505.21	3.61
505.411	3.65
505.613	3.64
505.815	3.68
506.016	3.74
506.218	3.78
506.42	3.78
506.621	3.81
506.823	3.82
507.024	3.77
507.226	3.73
507.427	3.72
507.629	3.75
507.83	3.79
508.032	3.81
508.233	3.9
508.435	3.94
508.636	3.98
508.838	3.9
509.039	3.92
509.24	3.86
509.442	3.87
509.643	3.77
509.845	3.79
510.046	3.84
510.247	3.91
510.448	3.86
510.65	3.98
510.851	4.12
511.052	4.09
511.254	4.02
511.455	4.19
511.656	4.22
511.857	4.21
512.058	4.21
512.26	4.2
512.461	4.11
512.662	4.1
512.863	4.01
513.064	4.02
513.265	4.11
513.466	4.14
513.667	4.1
513.868	4.12
514.069	4.2
514.27	4.22
514.471	4.12
514.672	4.19
514.873	4.23
515.074	4.25
515.275	4.17
515.476	4.27
515.677	4.22
515.878	4.29
516.079	4.22
516.28	4.29
516.481	4.37
516.682	4.42
516.882	4.37
517.083	4.38
517.284	4.31
517.485	4.2
517.686	4.17
517.886	4.16
518.087	4.18
518.288	4.27
518.488	4.26
518.689	4.27
518.89	4.24
519.091	4.29
519.291	4.28
519.492	4.36
519.692	4.36
519.893	4.44
520.094	4.39
520.294	4.37
520.495	4.38
520.695	4.42
520.896	4.4
521.096	4.43
521.297	4.5
521.497	4.44
521.698	4.42
521.898	4.35
522.099	4.35
522.299	4.39
522.499	4.39
522.7	4.44
522.9	4.5
523.101	4.55
523.301	4.49
523.501	4.52
523.702	4.53
523.902	4.61
524.102	4.68
524.302	4.71
524.503	4.76
524.703	4.76
524.903	4.78
525.103	4.71
525.304	4.78
525.504	4.8
525.704	4.85
525.904	4.78
526.104	4.76
526.304	4.74
526.504	4.78
526.705	4.71
526.905	4.82
527.105	4.83
527.305	4.79
527.505	4.71
527.705	4.77
527.905	4.73
528.105	4.73
528.305	4.74
528.505	4.81
528.705	4.83
528.905	4.78
529.105	4.8
529.304	4.83
529.504	4.89
529.704	4.85
529.904	4.9
530.104	4.91
530.304	4.97
530.503	4.9
530.703	4.88
530.903	4.88
531.103	4.93
531.303	4.87
531.502	4.93
531.702	5.06
531.902	5.11
532.101	5.07
532.301	5.11
532.501	5.09
532.7	5.02
532.9	5
533.1	5.06
533.299	5.06
533.499	5.1
533.698	5.08
533.898	5.05
534.097	5.01
534.297	5.07
534.496	5.04
534.696	5.09
534.895	5.2
535.095	5.32
535.294	5.27
535.494	5.25
535.693	5.27
535.892	5.21
536.092	5.11
536.291	5.13
536.491	5.24
536.69	5.29
536.889	5.26
537.088	5.31
537.288	5.39
537.487	5.42
537.686	5.41
537.886	5.49
538.085	5.51
538.284	5.6
538.483	5.58
538.682	5.63
538.882	5.65
539.081	5.68
539.28	5.54
539.479	5.5
539.678	5.48
539.877	5.57
540.076	5.61
540.275	5.68
540.474	5.79
540.673	5.76
540.872	5.71
541.071	5.67
541.27	5.73
541.469	5.77
541.668	5.83
541.867	5.86
542.066	5.95
542.265	5.94
542.464	5.9
542.663	5.89
542.862	5.97
543.06	6.02
543.259	6.04
543.458	6.08
543.657	6.15
543.856	6.24
544.054	6.19
544.253	6.21
544.452	6.28
544.651	6.32
544.849	6.26
545.048	6.35
545.247	6.42
545.445	6.42
545.644	6.46
545.843	6.44
546.041	6.46
546.24	6.5
546.438	6.6
546.637	6.68
546.836	6.85
547.034	6.87
547.233	6.9
547.431	6.85
547.63	6.83
547.828	6.79
548.027	6.85
548.225	6.87
548.423	6.95
548.622	7.04
548.82	7.05
549.019	7.08
549.217	7.16
549.415	7.23
549.614	7.34
549.812	7.42
550.01	7.4
550.209	7.42
550.407	7.44
550.605	7.37
550.803	7.47
551.002	7.58
551.2	7.64
551.398	7.76
551.596	7.91
551.794	7.97
551.993	8.06
552.191	8.1
552.389	8.15
552.587	8.18
552.785	8.2
552.983	8.27
553.181	8.38
553.379	8.41
553.577	8.47
553.775	8.51
553.973	8.55
554.171	8.61
554.369	8.67
554.567	8.7
554.765	8.75
554.963	8.85
555.161	8.83
555.359	8.93
555.557	9.05
555.755	9.2
555.952	9.29
556.15	9.4
556.348	9.46
556.546	9.58
556.744	9.58
556.941	9.59
557.139	9.71
557.337	9.77
557.535	9.73
557.732	9.87
557.93	10.02
558.128	10.11
558.325	10.24
558.523	10.34
558.721	10.39
558.918	10.4
559.116	10.42
559.313	10.43
559.511	10.61
559.708	10.64
559.906	10.75
560.104	10.88
560.301	11.02
560.498	11.06
560.696	11.19
560.893	11.3
561.091	11.45
561.288	11.58
561.486	11.68
561.683	11.8
561.88	11.92
562.078	11.95
562.275	11.93
562.473	12.07
562.67	12.22
562.867	12.32
563.064	12.48
563.262	12.61
563.459	12.6
563.656	12.72
563.853	12.82
564.051	12.91
564.248	13.03
564.445	13.22
564.642	13.23
564.839	13.36
565.036	13.51
565.234	13.67
565.431	13.72
565.628	13.86
565.825	13.95
566.022	14.03
566.219	14.11
566.416	14.2
566.613	14.31
566.81	14.4
567.007	14.36
567.204	14.33
567.401	14.4
567.598	14.43
567.795	14.46
567.991	14.56
568.188	14.72
568.385	14.87
568.582	14.98
568.779	15.12
568.976	15.24
569.172	15.32
569.369	15.33
569.566	15.37
569.763	15.35
569.96	15.37
570.156	15.42
570.353	15.41
570.55	15.54
570.746	15.68
570.943	15.75
571.14	15.8
571.336	15.97
571.533	16.03
571.729	15.99
571.926	16.07
572.123	16.13
572.319	16.18
572.516	16.16
572.712	16.23
572.909	16.28
573.105	16.4
573.302	16.41
573.498	16.52
573.695	16.57
573.891	16.64
574.087	16.6
574.284	16.63
574.48	16.57
574.677	16.65
574.873	16.66
575.069	16.79
575.266	16.92
575.462	16.93
575.658	17.01
575.854	17.09
576.051	17.09
576.247	17.03
576.443	17.1
576.639	17.04
576.835	17
577.032	16.98
577.228	17.03
577.424	17.11
577.62	17.07
577.816	17.17
578.012	17.24
578.208	17.25
578.404	17.25
578.6	17.39
578.796	17.32
578.993	17.33
579.189	17.31
579.384	17.19
579.58	17.16
579.776	17.16
579.972	17.1
580.168	17.06
580.364	17.18
580.56	17.16
580.756	17.12
580.952	17.15
581.148	17.18
581.343	17.19
581.539	17.27
581.735	17.3
581.931	17.33
582.127	17.4
582.322	17.3
582.518	17.29
582.714	17.36
582.909	17.25
583.105	17.23
583.301	17.32
583.496	17.32
583.692	17.23
583.888	17.28
584.083	17.27
584.279	17.29
584.474	17.18
584.67	17.21
584.866	17.23
585.061	17.15
585.257	17.17
585.452	17.23
585.648	17.13
585.843	17.12
586.039	17.15
586.234	17.08
586.429	16.98
586.625	17.1
586.82	17.1
587.015	17.11
587.211	17.01
587.406	17.18
587.601	17.14
587.797	17.13
587.992	17.11
588.187	17.26
588.383	17.17
588.578	17.23
588.773	17.26
588.968	17.35
589.163	17.39
589.359	17.38
589.554	17.41
589.749	17.47
589.944	17.47
590.139	17.47
590.334	17.49
590.529	17.45
590.724	17.45
590.919	17.49
591.114	17.49
591.309	17.58
591.504	17.65
591.699	17.69
591.894	17.72
592.089	17.84
592.284	17.92
592.479	18.01
592.674	17.99
592.869	18.08
593.064	18.04
593.259	18.04
593.454	18.15
593.648	18.23
593.843	18.21
594.038	18.34
594.233	18.35
594.428	18.27
594.622	18.39
594.817	18.54
595.012	18.61
595.206	18.77
595.401	18.84
595.596	18.85
595.79	18.97
595.985	19.05
596.18	19.08
596.374	19.19
596.569	19.35
596.763	19.36
596.958	19.35
597.153	19.48
597.347	19.45
597.542	19.54
597.736	19.53
597.931	19.68
598.125	19.63
598.319	19.87
598.514	19.81
598.708	20.04
598.903	20.02
599.097	20.14
599.291	20.16
599.486	20.24
599.68	20.19
599.874	20.27
600.069	20.34
600.263	20.37
600.457	20.51
600.651	20.54
600.846	20.62
601.04	20.59
601.234	20.59
601.428	20.58
601.622	20.63
601.817	20.62
602.011	20.75
602.205	20.87
602.399	20.89
602.593	20.93
602.787	20.98
602.981	20.93
603.175	20.92
603.369	20.87
603.563	20.93
603.757	20.96
603.951	21.01
604.145	20.99
604.339	21.03
604.533	20.9
604.727	20.84
604.921	20.83
605.115	20.78
605.309	20.85
605.502	20.91
605.696	20.84
605.89	20.74
606.084	20.78
606.278	20.71
606.471	20.61
606.665	20.58
606.859	20.56
607.053	20.45
607.246	20.38
607.44	20.38
607.634	20.3
607.827	20.26
608.021	20.11
608.214	20.03
608.408	19.92
608.602	19.94
608.795	19.86
608.989	19.95
609.182	19.83
609.376	19.76
609.569	19.64
609.763	19.54
609.956	19.41
610.15	19.34
610.343	19.34
610.537	19.23
610.73	19.23
610.923	19.26
611.117	19.24
611.31	19.2
611.504	19.22
611.697	19.1
611.89	18.95
612.083	18.95
612.277	18.89
612.47	18.72
612.663	18.68
612.856	18.6
613.05	18.44
613.243	18.31
613.436	18.31
613.629	18.21
613.822	18.12
614.015	18.09
614.209	17.93
614.402	17.88
614.595	17.86
614.788	17.75
614.981	17.64
615.174	17.66
615.367	17.64
615.56	17.58
615.753	17.62
615.946	17.55
616.139	17.49
616.332	17.5
616.525	17.43
616.718	17.42
616.911	17.35
617.103	17.34
617.296	17.24
617.489	17.23
617.682	17.15
617.875	17.21
618.067	17.14
618.26	17.02
618.453	16.96
618.646	16.9
618.838	16.91
619.031	17.02
619.224	17.01
619.417	17.07
619.609	17.06
619.802	16.95
619.994	16.79
620.187	16.78
620.38	16.65
620.572	16.64
620.765	16.63
620.957	16.54
621.15	16.45
621.342	16.46
621.535	16.48
621.727	16.42
621.92	16.35
622.112	16.35
622.305	16.3
622.497	16.19
622.69	16.18
622.882	16.27
623.074	16.26
623.267	16.25
623.459	16.15
623.651	16.06
623.844	16.05
624.036	16.04
624.228	15.92
624.42	15.97
624.613	16.08
624.805	16.03
624.997	15.96
625.189	16.02
625.381	15.97
625.574	15.9
625.766	15.81
625.958	15.85
626.15	15.87
626.342	15.87
626.534	15.88
626.726	15.92
626.918	15.9
627.11	15.82
627.302	15.83
627.494	15.76
627.686	15.75
627.878	15.64
628.07	15.66
628.262	15.56
628.454	15.58
628.646	15.54
628.838	15.55
629.029	15.45
629.221	15.45
629.413	15.32
629.605	15.16
629.797	15.22
629.989	15.21
630.18	15.19
630.372	15.1
630.564	15.1
630.755	15.03
630.947	15.15
631.139	15.03
631.33	15.02
631.522	15.14
631.714	15.05
631.905	14.94
632.097	14.95
632.289	15
632.48	14.94
632.672	14.85
632.863	14.72
633.055	14.71
633.246	14.67
633.438	14.6
633.629	14.67
633.821	14.67
634.012	14.65
634.203	14.59
634.395	14.6
634.586	14.57
634.777	14.52
634.969	14.53
635.16	14.6
635.351	14.53
635.543	14.57
635.734	14.64
635.925	14.62
636.117	14.61
636.308	14.64
636.499	14.58
636.69	14.42
636.881	14.43
637.073	14.46
637.264	14.4
637.455	14.45
637.646	14.68
637.837	14.72
638.028	14.66
638.219	14.71
638.41	14.63
638.601	14.44
638.792	14.35
638.983	14.31
639.174	14.25
639.365	14.28
639.556	14.28
639.747	14.3
639.938	14.31
640.129	14.29
640.32	14.28
640.511	14.32
640.701	14.45
640.892	14.35
641.083	14.35
641.274	14.43
641.465	14.41
641.655	14.19
641.846	14.24
642.037	14.23
642.228	14.11
642.418	14.14
642.609	14.17
642.8	14.22
642.99	14.2
643.181	14.31
643.372	14.25
643.562	14.23
643.753	14.06
643.943	14.09
644.134	13.93
644.324	13.9
644.515	13.92
644.705	14.03
644.896	13.94
645.086	13.97
645.277	13.91
645.467	13.92
645.658	13.83
645.848	13.83
646.038	13.74
646.229	13.69
646.419	13.68
646.61	13.77
646.8	13.77
646.99	13.8
647.18	13.83
647.371	13.75
647.561	13.64
647.751	13.63
647.941	13.48
648.132	13.46
648.322	13.41
648.512	13.45
648.702	13.46
648.892	13.48
649.082	13.49
649.272	13.39
649.462	13.25
649.653	13.15
649.843	13.18
650.033	13.17
650.223	13.18
650.413	13.17
650.603	13.18
650.793	13.12
650.983	12.98
651.172	13
651.362	12.95
651.552	12.81
651.742	12.77
651.932	12.8
652.122	12.76
652.312	12.83
652.502	12.88
652.691	12.76
652.881	12.71
653.071	12.67
653.261	12.53
653.45	12.31
653.64	12.37
653.83	12.21
654.019	12.08
654.209	12.01
654.399	12.09
654.588	11.9
654.778	11.82
654.968	11.72
655.157	11.58
655.347	11.41
655.536	11.34
655.726	11.25
655.915	11.08
656.105	10.94
656.294	10.84
656.484	10.63
656.673	10.51
656.863	10.53
657.052	10.44
657.241	10.32
657.431	10.16
657.62	10.04
657.809	9.71
657.999	9.52
658.188	9.34
658.377	9.28
658.567	9.17
658.756	9.15
658.945	9.06
659.134	8.87
659.324	8.76
659.513	8.57
659.702	8.33
659.891	8.16
660.08	8.04
660.269	7.96
660.458	7.83
660.648	7.74
660.837	7.57
661.026	7.52
661.215	7.32
661.404	7.21
661.593	7.16
661.782	7
661.971	6.91
662.16	6.78
662.349	6.68
662.538	6.56
662.726	6.54
662.915	6.37
663.104	6.31
663.293	6.27
663.482	6.26
663.671	6.18
663.86	6.09
664.048	5.96
664.237	5.89
664.426	5.71
664.615	5.72
664.803	5.65
664.992	5.6
665.181	5.52
665.369	5.49
665.558	5.32
665.747	5.28
665.935	5.3
666.124	5.39
666.312	5.38
666.501	5.38
666.69	5.35
666.878	5.27
667.067	5.06
667.255	5.12
667.444	5.38
667.632	5.44
667.82	5.54
668.009	5.58
668.197	5.52
668.386	5.27
668.574	5.38
668.762	5.32
668.951	5.27
669.139	5.24
669.327	5.19
669.516	5.13
669.704	5.12
669.892	5.23
670.08	5.27
670.269	5.26
670.457	5.18
670.645	5.11
670.833	5.14
671.021	5.14
671.21	5.19
671.398	5.41
671.586	5.5
671.774	5.36
671.962	5.39
672.15	5.51
672.338	5.39
672.526	5.44
672.714	5.47
672.902	5.53
673.09	5.59
673.278	5.84
673.466	5.88
673.654	6.15
673.842	6.21
674.03	6.24
674.218	6.05
674.405	6.09
674.593	5.99
674.781	6.11
674.969	6.14
675.157	6.35
675.344	6.49
675.532	6.65
675.72	6.7
675.908	6.79
676.095	6.7
676.283	6.7
676.471	6.8
676.658	6.83
676.846	6.85
677.033	7.03
677.221	7.08
677.409	6.98
677.596	6.97
677.784	7.03
677.971	7.05
678.159	7.02
678.346	7.07
678.534	7.14
678.721	7.25
678.909	7.29
679.096	7.44
679.283	7.76
679.471	7.89
679.658	8.04
679.846	8.17
680.033	8.44
680.22	8.41
680.408	8.46
680.595	8.51
680.782	8.55
680.969	8.48
681.157	8.57
681.344	8.76
681.531	8.68
681.718	8.65
681.905	8.81
682.093	8.98
682.28	9.13
682.467	9.51
682.654	9.81
682.841	9.95
683.028	10.04
683.215	10.16
683.402	10.06
683.589	10.2
683.776	10.36
683.963	10.45
684.15	10.6
684.337	10.93
684.524	11.15
684.711	11.34
684.898	11.38
685.085	11.64
685.271	11.89
685.458	12.08
685.645	12.28
685.832	12.76
686.019	13.01
686.205	13.16
686.392	13.49
686.579	13.63
686.766	13.81
686.952	14.06
687.139	14.57
687.326	14.85
687.512	15.29
687.699	15.75
687.886	15.88
688.072	16.1
688.259	16.35
688.445	16.87
688.632	17.08
688.818	17.78
689.005	18.24
689.191	18.8
689.378	19.43
689.564	20.12
689.751	20.57
689.937	21.03
690.124	21.53
690.31	21.7
690.496	22.08
690.683	22.75
690.869	23.29
691.055	23.93
691.242	24.67
691.428	25.44
691.614	25.94
691.8	26.72
691.987	27.22
692.173	27.93
692.359	28.46
692.545	29.1
692.731	29.58
692.918	30.26
693.104	30.81
693.29	31.52
693.476	32.3
693.662	33.06
693.848	33.75
694.034	34.45
694.22	35.11
694.406	35.69
694.592	36.49
694.778	37.02
694.964	37.66
695.15	38.33
695.336	39.01
695.522	39.69
695.708	40.47
695.894	41.23
696.08	42
696.265	42.46
696.451	43.11
696.637	44.01
696.823	44.63
697.009	45.08
697.194	45.77
697.38	46.25
697.566	46.7
697.751	47.28
697.937	48.15
698.123	49.07
698.308	49.88
698.494	50.52
698.68	51.11
698.865	51.4
699.051	51.66
699.236	52.2
699.422	52.92
699.607	53.38
699.793	54.1
699.978	54.69
700.164	55.09
700.349	55.59
700.535	56.13
700.72	56.64
700.906	57.34
701.091	57.63
701.276	58.03
701.462	58.76
701.647	59.43
701.832	59.75
702.018	60.57
702.203	60.98
702.388	61.17
702.573	61.37
702.759	62.27
702.944	62.49
703.129	62.85
703.314	63.28
703.499	63.59
703.684	63.75
703.87	64.59
704.055	65.12
704.24	65.4
704.425	66.13
704.61	66.29
704.795	65.95
704.98	66.1
705.165	66.52
705.35	66.66
705.535	66.93
705.72	67.72
705.905	68.49
706.09	69.07
706.275	69.53
706.459	69.86
706.644	69.9
706.829	69.69
707.014	69.59
707.199	70.01
707.384	70.5
707.568	70.77
707.753	71.74
707.938	72.05
708.123	71.87
708.307	71.73
708.492	72.09
708.677	71.72
708.861	71.86
709.046	72.04
709.231	72.62
709.415	73.01
709.6	72.96
709.784	73.16
709.969	73.41
710.153	73.51
710.338	73.15
710.522	73.68
710.707	74.3
710.891	74.57
711.076	74.53
711.26	74.59
711.445	74.76
711.629	74.81
711.813	74.92
711.998	75.38
712.182	75.65
712.366	76.11
712.551	76.39
712.735	76.4
712.919	76.39
713.103	77.26
713.288	76.79
713.472	76.45
713.656	77.26
713.84	77.05
714.024	77.2
714.208	77.41
714.393	78.2
714.577	78.08
714.761	78.44
714.945	77.98
715.129	78.18
715.313	78
715.497	77.88
715.681	78.92
715.865	78.99
716.049	79.29
716.233	79.16
716.417	79.65
716.601	78.83
716.785	78.82
716.968	78.92
717.152	79.23
717.336	79.15
717.52	79.04
717.704	79.05
717.888	79.27
718.071	79.35
718.255	79.42
718.439	79.86
718.622	80.22
718.806	80.48
718.99	80.38
719.174	80.38
719.357	80.58
719.541	80.84
719.724	80.7
719.908	81.31
720.092	81.67
720.275	81.55
720.459	81.39
720.642	81.25
720.826	80.84
721.009	80.12
721.193	80.12
721.376	80.51
721.559	80.85
721.743	81.33
721.926	82.04
722.11	82.28
722.293	81.88
722.476	81.41
722.66	81.04
722.843	80.96
723.026	80.42
723.21	80.64
723.393	81.47
723.576	81.75
723.759	81.33
723.942	81.63
724.126	81.81
724.309	81.41
724.492	81.13
724.675	81.26
724.858	81.93
725.041	82.32
725.224	83.04
725.407	82.65
725.59	82.92
725.774	82.64
725.957	81.88
726.14	81.43
726.322	82
726.505	81.71
726.688	82.19
726.871	82.31
727.054	82.39
727.237	82.54
727.42	83.85
727.603	83.38
727.786	83.44
727.968	83.46
728.151	83.26
728.334	82.6
728.517	82.5
728.699	83.44
728.882	83.86
729.065	84.51
729.248	84.79
729.43	85.17
729.613	85.35
729.796	85.9
729.978	85.36
730.161	85.4
730.343	85.54
730.526	86.01
730.708	85.01
730.891	85.56
731.073	85.41
731.256	85.16
731.438	84.42
731.621	85.03
731.803	84.99
731.986	85.31
732.168	85.4
732.35	85.25
732.533	85.14
732.715	85.1
732.898	85.15
733.08	85.37
733.262	85.76
733.444	85.63
733.627	85.69
733.809	86.28
733.991	86.63
734.173	86.54
734.355	87
734.538	87.66
734.72	86.38
734.902	86.02
735.084	86.39
735.266	86.32
735.448	86.33
735.63	87.25
735.812	87.52
735.994	87.85
736.176	87.73
736.358	87.47
736.54	88.34
736.722	88.51
736.904	87.81
737.086	87.99
737.268	88.58
737.45	88.12
737.632	87.96
737.814	87.74
737.995	88.09
738.177	87.45
738.359	86.36
738.541	87.04
738.723	87.17
738.904	86.88
739.086	87.18
739.268	87.62
739.449	87.91
739.631	87.72
739.813	88.31
739.994	88.06
740.176	88.59
740.358	88.07
740.539	88.95
740.721	88.77
740.902	89.73
741.084	89.68
741.265	89.16
741.447	89.93
741.628	90.19
741.81	89.14
741.991	90.01
742.172	91.3
742.354	90.86
742.535	90.44
742.717	91.09
742.898	90.97
743.079	90.37
743.261	89.51
743.442	89.05
743.623	89.92
743.804	89.46
743.986	90.15
744.167	90.39
744.348	89.88
744.529	88.84
744.71	88.3
744.891	87.08
745.073	86.7
745.254	86.36
745.435	86.1
745.616	85.96
745.797	86.25
745.978	86.18
746.159	87.88
746.34	86.54
746.521	87.49
746.702	87.29
746.883	87.58
747.064	86.23
747.245	87.86
747.426	88.01
747.606	88.74
747.787	88.88
747.968	89.48
748.149	89.78
748.33	89.18
748.51	89.08
748.691	88.83
748.872	88.75
749.053	88.41
749.233	87.66
749.414	86.52
749.595	86.12
749.775	85.15
749.956	84.39
750.137	84.48
750.317	86.02
750.498	87.54
750.678	89.06
750.859	89.88
751.04	90.35
751.22	87.74
751.4	86.9
751.581	86.29
751.761	86.69
751.942	87.18
752.122	89
752.303	88.62
752.483	88.3
752.663	86.64
752.844	85.81
753.024	86.32
753.204	86.75
753.385	86.57
753.565	87.83
753.745	87.99
753.925	86.06
754.106	84.93
754.286	84.16
754.466	83.75
754.646	82.87
754.826	82.9
755.006	82.45
755.187	83.65
755.367	83.94
755.547	85.24
755.727	87.05
755.907	88.26
756.087	88.05
756.267	86.64
756.447	85.49
756.627	82.24
756.807	81.54
756.987	81.92
757.167	83.46
757.346	83.81
757.526	84.9
757.706	86
757.886	86.58
758.066	86.66
758.246	87.4
758.425	87.99
758.605	86.34
758.785	85.14
758.965	83.7
759.144	82.32
759.324	83.02
759.504	84.72
759.683	84.87
759.863	84.88
760.043	84.17
760.222	83.55
760.402	82.35
760.581	81.74
760.761	83.09
760.94	83.84
761.12	85.43
761.299	86.39
761.479	87.46
761.658	85.49
761.838	85.1
762.017	85.05
762.197	84.87
762.376	83.3
762.555	83.55
762.735	84.04
762.914	80.67
763.093	80.67
763.273	79.91
763.452	80.79
763.631	79.69
763.81	80.3
763.99	79.75
764.169	80.78
764.348	78.01
764.527	77.07
764.706	79.05
764.885	80.13
765.064	79.01
765.243	82.13
765.423	85.46
765.602	83.75
765.781	80.96
765.96	79.83
766.139	78.1
766.318	76.93
766.497	77.55
766.676	79.87
766.854	83.16
767.033	84.83
767.212	84.38
767.391	84.49
767.57	84.16
767.749	82.83
767.928	83.04
768.106	82.19
768.285	80.44
768.464	80.62
768.643	80.22
768.821	77.92
769	80.36
769.179	80.82
769.357	79.45
769.536	80.2
769.715	80.8
769.893	80.06
770.072	79.47
770.25	80.77
770.429	82.21
770.607	81.4
770.786	81.2
770.964	83.06
771.143	82.67
771.321	82.03
771.5	83.81
771.678	82.21
771.857	81.25
772.035	78.71
772.213	76.8
772.392	74.39
772.57	76.72
772.748	78.42
772.927	79.29
773.105	80.17
773.283	81.63
773.461	80.18
773.64	79.33
773.818	81.06
773.996	83.08
774.174	82.39
774.352	81.66
774.531	78.7
774.709	80.22
774.887	77.41
775.065	76.98
775.243	76.67
775.421	78.52
775.599	78.32
775.777	77
775.955	76.09
776.133	75.17
776.311	75.03
776.489	72.23
776.667	73.9
776.844	76.71
777.022	76.32
777.2	74.02
777.378	74.62
777.556	75.9
777.734	75.6
777.911	79.01
778.089	82.85
778.267	83
778.445	78.57
778.622	77.86
778.8	78.11
778.978	78.93
779.155	78.45
779.333	81.08
779.511	81.17
779.688	80.29
779.866	75.79
780.043	73.83
780.221	74.41
780.398	71
780.576	71.1
780.753	73.82
780.931	72.64
781.108	71.98
781.286	74.77
781.463	72.15
781.64	69.47
781.818	72.12
781.995	72.41
782.172	72.59
782.35	73.93
782.527	77
782.704	75.49
782.882	74.21
783.059	75.22
783.236	74.97
783.413	73.63
783.59	74.65
783.768	71.7
783.945	70.55
784.122	72.29
784.299	73.08
784.476	71.14
784.653	72.63
784.83	69.47
785.007	65.71
785.184	64.85
785.361	65.27
785.538	71.83
785.715	74.63
785.892	77.7
786.069	81.56
786.246	83.52
786.423	79.11
786.6	77.5
786.776	77.94
786.953	73.44
787.13	75.09
787.307	75.3
787.484	77.79
787.66	75.49
787.837	77.66
788.014	77.66
788.191	76.74
788.367	73.87
788.544	73.48
788.721	70.37
788.897	69.9
789.074	69.4
789.25	70.04
789.427	73.26
789.603	73.42
789.78	70.91
789.956	70.53
790.133	72.12
790.309	69.25
790.486	72.33
790.662	71.7
790.839	72.55
791.015	70.43
791.192	71.22
791.368	69.62
791.544	69.24
791.721	68.65
791.897	71.08
792.073	66.88
792.249	61.92
792.426	62.76
792.602	61.49
792.778	61.03
792.954	64.22
793.13	67.08
793.307	60.62
793.483	55.98
793.659	53.22
793.835	57.37
794.011	59.06
794.187	64.54
794.363	68.51
794.539	72.5
794.715	62.32
794.891	60.07
795.067	60.03
795.243	64.54
795.419	60.93
795.595	60.4
795.771	63.79
795.947	67.46
796.122	62.93
796.298	66.95
796.474	74.22
796.65	75.41
796.826	66.92
797.001	68.96
797.177	63.72
797.353	60.53
797.529	59.98
797.704	63.72
797.88	63.93
798.056	62.79
798.231	61.15
798.407	61.74
798.582	67.07
798.758	71.27
798.934	75.96
799.109	73.7
799.285	68.36
799.46	68.17
799.636	65.59
799.811	65.09
799.986	69.56
800.162	77.06
800.337	76.06
800.513	70.14
800.688	68.22
800.863	76.24
801.039	63.79
801.214	62.41
801.389	69.67
801.565	71.26
801.74	55.18
801.915	66.78
802.09	66.68
802.265	68.77
802.441	63.22
802.616	69.94
802.791	70
802.966	73.79
803.141	68.57
803.316	69.56
803.491	70.83
803.666	75.06
803.841	66.49
804.016	64.75
804.191	68.51
804.366	65.05
804.541	54.14
804.716	57.74
804.891	55.55
805.066	58.54
805.241	54.6
805.416	57.98
805.591	49.08
805.765	54.22
805.94	50.24
806.115	55.65
806.29	45.08
806.464	51.78
806.639	45.88
806.814	41.8
806.989	42.53
807.163	61.05
807.338	67.15
807.512	62.28
807.687	52.42
807.862	59.93
808.036	54.79
808.211	57.02
808.385	70.31
808.56	84.68
808.734	81.97
808.909	76.78
809.083	66.18
809.258	63.33
809.432	61.28
809.606	41.83
809.781	43
809.955	51.98
810.13	54.66
810.304	53.71
810.478	57.78
810.652	66.38
810.827	68.63
811.001	61.9
811.175	57.54
811.349	56.4
811.524	48.33
811.698	32.08
811.872	36.35
812.046	45.06
812.22	56.59
812.394	56.78
812.568	68.96
812.742	69.97
812.916	64.63
813.09	54.73
813.264	49.65
813.438	51.13
813.612	49.11
813.786	49.01
813.96	55.56
814.134	59.1
814.308	68.5
814.482	71.17
814.656	65.42
814.83	71.43
815.003	74.54
815.177	59.61
815.351	53.99
815.525	56.33
815.698	52.28
815.872	37.32
816.046	24.99
816.219	32.89
816.393	43.62
816.567	55.1
816.74	68.77
816.914	76.66
817.088	81.41
817.261	70.96
817.435	46.01
817.608	49.8
817.782	50.81
817.955	57.89
818.129	54.22
818.302	59.17
818.475	64.53
818.649	62.61
818.822	47.73
818.996	64.95
819.169	62.87
819.342	47.23
819.516	60.74
819.689	66.57
819.862	51.1
820.035	39.81
820.209	38.38
820.382	33.87
820.555	33.43
820.728	30.11
820.901	47.19
821.075	46.55
821.248	58.33
821.421	48.99
821.594	44.13
821.767	55.64
821.94	66.84
822.113	38.71
822.286	38.11
822.459	49.05
822.632	26.21
822.805	14.21
822.978	24.64
823.151	22.76
823.324	8.57
823.496	-4.39
823.669	-0.06
823.842	4.51
824.015	-0.06
824.188	-4.32
824.361	12.24
824.533	10.58
824.706	3.48
824.879	11.61
825.051	22.34
825.224	22.26
825.397	19.03
825.569	18.77
825.742	20.71
825.915	30.47
826.087	43.77
826.26	33.34
826.432	33.91
826.605	45.25
826.777	39.27
826.95	35.97
827.122	38.29
827.295	45.49
827.467	47.93
827.64	33.52
827.812	14.76
827.984	12.05
828.157	5.96
828.329	-37.6
828.501	-26.93
828.674	9.76
828.846	13.82
829.018	32.5
829.19	21.23
829.363	40.73
829.535	33.51
829.707	34.15
829.879	8.14
830.051	14.3
830.223	-2.17
830.395	-35.54
830.568	-45.37
830.74	-57.59
830.912	-10.43
831.084	-27.09
831.256	-8.8
831.428	-5.74
831.6	-20.18
831.772	-71.78
831.943	-64.16
832.115	-31.94
832.287	-8.85
832.459	22.83
832.631	42.41
832.803	54.08
832.975	64.17
833.146	46.96
833.318	50.94
833.49	67.14
833.662	51.97
833.833	20.93
834.005	27.62
834.177	27.38
834.348	25.52
834.52	18.63
834.692	25.43
834.863	17.91
835.035	24.98
835.206	-47.71
835.378	-20.69
835.549	-36.13
835.721	-22.13
835.892	-21.06
836.064	1.3
836.235	4.07
836.407	23.17
836.578	-11.15
836.749	-42.43
836.921	-72.74
837.092	-68.14
837.264	-71.22
837.435	-69.81
837.606	-31.41
837.777	2.36
837.949	7.83
838.12	20.74
838.291	32.54
838.462	29.55
838.633	6.7
838.805	2.59
838.976	12.07
839.147	-50.22
839.318	-61.61
839.489	-109.86
839.66	-95.71
839.831	-55.51
840.002	-22.99
840.173	-39.34
840.344	19
840.515	12.05
840.686	-133.73
840.857	-171.09
841.028	-108.13
841.199	-67.19
841.369	-60.26
841.54	-31.34
841.711	26.35
841.882	49.52
842.053	16.58
842.223	10.05
842.394	8.34
842.565	15.5
842.736	22.35
842.906	52.3
843.077	65.39
843.248	101.81
843.418	90.52
843.589	68.63
843.759	79.7
843.93	57.47
844.101	39.47
844.271	27.49
844.442	30.97
844.612	40.45
844.783	13.06
844.953	-4.52
845.123	7.16
845.294	34.74
845.464	-113.21
845.635	-9.9
845.805	47.02
845.975	39.49
846.146	-8.22
846.316	-13.41
846.486	6.89
846.656	26.6
846.827	19.87
846.997	23.97
847.167	49.34
847.337	31.75
847.507	-22.77
847.677	-35.25
847.848	9.64
848.018	8.4
848.188	8.97
848.358	-8.47
848.528	-10.31
848.698	-41.27
848.868	-102.79
849.038	-229.67
849.208	-84.06
849.378	-49.84
849.548	-44.89
849.718	-35
849.887	1.87
850.057	-1.69
850.227	-39.51
850.397	-36.17
850.567	-109.28
850.737	-254.89
850.906	-1040.31
851.076	-640.82
851.246	-522.12
851.415	-78.25
851.585	-47.66
851.755	-51.27
851.924	-24.14
852.094	-29.1
852.264	-116.43
852.433	-1065.63
852.603	-220.11
852.772	-173.46
852.942	-51.62
853.111	-40.43
853.281	-5.06
853.45	2.76
853.62	-53.66
853.789	-54.2
853.959	-14.55
854.128	-28.2
854.297	-34.82
854.467	-37.95
854.636	-30.5
854.805	26.9
854.975	40.85
855.144	87.6
855.313	263.46
855.482	-53.47
855.652	-141.99
855.821	-96.29
855.99	12.13
856.159	26.93
856.328	30.75
856.497	27.45
856.667	28.1
856.836	20.01
857.005	-7.95
857.174	-5.65
857.343	-40.15
857.512	-67.51
857.681	-87.02
857.85	-134.32
858.019	-111.49
858.188	-93.96
858.356	-86.76
858.525	-138.12
858.694	-124.39
858.863	-199.43
859.032	-159.04
859.201	-147.3
859.369	-123.53
859.538	-85.8
859.707	-52.35
859.876	-50.32
860.044	-105.43
860.213	-12.74
860.382	-14.94
860.55	-21.56
860.719	18.96
860.888	33.2
861.056	6.94
861.225	-0.66
861.393	50.41
861.562	31.58
861.73	-51.81
861.899	-90.18
862.067	-1214.66
862.236	-56.46
862.404	-190.56
862.572	-93.85
862.741	-45.53
862.909	-34.99
863.078	-158.95
863.246	-97.14
863.414	-104.85
863.582	-88.82
863.751	-101.21
863.919	-95.98
864.087	-69.94
864.255	-29.13
864.424	-277.79
864.592	-39.98
864.76	-53.98
864.928	-185.8
865.096	-206.77
865.264	-158.83
865.432	-1761.93
865.6	-54.63
865.768	-71.16
865.936	-75.57
866.104	-77.12
866.272	-123.2
866.44	-426.87
866.608	638.18
866.776	311.78
866.944	2681.98
867.112	-477.22
867.28	-172.91
867.448	-63.33
867.615	0.46
867.783	15.57
867.951	3.13
868.119	15.03
868.286	-18.74
868.454	-156.99
868.622	-154.24
868.789	-143.7
868.957	-2108.93
869.125	-1842.76
869.292	-106.45
869.46	-134.45
869.627	0.25
869.795	-22.55
869.963	-1.77
870.13	10.08
870.298	20.82
870.465	-85.77
870.632	-90.94
870.8	-61.54
870.967	-90.15
871.135	-149.69
871.302	-95.74
871.469	-98.51
871.637	-108.27
871.804	-65.53
871.971	-127.72
872.139	-426.16
872.306	-29.32
872.473	-61.81
872.64	-290.24
872.807	-23.78
872.975	52.4
873.142	-93.18
873.309	846.62
873.476	36.15
873.643	56.08
873.81	8.03
873.977	33.64
874.144	46.07
874.311	-34.88
874.478	-101.91
874.645	-125.82
874.812	-79.27
874.979	-55.86
875.146	-83.28
875.313	-83.55
875.48	-1.1
875.647	-12.81
875.813	-56.41
875.98	-24.17
876.147	-56.61
876.314	-133.42
876.481	1243.18
876.647	-1410.39
876.814	594.43
876.981	-120.48
877.147	-90.06
877.314	-16.05
877.481	-1.83
877.647	8.92
877.814	-44.75
877.98	-98.46
878.147	-40.82
878.314	13.67
878.48	-39.98
878.647	5.96
878.813	59.68
878.979	37.06
879.146	-10.31
879.312	-13.73
879.479	-82.93
879.645	-193.03
879.811	-357.18
879.978	-916.98
880.144	-229.56
880.31	-85.37
880.477	-266.64
880.643	-326.85
880.809	-142.34
880.975	-126.5
881.142	-958.41
881.308	-131.49
881.474	-81.01
881.64	-78.88
881.806	-161.08
881.972	-64.08
882.138	-66.85
882.304	-112.75
882.47	-251.79
882.636	-893.65
882.802	-286.07
882.968	-120.85
883.134	-72.32
883.3	-71.6
883.466	-28.88
883.632	1.26
883.798	-24.27
883.964	-41.52
884.129	-21.99
884.295	27.09
884.461	-49.84
884.627	-33.12
884.793	-43.61
884.958	-25.08
885.124	-111.88
885.29	-205.58
885.455	-427.31
885.621	-130.67
885.787	-183.87
885.952	-99.89
886.118	-91.07
886.283	-79.43
886.449	-206.14
886.614	-266.47
886.78	-564.71
886.945	2180.74
887.111	-911.13
887.276	-709.8
887.442	-873.86
887.607	-440.68
887.773	-275.56
887.938	-290.93
888.103	-361.69
888.269	-327.48
888.434	-456.35
888.599	-196.5
888.764	-54.74
888.93	-33.15
889.095	-50.86
889.26	-80.86
889.425	-69.03
889.59	-120.67
889.756	-130.4
889.921	-63.2
890.086	-21.78
890.251	-24.52
890.416	-150.63
890.581	-1502.02
890.746	296.16
890.911	553.03
891.076	222.98
891.241	-565.11
891.406	-32.51
891.571	-90.58
891.736	-355.62
891.901	-537.39
892.065	568.41
892.23	145.19
892.395	184
892.56	297.76
892.725	-387.7
892.889	-1129.88
893.054	-123.42
893.219	-66.48
893.384	-23.78
893.548	-97.48
893.713	-119.69
893.878	-101.05
