Data from Ofra_PS_T2_2A_4HS15_Reflection_3.txt Node
Date: Wed Jul 21 17:14:09 EDT 2021
User: Adam
Spectrometer: FLMT01687
Trigger mode: 0
Integration Time (sec): 1.100000E0
Scans to average: 2
Electric dark correction enabled: true
Nonlinearity correction enabled: false
Boxcar width: 2
XAxis mode: Wavelengths
Number of Pixels in Spectrum: 3648
>>>>>Begin Spectral Data<<<<<
179.494	413.6
179.716	496.47
179.937	487.9
180.158	479
180.38	678.12
180.601	238.12
180.823	106.39
181.044	-45.97
181.265	162.5
181.486	81.77
181.708	103
181.929	377.55
182.15	-197.18
182.372	181.76
182.593	1.39
182.814	22.38
183.035	74.26
183.257	83.74
183.478	12.98
183.699	84.26
183.92	33.24
184.141	30.01
184.363	-47.87
184.584	-20.59
184.805	-28.23
185.026	-11.7
185.247	-4.26
185.468	-3.72
185.689	0.08
185.91	9.52
186.132	22.15
186.353	13.16
186.574	62.43
186.795	44.57
187.016	0.43
187.237	-13.93
187.458	-62.96
187.679	-74.44
187.9	-55.86
188.121	-22.43
188.342	-23.78
188.563	54.44
188.784	79.78
189.005	83.87
189.226	107.5
189.447	51.92
189.667	-222.33
189.888	-398.52
190.109	-1697.4
190.33	-912.9
190.551	-1307.96
190.772	-281.6
190.993	-342
191.214	-204.8
191.434	-161.28
191.655	-46.26
191.876	-93.61
192.097	-63.29
192.318	-151.64
192.538	-232.84
192.759	-214.13
192.98	-135.81
193.201	-62
193.421	-35.26
193.642	3.98
193.863	18.32
194.083	-0.13
194.304	-27.91
194.525	-20.27
194.745	-39.87
194.966	-48.6
195.187	-43.51
195.407	-55.38
195.628	-154.06
195.848	-151.56
196.069	-144.74
196.29	-77.48
196.51	-77.98
196.731	-46.49
196.951	-37.15
197.172	-73.59
197.392	-123.75
197.613	-123.05
197.833	-150.61
198.054	-153.76
198.274	-100.96
198.495	-106.59
198.715	-71.15
198.936	-99.72
199.156	-86.65
199.377	-177.37
199.597	-164.14
199.817	-175.95
200.038	-91.44
200.258	-181.85
200.479	-112.47
200.699	-134.98
200.919	-77.58
201.14	-102.08
201.36	-83.43
201.58	-15.68
201.801	22.09
202.021	1.01
202.241	15.31
202.461	11.25
202.682	-85.09
202.902	-159.84
203.122	-94.04
203.342	-84.67
203.563	-24.35
203.783	18.56
204.003	-27.72
204.223	-75.69
204.443	-4.56
204.663	-77.83
204.884	-62.85
205.104	-15.13
205.324	34.84
205.544	22.28
205.764	37.57
205.984	30.68
206.204	36.46
206.424	29.16
206.644	-32.02
206.864	2.46
207.084	-47.48
207.304	-44.41
207.525	-246.25
207.745	-109.57
207.964	-85.17
208.184	-92.83
208.404	-127.14
208.624	-89.32
208.844	-97.45
209.064	-371.66
209.284	-442.75
209.504	-239.02
209.724	-88.3
209.944	-60.4
210.164	-17.34
210.384	8.32
210.604	-3.16
210.823	-70.21
211.043	-75.17
211.263	-66.43
211.483	-80.03
211.703	-131.31
211.922	-92.03
212.142	-35.07
212.362	-24.02
212.582	-27.28
212.801	-2.09
213.021	-40.77
213.241	-48.22
213.461	-81.58
213.68	-103.71
213.9	-92.34
214.12	-45.71
214.339	-104.34
214.559	-84.75
214.779	-17.27
214.998	-14.29
215.218	-71.49
215.438	-54.85
215.657	-54.81
215.877	-75.4
216.096	-35.19
216.316	-17.22
216.535	-21.72
216.755	-16.76
216.974	-106.97
217.194	-197.27
217.413	-189.69
217.633	-219.67
217.852	-395.39
218.072	-183.71
218.291	-117.06
218.511	-56.49
218.73	-60.48
218.95	-37.8
219.169	-36.49
219.389	-64.33
219.608	-60.08
219.827	-46.89
220.047	-42.1
220.266	-30.05
220.485	-36.25
220.705	-26.86
220.924	-59.74
221.143	-16.95
221.363	-40.2
221.582	-23.77
221.801	-47.56
222.021	-11
222.24	-90.78
222.459	-13.25
222.678	-11.82
222.897	4.91
223.117	-14.65
223.336	-21.68
223.555	-44.38
223.774	-20.9
223.993	-27.68
224.213	9.6
224.432	-9
224.651	24
224.87	8.82
225.089	17.42
225.308	6.89
225.527	39.89
225.746	26.28
225.965	3.09
226.184	-22.98
226.404	-4.18
226.623	-43.94
226.842	-28.68
227.061	1.39
227.28	10.48
227.499	-16.59
227.718	14.07
227.936	-5.64
228.155	3.09
228.374	-15.22
228.593	5.81
228.812	-31.32
229.031	-25.63
229.25	-87.35
229.469	-90.56
229.688	-84.67
229.907	-20.26
230.125	-6.15
230.344	9.71
230.563	23.53
230.782	36.16
231.001	-36.5
231.22	-51.01
231.438	-15.05
231.657	-13.48
231.876	-27.8
232.095	9.52
232.313	32.22
232.532	6.26
232.751	-31.2
232.969	-40.71
233.188	-96.49
233.407	-42.09
233.625	-26.87
233.844	-21.83
234.063	-27.32
234.281	-0.31
234.5	-19.91
234.719	-19.99
234.937	-10.83
235.156	7.41
235.374	13.09
235.593	4.99
235.811	13.83
236.03	1.59
236.249	-51.24
236.467	-51.55
236.686	-15.58
236.904	0.89
237.123	-21.23
237.341	-5.52
237.559	-11.04
237.778	-24.46
237.996	-61.75
238.215	0.06
238.433	9.47
238.652	21.38
238.87	-2.28
239.088	11.12
239.307	-13.35
239.525	-29.28
239.743	-59.62
239.962	-39.74
240.18	-74.43
240.398	-96.52
240.617	-80.4
240.835	-64.69
241.053	-45.38
241.271	4.62
241.49	19
241.708	-26.94
241.926	-37.61
242.144	-31.56
242.363	-57.55
242.581	-82.39
242.799	-41.84
243.017	-22.59
243.235	-49.47
243.453	-35.51
243.672	-24.91
243.89	-27.86
244.108	-33.19
244.326	-7.21
244.544	-23.02
244.762	-26.86
244.98	-4.85
245.198	0.48
245.416	-29.61
245.634	-23.7
245.852	-40.72
246.07	-72.29
246.288	-88.98
246.506	-120.02
246.724	-92.03
246.942	-88.08
247.16	-43.67
247.378	-25.06
247.596	-5.77
247.814	-17.12
248.032	-41.57
248.25	-52.67
248.468	-32.78
248.685	-27.09
248.903	0.22
249.121	-0.11
249.339	-25.09
249.557	-42.99
249.775	-26.42
249.992	-98.49
250.21	-72.78
250.428	-50.82
250.646	-73.9
250.863	-108.46
251.081	-55.21
251.299	-42.25
251.517	-47.7
251.734	-41.37
251.952	-20.41
252.17	-24.96
252.387	-16.34
252.605	-20.21
252.823	-11.75
253.04	4.84
253.258	18.11
253.475	17.42
253.693	33.9
253.911	23.52
254.128	19.37
254.346	26.59
254.563	5.02
254.781	-22.65
254.998	-33.69
255.216	-26.9
255.433	-15.57
255.651	19.94
255.868	61.47
256.086	72.94
256.303	32.06
256.521	12.8
256.738	-2.64
256.956	-33.17
257.173	-52.75
257.39	-57.73
257.608	-90.17
257.825	-27.22
258.043	11.84
258.26	22.56
258.477	64.95
258.695	68.53
258.912	4
259.129	1.14
259.346	-35.87
259.564	-75.1
259.781	-111.54
259.998	-31.3
260.216	-12.09
260.433	45.01
260.65	32.78
260.867	57.28
261.084	23.44
261.302	12.61
261.519	-23.21
261.736	-49.39
261.953	-59.6
262.17	-24.19
262.387	-74.91
262.604	-107.24
262.822	-102.8
263.039	-101.03
263.256	-168.94
263.473	-95.53
263.69	-56.88
263.907	-1.96
264.124	2.55
264.341	7.36
264.558	-2.23
264.775	11.68
264.992	-13.56
265.209	12.56
265.426	38.5
265.643	40.17
265.86	40.42
266.077	34.55
266.294	2.95
266.51	-67.94
266.727	-79.45
266.944	-67.59
267.161	-74.36
267.378	-78.22
267.595	-23.8
267.812	-42.28
268.028	-70.94
268.245	-16.21
268.462	-41.03
268.679	-62.79
268.896	2.48
269.112	6.02
269.329	-14.79
269.546	-5.99
269.763	-8.99
269.979	-47.24
270.196	-45.97
270.413	-86.21
270.629	-116.26
270.846	-126.25
271.063	-123.99
271.279	-150.04
271.496	-130.36
271.712	-71.41
271.929	-53.64
272.146	-56.61
272.362	-24.18
272.579	27.79
272.795	32.15
273.012	24.33
273.228	26.11
273.445	-11.7
273.661	-60.14
273.878	-101.94
274.094	-70.7
274.311	-98.49
274.527	-5.14
274.744	6.34
274.96	3.05
275.177	-1.6
275.393	18.44
275.609	-9.63
275.826	18.95
276.042	8.11
276.259	-11.71
276.475	4.69
276.691	13.6
276.908	-25.12
277.124	4.16
277.34	19.58
277.557	6.73
277.773	-14.01
277.989	0.06
278.205	-13.11
278.422	-1.29
278.638	3.25
278.854	35.69
279.07	21.91
279.286	14.39
279.503	-7.53
279.719	-21.76
279.935	-68.93
280.151	-72.1
280.367	-52.06
280.583	-90.23
280.799	-65.47
281.016	-88.64
281.232	-35.73
281.448	-37.09
281.664	-1.83
281.88	-39.37
282.096	-8.73
282.312	12.27
282.528	22.27
282.744	5.76
282.96	27.74
283.176	16.48
283.392	-12.87
283.608	-17.98
283.824	-8.39
284.04	2.41
284.256	15.84
284.471	12.67
284.687	11
284.903	31.52
285.119	49.21
285.335	12.72
285.551	11.09
285.767	-7.57
285.982	-19.18
286.198	-74.19
286.414	7.95
286.63	19.7
286.846	46.95
287.061	16.94
287.277	42.83
287.493	0.19
287.709	3.6
287.924	-16.98
288.14	10.86
288.356	9.76
288.571	43.98
288.787	29.68
289.003	25.52
289.218	10.26
289.434	-38.88
289.65	-50.78
289.865	-58.83
290.081	-17.56
290.296	3.94
290.512	13.87
290.727	-8.32
290.943	-10.14
291.159	-30.11
291.374	-45.37
291.59	-68.48
291.805	-58.94
292.021	-46.98
292.236	-60.8
292.451	-36.67
292.667	-14.41
292.882	-0.42
293.098	-7.07
293.313	-15.94
293.529	-50.78
293.744	-65.23
293.959	-75.83
294.175	-58.7
294.39	-16.08
294.605	8.11
294.821	42.85
295.036	47.72
295.251	39.8
295.467	11.89
295.682	-6.06
295.897	-79.54
296.112	-80.6
296.328	-64.22
296.543	-81.89
296.758	-74.69
296.973	-17.92
297.188	17.86
297.404	-0.94
297.619	-9.94
297.834	-18.72
298.049	-41.09
298.264	-72.07
298.479	-17.1
298.694	-10.89
298.909	14.5
299.125	16.51
299.34	32.52
299.555	-3.97
299.77	24.65
299.985	-39.71
300.2	-88.93
300.415	-114.52
300.63	-73.14
300.845	-86.22
301.06	-69.24
301.275	-27.25
301.49	-3.81
301.704	-16
301.919	-43.19
302.134	-47.41
302.349	-51.92
302.564	-132.41
302.779	-185.82
302.994	-128.68
303.209	-92.24
303.423	-59.95
303.638	9.93
303.853	-11.12
304.068	-26.81
304.283	-19.13
304.497	-30.97
304.712	-47.6
304.927	-17.86
305.142	-22.94
305.356	-24.11
305.571	-21.32
305.786	-22.88
306	-58.69
306.215	-43.2
306.43	-61.09
306.644	-56.17
306.859	-22.62
307.074	-0.41
307.288	-39.6
307.503	-41.28
307.717	-37.34
307.932	-34.36
308.147	-38.32
308.361	-2.47
308.576	-15.8
308.79	-57.26
309.005	-66.89
309.219	-70.17
309.434	-98.8
309.648	-87.68
309.863	-57.21
310.077	-50.5
310.292	-41.59
310.506	-23.62
310.72	-3.62
310.935	17.24
311.149	3.4
311.364	22.26
311.578	35.38
311.792	26.55
312.007	20.91
312.221	15.45
312.435	15.15
312.649	-8.93
312.864	32.12
313.078	41.87
313.292	108.43
313.507	87.02
313.721	140.16
313.935	47.29
314.149	9.84
314.363	-11.71
314.578	-12.34
314.792	-15.1
315.006	-34.79
315.22	-4.09
315.434	6.3
315.648	13.71
315.862	12.81
316.077	15.07
316.291	-12.19
316.505	-23.18
316.719	-35.97
316.933	-36.23
317.147	-36.36
317.361	-76.94
317.575	-91.1
317.789	-135.61
318.003	-236.82
318.217	-170.61
318.431	-65.71
318.645	-4.4
318.859	-1.34
319.073	41.15
319.287	25.06
319.5	-2.53
319.714	-56.62
319.928	-82.45
320.142	-137.53
320.356	-84.79
320.57	-36.57
320.784	-50.26
320.997	-46.88
321.211	-33.37
321.425	-91.61
321.639	-124.69
321.853	-39.62
322.066	-9.56
322.28	-15.36
322.494	-3.92
322.707	16.68
322.921	-12.51
323.135	-21.5
323.349	3.51
323.562	-14
323.776	-18.96
323.989	-18.93
324.203	-39.37
324.417	-67.32
324.63	-82.66
324.844	-101
325.057	-92.67
325.271	-53.26
325.485	-16.72
325.698	7.9
325.912	30.4
326.125	3.4
326.339	-3.13
326.552	-25.74
326.766	-27.69
326.979	-16.77
327.193	33.81
327.406	27.24
327.619	18.4
327.833	32.14
328.046	7.31
328.26	-42.77
328.473	-22.13
328.686	-60.75
328.9	-56.91
329.113	-50.77
329.326	-69.21
329.54	-48.47
329.753	-53.25
329.966	-117.99
330.179	-96.19
330.393	-40.31
330.606	-31.79
330.819	0.62
331.032	34.8
331.246	33.73
331.459	48.11
331.672	33.48
331.885	28.12
332.098	-9.22
332.311	-16.49
332.525	-78.93
332.738	-84.57
332.951	-48.76
333.164	3.92
333.377	12.92
333.59	36.24
333.803	43.57
334.016	19.58
334.229	-8.01
334.442	4.15
334.655	15.47
334.868	27.6
335.081	34.69
335.294	29.66
335.507	-5.02
335.72	-18.56
335.933	-36.31
336.146	-45.78
336.359	-47.36
336.572	-66.85
336.785	-92.88
336.997	-76.47
337.21	-49.5
337.423	-48.93
337.636	-40.56
337.849	-18.15
338.062	-25.42
338.274	-41.47
338.487	-59.82
338.7	-36.58
338.913	-81.42
339.125	-110.35
339.338	-167.31
339.551	-116.68
339.763	-82.97
339.976	-45.8
340.189	-4.73
340.402	30.44
340.614	19.41
340.827	6.93
341.039	-11.06
341.252	-23.92
341.465	-11.4
341.677	-14.09
341.89	-68.74
342.102	-24.09
342.315	-46.32
342.527	-69.79
342.74	-64.06
342.952	-18.48
343.165	-24.96
343.377	5.17
343.59	-14.27
343.802	5.67
344.015	9.1
344.227	-4.84
344.44	3.04
344.652	14.52
344.864	-4.7
345.077	13.28
345.289	25.5
345.502	24.17
345.714	11.87
345.926	20.99
346.139	8.71
346.351	14.85
346.563	12.34
346.775	26.46
346.988	8.07
347.2	-2.16
347.412	-53.14
347.624	-70.74
347.837	-98.65
348.049	-73.85
348.261	-34.59
348.473	-15.03
348.685	-18.44
348.897	-11.47
349.11	-24.61
349.322	-36.13
349.534	-16.91
349.746	-19.64
349.958	-10.38
350.17	-5.41
350.382	-2.71
350.594	-17.46
350.806	-3.99
351.018	5.87
351.23	-17.69
351.442	-65.02
351.654	-53.99
351.866	-60.07
352.078	-63.54
352.29	-25.78
352.502	3.36
352.714	4.65
352.926	-2.27
353.138	-2.32
353.35	-9.82
353.561	-12.51
353.773	-34.54
353.985	-23.23
354.197	-32.89
354.409	-42.49
354.621	-44.35
354.832	-24.11
355.044	-30.35
355.256	-23.97
355.468	-10.39
355.679	-23.74
355.891	-8.49
356.103	-20.59
356.314	-25.83
356.526	-38.73
356.738	-32.99
356.949	-57.5
357.161	-33
357.373	-31.36
357.584	-31.73
357.796	-16.67
358.008	-21.88
358.219	0.32
358.431	7.06
358.642	12.64
358.854	20.2
359.065	11.61
359.277	-21.93
359.488	-44.19
359.7	-61.81
359.911	-92.27
360.123	-52.39
360.334	-66.32
360.546	-78.73
360.757	-52.6
360.969	-15.83
361.18	-21.81
361.391	-2.63
361.603	3.65
361.814	16.95
362.025	-12.64
362.237	-23.47
362.448	-0.11
362.659	20.17
362.871	6.22
363.082	10.17
363.293	12.34
363.504	-10.83
363.716	-44.36
363.927	-55.47
364.138	-69.49
364.349	-80.69
364.56	-68.4
364.772	-52.62
364.983	-26.57
365.194	-27.96
365.405	-7.49
365.616	11.27
365.827	6.1
366.038	-17.17
366.25	-19.31
366.461	-55.68
366.672	-40.24
366.883	-10.43
367.094	4.32
367.305	2.7
367.516	11.5
367.727	-21.3
367.938	-42.72
368.149	-47.4
368.36	-22.77
368.571	-16.59
368.781	-26.37
368.992	-40.24
369.203	-65.64
369.414	-100.88
369.625	-114.88
369.836	-101.58
370.047	-121.13
370.258	-95.53
370.468	-92.11
370.679	-105.48
370.89	-93.72
371.101	-64.51
371.312	-69.86
371.522	-55.81
371.733	-38.33
371.944	-25.94
372.155	-15.03
372.365	-23.64
372.576	-27.43
372.787	-33.3
372.997	-61.19
373.208	-58.97
373.419	-19.4
373.629	-60.59
373.84	-53.82
374.05	-67.44
374.261	-68.39
374.472	-101.91
374.682	-33.3
374.893	-39.97
375.103	6.78
375.314	-2.94
375.524	0.16
375.735	7.09
375.945	9.35
376.156	-21.52
376.366	-17.49
376.577	-11.61
376.787	-28.31
376.997	-13.42
377.208	-1
377.418	-6.25
377.629	-0.32
377.839	5.86
378.049	-3.56
378.26	2.69
378.47	10.86
378.68	-1.03
378.89	-11.78
379.101	-12.02
379.311	-45.98
379.521	-71.48
379.732	-77.75
379.942	-68.76
380.152	-93.7
380.362	-54.97
380.572	-46.65
380.783	-21.61
380.993	-9.59
381.203	1.07
381.413	16.19
381.623	16.97
381.833	11.16
382.043	-7.69
382.253	-11.02
382.463	-15.39
382.674	-19.35
382.884	-40.56
383.094	-33.44
383.304	-25.79
383.514	-24.22
383.724	-13.94
383.934	-16.04
384.144	-30.51
384.353	-41.93
384.563	-37.88
384.773	-35.94
384.983	-36.25
385.193	-6.43
385.403	3.33
385.613	-3.16
385.823	-11.52
386.033	-8.02
386.242	-19.49
386.452	-20.31
386.662	-26.67
386.872	-16.64
387.082	-19.42
387.291	-25.32
387.501	-29.69
387.711	-23.23
387.921	-26.2
388.13	-24.89
388.34	-8.87
388.55	-12.19
388.759	-6.8
388.969	-4.13
389.179	-6.07
389.388	-12.12
389.598	-6.35
389.807	-15.88
390.017	-17.19
390.227	-10.95
390.436	-9.78
390.646	-9.63
390.855	-6.04
391.065	-4.03
391.274	-7.27
391.484	-10.16
391.693	-7.03
391.903	-5.54
392.112	-1.93
392.322	1.21
392.531	5.81
392.74	5.5
392.95	1.17
393.159	-1.95
393.369	-1.68
393.578	-3.92
393.787	-5.34
393.997	-3.08
394.206	-3.55
394.415	-4.99
394.625	-5.57
394.834	-5.79
395.043	-3.11
395.252	-0.71
395.462	1.56
395.671	4.31
395.88	4.87
396.089	4.95
396.298	3.09
396.508	2.48
396.717	1.92
396.926	2.05
397.135	1.18
397.344	1.6
397.553	2.86
397.762	3.88
397.971	3.12
398.181	3.48
398.39	2.71
398.599	2.22
398.808	2
399.017	3.95
399.226	4.82
399.435	5.93
399.644	5.63
399.853	4.45
400.062	3.83
400.27	3.01
400.479	2.39
400.688	2.38
400.897	2.92
401.106	2.59
401.315	2.84
401.524	3.29
401.733	3.5
401.941	3.61
402.15	3.81
402.359	3.68
402.568	3.88
402.777	4.14
402.985	4.11
403.194	3.98
403.403	4.2
403.612	3.8
403.82	3.54
404.029	3.68
404.238	3.8
404.446	3.81
404.655	3.79
404.864	3.67
405.072	3.47
405.281	3.57
405.489	3.25
405.698	3.31
405.906	3.39
406.115	3.33
406.324	3.21
406.532	3.48
406.741	3.75
406.949	3.79
407.158	3.82
407.366	3.83
407.574	3.67
407.783	3.65
407.991	3.41
408.2	3.53
408.408	3.42
408.617	3.43
408.825	3.19
409.033	3.31
409.242	3.39
409.45	3.68
409.658	3.59
409.867	3.78
410.075	3.66
410.283	3.47
410.491	3.16
410.7	3.05
410.908	3.02
411.116	3.31
411.324	3.29
411.533	3.28
411.741	3.68
411.949	3.64
412.157	3.36
412.365	3.4
412.573	3.52
412.781	3.44
412.99	3.28
413.198	3.49
413.406	3.56
413.614	3.59
413.822	3.37
414.03	3.35
414.238	3.08
414.446	3.15
414.654	2.83
414.862	3.01
415.07	3.15
415.278	3.34
415.486	3.05
415.694	3.32
415.902	3.21
416.109	3.07
416.317	3.05
416.525	2.94
416.733	2.84
416.941	2.98
417.149	3.06
417.357	3.07
417.564	3.39
417.772	3.49
417.98	3.26
418.188	3.18
418.395	3.2
418.603	3.19
418.811	2.95
419.019	2.99
419.226	3.25
419.434	3.23
419.642	3.07
419.849	3.16
420.057	3.23
420.265	2.98
420.472	2.88
420.68	2.8
420.887	2.75
421.095	2.79
421.302	2.86
421.51	3.01
421.717	3.22
421.925	3.19
422.132	3.01
422.34	2.79
422.547	2.73
422.755	2.52
422.962	2.56
423.17	2.53
423.377	2.59
423.585	2.62
423.792	2.59
423.999	2.63
424.207	2.68
424.414	2.85
424.621	2.76
424.829	2.75
425.036	2.73
425.243	2.8
425.451	2.58
425.658	2.41
425.865	2.65
426.072	2.79
426.28	3.06
426.487	3.01
426.694	3.14
426.901	2.94
427.108	2.72
427.315	2.46
427.523	2.76
427.73	2.74
427.937	2.69
428.144	2.66
428.351	2.65
428.558	2.66
428.765	2.6
428.972	2.56
429.179	2.75
429.386	3.05
429.593	2.86
429.8	2.82
430.007	3.09
430.214	3.01
430.421	2.69
430.628	2.67
430.835	2.53
431.042	2.63
431.249	2.79
431.456	2.82
431.662	2.95
431.869	3.33
432.076	3.35
432.283	3.31
432.49	3.3
432.697	3.29
432.903	3.01
433.11	2.87
433.317	2.98
433.524	3.29
433.73	3.21
433.937	3.52
434.144	3.51
434.35	3.43
434.557	3.15
434.764	3.23
434.97	3.03
435.177	3.13
435.384	3.02
435.59	3.14
435.797	3.37
436.003	3.51
436.21	3.4
436.416	3.54
436.623	3.46
436.829	3.4
437.036	3.44
437.242	3.47
437.449	3.32
437.655	3.45
437.862	3.4
438.068	3.39
438.275	3.54
438.481	3.74
438.687	3.62
438.894	3.62
439.1	3.65
439.307	3.75
439.513	3.7
439.719	3.69
439.926	3.75
440.132	3.68
440.338	3.42
440.544	3.61
440.751	3.67
440.957	3.78
441.163	3.71
441.369	3.92
441.575	3.63
441.782	3.57
441.988	3.4
442.194	3.46
442.4	3.44
442.606	3.77
442.812	3.95
443.018	3.94
443.224	3.94
443.431	3.91
443.637	3.65
443.843	3.54
444.049	3.65
444.255	3.57
444.461	3.66
444.667	3.76
444.873	3.91
445.079	3.86
445.284	3.99
445.49	3.72
445.696	3.55
445.902	3.4
446.108	3.34
446.314	3.31
446.52	3.49
446.726	3.73
446.931	3.82
447.137	3.87
447.343	3.91
447.549	3.82
447.755	3.7
447.96	3.7
448.166	3.69
448.372	3.61
448.578	3.68
448.783	3.61
448.989	3.71
449.195	3.86
449.4	3.85
449.606	3.82
449.812	3.8
450.017	3.75
450.223	3.62
450.428	3.59
450.634	3.74
450.84	3.87
451.045	3.77
451.251	3.72
451.456	3.94
451.662	3.94
451.867	3.96
452.073	4.03
452.278	4.21
452.483	4.31
452.689	4.22
452.894	4.26
453.1	4.24
453.305	4.12
453.51	4.03
453.716	3.95
453.921	3.95
454.127	3.93
454.332	3.93
454.537	3.81
454.742	3.84
454.948	3.86
455.153	3.95
455.358	4.09
455.563	4.32
455.769	4.4
455.974	4.32
456.179	4.14
456.384	4.05
456.589	3.95
456.795	3.81
457	3.82
457.205	4.07
457.41	4.11
457.615	4.08
457.82	4.21
458.025	4.22
458.23	4.1
458.435	4.13
458.64	4.13
458.845	4.24
459.05	4.23
459.255	4.29
459.46	4.19
459.665	4.2
459.87	4.18
460.075	4.2
460.28	4.21
460.485	4.31
460.69	4.29
460.895	4.11
461.099	4.07
461.304	4.16
461.509	4.16
461.714	4.13
461.919	4.31
462.123	4.26
462.328	4.21
462.533	4.12
462.738	4.23
462.942	4.19
463.147	4.3
463.352	4.31
463.556	4.4
463.761	4.37
463.966	4.41
464.17	4.31
464.375	4.24
464.58	4.21
464.784	4.19
464.989	4.08
465.193	4.17
465.398	4.19
465.602	4.28
465.807	4.25
466.011	4.37
466.216	4.35
466.42	4.36
466.625	4.39
466.829	4.49
467.034	4.53
467.238	4.75
467.443	4.74
467.647	4.72
467.851	4.74
468.056	4.69
468.26	4.57
468.464	4.66
468.669	4.7
468.873	4.74
469.077	4.75
469.282	4.83
469.486	4.83
469.69	4.82
469.894	4.64
470.099	4.74
470.303	4.75
470.507	4.65
470.711	4.55
470.915	4.66
471.119	4.49
471.324	4.35
471.528	4.37
471.732	4.4
471.936	4.43
472.14	4.65
472.344	4.79
472.548	4.89
472.752	5.11
472.956	5.25
473.16	5.13
473.364	5.01
473.568	4.99
473.772	4.97
473.976	4.83
474.18	4.83
474.384	4.96
474.588	4.86
474.792	4.67
474.995	4.77
475.199	4.91
475.403	4.95
475.607	5.04
475.811	5.03
476.015	5.06
476.218	5.05
476.422	4.94
476.626	5
476.83	5.15
477.033	5.07
477.237	4.92
477.441	4.91
477.644	4.84
477.848	4.81
478.052	4.79
478.255	4.81
478.459	4.88
478.663	5
478.866	4.98
479.07	5.04
479.273	5.17
479.477	5.23
479.681	5.24
479.884	5.25
480.088	5.18
480.291	5.15
480.495	5.11
480.698	5.12
480.901	5.2
481.105	5.35
481.308	5.33
481.512	5.29
481.715	5.27
481.919	5.28
482.122	5.23
482.325	5.21
482.529	5.28
482.732	5.31
482.935	5.2
483.138	5.19
483.342	5.34
483.545	5.37
483.748	5.38
483.952	5.46
484.155	5.55
484.358	5.53
484.561	5.48
484.764	5.47
484.967	5.56
485.171	5.65
485.374	5.56
485.577	5.69
485.78	5.72
485.983	5.64
486.186	5.48
486.389	5.46
486.592	5.41
486.795	5.42
486.998	5.39
487.201	5.51
487.404	5.57
487.607	5.63
487.81	5.66
488.013	5.75
488.216	5.64
488.419	5.62
488.622	5.56
488.825	5.46
489.028	5.36
489.231	5.37
489.433	5.34
489.636	5.18
489.839	5.17
490.042	5.14
490.245	5.14
490.447	5.18
490.65	5.25
490.853	5.27
491.056	5.35
491.258	5.42
491.461	5.45
491.664	5.58
491.866	5.5
492.069	5.62
492.272	5.55
492.474	5.59
492.677	5.57
492.879	5.71
493.082	5.7
493.285	5.82
493.487	5.77
493.69	5.71
493.892	5.58
494.095	5.49
494.297	5.46
494.5	5.55
494.702	5.55
494.905	5.68
495.107	5.67
495.309	5.66
495.512	5.68
495.714	5.77
495.917	5.78
496.119	5.85
496.321	5.86
496.524	5.85
496.726	5.84
496.928	5.87
497.13	5.76
497.333	5.73
497.535	5.72
497.737	5.7
497.939	5.67
498.142	5.81
498.344	5.81
498.546	5.74
498.748	5.79
498.95	5.88
499.152	5.85
499.355	5.95
499.557	6.07
499.759	6.11
499.961	6.02
500.163	5.98
500.365	5.95
500.567	6.01
500.769	5.96
500.971	5.98
501.173	5.97
501.375	6
501.577	5.86
501.779	5.82
501.981	5.83
502.183	5.85
502.385	5.82
502.587	5.83
502.788	5.93
502.99	5.95
503.192	6.03
503.394	6.07
503.596	6.12
503.798	6.17
503.999	6.26
504.201	6.22
504.403	6.28
504.605	6.29
504.806	6.19
505.008	6.15
505.21	6.24
505.411	6.19
505.613	6.21
505.815	6.28
506.016	6.37
506.218	6.43
506.42	6.44
506.621	6.45
506.823	6.48
507.024	6.37
507.226	6.29
507.427	6.3
507.629	6.4
507.83	6.42
508.032	6.43
508.233	6.54
508.435	6.6
508.636	6.61
508.838	6.53
509.039	6.64
509.24	6.63
509.442	6.65
509.643	6.52
509.845	6.61
510.046	6.63
510.247	6.67
510.448	6.7
510.65	6.79
510.851	6.89
511.052	6.85
511.254	6.77
511.455	6.86
511.656	6.97
511.857	7.05
512.058	7.08
512.26	7.13
512.461	7.1
512.662	7.11
512.863	7.01
513.064	7.01
513.265	7.03
513.466	7.07
513.667	7.01
513.868	7.04
514.069	7.15
514.27	7.24
514.471	7.22
514.672	7.22
514.873	7.17
515.074	7.14
515.275	7.04
515.476	7.04
515.677	7.12
515.878	7.25
516.079	7.2
516.28	7.32
516.481	7.42
516.682	7.41
516.882	7.33
517.083	7.4
517.284	7.31
517.485	7.24
517.686	7.21
517.886	7.26
518.087	7.36
518.288	7.49
518.488	7.53
518.689	7.58
518.89	7.58
519.091	7.53
519.291	7.49
519.492	7.48
519.692	7.52
519.893	7.64
520.094	7.66
520.294	7.71
520.495	7.68
520.695	7.75
520.896	7.7
521.096	7.77
521.297	7.72
521.497	7.79
521.698	7.74
521.898	7.77
522.099	7.74
522.299	7.84
522.499	7.87
522.7	7.91
522.9	7.9
523.101	7.96
523.301	7.98
523.501	7.94
523.702	8
523.902	8.08
524.102	8.13
524.302	8.11
524.503	8.17
524.703	8.16
524.903	8.15
525.103	8.07
525.304	8.14
525.504	8.21
525.704	8.29
525.904	8.27
526.104	8.3
526.304	8.27
526.504	8.27
526.705	8.23
526.905	8.33
527.105	8.31
527.305	8.32
527.505	8.23
527.705	8.3
527.905	8.3
528.105	8.36
528.305	8.35
528.505	8.52
528.705	8.56
528.905	8.5
529.105	8.56
529.304	8.6
529.504	8.64
529.704	8.55
529.904	8.6
530.104	8.61
530.304	8.72
530.503	8.63
530.703	8.63
530.903	8.64
531.103	8.66
531.303	8.6
531.502	8.65
531.702	8.75
531.902	8.77
532.101	8.74
532.301	8.72
532.501	8.74
532.7	8.66
532.9	8.69
533.1	8.76
533.299	8.78
533.499	8.85
533.698	8.93
533.898	8.91
534.097	8.97
534.297	9.07
534.496	9.03
534.696	9.07
534.895	9.24
535.095	9.29
535.294	9.29
535.494	9.25
535.693	9.25
535.892	9.24
536.092	9.12
536.291	9.08
536.491	9.2
536.69	9.25
536.889	9.2
537.088	9.28
537.288	9.39
537.487	9.45
537.686	9.47
537.886	9.53
538.085	9.61
538.284	9.71
538.483	9.65
538.682	9.69
538.882	9.77
539.081	9.74
539.28	9.64
539.479	9.7
539.678	9.68
539.877	9.73
540.076	9.8
540.275	9.87
540.474	9.95
540.673	10.03
540.872	9.97
541.071	9.99
541.27	9.99
541.469	10
541.668	10.01
541.867	10.08
542.066	10.16
542.265	10.32
542.464	10.32
542.663	10.38
542.862	10.57
543.06	10.63
543.259	10.59
543.458	10.73
543.657	10.77
543.856	10.66
544.054	10.64
544.253	10.65
544.452	10.61
544.651	10.7
544.849	10.72
545.048	10.78
545.247	10.84
545.445	10.88
545.644	10.89
545.843	10.94
546.041	10.96
546.24	11.09
546.438	11.26
546.637	11.28
546.836	11.45
547.034	11.54
547.233	11.58
547.431	11.51
547.63	11.57
547.828	11.57
548.027	11.61
548.225	11.59
548.423	11.64
548.622	11.77
548.82	11.77
549.019	11.84
549.217	12.03
549.415	12.1
549.614	12.16
549.812	12.18
550.01	12.16
550.209	12.2
550.407	12.33
550.605	12.39
550.803	12.49
551.002	12.67
551.2	12.71
551.398	12.79
551.596	12.85
551.794	13.04
551.993	13.06
552.191	13.1
552.389	13.18
552.587	13.28
552.785	13.31
552.983	13.37
553.181	13.52
553.379	13.62
553.577	13.64
553.775	13.74
553.973	13.88
554.171	13.89
554.369	13.86
554.567	13.97
554.765	14.01
554.963	14.03
555.161	14.09
555.359	14.22
555.557	14.36
555.755	14.44
555.952	14.6
556.15	14.69
556.348	14.79
556.546	14.88
556.744	14.95
556.941	14.98
557.139	15.14
557.337	15.23
557.535	15.25
557.732	15.34
557.93	15.57
558.128	15.66
558.325	15.75
558.523	15.81
558.721	15.95
558.918	15.91
559.116	15.97
559.313	16.04
559.511	16.28
559.708	16.35
559.906	16.41
560.104	16.5
560.301	16.6
560.498	16.63
560.696	16.71
560.893	16.85
561.091	16.98
561.288	17.06
561.486	17.05
561.683	17.11
561.88	17.19
562.078	17.27
562.275	17.28
562.473	17.47
562.67	17.65
562.867	17.75
563.064	17.84
563.262	17.94
563.459	18.03
563.656	18.11
563.853	18.21
564.051	18.26
564.248	18.4
564.445	18.47
564.642	18.53
564.839	18.66
565.036	18.91
565.234	19.11
565.431	19.19
565.628	19.28
565.825	19.36
566.022	19.4
566.219	19.37
566.416	19.48
566.613	19.61
566.81	19.72
567.007	19.7
567.204	19.72
567.401	19.79
567.598	19.79
567.795	19.71
567.991	19.76
568.188	19.9
568.385	19.99
568.582	20.07
568.779	20.21
568.976	20.28
569.172	20.39
569.369	20.32
569.566	20.29
569.763	20.39
569.96	20.42
570.156	20.36
570.353	20.4
570.55	20.51
570.746	20.49
570.943	20.55
571.14	20.61
571.336	20.66
571.533	20.79
571.729	20.75
571.926	20.71
572.123	20.82
572.319	20.89
572.516	20.79
572.712	20.91
572.909	20.98
573.105	21.03
573.302	21.05
573.498	21.14
573.695	21.05
573.891	21.14
574.087	21.07
574.284	21.06
574.48	20.99
574.677	21.08
574.873	20.99
575.069	21.09
575.266	21.08
575.462	21.1
575.658	21.15
575.854	21.29
576.051	21.24
576.247	21.21
576.443	21.27
576.639	21.27
576.835	21.1
577.032	20.97
577.228	21.21
577.424	21.13
577.62	21.02
577.816	21.18
578.012	21.26
578.208	21.11
578.404	21.18
578.6	21.23
578.796	21.11
578.993	21.09
579.189	21.04
579.384	20.85
579.58	20.81
579.776	20.81
579.972	20.72
580.168	20.65
580.364	20.75
580.56	20.78
580.756	20.77
580.952	20.76
581.148	20.76
581.343	20.74
581.539	20.75
581.735	20.76
581.931	20.82
582.127	20.89
582.322	20.82
582.518	20.85
582.714	20.76
582.909	20.69
583.105	20.6
583.301	20.63
583.496	20.54
583.692	20.49
583.888	20.51
584.083	20.63
584.279	20.6
584.474	20.56
584.67	20.57
584.866	20.6
585.061	20.39
585.257	20.48
585.452	20.46
585.648	20.46
585.843	20.47
586.039	20.44
586.234	20.39
586.429	20.32
586.625	20.4
586.82	20.23
587.015	20.34
587.211	20.2
587.406	20.29
587.601	20.24
587.797	20.28
587.992	20.23
588.187	20.45
588.383	20.35
588.578	20.31
588.773	20.32
588.968	20.32
589.163	20.24
589.359	20.25
589.554	20.26
589.749	20.32
589.944	20.37
590.139	20.36
590.334	20.41
590.529	20.45
590.724	20.5
590.919	20.62
591.114	20.53
591.309	20.65
591.504	20.65
591.699	20.58
591.894	20.56
592.089	20.62
592.284	20.61
592.479	20.74
592.674	20.76
592.869	20.8
593.064	20.84
593.259	20.95
593.454	20.98
593.648	20.98
593.843	20.99
594.038	21.18
594.233	21.04
594.428	21.04
594.622	21.05
594.817	21.23
595.012	21.23
595.206	21.33
595.401	21.36
595.596	21.5
595.79	21.56
595.985	21.65
596.18	21.84
596.374	21.99
596.569	22.07
596.763	21.95
596.958	21.93
597.153	21.95
597.347	21.82
597.542	21.87
597.736	21.99
597.931	22.02
598.125	22
598.319	22.23
598.514	22.22
598.708	22.35
598.903	22.34
599.097	22.43
599.291	22.46
599.486	22.47
599.68	22.37
599.874	22.61
600.069	22.5
600.263	22.45
600.457	22.61
600.651	22.71
600.846	22.68
601.04	22.83
601.234	22.86
601.428	22.93
601.622	22.92
601.817	22.89
602.011	22.98
602.205	23.06
602.399	22.96
602.593	22.92
602.787	23.02
602.981	22.94
603.175	23.04
603.369	23.02
603.563	23.14
603.757	23.13
603.951	23.13
604.145	23.08
604.339	23.14
604.533	23
604.727	22.86
604.921	22.83
605.115	22.7
605.309	22.62
605.502	22.65
605.696	22.58
605.89	22.57
606.084	22.63
606.278	22.6
606.471	22.53
606.665	22.51
606.859	22.44
607.053	22.34
607.246	22.36
607.44	22.3
607.634	22.23
607.827	22.21
608.021	22.12
608.214	22.05
608.408	21.98
608.602	22.05
608.795	22.03
608.989	21.98
609.182	21.88
609.376	21.83
609.569	21.63
609.763	21.48
609.956	21.43
610.15	21.26
610.343	21.2
610.537	21.16
610.73	21.11
610.923	21.04
611.117	21.16
611.31	21.16
611.504	21.07
611.697	20.93
611.89	20.89
612.083	20.75
612.277	20.72
612.47	20.63
612.663	20.62
612.856	20.5
613.05	20.36
613.243	20.23
613.436	20.22
613.629	20.24
613.822	20.08
614.015	20.03
614.209	19.84
614.402	19.81
614.595	19.7
614.788	19.76
614.981	19.68
615.174	19.61
615.367	19.49
615.56	19.43
615.753	19.31
615.946	19.27
616.139	19.29
616.332	19.32
616.525	19.2
616.718	19.28
616.911	19.22
617.103	19.22
617.296	19.14
617.489	19.09
617.682	18.93
617.875	18.92
618.067	18.82
618.26	18.68
618.453	18.74
618.646	18.75
618.838	18.7
619.031	18.8
619.224	18.86
619.417	18.78
619.609	18.75
619.802	18.71
619.994	18.57
620.187	18.48
620.38	18.43
620.572	18.29
620.765	18.38
620.957	18.31
621.15	18.24
621.342	18.2
621.535	18.22
621.727	18.08
621.92	18.05
622.112	18
622.305	18.06
622.497	17.95
622.69	18.01
622.882	18.09
623.074	18.17
623.267	18.05
623.459	18.06
623.651	17.9
623.844	17.85
624.036	17.8
624.228	17.72
624.42	17.75
624.613	17.89
624.805	17.85
624.997	17.72
625.189	17.75
625.381	17.72
625.574	17.59
625.766	17.52
625.958	17.64
626.15	17.67
626.342	17.63
626.534	17.6
626.726	17.57
626.918	17.51
627.11	17.42
627.302	17.39
627.494	17.34
627.686	17.34
627.878	17.3
628.07	17.31
628.262	17.27
628.454	17.32
628.646	17.36
628.838	17.38
629.029	17.28
629.221	17.35
629.413	17.21
629.605	17.05
629.797	16.97
629.989	16.99
630.18	16.85
630.372	16.79
630.564	16.81
630.755	16.82
630.947	16.86
631.139	16.78
631.33	16.75
631.522	16.79
631.714	16.8
631.905	16.65
632.097	16.65
632.289	16.71
632.48	16.59
632.672	16.44
632.863	16.4
633.055	16.37
633.246	16.37
633.438	16.29
633.629	16.25
633.821	16.35
634.012	16.37
634.203	16.27
634.395	16.28
634.586	16.35
634.777	16.19
634.969	16.13
635.16	16.24
635.351	16.13
635.543	16.05
635.734	16.1
635.925	16.09
636.117	15.97
636.308	16.04
636.499	15.98
636.69	15.92
636.881	15.8
637.073	15.84
637.264	15.83
637.455	15.83
637.646	15.94
637.837	16.05
638.028	15.91
638.219	15.95
638.41	15.85
638.601	15.62
638.792	15.55
638.983	15.52
639.174	15.35
639.365	15.36
639.556	15.43
639.747	15.34
639.938	15.39
640.129	15.36
640.32	15.3
640.511	15.25
640.701	15.36
640.892	15.25
641.083	15.27
641.274	15.32
641.465	15.29
641.655	15.11
641.846	15.16
642.037	15.05
642.228	14.93
642.418	14.9
642.609	14.99
642.8	14.93
642.99	14.89
643.181	14.98
643.372	15.07
643.562	14.98
643.753	14.87
643.943	14.82
644.134	14.64
644.324	14.49
644.515	14.38
644.705	14.47
644.896	14.52
645.086	14.55
645.277	14.53
645.467	14.61
645.658	14.53
645.848	14.56
646.038	14.55
646.229	14.42
646.419	14.22
646.61	14.2
646.8	14.12
646.99	14.06
647.18	14.01
647.371	14.07
647.561	13.95
647.751	13.91
647.941	13.9
648.132	13.92
648.322	13.88
648.512	13.95
648.702	13.94
648.892	13.88
649.082	13.83
649.272	13.74
649.462	13.62
649.653	13.53
649.843	13.44
650.033	13.53
650.223	13.57
650.413	13.52
650.603	13.55
650.793	13.62
650.983	13.47
651.172	13.41
651.362	13.41
651.552	13.3
651.742	13.14
651.932	13.16
652.122	13.12
652.312	13.16
652.502	13.13
652.691	13.1
652.881	13.02
653.071	12.92
653.261	12.75
653.45	12.68
653.64	12.73
653.83	12.64
654.019	12.63
654.209	12.66
654.399	12.67
654.588	12.55
654.778	12.52
654.968	12.4
655.157	12.25
655.347	12.11
655.536	11.94
655.726	11.76
655.915	11.58
656.105	11.47
656.294	11.4
656.484	11.31
656.673	11.32
656.863	11.32
657.052	11.12
657.241	10.93
657.431	10.8
657.62	10.62
657.809	10.41
657.999	10.34
658.188	10.22
658.377	10
658.567	9.9
658.756	9.77
658.945	9.63
659.134	9.49
659.324	9.48
659.513	9.41
659.702	9.28
659.891	9.23
660.08	9.07
660.269	8.97
660.458	8.78
660.648	8.67
660.837	8.53
661.026	8.55
661.215	8.44
661.404	8.27
661.593	8.25
661.782	8.03
661.971	7.88
662.16	7.75
662.349	7.75
662.538	7.57
662.726	7.57
662.915	7.46
663.104	7.35
663.293	7.34
663.482	7.38
663.671	7.33
663.86	7.18
664.048	7.05
664.237	6.97
664.426	6.81
664.615	6.75
664.803	6.8
664.992	6.75
665.181	6.54
665.369	6.44
665.558	6.38
665.747	6.27
665.935	6.3
666.124	6.4
666.312	6.45
666.501	6.46
666.69	6.39
666.878	6.37
667.067	6.21
667.255	6.26
667.444	6.48
667.632	6.56
667.82	6.64
668.009	6.6
668.197	6.49
668.386	6.25
668.574	6.37
668.762	6.24
668.951	6.26
669.139	6.3
669.327	6.19
669.516	6.24
669.704	6.22
669.892	6.36
670.08	6.38
670.269	6.3
670.457	6.12
670.645	5.96
670.833	5.93
671.021	5.87
671.21	6.07
671.398	6.29
671.586	6.37
671.774	6.29
671.962	6.24
672.15	6.2
672.338	5.94
672.526	6.13
672.714	6.08
672.902	6.1
673.09	6.24
673.278	6.5
673.466	6.43
673.654	6.69
673.842	6.78
674.03	6.73
674.218	6.51
674.405	6.47
674.593	6.3
674.781	6.36
674.969	6.38
675.157	6.54
675.344	6.69
675.532	6.79
675.72	6.92
675.908	6.98
676.095	6.85
676.283	6.79
676.471	6.99
676.658	6.86
676.846	6.78
677.033	7.04
677.221	7.2
677.409	6.97
677.596	7.17
677.784	7.23
677.971	7.12
678.159	7.11
678.346	7.34
678.534	7.3
678.721	7.58
678.909	7.6
679.096	7.61
679.283	7.8
679.471	7.91
679.658	7.89
679.846	8.13
680.033	8.48
680.22	8.44
680.408	8.42
680.595	8.48
680.782	8.45
680.969	8.38
681.157	8.45
681.344	8.56
681.531	8.57
681.718	8.48
681.905	8.58
682.093	8.66
682.28	8.84
682.467	9.09
682.654	9.41
682.841	9.53
683.028	9.76
683.215	9.94
683.402	9.75
683.589	9.96
683.776	10.23
683.963	10.14
684.15	10.3
684.337	10.75
684.524	10.86
684.711	10.88
684.898	11.12
685.085	11.35
685.271	11.56
685.458	11.71
685.645	12
685.832	12.26
686.019	12.44
686.205	12.59
686.392	12.97
686.579	13.15
686.766	13.68
686.952	13.98
687.139	14.54
687.326	14.67
687.512	15.03
687.699	15.15
687.886	15.31
688.072	15.41
688.259	16.02
688.445	16.52
688.632	16.72
688.818	17.47
689.005	17.94
689.191	18.2
689.378	18.77
689.564	19.49
689.751	19.86
689.937	20.23
690.124	20.94
690.31	21.18
690.496	21.7
690.683	22.15
690.869	22.78
691.055	23.09
691.242	23.77
691.428	24.33
691.614	24.92
691.8	25.83
691.987	26.51
692.173	27.11
692.359	27.75
692.545	28.62
692.731	29.04
692.918	29.74
693.104	30.28
693.29	30.93
693.476	31.56
693.662	32.38
693.848	32.92
694.034	33.59
694.22	34.01
694.406	34.63
694.592	35.21
694.778	36.07
694.964	36.9
695.15	37.67
695.336	38.25
695.522	39.17
695.708	39.79
695.894	40.56
696.08	41.45
696.265	42.21
696.451	42.59
696.637	43.47
696.823	43.95
697.009	44.52
697.194	45.3
697.38	45.87
697.566	46.41
697.751	47.27
697.937	48.26
698.123	48.73
698.308	49.52
698.494	50.23
698.68	50.87
698.865	51.4
699.051	52.1
699.236	52.8
699.422	53.32
699.607	53.76
699.793	54.26
699.978	54.78
700.164	55.46
700.349	56.29
700.535	57.15
700.72	57.73
700.906	58.75
701.091	59.15
701.276	59.83
701.462	60.28
701.647	61.12
701.832	61.38
702.018	62.05
702.203	62.3
702.388	62.69
702.573	63.02
702.759	63.9
702.944	64.17
703.129	64.49
703.314	65.05
703.499	65.43
703.684	65.25
703.87	66.63
704.055	67.75
704.24	68.27
704.425	69.15
704.61	70.1
704.795	69.58
704.98	69.35
705.165	69.66
705.35	69.98
705.535	70.31
705.72	71.06
705.905	71.95
706.09	72.77
706.275	72.96
706.459	72.99
706.644	73.48
706.829	73.89
707.014	73.88
707.199	74.44
707.384	75.16
707.568	75.31
707.753	75.73
707.938	76.23
708.123	76.16
708.307	76.4
708.492	76.56
708.677	76.52
708.861	76.75
709.046	76.96
709.231	77.86
709.415	78.46
709.6	78.74
709.784	78.97
709.969	79.36
710.153	78.86
710.338	78.95
710.522	79.3
710.707	79.68
710.891	80.09
711.076	80.6
711.26	80.75
711.445	80.94
711.629	81.18
711.813	81.29
711.998	81.57
712.182	81.71
712.366	82.28
712.551	83.03
712.735	83.28
712.919	83.27
713.103	83.83
713.288	83.23
713.472	82.71
713.656	83.4
713.84	83.68
714.024	83.56
714.208	84.25
714.393	84.77
714.577	84.96
714.761	85.23
714.945	85.58
715.129	85.61
715.313	85.55
715.497	85.18
715.681	85.54
715.865	85.59
716.049	86.07
716.233	85.88
716.417	86.53
716.601	86.1
716.785	86.29
716.968	86.27
717.152	86.88
717.336	86.72
717.52	87.07
717.704	87.07
717.888	87.2
718.071	87.09
718.255	87.04
718.439	87.22
718.622	87.8
718.806	88.07
718.99	88.12
719.174	88.44
719.357	88.47
719.541	88.79
719.724	88.58
719.908	89.36
720.092	89.96
720.275	90.34
720.459	89.88
720.642	89.79
720.826	89.62
721.009	88.71
721.193	88.5
721.376	88.73
721.559	89.59
721.743	89.43
721.926	90.38
722.11	90.55
722.293	89.86
722.476	89.31
722.66	89.54
722.843	89.02
723.026	88.64
723.21	89.55
723.393	90.42
723.576	90.41
723.759	90.33
723.942	91.02
724.126	91
724.309	90.55
724.492	90.56
724.675	90.39
724.858	90.9
725.041	91.26
725.224	91.57
725.407	92.09
725.59	92.77
725.774	92.34
725.957	91.89
726.14	91.51
726.322	91.21
726.505	91.24
726.688	91.6
726.871	91.55
727.054	92.01
727.237	92.07
727.42	92.21
727.603	92.03
727.786	92.41
727.968	92.27
728.151	92.61
728.334	92.34
728.517	92.38
728.699	92.68
728.882	92.52
729.065	92.89
729.248	93.48
729.43	94.08
729.613	94.73
729.796	95.35
729.978	94.28
730.161	93.92
730.343	93.25
730.526	93.15
730.708	92.17
730.891	92.78
731.073	93.02
731.256	92.88
731.438	92.56
731.621	93.99
731.803	93.93
731.986	93.62
732.168	93.57
732.35	93.9
732.533	93.66
732.715	94.44
732.898	95.22
733.08	95.47
733.262	95.07
733.444	94.63
733.627	93.95
733.809	93.79
733.991	94.56
734.173	94.4
734.355	94.29
734.538	94.89
734.72	94.36
734.902	94.3
735.084	95.57
735.266	95.67
735.448	96.11
735.63	97.14
735.812	96.85
735.994	97.05
736.176	97.92
736.358	97.16
736.54	97.52
736.722	97.1
736.904	96.36
737.086	95.66
737.268	97.15
737.45	97.02
737.632	97.48
737.814	96.37
737.995	96.34
738.177	95.56
738.359	94.35
738.541	94.65
738.723	95.15
738.904	96.38
739.086	96.52
739.268	97.05
739.449	97.69
739.631	98.33
739.813	98.29
739.994	98.36
740.176	99.24
740.358	98.41
740.539	99.08
740.721	99.23
740.902	99.6
741.084	98.27
741.265	97.71
741.447	96.75
741.628	96.54
741.81	94.94
741.991	96.48
742.172	97.69
742.354	98.42
742.535	97.8
742.717	99.08
742.898	98.82
743.079	98.41
743.261	98.51
743.442	98.19
743.623	99.17
743.804	99.36
743.986	100.59
744.167	98.93
744.348	98.46
744.529	97.46
744.71	95.71
744.891	95.57
745.073	96.67
745.254	96.91
745.435	96.14
745.616	96.45
745.797	95.92
745.978	94.5
746.159	95.71
746.34	94.93
746.521	96.91
746.702	96
746.883	96.7
747.064	96.06
747.245	97.07
747.426	95.87
747.606	96.48
747.787	98.07
747.968	98.04
748.149	98.18
748.33	98.92
748.51	99.02
748.691	96.97
748.872	97.28
749.053	96.75
749.233	95.15
749.414	94.27
749.595	93.8
749.775	92.83
749.956	92.22
750.137	92.68
750.317	93.95
750.498	96.39
750.678	96.51
750.859	98.2
751.04	98.83
751.22	96.66
751.4	95.2
751.581	95.32
751.761	94.56
751.942	94.85
752.122	95.35
752.303	93.89
752.483	93.57
752.663	92.59
752.844	90
753.024	92.12
753.204	94.99
753.385	94.8
753.565	96.17
753.745	98
753.925	95.54
754.106	93.76
754.286	93.79
754.466	92.08
754.646	93.71
754.826	94.15
755.006	93.24
755.187	93.68
755.367	95.54
755.547	95.46
755.727	96.33
755.907	97.64
756.087	98.6
756.267	97.71
756.447	96.5
756.627	94.79
756.807	95.84
756.987	94.28
757.167	94.31
757.346	93.91
757.526	93.51
757.706	93.19
757.886	94.44
758.066	95.53
758.246	96.08
758.425	95.97
758.605	95.09
758.785	94.91
758.965	93.78
759.144	92.01
759.324	93.12
759.504	92.96
759.683	93.01
759.863	92.53
760.043	92.67
760.222	92.7
760.402	92.63
760.581	92.16
760.761	92.78
760.94	91.78
761.12	94.04
761.299	95.55
761.479	95.17
761.658	93.99
761.838	95.18
762.017	93.25
762.197	92.25
762.376	92.67
762.555	94.43
762.735	96.3
762.914	93.36
763.093	92.73
763.273	91.39
763.452	91.25
763.631	88.99
763.81	90.1
763.99	89.55
764.169	90.38
764.348	88.63
764.527	87.53
764.706	90.14
764.885	91.29
765.064	88.97
765.243	89.2
765.423	90.78
765.602	89.28
765.781	87.64
765.96	88.14
766.139	87.75
766.318	89.51
766.497	87.39
766.676	87.87
766.854	89.91
767.033	90.18
767.212	87.61
767.391	88.42
767.57	89.36
767.749	89.23
767.928	90.26
768.106	90.79
768.285	88.74
768.464	88.1
768.643	88.11
768.821	87.51
769	89.44
769.179	90.18
769.357	89.23
769.536	88.97
769.715	89.49
769.893	89.56
770.072	90.24
770.25	91.76
770.429	92.24
770.607	91.87
770.786	90.56
770.964	92.11
771.143	90.77
771.321	89.86
771.5	89.62
771.678	88.14
771.857	86.82
772.035	87.03
772.213	86.02
772.392	84.26
772.57	86.19
772.748	87.68
772.927	86.74
773.105	87.07
773.283	87.22
773.461	86.46
773.64	86.6
773.818	87.31
773.996	89.4
774.174	88.46
774.352	85.57
774.531	83.3
774.709	85.5
774.887	82.17
775.065	81.94
775.243	84.01
775.421	85.81
775.599	85.24
775.777	84.42
775.955	84.23
776.133	82.87
776.311	82.04
776.489	77.74
776.667	79.87
776.844	81.88
777.022	80.51
777.2	81.56
777.378	83.94
777.556	85.09
777.734	86.08
777.911	91.79
778.089	90.74
778.267	90.68
778.445	88.23
778.622	86.39
778.8	83.83
778.978	85.04
779.155	84.09
779.333	85.39
779.511	84.37
779.688	84.47
779.866	78.81
780.043	77.37
780.221	76.98
780.398	74.88
780.576	76.74
780.753	82.23
780.931	82.76
781.108	82.25
781.286	85.73
781.463	79.16
781.64	75.15
781.818	78.18
781.995	80.33
782.172	82.03
782.35	85.81
782.527	91.85
782.704	90.23
782.882	87.94
783.059	84.16
783.236	82.18
783.413	80.6
783.59	81.27
783.768	80.3
783.945	84.28
784.122	86.25
784.299	84.33
784.476	82.22
784.653	81.41
784.83	77.05
785.007	74.65
785.184	77.45
785.361	76.33
785.538	81.47
785.715	83.59
785.892	86.09
786.069	84.93
786.246	86.12
786.423	84.22
786.6	85.35
786.776	84.98
786.953	81.38
787.13	83.73
787.307	84.12
787.484	81.84
787.66	80.15
787.837	81.61
788.014	79.39
788.191	74.64
788.367	73.66
788.544	75.64
788.721	75.8
788.897	77.42
789.074	81.13
789.25	79.42
789.427	81.84
789.603	79.83
789.78	78.81
789.956	75.26
790.133	74.54
790.309	73.92
790.486	78.36
790.662	75.38
790.839	75.25
791.015	77.57
791.192	72.14
791.368	69.93
791.544	71.1
791.721	71.31
791.897	70.86
792.073	70.03
792.249	61.61
792.426	68
792.602	70.67
792.778	71.79
792.954	74.98
793.13	79.13
793.307	67.77
793.483	58.71
793.659	59.05
793.835	61.1
794.011	59.92
794.187	59.68
794.363	63.96
794.539	69.6
794.715	62.44
794.891	64.59
795.067	67.52
795.243	74.97
795.419	71.03
795.595	72.43
795.771	71.98
795.947	73.31
796.122	65.7
796.298	68.07
796.474	71.31
796.65	76.15
796.826	73.07
797.001	78.74
797.177	69.59
797.353	75.06
797.529	76.14
797.704	78.8
797.88	74.91
798.056	76.37
798.231	72.13
798.407	67.17
798.582	67.55
798.758	74.2
798.934	81.05
799.109	79.53
799.285	80.98
799.46	83.94
799.636	78.68
799.811	73.35
799.986	74.15
800.162	74.57
800.337	75.32
800.513	70.24
800.688	75.85
800.863	81.05
801.039	74.62
801.214	68.53
801.389	73.75
801.565	66.36
801.74	51.7
801.915	58.85
802.09	57.1
802.265	65.47
802.441	67.08
802.616	70.67
802.791	70.57
802.966	73.88
803.141	67.58
803.316	65.22
803.491	71.36
803.666	74.82
803.841	71.68
804.016	72.11
804.191	71.85
804.366	69.52
804.541	65.59
804.716	61.91
804.891	55.48
805.066	58.65
805.241	56.47
805.416	53.35
805.591	55.48
805.765	61.78
805.94	63.65
806.115	63.11
806.29	59.33
806.464	57.75
806.639	50
806.814	39.28
806.989	34.91
807.163	44.74
807.338	46.1
807.512	46.76
807.687	45.41
807.862	63.29
808.036	69.04
808.211	77.99
808.385	86.4
808.56	101.3
808.734	108.41
808.909	99.52
809.083	86.8
809.258	85.12
809.432	75.41
809.606	55.24
809.781	51.4
809.955	56.98
810.13	62.62
810.304	60.26
810.478	55.08
810.652	59.78
810.827	64.37
811.001	46.5
811.175	50.84
811.349	52.44
811.524	45.07
811.698	32.06
811.872	40.75
812.046	44.54
812.22	58.31
812.394	55.99
812.568	66.58
812.742	71.01
812.916	65.38
813.09	52.93
813.264	52.98
813.438	48.63
813.612	43.5
813.786	38.45
813.96	47.07
814.134	49.87
814.308	65.62
814.482	70.96
814.656	70.54
814.83	65.16
815.003	68.52
815.177	48.51
815.351	45.7
815.525	48.38
815.698	45.87
815.872	42.9
816.046	34.98
816.219	31.69
816.393	44.73
816.567	50.39
816.74	52.06
816.914	58.73
817.088	65.18
817.261	45.77
817.435	33.7
817.608	28.59
817.782	27.68
817.955	23.86
818.129	29.24
818.302	40.66
818.475	63.15
818.649	65.27
818.822	53.25
818.996	78.51
819.169	74.63
819.342	40.53
819.516	42.39
819.689	50
819.862	33.82
820.035	27.26
820.209	39.3
820.382	39.81
820.555	47.71
820.728	38.09
820.901	40.58
821.075	39.76
821.248	46.65
821.421	29.73
821.594	34.94
821.767	52.74
821.94	58.59
822.113	26.47
822.286	29.99
822.459	37.93
822.632	22.96
822.805	18.98
822.978	22.36
823.151	26.21
823.324	19.55
823.496	-7.83
823.669	-26.9
823.842	1.52
824.015	-7.06
824.188	-27.17
824.361	-11.39
824.533	-5.27
824.706	-0.24
824.879	0.05
825.051	18.55
825.224	28.14
825.397	23.89
825.569	0.06
825.742	18.74
825.915	30.6
826.087	30.79
826.26	35.44
826.432	41.97
826.605	50.14
826.777	30.66
826.95	35.32
827.122	18.53
827.295	32.54
827.467	23.76
827.64	-2.98
827.812	-9.15
827.984	5.77
828.157	-16.44
828.329	-61.04
828.501	-32.14
828.674	-10.59
828.846	-20.9
829.018	7.98
829.19	-1.86
829.363	28.28
829.535	11.7
829.707	19.34
829.879	-12.26
830.051	-8.34
830.223	-30.18
830.395	-53.96
830.568	-59.27
830.74	-63.98
830.912	-20.1
831.084	-29.23
831.256	-24.62
831.428	-34.68
831.6	-37.46
831.772	-88.26
831.943	-98.23
832.115	-41.56
832.287	-7.59
832.459	12
832.631	41.13
832.803	69.39
832.975	68.21
833.146	47.32
833.318	50
833.49	49.33
833.662	26.22
833.833	1.17
834.005	12.01
834.177	13.06
834.348	0.84
834.52	-18.2
834.692	-10.89
834.863	-22.02
835.035	-47.5
835.206	-105.95
835.378	-63.02
835.549	-46.48
835.721	-29.22
835.892	-17.51
836.064	6.21
836.235	8.65
836.407	19.78
836.578	-3.99
836.749	-7.66
836.921	-28.29
837.092	-51.69
837.264	-59.39
837.435	-85.48
837.606	-26.11
837.777	13.63
837.949	22.66
838.12	23.19
838.291	32.91
838.462	10.42
838.633	-26.87
838.805	-24.78
838.976	-30.6
839.147	-78.49
839.318	-84.27
839.489	-140.46
839.66	-133.96
839.831	-73.57
840.002	-55.55
840.173	-82.51
840.344	-3.49
840.515	-38.67
840.686	-216.83
840.857	-135.33
841.028	-103.1
841.199	-97.21
841.369	-111.83
841.54	-81.6
841.711	-62.16
841.882	-37.82
842.053	-52.62
842.223	-43.59
842.394	-13.98
842.565	-19.6
842.736	-5.21
842.906	-0.12
843.077	6.67
843.248	2.7
843.418	9.82
843.589	-68.28
843.759	13.32
843.93	54.72
844.101	32.86
844.271	28.48
844.442	49.33
844.612	39.09
844.783	-1.11
844.953	-62.14
845.123	-72.27
845.294	-100
845.464	-405.37
845.635	-180.32
845.805	-60.55
845.975	-36.19
846.146	-50.85
846.316	-26.55
846.486	-16.14
846.656	21.71
846.827	17.61
846.997	17.32
847.167	36.6
847.337	-0.83
847.507	-81.53
847.677	-63.75
847.848	-0.51
848.018	8.22
848.188	28.97
848.358	17.79
848.528	0.42
848.698	-48.48
848.868	-145.52
849.038	-253.78
849.208	-88.12
849.378	-51.86
849.548	-29.94
849.718	-0.99
849.887	26.4
850.057	0.3
850.227	-40.91
850.397	-66.4
850.567	-210.22
850.737	-619.13
850.906	-1768.75
851.076	-1253.13
851.246	-632.46
851.415	-109.4
851.585	-76.38
851.755	-136.92
851.924	-61.68
852.094	-134.1
852.264	-318.36
852.433	-1827.88
852.603	-320.54
852.772	-303.75
852.942	-100
853.111	-71.02
853.281	-22.01
853.45	-5.7
853.62	-98.47
853.789	-138.81
853.959	-152.67
854.128	-135.13
854.297	-156.23
854.467	-145.19
854.636	-156.15
854.805	-67.49
854.975	-104.85
855.144	-133.7
855.313	-37.06
855.482	-329.93
855.652	-192.96
855.821	-107.85
855.99	8.31
856.159	17.61
856.328	27.81
856.497	10.23
856.667	22.02
856.836	22.5
857.005	-20.79
857.174	-30.16
857.343	-61.79
857.512	-66.61
857.681	-151
857.85	-196.47
858.019	-99.66
858.188	-89.19
858.356	-114.19
858.525	-150.59
858.694	-141.29
858.863	-343.63
859.032	-231.31
859.201	-292.96
859.369	-192.6
859.538	-164.47
859.707	-85.23
859.876	-92.84
860.044	-77.18
860.213	-5.62
860.382	0.62
860.55	-19.16
860.719	6.27
860.888	13.82
861.056	-35.71
861.225	-63.15
861.393	-17.83
861.562	-48.38
861.73	-104.69
861.899	-308.9
862.067	-2562.07
862.236	-144.08
862.404	-323.92
862.572	-239.8
862.741	-79.83
862.909	-45.31
863.078	-175
863.246	-98.42
863.414	-87.37
863.582	-86.54
863.751	-117.65
863.919	-85.47
864.087	-54.66
864.255	-46.25
864.424	-382.07
864.592	-69.6
864.76	-126.86
864.928	-275.2
865.096	-273.89
865.264	-226.15
865.432	-2377.27
865.6	-200.5
865.768	-193.68
865.936	-162.24
866.104	-166.82
866.272	-243.44
866.44	-513.39
866.608	783.7
866.776	427.25
866.944	4100
867.112	-668.22
867.28	-301.39
867.448	-126.6
867.615	-49.51
867.783	-30.13
867.951	-56.03
868.119	-25.9
868.286	-61.51
868.454	-151.98
868.622	-133.65
868.789	-90.98
868.957	-1750
869.125	-1734.21
869.292	-112.53
869.46	-168.44
869.627	-24.57
869.795	-66.84
869.963	-35.85
870.13	-29.2
870.298	-13.6
870.465	-119.11
870.632	-98.56
870.8	-80.31
870.967	-110.66
871.135	-196.5
871.302	-181.58
871.469	-181.64
871.637	-190.75
871.804	-121.39
871.971	-130.83
872.139	-366.51
872.306	-26.97
872.473	-105.89
872.64	-412.88
872.807	-175.97
872.975	-31.86
873.142	-350.91
873.309	2145.95
873.476	24.25
873.643	51.19
873.81	15.6
873.977	48.02
874.144	31.25
874.311	-210.12
874.478	-254.07
874.645	-281.14
874.812	-242.49
874.979	-167.77
875.146	-134.04
875.313	-134.74
875.48	-21.85
875.647	-35.95
875.813	-67.16
875.98	-53.17
876.147	-95.96
876.314	-215.35
876.481	1660.33
876.647	-2176.4
876.814	815.54
876.981	-211.92
877.147	-127.37
877.314	-44.59
877.481	14.66
877.647	11.24
877.814	-32.92
877.98	-80.16
878.147	-7.82
878.314	-7.13
878.48	-61.7
878.647	-22.34
878.813	39.45
878.979	21.8
879.146	-21.18
879.312	-25.91
879.479	-99.5
879.645	-226.38
879.811	-463.41
879.978	-1066.41
880.144	-285.39
880.31	-135.1
880.477	-401.82
880.643	-443.31
880.809	-221.14
880.975	-204.25
881.142	-1409.09
881.308	-184.38
881.474	-100
881.64	-132.04
881.806	-209.28
881.972	-46.27
882.138	-78.78
882.304	-89.63
882.47	-190.72
882.636	-825.41
882.802	-351.27
882.968	-96.27
883.134	-53.89
883.3	-39.66
883.466	16.27
883.632	61.69
883.798	22.32
883.964	-20.75
884.129	-51.44
884.295	-38.75
884.461	-104.52
884.627	-164.54
884.793	-156.28
884.958	-55.84
885.124	-133.38
885.29	-207.58
885.455	-276.21
885.621	-71.96
885.787	-204.11
885.952	-116.83
886.118	-139.75
886.283	-110.24
886.449	-193.05
886.614	-187.86
886.78	-361.92
886.945	1149.18
887.111	-722.54
887.276	-715.34
887.442	-1215.45
887.607	-683.02
887.773	-508.92
887.938	-381.2
888.103	-414.86
888.269	-266.27
888.434	-401.62
888.599	-143.36
888.764	-60.74
888.93	-9.46
889.095	-47.62
889.26	-70.21
889.425	-10.55
889.59	60.95
889.756	8.21
889.921	13.3
890.086	77.01
890.251	40.1
890.416	-145.31
890.581	-1537.1
890.746	177.5
890.911	427.39
891.076	243.42
891.241	-635.07
891.406	-25.97
891.571	-119.91
891.736	-572.02
891.901	-907.08
892.065	1254.95
892.23	258.19
892.395	339.73
892.56	428.9
892.725	-739.84
892.889	-1804.88
893.054	-291.17
893.219	-150.88
893.384	-84.12
893.548	-127.46
893.713	-141.68
893.878	-95.79
