Data from Ofra_1a_PS_8HS23_Reflection_3.txt Node
Date: Tue Jul 20 11:03:05 EDT 2021
User: Adam
Spectrometer: FLMT01687
Trigger mode: 0
Integration Time (sec): 1.004000E0
Scans to average: 2
Electric dark correction enabled: true
Nonlinearity correction enabled: false
Boxcar width: 2
XAxis mode: Wavelengths
Number of Pixels in Spectrum: 3648
>>>>>Begin Spectral Data<<<<<
179.494	-664.47
179.716	-905.34
179.937	1863.88
180.158	-2380.25
180.38	270.31
180.601	128.86
180.823	195.25
181.044	213.56
181.265	493.79
181.486	-53.55
181.708	-69.05
181.929	-1154.55
182.15	85.61
182.372	-505.91
182.593	-306.13
182.814	186.59
183.035	74.03
183.257	57.01
183.478	18.73
183.699	-10.71
183.92	-58.35
184.141	-66.21
184.363	-40.11
184.584	-25.89
184.805	3.93
185.026	50.42
185.247	45.69
185.468	12.59
185.689	17.58
185.91	-21.35
186.132	-23.49
186.353	-19.63
186.574	-0.83
186.795	7.18
187.016	15.7
187.237	12.31
187.458	27.61
187.679	24.86
187.9	22.53
188.121	33.52
188.342	43.46
188.563	34.61
188.784	52.25
189.005	35.04
189.226	33.43
189.447	18.12
189.667	0.68
189.888	-16.2
190.109	-43.99
190.33	-27.39
190.551	-22.9
190.772	-3.99
190.993	-32.94
191.214	-18.65
191.434	-44.07
191.655	-51.19
191.876	-27.52
192.097	29.29
192.318	42.51
192.538	8.16
192.759	2.93
192.98	19.71
193.201	4.42
193.421	-2.96
193.642	16.45
193.863	34.3
194.083	7.35
194.304	19.88
194.525	-2.13
194.745	8.95
194.966	-19.67
195.187	-6.68
195.407	-21.42
195.628	3.15
195.848	-2.08
196.069	-10.61
196.29	-12.66
196.51	-31.16
196.731	-38.95
196.951	-58.78
197.172	-22.27
197.392	-32.83
197.613	2.1
197.833	-15.98
198.054	-23.84
198.274	-43.44
198.495	-39.73
198.715	-26.04
198.936	-1.59
199.156	14.2
199.377	42.69
199.597	60.34
199.817	35.27
200.038	4.45
200.258	22.88
200.479	-11.37
200.699	-40.42
200.919	-53.75
201.14	-23.1
201.36	-63.64
201.58	-72
201.801	-91.64
202.021	-86.65
202.241	-97.55
202.461	-70.33
202.682	-20.83
202.902	-4.28
203.122	0.12
203.342	9.76
203.563	-2.51
203.783	-26.99
204.003	-39.25
204.223	-10.67
204.443	-12.78
204.663	9.35
204.884	19.46
205.104	15.87
205.324	-31.09
205.544	-69.87
205.764	-22.03
205.984	-15.78
206.204	-21.25
206.424	-19.16
206.644	-29.04
206.864	-75.48
207.084	-45.24
207.304	-32.01
207.525	-13.76
207.745	21.75
207.964	35.01
208.184	44.15
208.404	11.55
208.624	9.59
208.844	-7.14
209.064	-27.51
209.284	-46.47
209.504	-58.3
209.724	-63.29
209.944	-76.63
210.164	-60.73
210.384	-63.13
210.604	-116.14
210.823	-95.87
211.043	-77.09
211.263	-206.15
211.483	-119.83
211.703	-70.68
211.922	-126.77
212.142	-102.98
212.362	-45.68
212.582	-70.12
212.801	-66.08
213.021	-45.39
213.241	-44.22
213.461	-36.77
213.68	-7.7
213.9	-23.76
214.12	-17.66
214.339	-16.74
214.559	-4
214.779	-13.71
214.998	5.89
215.218	-5.21
215.438	10.11
215.657	-5.48
215.877	-3.58
216.096	15.89
216.316	24.54
216.535	0.31
216.755	10.7
216.974	11.16
217.194	-8.65
217.413	-10.72
217.633	-9.44
217.852	-6.78
218.072	-8.35
218.291	-8.69
218.511	-11.62
218.73	-19.53
218.95	-59.25
219.169	-71.75
219.389	-39.35
219.608	-42.25
219.827	-9.71
220.047	7.66
220.266	0.95
220.485	-30.49
220.705	-8.23
220.924	-49.95
221.143	-4.11
221.363	12.82
221.582	1.5
221.801	-1.59
222.021	7.84
222.24	3.24
222.459	16.37
222.678	12.55
222.897	-8.85
223.117	7.16
223.336	-7.83
223.555	-18.17
223.774	20.36
223.993	53.43
224.213	41.92
224.432	39.52
224.651	25.89
224.87	6.93
225.089	-5.75
225.308	5.16
225.527	-13.45
225.746	-5.68
225.965	-4.79
226.184	-12.74
226.404	-23.6
226.623	5.92
226.842	5.18
227.061	15.42
227.28	31.99
227.499	28.31
227.718	27.6
227.936	17.94
228.155	14.49
228.374	5.94
228.593	6.14
228.812	-0.43
229.031	8.04
229.25	-3.79
229.469	-15.52
229.688	-10.87
229.907	-13.32
230.125	-10.25
230.344	-2.59
230.563	12.83
230.782	23.79
231.001	29.9
231.22	23.55
231.438	40.31
231.657	30.04
231.876	19.99
232.095	16.68
232.313	7.47
232.532	-5.82
232.751	-9.69
232.969	-12.17
233.188	-19.46
233.407	-7.1
233.625	-11.98
233.844	-5.28
234.063	-3.6
234.281	11.86
234.5	6.24
234.719	10.17
234.937	-14.78
235.156	-16.14
235.374	-33.5
235.593	-30.08
235.811	-27.9
236.03	-4.58
236.249	-4.88
236.467	2.32
236.686	-2.38
236.904	9.23
237.123	0.89
237.341	-0.28
237.559	-17.58
237.778	17.12
237.996	-24.02
238.215	-43.08
238.433	-98.27
238.652	-24.49
238.87	-49.54
239.088	-28.95
239.307	-20.28
239.525	-1.93
239.743	-18.17
239.962	-42.28
240.18	-20.66
240.398	-18.47
240.617	-29.6
240.835	-15.06
241.053	4.65
241.271	19.46
241.49	29.44
241.708	18.89
241.926	27.72
242.144	39.65
242.363	-9.97
242.581	-74.46
242.799	-35.79
243.017	-35.22
243.235	-38.88
243.453	-41.14
243.672	-7.44
243.89	-12.31
244.108	-15.02
244.326	16.81
244.544	22.86
244.762	4.38
244.98	6.74
245.198	10.05
245.416	-6.8
245.634	-12.33
245.852	-18.52
246.07	0.44
246.288	-0.07
246.506	-15.29
246.724	8.81
246.942	18.34
247.16	14.8
247.378	-6.29
247.596	15.22
247.814	-31.1
248.032	-34.59
248.25	-36.42
248.468	-1.89
248.685	1.48
248.903	-6.25
249.121	6.13
249.339	4.25
249.557	-6.4
249.775	-1.52
249.992	11.01
250.21	-5.74
250.428	3.36
250.646	3.91
250.863	-11.39
251.081	-12.01
251.299	-0.96
251.517	3.55
251.734	8.83
251.952	9.14
252.17	20.63
252.387	7.27
252.605	-18.02
252.823	-29.27
253.04	-7.44
253.258	-12.98
253.475	0.12
253.693	4
253.911	-4.51
254.128	-5.79
254.346	-2.21
254.563	1.23
254.781	-3.59
254.998	-4.52
255.216	-45.41
255.433	-69.02
255.651	-55.23
255.868	-38.39
256.086	-23.86
256.303	-4.89
256.521	7.16
256.738	-2.26
256.956	-15.75
257.173	-18.35
257.39	-17.77
257.608	-26.62
257.825	-23.01
258.043	-5.18
258.26	-1.29
258.477	2.73
258.695	4.2
258.912	1.77
259.129	-19.71
259.346	-35.14
259.564	-40.85
259.781	-46.09
259.998	-11.52
260.216	14.64
260.433	-0.66
260.65	-6.16
260.867	3.91
261.084	-9.73
261.302	-20.97
261.519	20.31
261.736	22.91
261.953	18.36
262.17	18.46
262.387	4.49
262.604	-4.3
262.822	8.31
263.039	12.74
263.256	5.61
263.473	9.34
263.69	6.95
263.907	-5.66
264.124	-7.13
264.341	8.99
264.558	8.86
264.775	8.35
264.992	23.12
265.209	-7.73
265.426	-40.6
265.643	-27.89
265.86	-61.75
266.077	-83.39
266.294	-42.32
266.51	-8.23
266.727	-23.23
266.944	3.16
267.161	-5.36
267.378	-0.32
267.595	-25.38
267.812	-35.16
268.028	-57.58
268.245	-43.08
268.462	-51.74
268.679	-24.43
268.896	-2.19
269.112	-18
269.329	-29.63
269.546	9.4
269.763	-3.35
269.979	-15.35
270.196	9.24
270.413	6.48
270.629	-20.46
270.846	-25.63
271.063	-1.57
271.279	-16.87
271.496	-29.12
271.712	-11.47
271.929	-7.23
272.146	-23.74
272.362	-4.81
272.579	14.01
272.795	-6.27
273.012	8.7
273.228	20.8
273.445	2.24
273.661	-4.68
273.878	-5.15
274.094	-23.19
274.311	-30.39
274.527	-36.51
274.744	-18.99
274.96	4.91
275.177	10.58
275.393	12.14
275.609	19.88
275.826	-0.56
276.042	-10.07
276.259	-18.83
276.475	-39.53
276.691	-43.56
276.908	-19.9
277.124	-1.74
277.34	9.78
277.557	28.16
277.773	28.08
277.989	26.72
278.205	0.87
278.422	5.42
278.638	-3.2
278.854	-5.44
279.07	6.49
279.286	-1.49
279.503	4.43
279.719	12.41
279.935	13.35
280.151	-10.19
280.367	3.9
280.583	-2.6
280.799	-8.55
281.016	-25.78
281.232	1.96
281.448	5.03
281.664	13.03
281.88	14.84
282.096	22.5
282.312	20.79
282.528	8.27
282.744	-2.16
282.96	-16.68
283.176	-40.72
283.392	-107.28
283.608	-73.09
283.824	-76.21
284.04	-98.98
284.256	-50.9
284.471	-15.78
284.687	-14.84
284.903	-7.12
285.119	21.24
285.335	26.82
285.551	28.23
285.767	27.48
285.982	25.54
286.198	-18.42
286.414	-35.21
286.63	-33.23
286.846	-27.93
287.061	-43.63
287.277	-24.47
287.493	-20.84
287.709	-34.27
287.924	-23.32
288.14	2.93
288.356	18.13
288.571	11.79
288.787	3.73
289.003	12.02
289.218	-13.67
289.434	-28.76
289.65	7.13
289.865	14.6
290.081	10.78
290.296	18.67
290.512	8.94
290.727	-9.89
290.943	-6.46
291.159	-6.22
291.374	-18.79
291.59	-0.81
291.805	-32.63
292.021	-32.66
292.236	-49.33
292.451	-34.51
292.667	-54.11
292.882	-15.97
293.098	-23.66
293.313	-21.33
293.529	-22.14
293.744	-22.99
293.959	-27.48
294.175	-28.22
294.39	-44.28
294.605	-17.04
294.821	-7.23
295.036	-7.32
295.251	1.95
295.467	13.54
295.682	12.77
295.897	-4.13
296.112	-14.47
296.328	-13.68
296.543	-17.93
296.758	-24.93
296.973	-13.19
297.188	-0.69
297.404	-24.33
297.619	-46.1
297.834	-102.42
298.049	-59.8
298.264	-63.32
298.479	-60.43
298.694	-2.3
298.909	20.87
299.125	20.73
299.34	22.51
299.555	35.16
299.77	29.85
299.985	13.84
300.2	0.89
300.415	6.89
300.63	-1.7
300.845	-25.32
301.06	-20.85
301.275	-9.4
301.49	-2.3
301.704	2.29
301.919	0.25
302.134	4.86
302.349	7
302.564	-13.73
302.779	-35.91
302.994	-9.08
303.209	-7.29
303.423	-18.4
303.638	1.07
303.853	10.08
304.068	-16.91
304.283	-10.25
304.497	-23.79
304.712	-5.63
304.927	14.38
305.142	20.24
305.356	20.91
305.571	34.37
305.786	20.99
306	16.98
306.215	27.26
306.43	18.5
306.644	5.08
306.859	3.72
307.074	19.36
307.288	12.58
307.503	28.46
307.717	25.85
307.932	20.17
308.147	3.44
308.361	2.19
308.576	-25.08
308.79	-20.16
309.005	-20.36
309.219	8.48
309.434	18.17
309.648	14.48
309.863	20.8
310.077	7.77
310.292	-4.14
310.506	-34.87
310.72	-29.47
310.935	-27.41
311.149	-18.46
311.364	-19.78
311.578	-0.07
311.792	9.48
312.007	20.91
312.221	10.66
312.435	-17.8
312.649	-17.5
312.864	-57.68
313.078	-61.06
313.292	-56.62
313.507	-40.12
313.721	-30.19
313.935	10.13
314.149	21.81
314.363	38.26
314.578	18.37
314.792	-13.98
315.006	-16.41
315.22	-28.04
315.434	-20.66
315.648	-12.66
315.862	7.39
316.077	3.71
316.291	-1.83
316.505	-37.94
316.719	-22.24
316.933	-16.83
317.147	-20.37
317.361	-16.35
317.575	-2.61
317.789	-8.64
318.003	-7.71
318.217	-0.41
318.431	7.36
318.645	-0.4
318.859	2.05
319.073	-7.71
319.287	-10.41
319.5	-9.99
319.714	-19.95
319.928	-19.8
320.142	-14.23
320.356	-1.66
320.57	-23.6
320.784	-11.57
320.997	-47.34
321.211	-20.49
321.425	-45.27
321.639	-10.7
321.853	3.99
322.066	15.35
322.28	-9.37
322.494	4.54
322.707	-2
322.921	-25.02
323.135	-10.98
323.349	-5.31
323.562	-10.09
323.776	-6.99
323.989	21.55
324.203	7.66
324.417	6.33
324.63	-10.69
324.844	-22.43
325.057	-60.41
325.271	-46.97
325.485	-67.04
325.698	-34.65
325.912	-17.41
326.125	-17.21
326.339	-10.48
326.552	5.16
326.766	-0.42
326.979	-2.29
327.193	7.76
327.406	-6.88
327.619	-8.96
327.833	-8.5
328.046	2.12
328.26	-10.18
328.473	-23.32
328.686	-25.32
328.9	-12.44
329.113	-35.96
329.326	-30.1
329.54	-0.76
329.753	14.72
329.966	14.3
330.179	30.92
330.393	40.52
330.606	30.32
330.819	4.86
331.032	-3.58
331.246	-4.55
331.459	-11.52
331.672	-13.54
331.885	-15.36
332.098	1.04
332.311	-17.52
332.525	-2.96
332.738	6.15
332.951	12.21
333.164	-0.3
333.377	14.27
333.59	9.63
333.803	-2.27
334.016	13.6
334.229	8.66
334.442	-10.15
334.655	-2.62
334.868	-7.78
335.081	-13.15
335.294	-8.84
335.507	11.98
335.72	2.06
335.933	14.77
336.146	9.55
336.359	14.98
336.572	8.12
336.785	2.31
336.997	-20.56
337.21	-22.58
337.423	-59.94
337.636	-57.42
337.849	-44.52
338.062	-20.17
338.274	-11.99
338.487	-20.45
338.7	-28.1
338.913	-15.34
339.125	-25.12
339.338	-28.38
339.551	-5.48
339.763	3.88
339.976	0.77
340.189	-1.09
340.402	14.08
340.614	19.5
340.827	32.64
341.039	23.61
341.252	15.39
341.465	2.25
341.677	-8.48
341.89	-34.38
342.102	-19.75
342.315	-19.04
342.527	-14.15
342.74	-18.98
342.952	-4.54
343.165	-2.45
343.377	13.9
343.59	10.54
343.802	12.72
344.015	18.51
344.227	10.55
344.44	-3.1
344.652	3.08
344.864	5.95
345.077	7.86
345.289	13.38
345.502	20.6
345.714	17.68
345.926	13.52
346.139	-8.08
346.351	-1.58
346.563	4.59
346.775	-13.38
346.988	-6.21
347.2	-5.71
347.412	-7.92
347.624	-6.51
347.837	6.75
348.049	6.89
348.261	-1.01
348.473	-18.5
348.685	-28.1
348.897	-48.62
349.11	-41.46
349.322	-24.8
349.534	-16.11
349.746	-14.33
349.958	-15.2
350.17	-18.12
350.382	-20.92
350.594	-3.64
350.806	12.4
351.018	29.83
351.23	32.32
351.442	34.12
351.654	28.04
351.866	21.42
352.078	16.97
352.29	4.64
352.502	10.2
352.714	-7.86
352.926	-7.88
353.138	-4.74
353.35	-4.38
353.561	-17.75
353.773	-12.86
353.985	-8.27
354.197	-6.91
354.409	-7.9
354.621	-27.99
354.832	-19.64
355.044	-36.01
355.256	-56.21
355.468	-61.6
355.679	-9.8
355.891	-5.61
356.103	-3.6
356.314	-0.18
356.526	-16.68
356.738	-26.62
356.949	-28.61
357.161	-10.67
357.373	-0.72
357.584	23.56
357.796	20.82
358.008	26.48
358.219	20.6
358.431	12.12
358.642	12.85
358.854	20.44
359.065	-1.55
359.277	0.62
359.488	3.1
359.7	-14.25
359.911	-26.38
360.123	0.97
360.334	-11.55
360.546	-15.91
360.757	-7.27
360.969	-11.88
361.18	-33.18
361.391	-13.68
361.603	-5.86
361.814	6.11
362.025	13.52
362.237	16.07
362.448	16.51
362.659	14.29
362.871	-18.25
363.082	-23.29
363.293	-29.31
363.504	-36.16
363.716	-44.64
363.927	8.84
364.138	0.3
364.349	-13.12
364.56	-28.56
364.772	-18.97
364.983	-19.61
365.194	-12.47
365.405	7.67
365.616	12.13
365.827	6.61
366.038	-4.11
366.25	2.23
366.461	-5.47
366.672	-0.65
366.883	-1.95
367.094	-7.33
367.305	-16.7
367.516	-16.1
367.727	-29.11
367.938	-31.18
368.149	-34.75
368.36	-36.75
368.571	-42.66
368.781	-34.92
368.992	-31.18
369.203	-29.69
369.414	-27.02
369.625	-26.9
369.836	-4.65
370.047	-10.06
370.258	-3.16
370.468	-7.65
370.679	-18.58
370.89	-35.11
371.101	-6.63
371.312	-11.33
371.522	-5.53
371.733	0.78
371.944	-4.98
372.155	-14.15
372.365	-15.3
372.576	-19.36
372.787	0.8
372.997	1.27
373.208	8.68
373.419	8.48
373.629	-1.16
373.84	-18.96
374.05	-25.12
374.261	-48.29
374.472	-40.09
374.682	-19.3
374.893	-29.08
375.103	-8.71
375.314	-4.08
375.524	-4.09
375.735	-1.29
375.945	13.54
376.156	1.33
376.366	4.46
376.577	3.16
376.787	6.28
376.997	9.59
377.208	9.67
377.418	3.67
377.629	7.57
377.839	4.59
378.049	0.62
378.26	-3.66
378.47	4.89
378.68	-2.94
378.89	-4.13
379.101	-3.92
379.311	-1.32
379.521	-11.84
379.732	-8.95
379.942	-4.48
380.152	-6.49
380.362	-9.75
380.572	4.79
380.783	18.15
380.993	17.67
381.203	14.15
381.413	21.97
381.623	16.11
381.833	7.83
382.043	-2.29
382.253	4.93
382.463	9.52
382.674	11
382.884	9.51
383.094	12.23
383.304	9.56
383.514	3.86
383.724	0.6
383.934	-10.09
384.144	-5.85
384.353	-2.46
384.563	-5.74
384.773	0.12
384.983	5.66
385.193	1.32
385.403	-1.21
385.613	7.63
385.823	5.5
386.033	5.51
386.242	4.71
386.452	-3.36
386.662	-9.79
386.872	-10.66
387.082	-13.13
387.291	-14.45
387.501	-6.41
387.711	-0.86
387.921	0.82
388.13	4.95
388.34	5.8
388.55	-0.58
388.759	-9.37
388.969	-12.14
389.179	-11.38
389.388	-8.73
389.598	-9.73
389.807	-9.46
390.017	-8.72
390.227	-11.88
390.436	-9.5
390.646	-4.6
390.855	-1.6
391.065	2.2
391.274	4.34
391.484	3.62
391.693	2.75
391.903	0.31
392.112	-1.32
392.322	-1.6
392.531	-2.51
392.74	-3.03
392.95	0.19
393.159	-0.68
393.369	-0.69
393.578	-1.01
393.787	-1.51
393.997	-0.3
394.206	0.68
394.415	2.22
394.625	1.96
394.834	1.82
395.043	0.76
395.252	2.78
395.462	3.1
395.671	3.94
395.88	6
396.089	5.94
396.298	5.47
396.508	5.63
396.717	6.04
396.926	5.18
397.135	5.56
397.344	4.95
397.553	4.42
397.762	4.41
397.971	4.26
398.181	3.45
398.39	2.91
398.599	3.01
398.808	3.09
399.017	3.98
399.226	4.04
399.435	4.2
399.644	3.97
399.853	3.64
400.062	3.12
400.27	3.07
400.479	3.33
400.688	3.35
400.897	3.47
401.106	3.58
401.315	3.75
401.524	3.8
401.733	3.81
401.941	3.96
402.15	3.88
402.359	3.86
402.568	4.03
402.777	4.14
402.985	3.81
403.194	4.02
403.403	4.1
403.612	3.74
403.82	3.47
404.029	3.85
404.238	3.57
404.446	3.62
404.655	3.61
404.864	3.88
405.072	3.56
405.281	3.66
405.489	3.66
405.698	3.89
405.906	3.87
406.115	3.88
406.324	3.89
406.532	3.9
406.741	3.8
406.949	3.71
407.158	3.94
407.366	3.85
407.574	3.79
407.783	3.76
407.991	3.65
408.2	3.65
408.408	3.65
408.617	3.51
408.825	3.29
409.033	3.4
409.242	3.34
409.45	3.29
409.658	3.33
409.867	3.49
410.075	3.58
410.283	3.42
410.491	3.25
410.7	3.21
410.908	3.34
411.116	3.28
411.324	3.28
411.533	3.35
411.741	3.4
411.949	3.41
412.157	3.26
412.365	3.27
412.573	3.33
412.781	3.32
412.99	3.18
413.198	3.29
413.406	3.3
413.614	3.37
413.822	3.45
414.03	3.49
414.238	3.48
414.446	3.62
414.654	3.45
414.862	3.43
415.07	3.27
415.278	3.24
415.486	2.97
415.694	3.09
415.902	2.94
416.109	2.8
416.317	2.82
416.525	2.93
416.733	2.92
416.941	2.94
417.149	3.11
417.357	3.14
417.564	3.12
417.772	3.2
417.98	3.14
418.188	3.13
418.395	2.88
418.603	2.78
418.811	2.57
419.019	2.64
419.226	2.59
419.434	2.76
419.642	2.7
419.849	2.69
420.057	2.64
420.265	2.71
420.472	2.64
420.68	2.92
420.887	2.95
421.095	2.97
421.302	3.06
421.51	3.06
421.717	2.83
421.925	2.97
422.132	3.04
422.34	2.69
422.547	2.62
422.755	2.7
422.962	2.63
423.17	2.42
423.377	2.65
423.585	2.89
423.792	2.85
423.999	2.89
424.207	2.94
424.414	3.01
424.621	2.82
424.829	2.93
425.036	2.9
425.243	2.89
425.451	2.74
425.658	2.64
425.865	2.52
426.072	2.53
426.28	2.8
426.487	2.83
426.694	2.81
426.901	2.85
427.108	2.71
427.315	2.44
427.523	2.48
427.73	2.54
427.937	2.41
428.144	2.46
428.351	2.57
428.558	2.6
428.765	2.68
428.972	2.94
429.179	2.81
429.386	2.87
429.593	2.85
429.8	2.69
430.007	2.63
430.214	2.83
430.421	2.89
430.628	2.91
430.835	3.1
431.042	3.04
431.249	3.03
431.456	2.91
431.662	2.97
431.869	3.02
432.076	3.03
432.283	3.09
432.49	3.09
432.697	3
432.903	2.96
433.11	3.02
433.317	3.09
433.524	3.12
433.73	3.16
433.937	3.3
434.144	3.19
434.35	3.05
434.557	3.18
434.764	3.22
434.97	3.13
435.177	3.27
435.384	3.41
435.59	3.34
435.797	3.5
436.003	3.57
436.21	3.59
436.416	3.52
436.623	3.6
436.829	3.48
437.036	3.46
437.242	3.44
437.449	3.59
437.655	3.56
437.862	3.65
438.068	3.65
438.275	3.77
438.481	3.75
438.687	3.7
438.894	3.71
439.1	3.69
439.307	3.7
439.513	3.7
439.719	3.78
439.926	3.81
440.132	3.86
440.338	3.85
440.544	3.8
440.751	3.79
440.957	3.72
441.163	3.62
441.369	3.67
441.575	3.66
441.782	3.82
441.988	3.93
442.194	3.98
442.4	3.97
442.606	4.17
442.812	4.04
443.018	4.02
443.224	4.17
443.431	4.06
443.637	3.89
443.843	3.94
444.049	4.05
444.255	4.05
444.461	4.09
444.667	4.14
444.873	4.1
445.079	3.99
445.284	3.94
445.49	4
445.696	3.98
445.902	4
446.108	4.08
446.314	4.07
446.52	4.17
446.726	4.26
446.931	4.29
447.137	4.26
447.343	4.38
447.549	4.34
447.755	4.34
447.96	4.43
448.166	4.47
448.372	4.39
448.578	4.35
448.783	4.32
448.989	4.33
449.195	4.32
449.4	4.38
449.606	4.36
449.812	4.36
450.017	4.4
450.223	4.37
450.428	4.36
450.634	4.43
450.84	4.42
451.045	4.41
451.251	4.48
451.456	4.51
451.662	4.5
451.867	4.56
452.073	4.53
452.278	4.51
452.483	4.52
452.689	4.51
452.894	4.54
453.1	4.58
453.305	4.5
453.51	4.48
453.716	4.51
453.921	4.56
454.127	4.5
454.332	4.54
454.537	4.56
454.742	4.62
454.948	4.62
455.153	4.66
455.358	4.68
455.563	4.73
455.769	4.73
455.974	4.65
456.179	4.6
456.384	4.56
456.589	4.46
456.795	4.31
457	4.31
457.205	4.33
457.41	4.41
457.615	4.45
457.82	4.57
458.025	4.61
458.23	4.6
458.435	4.61
458.64	4.67
458.845	4.67
459.05	4.64
459.255	4.63
459.46	4.59
459.665	4.54
459.87	4.59
460.075	4.72
460.28	4.78
460.485	4.94
460.69	5.01
460.895	5.03
461.099	4.8
461.304	4.79
461.509	4.73
461.714	4.7
461.919	4.6
462.123	4.73
462.328	4.69
462.533	4.55
462.738	4.57
462.942	4.59
463.147	4.59
463.352	4.7
463.556	4.84
463.761	4.83
463.966	4.85
464.17	4.99
464.375	5.06
464.58	5.03
464.784	5.05
464.989	5.16
465.193	5.05
465.398	4.95
465.602	5.11
465.807	5.15
466.011	5.22
466.216	5.26
466.42	5.37
466.625	5.32
466.829	5.4
467.034	5.43
467.238	5.55
467.443	5.55
467.647	5.49
467.851	5.43
468.056	5.37
468.26	5.37
468.464	5.35
468.669	5.42
468.873	5.43
469.077	5.44
469.282	5.4
469.486	5.46
469.69	5.48
469.894	5.53
470.099	5.56
470.303	5.55
470.507	5.57
470.711	5.47
470.915	5.57
471.119	5.57
471.324	5.63
471.528	5.66
471.732	5.84
471.936	5.82
472.14	5.85
472.344	5.97
472.548	5.97
472.752	5.96
472.956	5.96
473.16	5.93
473.364	5.85
473.568	5.86
473.772	5.85
473.976	5.94
474.18	6.04
474.384	6.01
474.588	6.03
474.792	6.08
474.995	6.05
475.199	6.01
475.403	6.11
475.607	6.16
475.811	6.21
476.015	6.19
476.218	6.17
476.422	6.25
476.626	6.3
476.83	6.45
477.033	6.51
477.237	6.68
477.441	6.67
477.644	6.63
477.848	6.56
478.052	6.56
478.255	6.51
478.459	6.53
478.663	6.68
478.866	6.72
479.07	6.7
479.273	6.8
479.477	6.77
479.681	6.7
479.884	6.63
480.088	6.68
480.291	6.56
480.495	6.59
480.698	6.61
480.901	6.66
481.105	6.76
481.308	6.86
481.512	6.86
481.715	6.97
481.919	7.05
482.122	7.01
482.325	7.04
482.529	7.05
482.732	6.93
482.935	6.89
483.138	6.9
483.342	6.9
483.545	6.98
483.748	7.07
483.952	7.12
484.155	7.16
484.358	7.2
484.561	7.18
484.764	7.21
484.967	7.18
485.171	7.19
485.374	7.15
485.577	7.16
485.78	7.12
485.983	7.1
486.186	7.07
486.389	7.14
486.592	7.14
486.795	7.15
486.998	7.21
487.201	7.25
487.404	7.33
487.607	7.32
487.81	7.29
488.013	7.26
488.216	7.25
488.419	7.13
488.622	7.15
488.825	7.22
489.028	7.25
489.231	7.27
489.433	7.27
489.636	7.28
489.839	7.29
490.042	7.31
490.245	7.33
490.447	7.36
490.65	7.4
490.853	7.38
491.056	7.42
491.258	7.4
491.461	7.36
491.664	7.37
491.866	7.29
492.069	7.29
492.272	7.3
492.474	7.38
492.677	7.35
492.879	7.46
493.082	7.43
493.285	7.42
493.487	7.45
493.69	7.47
493.892	7.41
494.095	7.45
494.297	7.5
494.5	7.48
494.702	7.47
494.905	7.5
495.107	7.52
495.309	7.61
495.512	7.64
495.714	7.69
495.917	7.75
496.119	7.81
496.321	7.71
496.524	7.69
496.726	7.65
496.928	7.6
497.13	7.57
497.333	7.52
497.535	7.59
497.737	7.62
497.939	7.65
498.142	7.69
498.344	7.74
498.546	7.7
498.748	7.76
498.95	7.82
499.152	7.84
499.355	7.87
499.557	7.93
499.759	7.94
499.961	7.96
500.163	8.06
500.365	8.17
500.567	8.2
500.769	8.23
500.971	8.24
501.173	8.11
501.375	8.16
501.577	8.13
501.779	8.14
501.981	8.13
502.183	8.19
502.385	8.2
502.587	8.26
502.788	8.34
502.99	8.38
503.192	8.45
503.394	8.37
503.596	8.36
503.798	8.28
503.999	8.29
504.201	8.23
504.403	8.32
504.605	8.36
504.806	8.41
505.008	8.41
505.21	8.47
505.411	8.42
505.613	8.48
505.815	8.51
506.016	8.62
506.218	8.73
506.42	8.8
506.621	8.86
506.823	8.91
507.024	8.9
507.226	8.88
507.427	8.9
507.629	8.96
507.83	8.95
508.032	8.95
508.233	9.02
508.435	9.03
508.636	9.04
508.838	9.08
509.039	9.06
509.24	9.05
509.442	9.14
509.643	9.11
509.845	9.1
510.046	9.22
510.247	9.28
510.448	9.26
510.65	9.31
510.851	9.35
511.052	9.36
511.254	9.38
511.455	9.41
511.656	9.38
511.857	9.43
512.058	9.42
512.26	9.35
512.461	9.35
512.662	9.44
512.863	9.37
513.064	9.37
513.265	9.45
513.466	9.48
513.667	9.48
513.868	9.54
514.069	9.56
514.27	9.57
514.471	9.51
514.672	9.56
514.873	9.55
515.074	9.64
515.275	9.63
515.476	9.71
515.677	9.72
515.878	9.85
516.079	9.85
516.28	9.9
516.481	9.98
516.682	9.98
516.882	9.92
517.083	9.86
517.284	9.9
517.485	9.78
517.686	9.85
517.886	9.87
518.087	9.97
518.288	10.02
518.488	10.11
518.689	10.02
518.89	10.1
519.091	10.13
519.291	10.07
519.492	10.09
519.692	10.14
519.893	10.06
520.094	9.99
520.294	10.04
520.495	10.04
520.695	10.08
520.896	10.11
521.096	10.18
521.297	10.19
521.497	10.25
521.698	10.2
521.898	10.23
522.099	10.29
522.299	10.3
522.499	10.28
522.7	10.35
522.9	10.36
523.101	10.31
523.301	10.3
523.501	10.3
523.702	10.33
523.902	10.36
524.102	10.44
524.302	10.5
524.503	10.51
524.703	10.5
524.903	10.53
525.103	10.54
525.304	10.58
525.504	10.67
525.704	10.76
525.904	10.74
526.104	10.7
526.304	10.74
526.504	10.69
526.705	10.63
526.905	10.68
527.105	10.72
527.305	10.68
527.505	10.68
527.705	10.69
527.905	10.77
528.105	10.78
528.305	10.81
528.505	10.86
528.705	11.01
528.905	10.99
529.105	11.01
529.304	11.05
529.504	11.11
529.704	11.02
529.904	11.03
530.104	11.09
530.304	11.05
530.503	11.01
530.703	10.99
530.903	11
531.103	11.03
531.303	11.05
531.502	11.12
531.702	11.16
531.902	11.18
532.101	11.14
532.301	11.19
532.501	11.29
532.7	11.38
532.9	11.46
533.1	11.49
533.299	11.47
533.499	11.35
533.698	11.33
533.898	11.28
534.097	11.34
534.297	11.38
534.496	11.42
534.696	11.43
534.895	11.53
535.095	11.54
535.294	11.59
535.494	11.63
535.693	11.65
535.892	11.62
536.092	11.66
536.291	11.72
536.491	11.74
536.69	11.83
536.889	11.79
537.088	11.78
537.288	11.75
537.487	11.77
537.686	11.71
537.886	11.78
538.085	11.83
538.284	11.9
538.483	11.92
538.682	12.03
538.882	12.05
539.081	12.09
539.28	12.09
539.479	12.12
539.678	12.08
539.877	12.11
540.076	12.14
540.275	12.14
540.474	12.17
540.673	12.28
540.872	12.3
541.071	12.33
541.27	12.41
541.469	12.42
541.668	12.4
541.867	12.5
542.066	12.52
542.265	12.6
542.464	12.67
542.663	12.78
542.862	12.82
543.06	12.88
543.259	12.93
543.458	13.04
543.657	13.07
543.856	13.06
544.054	13.08
544.253	13.06
544.452	13.07
544.651	13.15
544.849	13.23
545.048	13.31
545.247	13.46
545.445	13.5
545.644	13.45
545.843	13.5
546.041	13.56
546.24	13.52
546.438	13.55
546.637	13.63
546.836	13.68
547.034	13.76
547.233	13.89
547.431	13.99
547.63	14.01
547.828	14.02
548.027	14.02
548.225	14.02
548.423	14.04
548.622	14.15
548.82	14.28
549.019	14.27
549.217	14.37
549.415	14.44
549.614	14.53
549.812	14.54
550.01	14.66
550.209	14.72
550.407	14.8
550.605	14.76
550.803	14.86
551.002	14.99
551.2	14.96
551.398	15.1
551.596	15.23
551.794	15.34
551.993	15.36
552.191	15.54
552.389	15.57
552.587	15.68
552.785	15.72
552.983	15.87
553.181	15.89
553.379	15.97
553.577	16.07
553.775	16.24
553.973	16.28
554.171	16.44
554.369	16.51
554.567	16.57
554.765	16.56
554.963	16.65
555.161	16.71
555.359	16.87
555.557	16.99
555.755	17.1
555.952	17.22
556.15	17.29
556.348	17.31
556.546	17.41
556.744	17.48
556.941	17.47
557.139	17.62
557.337	17.77
557.535	17.81
557.732	17.91
557.93	18.21
558.128	18.29
558.325	18.37
558.523	18.53
558.721	18.69
558.918	18.67
559.116	18.78
559.313	18.91
559.511	19.05
559.708	19.15
559.906	19.24
560.104	19.32
560.301	19.35
560.498	19.41
560.696	19.45
560.893	19.55
561.091	19.62
561.288	19.79
561.486	19.86
561.683	20.01
561.88	20.21
562.078	20.29
562.275	20.38
562.473	20.56
562.67	20.69
562.867	20.77
563.064	20.97
563.262	21.1
563.459	21.26
563.656	21.38
563.853	21.5
564.051	21.63
564.248	21.73
564.445	21.76
564.642	21.87
564.839	21.97
565.036	22.16
565.234	22.27
565.431	22.38
565.628	22.42
565.825	22.55
566.022	22.63
566.219	22.73
566.416	22.89
566.613	23.12
566.81	23.23
567.007	23.25
567.204	23.33
567.401	23.43
567.598	23.49
567.795	23.48
567.991	23.59
568.188	23.7
568.385	23.74
568.582	23.88
568.779	24.06
568.976	24.15
569.172	24.3
569.369	24.34
569.566	24.36
569.763	24.24
569.96	24.34
570.156	24.32
570.353	24.38
570.55	24.43
570.746	24.63
570.943	24.74
571.14	24.82
571.336	24.9
571.533	24.97
571.729	25.09
571.926	25.11
572.123	25.17
572.319	25.3
572.516	25.39
572.712	25.38
572.909	25.38
573.105	25.45
573.302	25.41
573.498	25.32
573.695	25.41
573.891	25.4
574.087	25.35
574.284	25.43
574.48	25.54
574.677	25.57
574.873	25.74
575.069	25.87
575.266	25.98
575.462	26
575.658	26.11
575.854	26.07
576.051	26.01
576.247	25.85
576.443	25.95
576.639	25.86
576.835	25.87
577.032	25.88
577.228	25.99
577.424	25.95
577.62	25.94
577.816	25.88
578.012	25.96
578.208	26.01
578.404	25.99
578.6	26.07
578.796	26.13
578.993	26.14
579.189	26.15
579.384	26.18
579.58	26.17
579.776	26.16
579.972	26.17
580.168	26.16
580.364	26.24
580.56	26.11
580.756	26.11
580.952	26.09
581.148	26.03
581.343	26.07
581.539	26.19
581.735	26.15
581.931	26.17
582.127	26.17
582.322	26.1
582.518	26.09
582.714	26.08
582.909	26.05
583.105	26.07
583.301	26.02
583.496	25.99
583.692	25.98
583.888	26.07
584.083	26.09
584.279	26.04
584.474	25.99
584.67	26.05
584.866	25.97
585.061	25.98
585.257	26
585.452	26.1
585.648	26.18
585.843	26.19
586.039	26.16
586.234	26.21
586.429	26.1
586.625	26.09
586.82	26.14
587.015	26.28
587.211	26.29
587.406	26.33
587.601	26.38
587.797	26.39
587.992	26.29
588.187	26.3
588.383	26.45
588.578	26.43
588.773	26.43
588.968	26.61
589.163	26.63
589.359	26.56
589.554	26.5
589.749	26.56
589.944	26.51
590.139	26.59
590.334	26.7
590.529	26.78
590.724	26.84
590.919	26.84
591.114	26.88
591.309	26.92
591.504	27.03
591.699	27.01
591.894	27.06
592.089	27.07
592.284	27.11
592.479	27.08
592.674	27.15
592.869	27.16
593.064	27.18
593.259	27.21
593.454	27.27
593.648	27.33
593.843	27.41
594.038	27.57
594.233	27.6
594.428	27.71
594.622	27.79
594.817	27.87
595.012	27.93
595.206	28.06
595.401	28.15
595.596	28.25
595.79	28.29
595.985	28.33
596.18	28.38
596.374	28.48
596.569	28.45
596.763	28.51
596.958	28.61
597.153	28.71
597.347	28.67
597.542	28.84
597.736	28.97
597.931	28.96
598.125	29.07
598.319	29.21
598.514	29.28
598.708	29.37
598.903	29.6
599.097	29.56
599.291	29.61
599.486	29.7
599.68	29.69
599.874	29.66
600.069	29.81
600.263	29.92
600.457	29.89
600.651	29.98
600.846	30.04
601.04	30.01
601.234	29.96
601.428	30.11
601.622	30.14
601.817	30.17
602.011	30.25
602.205	30.32
602.399	30.26
602.593	30.42
602.787	30.4
602.981	30.44
603.175	30.56
603.369	30.55
603.563	30.54
603.757	30.62
603.951	30.63
604.145	30.58
604.339	30.68
604.533	30.59
604.727	30.55
604.921	30.51
605.115	30.4
605.309	30.29
605.502	30.35
605.696	30.26
605.89	30.3
606.084	30.4
606.278	30.4
606.471	30.37
606.665	30.3
606.859	30.15
607.053	30.06
607.246	30.08
607.44	29.98
607.634	30.04
607.827	30.04
608.021	29.85
608.214	29.64
608.408	29.52
608.602	29.34
608.795	29.37
608.989	29.4
609.182	29.41
609.376	29.39
609.569	29.39
609.763	29.26
609.956	29.28
610.15	29.2
610.343	29.19
610.537	29.12
610.73	28.93
610.923	28.86
611.117	28.8
611.31	28.64
611.504	28.56
611.697	28.64
611.89	28.49
612.083	28.45
612.277	28.45
612.47	28.48
612.663	28.35
612.856	28.39
613.05	28.35
613.243	28.13
613.436	27.94
613.629	27.85
613.822	27.77
614.015	27.58
614.209	27.67
614.402	27.71
614.595	27.66
614.788	27.56
614.981	27.58
615.174	27.43
615.367	27.31
615.56	27.15
615.753	27.1
615.946	27
616.139	26.95
616.332	26.88
616.525	26.93
616.718	26.86
616.911	26.89
617.103	26.93
617.296	26.91
617.489	26.84
617.682	26.88
617.875	26.8
618.067	26.77
618.26	26.68
618.453	26.61
618.646	26.53
618.838	26.51
619.031	26.46
619.224	26.44
619.417	26.48
619.609	26.36
619.802	26.24
619.994	26.19
620.187	26.09
620.38	26.1
620.572	26.15
620.765	26.26
620.957	26.21
621.15	26.23
621.342	26.21
621.535	26.16
621.727	25.99
621.92	25.95
622.112	25.88
622.305	25.77
622.497	25.73
622.69	25.75
622.882	25.73
623.074	25.76
623.267	25.75
623.459	25.73
623.651	25.72
623.844	25.67
624.036	25.76
624.228	25.74
624.42	25.67
624.613	25.6
624.805	25.57
624.997	25.44
625.189	25.47
625.381	25.43
625.574	25.38
625.766	25.3
625.958	25.34
626.15	25.27
626.342	25.25
626.534	25.3
626.726	25.3
626.918	25.24
627.11	25.2
627.302	25.12
627.494	25.04
627.686	25
627.878	24.92
628.07	24.89
628.262	24.91
628.454	24.96
628.646	24.97
628.838	25.03
629.029	24.94
629.221	24.94
629.413	24.81
629.605	24.72
629.797	24.63
629.989	24.6
630.18	24.65
630.372	24.69
630.564	24.75
630.755	24.73
630.947	24.66
631.139	24.56
631.33	24.49
631.522	24.43
631.714	24.4
631.905	24.44
632.097	24.38
632.289	24.35
632.48	24.31
632.672	24.25
632.863	24.13
633.055	24.09
633.246	24
633.438	23.9
633.629	23.86
633.821	23.9
634.012	23.81
634.203	23.76
634.395	23.75
634.586	23.78
634.777	23.81
634.969	23.87
635.16	23.85
635.351	23.82
635.543	23.76
635.734	23.71
635.925	23.69
636.117	23.73
636.308	23.76
636.499	23.76
636.69	23.81
636.881	23.81
637.073	23.92
637.264	23.84
637.455	23.77
637.646	23.75
637.837	23.7
638.028	23.58
638.219	23.73
638.41	23.82
638.601	23.87
638.792	23.88
638.983	23.91
639.174	23.78
639.365	23.75
639.556	23.52
639.747	23.46
639.938	23.45
640.129	23.48
640.32	23.4
640.511	23.45
640.701	23.53
640.892	23.42
641.083	23.38
641.274	23.36
641.465	23.34
641.655	23.29
641.846	23.31
642.037	23.28
642.228	23.23
642.418	23.23
642.609	23.19
642.8	23.16
642.99	23.13
643.181	23.19
643.372	23.13
643.562	23.05
643.753	23.02
643.943	22.91
644.134	22.69
644.324	22.74
644.515	22.76
644.705	22.74
644.896	22.85
645.086	22.92
645.277	22.9
645.467	22.86
645.658	22.85
645.848	22.84
646.038	22.93
646.229	22.83
646.419	22.75
646.61	22.72
646.8	22.65
646.99	22.6
647.18	22.49
647.371	22.53
647.561	22.45
647.751	22.45
647.941	22.4
648.132	22.44
648.322	22.33
648.512	22.39
648.702	22.44
648.892	22.37
649.082	22.4
649.272	22.34
649.462	22.27
649.653	22.14
649.843	22.15
650.033	22.16
650.223	22.19
650.413	22.14
650.603	22.15
650.793	22.1
650.983	22.03
651.172	22
651.362	21.91
651.552	21.87
651.742	21.9
651.932	21.8
652.122	21.85
652.312	21.88
652.502	21.71
652.691	21.51
652.881	21.53
653.071	21.36
653.261	21.29
653.45	21.29
653.64	21.26
653.83	21.07
654.019	20.93
654.209	20.8
654.399	20.65
654.588	20.47
654.778	20.42
654.968	20.36
655.157	20.31
655.347	20.05
655.536	19.86
655.726	19.53
655.915	19.39
656.105	19.17
656.294	19.02
656.484	18.93
656.673	18.94
656.863	18.84
657.052	18.54
657.241	18.55
657.431	18.36
657.62	18.2
657.809	17.85
657.999	17.81
658.188	17.57
658.377	17.43
658.567	17.22
658.756	17.05
658.945	16.86
659.134	16.62
659.324	16.42
659.513	16.2
659.702	16.03
659.891	15.83
660.08	15.61
660.269	15.43
660.458	15.17
660.648	14.96
660.837	14.78
661.026	14.55
661.215	14.41
661.404	14.26
661.593	14.18
661.782	13.97
661.971	13.83
662.16	13.66
662.349	13.53
662.538	13.26
662.726	13.19
662.915	13.08
663.104	12.83
663.293	12.68
663.482	12.63
663.671	12.41
663.86	12.34
664.048	12.29
664.237	12.21
664.426	12.07
664.615	11.93
664.803	11.84
664.992	11.64
665.181	11.51
665.369	11.31
665.558	11.2
665.747	11.1
665.935	11.05
666.124	10.98
666.312	11
666.501	11.04
666.69	10.96
666.878	10.89
667.067	10.74
667.255	10.57
667.444	10.43
667.632	10.35
667.82	10.34
668.009	10.31
668.197	10.39
668.386	10.32
668.574	10.27
668.762	10.09
668.951	10.06
669.139	9.96
669.327	9.92
669.516	9.88
669.704	9.96
669.892	9.98
670.08	10.01
670.269	9.98
670.457	9.98
670.645	9.88
670.833	9.98
671.021	9.94
671.21	9.98
671.398	10.01
671.586	10.09
671.774	10.06
671.962	10.05
672.15	10.03
672.338	10.03
672.526	10.19
672.714	10.12
672.902	10.17
673.09	10.28
673.278	10.41
673.466	10.42
673.654	10.46
673.842	10.59
674.03	10.64
674.218	10.59
674.405	10.58
674.593	10.76
674.781	10.76
674.969	10.82
675.157	10.8
675.344	10.83
675.532	10.8
675.72	10.9
675.908	10.91
676.095	10.98
676.283	11.16
676.471	11.18
676.658	11.21
676.846	11.35
677.033	11.46
677.221	11.56
677.409	11.75
677.596	11.87
677.784	12
677.971	12.14
678.159	12.22
678.346	12.26
678.534	12.34
678.721	12.57
678.909	12.82
679.096	12.95
679.283	13.12
679.471	13.32
679.658	13.31
679.846	13.23
680.033	13.38
680.22	13.45
680.408	13.48
680.595	13.58
680.782	13.92
680.969	14.09
681.157	14.28
681.344	14.58
681.531	14.82
681.718	14.86
681.905	14.97
682.093	15.27
682.28	15.52
682.467	15.78
682.654	16.04
682.841	16.22
683.028	16.26
683.215	16.48
683.402	16.51
683.589	16.71
683.776	17
683.963	17.26
684.15	17.56
684.337	17.94
684.524	18.31
684.711	18.7
684.898	18.93
685.085	19.05
685.271	19.49
685.458	19.71
685.645	19.86
685.832	20.24
686.019	20.55
686.205	20.8
686.392	21.19
686.579	21.71
686.766	22.16
686.952	22.65
687.139	23.14
687.326	23.51
687.512	23.87
687.699	24.51
687.886	24.88
688.072	25.3
688.259	25.86
688.445	26.4
688.632	26.81
688.818	27.4
689.005	27.79
689.191	28.24
689.378	28.77
689.564	29.29
689.751	29.72
689.937	30.42
690.124	31.12
690.31	31.61
690.496	32.1
690.683	32.92
690.869	33.38
691.055	33.88
691.242	34.41
691.428	35.09
691.614	35.72
691.8	36.55
691.987	37.51
692.173	38.36
692.359	39.06
692.545	39.6
692.731	40.21
692.918	40.48
693.104	41.06
693.29	41.67
693.476	42.25
693.662	42.72
693.848	43.39
694.034	44.05
694.22	44.59
694.406	45.22
694.592	45.9
694.778	46.41
694.964	47.14
695.15	47.68
695.336	48.01
695.522	48.59
695.708	49.25
695.894	49.66
696.08	50.47
696.265	51.25
696.451	51.8
696.637	52.56
696.823	53.25
697.009	53.51
697.194	54.27
697.38	54.76
697.566	54.93
697.751	55.18
697.937	55.71
698.123	55.84
698.308	56.38
698.494	57.36
698.68	58.07
698.865	58.62
699.051	59.06
699.236	59.47
699.422	59.48
699.607	59.77
699.793	60.32
699.978	60.79
700.164	61.16
700.349	61.81
700.535	61.9
700.72	62.21
700.906	62.8
701.091	63.34
701.276	63.4
701.462	64.16
701.647	64.47
701.832	64.96
702.018	65.36
702.203	66.05
702.388	66.12
702.573	66.38
702.759	66.76
702.944	66.62
703.129	66.85
703.314	67.07
703.499	67.45
703.684	67.53
703.87	68.02
704.055	68.21
704.24	68.69
704.425	68.98
704.61	69.38
704.795	69.99
704.98	69.87
705.165	69.92
705.35	70.07
705.535	69.94
705.72	69.73
705.905	70.29
706.09	70.99
706.275	71.36
706.459	71.74
706.644	72.04
706.829	72.26
707.014	72.17
707.199	72.34
707.384	72.65
707.568	72.86
707.753	73.44
707.938	73.68
708.123	73.9
708.307	73.97
708.492	74.35
708.677	74.18
708.861	74.14
709.046	74.03
709.231	74.15
709.415	73.91
709.6	73.74
709.784	73.56
709.969	73.58
710.153	73.43
710.338	73.9
710.522	74.39
710.707	74.81
710.891	75.08
711.076	75.39
711.26	75.48
711.445	75.75
711.629	75.89
711.813	75.91
711.998	75.97
712.182	76.01
712.366	76.19
712.551	76.57
712.735	76.77
712.919	77.25
713.103	77.68
713.288	77.39
713.472	77.85
713.656	77.86
713.84	77.66
714.024	77.27
714.208	77.11
714.393	76.63
714.577	77.11
714.761	77.35
714.945	77.69
715.129	78.2
715.313	78.58
715.497	78.09
715.681	77.93
715.865	77.88
716.049	77.9
716.233	77.42
716.417	77.56
716.601	77.5
716.785	77.55
716.968	77.79
717.152	78.03
717.336	78.3
717.52	78.64
717.704	78.72
717.888	78.69
718.071	78.74
718.255	79
718.439	78.66
718.622	79.15
718.806	79.13
718.99	79.3
719.174	79.64
719.357	80.15
719.541	79.92
719.724	79.9
719.908	79.8
720.092	79.44
720.275	79.45
720.459	79.41
720.642	79.41
720.826	79.27
721.009	79.13
721.193	78.51
721.376	78.64
721.559	79.07
721.743	79.62
721.926	79.66
722.11	80.84
722.293	81.34
722.476	80.63
722.66	80.78
722.843	80.73
723.026	80.56
723.21	79.9
723.393	80.64
723.576	80.91
723.759	80.94
723.942	80.64
724.126	80.85
724.309	80.67
724.492	80.62
724.675	81.62
724.858	82.17
725.041	82.69
725.224	82.92
725.407	82.42
725.59	81.84
725.774	81.06
725.957	80.8
726.14	80.48
726.322	81.26
726.505	81.24
726.688	81.87
726.871	81.58
727.054	82.53
727.237	82.24
727.42	82.26
727.603	82.49
727.786	82.55
727.968	82.05
728.151	81.69
728.334	82
728.517	82.35
728.699	83.41
728.882	83.42
729.065	83.68
729.248	84.05
729.43	83.37
729.613	82.91
729.796	83.2
729.978	83.15
730.161	83.09
730.343	83.43
730.526	83.36
730.708	83.21
730.891	83.84
731.073	83.65
731.256	83.48
731.438	83.89
731.621	84.56
731.803	84.03
731.986	84.11
732.168	84.8
732.35	84.75
732.533	84.1
732.715	84
732.898	84.07
733.08	83.91
733.262	83.61
733.444	84.21
733.627	84.72
733.809	85.93
733.991	86.27
734.173	86.53
734.355	85.86
734.538	86.3
734.72	85.66
734.902	85.34
735.084	85.01
735.266	85.78
735.448	85.99
735.63	86.22
735.812	86.52
735.994	87.16
736.176	87.23
736.358	86.87
736.54	86.89
736.722	86.19
736.904	85.89
737.086	84.78
737.268	85.61
737.45	84.95
737.632	86.22
737.814	86.88
737.995	87.49
738.177	87.08
738.359	86.82
738.541	86.74
738.723	86.39
738.904	87.17
739.086	87.2
739.268	88.1
739.449	87.44
739.631	87.28
739.813	86.57
739.994	86.3
740.176	86.39
740.358	86.44
740.539	86.48
740.721	87.25
740.902	87.36
741.084	87.19
741.265	87.5
741.447	88.32
741.628	88.3
741.81	88.47
741.991	88.89
742.172	88.39
742.354	87.9
742.535	87.73
742.717	87.04
742.898	87.45
743.079	88.12
743.261	89.02
743.442	87.55
743.623	88.23
743.804	87.5
743.986	87.15
744.167	86.12
744.348	87.18
744.529	87.27
744.71	87.36
744.891	87.55
745.073	88.2
745.254	88.42
745.435	87.39
745.616	87.64
745.797	87.42
745.978	86.16
746.159	85.76
746.34	87.18
746.521	87.04
746.702	87.46
746.883	88.25
747.064	88.94
747.245	88.13
747.426	88.24
747.606	87.34
747.787	87.36
747.968	86.56
748.149	86.83
748.33	85.61
748.51	85.28
748.691	84.5
748.872	85.8
749.053	85.71
749.233	85.63
749.414	87.24
749.595	87.73
749.775	86.7
749.956	86.1
750.137	86.29
750.317	84.08
750.498	83.75
750.678	83.67
750.859	84.93
751.04	85.41
751.22	85.35
751.4	85.91
751.581	86.14
751.761	85.83
751.942	86.17
752.122	88.05
752.303	87.73
752.483	87.22
752.663	87.24
752.844	86.2
753.024	86.48
753.204	86.72
753.385	86.76
753.565	85.63
753.745	85.23
753.925	83.82
754.106	83.53
754.286	82.58
754.466	83.85
754.646	84.7
754.826	86.75
755.006	86.84
755.187	89.63
755.367	88.58
755.547	88.12
755.727	86.54
755.907	87.03
756.087	84.85
756.267	84.09
756.447	84.8
756.627	85.11
756.807	85.18
756.987	85.68
757.167	86.42
757.346	85.67
757.526	85.79
757.706	85.03
757.886	85.19
758.066	86.74
758.246	86.91
758.425	85.38
758.605	84.07
758.785	84.35
758.965	84.45
759.144	83.38
759.324	85.61
759.504	87.63
759.683	85.53
759.863	85.3
760.043	86.04
760.222	85.09
760.402	83.82
760.581	84.71
760.761	83.9
760.94	83.93
761.12	83.23
761.299	84.54
761.479	84.63
761.658	84.63
761.838	85.18
762.017	85.25
762.197	84.59
762.376	83.74
762.555	84.24
762.735	84.53
762.914	85.26
763.093	85.64
763.273	86.56
763.452	86.41
763.631	86.77
763.81	86.25
763.99	85.07
764.169	85.09
764.348	83.92
764.527	84.12
764.706	84.1
764.885	85.08
765.064	86.14
765.243	84.83
765.423	83.99
765.602	84.21
765.781	82.81
765.96	81.66
766.139	83.39
766.318	83.77
766.497	83.28
766.676	82.06
766.854	81.69
767.033	82.78
767.212	82.27
767.391	83.3
767.57	86.27
767.749	85.44
767.928	84.8
768.106	84.1
768.285	82.85
768.464	82.11
768.643	82.66
768.821	81.54
769	81.62
769.179	81.14
769.357	80.65
769.536	80.24
769.715	77.98
769.893	77.27
770.072	78.68
770.25	77.65
770.429	78.57
770.607	81.83
770.786	81.95
770.964	81.34
771.143	82.83
771.321	82.02
771.5	82.51
771.678	82.98
771.857	81.09
772.035	82.2
772.213	83.14
772.392	79.68
772.57	79.84
772.748	80.92
772.927	79.88
773.105	79.37
773.283	81.1
773.461	82.13
773.64	80.94
773.818	79.62
773.996	81.12
774.174	80.73
774.352	79.88
774.531	80.29
774.709	82.06
774.887	79.54
775.065	79.74
775.243	79.83
775.421	78.49
775.599	76.69
775.777	76.13
775.955	76.01
776.133	75.39
776.311	77.58
776.489	78.26
776.667	79.52
776.844	79.12
777.022	77.66
777.2	77.88
777.378	76.52
777.556	78.3
777.734	78.71
777.911	79.6
778.089	80.77
778.267	81.15
778.445	81.98
778.622	81.51
778.8	82.46
778.978	80.84
779.155	80.92
779.333	78.77
779.511	79.06
779.688	78.83
779.866	81.62
780.043	82.15
780.221	82.66
780.398	81.34
780.576	81.78
780.753	77.59
780.931	79.48
781.108	80.91
781.286	83.05
781.463	81.95
781.64	82.93
781.818	81.61
781.995	79.45
782.172	78.08
782.35	78.97
782.527	77.05
782.704	77.4
782.882	74.77
783.059	72.58
783.236	72.02
783.413	75.14
783.59	74.7
783.768	75.59
783.945	77.36
784.122	76.58
784.299	75.44
784.476	72.52
784.653	71.36
784.83	70.66
785.007	70.38
785.184	69.56
785.361	70.81
785.538	71.42
785.715	76.41
785.892	77.19
786.069	77.74
786.246	76.97
786.423	77.03
786.6	73.81
786.776	74
786.953	73.85
787.13	76.23
787.307	75.43
787.484	74.45
787.66	72.55
787.837	72.78
788.014	72.32
788.191	73.53
788.367	71.58
788.544	73.82
788.721	71.48
788.897	70.51
789.074	71.3
789.25	70.08
789.427	68.31
789.603	66.81
789.78	67.23
789.956	62.83
790.133	64.34
790.309	65.47
790.486	67.65
790.662	68.26
790.839	70.41
791.015	72.54
791.192	69.62
791.368	69.74
791.544	70.27
791.721	74.2
791.897	73
792.073	72.81
792.249	72.66
792.426	70.03
792.602	67.76
792.778	66.01
792.954	68.31
793.13	68.21
793.307	69.67
793.483	67.86
793.659	70.34
793.835	72.95
794.011	76.42
794.187	74.9
794.363	74.77
794.539	75.17
794.715	73.82
794.891	72.95
795.067	74.73
795.243	74.61
795.419	70.52
795.595	74.15
795.771	68.89
795.947	64.82
796.122	61.32
796.298	60.78
796.474	60.62
796.65	65.78
796.826	68.48
797.001	73.38
797.177	68.77
797.353	61.07
797.529	61.3
797.704	61.6
797.88	59.82
798.056	65.64
798.231	69.41
798.407	69.44
798.582	67.82
798.758	66.85
798.934	67.99
799.109	66.08
799.285	67.1
799.46	65.64
799.636	69.92
799.811	70.79
799.986	70.52
800.162	62.61
800.337	68.63
800.513	65.82
800.688	63.42
800.863	66.5
801.039	69.22
801.214	62.16
801.389	60.76
801.565	63.45
801.74	61.77
801.915	65.62
802.09	69.34
802.265	74.21
802.441	70.83
802.616	69.48
802.791	71.65
802.966	71.99
803.141	70.46
803.316	70.97
803.491	72.64
803.666	60.82
803.841	57.16
804.016	51.9
804.191	57.64
804.366	54.5
804.541	65.09
804.716	69.9
804.891	73.33
805.066	67.01
805.241	65.32
805.416	60.5
805.591	58.76
805.765	63.49
805.94	70.34
806.115	77.08
806.29	76.57
806.464	73.92
806.639	66.66
806.814	57.23
806.989	52.49
807.163	63.91
807.338	60.98
807.512	62.32
807.687	70.23
807.862	74.91
808.036	72.75
808.211	69.81
808.385	71.58
808.56	70.98
808.734	62.37
808.909	55.79
809.083	62.47
809.258	60.85
809.432	52.16
809.606	45.52
809.781	48.86
809.955	56.97
810.13	49.2
810.304	49.57
810.478	53.69
810.652	50.96
810.827	48.89
811.001	51.97
811.175	54.14
811.349	60.56
811.524	63.47
811.698	60.5
811.872	64.13
812.046	60.96
812.22	57.34
812.394	55.56
812.568	59
812.742	60.91
812.916	71.58
813.09	69.84
813.264	66.63
813.438	61.49
813.612	63.3
813.786	54.69
813.96	61
814.134	70.24
814.308	74.18
814.482	71.28
814.656	73.44
814.83	65.83
815.003	72.41
815.177	68.11
815.351	75.82
815.525	84.06
815.698	80.57
815.872	58.02
816.046	55.9
816.219	48.4
816.393	46.87
816.567	54.8
816.74	56.85
816.914	63.94
817.088	55.88
817.261	52.53
817.435	47.22
817.608	48.43
817.782	35.99
817.955	46.57
818.129	50.61
818.302	47.54
818.475	58.3
818.649	63.69
818.822	55.74
818.996	62.06
819.169	64.47
819.342	60.87
819.516	64.98
819.689	66.41
819.862	58.41
820.035	61.36
820.209	59.29
820.382	52.28
820.555	46.52
820.728	37.08
820.901	36.85
821.075	32.3
821.248	39.47
821.421	43.3
821.594	43.78
821.767	40.75
821.94	41.44
822.113	38.17
822.286	48.51
822.459	58.25
822.632	64.33
822.805	72.9
822.978	75.19
823.151	69.16
823.324	51.39
823.496	36.43
823.669	36.47
823.842	37.34
824.015	32.43
824.188	36.63
824.361	47.22
824.533	30.86
824.706	32.16
824.879	45.23
825.051	48.71
825.224	44.29
825.397	47.86
825.569	37.02
825.742	30.32
825.915	29.75
826.087	23.41
826.26	33.07
826.432	42.64
826.605	36.74
826.777	32.68
826.95	42.49
827.122	33.61
827.295	37.84
827.467	48.6
827.64	50.01
827.812	36.88
827.984	47.99
828.157	32.07
828.329	38.27
828.501	45.55
828.674	38.47
828.846	29.22
829.018	33.12
829.19	21.76
829.363	24.36
829.535	43.42
829.707	42.57
829.879	27.03
830.051	35.57
830.223	19.8
830.395	12.65
830.568	23.89
830.74	26.83
830.912	26.99
831.084	27.86
831.256	19.43
831.428	19.18
831.6	8.75
831.772	-3.48
831.943	0.8
832.115	-2.48
832.287	5.64
832.459	28.65
832.631	50.69
832.803	62.01
832.975	61.59
833.146	56.83
833.318	49.82
833.49	37.88
833.662	36.29
833.833	45.21
834.005	43.1
834.177	67.76
834.348	75.7
834.52	58.2
834.692	49.64
834.863	54.64
835.035	49.72
835.206	46.77
835.378	51.82
835.549	53.68
835.721	45.6
835.892	36.53
836.064	32.05
836.235	22.65
836.407	27.48
836.578	35.51
836.749	27.45
836.921	21
837.092	17.23
837.264	14.34
837.435	5.68
837.606	28.3
837.777	33.36
837.949	44.33
838.12	46.16
838.291	50.69
838.462	45.35
838.633	41.78
838.805	30.72
838.976	26.64
839.147	25.09
839.318	35.94
839.489	46.13
839.66	64.47
839.831	76.4
840.002	75.44
840.173	63.8
840.344	50.58
840.515	32.72
840.686	21.42
840.857	12.64
841.028	20.24
841.199	18.79
841.369	12.1
841.54	-21.05
841.711	25.36
841.882	34.74
842.053	35.54
842.223	32.47
842.394	44.2
842.565	20.31
842.736	24.37
842.906	16.65
843.077	39.65
843.248	46.89
843.418	37.75
843.589	20.07
843.759	45.59
843.93	40.87
844.101	22.9
844.271	48.66
844.442	54.19
844.612	37.66
844.783	32.41
844.953	39.96
845.123	27.08
845.294	24.08
845.464	8.42
845.635	-30.38
845.805	-29.19
845.975	-21.17
846.146	-44.24
846.316	-30.61
846.486	-3.7
846.656	-12.97
846.827	-14.97
846.997	-15.17
847.167	-10.53
847.337	-3.97
847.507	11.65
847.677	9
847.848	25.23
848.018	30.84
848.188	34.63
848.358	13.16
848.528	23.94
848.698	20.11
848.868	20.69
849.038	5.93
849.208	15.29
849.378	14.31
849.548	-26.43
849.718	-13.03
849.887	27.4
850.057	33.17
850.227	37.84
850.397	58.21
850.567	25.39
850.737	20.26
850.906	-28.45
851.076	-9.4
851.246	-9.67
851.415	-4.46
851.585	11.21
851.755	54.41
851.924	55.83
852.094	79.45
852.264	82.05
852.433	54.52
852.603	40.74
852.772	38.44
852.942	39.38
853.111	7.68
853.281	27.65
853.45	29.97
853.62	19.99
853.789	-6.67
853.959	20.03
854.128	13.76
854.297	24.57
854.467	17.48
854.636	21.35
854.805	12.78
854.975	11.87
855.144	-6.06
855.313	8.81
855.482	20.62
855.652	20.5
855.821	10.59
855.99	25.17
856.159	23.23
856.328	1.19
856.497	21.66
856.667	21.32
856.836	11.36
857.005	16.31
857.174	31.22
857.343	-15.98
857.512	-0.35
857.681	-16.53
857.85	-20.11
858.019	-67.92
858.188	-13.77
858.356	-11.43
858.525	-2.09
858.694	5.77
858.863	19.13
859.032	5.47
859.201	-25.47
859.369	-10.08
859.538	-3.01
859.707	-19.05
859.876	8.75
860.044	29.59
860.213	54.54
860.382	51.71
860.55	41.79
860.719	50.13
860.888	36.06
861.056	6.3
861.225	-2.85
861.393	29.27
861.562	-13.29
861.73	-18.57
861.899	-33.83
862.067	-43.71
862.236	-38.74
862.404	-12.18
862.572	-3.81
862.741	11.16
862.909	3.86
863.078	-13.58
863.246	-24.47
863.414	4.32
863.582	2.16
863.751	-1.86
863.919	17.52
864.087	34.29
864.255	26
864.424	-4.07
864.592	25.62
864.76	7.5
864.928	11.47
865.096	-11.37
865.264	7.14
865.432	0.9
865.6	27.31
865.768	-16.93
865.936	-14.16
866.104	-49.12
866.272	-162.43
866.44	-115.89
866.608	-72.56
866.776	-83.8
866.944	-43.77
867.112	-20
867.28	-17.73
867.448	-7.81
867.615	5.94
867.783	-14.01
867.951	-7.79
868.119	-10.3
868.286	-9.16
868.454	2.66
868.622	1.84
868.789	9.39
868.957	5.95
869.125	14.85
869.292	-0.77
869.46	14.96
869.627	17.03
869.795	-6.85
869.963	12.98
870.13	-0.93
870.298	45.9
870.465	26.01
870.632	10.62
870.8	2.48
870.967	-15.41
871.135	-79.9
871.302	-74.05
871.469	-67.28
871.637	-98.34
871.804	-25.66
871.971	-17.56
872.139	-0.81
872.306	5.37
872.473	-38.4
872.64	-119
872.807	-130.37
872.975	-225.71
873.142	-73.92
873.309	-38.08
873.476	9.63
873.643	54.93
873.81	17.78
873.977	28.31
874.144	19.99
874.311	-46.69
874.478	-126.95
874.645	-121.45
874.812	-41.93
874.979	-11.2
875.146	5.26
875.313	24.13
875.48	38.44
875.647	15.81
875.813	-30.91
875.98	-48.7
876.147	-108.21
876.314	-97.99
876.481	-105.44
876.647	-44.89
876.814	-6.63
876.981	8.06
877.147	31.01
877.314	25.4
877.481	16.53
877.647	13.66
877.814	-11.17
877.98	-35.65
878.147	-3.17
878.314	7.37
878.48	1.68
878.647	27.44
878.813	50.65
878.979	35.81
879.146	10.59
879.312	22.6
879.479	9.34
879.645	4.41
879.811	-13.24
879.978	12.08
880.144	-8.09
880.31	-17.22
880.477	-7.81
880.643	-23.79
880.809	-91.3
880.975	-122.56
881.142	-201.87
881.308	653.16
881.474	861.88
881.64	-152.61
881.806	-188.31
881.972	-85.58
882.138	-19.46
882.304	3.19
882.47	-39.46
882.636	-29.4
882.802	-37.6
882.968	-50.2
883.134	-43.2
883.3	-58.94
883.466	-82.08
883.632	-19.24
883.798	-23.78
883.964	-81.42
884.129	-552.4
884.295	17.89
884.461	-81.81
884.627	-52.46
884.793	-74.81
884.958	-8.31
885.124	-58.46
885.29	-84.5
885.455	-108.62
885.621	-52.57
885.787	-24.02
885.952	-50.62
886.118	-15.32
886.283	-30.45
886.449	-32.79
886.614	-50.48
886.78	0.48
886.945	-7.74
887.111	-18.69
887.276	-43.89
887.442	-129.94
887.607	-98.5
887.773	-75.22
887.938	-80.47
888.103	-51.97
888.269	0.38
888.434	-6.11
888.599	5.12
888.764	37.24
888.93	68.03
889.095	30.43
889.26	23.88
889.425	11.3
889.59	-46.74
889.756	-120.67
889.921	-67.26
890.086	-145.87
890.251	-147.06
890.416	-58.23
890.581	-84.73
890.746	-1.12
890.911	12.18
891.076	26.49
891.241	27.02
891.406	29.38
891.571	0.99
891.736	-129.68
891.901	-45.29
892.065	-23.93
892.23	-19.83
892.395	-73.92
892.56	-50.74
892.725	-150.24
892.889	-261.16
893.054	-193.8
893.219	-165.88
893.384	-114.98
893.548	-87.15
893.713	-130.62
893.878	-76.21
