Data from Ofra_PS_T2_2A_0GT05_Reflection_3.txt Node
Date: Wed Jul 21 16:52:46 EDT 2021
User: Adam
Spectrometer: FLMT01687
Trigger mode: 0
Integration Time (sec): 1.100000E0
Scans to average: 2
Electric dark correction enabled: true
Nonlinearity correction enabled: false
Boxcar width: 2
XAxis mode: Wavelengths
Number of Pixels in Spectrum: 3648
>>>>>Begin Spectral Data<<<<<
179.494	472.2
179.716	528.71
179.937	513.96
180.158	496.31
180.38	749.53
180.601	331.08
180.823	111.06
181.044	32.35
181.265	129.6
181.486	57.71
181.708	81.58
181.929	120.92
182.15	110.92
182.372	147.21
182.593	15.94
182.814	8.91
183.035	23.09
183.257	0.98
183.478	-100.05
183.699	-42.43
183.92	-53.01
184.141	-67.82
184.363	-113.3
184.584	-36.73
184.805	-35.96
185.026	-1.85
185.247	6.81
185.468	-5.21
185.689	-17.76
185.91	8.26
186.132	3.65
186.353	2.57
186.574	50.82
186.795	44.81
187.016	4.63
187.237	-27.13
187.458	-43.45
187.679	-58.49
187.9	-69.32
188.121	-57.48
188.342	-13.68
188.563	-14.35
188.784	-24.76
189.005	-11.07
189.226	6.05
189.447	-73.68
189.667	-293.81
189.888	-361.7
190.109	-996.43
190.33	-549.19
190.551	-628.54
190.772	-155.99
190.993	-68.56
191.214	-56.82
191.434	-22.75
191.655	14.08
191.876	31.57
192.097	-20.85
192.318	-117.88
192.538	-169.57
192.759	-143.38
192.98	-83.22
193.201	-38.21
193.421	8.83
193.642	18.65
193.863	20.86
194.083	16.43
194.304	6.27
194.525	-11.75
194.745	-39.9
194.966	-34.19
195.187	-57.52
195.407	-91.32
195.628	-122.64
195.848	-128.42
196.069	-153.3
196.29	-62.23
196.51	-72
196.731	-40.81
196.951	-45.95
197.172	-32.18
197.392	-106.61
197.613	-107.97
197.833	-145.87
198.054	-111.01
198.274	-70.09
198.495	-60.23
198.715	-30.4
198.936	-48.74
199.156	-30.63
199.377	-93.2
199.597	-89.85
199.817	-111.77
200.038	-59.24
200.258	-131.42
200.479	-70.27
200.699	-82.55
200.919	-3.77
201.14	-1.99
201.36	-3.37
201.58	10.02
201.801	42.06
202.021	11.44
202.241	5.67
202.461	19.33
202.682	-47.49
202.902	-131.55
203.122	-56.09
203.342	-48.92
203.563	-13.46
203.783	12.38
204.003	-13.23
204.223	-2.8
204.443	33.88
204.663	10.84
204.884	22.8
205.104	28.27
205.324	4.82
205.544	8.32
205.764	22.47
205.984	33.2
206.204	58.78
206.424	50.65
206.644	35.66
206.864	37.57
207.084	-4.34
207.304	-12.4
207.525	-48.52
207.745	-11.12
207.964	-0.28
208.184	-28.3
208.404	-59.17
208.624	-68.81
208.844	-66.55
209.064	-290.15
209.284	-274.94
209.504	-122
209.724	-43.15
209.944	-46.5
210.164	-9.64
210.384	-4.56
210.604	-26.47
210.823	-39.13
211.043	-25.78
211.263	-34.82
211.483	-44.82
211.703	-69.74
211.922	-78.02
212.142	-35.78
212.362	-30.08
212.582	-13.11
212.801	-12.45
213.021	-13.42
213.241	-39.17
213.461	-62.68
213.68	-73.5
213.9	-116.16
214.12	-109.8
214.339	-157.88
214.559	-136.62
214.779	-93.35
214.998	-17.67
215.218	-22.2
215.438	1.82
215.657	-2.7
215.877	-5.52
216.096	-13.61
216.316	6.54
216.535	-11.66
216.755	-11.54
216.974	-83.49
217.194	-126.04
217.413	-173.1
217.633	-155.39
217.852	-250.34
218.072	-96.15
218.291	-45.43
218.511	3.57
218.73	-16.09
218.95	-9.03
219.169	-15.92
219.389	-47.23
219.608	-44.41
219.827	-27.69
220.047	-16.55
220.266	-11.03
220.485	-17.52
220.705	-9.8
220.924	-39.63
221.143	9.79
221.363	-15.33
221.582	7.36
221.801	4.23
222.021	31.39
222.24	-84.95
222.459	-53.57
222.678	-77.44
222.897	-121.88
223.117	-184.88
223.336	-134.69
223.555	-92.14
223.774	-105.02
223.993	-78.18
224.213	12.51
224.432	2.5
224.651	33.42
224.87	37.61
225.089	44.05
225.308	22.47
225.527	32.89
225.746	25.52
225.965	11.96
226.184	-35.51
226.404	-3.01
226.623	-25.59
226.842	-23.28
227.061	-0.56
227.28	15.69
227.499	-11.58
227.718	0.63
227.936	-2.03
228.155	1.46
228.374	-16.11
228.593	0.55
228.812	-1.91
229.031	-6.01
229.25	-54.84
229.469	-66.3
229.688	-96.72
229.907	-39.24
230.125	-39.37
230.344	-10.82
230.563	-1.5
230.782	11.59
231.001	-65.79
231.22	-56.4
231.438	-46.87
231.657	-26.1
231.876	-22.33
232.095	25.39
232.313	21.04
232.532	16.89
232.751	-17.28
232.969	-23.76
233.188	-61.98
233.407	-6.54
233.625	-1.3
233.844	14.59
234.063	16.74
234.281	14.42
234.5	22.04
234.719	31.64
234.937	21.3
235.156	18.69
235.374	17.66
235.593	-6.92
235.811	-37.32
236.03	-31.04
236.249	-61.92
236.467	-48.96
236.686	-13.07
236.904	-2.35
237.123	-20.59
237.341	-12.85
237.559	-6.11
237.778	-19.82
237.996	-27.26
238.215	1
238.433	5.24
238.652	0.68
238.87	-15.75
239.088	-5.21
239.307	-10.39
239.525	-6.64
239.743	-33.38
239.962	-9.25
240.18	-20.15
240.398	-45.48
240.617	-49.46
240.835	-23.27
241.053	-19.95
241.271	-7.16
241.49	10.06
241.708	-23.86
241.926	-64.99
242.144	-58.42
242.363	-77.08
242.581	-88.64
242.799	-50.25
243.017	-19.8
243.235	-27.78
243.453	-25.63
243.672	-33.02
243.89	-39.77
244.108	-56.97
244.326	-30.62
244.544	-26.1
244.762	-9.05
244.98	-13.63
245.198	-5.14
245.416	-26.48
245.634	-35.6
245.852	-58.74
246.07	-55.34
246.288	-40.94
246.506	-89.08
246.724	-72.93
246.942	-73.81
247.16	-18.06
247.378	-13.73
247.596	13.81
247.814	16.37
248.032	8.12
248.25	2.08
248.468	-3.91
248.685	-5.38
248.903	22.53
249.121	31.72
249.339	3.86
249.557	-12.11
249.775	-10.27
249.992	-66.08
250.21	-66.53
250.428	-45.39
250.646	-52.55
250.863	-57.92
251.081	-35.5
251.299	-22.93
251.517	8.22
251.734	-4.06
251.952	2.4
252.17	-4.13
252.387	-1.38
252.605	-15.29
252.823	-5.79
253.04	-6.7
253.258	4.85
253.475	-0.39
253.693	6.74
253.911	12.31
254.128	26.9
254.346	33.49
254.563	13.63
254.781	8.39
254.998	8.63
255.216	-1.24
255.433	-8.48
255.651	18.52
255.868	6.38
256.086	-1.79
256.303	5.35
256.521	17.69
256.738	-5.52
256.956	-31.67
257.173	-40.06
257.39	-73.92
257.608	-103.13
257.825	-58.85
258.043	-39.54
258.26	-16.87
258.477	13.97
258.695	-5.02
258.912	-39.6
259.129	-12.87
259.346	-37.48
259.564	-62.43
259.781	-63.97
259.998	-18.72
260.216	-16.93
260.433	-4.14
260.65	-5.5
260.867	4.26
261.084	-23.11
261.302	-23.45
261.519	-26.68
261.736	-28.44
261.953	-41.97
262.17	-14.24
262.387	-40.77
262.604	-57.61
262.822	-68.34
263.039	-48.69
263.256	-87.75
263.473	-57.25
263.69	-36.26
263.907	2.51
264.124	13.73
264.341	17.85
264.558	13.44
264.775	29.52
264.992	7.37
265.209	-11.62
265.426	3.01
265.643	3.88
265.86	10.09
266.077	23.57
266.294	50.58
266.51	29.78
266.727	18.92
266.944	6.02
267.161	-23.1
267.378	-56
267.595	-21.61
267.812	-42.08
268.028	-76.92
268.245	-49.85
268.462	-34.67
268.679	-46.77
268.896	-9.63
269.112	1.97
269.329	1.89
269.546	15.06
269.763	7.52
269.979	11.92
270.196	15.72
270.413	1.63
270.629	-35.63
270.846	-45.06
271.063	-51.42
271.279	-53.59
271.496	-52.98
271.712	-18.33
271.929	10.36
272.146	-6.32
272.362	-23.66
272.579	-4.43
272.795	-6.27
273.012	-14.03
273.228	-4.25
273.445	-22.31
273.661	-28.73
273.878	-32.83
274.094	-26.43
274.311	-53.63
274.527	-11.52
274.744	-11.18
274.96	-25.22
275.177	-8.21
275.393	1.57
275.609	4.52
275.826	21.16
276.042	29.34
276.259	6.72
276.475	23.53
276.691	21.07
276.908	5.04
277.124	20.9
277.34	14.36
277.557	-12.15
277.773	-14.82
277.989	-23.75
278.205	-42.91
278.422	-13.1
278.638	-1.13
278.854	22.32
279.07	19.55
279.286	22.31
279.503	-13.4
279.719	-22.23
279.935	-62.07
280.151	-65.27
280.367	-59.61
280.583	-67.37
280.799	-39.87
281.016	-59.09
281.232	-24.02
281.448	-20.37
281.664	-4.77
281.88	-48.64
282.096	-24.51
282.312	-25.24
282.528	-14.98
282.744	-8.45
282.96	15.66
283.176	21.16
283.392	18.47
283.608	8.62
283.824	-0.8
284.04	-1.88
284.256	0.04
284.471	-8.25
284.687	3.81
284.903	21.08
285.119	44.61
285.335	20.62
285.551	24.39
285.767	-1.39
285.982	-8.25
286.198	-44.26
286.414	-1.97
286.63	-4.62
286.846	12.67
287.061	-3.49
287.277	17.31
287.493	-12.81
287.709	1.74
287.924	-11.15
288.14	24.6
288.356	6.4
288.571	31.65
288.787	12.95
289.003	14.41
289.218	-2.63
289.434	-18.27
289.65	-22.93
289.865	-19.72
290.081	-21.47
290.296	-20.35
290.512	8.58
290.727	-7.75
290.943	-10.33
291.159	-9.1
291.374	-16.35
291.59	-41.55
291.805	-20.82
292.021	-13.06
292.236	-16.12
292.451	9.22
292.667	21.58
292.882	17.41
293.098	-3.52
293.313	-13.64
293.529	-40.53
293.744	-58.91
293.959	-49.42
294.175	-23.01
294.39	-1.5
294.605	10.12
294.821	22.13
295.036	16.95
295.251	15.73
295.467	6.55
295.682	-12.76
295.897	-57.29
296.112	-51.75
296.328	-59.66
296.543	-71.19
296.758	-66.97
296.973	-22.82
297.188	4.35
297.404	-10.46
297.619	-30.36
297.834	-36.8
298.049	-53.22
298.264	-80.13
298.479	-24.03
298.694	-8.96
298.909	6.02
299.125	10.88
299.34	12.06
299.555	-4.51
299.77	-6.92
299.985	-34.56
300.2	-73.91
300.415	-86.48
300.63	-72.21
300.845	-74.92
301.06	-66.53
301.275	-16.48
301.49	4.25
301.704	9.12
301.919	13.43
302.134	4.1
302.349	-20.18
302.564	-61.69
302.779	-98.2
302.994	-105.21
303.209	-42.76
303.423	-13.03
303.638	32.84
303.853	4.87
304.068	11.16
304.283	5
304.497	0.18
304.712	-20.82
304.927	-14.24
305.142	-20.19
305.356	-31.56
305.571	-31.85
305.786	-38.68
306	-51.54
306.215	-77.61
306.43	-71.19
306.644	-82.85
306.859	-54.58
307.074	-18.22
307.288	-24.41
307.503	-43.09
307.717	-36.03
307.932	-45.9
308.147	-36.4
308.361	-11.33
308.576	0.21
308.79	-27.47
309.005	-0.14
309.219	-11.07
309.434	-16.96
309.648	-30.49
309.863	-8.46
310.077	-21.62
310.292	-16.72
310.506	-16.55
310.72	-2.31
310.935	2.45
311.149	5.13
311.364	20.52
311.578	35.97
311.792	31.78
312.007	27.45
312.221	16.88
312.435	13.34
312.649	-3.23
312.864	0.27
313.078	5.25
313.292	57.26
313.507	16.82
313.721	37.55
313.935	21.89
314.149	14.42
314.363	-0.43
314.578	7.88
314.792	4.76
315.006	-10.76
315.22	-3.47
315.434	-10.62
315.648	-8.73
315.862	-4.75
316.077	0.04
316.291	-8.32
316.505	1.27
316.719	-11.94
316.933	-54
317.147	-50.52
317.361	-91.9
317.575	-99.77
317.789	-114.04
318.003	-161.94
318.217	-105.66
318.431	-27.92
318.645	-3.25
318.859	11.64
319.073	34.06
319.287	13.13
319.5	2.14
319.714	-15.26
319.928	-39.15
320.142	-53.66
320.356	-14.08
320.57	-12.15
320.784	-32.56
320.997	-68.36
321.211	-62.6
321.425	-82.44
321.639	-85.05
321.853	-52.39
322.066	-32.49
322.28	-33.26
322.494	-34.15
322.707	-33.72
322.921	-33.31
323.135	-12.55
323.349	-4.73
323.562	-22.87
323.776	-25.09
323.989	-20.76
324.203	-43.94
324.417	-45.62
324.63	-33.58
324.844	-26.77
325.057	-19
325.271	-5.58
325.485	5.77
325.698	17.24
325.912	26.4
326.125	6.09
326.339	3.52
326.552	-18.81
326.766	-19.69
326.979	-12.15
327.193	22.85
327.406	12.33
327.619	8.77
327.833	12.09
328.046	2.82
328.26	-35.94
328.473	-4.75
328.686	-18.28
328.9	-26.09
329.113	-23.37
329.326	-21.54
329.54	-38.42
329.753	-30.13
329.966	-27.2
330.179	-33.66
330.393	-7.56
330.606	9.74
330.819	23.1
331.032	30.67
331.246	36.15
331.459	41.67
331.672	30.12
331.885	20.34
332.098	-4.52
332.311	-13.46
332.525	-45.97
332.738	-48.81
332.951	-16.73
333.164	13.91
333.377	20.21
333.59	26.72
333.803	35.18
334.016	23
334.229	3.8
334.442	-4.81
334.655	3.26
334.868	11.15
335.081	12.03
335.294	15.3
335.507	7.87
335.72	1.48
335.933	-18.74
336.146	-38.57
336.359	-52.99
336.572	-72.15
336.785	-96.46
336.997	-83.6
337.21	-57.13
337.423	-51.73
337.636	-28.8
337.849	-6.64
338.062	-9.77
338.274	-8.72
338.487	-8.21
338.7	-27.13
338.913	-51.66
339.125	-73.27
339.338	-117.43
339.551	-95.5
339.763	-43.95
339.976	-28.33
340.189	-7.94
340.402	10.11
340.614	1.43
340.827	-12.91
341.039	-20.12
341.252	-2.01
341.465	3.18
341.677	4.53
341.89	-27.85
342.102	-1.69
342.315	-30.81
342.527	-71.22
342.74	-49.98
342.952	-17.8
343.165	-29.7
343.377	-9.73
343.59	-5.77
343.802	-2.16
344.015	-12.73
344.227	-18.01
344.44	-23.84
344.652	-19.25
344.864	-32.75
345.077	-2.35
345.289	10.48
345.502	17.21
345.714	7.46
345.926	17.56
346.139	7.52
346.351	1
346.563	-11.74
346.775	-5.87
346.988	-24.18
347.2	-21.61
347.412	-53.16
347.624	-40.67
347.837	-44.12
348.049	-18.96
348.261	-27.22
348.473	-30.89
348.685	-48.73
348.897	-45.01
349.11	-60.27
349.322	-94.49
349.534	-54.34
349.746	-40.89
349.958	-33.08
350.17	-30.79
350.382	-0.82
350.594	-6.89
350.806	-2.42
351.018	-3.21
351.23	-10.24
351.442	-30.79
351.654	-45.13
351.866	-44.67
352.078	-35.44
352.29	-4.75
352.502	5.14
352.714	15.53
352.926	13.92
353.138	15.69
353.35	2.1
353.561	-3.01
353.773	-14.81
353.985	-6.7
354.197	-14.26
354.409	-23.33
354.621	-22.6
354.832	-18.7
355.044	-17.15
355.256	-16.11
355.468	10.71
355.679	10.66
355.891	6.55
356.103	-19.03
356.314	-17.67
356.526	-34.03
356.738	-38.61
356.949	-37.21
357.161	-4.22
357.373	-13.17
357.584	-20.63
357.796	-0.66
358.008	-2.62
358.219	9.63
358.431	9.47
358.642	20.29
358.854	-5.04
359.065	-19.75
359.277	-60.98
359.488	-55.77
359.7	-76.91
359.911	-68.17
360.123	-48.66
360.334	-49.99
360.546	-76.52
360.757	-83.84
360.969	-77.45
361.18	-60.5
361.391	-36.01
361.603	-22.05
361.814	-12.07
362.025	-5.11
362.237	-11.21
362.448	6.03
362.659	22.46
362.871	28.17
363.082	24.98
363.293	4.27
363.504	-14.32
363.716	-43.38
363.927	-69.5
364.138	-82.94
364.349	-71.69
364.56	-59.67
364.772	-52.77
364.983	-27.42
365.194	-25.87
365.405	-10.86
365.616	-7.18
365.827	-4.78
366.038	-22.04
366.25	-39.33
366.461	-76.94
366.672	-57.16
366.883	-28.57
367.094	-7.87
367.305	-2.15
367.516	11.26
367.727	2.5
367.938	-11.51
368.149	-15.58
368.36	-1.89
368.571	-5.16
368.781	-22.72
368.992	-34.85
369.203	-62.91
369.414	-91.95
369.625	-86.57
369.836	-62.69
370.047	-82.81
370.258	-51.97
370.468	-45.07
370.679	-59.16
370.89	-62.06
371.101	-39.27
371.312	-41.85
371.522	-30.93
371.733	-24.36
371.944	-9.74
372.155	-3.7
372.365	-12.78
372.576	-18.11
372.787	-12.52
372.997	-35.53
373.208	-39.69
373.419	-21.38
373.629	-41.35
373.84	-56.08
374.05	-59.48
374.261	-47.62
374.472	-49.9
374.682	-2.39
374.893	12.65
375.103	34.48
375.314	30.2
375.524	25.63
375.735	15.26
375.945	10.16
376.156	-5.92
376.366	-9.6
376.577	-7.17
376.787	-11.01
376.997	-16.45
377.208	-4.94
377.418	-11.17
377.629	-2.45
377.839	0.03
378.049	2.6
378.26	13.39
378.47	21.68
378.68	6.63
378.89	2.04
379.101	7.22
379.311	-27.95
379.521	-51.71
379.732	-38.31
379.942	-33.88
380.152	-41.06
380.362	-12.44
380.572	-0.97
380.783	0.36
380.993	8.11
381.203	3.35
381.413	-1.85
381.623	-3.17
381.833	4.6
382.043	-6.87
382.253	-10.61
382.463	-6.17
382.674	-24.48
382.884	-41.54
383.094	-35.92
383.304	-24.13
383.514	-21.73
383.724	-8.55
383.934	-9.33
384.144	-14.37
384.353	-18.45
384.563	-16.18
384.773	-14.22
384.983	-12.82
385.193	-1.45
385.403	-0.21
385.613	0.09
385.823	-3.59
386.033	5.09
386.242	-3.36
386.452	-3.32
386.662	-13.59
386.872	-6.06
387.082	-16.35
387.291	-24.5
387.501	-33
387.711	-20.38
387.921	-24.37
388.13	-19.36
388.34	-3.91
388.55	-4.89
388.759	-6.96
388.969	-2.37
389.179	-3.35
389.388	-6.21
389.598	2.69
389.807	-3.46
390.017	-6.25
390.227	-6.19
390.436	-6.1
390.646	-5.72
390.855	-0.47
391.065	-1.41
391.274	-5.91
391.484	-7.43
391.693	-10.98
391.903	-9.23
392.112	-5.05
392.322	-0.62
392.531	1.67
392.74	3.43
392.95	-0.98
393.159	-3.34
393.369	-3.2
393.578	-3.81
393.787	-2.46
393.997	-0.35
394.206	-0.35
394.415	-0.17
394.625	-0.78
394.834	-3.96
395.043	-2.81
395.252	-0.24
395.462	1.5
395.671	2.28
395.88	3.11
396.089	3.5
396.298	0.69
396.508	0.53
396.717	0.34
396.926	1.48
397.135	0.24
397.344	0.77
397.553	1.13
397.762	1.98
397.971	1.81
398.181	1.88
398.39	1.45
398.599	0.89
398.808	1.04
399.017	1.8
399.226	2.96
399.435	3.98
399.644	4.27
399.853	3.04
400.062	2.46
400.27	1.69
400.479	1.46
400.688	0.7
400.897	1.08
401.106	1.16
401.315	1.12
401.524	1.14
401.733	1.86
401.941	2.4
402.15	2.6
402.359	2.63
402.568	2.82
402.777	2.67
402.985	2.21
403.194	1.78
403.403	1.97
403.612	1.76
403.82	1.49
404.029	1.89
404.238	2.05
404.446	2.17
404.655	1.98
404.864	2.1
405.072	1.84
405.281	1.95
405.489	1.68
405.698	1.9
405.906	2.01
406.115	2.11
406.324	2.04
406.532	2.26
406.741	2.38
406.949	2.31
407.158	2.18
407.366	2.1
407.574	2.06
407.783	1.99
407.991	1.83
408.2	2.02
408.408	2.08
408.617	2
408.825	1.84
409.033	1.98
409.242	2
409.45	2.26
409.658	2.17
409.867	2.38
410.075	2.25
410.283	2.13
410.491	1.9
410.7	1.98
410.908	1.97
411.116	2.27
411.324	2.19
411.533	2.09
411.741	2.17
411.949	2.03
412.157	1.75
412.365	1.87
412.573	1.89
412.781	1.95
412.99	1.96
413.198	2.12
413.406	2.19
413.614	2.29
413.822	2.05
414.03	1.97
414.238	1.74
414.446	1.78
414.654	1.66
414.862	1.87
415.07	1.97
415.278	2.28
415.486	2.12
415.694	2.2
415.902	2.11
416.109	2.07
416.317	1.84
416.525	1.74
416.733	1.72
416.941	1.88
417.149	1.86
417.357	1.92
417.564	1.98
417.772	2
417.98	1.79
418.188	1.79
418.395	1.79
418.603	2.04
418.811	1.84
419.019	2
419.226	2.22
419.434	2.42
419.642	2.22
419.849	2.35
420.057	2.24
420.265	2.08
420.472	1.93
420.68	1.96
420.887	1.93
421.095	1.95
421.302	1.93
421.51	2.03
421.717	2.12
421.925	2.17
422.132	2.12
422.34	1.88
422.547	1.72
422.755	1.43
422.962	1.4
423.17	1.19
423.377	1.33
423.585	1.44
423.792	1.5
423.999	1.57
424.207	1.64
424.414	1.79
424.621	1.67
424.829	1.71
425.036	1.76
425.243	1.89
425.451	1.74
425.658	1.69
425.865	1.73
426.072	1.59
426.28	1.73
426.487	1.73
426.694	1.82
426.901	1.8
427.108	1.84
427.315	1.7
427.523	1.92
427.73	1.89
427.937	1.85
428.144	1.7
428.351	1.71
428.558	1.77
428.765	1.67
428.972	1.67
429.179	1.85
429.386	2.04
429.593	1.82
429.8	1.8
430.007	1.85
430.214	1.92
430.421	1.71
430.628	1.6
430.835	1.62
431.042	1.67
431.249	1.61
431.456	1.64
431.662	1.74
431.869	1.84
432.076	1.85
432.283	1.92
432.49	1.83
432.697	1.85
432.903	1.65
433.11	1.63
433.317	1.68
433.524	1.85
433.73	1.84
433.937	2.04
434.144	2.01
434.35	1.95
434.557	1.82
434.764	1.84
434.97	1.77
435.177	1.85
435.384	1.75
435.59	1.9
435.797	2.12
436.003	2.21
436.21	2.16
436.416	2.13
436.623	1.97
436.829	1.9
437.036	2
437.242	2.04
437.449	2.16
437.655	2.26
437.862	2.22
438.068	2.1
438.275	2.18
438.481	2.28
438.687	2.27
438.894	2.18
439.1	2.23
439.307	2.25
439.513	2.17
439.719	2.13
439.926	2.2
440.132	2.14
440.338	2
440.544	2.08
440.751	2.05
440.957	2.1
441.163	2.09
441.369	2.17
441.575	2.02
441.782	2.09
441.988	2.04
442.194	2.04
442.4	2.07
442.606	2.36
442.812	2.42
443.018	2.44
443.224	2.47
443.431	2.49
443.637	2.25
443.843	2.16
444.049	2.18
444.255	2.14
444.461	2.26
444.667	2.25
444.873	2.33
445.079	2.36
445.284	2.46
445.49	2.21
445.696	2.12
445.902	2
446.108	1.89
446.314	1.85
446.52	1.96
446.726	2.24
446.931	2.27
447.137	2.36
447.343	2.5
447.549	2.45
447.755	2.31
447.96	2.38
448.166	2.37
448.372	2.22
448.578	2.22
448.783	2.18
448.989	2.23
449.195	2.43
449.4	2.46
449.606	2.55
449.812	2.51
450.017	2.5
450.223	2.36
450.428	2.37
450.634	2.42
450.84	2.53
451.045	2.49
451.251	2.4
451.456	2.59
451.662	2.63
451.867	2.73
452.073	2.74
452.278	2.86
452.483	2.74
452.689	2.61
452.894	2.4
453.1	2.43
453.305	2.42
453.51	2.44
453.716	2.43
453.921	2.56
454.127	2.51
454.332	2.46
454.537	2.36
454.742	2.38
454.948	2.32
455.153	2.36
455.358	2.43
455.563	2.58
455.769	2.66
455.974	2.67
456.179	2.62
456.384	2.48
456.589	2.46
456.795	2.38
457	2.31
457.205	2.42
457.41	2.5
457.615	2.39
457.82	2.43
458.025	2.55
458.23	2.47
458.435	2.43
458.64	2.38
458.845	2.46
459.05	2.47
459.255	2.49
459.46	2.56
459.665	2.64
459.87	2.67
460.075	2.58
460.28	2.62
460.485	2.68
460.69	2.69
460.895	2.58
461.099	2.64
461.304	2.64
461.509	2.62
461.714	2.57
461.919	2.6
462.123	2.47
462.328	2.53
462.533	2.51
462.738	2.61
462.942	2.58
463.147	2.74
463.352	2.7
463.556	2.77
463.761	2.72
463.966	2.76
464.17	2.7
464.375	2.65
464.58	2.59
464.784	2.59
464.989	2.62
465.193	2.65
465.398	2.68
465.602	2.7
465.807	2.75
466.011	2.76
466.216	2.8
466.42	2.85
466.625	2.92
466.829	2.97
467.034	2.95
467.238	3.01
467.443	3
467.647	2.92
467.851	2.93
468.056	3
468.26	2.99
468.464	3.05
468.669	3.13
468.873	3.22
469.077	3.15
469.282	3.15
469.486	3.15
469.69	3.1
469.894	2.92
470.099	2.98
470.303	3.01
470.507	2.91
470.711	2.89
470.915	2.95
471.119	2.91
471.324	2.86
471.528	2.89
471.732	2.87
471.936	2.92
472.14	2.94
472.344	2.98
472.548	3.11
472.752	3.29
472.956	3.41
473.16	3.4
473.364	3.35
473.568	3.28
473.772	3.25
473.976	3.11
474.18	3.09
474.384	3.15
474.588	3.14
474.792	3.04
474.995	3.17
475.199	3.32
475.403	3.32
475.607	3.34
475.811	3.31
476.015	3.28
476.218	3.27
476.422	3.26
476.626	3.3
476.83	3.43
477.033	3.43
477.237	3.34
477.441	3.41
477.644	3.37
477.848	3.3
478.052	3.23
478.255	3.27
478.459	3.24
478.663	3.34
478.866	3.38
479.07	3.44
479.273	3.55
479.477	3.57
479.681	3.57
479.884	3.56
480.088	3.48
480.291	3.38
480.495	3.38
480.698	3.36
480.901	3.36
481.105	3.45
481.308	3.4
481.512	3.36
481.715	3.42
481.919	3.5
482.122	3.55
482.325	3.62
482.529	3.62
482.732	3.61
482.935	3.54
483.138	3.49
483.342	3.59
483.545	3.64
483.748	3.68
483.952	3.75
484.155	3.85
484.358	3.85
484.561	3.86
484.764	3.77
484.967	3.82
485.171	3.88
485.374	3.83
485.577	3.86
485.78	3.92
485.983	3.91
486.186	3.8
486.389	3.81
486.592	3.83
486.795	3.81
486.998	3.8
487.201	3.81
487.404	3.87
487.607	3.94
487.81	4.02
488.013	4.09
488.216	4.12
488.419	4.12
488.622	4.06
488.825	4.03
489.028	3.94
489.231	3.87
489.433	3.82
489.636	3.77
489.839	3.81
490.042	3.82
490.245	3.91
490.447	3.98
490.65	4.1
490.853	4.09
491.056	4.16
491.258	4.2
491.461	4.24
491.664	4.2
491.866	4.15
492.069	4.2
492.272	4.17
492.474	4.23
492.677	4.25
492.879	4.36
493.082	4.41
493.285	4.53
493.487	4.52
493.69	4.55
493.892	4.51
494.095	4.51
494.297	4.5
494.5	4.56
494.702	4.63
494.905	4.76
495.107	4.82
495.309	4.87
495.512	4.89
495.714	4.95
495.917	4.98
496.119	4.96
496.321	5.02
496.524	5.05
496.726	5.09
496.928	5.1
497.13	5.23
497.333	5.27
497.535	5.35
497.737	5.41
497.939	5.44
498.142	5.43
498.344	5.46
498.546	5.43
498.748	5.41
498.95	5.48
499.152	5.53
499.355	5.58
499.557	5.64
499.759	5.76
499.961	5.74
500.163	5.79
500.365	5.77
500.567	5.85
500.769	5.84
500.971	5.9
501.173	5.86
501.375	5.93
501.577	5.86
501.779	5.85
501.981	5.85
502.183	5.86
502.385	5.79
502.587	5.74
502.788	5.8
502.99	5.86
503.192	5.95
503.394	6.03
503.596	6.12
503.798	6.09
503.999	6.03
504.201	6.04
504.403	6.06
504.605	6.06
504.806	6.01
505.008	6.02
505.21	5.95
505.411	5.92
505.613	5.87
505.815	5.89
506.016	5.91
506.218	5.98
506.42	5.91
506.621	5.95
506.823	6.01
507.024	5.92
507.226	5.89
507.427	5.92
507.629	5.9
507.83	5.88
508.032	5.92
508.233	5.97
508.435	5.95
508.636	5.94
508.838	5.88
509.039	5.84
509.24	5.75
509.442	5.78
509.643	5.73
509.845	5.69
510.046	5.72
510.247	5.73
510.448	5.7
510.65	5.73
510.851	5.78
511.052	5.75
511.254	5.7
511.455	5.74
511.656	5.72
511.857	5.77
512.058	5.74
512.26	5.76
512.461	5.69
512.662	5.73
512.863	5.59
513.064	5.61
513.265	5.58
513.466	5.61
513.667	5.53
513.868	5.57
514.069	5.61
514.27	5.64
514.471	5.59
514.672	5.59
514.873	5.59
515.074	5.55
515.275	5.44
515.476	5.45
515.677	5.48
515.878	5.55
516.079	5.53
516.28	5.6
516.481	5.61
516.682	5.57
516.882	5.46
517.083	5.44
517.284	5.38
517.485	5.33
517.686	5.3
517.886	5.33
518.087	5.35
518.288	5.35
518.488	5.38
518.689	5.4
518.89	5.39
519.091	5.37
519.291	5.37
519.492	5.39
519.692	5.43
519.893	5.49
520.094	5.53
520.294	5.53
520.495	5.47
520.695	5.52
520.896	5.44
521.096	5.38
521.297	5.42
521.497	5.42
521.698	5.32
521.898	5.35
522.099	5.42
522.299	5.41
522.499	5.4
522.7	5.46
522.9	5.41
523.101	5.44
523.301	5.45
523.501	5.46
523.702	5.47
523.902	5.56
524.102	5.57
524.302	5.54
524.503	5.54
524.703	5.51
524.903	5.47
525.103	5.37
525.304	5.4
525.504	5.44
525.704	5.48
525.904	5.45
526.104	5.44
526.304	5.43
526.504	5.43
526.705	5.37
526.905	5.41
527.105	5.43
527.305	5.41
527.505	5.34
527.705	5.37
527.905	5.32
528.105	5.36
528.305	5.36
528.505	5.44
528.705	5.47
528.905	5.47
529.105	5.46
529.304	5.5
529.504	5.53
529.704	5.47
529.904	5.49
530.104	5.47
530.304	5.56
530.503	5.52
530.703	5.5
530.903	5.48
531.103	5.49
531.303	5.42
531.502	5.42
531.702	5.51
531.902	5.54
532.101	5.56
532.301	5.56
532.501	5.54
532.7	5.53
532.9	5.54
533.1	5.55
533.299	5.59
533.499	5.66
533.698	5.65
533.898	5.62
534.097	5.63
534.297	5.66
534.496	5.59
534.696	5.62
534.895	5.75
535.095	5.83
535.294	5.77
535.494	5.77
535.693	5.76
535.892	5.71
536.092	5.63
536.291	5.64
536.491	5.73
536.69	5.76
536.889	5.7
537.088	5.72
537.288	5.75
537.487	5.75
537.686	5.74
537.886	5.83
538.085	5.9
538.284	5.96
538.483	5.96
538.682	5.98
538.882	5.98
539.081	5.94
539.28	5.9
539.479	5.87
539.678	5.83
539.877	5.89
540.076	5.87
540.275	5.93
540.474	5.99
540.673	6.04
540.872	5.98
541.071	6.06
541.27	6.04
541.469	6.06
541.668	6.09
541.867	6.17
542.066	6.18
542.265	6.24
542.464	6.2
542.663	6.19
542.862	6.23
543.06	6.22
543.259	6.23
543.458	6.28
543.657	6.34
543.856	6.37
544.054	6.39
544.253	6.38
544.452	6.39
544.651	6.44
544.849	6.41
545.048	6.45
545.247	6.5
545.445	6.55
545.644	6.56
545.843	6.55
546.041	6.59
546.24	6.61
546.438	6.66
546.637	6.66
546.836	6.75
547.034	6.75
547.233	6.78
547.431	6.77
547.63	6.76
547.828	6.77
548.027	6.82
548.225	6.84
548.423	6.84
548.622	6.9
548.82	6.9
549.019	6.92
549.217	6.95
549.415	7.03
549.614	7.08
549.812	7.06
550.01	7.03
550.209	7.02
550.407	7.07
550.605	7.07
550.803	7.2
551.002	7.31
551.2	7.38
551.398	7.41
551.596	7.52
551.794	7.55
551.993	7.63
552.191	7.71
552.389	7.77
552.587	7.79
552.785	7.83
552.983	7.81
553.181	7.85
553.379	7.84
553.577	7.89
553.775	7.96
553.973	8.01
554.171	8.09
554.369	8.08
554.567	8.11
554.765	8.1
554.963	8.12
555.161	8.1
555.359	8.21
555.557	8.33
555.755	8.41
555.952	8.53
556.15	8.53
556.348	8.57
556.546	8.6
556.744	8.68
556.941	8.69
557.139	8.8
557.337	8.87
557.535	8.9
557.732	8.91
557.93	8.98
558.128	9.09
558.325	9.14
558.523	9.13
558.721	9.23
558.918	9.32
559.116	9.41
559.313	9.41
559.511	9.57
559.708	9.59
559.906	9.61
560.104	9.61
560.301	9.76
560.498	9.78
560.696	9.86
560.893	9.95
561.091	10.02
561.288	10.11
561.486	10.17
561.683	10.22
561.88	10.29
562.078	10.39
562.275	10.41
562.473	10.51
562.67	10.66
562.867	10.72
563.064	10.79
563.262	10.81
563.459	10.85
563.656	10.9
563.853	10.98
564.051	11.11
564.248	11.3
564.445	11.43
564.642	11.46
564.839	11.58
565.036	11.64
565.234	11.71
565.431	11.78
565.628	11.95
565.825	12.07
566.022	12.14
566.219	12.17
566.416	12.32
566.613	12.43
566.81	12.48
567.007	12.56
567.204	12.64
567.401	12.65
567.598	12.63
567.795	12.68
567.991	12.67
568.188	12.79
568.385	12.85
568.582	12.96
568.779	13.02
568.976	13.16
569.172	13.29
569.369	13.41
569.566	13.51
569.763	13.57
569.96	13.59
570.156	13.64
570.353	13.64
570.55	13.69
570.746	13.8
570.943	13.88
571.14	13.89
571.336	14.02
571.533	14.1
571.729	14.13
571.926	14.25
572.123	14.37
572.319	14.48
572.516	14.57
572.712	14.68
572.909	14.71
573.105	14.78
573.302	14.82
573.498	14.88
573.695	14.92
573.891	15.05
574.087	15.14
574.284	15.16
574.48	15.17
574.677	15.29
574.873	15.29
575.069	15.35
575.266	15.42
575.462	15.45
575.658	15.48
575.854	15.55
576.051	15.59
576.247	15.67
576.443	15.71
576.639	15.77
576.835	15.79
577.032	15.74
577.228	15.84
577.424	15.96
577.62	15.9
577.816	15.95
578.012	16.04
578.208	15.95
578.404	16.01
578.6	16.12
578.796	16.18
578.993	16.25
579.189	16.27
579.384	16.2
579.58	16.17
579.776	16.18
579.972	16.18
580.168	16.17
580.364	16.21
580.56	16.27
580.756	16.18
580.952	16.14
581.148	16.18
581.343	16.2
581.539	16.17
581.735	16.3
581.931	16.27
582.127	16.25
582.322	16.17
582.518	16.22
582.714	16.15
582.909	16.21
583.105	16.25
583.301	16.31
583.496	16.31
583.692	16.32
583.888	16.28
584.083	16.36
584.279	16.31
584.474	16.18
584.67	16.22
584.866	16.28
585.061	16.09
585.257	16.17
585.452	16.22
585.648	16.17
585.843	16.13
586.039	16.24
586.234	16.25
586.429	16.23
586.625	16.3
586.82	16.28
587.015	16.27
587.211	16.19
587.406	16.19
587.601	16.09
587.797	16.12
587.992	16.06
588.187	16.09
588.383	16.11
588.578	16.17
588.773	16.24
588.968	16.31
589.163	16.4
589.359	16.3
589.554	16.25
589.749	16.2
589.944	16.29
590.139	16.25
590.334	16.36
590.529	16.38
590.724	16.43
590.919	16.41
591.114	16.34
591.309	16.39
591.504	16.48
591.699	16.46
591.894	16.48
592.089	16.6
592.284	16.58
592.479	16.63
592.674	16.65
592.869	16.68
593.064	16.67
593.259	16.81
593.454	16.87
593.648	16.98
593.843	16.94
594.038	16.99
594.233	16.93
594.428	16.88
594.622	16.87
594.817	16.98
595.012	17.03
595.206	17.09
595.401	17.18
595.596	17.22
595.79	17.3
595.985	17.37
596.18	17.46
596.374	17.58
596.569	17.7
596.763	17.69
596.958	17.76
597.153	17.81
597.347	17.69
597.542	17.75
597.736	17.8
597.931	17.78
598.125	17.79
598.319	17.99
598.514	17.98
598.708	18.06
598.903	18.17
599.097	18.29
599.291	18.28
599.486	18.24
599.68	18.24
599.874	18.31
600.069	18.35
600.263	18.39
600.457	18.58
600.651	18.63
600.846	18.62
601.04	18.61
601.234	18.66
601.428	18.72
601.622	18.78
601.817	18.81
602.011	18.95
602.205	19.07
602.399	19.06
602.593	19.07
602.787	19.11
602.981	19.09
603.175	19.09
603.369	18.99
603.563	18.97
603.757	19.05
603.951	18.96
604.145	18.81
604.339	18.86
604.533	18.79
604.727	18.7
604.921	18.73
605.115	18.81
605.309	18.86
605.502	18.9
605.696	18.8
605.89	18.77
606.084	18.78
606.278	18.72
606.471	18.68
606.665	18.71
606.859	18.59
607.053	18.46
607.246	18.4
607.44	18.32
607.634	18.22
607.827	18.28
608.021	18.22
608.214	18.2
608.408	18.16
608.602	18.15
608.795	18.04
608.989	18.05
609.182	17.88
609.376	17.82
609.569	17.74
609.763	17.71
609.956	17.62
610.15	17.65
610.343	17.66
610.537	17.57
610.73	17.58
610.923	17.56
611.117	17.44
611.31	17.34
611.504	17.32
611.697	17.13
611.89	17.05
612.083	17.09
612.277	17.09
612.47	17.07
612.663	17.06
612.856	16.98
613.05	16.87
613.243	16.8
613.436	16.67
613.629	16.65
613.822	16.51
614.015	16.42
614.209	16.29
614.402	16.28
614.595	16.28
614.788	16.27
614.981	16.16
615.174	16.09
615.367	16.06
615.56	15.94
615.753	15.89
615.946	15.89
616.139	15.88
616.332	15.87
616.525	15.84
616.718	15.79
616.911	15.86
617.103	15.83
617.296	15.74
617.489	15.65
617.682	15.63
617.875	15.53
618.067	15.46
618.26	15.38
618.453	15.38
618.646	15.28
618.838	15.27
619.031	15.4
619.224	15.4
619.417	15.4
619.609	15.48
619.802	15.4
619.994	15.26
620.187	15.27
620.38	15.24
620.572	15.11
620.765	15.19
620.957	15.21
621.15	15.12
621.342	15.04
621.535	15.08
621.727	14.92
621.92	14.81
622.112	14.74
622.305	14.82
622.497	14.77
622.69	14.8
622.882	14.81
623.074	14.95
623.267	14.89
623.459	14.87
623.651	14.86
623.844	14.84
624.036	14.8
624.228	14.7
624.42	14.72
624.613	14.82
624.805	14.77
624.997	14.75
625.189	14.76
625.381	14.73
625.574	14.57
625.766	14.56
625.958	14.54
626.15	14.55
626.342	14.55
626.534	14.64
626.726	14.63
626.918	14.59
627.11	14.52
627.302	14.53
627.494	14.43
627.686	14.36
627.878	14.29
628.07	14.3
628.262	14.25
628.454	14.23
628.646	14.3
628.838	14.34
629.029	14.31
629.221	14.36
629.413	14.32
629.605	14.21
629.797	14.18
629.989	14.2
630.18	14.09
630.372	13.99
630.564	14.02
630.755	14.01
630.947	14.05
631.139	13.93
631.33	13.93
631.522	13.93
631.714	13.93
631.905	13.81
632.097	13.79
632.289	13.82
632.48	13.77
632.672	13.66
632.863	13.64
633.055	13.64
633.246	13.54
633.438	13.4
633.629	13.44
633.821	13.43
634.012	13.46
634.203	13.48
634.395	13.5
634.586	13.45
634.777	13.34
634.969	13.32
635.16	13.36
635.351	13.39
635.543	13.4
635.734	13.46
635.925	13.52
636.117	13.5
636.308	13.48
636.499	13.46
636.69	13.33
636.881	13.24
637.073	13.25
637.264	13.24
637.455	13.25
637.646	13.37
637.837	13.38
638.028	13.36
638.219	13.4
638.41	13.36
638.601	13.32
638.792	13.32
638.983	13.23
639.174	13.17
639.365	13.18
639.556	13.21
639.747	13.13
639.938	13.2
640.129	13.22
640.32	13.18
640.511	13.2
640.701	13.33
640.892	13.33
641.083	13.32
641.274	13.33
641.465	13.23
641.655	13.17
641.846	13.08
642.037	13.07
642.228	13.05
642.418	13.11
642.609	13.14
642.8	13.19
642.99	13.11
643.181	13.03
643.372	12.99
643.562	12.94
643.753	12.85
643.943	12.9
644.134	12.88
644.324	12.84
644.515	12.79
644.705	12.84
644.896	12.81
645.086	12.79
645.277	12.68
645.467	12.68
645.658	12.68
645.848	12.6
646.038	12.58
646.229	12.66
646.419	12.64
646.61	12.53
646.8	12.55
646.99	12.61
647.18	12.58
647.371	12.52
647.561	12.48
647.751	12.47
647.941	12.36
648.132	12.33
648.322	12.37
648.512	12.42
648.702	12.44
648.892	12.43
649.082	12.37
649.272	12.23
649.462	12.14
649.653	12
649.843	12.03
650.033	12.04
650.223	12.11
650.413	12.06
650.603	12.13
650.793	12.13
650.983	12.07
651.172	11.97
651.362	11.96
651.552	11.88
651.742	11.75
651.932	11.74
652.122	11.75
652.312	11.76
652.502	11.68
652.691	11.65
652.881	11.49
653.071	11.42
653.261	11.31
653.45	11.21
653.64	11.23
653.83	11.2
654.019	11.16
654.209	11.1
654.399	11.07
654.588	10.94
654.778	10.87
654.968	10.71
655.157	10.68
655.347	10.56
655.536	10.49
655.726	10.46
655.915	10.37
656.105	10.2
656.294	10.09
656.484	9.92
656.673	9.75
656.863	9.73
657.052	9.65
657.241	9.52
657.431	9.31
657.62	9.22
657.809	8.93
657.999	8.79
658.188	8.68
658.377	8.65
658.567	8.48
658.756	8.42
658.945	8.27
659.134	8.11
659.324	8
659.513	7.89
659.702	7.81
659.891	7.68
660.08	7.62
660.269	7.6
660.458	7.42
660.648	7.27
660.837	7.24
661.026	7.18
661.215	6.95
661.404	6.92
661.593	6.81
661.782	6.57
661.971	6.55
662.16	6.43
662.349	6.39
662.538	6.3
662.726	6.31
662.915	6.07
663.104	6.09
663.293	5.99
663.482	6.05
663.671	5.91
663.86	5.84
664.048	5.7
664.237	5.66
664.426	5.43
664.615	5.45
664.803	5.38
664.992	5.33
665.181	5.26
665.369	5.22
665.558	5.06
665.747	5.04
665.935	5.13
666.124	5.16
666.312	5.15
666.501	5.12
666.69	5
666.878	4.87
667.067	4.73
667.255	4.84
667.444	4.97
667.632	5.1
667.82	5.05
668.009	5
668.197	4.83
668.386	4.71
668.574	4.68
668.762	4.7
668.951	4.65
669.139	4.6
669.327	4.43
669.516	4.43
669.704	4.33
669.892	4.51
670.08	4.6
670.269	4.64
670.457	4.54
670.645	4.48
670.833	4.45
671.021	4.39
671.21	4.54
671.398	4.74
671.586	4.71
671.774	4.67
671.962	4.72
672.15	4.71
672.338	4.49
672.526	4.63
672.714	4.55
672.902	4.52
673.09	4.59
673.278	4.85
673.466	4.92
673.654	5.03
673.842	5.04
674.03	4.99
674.218	4.82
674.405	4.8
674.593	4.74
674.781	4.77
674.969	4.76
675.157	4.89
675.344	5
675.532	5.1
675.72	5.17
675.908	5.22
676.095	5.17
676.283	5.12
676.471	5.2
676.658	5.24
676.846	5.38
677.033	5.53
677.221	5.63
677.409	5.56
677.596	5.52
677.784	5.44
677.971	5.48
678.159	5.42
678.346	5.48
678.534	5.64
678.721	5.71
678.909	5.65
679.096	5.74
679.283	5.9
679.471	6
679.658	6.13
679.846	6.28
680.033	6.45
680.22	6.44
680.408	6.34
680.595	6.39
680.782	6.26
680.969	6.29
681.157	6.37
681.344	6.52
681.531	6.54
681.718	6.75
681.905	6.81
682.093	7.02
682.28	7.21
682.467	7.44
682.654	7.54
682.841	7.66
683.028	7.77
683.215	7.76
683.402	7.77
683.589	7.95
683.776	8.16
683.963	8.1
684.15	8.25
684.337	8.49
684.524	8.68
684.711	8.9
684.898	9.07
685.085	9.32
685.271	9.51
685.458	9.58
685.645	9.6
685.832	9.81
686.019	10.05
686.205	10.12
686.392	10.38
686.579	10.65
686.766	11.02
686.952	11.35
687.139	11.78
687.326	12
687.512	12.34
687.699	12.7
687.886	12.89
688.072	13.11
688.259	13.58
688.445	13.87
688.632	14.08
688.818	14.61
689.005	14.95
689.191	15.3
689.378	15.8
689.564	16.3
689.751	16.72
689.937	17.09
690.124	17.53
690.31	17.91
690.496	18.35
690.683	18.73
690.869	19.42
691.055	19.96
691.242	20.62
691.428	21.19
691.614	21.73
691.8	22.36
691.987	22.92
692.173	23.44
692.359	24.07
692.545	24.74
692.731	25.13
692.918	25.73
693.104	26.28
693.29	26.83
693.476	27.41
693.662	28.15
693.848	28.73
694.034	29.38
694.22	29.97
694.406	30.53
694.592	31.25
694.778	31.93
694.964	32.63
695.15	33.44
695.336	34.09
695.522	34.9
695.708	35.45
695.894	36.08
696.08	36.57
696.265	37.16
696.451	37.66
696.637	38.26
696.823	38.96
697.009	39.62
697.194	40.44
697.38	40.8
697.566	41.46
697.751	42.05
697.937	42.92
698.123	43.39
698.308	43.95
698.494	44.57
698.68	45.08
698.865	45.51
699.051	46.09
699.236	46.77
699.422	47.27
699.607	47.79
699.793	48.18
699.978	48.67
700.164	49.21
700.349	49.91
700.535	50.24
700.72	50.85
700.906	51.47
701.091	51.78
701.276	52.06
701.462	53.06
701.647	53.77
701.832	54.14
702.018	55.05
702.203	55.69
702.388	55.7
702.573	56.02
702.759	56.74
702.944	56.87
703.129	57.14
703.314	57.59
703.499	57.75
703.684	57.92
703.87	58.74
704.055	59.2
704.24	59.76
704.425	60.43
704.61	60.85
704.795	61.09
704.98	61.33
705.165	61.44
705.35	61.82
705.535	62.17
705.72	62.17
705.905	62.57
706.09	63.11
706.275	63.28
706.459	63.34
706.644	63.52
706.829	64.1
707.014	64.46
707.199	64.91
707.384	65.42
707.568	65.9
707.753	66.09
707.938	65.9
708.123	65.79
708.307	65.85
708.492	66.29
708.677	66.48
708.861	66.8
709.046	67.05
709.231	67.58
709.415	67.72
709.6	67.75
709.784	68.07
709.969	68.27
710.153	68.17
710.338	68.27
710.522	68.49
710.707	68.85
710.891	68.68
711.076	68.79
711.26	68.73
711.445	68.94
711.629	69.12
711.813	69.67
711.998	70.04
712.182	70.11
712.366	70.52
712.551	70.99
712.735	71.32
712.919	71.23
713.103	71.53
713.288	71.06
713.472	70.74
713.656	70.93
713.84	71.26
714.024	71.77
714.208	71.88
714.393	72.17
714.577	72.23
714.761	72.6
714.945	72.67
715.129	73.07
715.313	73.24
715.497	73.58
715.681	73.93
715.865	73.59
716.049	73.5
716.233	73
716.417	72.88
716.601	72.38
716.785	72.74
716.968	73.18
717.152	73.51
717.336	73.47
717.52	73.65
717.704	73.4
717.888	73.77
718.071	74.25
718.255	74.24
718.439	73.85
718.622	74.39
718.806	74.27
718.99	73.69
719.174	73.98
719.357	74.67
719.541	74.82
719.724	74.85
719.908	75.71
720.092	76.15
720.275	76.26
720.459	75.42
720.642	75.14
720.826	74.72
721.009	74.07
721.193	73.71
721.376	74.79
721.559	75.26
721.743	75.57
721.926	76.38
722.11	76.43
722.293	75.45
722.476	75.39
722.66	75.76
722.843	75.51
723.026	75.41
723.21	76.46
723.393	76.8
723.576	76.22
723.759	75.83
723.942	76.17
724.126	75.97
724.309	75.76
724.492	76.24
724.675	76.31
724.858	76.75
725.041	76.85
725.224	77.39
725.407	77.82
725.59	78.74
725.774	78.97
725.957	78.89
726.14	78.36
726.322	77.77
726.505	77.17
726.688	77.18
726.871	77.19
727.054	76.98
727.237	77.31
727.42	78.03
727.603	77.76
727.786	78.44
727.968	78.89
728.151	78.92
728.334	78.1
728.517	78.45
728.699	78.03
728.882	77.83
729.065	78.23
729.248	79.24
729.43	79.29
729.613	80.34
729.796	81.35
729.978	80.81
730.161	79.99
730.343	80.15
730.526	80.25
730.708	79.81
730.891	80.59
731.073	80.63
731.256	80.43
731.438	80.62
731.621	81.65
731.803	81.54
731.986	81.83
732.168	81.8
732.35	81.42
732.533	81.15
732.715	81.27
732.898	82.1
733.08	82.49
733.262	82.19
733.444	81.52
733.627	81.54
733.809	81.31
733.991	81.28
734.173	81.31
734.355	81.1
734.538	81.4
734.72	81
734.902	82.05
735.084	82.78
735.266	82.79
735.448	82.97
735.63	83.87
735.812	83.26
735.994	83.7
736.176	84.7
736.358	84.45
736.54	84.29
736.722	83.49
736.904	82.57
737.086	82.64
737.268	82.99
737.45	82.77
737.632	83.01
737.814	82.87
737.995	82.92
738.177	82.44
738.359	82.54
738.541	83.23
738.723	83.36
738.904	83.97
739.086	84.72
739.268	84.01
739.449	84.28
739.631	83.96
739.813	83.42
739.994	82.53
740.176	84.33
740.358	84.21
740.539	85.06
740.721	84.99
740.902	86.62
741.084	85.58
741.265	85.09
741.447	85.47
741.628	85.55
741.81	83.79
741.991	84.58
742.172	85.56
742.354	84.83
742.535	84.72
742.717	85.33
742.898	85.29
743.079	85.76
743.261	86.69
743.442	86.48
743.623	87.28
743.804	87.62
743.986	87.06
744.167	85.53
744.348	84.71
744.529	84.23
744.71	82.65
744.891	81.91
745.073	81.89
745.254	83.14
745.435	83.18
745.616	83.35
745.797	84.23
745.978	84.27
746.159	83.69
746.34	83.12
746.521	85.17
746.702	83.6
746.883	83.71
747.064	84.35
747.245	84.6
747.426	84.26
747.606	84.98
747.787	85.49
747.968	84.72
748.149	85.38
748.33	84.76
748.51	84.72
748.691	84.39
748.872	84.75
749.053	83.97
749.233	83.17
749.414	82.77
749.595	82.02
749.775	81.54
749.956	81.88
750.137	81.69
750.317	82.19
750.498	83.58
750.678	84.51
750.859	84.4
751.04	84.24
751.22	83.64
751.4	83.21
751.581	82.35
751.761	82.41
751.942	83.26
752.122	84.11
752.303	84.4
752.483	84.66
752.663	84.94
752.844	83.9
753.024	84.87
753.204	85.67
753.385	84.59
753.565	84.28
753.745	85.34
753.925	84.51
754.106	83.06
754.286	84.94
754.466	84.59
754.646	84.6
754.826	83.84
755.006	83.3
755.187	82.9
755.367	84.07
755.547	83.58
755.727	83.66
755.907	83.95
756.087	84.72
756.267	82.88
756.447	83.03
756.627	82.01
756.807	82.29
756.987	81.26
757.167	81.37
757.346	81.39
757.526	81.59
757.706	82.17
757.886	83.6
758.066	84.03
758.246	85.55
758.425	86.39
758.605	85.47
758.785	83.74
758.965	84.34
759.144	81.48
759.324	81.86
759.504	83.08
759.683	83.72
759.863	82.62
760.043	82.89
760.222	83.29
760.402	81.85
760.581	81.14
760.761	82.63
760.94	81.38
761.12	81.56
761.299	82.24
761.479	82.52
761.658	80.47
761.838	83.2
762.017	82.81
762.197	81.87
762.376	80.86
762.555	82.63
762.735	83.21
762.914	82.14
763.093	82.22
763.273	81.73
763.452	81.06
763.631	79.73
763.81	80.3
763.99	80.55
764.169	82.43
764.348	80.97
764.527	79.84
764.706	79.58
764.885	80.59
765.064	78.95
765.243	80.26
765.423	82.27
765.602	82.39
765.781	80.59
765.96	80.35
766.139	79.66
766.318	78.61
766.497	77.64
766.676	78.58
766.854	79.88
767.033	80.37
767.212	79
767.391	79.75
767.57	81.33
767.749	80.19
767.928	79.92
768.106	80.43
768.285	80.18
768.464	78.27
768.643	77.93
768.821	77.54
769	78.58
769.179	78.2
769.357	77.14
769.536	78
769.715	78.35
769.893	78.48
770.072	78.26
770.25	80.56
770.429	80.84
770.607	80.56
770.786	81.13
770.964	81
771.143	78.28
771.321	79.87
771.5	80.11
771.678	76.47
771.857	75.86
772.035	77.84
772.213	75.76
772.392	74.29
772.57	77.75
772.748	78.88
772.927	78.22
773.105	78.91
773.283	81.11
773.461	78.85
773.64	79.07
773.818	80.07
773.996	80.91
774.174	79.83
774.352	80.02
774.531	77.29
774.709	77.25
774.887	74.76
775.065	73.86
775.243	74.6
775.421	76.62
775.599	78.76
775.777	78.7
775.955	77.88
776.133	77.47
776.311	78.2
776.489	74.95
776.667	75.97
776.844	77.84
777.022	75.6
777.2	75.9
777.378	75.65
777.556	76.57
777.734	77.77
777.911	82.08
778.089	79.72
778.267	80.8
778.445	78.67
778.622	79.12
778.8	79.25
778.978	80.15
779.155	79.5
779.333	80.32
779.511	77.71
779.688	76.44
779.866	74.75
780.043	72.42
780.221	71.73
780.398	70.92
780.576	72.31
780.753	76.72
780.931	76.17
781.108	77.28
781.286	78.5
781.463	73.8
781.64	68.73
781.818	73.27
781.995	72.17
782.172	73.67
782.35	76.43
782.527	82.75
782.704	78.19
782.882	78.91
783.059	78.11
783.236	77.88
783.413	73.94
783.59	75.51
783.768	73.63
783.945	74.93
784.122	74.6
784.299	73.73
784.476	73.43
784.653	75.17
784.83	72.74
785.007	72.52
785.184	73.8
785.361	73.42
785.538	76.25
785.715	77.69
785.892	78.08
786.069	78.95
786.246	79.58
786.423	77.65
786.6	74.58
786.776	75.05
786.953	72.77
787.13	73.47
787.307	70.77
787.484	70.85
787.66	67.97
787.837	68.92
788.014	65.73
788.191	65.44
788.367	64.43
788.544	70.06
788.721	68.96
788.897	73.04
789.074	74.84
789.25	75.94
789.427	76.25
789.603	73.92
789.78	73.65
789.956	73.17
790.133	73.63
790.309	68.84
790.486	72.72
790.662	69.48
790.839	69.31
791.015	69.77
791.192	67.52
791.368	66.53
791.544	67.54
791.721	69.53
791.897	68.88
792.073	71.76
792.249	67.9
792.426	71.24
792.602	70.85
792.778	70.6
792.954	69.53
793.13	69.88
793.307	63.09
793.483	58.36
793.659	60.13
793.835	61.63
794.011	63.37
794.187	65.52
794.363	65.11
794.539	64.39
794.715	60.92
794.891	60.56
795.067	61
795.243	67.5
795.419	65.2
795.595	66.84
795.771	65.04
795.947	63.33
796.122	60.47
796.298	60.79
796.474	60.99
796.65	62.16
796.826	68.11
797.001	62.46
797.177	61.8
797.353	64.98
797.529	65.07
797.704	62.47
797.88	68.45
798.056	67.34
798.231	64.42
798.407	69.51
798.582	70.58
798.758	70.51
798.934	73.31
799.109	72.17
799.285	69.82
799.46	68.4
799.636	63.96
799.811	66.48
799.986	67.81
800.162	70.39
800.337	69.44
800.513	67.24
800.688	64.86
800.863	71.81
801.039	64.98
801.214	66.48
801.389	73.87
801.565	71.5
801.74	62.84
801.915	69.15
802.09	64.2
802.265	65.7
802.441	64.11
802.616	65.45
802.791	64.06
802.966	68.85
803.141	63.46
803.316	65.94
803.491	70.1
803.666	68.63
803.841	67.66
804.016	68.19
804.191	65.58
804.366	60.02
804.541	59.73
804.716	56.77
804.891	58.65
805.066	61.7
805.241	60.29
805.416	64.25
805.591	64.31
805.765	70.43
805.94	70.92
806.115	67.35
806.29	57.16
806.464	61.2
806.639	53.71
806.814	51.5
806.989	51.1
807.163	58.62
807.338	53.18
807.512	44.29
807.687	37.18
807.862	51.21
808.036	48.23
808.211	53.84
808.385	60.59
808.56	68.63
808.734	59
808.909	61.06
809.083	54.29
809.258	55.75
809.432	53.53
809.606	53.52
809.781	62.16
809.955	60.59
810.13	64.15
810.304	65.17
810.478	63.89
810.652	63.92
810.827	66.29
811.001	68.32
811.175	70.41
811.349	69.42
811.524	59.41
811.698	51.69
811.872	41.13
812.046	46.27
812.22	44.84
812.394	42.01
812.568	50.4
812.742	63.01
812.916	56.66
813.09	54.7
813.264	60.9
813.438	61.99
813.612	54.08
813.786	52.2
813.96	55.22
814.134	50.54
814.308	53.41
814.482	58.49
814.656	48.95
814.83	57.56
815.003	59.89
815.177	55.09
815.351	49.99
815.525	51.53
815.698	43.3
815.872	39.79
816.046	27.46
816.219	30.07
816.393	36.85
816.567	37.5
816.74	45.67
816.914	54.56
817.088	55.98
817.261	57.01
817.435	56.92
817.608	51.95
817.782	52.32
817.955	46.77
818.129	41.97
818.302	45.08
818.475	47.44
818.649	41.86
818.822	38.6
818.996	45.9
819.169	46.02
819.342	33.97
819.516	44.6
819.689	48.67
819.862	42.28
820.035	34.95
820.209	38.06
820.382	36.06
820.555	39.6
820.728	31.12
820.901	30.31
821.075	35.12
821.248	30.37
821.421	22.47
821.594	26.84
821.767	43.6
821.94	49.87
822.113	37.84
822.286	36
822.459	48.2
822.632	38.46
822.805	23.49
822.978	26.7
823.151	35.1
823.324	21.26
823.496	11.98
823.669	17.75
823.842	28.07
824.015	19.37
824.188	8.71
824.361	25.88
824.533	19.65
824.706	15.48
824.879	16.64
825.051	34.5
825.224	29.05
825.397	29.45
825.569	38.11
825.742	47.02
825.915	50.78
826.087	59.45
826.26	52.7
826.432	48.35
826.605	50.27
826.777	47.04
826.95	42.84
827.122	35.05
827.295	41.62
827.467	24.87
827.64	5.05
827.812	-3.03
827.984	4.54
828.157	-2.97
828.329	-1.4
828.501	-8.54
828.674	16.87
828.846	6.28
829.018	19.84
829.19	7.2
829.363	29.36
829.535	25.35
829.707	40.17
829.879	31.68
830.051	32.16
830.223	32.58
830.395	18.21
830.568	3.36
830.74	-9.98
830.912	13.92
831.084	3.09
831.256	8.77
831.428	11.75
831.6	14.61
831.772	-2.72
831.943	2.04
832.115	13.34
832.287	25.06
832.459	34.72
832.631	43.61
832.803	48.8
832.975	52.23
833.146	46.06
833.318	41.77
833.49	47.54
833.662	18.99
833.833	24.37
834.005	34.33
834.177	45.74
834.348	61.72
834.52	80.29
834.692	71.81
834.863	50.48
835.035	2.91
835.206	-72.94
835.378	-43.03
835.549	-40.33
835.721	-21.74
835.892	-5.58
836.064	10.55
836.235	25.08
836.407	36.11
836.578	10.78
836.749	18.63
836.921	-2.02
837.092	-51.4
837.264	-48.19
837.435	-42.39
837.606	-9.21
837.777	21.05
837.949	20.02
838.12	21.72
838.291	31.57
838.462	20.78
838.633	-7.95
838.805	15.48
838.976	34.15
839.147	-6.21
839.318	-9.65
839.489	-32.14
839.66	-40.52
839.831	-19.61
840.002	10.72
840.173	6.24
840.344	47.58
840.515	45.1
840.686	-3.58
840.857	-14.91
841.028	-17.94
841.199	-31.82
841.369	-26.15
841.54	-29.76
841.711	-7.69
841.882	8.8
842.053	17.95
842.223	0.77
842.394	19.94
842.565	18.06
842.736	14.65
842.906	28.76
843.077	43.97
843.248	77.94
843.418	73.19
843.589	70.41
843.759	111.27
843.93	65.69
844.101	17.96
844.271	36.61
844.442	33.79
844.612	29.73
844.783	18.69
844.953	-16.27
845.123	-65.37
845.294	-105.16
845.464	-341.87
845.635	-203.03
845.805	-102.12
845.975	-32.28
846.146	-28.1
846.316	-14.81
846.486	6.27
846.656	25.42
846.827	20.16
846.997	30.3
847.167	29.51
847.337	9.38
847.507	-27.04
847.677	-16.66
847.848	18.92
848.018	17.51
848.188	22.19
848.358	13.73
848.528	-3.91
848.698	-40.12
848.868	-89.69
849.038	-145.43
849.208	-63.66
849.378	-34.56
849.548	-25.48
849.718	-13.7
849.887	7.02
850.057	5.06
850.227	-20.16
850.397	-23.12
850.567	-66.45
850.737	-274.89
850.906	-865.31
851.076	-587.7
851.246	-315.31
851.415	-27.16
851.585	-24.14
851.755	-35.06
851.924	-8.22
852.094	-40.04
852.264	-127.27
852.433	-951.2
852.603	-175.8
852.772	-158.45
852.942	-42.29
853.111	-37.17
853.281	28.19
853.45	60.53
853.62	32.96
853.789	6.26
853.959	14.46
854.128	16.73
854.297	-63.45
854.467	-89.9
854.636	-96.74
854.805	-41.77
854.975	-96.07
855.144	-118.97
855.313	-131.64
855.482	-235.95
855.652	-59.95
855.821	-30.31
855.99	16.1
856.159	24.66
856.328	28.9
856.497	8.12
856.667	13.83
856.836	3.47
857.005	-11.24
857.174	-51.52
857.343	-58.31
857.512	-3.47
857.681	-25.15
857.85	-71.42
858.019	-12.17
858.188	-9.03
858.356	-50.87
858.525	-79.51
858.694	-44.12
858.863	-121.97
859.032	-85.51
859.201	-67.65
859.369	-25.83
859.538	-58.56
859.707	-43.73
859.876	-48.3
860.044	-88.36
860.213	15.92
860.382	14.1
860.55	28.67
860.719	51.01
860.888	60.61
861.056	22.58
861.225	28.12
861.393	49.97
861.562	56.58
861.73	27.69
861.899	-45.16
862.067	-1156.03
862.236	-63.09
862.404	-221.97
862.572	-140.25
862.741	-18.64
862.909	-11.75
863.078	-69.22
863.246	-12.91
863.414	-13.87
863.582	-45.02
863.751	-66.51
863.919	-55.27
864.087	-66.52
864.255	-52.72
864.424	-245.92
864.592	-29.84
864.76	-76.47
864.928	-37.8
865.096	-144.03
865.264	-107.35
865.432	-1109.66
865.6	-26.63
865.768	-75.68
865.936	-39.75
866.104	-18.54
866.272	-78.52
866.44	-298.52
866.608	563.72
866.776	332.49
866.944	3465.7
867.112	-599.68
867.28	-231
867.448	-131.43
867.615	-37.28
867.783	-15.04
867.951	-18.82
868.119	11.3
868.286	24.23
868.454	-111.2
868.622	-77.15
868.789	-78.67
868.957	-1451.79
869.125	-653.29
869.292	17.14
869.46	-58.83
869.627	30.89
869.795	-5.61
869.963	-2.7
870.13	0.83
870.298	13.48
870.465	-53.5
870.632	-57.33
870.8	-48.64
870.967	-59.23
871.135	-106.34
871.302	-42.21
871.469	-59.57
871.637	-93.68
871.804	-57.83
871.971	-59.73
872.139	-421.05
872.306	-22.08
872.473	-8.54
872.64	-123.28
872.807	-10.47
872.975	46.3
873.142	-125.18
873.309	1652.03
873.476	-20.57
873.643	22.08
873.81	24.36
873.977	53.7
874.144	53.32
874.311	5.12
874.478	-42.58
874.645	-75.13
874.812	-77.23
874.979	-47.37
875.146	-52.94
875.313	-66.52
875.48	2.34
875.647	-8.36
875.813	-30.17
875.98	-17.62
876.147	-42.17
876.314	-117.03
876.481	842.36
876.647	-1323.88
876.814	523.45
876.981	-213.17
877.147	-106.24
877.314	-32.98
877.481	18.35
877.647	-11.88
877.814	-24.43
877.98	-23.03
878.147	11.84
878.314	23.56
878.48	30.56
878.647	26.26
878.813	40.69
878.979	52.76
879.146	45.33
879.312	22.76
879.479	15.57
879.645	-79.63
879.811	-249.61
879.978	-759.73
880.144	-124.51
880.31	-65.41
880.477	-194
880.643	-247.98
880.809	-91.81
880.975	-82.67
881.142	-651.14
881.308	-25.05
881.474	-8.59
881.64	-24.9
881.806	-40.89
881.972	-0.71
882.138	4.27
882.304	50.36
882.47	-94.5
882.636	-505.94
882.802	-144.03
882.968	-71.62
883.134	-43.91
883.3	-9.35
883.466	28.17
883.632	53.35
883.798	53
883.964	47.57
884.129	74.25
884.295	85.51
884.461	11.01
884.627	-15.91
884.793	-37.11
884.958	-46.43
885.124	-145.83
885.29	-208.86
885.455	-465.66
885.621	-145.62
885.787	-214.2
885.952	-85.79
886.118	-87.88
886.283	-71.61
886.449	-178.35
886.614	-168.62
886.78	-388.56
886.945	1646.31
887.111	-601.3
887.276	-493.89
887.442	-1043.86
887.607	-462.38
887.773	-303.58
887.938	-308.42
888.103	-336.92
888.269	-204.89
888.434	-325.54
888.599	-121.39
888.764	-60.21
888.93	-28.29
889.095	-31.08
889.26	-70.93
889.425	-41.85
889.59	-5.89
889.756	-19.69
889.921	-17.85
890.086	10.08
890.251	-12.09
890.416	-134.38
890.581	-1421.37
890.746	233.3
890.911	341.56
891.076	114.9
891.241	-254.66
891.406	98.1
891.571	69.14
891.736	-2.41
891.901	-256.86
892.065	305.77
892.23	187.5
892.395	234.69
892.56	347.47
892.725	-568.95
892.889	-1783.54
893.054	-181.47
893.219	-62.94
893.384	-9.67
893.548	-14.43
893.713	-14.66
893.878	5.96
