Data from Ofra_2a_PS_1GT42_Reflection_2.txt Node
Date: Tue Jul 20 09:35:09 EDT 2021
User: Adam
Spectrometer: FLMT01687
Trigger mode: 0
Integration Time (sec): 9.450000E-1
Scans to average: 3
Electric dark correction enabled: true
Nonlinearity correction enabled: false
Boxcar width: 3
XAxis mode: Wavelengths
Number of Pixels in Spectrum: 3648
>>>>>Begin Spectral Data<<<<<
179.494	719.53
179.716	496.13
179.937	589.01
180.158	1768.75
180.38	-632.56
180.601	-71.75
180.823	52.33
181.044	84.46
181.265	0.96
181.486	50.23
181.708	-1152.17
181.929	-39.53
182.15	-2.27
182.372	141.16
182.593	163.7
182.814	126.95
183.035	93.8
183.257	61.44
183.478	30.73
183.699	42.53
183.92	50.12
184.141	46.82
184.363	41.67
184.584	31.27
184.805	40.73
185.026	28.03
185.247	-2.82
185.468	-16.14
185.689	13.74
185.91	6.81
186.132	18.54
186.353	-16.51
186.574	-0.99
186.795	-0.4
187.016	19.69
187.237	4.44
187.458	-2.49
187.679	-15.6
187.9	20.36
188.121	11.1
188.342	22.92
188.563	13.47
188.784	5.55
189.005	16.2
189.226	14.76
189.447	-3.33
189.667	-4.83
189.888	-6.99
190.109	-9.14
190.33	-12.74
190.551	-15.33
190.772	-18.53
190.993	6.58
191.214	12.09
191.434	3.38
191.655	8.35
191.876	13.18
192.097	20.57
192.318	30.81
192.538	28.13
192.759	21.89
192.98	11.52
193.201	20.07
193.421	25.68
193.642	13.98
193.863	2.69
194.083	-14.39
194.304	4.76
194.525	38.82
194.745	13.3
194.966	19.16
195.187	32.01
195.407	25.63
195.628	34.81
195.848	26.11
196.069	17
196.29	16.69
196.51	-0.76
196.731	0.23
196.951	-3.33
197.172	-13.55
197.392	9.34
197.613	9.22
197.833	23.23
198.054	16.44
198.274	-9.27
198.495	-3.83
198.715	-18.34
198.936	-21.94
199.156	-6.68
199.377	-20.74
199.597	-8.68
199.817	20.84
200.038	20.78
200.258	21.07
200.479	18.84
200.699	5.26
200.919	0.64
201.14	13.88
201.36	4.78
201.58	4.93
201.801	12.81
202.021	6.85
202.241	16.6
202.461	26.19
202.682	39.13
202.902	42.74
203.122	36.14
203.342	51.04
203.563	54.52
203.783	54.42
204.003	49.01
204.223	39.82
204.443	36.4
204.663	45.27
204.884	30.86
205.104	30.07
205.324	35.59
205.544	34.29
205.764	17.63
205.984	23.39
206.204	14.42
206.424	27.8
206.644	16.83
206.864	1.59
207.084	20.62
207.304	12.3
207.525	10.66
207.745	11.8
207.964	3.8
208.184	15.75
208.404	19.02
208.624	-9.18
208.844	-13.29
209.064	-14.34
209.284	-17.72
209.504	-32.75
209.724	-54.03
209.944	-39.72
210.164	-20.84
210.384	-11.84
210.604	-29.09
210.823	-9.01
211.043	-9.95
211.263	5.33
211.483	1.08
211.703	5.56
211.922	13.72
212.142	17.86
212.362	11.23
212.582	16.09
212.801	10.09
213.021	9.98
213.241	3.54
213.461	-1.87
213.68	3.55
213.9	14.14
214.12	13.12
214.339	19.11
214.559	7.02
214.779	6.56
214.998	14.27
215.218	7.31
215.438	11
215.657	13.09
215.877	8.84
216.096	22.37
216.316	14.33
216.535	0.67
216.755	-16.05
216.974	-23.93
217.194	-14.48
217.413	8.3
217.633	9.32
217.852	15.73
218.072	11.3
218.291	47.2
218.511	47.43
218.73	38.96
218.95	36.82
219.169	33.44
219.389	34.4
219.608	56.56
219.827	44.42
220.047	39.85
220.266	25.65
220.485	15.04
220.705	9.81
220.924	11.26
221.143	7.21
221.363	5.85
221.582	13.56
221.801	35.52
222.021	35.45
222.24	46.5
222.459	38.2
222.678	33.93
222.897	31.05
223.117	31.07
223.336	16.41
223.555	5.3
223.774	9.82
223.993	11.89
224.213	3.97
224.432	-0.16
224.651	-19.37
224.87	-12.26
225.089	4.07
225.308	-1.1
225.527	-0.15
225.746	5.16
225.965	5.45
226.184	15.58
226.404	-2.15
226.623	2.44
226.842	0.08
227.061	9.97
227.28	35.3
227.499	37.68
227.718	26.99
227.936	25.8
228.155	24.51
228.374	21.2
228.593	13.83
228.812	-0.97
229.031	-6.13
229.25	10.53
229.469	15.68
229.688	6.54
229.907	5.91
230.125	9.45
230.344	15.59
230.563	18.89
230.782	9.64
231.001	11.04
231.22	9.79
231.438	22.42
231.657	35.55
231.876	32.12
232.095	29.67
232.313	33.58
232.532	32.14
232.751	44.67
232.969	51.66
233.188	46.14
233.407	50.46
233.625	38.51
233.844	30.79
234.063	29.3
234.281	18.75
234.5	9.73
234.719	1.58
234.937	0.74
235.156	1.2
235.374	0.26
235.593	0.17
235.811	-11.13
236.03	-19.77
236.249	5.52
236.467	-1.38
236.686	23.96
236.904	23.53
237.123	31.28
237.341	42.05
237.559	48.23
237.778	40.16
237.996	46.27
238.215	30.9
238.433	40.7
238.652	39.77
238.87	36.81
239.088	20.3
239.307	15.58
239.525	8.14
239.743	2.69
239.962	-8.29
240.18	-19.6
240.398	-17.78
240.617	4.76
240.835	12.31
241.053	28.12
241.271	41.62
241.49	31.14
241.708	29.96
241.926	22.74
242.144	18.67
242.363	-1.23
242.581	-8.65
242.799	-17.87
243.017	-2.23
243.235	-1.82
243.453	4.99
243.672	1.99
243.89	17.54
244.108	20.77
244.326	11.38
244.544	14.09
244.762	16.93
244.98	12.99
245.198	6.8
245.416	9.82
245.634	6.54
245.852	13.8
246.07	8.46
246.288	7.02
246.506	11.06
246.724	25.86
246.942	29.28
247.16	23.14
247.378	16.07
247.596	19.43
247.814	13.37
248.032	14.16
248.25	3.88
248.468	2.96
248.685	7.81
248.903	11.68
249.121	14.58
249.339	16.27
249.557	24.69
249.775	13.84
249.992	13.21
250.21	5.1
250.428	7.15
250.646	12.46
250.863	14.79
251.081	3
251.299	27.27
251.517	26.84
251.734	37.87
251.952	40.9
252.17	16.7
252.387	25.51
252.605	28.78
252.823	4.95
253.04	1.1
253.258	2.23
253.475	6.98
253.693	31.17
253.911	28.68
254.128	21.18
254.346	24.58
254.563	23.62
254.781	23.02
254.998	18.23
255.216	10.2
255.433	8.46
255.651	15.01
255.868	17.37
256.086	13.98
256.303	11.2
256.521	-0.35
256.738	-3.32
256.956	-2.59
257.173	1.4
257.39	11.07
257.608	17.26
257.825	23.16
258.043	34.56
258.26	36.13
258.477	36.3
258.695	38.66
258.912	38.79
259.129	28.21
259.346	26.5
259.564	20.97
259.781	32.47
259.998	29.35
260.216	28.73
260.433	25.02
260.65	36.19
260.867	25.05
261.084	28.82
261.302	15.51
261.519	14.06
261.736	13.64
261.953	15.02
262.17	12.01
262.387	18.23
262.604	5.77
262.822	9.2
263.039	8.18
263.256	5.22
263.473	-3.99
263.69	-14.59
263.907	-4.88
264.124	-1.17
264.341	-2.83
264.558	1.6
264.775	0.52
264.992	13.37
265.209	25.95
265.426	20.1
265.643	22.75
265.86	23.37
266.077	20.31
266.294	25.8
266.51	13.93
266.727	1.74
266.944	-47.54
267.161	-44.52
267.378	-51.75
267.595	-47.83
267.812	-56.9
268.028	-44.17
268.245	-29.44
268.462	14.26
268.679	2.1
268.896	7.62
269.112	13.29
269.329	22.83
269.546	22.01
269.763	21.68
269.979	12.33
270.196	19.66
270.413	17.25
270.629	13.37
270.846	12.76
271.063	17.64
271.279	9.14
271.496	11.95
271.712	10.23
271.929	20.64
272.146	21.77
272.362	11.14
272.579	13.08
272.795	11.92
273.012	7.63
273.228	7.38
273.445	1.36
273.661	7.54
273.878	12.31
274.094	12.15
274.311	18.48
274.527	27.72
274.744	25.6
274.96	18.97
275.177	20.01
275.393	25.04
275.609	18.09
275.826	24.35
276.042	31.79
276.259	27.82
276.475	22.59
276.691	16.88
276.908	4.86
277.124	7.52
277.34	-1.42
277.557	-12.02
277.773	-7.52
277.989	-3.6
278.205	-8.98
278.422	12.75
278.638	16.5
278.854	20.48
279.07	15.24
279.286	17.05
279.503	19.92
279.719	31.37
279.935	18.34
280.151	30.49
280.367	26.02
280.583	26.57
280.799	26.19
281.016	25.7
281.232	25.26
281.448	17.82
281.664	0.71
281.88	13.14
282.096	30.68
282.312	26.79
282.528	26.66
282.744	12.46
282.96	26.91
283.176	32.68
283.392	29.84
283.608	23.12
283.824	23.07
284.04	16.11
284.256	21.96
284.471	20.54
284.687	13.45
284.903	10.94
285.119	-8.29
285.335	-1.85
285.551	1.66
285.767	3.95
285.982	-1.82
286.198	-4.56
286.414	9.73
286.63	23.98
286.846	20.79
287.061	28.43
287.277	27.73
287.493	26.35
287.709	34.34
287.924	28.15
288.14	22.49
288.356	33.91
288.571	20.38
288.787	18.3
289.003	23.29
289.218	13.82
289.434	16.57
289.65	25.13
289.865	28.61
290.081	30.45
290.296	29.48
290.512	28.06
290.727	36.42
290.943	24.19
291.159	17.78
291.374	3.17
291.59	-0.2
291.805	0.75
292.021	-3.01
292.236	2.91
292.451	8.35
292.667	11.22
292.882	15.13
293.098	21.35
293.313	12.63
293.529	12.4
293.744	7.1
293.959	6.52
294.175	2.31
294.39	-2.12
294.605	8.05
294.821	9.26
295.036	12.34
295.251	27.53
295.467	30.24
295.682	33.26
295.897	30.93
296.112	26.35
296.328	28.08
296.543	28.36
296.758	14.05
296.973	5.37
297.188	-5.48
297.404	3.46
297.619	6.95
297.834	11.6
298.049	9.18
298.264	4.9
298.479	1.05
298.694	7.04
298.909	-1.3
299.125	-2.74
299.34	-3.57
299.555	1.27
299.77	1.15
299.985	6.6
300.2	14.52
300.415	17.95
300.63	17.55
300.845	16.3
301.06	17.52
301.275	25.14
301.49	25.74
301.704	20.87
301.919	15.42
302.134	6.42
302.349	1.67
302.564	-1.94
302.779	-9.63
302.994	-11.68
303.209	-18.09
303.423	-0.33
303.638	14.54
303.853	11.77
304.068	19.46
304.283	21.73
304.497	25.24
304.712	23.31
304.927	11.28
305.142	13.58
305.356	25.98
305.571	23.35
305.786	20.74
306	18.17
306.215	21.67
306.43	35.2
306.644	29.99
306.859	23.83
307.074	21.71
307.288	23.75
307.503	30.96
307.717	24.97
307.932	19.93
308.147	19.27
308.361	16.75
308.576	21.52
308.79	17.19
309.005	13.04
309.219	21.23
309.434	17.57
309.648	12.19
309.863	9.69
310.077	-5.42
310.292	-1.07
310.506	9.43
310.72	18.12
310.935	23.79
311.149	30.07
311.364	32.65
311.578	34.17
311.792	28.08
312.007	22.25
312.221	7.4
312.435	-0.66
312.649	-5.29
312.864	-12.94
313.078	4.39
313.292	4.01
313.507	7.25
313.721	7.81
313.935	26.21
314.149	30.16
314.363	35.97
314.578	29.01
314.792	32.82
315.006	26.17
315.22	33.44
315.434	18.63
315.648	13.5
315.862	10.28
316.077	6.67
316.291	5.92
316.505	8.07
316.719	-6.35
316.933	2.14
317.147	-5.32
317.361	-3.78
317.575	9.74
317.789	22.9
318.003	27.94
318.217	31.07
318.431	36.8
318.645	45.86
318.859	34.71
319.073	26.95
319.287	23.51
319.5	21.16
319.714	20.97
319.928	14.57
320.142	8.24
320.356	24.82
320.57	21.99
320.784	14.43
320.997	9.31
321.211	9.7
321.425	8.4
321.639	10.43
321.853	3.16
322.066	0.99
322.28	7.77
322.494	12.51
322.707	9.3
322.921	11.88
323.135	27.05
323.349	30.01
323.562	39.26
323.776	30.06
323.989	29.75
324.203	33.74
324.417	32.42
324.63	14.25
324.844	-5.35
325.057	-8.36
325.271	-10.13
325.485	-4.56
325.698	0.23
325.912	2.1
326.125	8.48
326.339	29.03
326.552	25.4
326.766	25.5
326.979	16.58
327.193	15.1
327.406	25.79
327.619	5.52
327.833	-1.46
328.046	3.26
328.26	2.15
328.473	10.6
328.686	2.95
328.9	-15.31
329.113	-10.22
329.326	-5.81
329.54	-12.82
329.753	-2.7
329.966	-4.95
330.179	-3.14
330.393	13.53
330.606	23.05
330.819	31.94
331.032	37.95
331.246	34.78
331.459	45.62
331.672	45.85
331.885	36.19
332.098	32.36
332.311	16.95
332.525	17.05
332.738	14.83
332.951	5.01
333.164	2.84
333.377	-10.41
333.59	-0.77
333.803	3.58
334.016	-3.94
334.229	-1.04
334.442	13.29
334.655	19.88
334.868	25.19
335.081	25.27
335.294	24.32
335.507	29.03
335.72	21.4
335.933	10.65
336.146	3.45
336.359	6.37
336.572	0.39
336.785	10.09
336.997	5.06
337.21	18.35
337.423	26.74
337.636	34.97
337.849	28.51
338.062	27.38
338.274	18.88
338.487	15.87
338.7	4.67
338.913	-1.93
339.125	-6.98
339.338	4.78
339.551	11.16
339.763	12.99
339.976	10.16
340.189	14.57
340.402	14.68
340.614	15.77
340.827	5.63
341.039	1.32
341.252	4.06
341.465	0.74
341.677	-0.55
341.89	-0.44
342.102	6.4
342.315	19.63
342.527	21.98
342.74	15.42
342.952	19.55
343.165	24.73
343.377	25.42
343.59	20.55
343.802	9.57
344.015	10.56
344.227	8.87
344.44	-2.35
344.652	-4.7
344.864	-6.41
345.077	-16.57
345.289	-11.35
345.502	-9.37
345.714	-15.49
345.926	2.07
346.139	6.27
346.351	-6.8
346.563	0.41
346.775	-5.02
346.988	-5.2
347.2	4.06
347.412	2.65
347.624	1.34
347.837	13.54
348.049	13.11
348.261	15.65
348.473	15.74
348.685	17.88
348.897	18.48
349.11	23.56
349.322	11.49
349.534	13.69
349.746	21.66
349.958	20.41
350.17	12.45
350.382	-0.45
350.594	-4.06
350.806	12.9
351.018	10.26
351.23	7.95
351.442	8.83
351.654	18.48
351.866	30.75
352.078	30.7
352.29	27.84
352.502	31.81
352.714	32.33
352.926	28.44
353.138	24.93
353.35	20.07
353.561	19.4
353.773	16.6
353.985	16.67
354.197	5.23
354.409	8.31
354.621	9.76
354.832	0.95
355.044	4.51
355.256	-1.06
355.468	-0.1
355.679	11.93
355.891	11.84
356.103	13.92
356.314	21.01
356.526	17.87
356.738	17.13
356.949	23.67
357.161	17.41
357.373	15.71
357.584	19.27
357.796	23.93
358.008	20.83
358.219	32.81
358.431	25.67
358.642	29.14
358.854	33.85
359.065	24.3
359.277	10.3
359.488	4.83
359.7	1.66
359.911	-10.43
360.123	-2.68
360.334	-8.79
360.546	-12.33
360.757	0.58
360.969	10.32
361.18	2.08
361.391	9.32
361.603	8.88
361.814	12.57
362.025	16.14
362.237	14.34
362.448	13.29
362.659	7.25
362.871	9.97
363.082	7.78
363.293	14.88
363.504	17.48
363.716	20.53
363.927	18.43
364.138	27.74
364.349	27.68
364.56	25.42
364.772	21.56
364.983	16.99
365.194	9.78
365.405	10.38
365.616	3.49
365.827	-0.27
366.038	13.52
366.25	17.76
366.461	21.91
366.672	29.76
366.883	33.99
367.094	36.5
367.305	32.49
367.516	27.19
367.727	22.07
367.938	22.76
368.149	18.34
368.36	13.18
368.571	18.14
368.781	19.6
368.992	16.57
369.203	13.7
369.414	9.45
369.625	5.06
369.836	9.93
370.047	8.87
370.258	11.42
370.468	12.46
370.679	8.29
370.89	16.09
371.101	17.1
371.312	9.28
371.522	9.67
371.733	1.14
371.944	0.62
372.155	0.6
372.365	-6.51
372.576	-10.58
372.787	-10.24
372.997	-17.29
373.208	-7.13
373.419	-8.52
373.629	0.22
373.84	-6.91
374.05	6.39
374.261	8.17
374.472	10.15
374.682	8.93
374.893	5.71
375.103	5.93
375.314	11.64
375.524	9.57
375.735	7.49
375.945	7.68
376.156	8.55
376.366	18.54
376.577	16.08
376.787	19.23
376.997	16.03
377.208	15.6
377.418	18.59
377.629	16.28
377.839	12.14
378.049	17.78
378.26	14.35
378.47	17.92
378.68	17.11
378.89	8.91
379.101	6.16
379.311	1.93
379.521	0.76
379.732	-0.19
379.942	-1.71
380.152	5.44
380.362	14.05
380.572	18.63
380.783	22.02
380.993	19.65
381.203	21.87
381.413	23.15
381.623	18.31
381.833	12.58
382.043	8.99
382.253	8.19
382.463	8.25
382.674	10.41
382.884	6.22
383.094	7.95
383.304	7.79
383.514	10.95
383.724	7.25
383.934	6.33
384.144	4.43
384.353	6.42
384.563	4.31
384.773	8.55
384.983	10.6
385.193	13.48
385.403	12.9
385.613	9.11
385.823	6.14
386.033	7.6
386.242	3.27
386.452	-1.16
386.662	-0.97
386.872	-4.08
387.082	-1.01
387.291	1.98
387.501	2.3
387.711	5.7
387.921	3.34
388.13	1.76
388.34	4.84
388.55	7.12
388.759	5.62
388.969	5.25
389.179	6.85
389.388	8.95
389.598	7.79
389.807	7.65
390.017	6.08
390.227	5.18
390.436	6.75
390.646	5.39
390.855	4.98
391.065	5.29
391.274	4.12
391.484	5.01
391.693	5.93
391.903	4.89
392.112	3.84
392.322	6.13
392.531	6.29
392.74	5.84
392.95	5.65
393.159	6.07
393.369	6.7
393.578	7.32
393.787	5.9
393.997	7.67
394.206	8.39
394.415	7.61
394.625	6.43
394.834	5.11
395.043	4.84
395.252	5.75
395.462	4.62
395.671	4.88
395.88	5.24
396.089	5.9
396.298	6.2
396.508	6.33
396.717	5.61
396.926	5.35
397.135	4.67
397.344	4.55
397.553	4.85
397.762	4.72
397.971	4.49
398.181	4.47
398.39	4.53
398.599	4.98
398.808	4.95
399.017	4.74
399.226	5.03
399.435	4.85
399.644	4.67
399.853	4.8
400.062	4.42
400.27	4.44
400.479	4.35
400.688	4.42
400.897	4.74
401.106	4.83
401.315	4.63
401.524	4.84
401.733	4.91
401.941	4.82
402.15	4.36
402.359	4.25
402.568	4.22
402.777	4.22
402.985	4.21
403.194	4.14
403.403	4.08
403.612	4.34
403.82	4.22
404.029	4.33
404.238	4.44
404.446	4.47
404.655	4.36
404.864	4.34
405.072	4.22
405.281	4.37
405.489	4.3
405.698	4.17
405.906	4.12
406.115	4.22
406.324	4.24
406.532	4.31
406.741	4.19
406.949	4.12
407.158	4.21
407.366	4.16
407.574	4.1
407.783	4.07
407.991	3.94
408.2	3.9
408.408	3.88
408.617	3.84
408.825	3.85
409.033	3.82
409.242	3.84
409.45	3.85
409.658	3.86
409.867	3.94
410.075	3.87
410.283	3.84
410.491	3.88
410.7	3.94
410.908	4.01
411.116	3.98
411.324	3.95
411.533	3.93
411.741	3.86
411.949	3.84
412.157	3.81
412.365	3.79
412.573	3.85
412.781	3.79
412.99	3.91
413.198	3.99
413.406	3.96
413.614	3.87
413.822	3.82
414.03	3.71
414.238	3.8
414.446	3.68
414.654	3.67
414.862	3.58
415.07	3.61
415.278	3.55
415.486	3.71
415.694	3.55
415.902	3.49
416.109	3.52
416.317	3.49
416.525	3.52
416.733	3.62
416.941	3.48
417.149	3.63
417.357	3.67
417.564	3.55
417.772	3.68
417.98	3.61
418.188	3.43
418.395	3.48
418.603	3.29
418.811	3.23
419.019	3.32
419.226	3.26
419.434	3.19
419.642	3.21
419.849	3.23
420.057	3.33
420.265	3.43
420.472	3.36
420.68	3.35
420.887	3.46
421.095	3.57
421.302	3.57
421.51	3.62
421.717	3.53
421.925	3.46
422.132	3.41
422.34	3.37
422.547	3.3
422.755	3.24
422.962	3.12
423.17	3.12
423.377	3.27
423.585	3.32
423.792	3.3
423.999	3.34
424.207	3.26
424.414	3.31
424.621	3.3
424.829	3.21
425.036	3.13
425.243	3.09
425.451	3.06
425.658	3.17
425.865	3.02
426.072	3.1
426.28	3.14
426.487	3.19
426.694	3.25
426.901	3.17
427.108	3.19
427.315	3.31
427.523	3.26
427.73	3.24
427.937	3.22
428.144	3.21
428.351	3.31
428.558	3.22
428.765	3.17
428.972	3.17
429.179	3.12
429.386	3.16
429.593	3.22
429.8	3.28
430.007	3.34
430.214	3.4
430.421	3.4
430.628	3.35
430.835	3.26
431.042	3.22
431.249	3.1
431.456	3.16
431.662	3.1
431.869	3.17
432.076	3.23
432.283	3.24
432.49	3.19
432.697	3.22
432.903	3.2
433.11	3.28
433.317	3.28
433.524	3.21
433.73	3.32
433.937	3.36
434.144	3.46
434.35	3.45
434.557	3.4
434.764	3.42
434.97	3.57
435.177	3.48
435.384	3.56
435.59	3.53
435.797	3.54
436.003	3.56
436.21	3.59
436.416	3.55
436.623	3.65
436.829	3.61
437.036	3.63
437.242	3.61
437.449	3.6
437.655	3.56
437.862	3.61
438.068	3.66
438.275	3.68
438.481	3.75
438.687	3.86
438.894	3.89
439.1	3.96
439.307	3.96
439.513	3.9
439.719	3.91
439.926	3.89
440.132	3.88
440.338	3.9
440.544	3.88
440.751	3.9
440.957	3.91
441.163	3.93
441.369	3.89
441.575	3.88
441.782	3.9
441.988	3.92
442.194	3.92
442.4	3.95
442.606	3.97
442.812	3.98
443.018	3.97
443.224	4
443.431	4
443.637	3.99
443.843	4.06
444.049	4.05
444.255	4.02
444.461	4.03
444.667	4.02
444.873	3.98
445.079	4.03
445.284	3.97
445.49	3.95
445.696	4.02
445.902	4.04
446.108	4.04
446.314	4.16
446.52	4.19
446.726	4.19
446.931	4.23
447.137	4.24
447.343	4.28
447.549	4.22
447.755	4.11
447.96	4.08
448.166	4.14
448.372	4.12
448.578	4.1
448.783	4.09
448.989	4.15
449.195	4.19
449.4	4.2
449.606	4.11
449.812	4.15
450.017	4.21
450.223	4.25
450.428	4.25
450.634	4.23
450.84	4.22
451.045	4.27
451.251	4.26
451.456	4.17
451.662	4.15
451.867	4.16
452.073	4.22
452.278	4.23
452.483	4.22
452.689	4.23
452.894	4.27
453.1	4.26
453.305	4.22
453.51	4.25
453.716	4.27
453.921	4.31
454.127	4.3
454.332	4.3
454.537	4.37
454.742	4.42
454.948	4.38
455.153	4.39
455.358	4.42
455.563	4.41
455.769	4.43
455.974	4.38
456.179	4.34
456.384	4.34
456.589	4.4
456.795	4.32
457	4.4
457.205	4.39
457.41	4.43
457.615	4.46
457.82	4.54
458.025	4.51
458.23	4.57
458.435	4.52
458.64	4.56
458.845	4.59
459.05	4.59
459.255	4.55
459.46	4.53
459.665	4.57
459.87	4.63
460.075	4.66
460.28	4.65
460.485	4.7
460.69	4.7
460.895	4.76
461.099	4.71
461.304	4.7
461.509	4.6
461.714	4.6
461.919	4.54
462.123	4.55
462.328	4.55
462.533	4.62
462.738	4.59
462.942	4.66
463.147	4.62
463.352	4.71
463.556	4.78
463.761	4.72
463.966	4.72
464.17	4.77
464.375	4.8
464.58	4.83
464.784	4.83
464.989	4.82
465.193	4.93
465.398	4.9
465.602	4.91
465.807	4.94
466.011	4.98
466.216	4.98
466.42	5.01
466.625	5
466.829	5.05
467.034	5.12
467.238	5.12
467.443	5.13
467.647	5.16
467.851	5.1
468.056	5.07
468.26	5.04
468.464	4.98
468.669	5.02
468.873	5.05
469.077	5.09
469.282	5.18
469.486	5.21
469.69	5.28
469.894	5.33
470.099	5.33
470.303	5.3
470.507	5.27
470.711	5.25
470.915	5.28
471.119	5.31
471.324	5.3
471.528	5.33
471.732	5.38
471.936	5.41
472.14	5.39
472.344	5.41
472.548	5.43
472.752	5.5
472.956	5.5
473.16	5.51
473.364	5.5
473.568	5.56
473.772	5.59
473.976	5.58
474.18	5.57
474.384	5.58
474.588	5.58
474.792	5.59
474.995	5.58
475.199	5.57
475.403	5.55
475.607	5.54
475.811	5.53
476.015	5.55
476.218	5.56
476.422	5.62
476.626	5.61
476.83	5.62
477.033	5.69
477.237	5.7
477.441	5.69
477.644	5.69
477.848	5.67
478.052	5.71
478.255	5.74
478.459	5.75
478.663	5.78
478.866	5.78
479.07	5.82
479.273	5.84
479.477	5.86
479.681	5.86
479.884	5.77
480.088	5.78
480.291	5.82
480.495	5.86
480.698	5.84
480.901	5.82
481.105	5.86
481.308	5.92
481.512	5.94
481.715	5.93
481.919	5.94
482.122	5.94
482.325	6
482.529	6.02
482.732	6.06
482.935	6.08
483.138	6.07
483.342	6.09
483.545	6.14
483.748	6.13
483.952	6.12
484.155	6.13
484.358	6.09
484.561	6.11
484.764	6.11
484.967	6.12
485.171	6.11
485.374	6.14
485.577	6.17
485.78	6.23
485.983	6.24
486.186	6.26
486.389	6.23
486.592	6.27
486.795	6.23
486.998	6.2
487.201	6.2
487.404	6.21
487.607	6.19
487.81	6.24
488.013	6.21
488.216	6.22
488.419	6.2
488.622	6.19
488.825	6.18
489.028	6.16
489.231	6.14
489.433	6.14
489.636	6.12
489.839	6.13
490.042	6.12
490.245	6.14
490.447	6.14
490.65	6.17
490.853	6.15
491.056	6.19
491.258	6.22
491.461	6.21
491.664	6.17
491.866	6.21
492.069	6.22
492.272	6.21
492.474	6.19
492.677	6.19
492.879	6.21
493.082	6.25
493.285	6.25
493.487	6.19
493.69	6.23
493.892	6.25
494.095	6.23
494.297	6.24
494.5	6.25
494.702	6.22
494.905	6.29
495.107	6.27
495.309	6.25
495.512	6.26
495.714	6.3
495.917	6.28
496.119	6.31
496.321	6.28
496.524	6.29
496.726	6.3
496.928	6.32
497.13	6.32
497.333	6.35
497.535	6.35
497.737	6.39
497.939	6.42
498.142	6.42
498.344	6.38
498.546	6.42
498.748	6.4
498.95	6.35
499.152	6.32
499.355	6.33
499.557	6.38
499.759	6.45
499.961	6.38
500.163	6.44
500.365	6.49
500.567	6.48
500.769	6.5
500.971	6.47
501.173	6.46
501.375	6.49
501.577	6.48
501.779	6.5
501.981	6.54
502.183	6.53
502.385	6.56
502.587	6.6
502.788	6.6
502.99	6.59
503.192	6.62
503.394	6.65
503.596	6.71
503.798	6.77
503.999	6.77
504.201	6.79
504.403	6.81
504.605	6.83
504.806	6.82
505.008	6.8
505.21	6.79
505.411	6.84
505.613	6.9
505.815	6.92
506.016	6.95
506.218	6.96
506.42	7.01
506.621	7.03
506.823	7.02
507.024	7.04
507.226	7.05
507.427	7.08
507.629	7.1
507.83	7.09
508.032	7.12
508.233	7.13
508.435	7.1
508.636	7.14
508.838	7.12
509.039	7.19
509.24	7.18
509.442	7.14
509.643	7.15
509.845	7.16
510.046	7.13
510.247	7.17
510.448	7.13
510.65	7.17
510.851	7.22
511.052	7.29
511.254	7.33
511.455	7.35
511.656	7.32
511.857	7.36
512.058	7.39
512.26	7.35
512.461	7.36
512.662	7.35
512.863	7.37
513.064	7.39
513.265	7.42
513.466	7.44
513.667	7.5
513.868	7.47
514.069	7.53
514.27	7.54
514.471	7.56
514.672	7.55
514.873	7.54
515.074	7.56
515.275	7.57
515.476	7.58
515.677	7.59
515.878	7.64
516.079	7.64
516.28	7.63
516.481	7.62
516.682	7.66
516.882	7.64
517.083	7.66
517.284	7.65
517.485	7.67
517.686	7.69
517.886	7.72
518.087	7.71
518.288	7.71
518.488	7.73
518.689	7.7
518.89	7.74
519.091	7.74
519.291	7.76
519.492	7.78
519.692	7.83
519.893	7.83
520.094	7.91
520.294	7.88
520.495	7.9
520.695	7.92
520.896	7.89
521.096	7.9
521.297	7.9
521.497	7.9
521.698	7.91
521.898	7.92
522.099	7.94
522.299	7.98
522.499	7.98
522.7	8.01
522.9	7.99
523.101	8.02
523.301	8.04
523.501	8.03
523.702	8.05
523.902	8.06
524.102	8.09
524.302	8.14
524.503	8.14
524.703	8.17
524.903	8.19
525.103	8.2
525.304	8.21
525.504	8.21
525.704	8.17
525.904	8.2
526.104	8.22
526.304	8.21
526.504	8.22
526.705	8.19
526.905	8.22
527.105	8.26
527.305	8.24
527.505	8.22
527.705	8.23
527.905	8.24
528.105	8.29
528.305	8.29
528.505	8.29
528.705	8.31
528.905	8.3
529.105	8.31
529.304	8.32
529.504	8.33
529.704	8.34
529.904	8.39
530.104	8.35
530.304	8.41
530.503	8.42
530.703	8.45
530.903	8.46
531.103	8.46
531.303	8.48
531.502	8.51
531.702	8.49
531.902	8.49
532.101	8.5
532.301	8.52
532.501	8.54
532.7	8.56
532.9	8.6
533.1	8.65
533.299	8.67
533.499	8.66
533.698	8.69
533.898	8.73
534.097	8.71
534.297	8.74
534.496	8.72
534.696	8.73
534.895	8.78
535.095	8.8
535.294	8.76
535.494	8.78
535.693	8.79
535.892	8.83
536.092	8.86
536.291	8.86
536.491	8.87
536.69	8.92
536.889	8.95
537.088	8.94
537.288	8.99
537.487	9.02
537.686	9.05
537.886	9.07
538.085	9.11
538.284	9.14
538.483	9.2
538.682	9.18
538.882	9.21
539.081	9.25
539.28	9.27
539.479	9.27
539.678	9.33
539.877	9.33
540.076	9.38
540.275	9.42
540.474	9.4
540.673	9.43
540.872	9.49
541.071	9.51
541.27	9.55
541.469	9.6
541.668	9.65
541.867	9.74
542.066	9.77
542.265	9.8
542.464	9.82
542.663	9.89
542.862	9.89
543.06	9.85
543.259	9.81
543.458	9.86
543.657	9.88
543.856	9.91
544.054	9.95
544.253	9.97
544.452	9.99
544.651	10.05
544.849	10.08
545.048	10.1
545.247	10.12
545.445	10.1
545.644	10.15
545.843	10.24
546.041	10.3
546.24	10.41
546.438	10.49
546.637	10.57
546.836	10.66
547.034	10.72
547.233	10.82
547.431	10.82
547.63	10.83
547.828	10.85
548.027	10.88
548.225	10.92
548.423	10.99
548.622	11
548.82	11.1
549.019	11.15
549.217	11.26
549.415	11.33
549.614	11.35
549.812	11.41
550.01	11.49
550.209	11.58
550.407	11.66
550.605	11.72
550.803	11.81
551.002	11.91
551.2	12.01
551.398	12.05
551.596	12.07
551.794	12.11
551.993	12.15
552.191	12.22
552.389	12.29
552.587	12.34
552.785	12.43
552.983	12.49
553.181	12.54
553.379	12.61
553.577	12.69
553.775	12.76
553.973	12.83
554.171	12.88
554.369	12.96
554.567	13.02
554.765	13.05
554.963	13.05
555.161	13.11
555.359	13.16
555.557	13.25
555.755	13.34
555.952	13.45
556.15	13.54
556.348	13.66
556.546	13.76
556.744	13.86
556.941	13.98
557.139	14.08
557.337	14.21
557.535	14.36
557.732	14.5
557.93	14.55
558.128	14.64
558.325	14.72
558.523	14.76
558.721	14.79
558.918	14.84
559.116	14.91
559.313	15.06
559.511	15.12
559.708	15.17
559.906	15.29
560.104	15.41
560.301	15.47
560.498	15.57
560.696	15.63
560.893	15.77
561.091	15.93
561.288	16.02
561.486	16.1
561.683	16.2
561.88	16.28
562.078	16.39
562.275	16.44
562.473	16.5
562.67	16.58
562.867	16.67
563.064	16.8
563.262	16.92
563.459	17.02
563.656	17.16
563.853	17.28
564.051	17.38
564.248	17.54
564.445	17.6
564.642	17.72
564.839	17.85
565.036	17.96
565.234	18.04
565.431	18.15
565.628	18.22
565.825	18.32
566.022	18.33
566.219	18.37
566.416	18.42
566.613	18.5
566.81	18.57
567.007	18.62
567.204	18.69
567.401	18.82
567.598	18.88
567.795	18.95
567.991	19.02
568.188	19.12
568.385	19.22
568.582	19.34
568.779	19.43
568.976	19.5
569.172	19.59
569.369	19.64
569.566	19.64
569.763	19.72
569.96	19.76
570.156	19.75
570.353	19.82
570.55	19.9
570.746	19.97
570.943	20.13
571.14	20.16
571.336	20.19
571.533	20.27
571.729	20.33
571.926	20.36
572.123	20.37
572.319	20.38
572.516	20.42
572.712	20.48
572.909	20.54
573.105	20.63
573.302	20.63
573.498	20.68
573.695	20.65
573.891	20.69
574.087	20.65
574.284	20.62
574.48	20.59
574.677	20.64
574.873	20.72
575.069	20.84
575.266	20.84
575.462	20.94
575.658	21.01
575.854	21.01
576.051	21.01
576.247	20.97
576.443	20.94
576.639	20.93
576.835	20.91
577.032	20.9
577.228	20.94
577.424	20.96
577.62	21.04
577.816	21.02
578.012	21.04
578.208	21.07
578.404	21.12
578.6	21.16
578.796	21.16
578.993	21.12
579.189	21.11
579.384	21.04
579.58	21.02
579.776	20.96
579.972	20.92
580.168	20.94
580.364	20.94
580.56	20.96
580.756	21
580.952	21.03
581.148	21.04
581.343	21.08
581.539	21
581.735	20.98
581.931	20.93
582.127	20.94
582.322	20.9
582.518	20.87
582.714	20.77
582.909	20.77
583.105	20.75
583.301	20.74
583.496	20.74
583.692	20.75
583.888	20.7
584.083	20.75
584.279	20.79
584.474	20.8
584.67	20.81
584.866	20.85
585.061	20.82
585.257	20.88
585.452	20.86
585.648	20.8
585.843	20.77
586.039	20.79
586.234	20.74
586.429	20.73
586.625	20.7
586.82	20.64
587.015	20.69
587.211	20.73
587.406	20.75
587.601	20.79
587.797	20.79
587.992	20.82
588.187	20.91
588.383	20.9
588.578	20.9
588.773	20.87
588.968	20.9
589.163	20.95
589.359	20.94
589.554	20.91
589.749	21
589.944	21.04
590.139	21.08
590.334	21.12
590.529	21.14
590.724	21.15
590.919	21.25
591.114	21.19
591.309	21.21
591.504	21.24
591.699	21.23
591.894	21.3
592.089	21.37
592.284	21.32
592.479	21.37
592.674	21.45
592.869	21.5
593.064	21.6
593.259	21.65
593.454	21.72
593.648	21.83
593.843	21.92
594.038	21.95
594.233	22.03
594.428	22.1
594.622	22.15
594.817	22.19
595.012	22.26
595.206	22.33
595.401	22.37
595.596	22.46
595.79	22.5
595.985	22.6
596.18	22.72
596.374	22.74
596.569	22.84
596.763	22.99
596.958	23
597.153	23.1
597.347	23.13
597.542	23.2
597.736	23.3
597.931	23.39
598.125	23.42
598.319	23.54
598.514	23.55
598.708	23.67
598.903	23.71
599.097	23.8
599.291	23.86
599.486	23.94
599.68	23.97
599.874	24.05
600.069	24.03
600.263	24.12
600.457	24.11
600.651	24.15
600.846	24.19
601.04	24.28
601.234	24.34
601.428	24.39
601.622	24.39
601.817	24.49
602.011	24.5
602.205	24.5
602.399	24.52
602.593	24.5
602.787	24.56
602.981	24.63
603.175	24.61
603.369	24.61
603.563	24.67
603.757	24.61
603.951	24.61
604.145	24.58
604.339	24.55
604.533	24.56
604.727	24.55
604.921	24.49
605.115	24.47
605.309	24.48
605.502	24.43
605.696	24.36
605.89	24.34
606.084	24.3
606.278	24.26
606.471	24.23
606.665	24.22
606.859	24.18
607.053	24.18
607.246	24.12
607.44	24.08
607.634	24.03
607.827	23.97
608.021	23.86
608.214	23.87
608.408	23.81
608.602	23.77
608.795	23.68
608.989	23.69
609.182	23.7
609.376	23.66
609.569	23.56
609.763	23.54
609.956	23.4
610.15	23.39
610.343	23.28
610.537	23.14
610.73	23.08
610.923	23
611.117	22.86
611.31	22.85
611.504	22.79
611.697	22.74
611.89	22.68
612.083	22.59
612.277	22.4
612.47	22.32
612.663	22.24
612.856	22.14
613.05	22.03
613.243	21.94
613.436	21.84
613.629	21.88
613.822	21.85
614.015	21.77
614.209	21.71
614.402	21.66
614.595	21.56
614.788	21.51
614.981	21.38
615.174	21.33
615.367	21.3
615.56	21.21
615.753	21.13
615.946	21.1
616.139	21.07
616.332	21.09
616.525	21.01
616.718	20.96
616.911	20.95
617.103	20.88
617.296	20.86
617.489	20.82
617.682	20.78
617.875	20.71
618.067	20.62
618.26	20.55
618.453	20.53
618.646	20.46
618.838	20.4
619.031	20.34
619.224	20.35
619.417	20.35
619.609	20.29
619.802	20.26
619.994	20.2
620.187	20.19
620.38	20.17
620.572	20.11
620.765	20.01
620.957	19.96
621.15	19.9
621.342	19.92
621.535	19.89
621.727	19.84
621.92	19.84
622.112	19.85
622.305	19.82
622.497	19.79
622.69	19.73
622.882	19.73
623.074	19.73
623.267	19.62
623.459	19.58
623.651	19.55
623.844	19.58
624.036	19.58
624.228	19.53
624.42	19.47
624.613	19.52
624.805	19.55
624.997	19.49
625.189	19.41
625.381	19.33
625.574	19.26
625.766	19.24
625.958	19.19
626.15	19.15
626.342	19.19
626.534	19.19
626.726	19.21
626.918	19.2
627.11	19.17
627.302	19.11
627.494	19.09
627.686	19.05
627.878	19
628.07	18.94
628.262	18.88
628.454	18.86
628.646	18.79
628.838	18.73
629.029	18.65
629.221	18.64
629.413	18.63
629.605	18.64
629.797	18.61
629.989	18.61
630.18	18.56
630.372	18.59
630.564	18.6
630.755	18.54
630.947	18.46
631.139	18.41
631.33	18.43
631.522	18.41
631.714	18.37
631.905	18.28
632.097	18.24
632.289	18.25
632.48	18.24
632.672	18.14
632.863	18.1
633.055	18.07
633.246	18.07
633.438	18.07
633.629	18.06
633.821	18.05
634.012	18.09
634.203	18.13
634.395	18.12
634.586	18.11
634.777	18.09
634.969	18.07
635.16	18.04
635.351	18.02
635.543	17.98
635.734	17.94
635.925	17.97
636.117	17.98
636.308	17.96
636.499	17.94
636.69	17.98
636.881	18.04
637.073	18.06
637.264	18.02
637.455	18
637.646	18.03
637.837	18.01
638.028	17.97
638.219	17.91
638.41	17.9
638.601	17.9
638.792	17.82
638.983	17.73
639.174	17.75
639.365	17.69
639.556	17.63
639.747	17.61
639.938	17.61
640.129	17.65
640.32	17.7
640.511	17.69
640.701	17.7
640.892	17.7
641.083	17.67
641.274	17.63
641.465	17.6
641.655	17.59
641.846	17.5
642.037	17.5
642.228	17.45
642.418	17.47
642.609	17.44
642.8	17.43
642.99	17.38
643.181	17.45
643.372	17.41
643.562	17.43
643.753	17.39
643.943	17.33
644.134	17.3
644.324	17.29
644.515	17.24
644.705	17.21
644.896	17.1
645.086	17.05
645.277	17.1
645.467	17.1
645.658	17.1
645.848	17.06
646.038	16.98
646.229	17.08
646.419	17.11
646.61	17.03
646.8	17
646.99	16.94
647.18	16.95
647.371	17.02
647.561	16.95
647.751	16.84
647.941	16.8
648.132	16.8
648.322	16.83
648.512	16.8
648.702	16.68
648.892	16.69
649.082	16.72
649.272	16.69
649.462	16.68
649.653	16.64
649.843	16.6
650.033	16.65
650.223	16.62
650.413	16.66
650.603	16.69
650.793	16.6
650.983	16.59
651.172	16.58
651.362	16.52
651.552	16.45
651.742	16.32
651.932	16.29
652.122	16.24
652.312	16.07
652.502	15.99
652.691	15.97
652.881	15.93
653.071	15.79
653.261	15.7
653.45	15.58
653.64	15.61
653.83	15.49
654.019	15.29
654.209	15.19
654.399	15.19
654.588	15.07
654.778	14.96
654.968	14.81
655.157	14.69
655.347	14.59
655.536	14.46
655.726	14.35
655.915	14.21
656.105	14.16
656.294	14.02
656.484	13.93
656.673	13.79
656.863	13.7
657.052	13.51
657.241	13.4
657.431	13.22
657.62	13.04
657.809	12.87
657.999	12.74
658.188	12.56
658.377	12.47
658.567	12.27
658.756	12.08
658.945	11.97
659.134	11.84
659.324	11.66
659.513	11.5
659.702	11.3
659.891	11.18
660.08	11.08
660.269	10.94
660.458	10.77
660.648	10.65
660.837	10.5
661.026	10.35
661.215	10.25
661.404	10.1
661.593	9.95
661.782	9.81
661.971	9.7
662.16	9.59
662.349	9.48
662.538	9.35
662.726	9.23
662.915	9.15
663.104	8.98
663.293	8.87
663.482	8.72
663.671	8.63
663.86	8.53
664.048	8.43
664.237	8.37
664.426	8.39
664.615	8.28
664.803	8.23
664.992	8.19
665.181	8.13
665.369	8.06
665.558	7.95
665.747	7.86
665.935	7.84
666.124	7.82
666.312	7.69
666.501	7.62
666.69	7.61
666.878	7.6
667.067	7.62
667.255	7.58
667.444	7.51
667.632	7.48
667.82	7.45
668.009	7.4
668.197	7.32
668.386	7.22
668.574	7.23
668.762	7.14
668.951	7.12
669.139	7.17
669.327	7.12
669.516	7.2
669.704	7.21
669.892	7.17
670.08	7.23
670.269	7.3
670.457	7.22
670.645	7.25
670.833	7.22
671.021	7.23
671.21	7.27
671.398	7.28
671.586	7.27
671.774	7.31
671.962	7.32
672.15	7.32
672.338	7.36
672.526	7.37
672.714	7.42
672.902	7.36
673.09	7.44
673.278	7.46
673.466	7.6
673.654	7.65
673.842	7.73
674.03	7.82
674.218	7.92
674.405	8.02
674.593	8.11
674.781	8.05
674.969	8.12
675.157	8.13
675.344	8.16
675.532	8.24
675.72	8.25
675.908	8.27
676.095	8.44
676.283	8.49
676.471	8.55
676.658	8.69
676.846	8.8
677.033	8.82
677.221	8.97
677.409	8.97
677.596	9.05
677.784	9.14
677.971	9.14
678.159	9.22
678.346	9.29
678.534	9.29
678.721	9.37
678.909	9.47
679.096	9.56
679.283	9.63
679.471	9.74
679.658	9.92
679.846	10.11
680.033	10.23
680.22	10.23
680.408	10.31
680.595	10.43
680.782	10.5
680.969	10.61
681.157	10.63
681.344	10.75
681.531	10.93
681.718	11.07
681.905	11.23
682.093	11.4
682.28	11.54
682.467	11.61
682.654	11.7
682.841	11.92
683.028	12.12
683.215	12.25
683.402	12.32
683.589	12.44
683.776	12.66
683.963	12.88
684.15	13.01
684.337	13.13
684.524	13.37
684.711	13.57
684.898	13.81
685.085	14.12
685.271	14.34
685.458	14.63
685.645	14.87
685.832	15.16
686.019	15.52
686.205	15.71
686.392	16
686.579	16.25
686.766	16.54
686.952	16.98
687.139	17.31
687.326	17.62
687.512	18.13
687.699	18.45
687.886	18.8
688.072	19.25
688.259	19.65
688.445	19.97
688.632	20.51
688.818	20.92
689.005	21.42
689.191	22.03
689.378	22.45
689.564	22.92
689.751	23.51
689.937	23.95
690.124	24.54
690.31	25.05
690.496	25.64
690.683	26.23
690.869	26.81
691.055	27.45
691.242	27.96
691.428	28.44
691.614	29.08
691.8	29.65
691.987	30.35
692.173	31.05
692.359	31.76
692.545	32.53
692.731	33.34
692.918	34.12
693.104	34.77
693.29	35.48
693.476	36.04
693.662	36.72
693.848	37.36
694.034	37.93
694.22	38.64
694.406	39.4
694.592	40.06
694.778	40.76
694.964	41.36
695.15	42.2
695.336	43.13
695.522	43.7
695.708	44.48
695.894	45.14
696.08	45.88
696.265	46.57
696.451	47.24
696.637	47.73
696.823	48.4
697.009	49.01
697.194	49.63
697.38	50.25
697.566	50.79
697.751	51.34
697.937	51.96
698.123	52.76
698.308	53.37
698.494	54.02
698.68	54.71
698.865	55.45
699.051	55.93
699.236	56.47
699.422	56.9
699.607	57.38
699.793	57.82
699.978	58.34
700.164	58.87
700.349	59.39
700.535	60.04
700.72	60.59
700.906	60.92
701.091	61.44
701.276	61.75
701.462	62.27
701.647	62.9
701.832	63.26
702.018	63.59
702.203	64.15
702.388	64.67
702.573	65.38
702.759	65.76
702.944	66.21
703.129	66.63
703.314	67.1
703.499	67.6
703.684	67.97
703.87	68.18
704.055	68.49
704.24	68.88
704.425	69.32
704.61	69.68
704.795	69.79
704.98	70.04
705.165	70.33
705.35	70.53
705.535	70.93
705.72	71.04
705.905	71.19
706.09	71.59
706.275	72.05
706.459	72.53
706.644	72.97
706.829	72.97
707.014	73.21
707.199	73.5
707.384	73.75
707.568	73.91
707.753	74.26
707.938	74.43
708.123	74.57
708.307	75.16
708.492	75.42
708.677	75.77
708.861	76.12
709.046	76.04
709.231	76.39
709.415	76.81
709.6	76.76
709.784	77.22
709.969	77.41
710.153	77.62
710.338	77.87
710.522	77.81
710.707	77.7
710.891	78.08
711.076	77.92
711.26	78.04
711.445	78.09
711.629	78.28
711.813	78.63
711.998	78.96
712.182	79
712.366	79.41
712.551	79.71
712.735	79.65
712.919	79.94
713.103	80.12
713.288	80.58
713.472	80.72
713.656	80.56
713.84	80.57
714.024	80.93
714.208	80.76
714.393	80.76
714.577	80.68
714.761	80.93
714.945	81.06
715.129	81.33
715.313	81.53
715.497	81.79
715.681	82.17
715.865	82.25
716.049	82.5
716.233	82.81
716.417	82.85
716.601	82.85
716.785	83.1
716.968	82.92
717.152	83.07
717.336	82.78
717.52	82.79
717.704	82.83
717.888	83.11
718.071	83.22
718.255	83.34
718.439	83.24
718.622	83.48
718.806	83.32
718.99	83.39
719.174	83.28
719.357	83.29
719.541	83.62
719.724	83.93
719.908	84.2
720.092	84.52
720.275	84.85
720.459	84.81
720.642	84.73
720.826	84.42
721.009	84.22
721.193	83.9
721.376	84.01
721.559	83.77
721.743	83.83
721.926	83.64
722.11	83.82
722.293	83.67
722.476	83.6
722.66	83.75
722.843	84.14
723.026	84.14
723.21	84.61
723.393	84.86
723.576	85.39
723.759	85.76
723.942	85.83
724.126	85.53
724.309	85.82
724.492	85.54
724.675	85.67
724.858	85.92
725.041	86.05
725.224	86.22
725.407	86.35
725.59	86.48
725.774	87.08
725.957	87.07
726.14	86.86
726.322	86.46
726.505	86.65
726.688	86.94
726.871	86.94
727.054	86.87
727.237	86.53
727.42	86.96
727.603	87.38
727.786	87.2
727.968	87.27
728.151	87.36
728.334	87.25
728.517	87.92
728.699	87.89
728.882	88.5
729.065	88.51
729.248	88.54
729.43	88.39
729.613	88.72
729.796	88.63
729.978	88.77
730.161	88.63
730.343	89.01
730.526	88.84
730.708	89.31
730.891	89.17
731.073	88.89
731.256	88.84
731.438	88.85
731.621	89.1
731.803	89.44
731.986	89.65
732.168	89.7
732.35	89.99
732.533	89.85
732.715	89.95
732.898	89.65
733.08	89.72
733.262	89.28
733.444	89.43
733.627	89.64
733.809	89.7
733.991	89.74
734.173	89.39
734.355	89.54
734.538	89.73
734.72	90.18
734.902	89.98
735.084	90.22
735.266	90.18
735.448	90.56
735.63	90.4
735.812	90.54
735.994	90.05
736.176	90.43
736.358	90.5
736.54	90.16
736.722	90.44
736.904	90.73
737.086	90.44
737.268	90.75
737.45	90.71
737.632	90.36
737.814	90.72
737.995	90.61
738.177	90.75
738.359	91.06
738.541	90.56
738.723	90.58
738.904	90.5
739.086	90.49
739.268	90.64
739.449	90.52
739.631	90.93
739.813	91.43
739.994	91.83
740.176	92.08
740.358	92.24
740.539	92.14
740.721	91.78
740.902	91.65
741.084	91.76
741.265	91.13
741.447	90.97
741.628	90.72
741.81	90.83
741.991	91.2
742.172	90.84
742.354	90.92
742.535	90.75
742.717	90.44
742.898	90.8
743.079	90.38
743.261	90.55
743.442	90.99
743.623	90.5
743.804	91.23
743.986	92
744.167	91.84
744.348	92.15
744.529	91.59
744.71	91.16
744.891	91.51
745.073	90.97
745.254	90.85
745.435	90.57
745.616	90.45
745.797	90.58
745.978	91.21
746.159	91.22
746.34	91.59
746.521	91.45
746.702	91.45
746.883	92.22
747.064	91.67
747.245	91.9
747.426	92.09
747.606	91.84
747.787	92.31
747.968	93.01
748.149	92.33
748.33	93.56
748.51	92.6
748.691	92.3
748.872	92.78
749.053	92.56
749.233	91.81
749.414	91.79
749.595	91.07
749.775	91.68
749.956	91.15
750.137	90.5
750.317	90.33
750.498	90.64
750.678	90.92
750.859	90.49
751.04	90.58
751.22	90.76
751.4	91.13
751.581	91.03
751.761	91.52
751.942	91.2
752.122	92.29
752.303	91.95
752.483	92.98
752.663	93.15
752.844	92.42
753.024	92.5
753.204	91.84
753.385	91.19
753.565	90.27
753.745	89.42
753.925	88.85
754.106	89.39
754.286	88.71
754.466	88.92
754.646	88.46
754.826	89.1
755.006	88.92
755.187	88.96
755.367	88.78
755.547	89.08
755.727	89.44
755.907	90.42
756.087	90.49
756.267	90.65
756.447	91.22
756.627	91.22
756.807	91.88
756.987	92.79
757.167	92.34
757.346	91.87
757.526	91.77
757.706	91.43
757.886	91.86
758.066	90.94
758.246	90.25
758.425	90.1
758.605	89.97
758.785	89.74
758.965	88.86
759.144	89.09
759.324	89.19
759.504	89.28
759.683	89.21
759.863	89.49
760.043	89.47
760.222	90.23
760.402	90.31
760.581	89.46
760.761	88.8
760.94	88.06
761.12	87.51
761.299	87.7
761.479	88.13
761.658	87.64
761.838	88.37
762.017	88.61
762.197	89.02
762.376	89.66
762.555	90.01
762.735	88.66
762.914	89.13
763.093	88.54
763.273	88.39
763.452	88.34
763.631	87.5
763.81	87.43
763.99	88.35
764.169	88.17
764.348	88.42
764.527	88.55
764.706	89.18
764.885	89.93
765.064	89
765.243	88.59
765.423	88.22
765.602	88.28
765.781	88.4
765.96	87.53
766.139	87.3
766.318	88.47
766.497	89.08
766.676	90.34
766.854	89.8
767.033	89.9
767.212	90.23
767.391	89.39
767.57	88.88
767.749	88.43
767.928	86.9
768.106	87.94
768.285	87.56
768.464	87.67
768.643	88.5
768.821	88.24
769	88.56
769.179	88.06
769.357	87.28
769.536	87.11
769.715	87.03
769.893	86.85
770.072	86.76
770.25	85.81
770.429	87.36
770.607	86.6
770.786	85.94
770.964	85.18
771.143	84.95
771.321	84.9
771.5	84.79
771.678	84.13
771.857	83.99
772.035	84.76
772.213	84.8
772.392	85.54
772.57	85.92
772.748	87.07
772.927	86.72
773.105	89.43
773.283	87.98
773.461	88.04
773.64	87.03
773.818	86.65
773.996	85.71
774.174	85.95
774.352	84.55
774.531	85.32
774.709	86.61
774.887	86.63
775.065	86.28
775.243	87
775.421	86.42
775.599	84.58
775.777	85.24
775.955	83.65
776.133	83.61
776.311	82.29
776.489	81.78
776.667	81.98
776.844	83.23
777.022	82.59
777.2	82.74
777.378	83.79
777.556	86.28
777.734	87.07
777.911	87.5
778.089	86.34
778.267	85.6
778.445	85.63
778.622	84.29
778.8	83.36
778.978	82.44
779.155	81.69
779.333	81.79
779.511	82.95
779.688	82.51
779.866	81.43
780.043	82.5
780.221	82.55
780.398	82.67
780.576	82.5
780.753	81.68
780.931	82.83
781.108	84.1
781.286	83.17
781.463	83.39
781.64	82.52
781.818	82.8
781.995	83.52
782.172	83.56
782.35	83.91
782.527	86.08
782.704	85.77
782.882	88.27
783.059	87.05
783.236	87.22
783.413	87.21
783.59	87.27
783.768	85.98
783.945	86.78
784.122	85.68
784.299	88.45
784.476	88.21
784.653	86.69
784.83	85.25
785.007	83.01
785.184	82.46
785.361	81.55
785.538	81.76
785.715	80.54
785.892	80.55
786.069	80.11
786.246	81.33
786.423	81.18
786.6	81.77
786.776	77.56
786.953	77.74
787.13	79.6
787.307	81.21
787.484	80.7
787.66	79.68
787.837	79.62
788.014	81.32
788.191	81.24
788.367	80.35
788.544	81.01
788.721	82.58
788.897	84.81
789.074	82.84
789.25	85.49
789.427	86.67
789.603	87.5
789.78	89.17
789.956	87.57
790.133	87.05
790.309	86.86
790.486	86.81
790.662	87.19
790.839	86.84
791.015	84.88
791.192	84.97
791.368	85.59
791.544	88.38
791.721	84.32
791.897	84.13
792.073	83.42
792.249	84.16
792.426	84.16
792.602	82.49
792.778	82.2
792.954	84
793.13	83.65
793.307	83.3
793.483	82.24
793.659	82.96
793.835	81.32
794.011	80.53
794.187	79.83
794.363	78.36
794.539	79.53
794.715	76.26
794.891	73.4
795.067	73.88
795.243	75.07
795.419	76.9
795.595	77.32
795.771	77.68
795.947	81.56
796.122	83.32
796.298	83.5
796.474	82.1
796.65	82.64
796.826	85.01
797.001	85.66
797.177	84.27
797.353	84.81
797.529	84.57
797.704	84.7
797.88	82.38
798.056	83.65
798.231	80.62
798.407	81.81
798.582	81.8
798.758	83.71
798.934	82.47
799.109	81.67
799.285	80.65
799.46	79.84
799.636	79.31
799.811	79.77
799.986	79.68
800.162	79.9
800.337	78.91
800.513	78.41
800.688	83.06
800.863	83.07
801.039	80.7
801.214	80.76
801.389	80.33
801.565	83.58
801.74	81.12
801.915	77.25
802.09	75.4
802.265	77.7
802.441	77.29
802.616	80.14
802.791	79.89
802.966	82.23
803.141	79.15
803.316	81.64
803.491	75.9
803.666	76.39
803.841	75.77
804.016	76.63
804.191	73.7
804.366	76.31
804.541	74.16
804.716	74.33
804.891	76.39
805.066	73.14
805.241	70.05
805.416	70.58
805.591	74.17
805.765	75
805.94	80.29
806.115	73.28
806.29	72.13
806.464	73.09
806.639	73.51
806.814	68.26
806.989	66.42
807.163	66.73
807.338	69.77
807.512	70.6
807.687	67.99
807.862	68.86
808.036	67.48
808.211	74.58
808.385	71.42
808.56	75.71
808.734	80.68
808.909	82.24
809.083	79.36
809.258	86.55
809.432	80.03
809.606	82.84
809.781	80.21
809.955	78.35
810.13	80.54
810.304	81.06
810.478	78.9
810.652	83.13
810.827	78.81
811.001	79.64
811.175	73.05
811.349	69.01
811.524	70.19
811.698	70.1
811.872	68.57
812.046	70.28
812.22	67.28
812.394	73.37
812.568	79.5
812.742	81.53
812.916	80.21
813.09	77.87
813.264	73.99
813.438	80.09
813.612	77.98
813.786	73.8
813.96	73.87
814.134	76.44
814.308	75.19
814.482	81.4
814.656	78.85
814.83	81.88
815.003	85.34
815.177	83
815.351	83.56
815.525	79.24
815.698	74.89
815.872	72.31
816.046	64.73
816.219	63.7
816.393	61.14
816.567	58.54
816.74	61.73
816.914	66.16
817.088	63.71
817.261	69.36
817.435	67.53
817.608	71.31
817.782	70.3
817.955	70.84
818.129	70.96
818.302	71.78
818.475	69.8
818.649	70.98
818.822	73.27
818.996	72.92
819.169	70.52
819.342	69.26
819.516	70.29
819.689	70.24
819.862	67.48
820.035	62.81
820.209	64.2
820.382	64.61
820.555	63.19
820.728	59.4
820.901	61.89
821.075	63.33
821.248	62.13
821.421	57.19
821.594	59.8
821.767	61.54
821.94	59.91
822.113	57.19
822.286	59.82
822.459	69.56
822.632	73.96
822.805	73.66
822.978	71.66
823.151	76.89
823.324	73.72
823.496	67.88
823.669	63.35
823.842	60.82
824.015	64.47
824.188	63.28
824.361	59.39
824.533	68.34
824.706	83.03
824.879	79.95
825.051	83.44
825.224	86.83
825.397	79.54
825.569	87.51
825.742	80.29
825.915	69.46
826.087	66.98
826.26	76.83
826.432	74.76
826.605	78.73
826.777	73.76
826.95	72.54
827.122	76.97
827.295	83.14
827.467	68.26
827.64	56.16
827.812	56.67
827.984	61.98
828.157	70.95
828.329	68.17
828.501	61.46
828.674	62.26
828.846	70.63
829.018	66.68
829.19	59.93
829.363	55.2
829.535	54.04
829.707	53.57
829.879	56.2
830.051	53.67
830.223	52.6
830.395	52.96
830.568	61.23
830.74	56.02
830.912	55.94
831.084	53.8
831.256	53.08
831.428	55.35
831.6	57.01
831.772	49.11
831.943	60.68
832.115	61.07
832.287	62.52
832.459	72.26
832.631	82.6
832.803	76.38
832.975	81.2
833.146	69.91
833.318	68.33
833.49	73.55
833.662	63.36
833.833	56.15
834.005	59.15
834.177	58.37
834.348	60.77
834.52	62.03
834.692	63.08
834.863	63.91
835.035	63.18
835.206	65.47
835.378	66.18
835.549	66.44
835.721	56.48
835.892	53.12
836.064	58.43
836.235	61.66
836.407	59.81
836.578	64.65
836.749	66.28
836.921	76.36
837.092	85.67
837.264	79.46
837.435	74.56
837.606	77.73
837.777	69.07
837.949	65.58
838.12	69.11
838.291	63.99
838.462	64.78
838.633	67.3
838.805	61.94
838.976	57.79
839.147	54.16
839.318	39.42
839.489	40.31
839.66	49.16
839.831	44.21
840.002	43.52
840.173	50.81
840.344	55.5
840.515	59.09
840.686	60.04
840.857	41.41
841.028	42.68
841.199	49.52
841.369	49.57
841.54	53.06
841.711	62.06
841.882	55.66
842.053	66.01
842.223	70.2
842.394	54.46
842.565	56.67
842.736	59.94
842.906	61.73
843.077	75.4
843.248	71.98
843.418	75.71
843.589	84.91
843.759	79.95
843.93	73.98
844.101	65.86
844.271	54.88
844.442	53.85
844.612	50.37
844.783	38.09
844.953	37.97
845.123	35.28
845.294	40.13
845.464	49.87
845.635	36.59
845.805	44.39
845.975	49.05
846.146	42.63
846.316	56.53
846.486	62.08
846.656	56.25
846.827	73.54
846.997	74.91
847.167	75.46
847.337	84.58
847.507	83.03
847.677	84
847.848	87.33
848.018	89.53
848.188	72.54
848.358	68.67
848.528	62.24
848.698	42.71
848.868	11.41
849.038	31.59
849.208	26.72
849.378	36.37
849.548	48.39
849.718	31.02
849.887	25.52
850.057	51.77
850.227	43.9
850.397	49.26
850.567	65.3
850.737	67.78
850.906	74.02
851.076	77.23
851.246	78.45
851.415	73.2
851.585	70.21
851.755	74.08
851.924	67.45
852.094	67.29
852.264	72.05
852.433	80.94
852.603	92.05
852.772	86.6
852.942	60.29
853.111	58.41
853.281	54.69
853.45	50.22
853.62	28.34
853.789	18.37
853.959	23.54
854.128	28.14
854.297	27.83
854.467	33.67
854.636	43.73
854.805	56.14
854.975	62.18
855.144	55.88
855.313	63.32
855.482	67.03
855.652	78.21
855.821	70.37
855.99	84.41
856.159	78.64
856.328	71
856.497	67.37
856.667	69.15
856.836	51.1
857.005	49.98
857.174	50.12
857.343	45.05
857.512	23.53
857.681	14.24
857.85	-4.6
858.019	7.86
858.188	1.02
858.356	-19.13
858.525	8.7
858.694	39.59
858.863	39.93
859.032	39.84
859.201	46.47
859.369	45.28
859.538	31.69
859.707	23.86
859.876	24.51
860.044	29.56
860.213	30.96
860.382	31.39
860.55	44.02
860.719	63.06
860.888	67.17
861.056	58.44
861.225	74.73
861.393	88.09
861.562	68.42
861.73	60.01
861.899	44.06
862.067	40.66
862.236	52
862.404	40.19
862.572	31.94
862.741	42.51
862.909	42.15
863.078	47.01
863.246	55.08
863.414	38.81
863.582	28.6
863.751	35.2
863.919	41.05
864.087	46.9
864.255	40.62
864.424	43.06
864.592	60.9
864.76	74.83
864.928	73.05
865.096	68.59
865.264	66.51
865.432	83.47
865.6	75.5
865.768	54.12
865.936	38.89
866.104	36.28
866.272	30.75
866.44	5.63
866.608	-16.23
866.776	20.64
866.944	35.75
867.112	44.01
867.28	24.45
867.448	49.74
867.615	66.44
867.783	49.27
867.951	37.01
868.119	49.64
868.286	46.56
868.454	60.4
868.622	32.89
868.789	46.08
868.957	63.92
869.125	61.2
869.292	55.55
869.46	60.41
869.627	61.06
869.795	75.37
869.963	52.03
870.13	51.07
870.298	37.6
870.465	22.14
870.632	16.26
870.8	10.21
870.967	6
871.135	19.06
871.302	11.69
871.469	18.86
871.637	23.26
871.804	30.52
871.971	31.54
872.139	30.65
872.306	29.84
872.473	36.97
872.64	49.5
872.807	44.23
872.975	52.19
873.142	31.85
873.309	33.37
873.476	49.3
873.643	51.28
873.81	5.62
873.977	15.57
874.144	-54.02
874.311	-46.74
874.478	-20
874.645	1.49
874.812	45.58
874.979	39.9
875.146	11.83
875.313	20.79
875.48	94.18
875.647	36.07
875.813	-21.09
875.98	-110.16
876.147	-27.47
876.314	-9.54
876.481	4.31
876.647	0.23
876.814	31.36
876.981	27.73
877.147	38.77
877.314	36.42
877.481	51.41
877.647	46.94
877.814	42.89
877.98	29.67
878.147	44.58
878.314	24.54
878.48	25.87
878.647	40.83
878.813	44.66
878.979	60.17
879.146	42.19
879.312	43.64
879.479	58.61
879.645	46.16
879.811	30.51
879.978	23.65
880.144	23.64
880.31	32.41
880.477	23.39
880.643	-43.22
880.809	58.54
880.975	-16.75
881.142	8.75
881.308	-15.33
881.474	37.86
881.64	-2.71
881.806	37.4
881.972	34.78
882.138	50.1
882.304	7.89
882.47	21.78
882.636	-23.18
882.802	-51.6
882.968	-177.87
883.134	-338.04
883.3	-136.79
883.466	-22.73
883.632	-52.73
883.798	-34.11
883.964	14.32
884.129	53.54
884.295	48.71
884.461	51.55
884.627	21.49
884.793	59.86
884.958	57.82
885.124	-3.78
885.29	-6.69
885.455	-25.59
885.621	-26.64
885.787	-19.15
885.952	-35.73
886.118	-45.22
886.283	2.31
886.449	-11.67
886.614	17.49
886.78	48.3
886.945	55.37
887.111	63.77
887.276	52.44
887.442	24.22
887.607	18.72
887.773	1.01
887.938	-10.11
888.103	-0.59
888.269	17
888.434	13.53
888.599	28.08
888.764	31.82
888.93	40.1
889.095	43.75
889.26	94.15
889.425	86.07
889.59	60.86
889.756	67.64
889.921	58.48
890.086	71.92
890.251	46.57
890.416	-31.57
890.581	-31.75
890.746	7.55
890.911	-16.47
891.076	-2.73
891.241	-27.07
891.406	24.28
891.571	42.88
891.736	39.22
891.901	46.04
892.065	51.82
892.23	27.3
892.395	12.93
892.56	17.47
892.725	15.57
892.889	-13.24
893.054	-55.08
893.219	-62.46
893.384	-53
893.548	-103.33
893.713	322.77
893.878	178.26
