Data from Ofra_PS_T2_1A_1GT43_Reflection_2.txt Node
Date: Wed Jul 21 17:49:41 EDT 2021
User: Adam
Spectrometer: FLMT01687
Trigger mode: 0
Integration Time (sec): 1.100000E0
Scans to average: 2
Electric dark correction enabled: true
Nonlinearity correction enabled: false
Boxcar width: 2
XAxis mode: Wavelengths
Number of Pixels in Spectrum: 3648
>>>>>Begin Spectral Data<<<<<
179.494	783.8
179.716	839.53
179.937	801.36
180.158	773.19
180.38	1117.34
180.601	424.17
180.823	141.88
181.044	-28.55
181.265	178.49
181.486	152.75
181.708	152.37
181.929	1217.86
182.15	-358.8
182.372	142.99
182.593	119.25
182.814	43.93
183.035	137.26
183.257	53.16
183.478	-48.46
183.699	15.61
183.92	0.04
184.141	-52.36
184.363	-104.69
184.584	-0.35
184.805	10.81
185.026	51.58
185.247	56.93
185.468	29.93
185.689	8.43
185.91	12.19
186.132	7.19
186.353	11.7
186.574	88.22
186.795	75.28
187.016	3.93
187.237	-0.54
187.458	-12.18
187.679	-20.92
187.9	-18.2
188.121	5.86
188.342	33.28
188.563	53.26
188.784	102.71
189.005	123.6
189.226	181.65
189.447	146.69
189.667	170.51
189.888	-209.73
190.109	-1098.38
190.33	-580.48
190.551	-944.91
190.772	-164.1
190.993	-96.6
191.214	-128.33
191.434	-103.77
191.655	-63.28
191.876	-172.07
192.097	-218.14
192.318	-265.52
192.538	-406.38
192.759	-246.51
192.98	-118.36
193.201	-62.36
193.421	-22.75
193.642	-2.55
193.863	20.28
194.083	16.6
194.304	-2.7
194.525	-1.2
194.745	-9.4
194.966	-23.12
195.187	-49.89
195.407	-46.77
195.628	-89.92
195.848	-88.14
196.069	-130.79
196.29	-50.64
196.51	-71.38
196.731	-76.93
196.951	-75.24
197.172	-104.49
197.392	-160.75
197.613	-134.1
197.833	-163.91
198.054	-179.08
198.274	-95.99
198.495	-111.78
198.715	-73.26
198.936	-76.63
199.156	-42.68
199.377	-115.27
199.597	-91.26
199.817	-124.25
200.038	-63
200.258	-107.65
200.479	-59.89
200.699	-17.45
200.919	35.99
201.14	-11.75
201.36	-21.72
201.58	15.96
201.801	31.88
202.021	-6.82
202.241	-3.79
202.461	-1.91
202.682	-83.4
202.902	-144.38
203.122	-79.99
203.342	-50.48
203.563	-0.93
203.783	25.91
204.003	-9.35
204.223	3.54
204.443	42.18
204.663	6.88
204.884	26.64
205.104	63.46
205.324	109.29
205.544	92.85
205.764	82.78
205.984	74.33
206.204	72.64
206.424	42.68
206.644	15.54
206.864	25.9
207.084	-15.1
207.304	-3.96
207.525	-123.67
207.745	-40.48
207.964	16.35
208.184	-29.29
208.404	-72.64
208.624	-54.52
208.844	-23.57
209.064	-290.26
209.284	-278.95
209.504	-109.71
209.724	3.93
209.944	-5.74
210.164	34.4
210.384	36.12
210.604	32.58
210.823	-20.1
211.043	-52.93
211.263	-39.84
211.483	-43.74
211.703	-105.71
211.922	-87.14
212.142	-20.69
212.362	-38.87
212.582	-36.72
212.801	-28.13
213.021	-52.8
213.241	-68.31
213.461	-80.89
213.68	-108.06
213.9	-53.03
214.12	-10.27
214.339	-79.24
214.559	-71.79
214.779	1.35
214.998	-21.97
215.218	-79.88
215.438	-39.11
215.657	-54.88
215.877	-84.97
216.096	-38.34
216.316	-0.2
216.535	-13.57
216.755	-2.26
216.974	-50.91
217.194	-105.9
217.413	-157.31
217.633	-132.26
217.852	-226.25
218.072	-116.16
218.291	-67.53
218.511	-7.23
218.73	-23.99
218.95	-15.26
219.169	-20.73
219.389	-66.02
219.608	-60.92
219.827	-63.97
220.047	-60.51
220.266	-37.1
220.485	-22.68
220.705	-10.05
220.924	-24.56
221.143	7.54
221.363	-9.17
221.582	15.5
221.801	11.93
222.021	28.64
222.24	-32.65
222.459	10.89
222.678	-29.21
222.897	-85.4
223.117	-116.99
223.336	-48.85
223.555	-32.98
223.774	2.88
223.993	20.7
224.213	76.58
224.432	29.15
224.651	48.33
224.87	16.23
225.089	36.29
225.308	45.75
225.527	61.86
225.746	47.09
225.965	44.28
226.184	32.4
226.404	3.91
226.623	-17.2
226.842	4.92
227.061	39.97
227.28	33.44
227.499	16.66
227.718	33.21
227.936	18.13
228.155	-6.83
228.374	-24.67
228.593	12.88
228.812	6.12
229.031	-1.44
229.25	-49
229.469	-46.65
229.688	-65.81
229.907	-41.11
230.125	-10.13
230.344	8.01
230.563	16.5
230.782	30.8
231.001	-41.53
231.22	-53.87
231.438	-5.1
231.657	-6.76
231.876	-12.32
232.095	38.89
232.313	52.22
232.532	10.68
232.751	-17.02
232.969	-39.6
233.188	-108.64
233.407	-25.09
233.625	-25.57
233.844	-37.21
234.063	-20
234.281	7.86
234.5	-28.83
234.719	-5.28
234.937	32.5
235.156	26.87
235.374	7.41
235.593	10.48
235.811	4.12
236.03	-28.32
236.249	-36.79
236.467	-12.16
236.686	4.39
236.904	14.58
237.123	6.07
237.341	5.14
237.559	4.29
237.778	-8.22
237.996	-26.3
238.215	10.33
238.433	9.92
238.652	4.4
238.87	-9.15
239.088	5.45
239.307	-6.13
239.525	-15
239.743	-33.63
239.962	-23
240.18	-62.07
240.398	-120.09
240.617	-128.18
240.835	-119.63
241.053	-96.07
241.271	-24.7
241.49	10.03
241.708	4.69
241.926	9.27
242.144	1.83
242.363	-74.26
242.581	-89.04
242.799	-37.31
243.017	-23.45
243.235	-41.04
243.453	-17.11
243.672	-18.98
243.89	-20.12
244.108	-26.08
244.326	-6.93
244.544	-15.85
244.762	-5.26
244.98	-1.48
245.198	14.55
245.416	-9.65
245.634	-10.41
245.852	-22.3
246.07	-21.43
246.288	-22.93
246.506	-35.01
246.724	6.72
246.942	-10.4
247.16	15.7
247.378	22.48
247.596	47.76
247.814	52.7
248.032	43.68
248.25	36.76
248.468	42.99
248.685	50.78
248.903	59.66
249.121	62.41
249.339	33.83
249.557	2.21
249.775	9.47
249.992	-60.28
250.21	-60.88
250.428	-37.42
250.646	-53.41
250.863	-85.03
251.081	-59.57
251.299	-28.72
251.517	-20.22
251.734	-6.16
251.952	-14.06
252.17	-4.49
252.387	-2.39
252.605	-14.36
252.823	-5.08
253.04	22.93
253.258	54.68
253.475	52.28
253.693	70.51
253.911	73.42
254.128	85.18
254.346	77.5
254.563	45.55
254.781	15.65
254.998	-26.65
255.216	-49.76
255.433	-33.18
255.651	30.22
255.868	70.29
256.086	100.79
256.303	90.43
256.521	56.78
256.738	17.03
256.956	-12.07
257.173	-41.66
257.39	-59.94
257.608	-73.17
257.825	-2.03
258.043	37.94
258.26	58
258.477	97.45
258.695	85.84
258.912	30.69
259.129	32.47
259.346	-11.1
259.564	-57.34
259.781	-72.09
259.998	-10.81
260.216	6.91
260.433	43.16
260.65	48.61
260.867	76.2
261.084	48.88
261.302	11.21
261.519	0.82
261.736	-34.18
261.953	-58.49
262.17	-16.88
262.387	-19.19
262.604	-63.34
262.822	-58.57
263.039	-43.57
263.256	-100.71
263.473	-63.44
263.69	-18.76
263.907	26.57
264.124	30.41
264.341	32.95
264.558	21.33
264.775	28.51
264.992	11.81
265.209	8.63
265.426	37.42
265.643	42.05
265.86	37.4
266.077	39.29
266.294	36.89
266.51	-8.06
266.727	-38.42
266.944	-6.65
267.161	-17.97
267.378	-23.15
267.595	9.24
267.812	-11.36
268.028	-49.15
268.245	-48.34
268.462	-65.53
268.679	-80.17
268.896	-8.45
269.112	10.81
269.329	10.06
269.546	23.86
269.763	12.79
269.979	-7.15
270.196	-15.5
270.413	-47.65
270.629	-63.11
270.846	-63.55
271.063	-54.12
271.279	-84.05
271.496	-65.63
271.712	-3.86
271.929	32.15
272.146	13.33
272.362	41.2
272.579	72.9
272.795	65.76
273.012	65.43
273.228	72.92
273.445	40.05
273.661	14.86
273.878	-55
274.094	-57.87
274.311	-80.15
274.527	-10.01
274.744	-3.03
274.96	2.01
275.177	2.49
275.393	22.38
275.609	19.77
275.826	31.3
276.042	24.86
276.259	7.86
276.475	15.36
276.691	25.66
276.908	0.95
277.124	25.75
277.34	28
277.557	11.45
277.773	-13.26
277.989	-10.28
278.205	-24.01
278.422	2.1
278.638	17.46
278.854	49.7
279.07	44.88
279.286	43.37
279.503	7.83
279.719	-15.67
279.935	-49.69
280.151	-50.14
280.367	-21.13
280.583	-29.77
280.799	-27.46
281.016	-54.62
281.232	-15.5
281.448	-21.87
281.664	0.53
281.88	-35.04
282.096	-22.9
282.312	9.28
282.528	19.74
282.744	32.52
282.96	36.01
283.176	29.34
283.392	-1.25
283.608	-7.4
283.824	-19.5
284.04	-18.46
284.256	-8.83
284.471	-13.26
284.687	-28.86
284.903	-1.12
285.119	31.55
285.335	8.46
285.551	26.19
285.767	24.98
285.982	8.93
286.198	-24.33
286.414	33.78
286.63	31.81
286.846	45.9
287.061	23.67
287.277	60.55
287.493	24.99
287.709	40.31
287.924	31.75
288.14	66.01
288.356	55.6
288.571	76.43
288.787	47.54
289.003	47.4
289.218	15.7
289.434	-15.96
289.65	-10.12
289.865	-13.84
290.081	18.34
290.296	36.74
290.512	28.23
290.727	-4.08
290.943	-4.65
291.159	-32.03
291.374	-30.27
291.59	-47.45
291.805	-29.48
292.021	-25.08
292.236	-27.49
292.451	-14.46
292.667	4.26
292.882	27.26
293.098	43.01
293.313	47.85
293.529	27.08
293.744	-1.62
293.959	-42.65
294.175	-40.01
294.39	-8.69
294.605	7.96
294.821	42.58
295.036	61.25
295.251	59.57
295.467	22.8
295.682	17.65
295.897	-44.28
296.112	-56.85
296.328	-53.03
296.543	-46.45
296.758	-32.79
296.973	23.08
297.188	35.49
297.404	19.36
297.619	18.46
297.834	-15.7
298.049	-25.26
298.264	-45.26
298.479	11.3
298.694	15.65
298.909	40.78
299.125	27.95
299.34	34.98
299.555	2.29
299.77	33.11
299.985	-16.04
300.2	-45.67
300.415	-80.82
300.63	-35.55
300.845	-48.7
301.06	-43.79
301.275	-20.28
301.49	18.34
301.704	0.01
301.919	-37.57
302.134	-40.04
302.349	-27.48
302.564	-101.95
302.779	-131.27
302.994	-65.32
303.209	-20.29
303.423	-16.2
303.638	55.3
303.853	7.34
304.068	-9.25
304.283	-3.79
304.497	-15.13
304.712	-47.64
304.927	-23.43
305.142	-23.11
305.356	-23.37
305.571	-14.72
305.786	-11.95
306	-12.78
306.215	-10.85
306.43	-35.14
306.644	-15.08
306.859	19.98
307.074	27.7
307.288	16.11
307.503	17.89
307.717	-11.95
307.932	-3
308.147	-21.36
308.361	5.07
308.576	4.97
308.79	-20.83
309.005	-24.16
309.219	-1.65
309.434	-18.8
309.648	-22.98
309.863	-0.14
310.077	-7.56
310.292	-18.19
310.506	-7.07
310.72	0.89
310.935	4.35
311.149	7.44
311.364	28.48
311.578	35.35
311.792	35.3
312.007	40.27
312.221	32.4
312.435	36.04
312.649	16.19
312.864	66.95
313.078	70.05
313.292	121.56
313.507	71.16
313.721	107.09
313.935	29.51
314.149	16.69
314.363	0.01
314.578	10.21
314.792	17.52
315.006	5.05
315.22	26.93
315.434	42.08
315.648	59.44
315.862	45.4
316.077	44.93
316.291	29.63
316.505	43.4
316.719	8.48
316.933	11.67
317.147	13.08
317.361	-44.78
317.575	-93.88
317.789	-124.18
318.003	-203.28
318.217	-162.73
318.431	-56.95
318.645	5.25
318.859	0.79
319.073	33.57
319.287	29.73
319.5	2.27
319.714	-45.91
319.928	-56.29
320.142	-97.85
320.356	-26.94
320.57	-1.28
320.784	-6.81
320.997	-20.06
321.211	9.46
321.425	-68.15
321.639	-115.56
321.853	-57.64
322.066	-24.48
322.28	-35.58
322.494	-35.09
322.707	6.73
322.921	1.41
323.135	-0.93
323.349	12.85
323.562	-3.5
323.776	-26.89
323.989	-35.65
324.203	-68.15
324.417	-76.1
324.63	-82.29
324.844	-78.04
325.057	-66.97
325.271	-31.21
325.485	-5.15
325.698	25.82
325.912	58.87
326.125	34.59
326.339	25.14
326.552	25.43
326.766	7.64
326.979	5.82
327.193	52.17
327.406	56.28
327.619	42.25
327.833	77.41
328.046	48.03
328.26	15.46
328.473	23.63
328.686	-4.94
328.9	-37.56
329.113	-22.2
329.326	-27.55
329.54	-17.16
329.753	-9.72
329.966	-35.95
330.179	-26.9
330.393	-21.05
330.606	-20.24
330.819	-4.6
331.032	6.79
331.246	1.17
331.459	28.58
331.672	28.43
331.885	24.82
332.098	5.03
332.311	17.71
332.525	-48.76
332.738	-33.42
332.951	-5.43
333.164	18.27
333.377	8.75
333.59	38.72
333.803	43.98
334.016	38.63
334.229	41.69
334.442	70.74
334.655	95.81
334.868	77.89
335.081	56.9
335.294	38.51
335.507	18.39
335.72	-14.48
335.933	-35.84
336.146	-44.12
336.359	-18
336.572	-48.59
336.785	-61.32
336.997	-32.61
337.21	-3.33
337.423	-25.26
337.636	-8.6
337.849	6.36
338.062	-14.52
338.274	-9.62
338.487	-15.19
338.7	-16.69
338.913	-61.32
339.125	-72.66
339.338	-129.38
339.551	-95.55
339.763	-61.49
339.976	-13.85
340.189	6.41
340.402	32.86
340.614	21.27
340.827	8.16
341.039	-10.54
341.252	-12.73
341.465	-4.69
341.677	-3.78
341.89	-26.84
342.102	-1.2
342.315	-0.92
342.527	-36.57
342.74	-33.68
342.952	1.24
343.165	7.45
343.377	33.98
343.59	30.9
343.802	45.44
344.015	53.45
344.227	63.29
344.44	41.48
344.652	34.67
344.864	9.05
345.077	24.23
345.289	17.76
345.502	22.36
345.714	23.67
345.926	35.52
346.139	27.84
346.351	35.85
346.563	46.44
346.775	47.72
346.988	37.65
347.2	12.66
347.412	-32.65
347.624	-70.17
347.837	-79.77
348.049	-58.7
348.261	-6.13
348.473	-2.59
348.685	-4.61
348.897	-29.32
349.11	-44.53
349.322	-104.44
349.534	-66.32
349.746	-54.07
349.958	-17.77
350.17	-0.89
350.382	25.12
350.594	12.85
350.806	18.83
351.018	25.33
351.23	7.28
351.442	-37.15
351.654	-35.49
351.866	-42.94
352.078	-39.54
352.29	-14.02
352.502	10.09
352.714	16.54
352.926	3.28
353.138	-3.35
353.35	-15.32
353.561	-15.98
353.773	-32.98
353.985	-14.16
354.197	-23.4
354.409	-22.66
354.621	-28.24
354.832	-15.27
355.044	-24.7
355.256	-25.52
355.468	-10.06
355.679	-13.4
355.891	-3.61
356.103	-9.6
356.314	8.64
356.526	12.16
356.738	35.05
356.949	27.86
357.161	25.61
357.373	13.23
357.584	-8.91
357.796	-4.82
358.008	-1.05
358.219	26.78
358.431	28.19
358.642	31.35
358.854	21.71
359.065	-3.79
359.277	-50.27
359.488	-60.15
359.7	-63.38
359.911	-81.39
360.123	-39.04
360.334	-54.59
360.546	-65.01
360.757	-63.93
360.969	-25.49
361.18	-28.24
361.391	22.77
361.603	9.18
361.814	16.91
362.025	-11.48
362.237	-17.2
362.448	-17.43
362.659	9.93
362.871	8.25
363.082	10.42
363.293	6.51
363.504	-1.87
363.716	-26.07
363.927	-27.13
364.138	-42.48
364.349	-50.94
364.56	-52.71
364.772	-40.7
364.983	-20.07
365.194	-11.34
365.405	10.79
365.616	37.97
365.827	39.78
366.038	23.97
366.25	14
366.461	-27.76
366.672	-27.65
366.883	-7.03
367.094	6.36
367.305	5.94
367.516	15.99
367.727	-14.77
367.938	-32.25
368.149	-39.18
368.36	-19.5
368.571	-13.24
368.781	-19.87
368.992	-25.53
369.203	-42.26
369.414	-76.39
369.625	-80.14
369.836	-69.55
370.047	-92.38
370.258	-60.78
370.468	-61.03
370.679	-79.91
370.89	-61.94
371.101	-37.93
371.312	-45.55
371.522	-25.51
371.733	-14.24
371.944	-12.85
372.155	-0.52
372.365	-11.64
372.576	-8.93
372.787	-4.44
372.997	-27.05
373.208	-28.84
373.419	6.35
373.629	-27.43
373.84	-25.48
374.05	-29.66
374.261	-10.13
374.472	-47.5
374.682	1.22
374.893	-7.09
375.103	38.4
375.314	17.54
375.524	26.97
375.735	27.82
375.945	40.43
376.156	-1.06
376.366	6.31
376.577	7.2
376.787	-5.45
376.997	2.15
377.208	11.21
377.418	-8.8
377.629	-2.83
377.839	-9.54
378.049	-18.6
378.26	0.67
378.47	15.06
378.68	4.67
378.89	7.5
379.101	-0.96
379.311	-39.11
379.521	-81.12
379.732	-84.42
379.942	-76.96
380.152	-82.79
380.362	-34.67
380.572	-17.22
380.783	1.76
380.993	13.62
381.203	27.4
381.413	37.7
381.623	47.34
381.833	43.37
382.043	28.62
382.253	14.4
382.463	2.96
382.674	-10.84
382.884	-39.19
383.094	-37.12
383.304	-25.99
383.514	-22.61
383.724	-5.31
383.934	-4.34
384.144	-10.61
384.353	-27.12
384.563	-31.05
384.773	-26.33
384.983	-27.11
385.193	-7.27
385.403	5
385.613	11.24
385.823	-10.76
386.033	-4.34
386.242	-14.86
386.452	-15.99
386.662	-24.73
386.872	-4.5
387.082	-9.72
387.291	-16.42
387.501	-19.24
387.711	-5.77
387.921	-17.76
388.13	-13.39
388.34	2.26
388.55	2.1
388.759	-5.84
388.969	2.38
389.179	-1.63
389.388	-2.68
389.598	6.27
389.807	2.27
390.017	-3.58
390.227	-0.63
390.436	-6.31
390.646	-10.59
390.855	-5.27
391.065	-3.24
391.274	-5.22
391.484	-6.03
391.693	-3.48
391.903	-2.01
392.112	4.51
392.322	7.96
392.531	11.18
392.74	11.43
392.95	6.83
393.159	3.49
393.369	2.57
393.578	2.6
393.787	0.14
393.997	1.68
394.206	0.36
394.415	0.27
394.625	-0.59
394.834	-1.79
395.043	-0.75
395.252	2.7
395.462	4.36
395.671	5.04
395.88	6.55
396.089	8.5
396.298	5.87
396.508	5.67
396.717	5.83
396.926	5.94
397.135	4.81
397.344	5
397.553	5.59
397.762	7.38
397.971	7.77
398.181	7.49
398.39	7.14
398.599	6.59
398.808	5.84
399.017	6.55
399.226	8.21
399.435	9.66
399.644	10.22
399.853	9.21
400.062	8.51
400.27	7.54
400.479	6.71
400.688	5.46
400.897	5.78
401.106	6.06
401.315	5.85
401.524	6.07
401.733	7.25
401.941	7.86
402.15	7.82
402.359	7.62
402.568	7.83
402.777	7.63
402.985	7.18
403.194	7.03
403.403	7.18
403.612	6.87
403.82	6.61
404.029	6.67
404.238	6.67
404.446	7.06
404.655	6.81
404.864	6.68
405.072	6.63
405.281	6.78
405.489	6.32
405.698	6.42
405.906	6.53
406.115	6.37
406.324	6.27
406.532	6.49
406.741	6.75
406.949	6.77
407.158	6.81
407.366	6.77
407.574	6.62
407.783	6.56
407.991	6.14
408.2	6.26
408.408	6.11
408.617	6.07
408.825	5.75
409.033	6.14
409.242	6.23
409.45	6.35
409.658	6.33
409.867	6.59
410.075	6.4
410.283	6.11
410.491	6.15
410.7	5.94
410.908	5.99
411.116	6.29
411.324	6.4
411.533	6.24
411.741	6.5
411.949	6.44
412.157	6.08
412.365	6.13
412.573	6.13
412.781	6.19
412.99	5.9
413.198	6.11
413.406	6.06
413.614	6.19
413.822	5.98
414.03	5.95
414.238	5.72
414.446	5.7
414.654	5.28
414.862	5.46
415.07	5.7
415.278	5.99
415.486	5.81
415.694	6.04
415.902	5.79
416.109	5.52
416.317	5.37
416.525	5.22
416.733	5.22
416.941	5.34
417.149	5.41
417.357	5.53
417.564	5.89
417.772	6.12
417.98	6.01
418.188	6.1
418.395	5.97
418.603	6.03
418.811	5.68
419.019	5.65
419.226	5.87
419.434	5.96
419.642	5.7
419.849	5.88
420.057	5.88
420.265	5.64
420.472	5.35
420.68	5.34
420.887	5.12
421.095	5.26
421.302	5.22
421.51	5.55
421.717	5.63
421.925	5.77
422.132	5.52
422.34	5.28
422.547	5.25
422.755	5.18
422.962	5.08
423.17	5.11
423.377	5.35
423.585	5.15
423.792	5.06
423.999	5.17
424.207	5.07
424.414	5.17
424.621	5.27
424.829	5.23
425.036	5.22
425.243	5.35
425.451	5.2
425.658	4.9
425.865	5.19
426.072	5.18
426.28	5.54
426.487	5.54
426.694	5.89
426.901	5.64
427.108	5.57
427.315	5.33
427.523	5.55
427.73	5.35
427.937	5.23
428.144	5.05
428.351	4.78
428.558	4.85
428.765	4.81
428.972	4.88
429.179	5.28
429.386	5.79
429.593	5.52
429.8	5.51
430.007	5.73
430.214	5.7
430.421	5.42
430.628	5.21
430.835	5.23
431.042	5.38
431.249	5.43
431.456	5.41
431.662	5.71
431.869	5.87
432.076	5.68
432.283	5.64
432.49	5.64
432.697	5.58
432.903	5.3
433.11	5.34
433.317	5.48
433.524	5.79
433.73	5.72
433.937	6.03
434.144	5.85
434.35	5.71
434.557	5.52
434.764	5.52
434.97	5.4
435.177	5.65
435.384	5.52
435.59	5.65
435.797	5.93
436.003	6.03
436.21	5.98
436.416	6.17
436.623	6.13
436.829	6.09
437.036	6.23
437.242	6.26
437.449	6.21
437.655	6.16
437.862	6.13
438.068	5.91
438.275	6.01
438.481	6.19
438.687	6.24
438.894	6.27
439.1	6.42
439.307	6.6
439.513	6.4
439.719	6.45
439.926	6.45
440.132	6.37
440.338	6.12
440.544	6.38
440.751	6.26
440.957	6.35
441.163	6.24
441.369	6.33
441.575	5.99
441.782	6
441.988	5.85
442.194	5.99
442.4	5.9
442.606	6.24
442.812	6.33
443.018	6.41
443.224	6.5
443.431	6.67
443.637	6.47
443.843	6.43
444.049	6.49
444.255	6.49
444.461	6.5
444.667	6.5
444.873	6.59
445.079	6.51
445.284	6.55
445.49	6.32
445.696	6.21
445.902	6.08
446.108	6.07
446.314	5.98
446.52	6.05
446.726	6.34
446.931	6.52
447.137	6.58
447.343	6.57
447.549	6.49
447.755	6.29
447.96	6.27
448.166	6.22
448.372	6.2
448.578	6.37
448.783	6.42
448.989	6.41
449.195	6.62
449.4	6.63
449.606	6.57
449.812	6.51
450.017	6.57
450.223	6.44
450.428	6.36
450.634	6.5
450.84	6.72
451.045	6.64
451.251	6.49
451.456	6.76
451.662	6.78
451.867	6.78
452.073	6.75
452.278	6.95
452.483	7.08
452.689	6.89
452.894	6.9
453.1	6.97
453.305	6.86
453.51	6.73
453.716	6.8
453.921	6.76
454.127	6.71
454.332	6.67
454.537	6.52
454.742	6.58
454.948	6.61
455.153	6.66
455.358	6.76
455.563	7.04
455.769	7.09
455.974	7.04
456.179	6.95
456.384	6.99
456.589	6.82
456.795	6.61
457	6.54
457.205	6.82
457.41	6.71
457.615	6.71
457.82	6.84
458.025	6.86
458.23	6.59
458.435	6.69
458.64	6.58
458.845	6.72
459.05	6.78
459.255	6.9
459.46	6.92
459.665	7.01
459.87	7.01
460.075	6.96
460.28	6.98
460.485	7.03
460.69	7.01
460.895	6.89
461.099	6.94
461.304	7.02
461.509	6.97
461.714	6.93
461.919	7.03
462.123	6.9
462.328	6.97
462.533	6.93
462.738	7.15
462.942	7.12
463.147	7.32
463.352	7.3
463.556	7.31
463.761	7.29
463.966	7.25
464.17	7.26
464.375	7.15
464.58	7.17
464.784	7.02
464.989	7.07
465.193	7
465.398	6.98
465.602	7.18
465.807	7.22
466.011	7.24
466.216	7.3
466.42	7.44
466.625	7.38
466.829	7.47
467.034	7.55
467.238	7.76
467.443	7.7
467.647	7.6
467.851	7.68
468.056	7.73
468.26	7.56
468.464	7.61
468.669	7.76
468.873	7.87
469.077	7.78
469.282	7.81
469.486	7.88
469.69	7.88
469.894	7.7
470.099	7.83
470.303	7.97
470.507	7.82
470.711	7.72
470.915	7.71
471.119	7.56
471.324	7.45
471.528	7.51
471.732	7.61
471.936	7.63
472.14	7.75
472.344	7.81
472.548	7.92
472.752	8.09
472.956	8.37
473.16	8.28
473.364	8.19
473.568	8.07
473.772	8.05
473.976	7.85
474.18	7.83
474.384	7.95
474.588	7.94
474.792	7.78
474.995	7.85
475.199	8.03
475.403	8.11
475.607	8.17
475.811	8.21
476.015	8.3
476.218	8.32
476.422	8.13
476.626	8.22
476.83	8.33
477.033	8.3
477.237	8.15
477.441	8.28
477.644	8.26
477.848	8.21
478.052	8.1
478.255	8.19
478.459	8.14
478.663	8.24
478.866	8.25
479.07	8.32
479.273	8.51
479.477	8.6
479.681	8.6
479.884	8.63
480.088	8.54
480.291	8.38
480.495	8.36
480.698	8.34
480.901	8.4
481.105	8.63
481.308	8.68
481.512	8.64
481.715	8.71
481.919	8.73
482.122	8.68
482.325	8.68
482.529	8.72
482.732	8.68
482.935	8.52
483.138	8.38
483.342	8.37
483.545	8.46
483.748	8.47
483.952	8.6
484.155	8.77
484.358	8.84
484.561	8.73
484.764	8.74
484.967	8.88
485.171	8.9
485.374	8.87
485.577	8.97
485.78	8.98
485.983	8.87
486.186	8.76
486.389	8.73
486.592	8.74
486.795	8.74
486.998	8.68
487.201	8.76
487.404	8.86
487.607	8.89
487.81	8.95
488.013	9.1
488.216	9.1
488.419	9.01
488.622	8.97
488.825	8.86
489.028	8.71
489.231	8.64
489.433	8.58
489.636	8.44
489.839	8.49
490.042	8.47
490.245	8.46
490.447	8.53
490.65	8.61
490.853	8.61
491.056	8.68
491.258	8.71
491.461	8.71
491.664	8.84
491.866	8.78
492.069	8.87
492.272	8.87
492.474	8.92
492.677	8.89
492.879	8.94
493.082	8.98
493.285	9.07
493.487	9.03
493.69	8.92
493.892	8.86
494.095	8.77
494.297	8.68
494.5	8.71
494.702	8.75
494.905	8.86
495.107	8.81
495.309	8.86
495.512	8.98
495.714	9.04
495.917	9.06
496.119	9.08
496.321	9.16
496.524	9.09
496.726	9.08
496.928	9.03
497.13	9.03
497.333	8.97
497.535	8.98
497.737	8.96
497.939	8.98
498.142	9.05
498.344	9.06
498.546	9
498.748	9.07
498.95	9.24
499.152	9.16
499.355	9.2
499.557	9.32
499.759	9.43
499.961	9.34
500.163	9.41
500.365	9.37
500.567	9.43
500.769	9.24
500.971	9.24
501.173	9.2
501.375	9.33
501.577	9.2
501.779	9.22
501.981	9.25
502.183	9.29
502.385	9.23
502.587	9.24
502.788	9.33
502.99	9.36
503.192	9.42
503.394	9.42
503.596	9.47
503.798	9.52
503.999	9.58
504.201	9.5
504.403	9.56
504.605	9.64
504.806	9.57
505.008	9.52
505.21	9.65
505.411	9.65
505.613	9.61
505.815	9.66
506.016	9.76
506.218	9.8
506.42	9.79
506.621	9.82
506.823	9.83
507.024	9.78
507.226	9.77
507.427	9.76
507.629	9.84
507.83	9.94
508.032	9.97
508.233	10.04
508.435	10.13
508.636	10.13
508.838	10.05
509.039	10.09
509.24	10.05
509.442	10.09
509.643	10.01
509.845	10.02
510.046	10.06
510.247	10.13
510.448	10.08
510.65	10.14
510.851	10.27
511.052	10.28
511.254	10.24
511.455	10.4
511.656	10.52
511.857	10.62
512.058	10.62
512.26	10.67
512.461	10.62
512.662	10.59
512.863	10.46
513.064	10.41
513.265	10.42
513.466	10.46
513.667	10.44
513.868	10.43
514.069	10.57
514.27	10.61
514.471	10.6
514.672	10.62
514.873	10.65
515.074	10.65
515.275	10.55
515.476	10.55
515.677	10.55
515.878	10.72
516.079	10.68
516.28	10.74
516.481	10.85
516.682	10.96
516.882	10.8
517.083	10.82
517.284	10.79
517.485	10.7
517.686	10.67
517.886	10.71
518.087	10.68
518.288	10.76
518.488	10.77
518.689	10.76
518.89	10.76
519.091	10.82
519.291	10.77
519.492	10.84
519.692	10.88
519.893	10.9
520.094	10.92
520.294	10.95
520.495	10.92
520.695	10.95
520.896	10.95
521.096	10.96
521.297	11.03
521.497	11.02
521.698	10.97
521.898	10.96
522.099	11.01
522.299	11.05
522.499	11.11
522.7	11.18
522.9	11.19
523.101	11.26
523.301	11.26
523.501	11.21
523.702	11.19
523.902	11.3
524.102	11.32
524.302	11.29
524.503	11.43
524.703	11.44
524.903	11.44
525.103	11.36
525.304	11.46
525.504	11.44
525.704	11.52
525.904	11.52
526.104	11.49
526.304	11.46
526.504	11.45
526.705	11.39
526.905	11.42
527.105	11.53
527.305	11.56
527.505	11.49
527.705	11.51
527.905	11.57
528.105	11.56
528.305	11.49
528.505	11.58
528.705	11.68
528.905	11.62
529.105	11.62
529.304	11.68
529.504	11.76
529.704	11.66
529.904	11.67
530.104	11.67
530.304	11.78
530.503	11.7
530.703	11.68
530.903	11.75
531.103	11.81
531.303	11.69
531.502	11.73
531.702	11.87
531.902	11.86
532.101	11.83
532.301	11.87
532.501	11.87
532.7	11.84
532.9	11.87
533.1	11.91
533.299	12.01
533.499	12.09
533.698	12.06
533.898	12.08
534.097	12.08
534.297	12.11
534.496	12.1
534.696	12.12
534.895	12.21
535.095	12.36
535.294	12.32
535.494	12.29
535.693	12.34
535.892	12.32
536.092	12.21
536.291	12.18
536.491	12.33
536.69	12.43
536.889	12.39
537.088	12.41
537.288	12.53
537.487	12.57
537.686	12.56
537.886	12.65
538.085	12.73
538.284	12.82
538.483	12.78
538.682	12.83
538.882	12.89
539.081	12.96
539.28	12.88
539.479	12.9
539.678	12.92
539.877	12.98
540.076	12.96
540.275	13
540.474	13.08
540.673	13.1
540.872	13.11
541.071	13.17
541.27	13.18
541.469	13.24
541.668	13.32
541.867	13.32
542.066	13.36
542.265	13.51
542.464	13.53
542.663	13.51
542.862	13.72
543.06	13.82
543.259	13.82
543.458	13.89
543.657	13.95
543.856	13.9
544.054	13.87
544.253	13.96
544.452	13.88
544.651	13.95
544.849	13.87
545.048	13.94
545.247	13.97
545.445	14.08
545.644	14.13
545.843	14.24
546.041	14.31
546.24	14.4
546.438	14.51
546.637	14.53
546.836	14.66
547.034	14.69
547.233	14.71
547.431	14.71
547.63	14.82
547.828	14.84
548.027	14.92
548.225	14.9
548.423	14.97
548.622	15.1
548.82	15.14
549.019	15.23
549.217	15.4
549.415	15.47
549.614	15.49
549.812	15.52
550.01	15.55
550.209	15.54
550.407	15.58
550.605	15.56
550.803	15.71
551.002	15.76
551.2	15.88
551.398	16.02
551.596	16.18
551.794	16.31
551.993	16.38
552.191	16.48
552.389	16.61
552.587	16.71
552.785	16.72
552.983	16.83
553.181	16.97
553.379	16.99
553.577	17.07
553.775	17.16
553.973	17.26
554.171	17.42
554.369	17.44
554.567	17.49
554.765	17.62
554.963	17.71
555.161	17.58
555.359	17.78
555.557	17.9
555.755	17.91
555.952	18.05
556.15	18.21
556.348	18.29
556.546	18.4
556.744	18.49
556.941	18.53
557.139	18.68
557.337	18.72
557.535	18.79
557.732	18.88
557.93	19.06
558.128	19.1
558.325	19.24
558.523	19.37
558.721	19.59
558.918	19.61
559.116	19.76
559.313	19.77
559.511	19.93
559.708	19.9
559.906	19.98
560.104	20.01
560.301	20.29
560.498	20.29
560.696	20.38
560.893	20.48
561.091	20.59
561.288	20.62
561.486	20.79
561.683	21
561.88	21.13
562.078	21.28
562.275	21.33
562.473	21.42
562.67	21.57
562.867	21.74
563.064	21.88
563.262	22.01
563.459	22.2
563.656	22.27
563.853	22.36
564.051	22.46
564.248	22.65
564.445	22.73
564.642	22.78
564.839	22.93
565.036	23.13
565.234	23.3
565.431	23.33
565.628	23.47
565.825	23.57
566.022	23.63
566.219	23.59
566.416	23.7
566.613	23.8
566.81	23.87
567.007	23.84
567.204	23.9
567.401	23.95
567.598	24.05
567.795	24.07
567.991	24.19
568.188	24.33
568.385	24.52
568.582	24.64
568.779	24.76
568.976	24.87
569.172	24.94
569.369	25.01
569.566	25.05
569.763	25.16
569.96	25.19
570.156	25.28
570.353	25.19
570.55	25.26
570.746	25.31
570.943	25.37
571.14	25.37
571.336	25.48
571.533	25.55
571.729	25.52
571.926	25.63
572.123	25.78
572.319	25.88
572.516	25.82
572.712	25.97
572.909	25.96
573.105	25.95
573.302	25.97
573.498	26.15
573.695	26.12
573.891	26.16
574.087	26.15
574.284	26.16
574.48	26.11
574.677	26.12
574.873	26.17
575.069	26.25
575.266	26.37
575.462	26.29
575.658	26.44
575.854	26.6
576.051	26.62
576.247	26.51
576.443	26.64
576.639	26.54
576.835	26.37
577.032	26.3
577.228	26.43
577.424	26.41
577.62	26.41
577.816	26.51
578.012	26.57
578.208	26.52
578.404	26.62
578.6	26.66
578.796	26.69
578.993	26.72
579.189	26.62
579.384	26.32
579.58	26.23
579.776	26.1
579.972	26.02
580.168	26.04
580.364	26.18
580.56	26.28
580.756	26.26
580.952	26.21
581.148	26.17
581.343	26.2
581.539	26.07
581.735	26.09
581.931	26.19
582.127	26.26
582.322	26.16
582.518	26.25
582.714	26.18
582.909	26.05
583.105	25.91
583.301	25.95
583.496	25.92
583.692	25.91
583.888	25.89
584.083	26.05
584.279	26.04
584.474	25.94
584.67	25.96
584.866	26.02
585.061	25.83
585.257	25.95
585.452	26.03
585.648	25.92
585.843	25.86
586.039	25.93
586.234	25.8
586.429	25.68
586.625	25.76
586.82	25.77
587.015	25.78
587.211	25.72
587.406	25.77
587.601	25.75
587.797	25.75
587.992	25.7
588.187	25.76
588.383	25.7
588.578	25.67
588.773	25.78
588.968	25.85
589.163	25.97
589.359	26.03
589.554	26.05
589.749	25.96
589.944	26.01
590.139	25.98
590.334	25.99
590.529	25.99
590.724	26
590.919	26
591.114	26.02
591.309	26.17
591.504	26.3
591.699	26.35
591.894	26.44
592.089	26.42
592.284	26.39
592.479	26.5
592.674	26.52
592.869	26.57
593.064	26.65
593.259	26.74
593.454	26.87
593.648	26.87
593.843	26.8
594.038	26.84
594.233	26.87
594.428	26.69
594.622	26.86
594.817	27.15
595.012	27.25
595.206	27.33
595.401	27.43
595.596	27.42
595.79	27.48
595.985	27.53
596.18	27.53
596.374	27.73
596.569	27.89
596.763	27.8
596.958	27.85
597.153	27.96
597.347	27.98
597.542	28.09
597.736	28.15
597.931	28.31
598.125	28.43
598.319	28.5
598.514	28.53
598.708	28.6
598.903	28.64
599.097	28.7
599.291	28.8
599.486	28.74
599.68	28.84
599.874	28.91
600.069	28.94
600.263	28.96
600.457	29.15
600.651	29.23
600.846	29.3
601.04	29.31
601.234	29.38
601.428	29.41
601.622	29.43
601.817	29.46
602.011	29.57
602.205	29.61
602.399	29.63
602.593	29.64
602.787	29.61
602.981	29.55
603.175	29.67
603.369	29.63
603.563	29.7
603.757	29.73
603.951	29.78
604.145	29.66
604.339	29.8
604.533	29.61
604.727	29.61
604.921	29.59
605.115	29.62
605.309	29.54
605.502	29.66
605.696	29.56
605.89	29.51
606.084	29.52
606.278	29.49
606.471	29.35
606.665	29.25
606.859	29.16
607.053	28.98
607.246	28.93
607.44	28.89
607.634	28.84
607.827	28.83
608.021	28.67
608.214	28.53
608.408	28.42
608.602	28.47
608.795	28.37
608.989	28.38
609.182	28.32
609.376	28.37
609.569	28.25
609.763	28.18
609.956	28.09
610.15	28
610.343	27.87
610.537	27.71
610.73	27.6
610.923	27.57
611.117	27.45
611.31	27.31
611.504	27.27
611.697	27.15
611.89	27.08
612.083	27.11
612.277	27.16
612.47	27.06
612.663	27.04
612.856	26.98
613.05	26.81
613.243	26.62
613.436	26.54
613.629	26.46
613.822	26.27
614.015	26.14
614.209	26
614.402	25.97
614.595	25.94
614.788	25.88
614.981	25.75
615.174	25.62
615.367	25.51
615.56	25.23
615.753	25.22
615.946	25.22
616.139	25.3
616.332	25.36
616.525	25.52
616.718	25.52
616.911	25.45
617.103	25.33
617.296	25.19
617.489	25.02
617.682	24.91
617.875	24.85
618.067	24.83
618.26	24.68
618.453	24.69
618.646	24.69
618.838	24.7
619.031	24.8
619.224	24.84
619.417	24.79
619.609	24.8
619.802	24.7
619.994	24.56
620.187	24.51
620.38	24.36
620.572	24.23
620.765	24.26
620.957	24.1
621.15	24.01
621.342	24.01
621.535	24.02
621.727	23.97
621.92	23.92
622.112	23.86
622.305	23.91
622.497	23.81
622.69	23.81
622.882	23.86
623.074	23.99
623.267	23.94
623.459	23.9
623.651	23.8
623.844	23.82
624.036	23.71
624.228	23.66
624.42	23.6
624.613	23.69
624.805	23.61
624.997	23.63
625.189	23.6
625.381	23.63
625.574	23.54
625.766	23.47
625.958	23.42
626.15	23.49
626.342	23.42
626.534	23.35
626.726	23.43
626.918	23.38
627.11	23.31
627.302	23.35
627.494	23.29
627.686	23.15
627.878	23.06
628.07	23.01
628.262	22.89
628.454	22.87
628.646	22.9
628.838	22.92
629.029	22.86
629.221	22.88
629.413	22.81
629.605	22.69
629.797	22.52
629.989	22.5
630.18	22.42
630.372	22.42
630.564	22.4
630.755	22.53
630.947	22.53
631.139	22.35
631.33	22.28
631.522	22.38
631.714	22.31
631.905	22.26
632.097	22.28
632.289	22.23
632.48	22.04
632.672	21.99
632.863	21.82
633.055	21.8
633.246	21.78
633.438	21.75
633.629	21.69
633.821	21.76
634.012	21.79
634.203	21.79
634.395	21.87
634.586	21.92
634.777	21.9
634.969	21.92
635.16	21.99
635.351	21.84
635.543	21.76
635.734	21.79
635.925	21.76
636.117	21.72
636.308	21.85
636.499	21.83
636.69	21.76
636.881	21.65
637.073	21.68
637.264	21.62
637.455	21.61
637.646	21.68
637.837	21.77
638.028	21.76
638.219	21.82
638.41	21.77
638.601	21.66
638.792	21.65
638.983	21.55
639.174	21.42
639.365	21.49
639.556	21.46
639.747	21.37
639.938	21.43
640.129	21.42
640.32	21.34
640.511	21.39
640.701	21.54
640.892	21.4
641.083	21.48
641.274	21.49
641.465	21.47
641.655	21.26
641.846	21.3
642.037	21.15
642.228	21.07
642.418	21.07
642.609	21.11
642.8	21.1
642.99	21.06
643.181	21.18
643.372	21.08
643.562	21.03
643.753	20.96
643.943	20.92
644.134	20.77
644.324	20.75
644.515	20.75
644.705	20.8
644.896	20.85
645.086	20.79
645.277	20.86
645.467	20.85
645.658	20.77
645.848	20.79
646.038	20.74
646.229	20.7
646.419	20.6
646.61	20.54
646.8	20.48
646.99	20.46
647.18	20.42
647.371	20.46
647.561	20.44
647.751	20.46
647.941	20.49
648.132	20.39
648.322	20.37
648.512	20.49
648.702	20.47
648.892	20.38
649.082	20.38
649.272	20.18
649.462	19.97
649.653	19.84
649.843	19.75
650.033	19.79
650.223	19.8
650.413	19.77
650.603	19.81
650.793	19.9
650.983	19.81
651.172	19.8
651.362	19.81
651.552	19.64
651.742	19.53
651.932	19.53
652.122	19.48
652.312	19.5
652.502	19.57
652.691	19.57
652.881	19.47
653.071	19.47
653.261	19.2
653.45	18.93
653.64	18.91
653.83	18.67
654.019	18.51
654.209	18.55
654.399	18.54
654.588	18.29
654.778	18.23
654.968	18.08
655.157	17.86
655.347	17.72
655.536	17.59
655.726	17.41
655.915	17.26
656.105	17.18
656.294	17.01
656.484	16.79
656.673	16.79
656.863	16.69
657.052	16.41
657.241	16.16
657.431	15.97
657.62	15.69
657.809	15.39
657.999	15.3
658.188	15.15
658.377	15.01
658.567	14.82
658.756	14.64
658.945	14.66
659.134	14.53
659.324	14.4
659.513	14.23
659.702	14.12
659.891	13.85
660.08	13.66
660.269	13.57
660.458	13.44
660.648	13.29
660.837	13.02
661.026	12.97
661.215	12.75
661.404	12.54
661.593	12.43
661.782	12.14
661.971	11.94
662.16	11.8
662.349	11.7
662.538	11.49
662.726	11.56
662.915	11.38
663.104	11.23
663.293	11.13
663.482	11.12
663.671	10.95
663.86	10.89
664.048	10.73
664.237	10.68
664.426	10.37
664.615	10.33
664.803	10.3
664.992	10.31
665.181	10.2
665.369	10.13
665.558	10
665.747	9.9
665.935	9.89
666.124	9.78
666.312	9.89
666.501	9.83
666.69	9.56
666.878	9.37
667.067	9.27
667.255	9.24
667.444	9.59
667.632	9.72
667.82	9.83
668.009	9.84
668.197	9.78
668.386	9.46
668.574	9.5
668.762	9.34
668.951	9.26
669.139	9.23
669.327	9.18
669.516	9.29
669.704	9.24
669.892	9.41
670.08	9.44
670.269	9.26
670.457	9.05
670.645	8.91
670.833	8.95
671.021	8.97
671.21	9.2
671.398	9.44
671.586	9.6
671.774	9.47
671.962	9.38
672.15	9.41
672.338	9.2
672.526	9.25
672.714	9.08
672.902	9.21
673.09	9.35
673.278	9.59
673.466	9.75
673.654	10.07
673.842	10.05
674.03	10.02
674.218	9.89
674.405	9.8
674.593	9.78
674.781	9.87
674.969	9.9
675.157	10.13
675.344	10.33
675.532	10.49
675.72	10.62
675.908	10.7
676.095	10.54
676.283	10.56
676.471	10.72
676.658	10.75
676.846	10.77
677.033	10.96
677.221	11.02
677.409	10.86
677.596	10.96
677.784	11.04
677.971	11.12
678.159	11.2
678.346	11.35
678.534	11.43
678.721	11.7
678.909	11.78
679.096	11.87
679.283	12.13
679.471	12.24
679.658	12.35
679.846	12.58
680.033	12.81
680.22	12.86
680.408	13.06
680.595	13.02
680.782	12.97
680.969	13.12
681.157	13.17
681.344	13.28
681.531	13.41
681.718	13.56
681.905	13.64
682.093	13.86
682.28	14.02
682.467	14.34
682.654	14.58
682.841	14.74
683.028	14.93
683.215	15.16
683.402	15.14
683.589	15.44
683.776	15.68
683.963	15.87
684.15	16.09
684.337	16.47
684.524	16.62
684.711	16.87
684.898	16.99
685.085	17.19
685.271	17.5
685.458	17.68
685.645	17.85
685.832	18.32
686.019	18.7
686.205	18.95
686.392	19.33
686.579	19.64
686.766	20.04
686.952	20.23
687.139	20.83
687.326	21.14
687.512	21.66
687.699	22.06
687.886	22.57
688.072	22.66
688.259	23.37
688.445	23.88
688.632	24.26
688.818	24.81
689.005	25.45
689.191	25.8
689.378	26.45
689.564	26.98
689.751	27.68
689.937	28.27
690.124	29.05
690.31	29.33
690.496	29.72
690.683	30.3
690.869	30.93
691.055	31.26
691.242	32.38
691.428	33.41
691.614	33.92
691.8	34.73
691.987	35.68
692.173	36.22
692.359	36.9
692.545	37.66
692.731	38.2
692.918	38.97
693.104	39.33
693.29	40.01
693.476	40.77
693.662	41.55
693.848	41.98
694.034	42.99
694.22	43.66
694.406	44.34
694.592	45.12
694.778	45.75
694.964	46.36
695.15	47.06
695.336	47.72
695.522	48.51
695.708	49.39
695.894	50.09
696.08	50.87
696.265	51.56
696.451	52.35
696.637	53.22
696.823	53.87
697.009	54.39
697.194	55.11
697.38	55.38
697.566	56.09
697.751	56.88
697.937	57.75
698.123	58.48
698.308	59.34
698.494	59.73
698.68	60.26
698.865	60.84
699.051	61.38
699.236	61.7
699.422	62.14
699.607	62.58
699.793	63.1
699.978	63.34
700.164	64.09
700.349	64.97
700.535	65.26
700.72	65.43
700.906	66.36
701.091	66.8
701.276	67.26
701.462	68.43
701.647	69.65
701.832	69.65
702.018	69.92
702.203	69.94
702.388	69.96
702.573	69.96
702.759	71.13
702.944	71.49
703.129	71.94
703.314	72.41
703.499	72.52
703.684	72.42
703.87	73.59
704.055	74.3
704.24	74.79
704.425	75.56
704.61	76.23
704.795	76.08
704.98	76.04
705.165	75.81
705.35	75.83
705.535	75.64
705.72	75.92
705.905	76.52
706.09	77.1
706.275	77.4
706.459	77.54
706.644	77.55
706.829	77.88
707.014	77.99
707.199	78.73
707.384	79.53
707.568	80.02
707.753	80.68
707.938	81.18
708.123	80.88
708.307	80.76
708.492	80.81
708.677	80.62
708.861	80.67
709.046	81.01
709.231	81.67
709.415	82.09
709.6	81.92
709.784	81.92
709.969	81.93
710.153	81.8
710.338	81.59
710.522	81.99
710.707	82.61
710.891	83.08
711.076	83.4
711.26	83.56
711.445	84.04
711.629	84.02
711.813	83.87
711.998	83.88
712.182	83.8
712.366	84.07
712.551	84.45
712.735	84.74
712.919	84.46
713.103	85.18
713.288	84.74
713.472	84.55
713.656	85.27
713.84	85.55
714.024	85.71
714.208	85.62
714.393	86.11
714.577	85.96
714.761	86.3
714.945	86.01
715.129	86.35
715.313	86.55
715.497	86.31
715.681	86.94
715.865	87.24
716.049	87.51
716.233	86.84
716.417	87.1
716.601	86.67
716.785	86.66
716.968	86.69
717.152	87.18
717.336	87.37
717.52	87.2
717.704	86.88
717.888	87.13
718.071	87.36
718.255	87.64
718.439	87.74
718.622	88.31
718.806	88.52
718.99	88.13
719.174	87.84
719.357	87.91
719.541	87.67
719.724	87.59
719.908	88.51
720.092	89.04
720.275	89.9
720.459	90.24
720.642	90.1
720.826	88.99
721.009	88.31
721.193	87.34
721.376	87.37
721.559	87.8
721.743	89.06
721.926	89.6
722.11	90.01
722.293	89.96
722.476	89.54
722.66	88.8
722.843	88.45
723.026	88.13
723.21	88.48
723.393	89.56
723.576	90.13
723.759	90.11
723.942	90.75
724.126	90.61
724.309	89.87
724.492	89.9
724.675	89.89
724.858	90
725.041	90.43
725.224	90.99
725.407	90.94
725.59	91.34
725.774	91.03
725.957	90.5
726.14	90.02
726.322	90.45
726.505	90.23
726.688	90.86
726.871	90.75
727.054	91.18
727.237	90.73
727.42	91.12
727.603	91.38
727.786	91.85
727.968	92.11
728.151	91.96
728.334	92.24
728.517	92.1
728.699	92.33
728.882	91.77
729.065	92.46
729.248	92.13
729.43	92.3
729.613	93.27
729.796	94.27
729.978	93.71
730.161	94
730.343	93.48
730.526	93.63
730.708	92.66
730.891	93.52
731.073	93.47
731.256	93.38
731.438	93.09
731.621	94.43
731.803	93.98
731.986	94.51
732.168	94.28
732.35	94.3
732.533	93.5
732.715	93.67
732.898	93.4
733.08	93.26
733.262	93.52
733.444	93.08
733.627	92.53
733.809	93.04
733.991	94.92
734.173	93.66
734.355	94.25
734.538	95.42
734.72	94.89
734.902	94.17
735.084	94.74
735.266	94.3
735.448	94.05
735.63	93.91
735.812	94.09
735.994	95.11
736.176	94.81
736.358	94.64
736.54	95.79
736.722	94.61
736.904	93.81
737.086	94.54
737.268	95.34
737.45	94.53
737.632	95.25
737.814	94.31
737.995	94.49
738.177	93.82
738.359	92.91
738.541	92.68
738.723	93.64
738.904	94.2
739.086	94.31
739.268	94.51
739.449	94.99
739.631	94.91
739.813	94.83
739.994	95.38
740.176	96.15
740.358	95.78
740.539	96.72
740.721	96.5
740.902	97.49
741.084	97.79
741.265	97.83
741.447	97.43
741.628	98.05
741.81	96.36
741.991	97.11
742.172	98.28
742.354	97.68
742.535	97.06
742.717	97.6
742.898	97.18
743.079	97.43
743.261	98.25
743.442	97.54
743.623	98.23
743.804	98.1
743.986	98.28
744.167	96.34
744.348	96.42
744.529	95.53
744.71	94.98
744.891	93.89
745.073	94.75
745.254	93.78
745.435	93.57
745.616	93.48
745.797	93.53
745.978	93.78
746.159	95.41
746.34	94.63
746.521	96.1
746.702	94.59
746.883	95.4
747.064	94.72
747.245	96.06
747.426	94.29
747.606	95.83
747.787	94.99
747.968	94.7
748.149	93.78
748.33	94.61
748.51	94.9
748.691	94.98
748.872	96.4
749.053	96.22
749.233	95.05
749.414	94.09
749.595	93.1
749.775	91.47
749.956	90.64
750.137	91.11
750.317	92.4
750.498	94.56
750.678	94.42
750.859	95.77
751.04	95.37
751.22	93.16
751.4	90.97
751.581	90.43
751.761	90.11
751.942	92.19
752.122	92.96
752.303	93.69
752.483	94.93
752.663	94.89
752.844	93.18
753.024	94.22
753.204	94.33
753.385	93.54
753.565	94.21
753.745	93.76
753.925	92.96
754.106	92.22
754.286	92.59
754.466	92.07
754.646	92.57
754.826	91.5
755.006	90.84
755.187	91.75
755.367	91.95
755.547	92.33
755.727	93.43
755.907	94.92
756.087	95.36
756.267	94.51
756.447	94.04
756.627	93.21
756.807	92.82
756.987	90.58
757.167	91.39
757.346	92.24
757.526	91.85
757.706	92.73
757.886	94.72
758.066	94.17
758.246	95.45
758.425	96
758.605	94.23
758.785	93.3
758.965	92.87
759.144	89.24
759.324	89.92
759.504	90.27
759.683	90.47
759.863	89.71
760.043	90.17
760.222	89.34
760.402	90.2
760.581	90.12
760.761	93.05
760.94	93.63
761.12	95.94
761.299	96.1
761.479	94.55
761.658	91.3
761.838	90.84
762.017	88.81
762.197	88.67
762.376	90.26
762.555	93.18
762.735	93.98
762.914	94.45
763.093	93.85
763.273	92.51
763.452	91.13
763.631	90.9
763.81	89.38
763.99	88.08
764.169	89.44
764.348	87.04
764.527	85.53
764.706	88
764.885	90.46
765.064	88.48
765.243	90.91
765.423	93.09
765.602	91.04
765.781	87.95
765.96	87.68
766.139	85.99
766.318	86.06
766.497	86.42
766.676	88.86
766.854	90.91
767.033	90.96
767.212	88.96
767.391	89.66
767.57	89.47
767.749	89.33
767.928	90.95
768.106	90.26
768.285	87.05
768.464	85.9
768.643	84.96
768.821	84.59
769	86.44
769.179	86.56
769.357	84.68
769.536	84.95
769.715	85.48
769.893	86.2
770.072	86.44
770.25	89.13
770.429	88.91
770.607	88.02
770.786	86.98
770.964	88.82
771.143	86.55
771.321	88.46
771.5	89.3
771.678	88.67
771.857	86.73
772.035	88.06
772.213	85.47
772.392	83.93
772.57	85.95
772.748	88.18
772.927	87.39
773.105	86.48
773.283	86.67
773.461	85.72
773.64	85.46
773.818	85.79
773.996	87.94
774.174	86.88
774.352	83.17
774.531	79.56
774.709	81.47
774.887	78.74
775.065	79.07
775.243	81.82
775.421	84.76
775.599	85.46
775.777	84.42
775.955	84.08
776.133	80.53
776.311	79.43
776.489	74.44
776.667	75.69
776.844	76.39
777.022	78.51
777.2	79.75
777.378	80.46
777.556	81.74
777.734	85
777.911	88.88
778.089	87.24
778.267	88.01
778.445	86.01
778.622	81.4
778.8	78.66
778.978	81.65
779.155	81.52
779.333	82.44
779.511	82.86
779.688	86.39
779.866	79.64
780.043	76.62
780.221	77.9
780.398	77.34
780.576	75.21
780.753	78.12
780.931	79.54
781.108	78.89
781.286	79.93
781.463	78.54
781.64	77.46
781.818	79.58
781.995	78.31
782.172	77.74
782.35	78.44
782.527	83.96
782.704	81.22
782.882	84.35
783.059	83.1
783.236	82.49
783.413	81.37
783.59	83.07
783.768	78.35
783.945	81.91
784.122	82.3
784.299	79.61
784.476	77.36
784.653	77.01
784.83	72.35
785.007	70.13
785.184	72.26
785.361	75.58
785.538	82.73
785.715	86.95
785.892	87.41
786.069	86.79
786.246	87.44
786.423	83.55
786.6	81.6
786.776	83.47
786.953	81.4
787.13	82.46
787.307	83.31
787.484	82.1
787.66	78.27
787.837	79.48
788.014	72.79
788.191	67.75
788.367	63.46
788.544	69.58
788.721	67.86
788.897	74.1
789.074	79.63
789.25	83.06
789.427	81.7
789.603	81.14
789.78	81.48
789.956	79.8
790.133	80.22
790.309	78.65
790.486	86.2
790.662	80.55
790.839	80.89
791.015	81.28
791.192	78.51
791.368	76.53
791.544	75.68
791.721	73.54
791.897	72.82
792.073	74.65
792.249	68.38
792.426	71.87
792.602	73.95
792.778	74.8
792.954	71.71
793.13	71.91
793.307	65.36
793.483	57.83
793.659	59.69
793.835	63.4
794.011	61.29
794.187	66.52
794.363	68.68
794.539	68.86
794.715	65.25
794.891	69.25
795.067	70.68
795.243	78.02
795.419	79.1
795.595	78.83
795.771	77.01
795.947	78.27
796.122	70.61
796.298	70.11
796.474	70.88
796.65	72.7
796.826	66.76
797.001	69.99
797.177	63.74
797.353	68.71
797.529	69.11
797.704	70.11
797.88	64.6
798.056	61.82
798.231	59.05
798.407	61.61
798.582	61.08
798.758	73.87
798.934	85.32
799.109	80.67
799.285	75.42
799.46	80.76
799.636	75.61
799.811	69.66
799.986	76.81
800.162	79.73
800.337	79.69
800.513	74.47
800.688	71.64
800.863	78.42
801.039	71.6
801.214	66.82
801.389	68.2
801.565	69.01
801.74	50.93
801.915	65.56
802.09	65.95
802.265	70.97
802.441	70.2
802.616	73.52
802.791	64.93
802.966	65.12
803.141	64.54
803.316	61.27
803.491	66.32
803.666	70.28
803.841	68.34
804.016	68.5
804.191	76.15
804.366	75.75
804.541	72.19
804.716	70.79
804.891	61.38
805.066	62
805.241	57.31
805.416	56.53
805.591	54.09
805.765	62.72
805.94	67.71
806.115	67.85
806.29	62.63
806.464	65.18
806.639	61.69
806.814	52.27
806.989	46.52
807.163	64.01
807.338	66.95
807.512	66.66
807.687	54.41
807.862	73.37
808.036	69.09
808.211	67.97
808.385	70.87
808.56	83.15
808.734	76.92
808.909	69.38
809.083	72.58
809.258	83.89
809.432	86.05
809.606	73
809.781	72.9
809.955	76.91
810.13	68.58
810.304	63.26
810.478	63.96
810.652	70.81
810.827	67.9
811.001	67.26
811.175	66.33
811.349	63.58
811.524	50.06
811.698	38.91
811.872	42.79
812.046	47.33
812.22	59.13
812.394	63.61
812.568	74.15
812.742	72.32
812.916	65.44
813.09	57.26
813.264	50.91
813.438	54.8
813.612	50.06
813.786	52.78
813.96	62.73
814.134	67.51
814.308	72.35
814.482	80.49
814.656	75.12
814.83	76.51
815.003	80.76
815.177	66.96
815.351	57.17
815.525	59.36
815.698	46.78
815.872	38.66
816.046	27.25
816.219	38.51
816.393	56.1
816.567	75.54
816.74	82.08
816.914	91.36
817.088	98.39
817.261	81.54
817.435	60.72
817.608	55.15
817.782	44.65
817.955	44.82
818.129	42.57
818.302	53.15
818.475	65.52
818.649	74.05
818.822	60.03
818.996	77.21
819.169	78.57
819.342	65.99
819.516	64.64
819.689	67.95
819.862	60.03
820.035	48.35
820.209	47.84
820.382	48.42
820.555	54.84
820.728	43.68
820.901	45.84
821.075	42.66
821.248	46.95
821.421	28.3
821.594	33.05
821.767	66.66
821.94	93.28
822.113	67.45
822.286	69.87
822.459	76.6
822.632	52.83
822.805	11.6
822.978	19.52
823.151	18.66
823.324	6.91
823.496	-16.53
823.669	-13.24
823.842	-3.68
824.015	-14.52
824.188	-24.2
824.361	-10.39
824.533	13.09
824.706	19.99
824.879	30.07
825.051	50.97
825.224	49.9
825.397	33.31
825.569	13.02
825.742	28.48
825.915	35.3
826.087	59.42
826.26	47.54
826.432	59.98
826.605	59.11
826.777	34.72
826.95	26.28
827.122	25.72
827.295	28.39
827.467	25.55
827.64	14.31
827.812	2.57
827.984	17.5
828.157	6.46
828.329	-30.42
828.501	-17.81
828.674	20.11
828.846	8.11
829.018	24.85
829.19	19.05
829.363	59.27
829.535	46.58
829.707	42.92
829.879	21.39
830.051	20.74
830.223	-15.96
830.395	-51.86
830.568	-57.67
830.74	-60.56
830.912	-18.85
831.084	-14.44
831.256	4.71
831.428	1.9
831.6	2.89
831.772	-34.12
831.943	-54.55
832.115	-22.07
832.287	-1.66
832.459	9.8
832.631	33.16
832.803	61.75
832.975	72.87
833.146	68.11
833.318	61.48
833.49	62.37
833.662	32.93
833.833	0.38
834.005	4.42
834.177	22.77
834.348	6.8
834.52	2.02
834.692	-0.74
834.863	-44.24
835.035	-60.75
835.206	-117.92
835.378	-94.23
835.549	-73.31
835.721	-16.86
835.892	0.02
836.064	11.91
836.235	37.78
836.407	74.61
836.578	8.84
836.749	0.77
836.921	-4.21
837.092	-67.35
837.264	-72.23
837.435	-57.83
837.606	-17.43
837.777	9.71
837.949	33
838.12	21.98
838.291	38.97
838.462	31.61
838.633	11.48
838.805	-5.13
838.976	18.28
839.147	-25.19
839.318	-51.74
839.489	-109
839.66	-74.18
839.831	-35.4
840.002	-32.73
840.173	-52.46
840.344	32.59
840.515	62.39
840.686	-90.39
840.857	-89.72
841.028	-74.83
841.199	-104.49
841.369	-131.42
841.54	-90.59
841.711	-29.39
841.882	3.02
842.053	-1.67
842.223	14.18
842.394	28.76
842.565	11.54
842.736	4.77
842.906	9.95
843.077	8.66
843.248	11.52
843.418	14.76
843.589	-25.19
843.759	49.86
843.93	69.8
844.101	21.7
844.271	27.39
844.442	55.8
844.612	46.76
844.783	19.64
844.953	-15.8
845.123	-44.26
845.294	-76.82
845.464	-322.31
845.635	-150.29
845.805	-15.01
845.975	-5.42
846.146	-50.62
846.316	-23.5
846.486	-3.56
846.656	23.13
846.827	27.97
846.997	33.56
847.167	56.84
847.337	20.03
847.507	-12.49
847.677	-17.54
847.848	49.38
848.018	39.04
848.188	45.87
848.358	23.04
848.528	12.95
848.698	-26.36
848.868	-101.34
849.038	-197.85
849.208	-45.35
849.378	15.82
849.548	-12.36
849.718	5.31
849.887	44.18
850.057	7.75
850.227	-17.55
850.397	-39.12
850.567	-133.74
850.737	-374.24
850.906	-1173.44
851.076	-878.71
851.246	-263.74
851.415	30.6
851.585	-7.06
851.755	-23.4
851.924	6.03
852.094	-22.41
852.264	-106.14
852.433	-758.41
852.603	-129.15
852.772	-95.14
852.942	-50.49
853.111	-86.17
853.281	-35.1
853.45	22.6
853.62	-45.45
853.789	-72.52
853.959	-1.1
854.128	-7.08
854.297	-67.75
854.467	-74.77
854.636	-33.53
854.805	-11.88
854.975	-59.08
855.144	-63.22
855.313	193.18
855.482	-282.3
855.652	-169.98
855.821	-192.66
855.99	-38.31
856.159	0.75
856.328	29.53
856.497	-5.7
856.667	30.58
856.836	47.09
857.005	-11
857.174	-18.21
857.343	-29.39
857.512	-14.85
857.681	-88.63
857.85	-103.31
858.019	-65.69
858.188	-37.8
858.356	-43.81
858.525	-99.03
858.694	-90.23
858.863	-208.51
859.032	-146.32
859.201	-247.17
859.369	-130.8
859.538	-85.48
859.707	-52.12
859.876	-70.96
860.044	-28.34
860.213	40.65
860.382	24.38
860.55	22.57
860.719	48.91
860.888	40.39
861.056	-20.05
861.225	-26.92
861.393	2.96
861.562	-20.7
861.73	-98.97
861.899	-340.71
862.067	-3092.24
862.236	-177.67
862.404	-344.88
862.572	-191.35
862.741	-47.87
862.909	-8.29
863.078	-84.72
863.246	-33.48
863.414	7.26
863.582	5.97
863.751	-18.49
863.919	-40.8
864.087	-18.89
864.255	-93.68
864.424	-516.24
864.592	-141.69
864.76	-161.74
864.928	-503.8
865.096	-166.16
865.264	-85.65
865.432	-1103.98
865.6	-10.37
865.768	-70.89
865.936	-96.23
866.104	-146.27
866.272	-186.48
866.44	-427.46
866.608	753.12
866.776	371.87
866.944	2531.98
867.112	-496.93
867.28	-187.26
867.448	-27.31
867.615	28.33
867.783	27.4
867.951	19.72
868.119	64.73
868.286	-10.16
868.454	-133.6
868.622	-148.15
868.789	-182.61
868.957	-4969.64
869.125	-1996.71
869.292	-139.99
869.46	-176.17
869.627	-8.2
869.795	-38.18
869.963	-22.37
870.13	14.54
870.298	44.03
870.465	-25.31
870.632	-28.68
870.8	-11.99
870.967	-67.19
871.135	-169.89
871.302	-121.3
871.469	-112.78
871.637	-160.05
871.804	-100.7
871.971	-101.33
872.139	-513.37
872.306	-78.41
872.473	-100.1
872.64	-441.52
872.807	-201.54
872.975	30.68
873.142	-158.09
873.309	1223.65
873.476	81.76
873.643	151.83
873.81	35.83
873.977	65.92
874.144	69.34
874.311	-38.06
874.478	-166.23
874.645	-192.52
874.812	-126.3
874.979	-74.21
875.146	-79.12
875.313	-68.22
875.48	-9.34
875.647	-40.53
875.813	-90.42
875.98	-43.06
876.147	-74.51
876.314	-121.57
876.481	1108.06
876.647	-1317.7
876.814	725.78
876.981	-183.37
877.147	-77.41
877.314	-7.32
877.481	-4.37
877.647	23.65
877.814	-21.77
877.98	-79.33
878.147	-0.8
878.314	59.06
878.48	10.84
878.647	22.92
878.813	84.39
878.979	64.18
879.146	9.62
879.312	7.59
879.479	-18.4
879.645	-132.07
879.811	-403.08
879.978	-952.48
880.144	-187.85
880.31	-81.86
880.477	-355.55
880.643	-332.66
880.809	-106.5
880.975	-133.16
881.142	-1142.5
881.308	-135.89
881.474	-72.06
881.64	-116.46
881.806	-229.64
881.972	-104.99
882.138	-146.71
882.304	-232.49
882.47	-326.19
882.636	-1224.39
882.802	-375.4
882.968	-97.79
883.134	-51.24
883.3	-77.5
883.466	3.17
883.632	34.65
883.798	-11.34
883.964	-25.64
884.129	7.18
884.295	34.46
884.461	-51.91
884.627	-49.37
884.793	-91.69
884.958	-48.17
885.124	-135.2
885.29	-188.06
885.455	-205.22
885.621	4.26
885.787	-69.34
885.952	-69.03
886.118	-79.11
886.283	-79.93
886.449	-149.96
886.614	-106.56
886.78	-92.21
886.945	245.49
887.111	-448.99
887.276	-429.4
887.442	-845.23
887.607	-473.94
887.773	-301.83
887.938	-220.04
888.103	-233.05
888.269	-141.79
888.434	-144.19
888.599	-59.66
888.764	75.05
888.93	55.27
889.095	6.33
889.26	-48.82
889.425	-1.95
889.59	-73.31
889.756	-145.67
889.921	-85.74
890.086	-18.25
890.251	-50.6
890.416	-202.46
890.581	-1189.92
890.746	195.98
890.911	376.27
891.076	179.84
891.241	-378.17
891.406	29.55
891.571	11.43
891.736	-191.17
891.901	-398.01
892.065	332.69
892.23	153.47
892.395	270.01
892.56	351.95
892.725	-290.43
892.889	-1287.2
893.054	-210.02
893.219	-73.1
893.384	-54.92
893.548	-134.83
893.713	-138.93
893.878	-100.35
