Data from Ofra_PS_T2_1A_0CX05_Reflection_2.txt Node
Date: Wed Jul 21 17:43:46 EDT 2021
User: Adam
Spectrometer: FLMT01687
Trigger mode: 0
Integration Time (sec): 1.100000E0
Scans to average: 2
Electric dark correction enabled: true
Nonlinearity correction enabled: false
Boxcar width: 2
XAxis mode: Wavelengths
Number of Pixels in Spectrum: 3648
>>>>>Begin Spectral Data<<<<<
179.494	607
179.716	709.88
179.937	681.4
180.158	630.44
180.38	962.97
180.601	446.82
180.823	121.68
181.044	-66
181.265	307.9
181.486	135.59
181.708	110.57
181.929	762.76
182.15	-467.25
182.372	165.63
182.593	64.2
182.814	23.97
183.035	76.91
183.257	47.64
183.478	-84.63
183.699	-9.65
183.92	-59.91
184.141	-53.01
184.363	-126.94
184.584	-29
184.805	-19.28
185.026	28.91
185.247	35.07
185.468	27.48
185.689	-3.97
185.91	9.54
186.132	7.84
186.353	-2.66
186.574	58.71
186.795	74.85
187.016	24.84
187.237	7.13
187.458	-33.21
187.679	-58.43
187.9	-54.24
188.121	-58.27
188.342	-48.07
188.563	18.97
188.784	60.44
189.005	38.86
189.226	89.71
189.447	65.38
189.667	-244.05
189.888	-559.48
190.109	-1817.86
190.33	-1073.39
190.551	-1705.97
190.772	-334.56
190.993	-276.07
191.214	-196.23
191.434	-123.29
191.655	-50.28
191.876	-73.31
192.097	-124.08
192.318	-190.93
192.538	-297.87
192.759	-243.94
192.98	-181.09
193.201	-86.65
193.421	-60.61
193.642	-8.3
193.863	7.93
194.083	0.28
194.304	-28.48
194.525	-17.41
194.745	-38.22
194.966	-74.12
195.187	-59.94
195.407	-81.11
195.628	-164.66
195.848	-166.1
196.069	-141.73
196.29	-114.44
196.51	-100.97
196.731	-70.82
196.951	-90.83
197.172	-89.33
197.392	-101.8
197.613	-103.37
197.833	-156.45
198.054	-122.55
198.274	-62.87
198.495	-77.77
198.715	-45.02
198.936	-47.04
199.156	-49
199.377	-187.58
199.597	-178.03
199.817	-185.59
200.038	-112.52
200.258	-169.9
200.479	-56.53
200.699	-41.12
200.919	4.41
201.14	-18.91
201.36	-57.16
201.58	-7.69
201.801	22.26
202.021	-10.74
202.241	-4.13
202.461	-7.05
202.682	-126.6
202.902	-216.06
203.122	-141.4
203.342	-119.51
203.563	-52.08
203.783	-5.67
204.003	-46.14
204.223	-56.16
204.443	2.88
204.663	-47.47
204.884	-40.92
205.104	14.5
205.324	61.71
205.544	28.96
205.764	74.43
205.984	89.6
206.204	83.07
206.424	49.68
206.644	33.56
206.864	19.92
207.084	-47
207.304	-76.42
207.525	-200.23
207.745	-87.01
207.964	-47.31
208.184	-81.89
208.404	-129.45
208.624	-130.62
208.844	-127.71
209.064	-442.11
209.284	-462.89
209.504	-172.56
209.724	-7.67
209.944	-9.74
210.164	32.05
210.384	50.59
210.604	43.22
210.823	-11.13
211.043	-51.33
211.263	-62.94
211.483	-71.93
211.703	-141.3
211.922	-121.43
212.142	-28.76
212.362	-8.62
212.582	-27.01
212.801	-15.54
213.021	-28.35
213.241	-69.55
213.461	-121.64
213.68	-155.58
213.9	-127.87
214.12	-111.81
214.339	-162.46
214.559	-126.87
214.779	-33.04
214.998	-17.41
215.218	-55.42
215.438	-20.71
215.657	-11.53
215.877	-32.32
216.096	-17.32
216.316	-4.66
216.535	-21.46
216.755	-31.52
216.974	-121.3
217.194	-184.71
217.413	-164.92
217.633	-177.71
217.852	-326.82
218.072	-152.41
218.291	-94.07
218.511	-55.23
218.73	-66.41
218.95	-33.97
219.169	-38.87
219.389	-72.06
219.608	-60.06
219.827	-49.95
220.047	-32.47
220.266	-20.51
220.485	-18.47
220.705	-10.64
220.924	-22.37
221.143	14.55
221.363	-15.63
221.582	-6.74
221.801	2.39
222.021	8.44
222.24	-84.46
222.459	-16.31
222.678	-33.49
222.897	-117.05
223.117	-148.51
223.336	-93.31
223.555	-51.17
223.774	25.8
223.993	64.14
224.213	94.68
224.432	34.71
224.651	33.22
224.87	-10.37
225.089	13.14
225.308	9.19
225.527	37.82
225.746	32.94
225.965	17.86
226.184	-18.79
226.404	5.83
226.623	-18.86
226.842	-14.8
227.061	10.2
227.28	10.86
227.499	-19
227.718	-12.48
227.936	-17.35
228.155	-14.61
228.374	-27
228.593	-0.78
228.812	3.58
229.031	-30.83
229.25	-89.36
229.469	-83.79
229.688	-94.26
229.907	-62.51
230.125	-25.73
230.344	2.75
230.563	12.1
230.782	30.5
231.001	-37.26
231.22	-22.76
231.438	-1.02
231.657	7.41
231.876	-18.18
232.095	46.38
232.313	42.07
232.532	25.63
232.751	-25.28
232.969	-20.43
233.188	-117.49
233.407	-23.58
233.625	-16.89
233.844	-36.86
234.063	-43.51
234.281	-3.47
234.5	-18.48
234.719	-5.22
234.937	25.13
235.156	39.58
235.374	19.45
235.593	0.09
235.811	5.89
236.03	-11.43
236.249	-52.5
236.467	-19.61
236.686	-3.63
236.904	2.44
237.123	-17.78
237.341	-2.43
237.559	-3.15
237.778	-19.44
237.996	-54.04
238.215	-4.12
238.433	-0.91
238.652	-2.21
238.87	-18.84
239.088	7.33
239.307	-2.53
239.525	-24.63
239.743	-67.2
239.962	-56.53
240.18	-94.38
240.398	-140.59
240.617	-133.25
240.835	-103.77
241.053	-49.93
241.271	29.67
241.49	57.96
241.708	54.22
241.926	46.76
242.144	11.28
242.363	-74.74
242.581	-146.92
242.799	-92.13
243.017	-37.22
243.235	-60.51
243.453	-33.97
243.672	-14.17
243.89	-14.88
244.108	-29.02
244.326	-1.55
244.544	-8.22
244.762	-16.48
244.98	-0.98
245.198	6.52
245.416	-25.99
245.634	-24.93
245.852	-30.62
246.07	-27.58
246.288	-37.83
246.506	-67.75
246.724	-28.88
246.942	-17.45
247.16	6.94
247.378	16.77
247.596	47.2
247.814	24.56
248.032	-3.26
248.25	-20.19
248.468	-14.89
248.685	-14.33
248.903	30.05
249.121	32.88
249.339	12.9
249.557	2.08
249.775	-2.85
249.992	-89.18
250.21	-74.14
250.428	-56.59
250.646	-88.48
250.863	-91.52
251.081	-61.15
251.299	-59.21
251.517	-70.17
251.734	-41.81
251.952	-39.6
252.17	-28.95
252.387	-26.65
252.605	-30.6
252.823	-18.29
253.04	-4.43
253.258	21.27
253.475	12.99
253.693	41
253.911	32.06
254.128	33
254.346	26.38
254.563	29.09
254.781	3.63
254.998	-12.87
255.216	-18.23
255.433	-39.27
255.651	-6.03
255.868	26.22
256.086	33.76
256.303	5.85
256.521	14.08
256.738	-3.8
256.956	-37.68
257.173	-36.91
257.39	-35.28
257.608	-54.2
257.825	-3.77
258.043	38.5
258.26	27.32
258.477	85.09
258.695	79.28
258.912	28
259.129	28.77
259.346	-7.86
259.564	-66.78
259.781	-86.71
259.998	-14.93
260.216	-14.36
260.433	27.05
260.65	23.61
260.867	40.1
261.084	-14.57
261.302	-33.49
261.519	-30.87
261.736	-75.82
261.953	-74.9
262.17	-26.99
262.387	-35.65
262.604	-103.08
262.822	-82.31
263.039	-70.06
263.256	-102.18
263.473	-70.9
263.69	-13.33
263.907	16.74
264.124	30.64
264.341	34.08
264.558	14.84
264.775	11.2
264.992	8.02
265.209	-10.75
265.426	10.3
265.643	14.29
265.86	27.23
266.077	32.97
266.294	31.94
266.51	-15.53
266.727	-26.73
266.944	-16.58
267.161	-31.13
267.378	-19.36
267.595	20.74
267.812	9.36
268.028	-13.8
268.245	-8.69
268.462	-40.39
268.679	-68.12
268.896	-8.22
269.112	-6.06
269.329	-9.99
269.546	3.78
269.763	-6.17
269.979	-39.68
270.196	-32.49
270.413	-62.56
270.629	-82.67
270.846	-75.79
271.063	-45.44
271.279	-64.37
271.496	-54.22
271.712	-12.37
271.929	6.23
272.146	-21.98
272.362	-0.16
272.579	55.26
272.795	54.76
273.012	61.39
273.228	72.32
273.445	28.12
273.661	-14.43
273.878	-66.52
274.094	-57.56
274.311	-107.29
274.527	-17.27
274.744	-16.66
274.96	-20.01
275.177	-13.47
275.393	4.2
275.609	-4.58
275.826	20.71
276.042	18.58
276.259	-2.67
276.475	23.56
276.691	23.81
276.908	-14.16
277.124	4.63
277.34	6.58
277.557	-11.17
277.773	-30.28
277.989	-23.89
278.205	-46.83
278.422	-23.98
278.638	-11.28
278.854	4.01
279.07	1.64
279.286	11.89
279.503	-38.98
279.719	-63.36
279.935	-73.13
280.151	-90.68
280.367	-63.97
280.583	-67.1
280.799	-64.71
281.016	-88.41
281.232	-35.24
281.448	-27.33
281.664	-0.79
281.88	-29.36
282.096	-17.72
282.312	-5.78
282.528	3.55
282.744	21.78
282.96	45.86
283.176	41.47
283.392	22.12
283.608	11.11
283.824	-1.74
284.04	-2.45
284.256	-1.14
284.471	-9.72
284.687	-24.49
284.903	1.03
285.119	38.65
285.335	0.78
285.551	18
285.767	12.26
285.982	-15.92
286.198	-74.41
286.414	-2.34
286.63	5.06
286.846	36.07
287.061	4.32
287.277	32.85
287.493	-2.97
287.709	5.31
287.924	-19.81
288.14	24.96
288.356	22.31
288.571	54.29
288.787	36.88
289.003	30.37
289.218	12.2
289.434	-26.93
289.65	-31.77
289.865	-41.9
290.081	-14.33
290.296	-2.7
290.512	1.3
290.727	-35.61
290.943	-37.95
291.159	-48.8
291.374	-43.48
291.59	-61.5
291.805	-47.03
292.021	-25.34
292.236	-26.23
292.451	-21.56
292.667	-12.41
292.882	-1.37
293.098	-21.32
293.313	-44.25
293.529	-79.45
293.744	-82.36
293.959	-81.48
294.175	-64.13
294.39	-24.89
294.605	-0.43
294.821	30.41
295.036	38.06
295.251	50.82
295.467	11.31
295.682	-12.73
295.897	-92.34
296.112	-111
296.328	-120.16
296.543	-117.14
296.758	-97.87
296.973	-27.08
297.188	8.13
297.404	-15.77
297.619	-30.92
297.834	-39.12
298.049	-63.63
298.264	-78.19
298.479	-15.13
298.694	-6.17
298.909	14.64
299.125	22.26
299.34	28.79
299.555	-3.78
299.77	19.44
299.985	-33.46
300.2	-84.76
300.415	-123.53
300.63	-83.72
300.845	-90.14
301.06	-82.27
301.275	-45.73
301.49	-17.08
301.704	-29.61
301.919	-57.59
302.134	-61.16
302.349	-76.39
302.564	-146.83
302.779	-186.16
302.994	-152.16
303.209	-109.94
303.423	-79.26
303.638	14.23
303.853	-16.31
304.068	-23.83
304.283	-27.05
304.497	-27.61
304.712	-39.61
304.927	-29.5
305.142	-34.9
305.356	-25.49
305.571	-24.7
305.786	-30.35
306	-51.12
306.215	-30.09
306.43	-61.78
306.644	-48.15
306.859	-25.97
307.074	7.52
307.288	-35.84
307.503	-7.3
307.717	-22.9
307.932	-20.68
308.147	-41.98
308.361	-9.32
308.576	-32.13
308.79	-71
309.005	-66.51
309.219	-37.54
309.434	-27.74
309.648	-29.9
309.863	2.58
310.077	2.36
310.292	-7.14
310.506	-14.62
310.72	7.54
310.935	11.79
311.149	7.78
311.364	36.91
311.578	43.3
311.792	39.45
312.007	30.82
312.221	10.5
312.435	14.61
312.649	-7.01
312.864	13.83
313.078	27.43
313.292	110.11
313.507	66.12
313.721	94.61
313.935	46
314.149	36.5
314.363	22.49
314.578	18.1
314.792	20.35
315.006	-0.37
315.22	16.96
315.434	0.34
315.648	12.3
315.862	3.25
316.077	5.77
316.291	-24.83
316.505	-4.02
316.719	-32.04
316.933	-41.2
317.147	-48.03
317.361	-82.16
317.575	-108.38
317.789	-151.29
318.003	-226.08
318.217	-194.78
318.431	-71.24
318.645	-25.13
318.859	-10.3
319.073	20.84
319.287	12.27
319.5	-28.01
319.714	-69.91
319.928	-93.37
320.142	-117.64
320.356	-48.47
320.57	-17.83
320.784	-32.82
320.997	-21.99
321.211	-16.61
321.425	-88.35
321.639	-111.54
321.853	-36.26
322.066	-28.79
322.28	-16.01
322.494	15.46
322.707	47.1
322.921	18.41
323.135	17.84
323.349	28.7
323.562	-8.34
323.776	-39.89
323.989	-25.19
324.203	-48.46
324.417	-68.72
324.63	-72.82
324.844	-74.37
325.057	-77.37
325.271	-44.72
325.485	-14.85
325.698	10.17
325.912	41.67
326.125	23.81
326.339	28.22
326.552	15.77
326.766	3.6
326.979	6.47
327.193	33.36
327.406	11.67
327.619	-6.78
327.833	17.78
328.046	-20.01
328.26	-57.5
328.473	-35.2
328.686	-40.67
328.9	-33
329.113	-18.13
329.326	-31.19
329.54	-33.11
329.753	-67.35
329.966	-113.61
330.179	-69.51
330.393	-31.71
330.606	-16.72
330.819	20.39
331.032	39.41
331.246	30.04
331.459	58.44
331.672	50.85
331.885	24.59
332.098	-11.64
332.311	-21.99
332.525	-94.48
332.738	-79.64
332.951	-15.39
333.164	19.91
333.377	39.29
333.59	55.95
333.803	58.09
334.016	35.4
334.229	32.18
334.442	30.78
334.655	45.85
334.868	47.55
335.081	43.83
335.294	29.68
335.507	10.44
335.72	0.07
335.933	-21.44
336.146	-38.73
336.359	-33.14
336.572	-55.03
336.785	-91.19
336.997	-72.5
337.21	-34.27
337.423	-48.39
337.636	-34.57
337.849	-14.96
338.062	-21.82
338.274	-24.99
338.487	-35.4
338.7	-31.33
338.913	-63.71
339.125	-76.26
339.338	-124.93
339.551	-70
339.763	-45.33
339.976	-10.37
340.189	14.06
340.402	28.56
340.614	3.36
340.827	-16.08
341.039	-43.64
341.252	-59.7
341.465	-37.26
341.677	-42.19
341.89	-72.5
342.102	-32.59
342.315	-46.31
342.527	-88.89
342.74	-74.66
342.952	-33.51
343.165	-30.52
343.377	0.69
343.59	3.46
343.802	22.98
344.015	16.84
344.227	29.94
344.44	18.91
344.652	22.36
344.864	-4.84
345.077	16.57
345.289	8.77
345.502	14.91
345.714	0.72
345.926	11.96
346.139	0.45
346.351	12.93
346.563	15.88
346.775	23.4
346.988	14.86
347.2	11.92
347.412	-42.49
347.624	-74.81
347.837	-90.51
348.049	-63.13
348.261	-12.63
348.473	2.31
348.685	10.3
348.897	9.33
349.11	-7.64
349.322	-47.64
349.534	-34.56
349.746	-28.38
349.958	-23.04
350.17	-45.37
350.382	-27.97
350.594	-31.49
350.806	-42.48
351.018	-38.41
351.23	-33.61
351.442	-79.82
351.654	-81.68
351.866	-62.57
352.078	-45.17
352.29	-25.95
352.502	-8.64
352.714	1.08
352.926	-13.28
353.138	-12.13
353.35	-21.73
353.561	-16.2
353.773	-41.42
353.985	-25.7
354.197	-34.79
354.409	-33.94
354.621	-42.47
354.832	-25.33
355.044	-30.61
355.256	-38.03
355.468	-23.15
355.679	-30.43
355.891	-22.09
356.103	-34.44
356.314	-22.79
356.526	-26.57
356.738	0.26
356.949	-13.52
357.161	2.74
357.373	5.55
357.584	-6.67
357.796	-5.06
358.008	-9.64
358.219	6.68
358.431	1.81
358.642	16.34
358.854	9.22
359.065	-0.25
359.277	-38.28
359.488	-53.9
359.7	-87.19
359.911	-100.74
360.123	-64.82
360.334	-77.26
360.546	-100.59
360.757	-101.49
360.969	-83.11
361.18	-85.75
361.391	-41.18
361.603	-38.73
361.814	-27.83
362.025	-43.69
362.237	-40.84
362.448	-47.48
362.659	-7.85
362.871	-7.9
363.082	8.33
363.293	8.25
363.504	2.67
363.716	-39.72
363.927	-44.63
364.138	-88.36
364.349	-104.95
364.56	-82.52
364.772	-59.83
364.983	-30.13
365.194	-20.18
365.405	-2.09
365.616	9.15
365.827	11.48
366.038	-16.84
366.25	-15.23
366.461	-70.98
366.672	-55.76
366.883	-31.99
367.094	-16.79
367.305	-26.08
367.516	-10.37
367.727	-43.74
367.938	-62.84
368.149	-66.83
368.36	-39.93
368.571	-22.55
368.781	-21.26
368.992	-34.7
369.203	-44.94
369.414	-71.07
369.625	-84.38
369.836	-70.02
370.047	-87.08
370.258	-59.4
370.468	-56.96
370.679	-71.13
370.89	-69.57
371.101	-43.48
371.312	-64.61
371.522	-60.31
371.733	-35.3
371.944	-23.92
372.155	-13.82
372.365	-15.99
372.576	-16.38
372.787	-35.59
372.997	-52.98
373.208	-56.92
373.419	-20.09
373.629	-40.72
373.84	-26.87
374.05	-46.23
374.261	-32.21
374.472	-68.95
374.682	-13.66
374.893	-13.28
375.103	20.01
375.314	7.08
375.524	10.44
375.735	0.05
375.945	9.48
376.156	-14.12
376.366	-3.73
376.577	0.5
376.787	-20.17
376.997	-24.11
377.208	-31.14
377.418	-54.31
377.629	-36.49
377.839	-27.67
378.049	-26.38
378.26	-2.43
378.47	11.22
378.68	-5.77
378.89	-6.49
379.101	-7.35
379.311	-25.75
379.521	-51.68
379.732	-45.54
379.942	-37.51
380.152	-63.24
380.362	-36
380.572	-29.85
380.783	-9.68
380.993	-2.72
381.203	7.84
381.413	9.19
381.623	13.01
381.833	3.58
382.043	-12.7
382.253	-22.38
382.463	-20.1
382.674	-34.01
382.884	-53.69
383.094	-37.19
383.304	-22.97
383.514	-18.95
383.724	4.06
383.934	5.04
384.144	-9.18
384.353	-13.89
384.563	-18.51
384.773	-24.24
384.983	-32.47
385.193	-15.67
385.403	-7.27
385.613	-7.86
385.823	-22.05
386.033	-8.52
386.242	-17.16
386.452	-25.56
386.662	-34.23
386.872	-19.23
387.082	-25.57
387.291	-34.82
387.501	-37.17
387.711	-23.73
387.921	-30.42
388.13	-27.97
388.34	-9.22
388.55	-11.62
388.759	-14.59
388.969	-4.23
389.179	-6.07
389.388	-13.54
389.598	-7.49
389.807	-14.14
390.017	-23.95
390.227	-22.42
390.436	-21.03
390.646	-20.74
390.855	-13.42
391.065	-8.61
391.274	-10.18
391.484	-10.13
391.693	-9.53
391.903	-8.12
392.112	-5.13
392.322	-0.02
392.531	3.57
392.74	4.74
392.95	0.59
393.159	-0.81
393.369	-0.98
393.578	-2.43
393.787	-3.21
393.997	-1.96
394.206	-3.1
394.415	-3.52
394.625	-3.18
394.834	-5.75
395.043	-3.92
395.252	-0.74
395.462	1.81
395.671	2.56
395.88	4.09
396.089	4.71
396.298	1.62
396.508	-0.34
396.717	-1.53
396.926	-0.36
397.135	-1.27
397.344	-1.05
397.553	0.35
397.762	2.43
397.971	1.87
398.181	2.07
398.39	2.13
398.599	0.99
398.808	0.38
399.017	1.28
399.226	2.4
399.435	3.59
399.644	3.84
399.853	2.89
400.062	2.45
400.27	2
400.479	1.34
400.688	0.7
400.897	1.18
401.106	1.28
401.315	1.02
401.524	1.05
401.733	1.96
401.941	2.57
402.15	2.54
402.359	2.21
402.568	2.52
402.777	2.57
402.985	2.04
403.194	2.05
403.403	2.17
403.612	1.89
403.82	1.52
404.029	1.79
404.238	1.6
404.446	2
404.655	1.78
404.864	1.76
405.072	1.56
405.281	1.94
405.489	1.54
405.698	1.71
405.906	1.69
406.115	1.8
406.324	1.68
406.532	1.79
406.741	2.14
406.949	2.12
407.158	1.95
407.366	1.88
407.574	1.86
407.783	1.75
407.991	1.62
408.2	1.94
408.408	1.88
408.617	1.77
408.825	1.51
409.033	1.77
409.242	1.73
409.45	1.89
409.658	1.93
409.867	2.19
410.075	1.98
410.283	1.79
410.491	1.6
410.7	1.62
410.908	1.58
411.116	2.01
411.324	1.94
411.533	1.98
411.741	2.13
411.949	2.08
412.157	1.62
412.365	1.73
412.573	1.84
412.781	1.83
412.99	1.71
413.198	2
413.406	2.02
413.614	1.92
413.822	1.78
414.03	1.66
414.238	1.35
414.446	1.37
414.654	1.2
414.862	1.31
415.07	1.52
415.278	2
415.486	1.82
415.694	1.97
415.902	1.86
416.109	1.74
416.317	1.48
416.525	1.38
416.733	1.46
416.941	1.62
417.149	1.6
417.357	1.54
417.564	1.77
417.772	1.89
417.98	1.75
418.188	1.77
418.395	1.86
418.603	1.97
418.811	1.49
419.019	1.37
419.226	1.56
419.434	1.63
419.642	1.31
419.849	1.5
420.057	1.62
420.265	1.55
420.472	1.35
420.68	1.48
420.887	1.31
421.095	1.3
421.302	1.28
421.51	1.55
421.717	1.59
421.925	1.82
422.132	1.75
422.34	1.48
422.547	1.46
422.755	1.38
422.962	1.31
423.17	1.22
423.377	1.39
423.585	1.25
423.792	1.29
423.999	1.32
424.207	1.37
424.414	1.54
424.621	1.55
424.829	1.49
425.036	1.47
425.243	1.54
425.451	1.38
425.658	1.16
425.865	1.36
426.072	1.45
426.28	1.75
426.487	1.8
426.694	2
426.901	1.75
427.108	1.71
427.315	1.45
427.523	1.61
427.73	1.5
427.937	1.42
428.144	1.23
428.351	1.16
428.558	1.2
428.765	1.13
428.972	1.15
429.179	1.36
429.386	1.77
429.593	1.51
429.8	1.44
430.007	1.64
430.214	1.68
430.421	1.28
430.628	1.12
430.835	1.11
431.042	1.28
431.249	1.31
431.456	1.44
431.662	1.6
431.869	1.82
432.076	1.77
432.283	1.82
432.49	1.76
432.697	1.84
432.903	1.61
433.11	1.52
433.317	1.54
433.524	1.75
433.73	1.67
433.937	2.07
434.144	1.95
434.35	1.87
434.557	1.7
434.764	1.67
434.97	1.45
435.177	1.54
435.384	1.52
435.59	1.66
435.797	1.9
436.003	1.98
436.21	2
436.416	1.99
436.623	1.86
436.829	1.89
437.036	1.96
437.242	1.94
437.449	1.84
437.655	1.88
437.862	1.77
438.068	1.6
438.275	1.75
438.481	1.99
438.687	1.95
438.894	1.92
439.1	1.97
439.307	2.09
439.513	2
439.719	2.07
439.926	2.13
440.132	2.11
440.338	1.91
440.544	2.05
440.751	1.98
440.957	2.07
441.163	1.98
441.369	2.04
441.575	1.8
441.782	1.75
441.988	1.52
442.194	1.62
442.4	1.65
442.606	1.96
442.812	2.06
443.018	2.33
443.224	2.41
443.431	2.5
443.637	2.22
443.843	2.16
444.049	2.07
444.255	1.99
444.461	1.92
444.667	1.93
444.873	2.11
445.079	2.1
445.284	2.18
445.49	2
445.696	1.96
445.902	1.78
446.108	1.73
446.314	1.69
446.52	1.76
446.726	2.01
446.931	1.97
447.137	2
447.343	1.95
447.549	1.91
447.755	1.73
447.96	1.86
448.166	1.82
448.372	1.8
448.578	1.87
448.783	1.92
448.989	1.9
449.195	2.15
449.4	2.26
449.606	2.19
449.812	2.05
450.017	2.07
450.223	1.87
450.428	1.75
450.634	1.93
450.84	2.2
451.045	2.16
451.251	2.11
451.456	2.41
451.662	2.48
451.867	2.5
452.073	2.46
452.278	2.63
452.483	2.56
452.689	2.36
452.894	2.33
453.1	2.41
453.305	2.31
453.51	2.23
453.716	2.17
453.921	2.11
454.127	2
454.332	1.96
454.537	1.87
454.742	1.97
454.948	1.98
455.153	2.08
455.358	2.2
455.563	2.4
455.769	2.46
455.974	2.45
456.179	2.35
456.384	2.28
456.589	2.16
456.795	1.98
457	1.95
457.205	2.27
457.41	2.26
457.615	2.23
457.82	2.4
458.025	2.41
458.23	2.13
458.435	2.16
458.64	2.14
458.845	2.16
459.05	2.13
459.255	2.17
459.46	2.17
459.665	2.2
459.87	2.24
460.075	2.29
460.28	2.41
460.485	2.46
460.69	2.49
460.895	2.33
461.099	2.3
461.304	2.26
461.509	2.24
461.714	2.15
461.919	2.33
462.123	2.28
462.328	2.36
462.533	2.31
462.738	2.44
462.942	2.25
463.147	2.33
463.352	2.3
463.556	2.34
463.761	2.34
463.966	2.44
464.17	2.45
464.375	2.37
464.58	2.31
464.784	2.23
464.989	2.13
465.193	2.09
465.398	2.09
465.602	2.26
465.807	2.24
466.011	2.43
466.216	2.42
466.42	2.45
466.625	2.44
466.829	2.57
467.034	2.59
467.238	2.9
467.443	2.87
467.647	2.72
467.851	2.71
468.056	2.77
468.26	2.59
468.464	2.67
468.669	2.85
468.873	3.01
469.077	2.82
469.282	2.88
469.486	2.95
469.69	2.98
469.894	2.8
470.099	2.92
470.303	3
470.507	2.87
470.711	2.7
470.915	2.69
471.119	2.63
471.324	2.5
471.528	2.55
471.732	2.69
471.936	2.7
472.14	2.77
472.344	2.88
472.548	2.88
472.752	2.93
472.956	3.24
473.16	3.19
473.364	3.04
473.568	3.07
473.772	3.12
473.976	2.95
474.18	2.96
474.384	3.11
474.588	3.11
474.792	2.94
474.995	2.99
475.199	3.13
475.403	3.18
475.607	3.17
475.811	3.2
476.015	3.19
476.218	3.2
476.422	3.07
476.626	3.16
476.83	3.24
477.033	3.17
477.237	3.08
477.441	3.19
477.644	3.16
477.848	3.17
478.052	3.17
478.255	3.19
478.459	3.11
478.663	3.18
478.866	3.21
479.07	3.22
479.273	3.48
479.477	3.59
479.681	3.55
479.884	3.48
480.088	3.52
480.291	3.34
480.495	3.32
480.698	3.4
480.901	3.51
481.105	3.61
481.308	3.54
481.512	3.48
481.715	3.52
481.919	3.54
482.122	3.47
482.325	3.57
482.529	3.63
482.732	3.59
482.935	3.48
483.138	3.5
483.342	3.57
483.545	3.66
483.748	3.68
483.952	3.79
484.155	3.93
484.358	3.92
484.561	3.86
484.764	3.87
484.967	3.91
485.171	3.95
485.374	3.88
485.577	3.96
485.78	4
485.983	3.98
486.186	3.83
486.389	3.86
486.592	3.8
486.795	3.84
486.998	3.82
487.201	3.86
487.404	3.96
487.607	4.04
487.81	3.97
488.013	4.02
488.216	4.05
488.419	4
488.622	3.93
488.825	3.87
489.028	3.75
489.231	3.65
489.433	3.58
489.636	3.52
489.839	3.55
490.042	3.59
490.245	3.63
490.447	3.71
490.65	3.78
490.853	3.8
491.056	3.89
491.258	3.88
491.461	3.85
491.664	3.88
491.866	3.82
492.069	3.85
492.272	3.83
492.474	3.9
492.677	3.93
492.879	4.08
493.082	4.13
493.285	4.31
493.487	4.26
493.69	4.18
493.892	4.04
494.095	3.94
494.297	3.84
494.5	3.85
494.702	3.92
494.905	4
495.107	4.01
495.309	4
495.512	4.11
495.714	4.13
495.917	4.16
496.119	4.15
496.321	4.24
496.524	4.23
496.726	4.23
496.928	4.26
497.13	4.26
497.333	4.21
497.535	4.22
497.737	4.2
497.939	4.16
498.142	4.21
498.344	4.21
498.546	4.1
498.748	4.17
498.95	4.29
499.152	4.25
499.355	4.31
499.557	4.43
499.759	4.5
499.961	4.42
500.163	4.52
500.365	4.52
500.567	4.55
500.769	4.47
500.971	4.51
501.173	4.37
501.375	4.42
501.577	4.34
501.779	4.33
501.981	4.34
502.183	4.41
502.385	4.37
502.587	4.33
502.788	4.43
502.99	4.46
503.192	4.5
503.394	4.48
503.596	4.59
503.798	4.61
503.999	4.72
504.201	4.7
504.403	4.8
504.605	4.8
504.806	4.75
505.008	4.66
505.21	4.77
505.411	4.75
505.613	4.77
505.815	4.85
506.016	4.95
506.218	5.05
506.42	5.03
506.621	5.05
506.823	5.05
507.024	4.95
507.226	4.81
507.427	4.81
507.629	4.89
507.83	4.91
508.032	4.9
508.233	5.02
508.435	5.05
508.636	5.04
508.838	4.97
509.039	5.02
509.24	5.01
509.442	5.06
509.643	5.01
509.845	5.1
510.046	5.22
510.247	5.26
510.448	5.28
510.65	5.38
510.851	5.47
511.052	5.39
511.254	5.34
511.455	5.41
511.656	5.4
511.857	5.43
512.058	5.47
512.26	5.52
512.461	5.47
512.662	5.51
512.863	5.42
513.064	5.39
513.265	5.43
513.466	5.46
513.667	5.39
513.868	5.41
514.069	5.49
514.27	5.49
514.471	5.46
514.672	5.51
514.873	5.57
515.074	5.67
515.275	5.59
515.476	5.63
515.677	5.68
515.878	5.73
516.079	5.63
516.28	5.72
516.481	5.84
516.682	5.85
516.882	5.78
517.083	5.78
517.284	5.68
517.485	5.58
517.686	5.55
517.886	5.56
518.087	5.63
518.288	5.74
518.488	5.76
518.689	5.76
518.89	5.71
519.091	5.67
519.291	5.61
519.492	5.66
519.692	5.73
519.893	5.86
520.094	5.84
520.294	5.87
520.495	5.88
520.695	5.91
520.896	5.88
521.096	5.96
521.297	6.02
521.497	6.03
521.698	5.93
521.898	5.91
522.099	5.88
522.299	5.94
522.499	5.92
522.7	6.03
522.9	6.01
523.101	6.14
523.301	6.11
523.501	6.14
523.702	6.16
523.902	6.3
524.102	6.26
524.302	6.22
524.503	6.25
524.703	6.24
524.903	6.23
525.103	6.23
525.304	6.4
525.504	6.44
525.704	6.52
525.904	6.5
526.104	6.46
526.304	6.4
526.504	6.44
526.705	6.37
526.905	6.46
527.105	6.5
527.305	6.49
527.505	6.42
527.705	6.46
527.905	6.42
528.105	6.42
528.305	6.37
528.505	6.41
528.705	6.45
528.905	6.42
529.105	6.46
529.304	6.59
529.504	6.69
529.704	6.62
529.904	6.68
530.104	6.7
530.304	6.73
530.503	6.71
530.703	6.7
530.903	6.66
531.103	6.74
531.303	6.68
531.502	6.7
531.702	6.84
531.902	6.91
532.101	6.85
532.301	6.87
532.501	6.84
532.7	6.8
532.9	6.81
533.1	6.82
533.299	6.83
533.499	6.92
533.698	6.9
533.898	6.87
534.097	6.9
534.297	6.94
534.496	6.9
534.696	6.96
534.895	7.09
535.095	7.22
535.294	7.21
535.494	7.17
535.693	7.21
535.892	7.19
536.092	7.05
536.291	7.02
536.491	7.14
536.69	7.15
536.889	7.03
537.088	7.08
537.288	7.19
537.487	7.23
537.686	7.24
537.886	7.4
538.085	7.43
538.284	7.55
538.483	7.48
538.682	7.52
538.882	7.52
539.081	7.63
539.28	7.53
539.479	7.58
539.678	7.58
539.877	7.72
540.076	7.72
540.275	7.79
540.474	7.92
540.673	7.96
540.872	7.87
541.071	7.91
541.27	7.92
541.469	7.94
541.668	7.99
541.867	8.03
542.066	8.05
542.265	8.13
542.464	8.03
542.663	8.04
542.862	8.21
543.06	8.26
543.259	8.32
543.458	8.46
543.657	8.57
543.856	8.57
544.054	8.53
544.253	8.5
544.452	8.47
544.651	8.54
544.849	8.49
545.048	8.6
545.247	8.67
545.445	8.8
545.644	8.72
545.843	8.71
546.041	8.74
546.24	8.82
546.438	8.86
546.637	8.94
546.836	9.12
547.034	9.19
547.233	9.21
547.431	9.14
547.63	9.21
547.828	9.19
548.027	9.18
548.225	9.2
548.423	9.29
548.622	9.35
548.82	9.38
549.019	9.5
549.217	9.67
549.415	9.77
549.614	9.85
549.812	9.87
550.01	9.82
550.209	9.76
550.407	9.76
550.605	9.75
550.803	9.91
551.002	9.99
551.2	10.09
551.398	10.21
551.596	10.4
551.794	10.43
551.993	10.52
552.191	10.54
552.389	10.68
552.587	10.7
552.785	10.76
552.983	10.92
553.181	11.02
553.379	11.02
553.577	11.01
553.775	11.12
553.973	11.11
554.171	11.18
554.369	11.17
554.567	11.25
554.765	11.31
554.963	11.42
555.161	11.37
555.359	11.55
555.557	11.72
555.755	11.82
555.952	11.91
556.15	12.08
556.348	12.14
556.546	12.24
556.744	12.29
556.941	12.38
557.139	12.49
557.337	12.53
557.535	12.49
557.732	12.62
557.93	12.74
558.128	12.86
558.325	12.98
558.523	13.06
558.721	13.17
558.918	13.18
559.116	13.22
559.313	13.25
559.511	13.38
559.708	13.33
559.906	13.42
560.104	13.48
560.301	13.6
560.498	13.63
560.696	13.79
560.893	13.88
561.091	14.04
561.288	14.19
561.486	14.32
561.683	14.39
561.88	14.46
562.078	14.47
562.275	14.44
562.473	14.52
562.67	14.72
562.867	14.88
563.064	15.06
563.262	15.16
563.459	15.16
563.656	15.21
563.853	15.2
564.051	15.19
564.248	15.33
564.445	15.5
564.642	15.56
564.839	15.75
565.036	15.96
565.234	16.14
565.431	16.22
565.628	16.34
565.825	16.43
566.022	16.54
566.219	16.52
566.416	16.63
566.613	16.72
566.81	16.78
567.007	16.69
567.204	16.8
567.401	16.84
567.598	16.92
567.795	16.92
567.991	17.02
568.188	17.1
568.385	17.18
568.582	17.16
568.779	17.25
568.976	17.37
569.172	17.47
569.369	17.47
569.566	17.52
569.763	17.61
569.96	17.6
570.156	17.62
570.353	17.66
570.55	17.73
570.746	17.79
570.943	17.86
571.14	17.88
571.336	17.92
571.533	18.05
571.729	18.03
571.926	18.09
572.123	18.21
572.319	18.33
572.516	18.28
572.712	18.38
572.909	18.43
573.105	18.51
573.302	18.48
573.498	18.55
573.695	18.6
573.891	18.67
574.087	18.6
574.284	18.69
574.48	18.67
574.677	18.68
574.873	18.66
575.069	18.73
575.266	18.77
575.462	18.75
575.658	18.84
575.854	19
576.051	19.05
576.247	18.99
576.443	19.07
576.639	19.01
576.835	18.88
577.032	18.83
577.228	19.06
577.424	19.11
577.62	19.05
577.816	19.13
578.012	19.06
578.208	18.92
578.404	18.97
578.6	19.03
578.796	19.04
578.993	19.13
579.189	19.05
579.384	18.88
579.58	18.87
579.776	18.77
579.972	18.67
580.168	18.67
580.364	18.79
580.56	18.79
580.756	18.91
580.952	18.95
581.148	18.99
581.343	18.96
581.539	19.01
581.735	18.96
581.931	19.02
582.127	19.01
582.322	18.96
582.518	19.04
582.714	19.07
582.909	19.01
583.105	18.97
583.301	19.01
583.496	18.94
583.692	18.8
583.888	18.8
584.083	18.94
584.279	18.95
584.474	18.87
584.67	18.93
584.866	18.94
585.061	18.77
585.257	18.84
585.452	18.97
585.648	18.94
585.843	18.99
586.039	19.05
586.234	18.97
586.429	18.78
586.625	18.87
586.82	18.75
587.015	18.64
587.211	18.54
587.406	18.72
587.601	18.64
587.797	18.67
587.992	18.81
588.187	18.91
588.383	18.79
588.578	18.81
588.773	18.86
588.968	18.89
589.163	18.95
589.359	19.02
589.554	19.01
589.749	19.01
589.944	19.04
590.139	19
590.334	19.01
590.529	19.06
590.724	19.11
590.919	19.2
591.114	19.24
591.309	19.34
591.504	19.41
591.699	19.39
591.894	19.32
592.089	19.26
592.284	19.2
592.479	19.28
592.674	19.27
592.869	19.35
593.064	19.59
593.259	19.78
593.454	19.91
593.648	20.05
593.843	20.07
594.038	20.03
594.233	19.98
594.428	19.85
594.622	19.88
594.817	19.92
595.012	19.95
595.206	19.95
595.401	20.05
595.596	20.08
595.79	20.2
595.985	20.42
596.18	20.6
596.374	20.74
596.569	20.86
596.763	20.82
596.958	20.81
597.153	20.87
597.347	20.89
597.542	21.02
597.736	21.1
597.931	21.17
598.125	21.19
598.319	21.36
598.514	21.37
598.708	21.5
598.903	21.48
599.097	21.55
599.291	21.48
599.486	21.47
599.68	21.44
599.874	21.6
600.069	21.53
600.263	21.57
600.457	21.67
600.651	21.72
600.846	21.74
601.04	21.86
601.234	21.91
601.428	22.01
601.622	22.12
601.817	22.15
602.011	22.2
602.205	22.32
602.399	22.21
602.593	22.17
602.787	22.13
602.981	22.14
603.175	22.14
603.369	22.15
603.563	22.25
603.757	22.4
603.951	22.43
604.145	22.36
604.339	22.49
604.533	22.31
604.727	22.21
604.921	22.18
605.115	22.24
605.309	22.28
605.502	22.29
605.696	22.3
605.89	22.28
606.084	22.18
606.278	22.05
606.471	22.1
606.665	22
606.859	21.86
607.053	21.76
607.246	21.72
607.44	21.72
607.634	21.69
607.827	21.77
608.021	21.76
608.214	21.67
608.408	21.51
608.602	21.39
608.795	21.34
608.989	21.28
609.182	21.2
609.376	21.2
609.569	21.21
609.763	21.09
609.956	20.96
610.15	20.86
610.343	20.83
610.537	20.73
610.73	20.78
610.923	20.81
611.117	20.87
611.31	20.74
611.504	20.77
611.697	20.62
611.89	20.5
612.083	20.43
612.277	20.48
612.47	20.31
612.663	20.28
612.856	20.24
613.05	20.17
613.243	20.04
613.436	19.98
613.629	19.8
613.822	19.7
614.015	19.63
614.209	19.49
614.402	19.47
614.595	19.52
614.788	19.49
614.981	19.34
615.174	19.3
615.367	19.21
615.56	19.1
615.753	19.12
615.946	19.1
616.139	19.2
616.332	19.29
616.525	19.3
616.718	19.29
616.911	19.27
617.103	19.16
617.296	19.05
617.489	18.94
617.682	18.87
617.875	18.84
618.067	18.79
618.26	18.64
618.453	18.74
618.646	18.72
618.838	18.71
619.031	18.76
619.224	18.86
619.417	18.76
619.609	18.68
619.802	18.56
619.994	18.52
620.187	18.49
620.38	18.39
620.572	18.29
620.765	18.37
620.957	18.25
621.15	18.13
621.342	18.18
621.535	18.3
621.727	18.19
621.92	18.24
622.112	18.2
622.305	18.22
622.497	18.09
622.69	18.17
622.882	18.09
623.074	18.07
623.267	17.96
623.459	17.94
623.651	17.77
623.844	17.81
624.036	17.81
624.228	17.83
624.42	17.85
624.613	18.02
624.805	17.88
624.997	17.9
625.189	17.87
625.381	17.83
625.574	17.7
625.766	17.73
625.958	17.7
626.15	17.77
626.342	17.79
626.534	17.71
626.726	17.61
626.918	17.56
627.11	17.45
627.302	17.32
627.494	17.3
627.686	17.38
627.878	17.36
628.07	17.38
628.262	17.4
628.454	17.49
628.646	17.45
628.838	17.39
629.029	17.23
629.221	17.29
629.413	17.14
629.605	16.97
629.797	16.97
629.989	17
630.18	16.93
630.372	16.93
630.564	17.05
630.755	17.05
630.947	17.07
631.139	16.91
631.33	16.85
631.522	16.93
631.714	16.95
631.905	16.84
632.097	16.79
632.289	16.86
632.48	16.73
632.672	16.57
632.863	16.55
633.055	16.58
633.246	16.54
633.438	16.47
633.629	16.47
633.821	16.52
634.012	16.65
634.203	16.51
634.395	16.59
634.586	16.57
634.777	16.52
634.969	16.41
635.16	16.51
635.351	16.4
635.543	16.47
635.734	16.51
635.925	16.45
636.117	16.47
636.308	16.55
636.499	16.44
636.69	16.32
636.881	16.26
637.073	16.3
637.264	16.25
637.455	16.37
637.646	16.47
637.837	16.58
638.028	16.46
638.219	16.52
638.41	16.34
638.601	16.28
638.792	16.25
638.983	16.24
639.174	16.09
639.365	16.23
639.556	16.18
639.747	16.12
639.938	16.14
640.129	16.15
640.32	16
640.511	16.06
640.701	16.21
640.892	16.18
641.083	16.31
641.274	16.37
641.465	16.33
641.655	16.16
641.846	16.12
642.037	16
642.228	15.89
642.418	15.87
642.609	15.85
642.8	15.89
642.99	15.77
643.181	15.83
643.372	15.91
643.562	15.9
643.753	15.74
643.943	15.76
644.134	15.63
644.324	15.44
644.515	15.37
644.705	15.49
644.896	15.55
645.086	15.61
645.277	15.64
645.467	15.76
645.658	15.68
645.848	15.66
646.038	15.62
646.229	15.61
646.419	15.45
646.61	15.43
646.8	15.32
646.99	15.33
647.18	15.27
647.371	15.37
647.561	15.3
647.751	15.37
647.941	15.36
648.132	15.36
648.322	15.32
648.512	15.43
648.702	15.38
648.892	15.36
649.082	15.4
649.272	15.27
649.462	15.1
649.653	15
649.843	14.94
650.033	14.89
650.223	14.85
650.413	14.76
650.603	14.82
650.793	14.87
650.983	14.74
651.172	14.77
651.362	14.8
651.552	14.72
651.742	14.53
651.932	14.63
652.122	14.6
652.312	14.64
652.502	14.59
652.691	14.66
652.881	14.51
653.071	14.44
653.261	14.23
653.45	14.06
653.64	13.99
653.83	13.93
654.019	13.82
654.209	13.86
654.399	13.94
654.588	13.82
654.778	13.7
654.968	13.57
655.157	13.47
655.347	13.32
655.536	13.15
655.726	13.07
655.915	12.92
656.105	12.76
656.294	12.65
656.484	12.47
656.673	12.36
656.863	12.32
657.052	12.18
657.241	11.94
657.431	11.81
657.62	11.56
657.809	11.25
657.999	11.15
658.188	11.03
658.377	10.97
658.567	10.95
658.756	10.89
658.945	10.66
659.134	10.51
659.324	10.29
659.513	10.08
659.702	9.92
659.891	9.84
660.08	9.68
660.269	9.64
660.458	9.46
660.648	9.39
660.837	9.18
661.026	9.11
661.215	8.88
661.404	8.73
661.593	8.58
661.782	8.43
661.971	8.27
662.16	8.16
662.349	8.05
662.538	7.87
662.726	7.83
662.915	7.72
663.104	7.57
663.293	7.53
663.482	7.58
663.671	7.45
663.86	7.35
664.048	7.22
664.237	7.19
664.426	6.92
664.615	6.89
664.803	6.77
664.992	6.69
665.181	6.49
665.369	6.37
665.558	6.27
665.747	6.09
665.935	6.17
666.124	6.21
666.312	6.32
666.501	6.19
666.69	6.18
666.878	6.04
667.067	5.82
667.255	5.8
667.444	6.04
667.632	6.07
667.82	6.19
668.009	6.15
668.197	5.99
668.386	5.81
668.574	5.86
668.762	5.66
668.951	5.69
669.139	5.75
669.327	5.61
669.516	5.69
669.704	5.69
669.892	5.8
670.08	5.72
670.269	5.67
670.457	5.47
670.645	5.37
670.833	5.41
671.021	5.48
671.21	5.52
671.398	5.78
671.586	5.77
671.774	5.6
671.962	5.56
672.15	5.57
672.338	5.38
672.526	5.52
672.714	5.48
672.902	5.58
673.09	5.79
673.278	6.01
673.466	5.97
673.654	6.13
673.842	6.04
674.03	5.97
674.218	5.78
674.405	5.86
674.593	5.82
674.781	5.99
674.969	6.1
675.157	6.22
675.344	6.38
675.532	6.47
675.72	6.52
675.908	6.53
676.095	6.51
676.283	6.46
676.471	6.69
676.658	6.65
676.846	6.57
677.033	6.74
677.221	6.84
677.409	6.64
677.596	6.69
677.784	6.8
677.971	6.87
678.159	6.89
678.346	7.02
678.534	7.1
678.721	7.36
678.909	7.36
679.096	7.4
679.283	7.58
679.471	7.73
679.658	7.75
679.846	7.95
680.033	8.26
680.22	8.28
680.408	8.2
680.595	8.22
680.782	8.13
680.969	8.09
681.157	8.26
681.344	8.46
681.531	8.55
681.718	8.67
681.905	8.91
682.093	9.03
682.28	9.26
682.467	9.53
682.654	9.79
682.841	9.91
683.028	10.19
683.215	10.32
683.402	10.25
683.589	10.47
683.776	10.77
683.963	10.77
684.15	11.08
684.337	11.46
684.524	11.69
684.711	11.88
684.898	12.09
685.085	12.17
685.271	12.51
685.458	12.75
685.645	12.79
685.832	13.18
686.019	13.54
686.205	13.71
686.392	14.01
686.579	14.36
686.766	14.6
686.952	14.88
687.139	15.42
687.326	15.56
687.512	16.05
687.699	16.49
687.886	16.75
688.072	16.9
688.259	17.41
688.445	17.84
688.632	17.99
688.818	18.72
689.005	19.12
689.191	19.57
689.378	20.09
689.564	20.81
689.751	21.18
689.937	21.61
690.124	22.04
690.31	22.19
690.496	22.55
690.683	23.02
690.869	23.56
691.055	24.05
691.242	24.74
691.428	25.44
691.614	26.06
691.8	26.64
691.987	27.2
692.173	27.9
692.359	28.39
692.545	28.96
692.731	29.55
692.918	30.1
693.104	30.45
693.29	31.2
693.476	31.72
693.662	32.48
693.848	33.18
694.034	33.98
694.22	34.41
694.406	34.91
694.592	35.42
694.778	35.99
694.964	36.43
695.15	37.18
695.336	37.77
695.522	38.56
695.708	39.24
695.894	39.93
696.08	40.52
696.265	41.25
696.451	41.61
696.637	42.25
696.823	42.74
697.009	43.11
697.194	43.48
697.38	43.91
697.566	44.25
697.751	44.81
697.937	45.57
698.123	46.35
698.308	46.92
698.494	47.51
698.68	47.86
698.865	48.12
699.051	48.49
699.236	48.89
699.422	49.22
699.607	49.68
699.793	50.04
699.978	50.45
700.164	50.76
700.349	51.53
700.535	52.06
700.72	52.62
700.906	53.33
701.091	53.98
701.276	54.03
701.462	54.67
701.647	55.17
701.832	55.35
702.018	55.83
702.203	56.23
702.388	56.11
702.573	56.51
702.759	57.05
702.944	57.25
703.129	57.63
703.314	58.17
703.499	58.29
703.684	58.3
703.87	59.23
704.055	59.72
704.24	60.03
704.425	60.56
704.61	60.64
704.795	60.46
704.98	60.49
705.165	60.57
705.35	61.05
705.535	61.57
705.72	61.59
705.905	62.13
706.09	62.74
706.275	62.63
706.459	62.67
706.644	63.06
706.829	63.11
707.014	63.3
707.199	63.74
707.384	63.95
707.568	63.84
707.753	64.32
707.938	64.49
708.123	64.43
708.307	64.79
708.492	65.32
708.677	65.33
708.861	65.19
709.046	65.17
709.231	65.91
709.415	66.08
709.6	66.04
709.784	66.31
709.969	66.63
710.153	66.18
710.338	66.29
710.522	66.79
710.707	67.36
710.891	67.31
711.076	67.91
711.26	67.88
711.445	67.97
711.629	67.88
711.813	68.19
711.998	68.14
712.182	68.3
712.366	69.18
712.551	69.99
712.735	70.16
712.919	69.82
713.103	70.54
713.288	69.65
713.472	68.96
713.656	69.97
713.84	70.53
714.024	70.14
714.208	70.12
714.393	70.56
714.577	70.35
714.761	70.54
714.945	70.74
715.129	71.45
715.313	71.4
715.497	71.08
715.681	71.56
715.865	71.53
716.049	71.56
716.233	71.43
716.417	71.6
716.601	71.39
716.785	71.61
716.968	71.71
717.152	72.31
717.336	72.29
717.52	72.11
717.704	72.3
717.888	72.77
718.071	72.73
718.255	72.86
718.439	72.85
718.622	73.02
718.806	72.93
718.99	72.79
719.174	72.89
719.357	73.05
719.541	72.95
719.724	72.6
719.908	73.51
720.092	73.99
720.275	74.55
720.459	74.57
720.642	74.56
720.826	73.67
721.009	73.38
721.193	72.38
721.376	72.41
721.559	72.84
721.743	73.3
721.926	73.47
722.11	74.12
722.293	74.36
722.476	73.87
722.66	73.64
722.843	73.1
723.026	72.72
723.21	73.06
723.393	73.81
723.576	73.94
723.759	73.72
723.942	74.12
724.126	73.84
724.309	73.77
724.492	73.78
724.675	74.42
724.858	74.84
725.041	75.14
725.224	75.29
725.407	75.45
725.59	76.04
725.774	75.84
725.957	75.3
726.14	74.76
726.322	74.4
726.505	73.46
726.688	73.99
726.871	73.79
727.054	73.95
727.237	74.06
727.42	75.01
727.603	74.62
727.786	75
727.968	75.23
728.151	75.49
728.334	75.11
728.517	74.87
728.699	75.34
728.882	75.49
729.065	75.83
729.248	76.27
729.43	77.13
729.613	78.2
729.796	78.71
729.978	78.41
730.161	77.93
730.343	77.28
730.526	76.97
730.708	75.93
730.891	75.8
731.073	76.42
731.256	76.61
731.438	76.31
731.621	77.24
731.803	77.87
731.986	78.15
732.168	77.42
732.35	77.34
732.533	76.78
732.715	76.57
732.898	76.77
733.08	77.53
733.262	78.33
733.444	77.94
733.627	78.11
733.809	77.77
733.991	78.33
734.173	76.87
734.355	77.79
734.538	78.26
734.72	77.94
734.902	77.41
735.084	77.94
735.266	77.64
735.448	77.34
735.63	76.81
735.812	77.3
735.994	78.09
736.176	78.87
736.358	78.59
736.54	80.44
736.722	79.66
736.904	78.93
737.086	78.35
737.268	79.9
737.45	79.07
737.632	79.68
737.814	79.13
737.995	79.37
738.177	77.94
738.359	77.42
738.541	77.29
738.723	77.97
738.904	78.41
739.086	78.7
739.268	79.36
739.449	79.78
739.631	79.73
739.813	79.31
739.994	79.78
740.176	79.45
740.358	79.52
740.539	80.76
740.721	81.31
740.902	81.56
741.084	81.26
741.265	80.53
741.447	80.78
741.628	80.92
741.81	79.55
741.991	80.35
742.172	81.64
742.354	81.42
742.535	81.02
742.717	82.36
742.898	82.35
743.079	83.03
743.261	82.66
743.442	82.45
743.623	82.55
743.804	82.22
743.986	81.1
744.167	78.98
744.348	78.77
744.529	78.76
744.71	78
744.891	77.81
745.073	79.03
745.254	79.11
745.435	78.24
745.616	78.16
745.797	78.51
745.978	78.04
746.159	78.43
746.34	77.72
746.521	80.32
746.702	79.51
746.883	79.17
747.064	78.13
747.245	78.66
747.426	76.88
747.606	77.53
747.787	78.66
747.968	79.2
748.149	81.06
748.33	80.93
748.51	80.6
748.691	79.8
748.872	80.36
749.053	78.52
749.233	77.86
749.414	77.59
749.595	77.09
749.775	75.6
749.956	75.65
750.137	76.14
750.317	77.37
750.498	79.03
750.678	79.42
750.859	79.51
751.04	79.87
751.22	78.4
751.4	77.09
751.581	76.3
751.761	76.63
751.942	76.6
752.122	76.83
752.303	76.65
752.483	77.46
752.663	77.42
752.844	76.73
753.024	77.59
753.204	78.54
753.385	78.63
753.565	78.59
753.745	79.17
753.925	78.42
754.106	77.05
754.286	77.23
754.466	75.86
754.646	75.72
754.826	75.35
755.006	74.66
755.187	75.88
755.367	78.08
755.547	78.55
755.727	79.22
755.907	80.13
756.087	80.3
756.267	79.03
756.447	79.57
756.627	77.84
756.807	79.31
756.987	78.11
757.167	79.09
757.346	78.37
757.526	77.73
757.706	77.37
757.886	76.41
758.066	75.85
758.246	77.17
758.425	78.23
758.605	77.61
758.785	78.32
758.965	78.35
759.144	74.71
759.324	74.83
759.504	74.99
759.683	74.27
759.863	72.7
760.043	72.78
760.222	73.03
760.402	72.83
760.581	72.38
760.761	74.15
760.94	74.51
761.12	74.77
761.299	75.42
761.479	75.62
761.658	73.69
761.838	73.44
762.017	74.81
762.197	74.16
762.376	75.31
762.555	77.61
762.735	79.45
762.914	77.58
763.093	78.13
763.273	77.47
763.452	76.89
763.631	75.4
763.81	75.44
763.99	74.78
764.169	74.88
764.348	72.32
764.527	71.35
764.706	73.17
764.885	73.99
765.064	73.28
765.243	74.22
765.423	76.57
765.602	75.35
765.781	72.41
765.96	70.64
766.139	70.97
766.318	70.92
766.497	70.49
766.676	72.31
766.854	75.62
767.033	75.87
767.212	75.19
767.391	75.46
767.57	76.43
767.749	74.91
767.928	76.33
768.106	75.03
768.285	72.73
768.464	71.76
768.643	70.6
768.821	69.9
769	72.21
769.179	71.83
769.357	70.5
769.536	71.09
769.715	70.4
769.893	70.73
770.072	72.35
770.25	73.97
770.429	73.49
770.607	73.45
770.786	71.79
770.964	73.85
771.143	73.17
771.321	76.82
771.5	77.23
771.678	75.58
771.857	73.58
772.035	71.98
772.213	67.73
772.392	66.39
772.57	69.33
772.748	69.41
772.927	70.5
773.105	71.41
773.283	71.9
773.461	71.09
773.64	70.05
773.818	69.53
773.996	71.61
774.174	69.46
774.352	66.73
774.531	65.01
774.709	67.04
774.887	64.28
775.065	64.36
775.243	65.62
775.421	67.22
775.599	67.83
775.777	67
775.955	66.6
776.133	64.67
776.311	63.97
776.489	59.7
776.667	61.77
776.844	63.41
777.022	63.51
777.2	65.44
777.378	66.63
777.556	66.84
777.734	69.93
777.911	73.6
778.089	71.98
778.267	75.36
778.445	74.4
778.622	71.64
778.8	71.37
778.978	73.49
779.155	71.21
779.333	71.17
779.511	70.8
779.688	72.32
779.866	68.37
780.043	65.74
780.221	64.24
780.398	63.55
780.576	63.75
780.753	65.28
780.931	67.02
781.108	68.18
781.286	70.33
781.463	64.37
781.64	63.42
781.818	64.73
781.995	65.04
782.172	64.9
782.35	65.17
782.527	70.54
782.704	67.85
782.882	68.52
783.059	65.03
783.236	69.67
783.413	69.07
783.59	70.48
783.768	66.44
783.945	71.79
784.122	70.87
784.299	67.96
784.476	68.24
784.653	68.12
784.83	61.62
785.007	57.22
785.184	57.43
785.361	54.62
785.538	61.77
785.715	68.9
785.892	68.95
786.069	71.44
786.246	74.04
786.423	70.45
786.6	64.96
786.776	70.51
786.953	67.33
787.13	68.32
787.307	66.66
787.484	66.26
787.66	63.74
787.837	64.04
788.014	61.55
788.191	62.77
788.367	63.15
788.544	62.54
788.721	60.82
788.897	63.84
789.074	63.34
789.25	62.64
789.427	65.49
789.603	64.84
789.78	64.82
789.956	61.93
790.133	59.43
790.309	58.35
790.486	64.26
790.662	59.75
790.839	62.72
791.015	64.37
791.192	60.53
791.368	61.23
791.544	62.17
791.721	62.85
791.897	65.61
792.073	66.5
792.249	60.02
792.426	62.16
792.602	64.33
792.778	64.16
792.954	65.5
793.13	65.65
793.307	56.23
793.483	46.52
793.659	45.49
793.835	48.34
794.011	45.55
794.187	50.08
794.363	53.14
794.539	54.43
794.715	47.26
794.891	52.31
795.067	54.49
795.243	60.22
795.419	59.25
795.595	61.82
795.771	57.39
795.947	57.35
796.122	51.25
796.298	56.78
796.474	59.52
796.65	59.78
796.826	59.32
797.001	63.16
797.177	52.99
797.353	55.29
797.529	58.3
797.704	59.2
797.88	54.46
798.056	53.2
798.231	48.13
798.407	54
798.582	55.78
798.758	63.67
798.934	73.27
799.109	72.07
799.285	63.74
799.46	65.34
799.636	63.76
799.811	60.26
799.986	66.4
800.162	69.55
800.337	69.51
800.513	58.09
800.688	55.07
800.863	56.25
801.039	48.39
801.214	39.53
801.389	52.05
801.565	53.85
801.74	38.93
801.915	50.13
802.09	54.66
802.265	60.48
802.441	55.91
802.616	60.71
802.791	60.67
802.966	61.03
803.141	57.58
803.316	60.07
803.491	63.99
803.666	61.12
803.841	57.88
804.016	47.31
804.191	47.6
804.366	42.91
804.541	42.73
804.716	41.64
804.891	36.51
805.066	43.03
805.241	47.36
805.416	45.12
805.591	48.88
805.765	56.22
805.94	52.8
806.115	53.74
806.29	47.77
806.464	47.98
806.639	43.7
806.814	35.99
806.989	22.53
807.163	44.45
807.338	42.88
807.512	44.23
807.687	38.66
807.862	55.49
808.036	46.44
808.211	50.7
808.385	57.91
808.56	79.66
808.734	87.41
808.909	78.67
809.083	72.61
809.258	74.91
809.432	69.65
809.606	47.39
809.781	52.37
809.955	53.29
810.13	54.26
810.304	42.04
810.478	45.01
810.652	47.86
810.827	48.97
811.001	41.83
811.175	40.18
811.349	40.78
811.524	34.7
811.698	25.04
811.872	22.18
812.046	36.77
812.22	45.02
812.394	43.78
812.568	48.46
812.742	57.34
812.916	53.68
813.09	44.77
813.264	48.42
813.438	53.06
813.612	49.17
813.786	41.67
813.96	49.53
814.134	50.56
814.308	60.78
814.482	61.33
814.656	61.52
814.83	60.69
815.003	57.03
815.177	45.63
815.351	37.7
815.525	43.54
815.698	37.18
815.872	36.1
816.046	28.35
816.219	30.8
816.393	41.89
816.567	53.91
816.74	54.92
816.914	63.08
817.088	70.45
817.261	43.48
817.435	16.95
817.608	26.53
817.782	11.21
817.955	1.86
818.129	16.3
818.302	35.37
818.475	36.33
818.649	41.67
818.822	41.01
818.996	58.77
819.169	55.38
819.342	42.92
819.516	52.55
819.689	56.85
819.862	39.44
820.035	28.26
820.209	22.86
820.382	23
820.555	28.17
820.728	19.18
820.901	22.36
821.075	29.89
821.248	33.35
821.421	17.89
821.594	24.6
821.767	49.36
821.94	65.74
822.113	35.96
822.286	36.01
822.459	39.67
822.632	19.2
822.805	2.04
822.978	3.71
823.151	1.17
823.324	-12.02
823.496	-44.98
823.669	-45.79
823.842	-37.72
824.015	-51.12
824.188	-60.03
824.361	-35.48
824.533	-39.47
824.706	-7.31
824.879	0.47
825.051	14.67
825.224	22.37
825.397	10.72
825.569	-18.58
825.742	3.39
825.915	27.46
826.087	33.62
826.26	34.6
826.432	35.3
826.605	36.22
826.777	11.2
826.95	10.78
827.122	5.2
827.295	7.58
827.467	12.41
827.64	-11.54
827.812	-8.45
827.984	-5.47
828.157	-6.16
828.329	-58.58
828.501	-34.7
828.674	-22.47
828.846	-25.03
829.018	1.87
829.19	7.06
829.363	39.46
829.535	39.05
829.707	50.28
829.879	10.33
830.051	-10.94
830.223	-37.21
830.395	-66.91
830.568	-86.13
830.74	-75.84
830.912	-13.61
831.084	-18.56
831.256	-14.87
831.428	-27.86
831.6	-41.13
831.772	-92.94
831.943	-116.55
832.115	-74.38
832.287	-30.16
832.459	-15.69
832.631	-1.18
832.803	36.48
832.975	43.88
833.146	6.07
833.318	1.65
833.49	16.73
833.662	-6.22
833.833	-19.82
834.005	8.09
834.177	9.11
834.348	8.61
834.52	-24.2
834.692	-25.43
834.863	-67.62
835.035	-51.62
835.206	-110.21
835.378	-72.45
835.549	-77.34
835.721	-69.28
835.892	-52.65
836.064	-50.25
836.235	-43.22
836.407	-18.46
836.578	-31.35
836.749	-37.3
836.921	-52.02
837.092	-72.01
837.264	-72.38
837.435	-66.99
837.606	-24.67
837.777	23.99
837.949	35.07
838.12	26.72
838.291	36.36
838.462	22.45
838.633	-20.25
838.805	-25.65
838.976	-32.53
839.147	-99.23
839.318	-103.12
839.489	-148.66
839.66	-103.12
839.831	-49.65
840.002	-55.26
840.173	-72.11
840.344	-2.86
840.515	-23.3
840.686	-185.11
840.857	-125.43
841.028	-96.86
841.199	-77.23
841.369	-124.6
841.54	-93.84
841.711	-46.18
841.882	0.93
842.053	-32.29
842.223	-20.2
842.394	11.55
842.565	26.74
842.736	3.47
842.906	24.1
843.077	38.4
843.248	36.69
843.418	45.99
843.589	16.97
843.759	81.8
843.93	36.93
844.101	12.46
844.271	1.97
844.442	18.29
844.612	20.57
844.783	4.4
844.953	-10.78
845.123	-32.57
845.294	-13.32
845.464	-202.91
845.635	-62.19
845.805	-2.38
845.975	4.06
846.146	-49.63
846.316	-40.51
846.486	-14.62
846.656	22.7
846.827	11.83
846.997	17.15
847.167	34.27
847.337	0.55
847.507	-79.42
847.677	-46.45
847.848	25.05
848.018	20.35
848.188	31.53
848.358	11.89
848.528	-17.71
848.698	-90.86
848.868	-187.69
849.038	-360.87
849.208	-117.62
849.378	-54.53
849.548	-58.89
849.718	-25.72
849.887	1.18
850.057	-21.74
850.227	-47.54
850.397	-57.36
850.567	-211.94
850.737	-497.72
850.906	-1693.44
851.076	-1210.74
851.246	-516.1
851.415	-57.64
851.585	-27.93
851.755	-39.26
851.924	-8.46
852.094	-37.37
852.264	-133.13
852.433	-1193.03
852.603	-247.71
852.772	-204.35
852.942	-130.64
853.111	-129.33
853.281	-40.95
853.45	10.71
853.62	-60.61
853.789	-60.79
853.959	-4.91
854.128	-75.28
854.297	-136.17
854.467	-176.33
854.636	-158.3
854.805	-72.93
854.975	-123.79
855.144	-146.78
855.313	51.22
855.482	-402.01
855.652	-275.26
855.821	-208.94
855.99	-49.72
856.159	-33.02
856.328	-7.23
856.497	-28.75
856.667	-21
856.836	-32.77
857.005	-59.94
857.174	-106.85
857.343	-155.75
857.512	-114.34
857.681	-167.04
857.85	-225.57
858.019	-144.92
858.188	-106.23
858.356	-128.36
858.525	-197.61
858.694	-172.32
858.863	-313.52
859.032	-250.48
859.201	-359.23
859.369	-295.09
859.538	-186.12
859.707	-133.65
859.876	-153.35
860.044	-113.87
860.213	0.85
860.382	-20.54
860.55	-10.61
860.719	21.21
860.888	17.91
861.056	-41.93
861.225	-48.28
861.393	-12.58
861.562	-24.96
861.73	-76.51
861.899	-222.38
862.067	-1992.24
862.236	-121.27
862.404	-293.59
862.572	-180.95
862.741	-78.36
862.909	-74.39
863.078	-219.14
863.246	-183.94
863.414	-181.62
863.582	-113.42
863.751	-165.26
863.919	-123.53
864.087	-30.19
864.255	-60.45
864.424	-471.61
864.592	-76.27
864.76	-147.76
864.928	-503
865.096	-225.08
865.264	-184.03
865.432	-1981.25
865.6	-165.87
865.768	-197.97
865.936	-181.65
866.104	-148.05
866.272	-246.17
866.44	-593.6
866.608	682.47
866.776	369.96
866.944	4050.58
867.112	-724.05
867.28	-277.35
867.448	-149.11
867.615	-77.5
867.783	-45.51
867.951	-51.96
868.119	-15.75
868.286	-24.85
868.454	-155.63
868.622	-153.64
868.789	-165.32
868.957	-3976.79
869.125	-2309.87
869.292	-171.44
869.46	-245.23
869.627	4.08
869.795	0.45
869.963	12
870.13	43.65
870.298	64.78
870.465	-48.03
870.632	-59.42
870.8	-57.59
870.967	-131.03
871.135	-202.75
871.302	-162.95
871.469	-172.29
871.637	-261.12
871.804	-133.72
871.971	-198.96
872.139	-628.72
872.306	-93.05
872.473	-96.04
872.64	-421.78
872.807	-95.05
872.975	24.89
873.142	-259.18
873.309	2380.41
873.476	0.23
873.643	34.04
873.81	-23.99
873.977	-0.7
874.144	35.3
874.311	-72.41
874.478	-156.4
874.645	-189.23
874.812	-103.85
874.979	-54.64
875.146	-77.8
875.313	-84.84
875.48	15.64
875.647	-27.08
875.813	-86.95
875.98	-54.03
876.147	-72.8
876.314	-134.39
876.481	1161.78
876.647	-1370.51
876.814	627.33
876.981	-161.06
877.147	-129.91
877.314	-25.89
877.481	6.23
877.647	19.23
877.814	-31.87
877.98	-80.59
878.147	-24.13
878.314	31.9
878.48	10.02
878.647	18.56
878.813	80.72
878.979	75.44
879.146	24.4
879.312	7.08
879.479	-37.67
879.645	-213.56
879.811	-486.99
879.978	-1251.72
880.144	-399.09
880.31	-200.12
880.477	-423.63
880.643	-482.31
880.809	-200.79
880.975	-153.23
881.142	-1095.23
881.308	-177.88
881.474	-126.09
881.64	-193.74
881.806	-296.23
881.972	-150.44
882.138	-166.55
882.304	-130.19
882.47	-260.68
882.636	-763.73
882.802	-236.54
882.968	-30.09
883.134	-35.36
883.3	-28.17
883.466	15.84
883.632	61.49
883.798	12.91
883.964	-8.53
884.129	18.98
884.295	22.09
884.461	-64.96
884.627	-105.75
884.793	-122.56
884.958	-85.14
885.124	-219.79
885.29	-355.69
885.455	-599.39
885.621	-174.24
885.787	-342.1
885.952	-153.92
886.118	-136.04
886.283	-120.13
886.449	-256.57
886.614	-187.81
886.78	-361.83
886.945	1325.82
887.111	-764.02
887.276	-687.93
887.442	-1239.77
887.607	-623.47
887.773	-476.35
887.938	-416.38
888.103	-460.29
888.269	-389.98
888.434	-612.3
888.599	-220.08
888.764	-91.16
888.93	-60.45
889.095	-56.55
889.26	-121.45
889.425	-97.59
889.59	-84.63
889.756	-119.24
889.921	-109.14
890.086	-36.39
890.251	-29.16
890.416	-253.72
890.581	-2160.89
890.746	293.12
890.911	580.1
891.076	228.15
891.241	-446.83
891.406	45.32
891.571	-0.41
891.736	-196.22
891.901	-495.35
892.065	466.76
892.23	128.22
892.395	253.38
892.56	375.94
892.725	-606.05
892.889	-1979.88
893.054	-413.17
893.219	-171.51
893.384	-107.7
893.548	-154.07
893.713	-190.38
893.878	-123.25
