Data from Ofra_1a_PS_8CX24_Reflection_1.txt Node
Date: Tue Jul 20 11:01:07 EDT 2021
User: Adam
Spectrometer: FLMT01687
Trigger mode: 0
Integration Time (sec): 1.004000E0
Scans to average: 2
Electric dark correction enabled: true
Nonlinearity correction enabled: false
Boxcar width: 2
XAxis mode: Wavelengths
Number of Pixels in Spectrum: 3648
>>>>>Begin Spectral Data<<<<<
179.494	-525.38
179.716	-746.56
179.937	1160.87
180.158	-1270.7
180.38	143.46
180.601	42.53
180.823	-62.15
181.044	-112.22
181.265	-242.72
181.486	243.88
181.708	151.14
181.929	-6518.18
182.15	-25.81
182.372	704.93
182.593	528.97
182.814	-273.51
183.035	-45.37
183.257	-17.9
183.478	-15.64
183.699	-35.95
183.92	-68.56
184.141	-58.73
184.363	-23.95
184.584	-30.31
184.805	3.44
185.026	34.87
185.247	15.28
185.468	-10.88
185.689	3.38
185.91	-23.76
186.132	-11.34
186.353	-5.17
186.574	-14.83
186.795	-13.38
187.016	7.18
187.237	-0.35
187.458	6.65
187.679	33.77
187.9	53.16
188.121	72.68
188.342	63.73
188.563	89.63
188.784	68.31
189.005	48.09
189.226	25.94
189.447	10.8
189.667	-7.84
189.888	-27.8
190.109	-49.92
190.33	-22.41
190.551	-18.95
190.772	-5.76
190.993	3.64
191.214	5.6
191.434	-14.41
191.655	-67
191.876	-68.89
192.097	-36.44
192.318	-8.53
192.538	-32.64
192.759	-6.34
192.98	20.15
193.201	10.15
193.421	3.74
193.642	9.44
193.863	22.25
194.083	11.72
194.304	27.76
194.525	15.38
194.745	14.79
194.966	-2.77
195.187	-14.58
195.407	-33.52
195.628	-18.65
195.848	-21.45
196.069	-43.57
196.29	-19.27
196.51	-31.85
196.731	-10.3
196.951	-10.53
197.172	3.88
197.392	-1.87
197.613	11.39
197.833	-2.35
198.054	-6.53
198.274	3.43
198.495	-4.85
198.715	-6.86
198.936	-4.35
199.156	2.19
199.377	0.63
199.597	15.26
199.817	17.63
200.038	15.07
200.258	29.26
200.479	44.29
200.699	39.98
200.919	15.55
201.14	11.99
201.36	6.02
201.58	-14.75
201.801	-30.16
202.021	5.37
202.241	10.78
202.461	-0.36
202.682	18.84
202.902	32.65
203.122	48.44
203.342	54.97
203.563	38
203.783	33.57
204.003	6.23
204.223	-6.71
204.443	-16.56
204.663	0.25
204.884	5.9
205.104	2.21
205.324	4.06
205.544	-8.52
205.764	5.28
205.984	-25.51
206.204	12.67
206.424	-8.19
206.644	-24.22
206.864	-23.67
207.084	25.96
207.304	6.63
207.525	10.67
207.745	36.68
207.964	35.05
208.184	18.6
208.404	24.71
208.624	38.45
208.844	17.79
209.064	-1.74
209.284	-16.9
209.504	-21.18
209.724	-19.5
209.944	-4.04
210.164	9.78
210.384	31.31
210.604	8.88
210.823	-13.27
211.043	-1.73
211.263	-64.92
211.483	-18.36
211.703	-18.47
211.922	-32.74
212.142	7.27
212.362	15.87
212.582	12.59
212.801	15.15
213.021	6.94
213.241	-37.13
213.461	-10.57
213.68	-14.9
213.9	-13.92
214.12	4.72
214.339	-0.05
214.559	4.48
214.779	29.88
214.998	41.43
215.218	20.41
215.438	30.5
215.657	14.17
215.877	-21.65
216.096	8.02
216.316	-7
216.535	-11.64
216.755	-6.33
216.974	-10.44
217.194	-48.27
217.413	-7.21
217.633	-21.35
217.852	-10.29
218.072	13
218.291	27.6
218.511	8.41
218.73	11.48
218.95	-19.78
219.169	-31.71
219.389	-26.56
219.608	-13.94
219.827	-4.24
220.047	16.55
220.266	5.25
220.485	-8.05
220.705	10.43
220.924	22.78
221.143	48.64
221.363	50.26
221.582	45.82
221.801	30.99
222.021	26.36
222.24	0.39
222.459	21.19
222.678	32.51
222.897	35.03
223.117	36.74
223.336	55.64
223.555	50.4
223.774	69.94
223.993	86.52
224.213	65.82
224.432	48.99
224.651	27.16
224.87	13.24
225.089	16.25
225.308	58.07
225.527	50.76
225.746	59.51
225.965	66.81
226.184	53.74
226.404	8.13
226.623	20.32
226.842	17.95
227.061	14.92
227.28	17.13
227.499	19.25
227.718	14.07
227.936	19.37
228.155	14.09
228.374	9.91
228.593	21.69
228.812	16.92
229.031	22.31
229.25	20.54
229.469	14.66
229.688	5.53
229.907	10.6
230.125	1.29
230.344	4.32
230.563	14.89
230.782	21.9
231.001	39.44
231.22	39.33
231.438	39.74
231.657	35.06
231.876	28.11
232.095	23.53
232.313	9.53
232.532	13.32
232.751	-3.7
232.969	0.15
233.188	-1.79
233.407	9.84
233.625	5.21
233.844	25.84
234.063	26.17
234.281	16.93
234.5	23.8
234.719	25.07
234.937	6.16
235.156	0.6
235.374	10.06
235.593	7.39
235.811	29.18
236.03	26.98
236.249	28.38
236.467	26.15
236.686	15.82
236.904	17.37
237.123	13.58
237.341	22.08
237.559	18.12
237.778	36.18
237.996	-2.4
238.215	-23.27
238.433	-60
238.652	-5.82
238.87	-18.07
239.088	-3.98
239.307	16.71
239.525	5.7
239.743	-11.11
239.962	-28.32
240.18	-15.82
240.398	-24.51
240.617	-11.3
240.835	9.12
241.053	19.9
241.271	27.93
241.49	40.4
241.708	20.09
241.926	1.07
242.144	10.06
242.363	-9.38
242.581	-58.04
242.799	-36.15
243.017	-7.37
243.235	-10.42
243.453	-23.19
243.672	-10.52
243.89	10.99
244.108	16.56
244.326	28.14
244.544	34.28
244.762	21.11
244.98	15.83
245.198	16.58
245.416	15.63
245.634	18.67
245.852	19.64
246.07	26.6
246.288	25.45
246.506	4.12
246.724	-8.56
246.942	-2.62
247.16	2.69
247.378	-23.77
247.596	11.86
247.814	39.76
248.032	20.86
248.25	31.9
248.468	38.16
248.685	36.99
248.903	34.87
249.121	52.42
249.339	45.86
249.557	35.79
249.775	33.94
249.992	26.61
250.21	2.64
250.428	9.19
250.646	20.1
250.863	-3.41
251.081	9.39
251.299	34.94
251.517	24.42
251.734	24.73
251.952	45.66
252.17	39.6
252.387	16.85
252.605	20.56
252.823	10.35
253.04	10.35
253.258	6.25
253.475	20.47
253.693	-7.41
253.911	-12.99
254.128	-9.69
254.346	-5.74
254.563	-0.37
254.781	14.37
254.998	16.08
255.216	-28.18
255.433	-43.4
255.651	-41.41
255.868	-51.56
256.086	-24.64
256.303	-4.36
256.521	7.35
256.738	5.77
256.956	12.21
257.173	4.61
257.39	5.22
257.608	-1.6
257.825	0.55
258.043	17
258.26	12.31
258.477	13.47
258.695	10.76
258.912	-2.05
259.129	-27.19
259.346	-29.98
259.564	-46.78
259.781	-33.4
259.998	-4.89
260.216	20.52
260.433	6.05
260.65	13.08
260.867	21.27
261.084	10.34
261.302	-0.52
261.519	28.86
261.736	36.49
261.953	26.21
262.17	38.18
262.387	30.21
262.604	19.7
262.822	23.29
263.039	27.56
263.256	21.53
263.473	25.45
263.69	27.02
263.907	20.14
264.124	27.98
264.341	36.52
264.558	31.36
264.775	30.95
264.992	44.24
265.209	15.44
265.426	2.69
265.643	0.68
265.86	-14.17
266.077	-48.23
266.294	-37.52
266.51	-4.94
266.727	4.43
266.944	27.49
267.161	37.53
267.378	49.36
267.595	31.96
267.812	20.65
268.028	4.53
268.245	6.15
268.462	-9.08
268.679	10.64
268.896	13.01
269.112	10.65
269.329	-21.71
269.546	3.66
269.763	-1.5
269.979	-1.2
270.196	8.79
270.413	11.64
270.629	-4.44
270.846	-7.82
271.063	5.74
271.279	-0.23
271.496	9.15
271.712	16.5
271.929	33.02
272.146	20.03
272.362	19.04
272.579	20.67
272.795	18.52
273.012	12.69
273.228	28.34
273.445	26.33
273.661	21.75
273.878	1.7
274.094	5.06
274.311	1.53
274.527	-8.54
274.744	12.84
274.96	29.02
275.177	32.4
275.393	32.5
275.609	33.7
275.826	19.71
276.042	12.73
276.259	-12.41
276.475	-19.6
276.691	-20.25
276.908	-11.57
277.124	-9.84
277.34	-0.68
277.557	-30.33
277.773	-37.06
277.989	-31.26
278.205	-17.47
278.422	-10.52
278.638	11.41
278.854	10.88
279.07	27.55
279.286	24.64
279.503	29.34
279.719	48.3
279.935	47.86
280.151	36.08
280.367	49.75
280.583	52.41
280.799	20.26
281.016	3.16
281.232	13.27
281.448	-7.82
281.664	5.1
281.88	17.71
282.096	25.61
282.312	27.63
282.528	30.39
282.744	31.03
282.96	4.01
283.176	-10.34
283.392	-30.79
283.608	-15.91
283.824	-37.11
284.04	-8.49
284.256	10.61
284.471	15.5
284.687	4.34
284.903	8.3
285.119	26.2
285.335	27.37
285.551	19.22
285.767	29.37
285.982	25.58
286.198	-7.39
286.414	4.18
286.63	20.52
286.846	9.07
287.061	16.06
287.277	7.47
287.493	-3.52
287.709	-6.59
287.924	14.47
288.14	38.29
288.356	58.5
288.571	60.85
288.787	51.52
289.003	49.52
289.218	18.61
289.434	-4.51
289.65	14.84
289.865	10.85
290.081	19.03
290.296	28.24
290.512	30.94
290.727	10.6
290.943	22.77
291.159	6.89
291.374	-23.72
291.59	-24.51
291.805	-31.12
292.021	-33.49
292.236	-32.08
292.451	-2.37
292.667	10.87
292.882	27.2
293.098	31.27
293.313	22.5
293.529	30.68
293.744	18.12
293.959	14.11
294.175	8.76
294.39	13.85
294.605	17.09
294.821	7.87
295.036	-1.43
295.251	5.57
295.467	3.33
295.682	-1
295.897	17.16
296.112	24.39
296.328	19.49
296.543	0.94
296.758	-6.67
296.973	-21.63
297.188	-29.62
297.404	-74.41
297.619	-43.8
297.834	-58.81
298.049	-40.07
298.264	-24.4
298.479	-7.6
298.694	23.58
298.909	33.39
299.125	36.42
299.34	48.24
299.555	61.19
299.77	52.56
299.985	44.64
300.2	40.55
300.415	23.72
300.63	24
300.845	4.47
301.06	4.65
301.275	20.29
301.49	32.97
301.704	13.64
301.919	11.21
302.134	6.82
302.349	-5.87
302.564	-15.63
302.779	-9.1
302.994	2.86
303.209	5.97
303.423	14.56
303.638	23.61
303.853	16.61
304.068	10.62
304.283	21.31
304.497	8.66
304.712	21.8
304.927	34.13
305.142	43.62
305.356	47.6
305.571	42.28
305.786	34.65
306	30.08
306.215	30.61
306.43	9.24
306.644	25.92
306.859	21.89
307.074	40.32
307.288	31.88
307.503	52.36
307.717	35.63
307.932	41.13
308.147	23.22
308.361	27.73
308.576	3.99
308.79	12.44
309.005	-13.9
309.219	1.23
309.434	0.9
309.648	13.84
309.863	16.04
310.077	23.49
310.292	24.23
310.506	9.49
310.72	-13.66
310.935	-2.02
311.149	2.84
311.364	-2.05
311.578	2.52
311.792	17.6
312.007	-11.41
312.221	-27.24
312.435	-14.88
312.649	-5.51
312.864	4.39
313.078	14.06
313.292	21.33
313.507	22.15
313.721	11.75
313.935	5.52
314.149	-0.73
314.363	3.71
314.578	0.5
314.792	-16.29
315.006	-29.37
315.22	2.28
315.434	-8.07
315.648	-2.38
315.862	11.14
316.077	5.54
316.291	-1.63
316.505	-5.74
316.719	-1.74
316.933	-5.45
317.147	5.2
317.361	-0.94
317.575	2.03
317.789	14.4
318.003	11.66
318.217	16.34
318.431	5.1
318.645	-3.17
318.859	-22.93
319.073	-9.03
319.287	-9.91
319.5	-1.12
319.714	-0.26
319.928	5.21
320.142	4.2
320.356	19.26
320.57	13.74
320.784	21.29
320.997	18.51
321.211	33.11
321.425	10.23
321.639	16.76
321.853	26.24
322.066	15.51
322.28	-6.02
322.494	5.08
322.707	2.18
322.921	-18.53
323.135	-10.46
323.349	-6.57
323.562	1.59
323.776	3.42
323.989	23.05
324.203	17.16
324.417	18.99
324.63	2.9
324.844	-21.12
325.057	-44.88
325.271	-36.32
325.485	-31.56
325.698	-11.11
325.912	23.4
326.125	27.58
326.339	38.16
326.552	40.45
326.766	34.26
326.979	44.51
327.193	45.67
327.406	20.18
327.619	22.03
327.833	19.46
328.046	6.36
328.26	4.04
328.473	19.56
328.686	7.69
328.9	30.23
329.113	27.26
329.326	8.76
329.54	-2.28
329.753	12.02
329.966	-0.87
330.179	-1.02
330.393	9.58
330.606	14.96
330.819	1.46
331.032	5.92
331.246	14.73
331.459	26.81
331.672	22.18
331.885	32.6
332.098	29.11
332.311	22.44
332.525	24.11
332.738	34.7
332.951	22.23
333.164	24.22
333.377	27.3
333.59	5.5
333.803	-3.26
334.016	-4.39
334.229	-9.85
334.442	-12.23
334.655	1.62
334.868	-6.81
335.081	-3.14
335.294	-11.32
335.507	-5.47
335.72	-7.78
335.933	1.25
336.146	14.75
336.359	23.68
336.572	12.8
336.785	8.96
336.997	13.89
337.21	4.09
337.423	-14.83
337.636	-22.5
337.849	-17.48
338.062	-7.82
338.274	6.66
338.487	5.55
338.7	4.17
338.913	19.69
339.125	1.48
339.338	-6.67
339.551	-1.52
339.763	18.1
339.976	7.22
340.189	18.91
340.402	23.79
340.614	19.88
340.827	18.43
341.039	19.48
341.252	13.97
341.465	-3.13
341.677	5.07
341.89	-13.18
342.102	1.52
342.315	3.98
342.527	15.78
342.74	10.15
342.952	30.18
343.165	7.25
343.377	10.39
343.59	17.64
343.802	29.64
344.015	27.2
344.227	30.2
344.44	22.27
344.652	23.96
344.864	26.27
345.077	32.58
345.289	39.7
345.502	53.8
345.714	36.8
345.926	12.3
346.139	-6.33
346.351	-19.06
346.563	-9.93
346.775	-8.23
346.988	10.73
347.2	26.59
347.412	37.13
347.624	18.51
347.837	27.21
348.049	13.72
348.261	3.5
348.473	-1.99
348.685	7.83
348.897	-6.57
349.11	1.23
349.322	5.12
349.534	1.74
349.746	-7.01
349.958	-1.72
350.17	-20.44
350.382	-35.92
350.594	-33.65
350.806	-13.85
351.018	-3.02
351.23	22.35
351.442	35.44
351.654	40.93
351.866	34.4
352.078	27.75
352.29	18.33
352.502	14.27
352.714	15.7
352.926	13.48
353.138	22.73
353.35	17.95
353.561	24.51
353.773	16.54
353.985	32.51
354.197	24.6
354.409	28.65
354.621	23.12
354.832	25.6
355.044	8.13
355.256	8.21
355.468	-9.51
355.679	-0.43
355.891	10.57
356.103	4.12
356.314	-0.42
356.526	-7.47
356.738	-18.09
356.949	-33.42
357.161	-12.22
357.373	-6.81
357.584	7.84
357.796	13.77
358.008	19.7
358.219	8.06
358.431	-0.03
358.642	-0.84
358.854	4.04
359.065	-5.18
359.277	-2.37
359.488	4.34
359.7	-2.9
359.911	-13.26
360.123	1.63
360.334	0.11
360.546	0.1
360.757	14.02
360.969	20.89
361.18	10.61
361.391	14.9
361.603	8.04
361.814	2.97
362.025	2.64
362.237	7.19
362.448	7.93
362.659	7.2
362.871	-3.9
363.082	-5.11
363.293	-14.12
363.504	-28.5
363.716	-17.62
363.927	-0.19
364.138	-26.12
364.349	-30.62
364.56	-22.91
364.772	-14.48
364.983	-3.62
365.194	24.19
365.405	29.97
365.616	33.1
365.827	19.38
366.038	25
366.25	18.11
366.461	31.33
366.672	22.8
366.883	27.65
367.094	5.6
367.305	-6.1
367.516	-15.32
367.727	-16.07
367.938	-21.42
368.149	-19.19
368.36	-16.76
368.571	-38.37
368.781	-39.64
368.992	-37.13
369.203	-25.72
369.414	-37.02
369.625	-11.58
369.836	12.48
370.047	14.47
370.258	18.72
370.468	21.79
370.679	6.23
370.89	-8.3
371.101	7.1
371.312	-6.04
371.522	-0.04
371.733	-0.73
371.944	-16.68
372.155	-16.49
372.365	-6.23
372.576	1.8
372.787	6.23
372.997	10.88
373.208	5.98
373.419	1.12
373.629	-12.69
373.84	-16.4
374.05	-11.25
374.261	-19.72
374.472	-13.28
374.682	11.32
374.893	18.25
375.103	19.69
375.314	33.74
375.524	38.9
375.735	33.63
375.945	32.36
376.156	28.7
376.366	16.78
376.577	7.05
376.787	4.63
376.997	8.97
377.208	7.84
377.418	5.57
377.629	6.9
377.839	9.24
378.049	6.38
378.26	-9.13
378.47	-10.4
378.68	-2.81
378.89	-4.01
379.101	4.6
379.311	21.51
379.521	17.92
379.732	12.55
379.942	10.39
380.152	-1.45
380.362	-4.61
380.572	6.55
380.783	10.58
380.993	11.99
381.203	10.73
381.413	21.53
381.623	19.22
381.833	24.84
382.043	15.33
382.253	23.2
382.463	22.15
382.674	27.31
382.884	27.06
383.094	31.82
383.304	36.41
383.514	30.35
383.724	24.84
383.934	4.51
384.144	10.42
384.353	5.59
384.563	6.16
384.773	8.69
384.983	20.69
385.193	14.24
385.403	9.27
385.613	8.07
385.823	6.18
386.033	3.04
386.242	3.82
386.452	4.83
386.662	1.83
386.872	3.36
387.082	2.76
387.291	-1.4
387.501	2.01
387.711	6.39
387.921	3.19
388.13	7.82
388.34	14.35
388.55	9.17
388.759	3.45
388.969	6.15
389.179	3.15
389.388	-0.87
389.598	-1.29
389.807	-1.69
390.017	-3.13
390.227	-5.28
390.436	0.42
390.646	0.49
390.855	4.06
391.065	4.74
391.274	4.61
391.484	-0.84
391.693	-1.27
391.903	-2.05
392.112	-2.66
392.322	-1.35
392.531	-1.98
392.74	-1.4
392.95	-2.37
393.159	-1.41
393.369	-0.35
393.578	0.49
393.787	0.29
393.997	3.15
394.206	1.91
394.415	2.14
394.625	2.91
394.834	3.04
395.043	2.35
395.252	5.64
395.462	6.4
395.671	5.86
395.88	6.45
396.089	6.04
396.298	3.67
396.508	3.41
396.717	4.47
396.926	3.89
397.135	3.56
397.344	4.07
397.553	3.45
397.762	4.14
397.971	4.81
398.181	4.77
398.39	4.64
398.599	5.05
398.808	4.29
399.017	4.4
399.226	4.7
399.435	4.43
399.644	4.28
399.853	4.3
400.062	3.8
400.27	3.26
400.479	3.38
400.688	3.45
400.897	3.15
401.106	3.31
401.315	3.49
401.524	3.58
401.733	3.1
401.941	3.22
402.15	3.06
402.359	3.28
402.568	3.3
402.777	3.64
402.985	3.28
403.194	3.25
403.403	3.15
403.612	2.85
403.82	2.73
404.029	2.99
404.238	3.02
404.446	3.13
404.655	3.24
404.864	3.2
405.072	3.23
405.281	3.31
405.489	2.94
405.698	3.06
405.906	3.08
406.115	2.97
406.324	2.89
406.532	3.09
406.741	3.08
406.949	3.16
407.158	3.24
407.366	3.16
407.574	3.29
407.783	3.18
407.991	3.07
408.2	3.15
408.408	3.2
408.617	3
408.825	2.94
409.033	2.94
409.242	2.92
409.45	2.98
409.658	3.1
409.867	3.17
410.075	3.26
410.283	3.15
410.491	2.98
410.7	2.85
410.908	2.83
411.116	2.72
411.324	2.7
411.533	2.7
411.741	2.76
411.949	2.82
412.157	2.82
412.365	2.95
412.573	3.02
412.781	2.96
412.99	2.9
413.198	2.96
413.406	2.92
413.614	2.91
413.822	3.03
414.03	3.01
414.238	3.02
414.446	2.98
414.654	2.88
414.862	2.76
415.07	2.74
415.278	2.77
415.486	2.56
415.694	2.68
415.902	2.65
416.109	2.6
416.317	2.57
416.525	2.67
416.733	2.68
416.941	2.59
417.149	2.56
417.357	2.49
417.564	2.49
417.772	2.45
417.98	2.5
418.188	2.51
418.395	2.35
418.603	2.29
418.811	2.23
419.019	2.22
419.226	2.26
419.434	2.37
419.642	2.35
419.849	2.29
420.057	2.36
420.265	2.28
420.472	2.29
420.68	2.27
420.887	2.41
421.095	2.49
421.302	2.61
421.51	2.51
421.717	2.6
421.925	2.6
422.132	2.56
422.34	2.49
422.547	2.47
422.755	2.48
422.962	2.54
423.17	2.3
423.377	2.21
423.585	2.52
423.792	2.5
423.999	2.28
424.207	2.28
424.414	2.32
424.621	2.21
424.829	2.37
425.036	2.54
425.243	2.68
425.451	2.68
425.658	2.61
425.865	2.41
426.072	2.47
426.28	2.39
426.487	2.38
426.694	2.32
426.901	2.39
427.108	2.24
427.315	2.34
427.523	2.17
427.73	2.23
427.937	2.03
428.144	2.05
428.351	2.01
428.558	2.22
428.765	2.22
428.972	2.42
429.179	2.27
429.386	2.29
429.593	2.08
429.8	2.03
430.007	2.11
430.214	2.14
430.421	2.19
430.628	2.46
430.835	2.42
431.042	2.23
431.249	2.25
431.456	2.17
431.662	2.19
431.869	2.39
432.076	2.42
432.283	2.46
432.49	2.44
432.697	2.34
432.903	2.15
433.11	2.25
433.317	2.3
433.524	2.38
433.73	2.39
433.937	2.59
434.144	2.44
434.35	2.31
434.557	2.24
434.764	2.22
434.97	1.99
435.177	2.12
435.384	2.23
435.59	2.22
435.797	2.26
436.003	2.3
436.21	2.18
436.416	2.24
436.623	2.31
436.829	2.19
437.036	2.3
437.242	2.39
437.449	2.33
437.655	2.39
437.862	2.5
438.068	2.36
438.275	2.37
438.481	2.46
438.687	2.39
438.894	2.47
439.1	2.41
439.307	2.49
439.513	2.39
439.719	2.4
439.926	2.37
440.132	2.6
440.338	2.52
440.544	2.55
440.751	2.47
440.957	2.44
441.163	2.29
441.369	2.3
441.575	2.23
441.782	2.31
441.988	2.32
442.194	2.33
442.4	2.36
442.606	2.53
442.812	2.54
443.018	2.53
443.224	2.64
443.431	2.58
443.637	2.53
443.843	2.5
444.049	2.61
444.255	2.63
444.461	2.69
444.667	2.69
444.873	2.71
445.079	2.58
445.284	2.53
445.49	2.49
445.696	2.45
445.902	2.44
446.108	2.53
446.314	2.49
446.52	2.61
446.726	2.66
446.931	2.63
447.137	2.62
447.343	2.74
447.549	2.67
447.755	2.62
447.96	2.67
448.166	2.66
448.372	2.6
448.578	2.52
448.783	2.53
448.989	2.61
449.195	2.61
449.4	2.65
449.606	2.67
449.812	2.54
450.017	2.43
450.223	2.4
450.428	2.29
450.634	2.24
450.84	2.35
451.045	2.32
451.251	2.34
451.456	2.38
451.662	2.5
451.867	2.55
452.073	2.56
452.278	2.57
452.483	2.61
452.689	2.56
452.894	2.59
453.1	2.64
453.305	2.62
453.51	2.66
453.716	2.67
453.921	2.64
454.127	2.63
454.332	2.63
454.537	2.52
454.742	2.48
454.948	2.44
455.153	2.4
455.358	2.35
455.563	2.52
455.769	2.55
455.974	2.53
456.179	2.53
456.384	2.53
456.589	2.4
456.795	2.34
457	2.37
457.205	2.39
457.41	2.4
457.615	2.38
457.82	2.45
458.025	2.42
458.23	2.39
458.435	2.43
458.64	2.38
458.845	2.42
459.05	2.52
459.255	2.49
459.46	2.45
459.665	2.55
459.87	2.43
460.075	2.34
460.28	2.44
460.485	2.55
460.69	2.55
460.895	2.68
461.099	2.63
461.304	2.61
461.509	2.56
461.714	2.58
461.919	2.54
462.123	2.59
462.328	2.47
462.533	2.38
462.738	2.31
462.942	2.22
463.147	2.23
463.352	2.41
463.556	2.51
463.761	2.49
463.966	2.52
464.17	2.61
464.375	2.56
464.58	2.45
464.784	2.51
464.989	2.6
465.193	2.46
465.398	2.4
465.602	2.58
465.807	2.56
466.011	2.47
466.216	2.48
466.42	2.56
466.625	2.51
466.829	2.55
467.034	2.68
467.238	2.75
467.443	2.74
467.647	2.71
467.851	2.7
468.056	2.66
468.26	2.63
468.464	2.64
468.669	2.65
468.873	2.66
469.077	2.6
469.282	2.63
469.486	2.56
469.69	2.6
469.894	2.59
470.099	2.64
470.303	2.62
470.507	2.73
470.711	2.69
470.915	2.72
471.119	2.73
471.324	2.79
471.528	2.72
471.732	2.74
471.936	2.72
472.14	2.75
472.344	2.91
472.548	2.98
472.752	2.98
472.956	3.06
473.16	3.03
473.364	2.93
473.568	2.82
473.772	2.8
473.976	2.86
474.18	2.92
474.384	2.86
474.588	2.98
474.792	2.98
474.995	2.87
475.199	2.86
475.403	2.86
475.607	2.82
475.811	2.85
476.015	2.87
476.218	2.83
476.422	2.96
476.626	3
476.83	3.06
477.033	3.14
477.237	3.21
477.441	3.13
477.644	3.12
477.848	3.06
478.052	3.03
478.255	3.03
478.459	3.04
478.663	3.09
478.866	3.15
479.07	3.1
479.273	3.13
479.477	3.11
479.681	3.07
479.884	3.03
480.088	3.09
480.291	3.08
480.495	3.11
480.698	3.12
480.901	3.16
481.105	3.2
481.308	3.18
481.512	3.2
481.715	3.27
481.919	3.36
482.122	3.33
482.325	3.42
482.529	3.42
482.732	3.35
482.935	3.26
483.138	3.33
483.342	3.31
483.545	3.36
483.748	3.41
483.952	3.41
484.155	3.36
484.358	3.3
484.561	3.26
484.764	3.2
484.967	3.24
485.171	3.27
485.374	3.25
485.577	3.26
485.78	3.32
485.983	3.28
486.186	3.24
486.389	3.3
486.592	3.36
486.795	3.37
486.998	3.35
487.201	3.42
487.404	3.53
487.607	3.51
487.81	3.48
488.013	3.55
488.216	3.5
488.419	3.37
488.622	3.31
488.825	3.33
489.028	3.28
489.231	3.33
489.433	3.37
489.636	3.43
489.839	3.47
490.042	3.53
490.245	3.51
490.447	3.48
490.65	3.46
490.853	3.47
491.056	3.47
491.258	3.52
491.461	3.55
491.664	3.49
491.866	3.41
492.069	3.47
492.272	3.44
492.474	3.49
492.677	3.55
492.879	3.56
493.082	3.56
493.285	3.65
493.487	3.62
493.69	3.6
493.892	3.63
494.095	3.63
494.297	3.6
494.5	3.66
494.702	3.76
494.905	3.87
495.107	3.88
495.309	3.93
495.512	3.89
495.714	3.91
495.917	3.93
496.119	3.98
496.321	3.91
496.524	3.95
496.726	3.87
496.928	3.86
497.13	3.8
497.333	3.82
497.535	3.85
497.737	3.88
497.939	3.86
498.142	3.88
498.344	3.93
498.546	3.92
498.748	4.02
498.95	4.03
499.152	4.09
499.355	4.09
499.557	4.12
499.759	4.07
499.961	4.09
500.163	4.05
500.365	4.11
500.567	4.11
500.769	4.14
500.971	4.22
501.173	4.19
501.375	4.22
501.577	4.21
501.779	4.22
501.981	4.22
502.183	4.31
502.385	4.34
502.587	4.38
502.788	4.48
502.99	4.47
503.192	4.52
503.394	4.49
503.596	4.48
503.798	4.36
503.999	4.43
504.201	4.36
504.403	4.41
504.605	4.51
504.806	4.57
505.008	4.54
505.21	4.62
505.411	4.58
505.613	4.57
505.815	4.66
506.016	4.73
506.218	4.73
506.42	4.75
506.621	4.77
506.823	4.71
507.024	4.65
507.226	4.68
507.427	4.71
507.629	4.71
507.83	4.77
508.032	4.76
508.233	4.82
508.435	4.85
508.636	4.87
508.838	4.82
509.039	4.88
509.24	4.83
509.442	4.86
509.643	4.87
509.845	4.88
510.046	4.92
510.247	5
510.448	4.94
510.65	4.99
510.851	5.04
511.052	5.03
511.254	5
511.455	4.98
511.656	4.89
511.857	4.83
512.058	4.84
512.26	4.82
512.461	4.92
512.662	5.04
512.863	5.04
513.064	5
513.265	4.95
513.466	4.95
513.667	4.9
513.868	4.86
514.069	4.9
514.27	4.98
514.471	4.95
514.672	4.94
514.873	4.96
515.074	5.03
515.275	5.05
515.476	5.14
515.677	5.19
515.878	5.26
516.079	5.23
516.28	5.24
516.481	5.2
516.682	5.16
516.882	5.15
517.083	5.13
517.284	5.15
517.485	5.12
517.686	5.17
517.886	5.21
518.087	5.27
518.288	5.21
518.488	5.22
518.689	5.24
518.89	5.25
519.091	5.27
519.291	5.32
519.492	5.39
519.692	5.4
519.893	5.4
520.094	5.33
520.294	5.36
520.495	5.34
520.695	5.3
520.896	5.29
521.096	5.32
521.297	5.31
521.497	5.3
521.698	5.32
521.898	5.33
522.099	5.33
522.299	5.35
522.499	5.38
522.7	5.37
522.9	5.43
523.101	5.43
523.301	5.41
523.501	5.41
523.702	5.42
523.902	5.41
524.102	5.46
524.302	5.55
524.503	5.59
524.703	5.62
524.903	5.61
525.103	5.57
525.304	5.54
525.504	5.57
525.704	5.59
525.904	5.59
526.104	5.65
526.304	5.66
526.504	5.63
526.705	5.66
526.905	5.73
527.105	5.74
527.305	5.76
527.505	5.73
527.705	5.7
527.905	5.71
528.105	5.68
528.305	5.71
528.505	5.73
528.705	5.81
528.905	5.78
529.105	5.83
529.304	5.78
529.504	5.86
529.704	5.82
529.904	5.82
530.104	5.84
530.304	5.9
530.503	5.9
530.703	5.87
530.903	5.9
531.103	5.9
531.303	5.93
531.502	5.94
531.702	6.01
531.902	6.08
532.101	6.03
532.301	6.08
532.501	6.18
532.7	6.2
532.9	6.2
533.1	6.28
533.299	6.25
533.499	6.14
533.698	6.14
533.898	6.19
534.097	6.16
534.297	6.22
534.496	6.29
534.696	6.34
534.895	6.35
535.095	6.41
535.294	6.41
535.494	6.35
535.693	6.36
535.892	6.34
536.092	6.28
536.291	6.27
536.491	6.35
536.69	6.38
536.889	6.37
537.088	6.44
537.288	6.44
537.487	6.46
537.686	6.44
537.886	6.48
538.085	6.52
538.284	6.56
538.483	6.55
538.682	6.62
538.882	6.65
539.081	6.67
539.28	6.71
539.479	6.73
539.678	6.7
539.877	6.75
540.076	6.76
540.275	6.77
540.474	6.84
540.673	6.89
540.872	6.88
541.071	6.93
541.27	7
541.469	7
541.668	6.96
541.867	6.99
542.066	7.02
542.265	7.03
542.464	7.09
542.663	7.22
542.862	7.3
543.06	7.33
543.259	7.36
543.458	7.39
543.657	7.45
543.856	7.46
544.054	7.46
544.253	7.48
544.452	7.52
544.651	7.52
544.849	7.56
545.048	7.62
545.247	7.72
545.445	7.74
545.644	7.77
545.843	7.81
546.041	7.8
546.24	7.76
546.438	7.79
546.637	7.79
546.836	7.84
547.034	7.95
547.233	8.05
547.431	8.11
547.63	8.2
547.828	8.22
548.027	8.19
548.225	8.19
548.423	8.28
548.622	8.3
548.82	8.35
549.019	8.4
549.217	8.47
549.415	8.41
549.614	8.54
549.812	8.6
550.01	8.72
550.209	8.75
550.407	8.9
550.605	8.85
550.803	8.91
551.002	8.97
551.2	9.01
551.398	9.03
551.596	9.16
551.794	9.21
551.993	9.22
552.191	9.33
552.389	9.37
552.587	9.39
552.785	9.37
552.983	9.5
553.181	9.52
553.379	9.59
553.577	9.69
553.775	9.81
553.973	9.84
554.171	9.88
554.369	9.96
554.567	9.97
554.765	10.03
554.963	10.06
555.161	10.11
555.359	10.21
555.557	10.25
555.755	10.33
555.952	10.41
556.15	10.51
556.348	10.54
556.546	10.74
556.744	10.8
556.941	10.81
557.139	10.92
557.337	11.04
557.535	10.99
557.732	11.02
557.93	11.22
558.128	11.29
558.325	11.34
558.523	11.47
558.721	11.58
558.918	11.63
559.116	11.74
559.313	11.82
559.511	11.9
559.708	12
559.906	12.07
560.104	12.12
560.301	12.18
560.498	12.25
560.696	12.29
560.893	12.36
561.091	12.42
561.288	12.54
561.486	12.59
561.683	12.71
561.88	12.88
562.078	12.98
562.275	13.04
562.473	13.14
562.67	13.14
562.867	13.16
563.064	13.26
563.262	13.27
563.459	13.4
563.656	13.54
563.853	13.57
564.051	13.66
564.248	13.77
564.445	13.85
564.642	13.97
564.839	14.09
565.036	14.22
565.234	14.29
565.431	14.38
565.628	14.42
565.825	14.54
566.022	14.5
566.219	14.59
566.416	14.64
566.613	14.72
566.81	14.79
567.007	14.82
567.204	14.87
567.401	14.93
567.598	14.98
567.795	14.91
567.991	15.05
568.188	15.19
568.385	15.22
568.582	15.29
568.779	15.4
568.976	15.5
569.172	15.55
569.369	15.66
569.566	15.71
569.763	15.74
569.96	15.78
570.156	15.79
570.353	15.76
570.55	15.81
570.746	15.85
570.943	15.89
571.14	15.88
571.336	15.93
571.533	15.98
571.729	16.01
571.926	16.12
572.123	16.2
572.319	16.24
572.516	16.34
572.712	16.39
572.909	16.34
573.105	16.41
573.302	16.42
573.498	16.37
573.695	16.42
573.891	16.41
574.087	16.32
574.284	16.36
574.48	16.34
574.677	16.37
574.873	16.44
575.069	16.61
575.266	16.61
575.462	16.64
575.658	16.63
575.854	16.65
576.051	16.64
576.247	16.69
576.443	16.7
576.639	16.79
576.835	16.74
577.032	16.7
577.228	16.71
577.424	16.75
577.62	16.67
577.816	16.73
578.012	16.78
578.208	16.81
578.404	16.73
578.6	16.81
578.796	16.82
578.993	16.8
579.189	16.78
579.384	16.8
579.58	16.74
579.776	16.74
579.972	16.77
580.168	16.69
580.364	16.72
580.56	16.66
580.756	16.62
580.952	16.56
581.148	16.64
581.343	16.68
581.539	16.82
581.735	16.84
581.931	16.82
582.127	16.76
582.322	16.71
582.518	16.64
582.714	16.61
582.909	16.66
583.105	16.69
583.301	16.76
583.496	16.73
583.692	16.7
583.888	16.63
584.083	16.59
584.279	16.54
584.474	16.52
584.67	16.52
584.866	16.54
585.061	16.52
585.257	16.52
585.452	16.5
585.648	16.47
585.843	16.44
586.039	16.48
586.234	16.47
586.429	16.4
586.625	16.52
586.82	16.57
587.015	16.57
587.211	16.53
587.406	16.54
587.601	16.45
587.797	16.43
587.992	16.45
588.187	16.45
588.383	16.56
588.578	16.57
588.773	16.61
588.968	16.62
589.163	16.71
589.359	16.58
589.554	16.55
589.749	16.58
589.944	16.59
590.139	16.58
590.334	16.71
590.529	16.8
590.724	16.85
590.919	16.88
591.114	16.92
591.309	16.92
591.504	16.91
591.699	16.82
591.894	16.77
592.089	16.71
592.284	16.72
592.479	16.75
592.674	16.81
592.869	16.92
593.064	17.04
593.259	17.11
593.454	17.09
593.648	17.12
593.843	17.09
594.038	17.12
594.233	17.15
594.428	17.31
594.622	17.46
594.817	17.62
595.012	17.68
595.206	17.74
595.401	17.8
595.596	17.78
595.79	17.76
595.985	17.71
596.18	17.81
596.374	17.86
596.569	17.94
596.763	17.98
596.958	18.09
597.153	18.12
597.347	18.1
597.542	18.08
597.736	18.14
597.931	18.24
598.125	18.34
598.319	18.46
598.514	18.57
598.708	18.62
598.903	18.66
599.097	18.64
599.291	18.66
599.486	18.75
599.68	18.82
599.874	18.93
600.069	18.97
600.263	19.03
600.457	19.01
600.651	19.08
600.846	19.05
601.04	19.11
601.234	19.11
601.428	19.22
601.622	19.25
601.817	19.34
602.011	19.35
602.205	19.38
602.399	19.37
602.593	19.41
602.787	19.36
602.981	19.41
603.175	19.49
603.369	19.44
603.563	19.41
603.757	19.41
603.951	19.41
604.145	19.38
604.339	19.35
604.533	19.31
604.727	19.25
604.921	19.18
605.115	19.13
605.309	19.13
605.502	19.13
605.696	19.14
605.89	19.11
606.084	19.03
606.278	19.04
606.471	18.95
606.665	18.95
606.859	18.93
607.053	18.92
607.246	18.87
607.44	18.84
607.634	18.77
607.827	18.7
608.021	18.62
608.214	18.54
608.408	18.43
608.602	18.32
608.795	18.3
608.989	18.27
609.182	18.26
609.376	18.31
609.569	18.31
609.763	18.2
609.956	18.27
610.15	18.27
610.343	18.15
610.537	18.13
610.73	18.01
610.923	17.81
611.117	17.66
611.31	17.58
611.504	17.47
611.697	17.5
611.89	17.43
612.083	17.39
612.277	17.33
612.47	17.28
612.663	17.29
612.856	17.21
613.05	17.18
613.243	17.1
613.436	17.05
613.629	16.82
613.822	16.87
614.015	16.68
614.209	16.61
614.402	16.58
614.595	16.6
614.788	16.49
614.981	16.49
615.174	16.38
615.367	16.22
615.56	16.09
615.753	16.09
615.946	16.07
616.139	16.09
616.332	16.16
616.525	16.13
616.718	16.04
616.911	16
617.103	16.01
617.296	15.92
617.489	15.8
617.682	15.79
617.875	15.7
618.067	15.62
618.26	15.58
618.453	15.62
618.646	15.59
618.838	15.55
619.031	15.54
619.224	15.49
619.417	15.48
619.609	15.37
619.802	15.36
619.994	15.28
620.187	15.27
620.38	15.2
620.572	15.24
620.765	15.16
620.957	15.13
621.15	14.94
621.342	14.92
621.535	14.85
621.727	14.83
621.92	14.81
622.112	14.86
622.305	14.87
622.497	14.88
622.69	14.76
622.882	14.86
623.074	14.92
623.267	14.93
623.459	14.79
623.651	14.91
623.844	14.84
624.036	14.81
624.228	14.76
624.42	14.82
624.613	14.81
624.805	14.75
624.997	14.71
625.189	14.75
625.381	14.68
625.574	14.57
625.766	14.53
625.958	14.54
626.15	14.51
626.342	14.52
626.534	14.52
626.726	14.56
626.918	14.48
627.11	14.38
627.302	14.41
627.494	14.37
627.686	14.33
627.878	14.34
628.07	14.34
628.262	14.35
628.454	14.34
628.646	14.25
628.838	14.2
629.029	14.22
629.221	14.08
629.413	14.01
629.605	13.96
629.797	13.92
629.989	13.84
630.18	13.86
630.372	13.88
630.564	13.92
630.755	13.86
630.947	13.85
631.139	13.82
631.33	13.8
631.522	13.82
631.714	13.8
631.905	13.75
632.097	13.66
632.289	13.65
632.48	13.52
632.672	13.54
632.863	13.48
633.055	13.5
633.246	13.48
633.438	13.55
633.629	13.49
633.821	13.49
634.012	13.48
634.203	13.4
634.395	13.32
634.586	13.38
634.777	13.39
634.969	13.41
635.16	13.42
635.351	13.42
635.543	13.29
635.734	13.2
635.925	13.18
636.117	13.19
636.308	13.27
636.499	13.3
636.69	13.41
636.881	13.42
637.073	13.46
637.264	13.42
637.455	13.42
637.646	13.36
637.837	13.3
638.028	13.22
638.219	13.25
638.41	13.25
638.601	13.2
638.792	13.18
638.983	13.14
639.174	13.01
639.365	12.95
639.556	12.93
639.747	12.92
639.938	13.02
640.129	13.07
640.32	13.04
640.511	13.04
640.701	13.07
640.892	12.9
641.083	12.78
641.274	12.78
641.465	12.79
641.655	12.72
641.846	12.77
642.037	12.78
642.228	12.69
642.418	12.59
642.609	12.55
642.8	12.52
642.99	12.54
643.181	12.61
643.372	12.68
643.562	12.66
643.753	12.63
643.943	12.52
644.134	12.44
644.324	12.35
644.515	12.31
644.705	12.31
644.896	12.43
645.086	12.47
645.277	12.45
645.467	12.42
645.658	12.36
645.848	12.29
646.038	12.21
646.229	12.19
646.419	12.13
646.61	12.2
646.8	12.19
646.99	12.18
647.18	12.14
647.371	12.18
647.561	11.99
647.751	11.93
647.941	11.9
648.132	11.95
648.322	11.87
648.512	11.92
648.702	12.05
648.892	12.1
649.082	12.11
649.272	12.09
649.462	12.18
649.653	12
649.843	11.92
650.033	11.86
650.223	11.9
650.413	11.84
650.603	11.87
650.793	11.9
650.983	11.83
651.172	11.83
651.362	11.73
651.552	11.66
651.742	11.58
651.932	11.54
652.122	11.43
652.312	11.42
652.502	11.31
652.691	11.27
652.881	11.28
653.071	11.3
653.261	11.21
653.45	11.24
653.64	11.18
653.83	11.09
654.019	11.04
654.209	11.06
654.399	10.98
654.588	10.9
654.778	10.74
654.968	10.61
655.157	10.49
655.347	10.4
655.536	10.3
655.726	10.21
655.915	10.06
656.105	9.97
656.294	9.78
656.484	9.57
656.673	9.54
656.863	9.58
657.052	9.44
657.241	9.47
657.431	9.51
657.62	9.39
657.809	9.11
657.999	9.03
658.188	8.82
658.377	8.79
658.567	8.77
658.756	8.82
658.945	8.69
659.134	8.63
659.324	8.37
659.513	8.16
659.702	7.96
659.891	7.9
660.08	7.74
660.269	7.62
660.458	7.54
660.648	7.41
660.837	7.25
661.026	7.16
661.215	7.08
661.404	6.91
661.593	6.91
661.782	6.74
661.971	6.61
662.16	6.56
662.349	6.48
662.538	6.29
662.726	6.33
662.915	6.37
663.104	6.24
663.293	6.2
663.482	6.15
663.671	6
663.86	5.93
664.048	5.94
664.237	5.94
664.426	5.89
664.615	5.82
664.803	5.74
664.992	5.61
665.181	5.5
665.369	5.41
665.558	5.38
665.747	5.34
665.935	5.35
666.124	5.41
666.312	5.46
666.501	5.5
666.69	5.5
666.878	5.46
667.067	5.31
667.255	5.24
667.444	5.27
667.632	5.22
667.82	5.21
668.009	5.19
668.197	5.25
668.386	5.18
668.574	5.18
668.762	5.19
668.951	5.28
669.139	5.18
669.327	5.16
669.516	5.13
669.704	5.11
669.892	5.1
670.08	5.12
670.269	5.17
670.457	5.18
670.645	5.21
670.833	5.34
671.021	5.5
671.21	5.5
671.398	5.55
671.586	5.63
671.774	5.6
671.962	5.59
672.15	5.64
672.338	5.72
672.526	5.73
672.714	5.77
672.902	5.8
673.09	5.81
673.278	5.83
673.466	5.89
673.654	5.91
673.842	5.95
674.03	6.04
674.218	6.1
674.405	6.18
674.593	6.24
674.781	6.35
674.969	6.48
675.157	6.6
675.344	6.63
675.532	6.69
675.72	6.7
675.908	6.67
676.095	6.59
676.283	6.72
676.471	6.79
676.658	6.87
676.846	6.98
677.033	7.12
677.221	7.05
677.409	7.08
677.596	7.14
677.784	7.23
677.971	7.22
678.159	7.43
678.346	7.45
678.534	7.41
678.721	7.55
678.909	7.77
679.096	7.77
679.283	7.94
679.471	8.24
679.658	8.3
679.846	8.26
680.033	8.47
680.22	8.55
680.408	8.47
680.595	8.49
680.782	8.74
680.969	8.78
681.157	8.87
681.344	8.95
681.531	9.1
681.718	9.08
681.905	9.22
682.093	9.35
682.28	9.62
682.467	9.84
682.654	9.99
682.841	10.22
683.028	10.27
683.215	10.42
683.402	10.36
683.589	10.56
683.776	10.56
683.963	10.91
684.15	10.99
684.337	11.24
684.524	11.33
684.711	11.49
684.898	11.54
685.085	11.72
685.271	12.01
685.458	12.26
685.645	12.37
685.832	12.52
686.019	12.67
686.205	12.94
686.392	13.16
686.579	13.49
686.766	13.93
686.952	14.22
687.139	14.49
687.326	14.74
687.512	14.96
687.699	15.2
687.886	15.6
688.072	15.74
688.259	16.16
688.445	16.6
688.632	16.89
688.818	17.32
689.005	17.85
689.191	18.21
689.378	18.78
689.564	19.38
689.751	19.73
689.937	20.21
690.124	20.67
690.31	20.95
690.496	21.28
690.683	21.83
690.869	22.31
691.055	22.88
691.242	23.55
691.428	24.25
691.614	24.71
691.8	25.33
691.987	26.13
692.173	26.68
692.359	27.22
692.545	28.05
692.731	28.68
692.918	29.07
693.104	29.77
693.29	30.45
693.476	31.11
693.662	31.74
693.848	32.46
694.034	33.11
694.22	33.89
694.406	34.42
694.592	35.29
694.778	35.83
694.964	36.48
695.15	37.05
695.336	37.84
695.522	38.33
695.708	39.35
695.894	40.19
696.08	40.9
696.265	41.72
696.451	42.5
696.637	43.28
696.823	43.89
697.009	44.66
697.194	45.3
697.38	45.91
697.566	46.28
697.751	47.13
697.937	47.93
698.123	48.6
698.308	49.21
698.494	50.29
698.68	51.03
698.865	51.4
699.051	52.12
699.236	52.75
699.422	52.96
699.607	53.42
699.793	54.48
699.978	54.74
700.164	55.24
700.349	56.04
700.535	56.34
700.72	56.52
700.906	57.44
701.091	58.2
701.276	58.57
701.462	59.42
701.647	60.03
701.832	60.56
702.018	61.3
702.203	62.02
702.388	62.29
702.573	62.75
702.759	63.12
702.944	63.35
703.129	63.69
703.314	64.26
703.499	64.58
703.684	65.11
703.87	65.52
704.055	66.11
704.24	66.78
704.425	67.57
704.61	67.92
704.795	68.51
704.98	68.73
705.165	68.85
705.35	69.1
705.535	69.55
705.72	69.95
705.905	70.51
706.09	71.24
706.275	71.66
706.459	72.04
706.644	72.16
706.829	72.29
707.014	72.68
707.199	73.07
707.384	73.13
707.568	73.35
707.753	74.07
707.938	73.94
708.123	74.3
708.307	74.66
708.492	75.48
708.677	75.63
708.861	76.08
709.046	75.89
709.231	76.26
709.415	76.27
709.6	76.78
709.784	77.07
709.969	77.75
710.153	77.7
710.338	78.44
710.522	78.34
710.707	78.27
710.891	78.11
711.076	78.82
711.26	78.73
711.445	79.03
711.629	79.41
711.813	79.84
711.998	80.17
712.182	80.03
712.366	80.3
712.551	80.88
712.735	81.19
712.919	81.14
713.103	81.92
713.288	82.18
713.472	82.57
713.656	82.77
713.84	83.16
714.024	83.02
714.208	82.94
714.393	83.03
714.577	83.22
714.761	83.44
714.945	83.47
715.129	83.87
715.313	83.85
715.497	83.75
715.681	83.92
715.865	84.01
716.049	84.09
716.233	84.17
716.417	84.6
716.601	85.01
716.785	85.6
716.968	85.67
717.152	85.76
717.336	86.57
717.52	86.85
717.704	87.03
717.888	87.54
718.071	87.84
718.255	87.49
718.439	87.4
718.622	87.87
718.806	87.56
718.99	87.77
719.174	87.63
719.357	87.92
719.541	87.63
719.724	87.91
719.908	87.9
720.092	88.19
720.275	87.96
720.459	88.35
720.642	88.82
720.826	88.79
721.009	88.95
721.193	88.88
721.376	88.89
721.559	89.2
721.743	89.98
721.926	90.28
722.11	91.03
722.293	91.39
722.476	90.72
722.66	91.07
722.843	90.79
723.026	90.82
723.21	90.79
723.393	91.79
723.576	91.43
723.759	91.75
723.942	91.81
724.126	92
724.309	91.69
724.492	91.82
724.675	91.83
724.858	92.23
725.041	92.12
725.224	92.42
725.407	92.18
725.59	92.82
725.774	92.6
725.957	92.64
726.14	92.6
726.322	93.32
726.505	92.98
726.688	93.71
726.871	94.04
727.054	94.43
727.237	94.6
727.42	94.79
727.603	94.22
727.786	94.17
727.968	94.01
728.151	93.89
728.334	94.52
728.517	94.89
728.699	95.26
728.882	95.17
729.065	95.23
729.248	95.02
729.43	94.67
729.613	94.67
729.796	95.54
729.978	95.78
730.161	95.64
730.343	95.88
730.526	95.48
730.708	94.72
730.891	95.03
731.073	95.42
731.256	95.55
731.438	96.67
731.621	97.25
731.803	97.04
731.986	96.76
732.168	96.99
732.35	96.74
732.533	96.63
732.715	96.46
732.898	96.87
733.08	96.91
733.262	96.88
733.444	97.42
733.627	97.93
733.809	98.57
733.991	98.54
734.173	98.25
734.355	98.02
734.538	97.63
734.72	97.24
734.902	98.02
735.084	98.52
735.266	99.24
735.448	100.31
735.63	100.75
735.812	100.82
735.994	100.68
736.176	100.57
736.358	100.61
736.54	100.91
736.722	100.83
736.904	101.15
737.086	100.85
737.268	100.6
737.45	100.89
737.632	100.96
737.814	101.03
737.995	100.56
738.177	101.03
738.359	100.78
738.541	100.39
738.723	100.49
738.904	101.57
739.086	101.32
739.268	101.03
739.449	101.11
739.631	101.08
739.813	100.26
739.994	99.72
740.176	100.12
740.358	100.89
740.539	101.15
740.721	102.11
740.902	102.84
741.084	102.92
741.265	102.08
741.447	102.36
741.628	101.85
741.81	101.29
741.991	101.69
742.172	101.67
742.354	101.89
742.535	101.78
742.717	101.81
742.898	101.91
743.079	103.32
743.261	102.42
743.442	102.25
743.623	103.05
743.804	102.94
743.986	101.52
744.167	101.38
744.348	101.29
744.529	100.16
744.71	99.52
744.891	99.61
745.073	100.48
745.254	100.11
745.435	100.79
745.616	100.94
745.797	101.13
745.978	100.27
746.159	100.58
746.34	100.82
746.521	100.37
746.702	101.75
746.883	101.66
747.064	102.39
747.245	102.22
747.426	103.14
747.606	102.6
747.787	103.53
747.968	102.42
748.149	102.4
748.33	101.2
748.51	99.65
748.691	99.59
748.872	102.52
749.053	102.22
749.233	102.25
749.414	103.4
749.595	103.2
749.775	100
749.956	100.4
750.137	101.03
750.317	100.18
750.498	100.22
750.678	100.92
750.859	100.66
751.04	99.74
751.22	99.65
751.4	100.28
751.581	101.06
751.761	100.95
751.942	101.92
752.122	101.06
752.303	100.31
752.483	99.01
752.663	100.07
752.844	99.8
753.024	102.32
753.204	101.93
753.385	102.48
753.565	101.09
753.745	99.99
753.925	97.62
754.106	97.21
754.286	97.03
754.466	96.74
754.646	98.18
754.826	100.31
755.006	100.2
755.187	102.1
755.367	102.05
755.547	101
755.727	100.33
755.907	100.67
756.087	98.45
756.267	98.43
756.447	100.04
756.627	100.26
756.807	101.98
756.987	102.07
757.167	103.15
757.346	102.04
757.526	102.19
757.706	100.98
757.886	102
758.066	101.73
758.246	101.08
758.425	99.78
758.605	99.2
758.785	98.97
758.965	99.3
759.144	97.64
759.324	98.95
759.504	99.55
759.683	99.36
759.863	99.91
760.043	101.94
760.222	100.8
760.402	99.45
760.581	99.57
760.761	97.73
760.94	96.46
761.12	96.96
761.299	98.76
761.479	99.63
761.658	100.44
761.838	102.84
762.017	103.35
762.197	102.04
762.376	101.04
762.555	100.94
762.735	98.55
762.914	97.36
763.093	96.99
763.273	97.07
763.452	95.62
763.631	96.47
763.81	96.79
763.99	96.16
764.169	95.28
764.348	96.12
764.527	95.28
764.706	95.68
764.885	98.03
765.064	98.91
765.243	99.08
765.423	100.76
765.602	101.11
765.781	97.65
765.96	97.29
766.139	96.26
766.318	96.54
766.497	94.63
766.676	95.61
766.854	95.52
767.033	98.51
767.212	98.71
767.391	100.04
767.57	103.22
767.749	102.56
767.928	102.22
768.106	100.28
768.285	98.95
768.464	97.81
768.643	98.22
768.821	95.71
769	96.64
769.179	97.02
769.357	96.31
769.536	95.14
769.715	95
769.893	94.39
770.072	92.69
770.25	92.02
770.429	92.87
770.607	93.49
770.786	92.86
770.964	95.21
771.143	95.93
771.321	93.77
771.5	94.28
771.678	94.21
771.857	92.8
772.035	91.36
772.213	93.58
772.392	91.52
772.57	91.31
772.748	91.5
772.927	92.8
773.105	93.29
773.283	94.89
773.461	97.34
773.64	97.58
773.818	98.7
773.996	99.01
774.174	99.83
774.352	97.83
774.531	97.32
774.709	95.59
774.887	94.55
775.065	93.01
775.243	93.3
775.421	95.35
775.599	97.78
775.777	96.34
775.955	95.15
776.133	95.36
776.311	93.31
776.489	91.18
776.667	91.16
776.844	92.93
777.022	91.42
777.2	90.02
777.378	88.3
777.556	90.53
777.734	90.99
777.911	94.11
778.089	98.61
778.267	100.3
778.445	100.79
778.622	101.12
778.8	94.53
778.978	94.01
779.155	94.75
779.333	92.68
779.511	91.54
779.688	93.42
779.866	91.93
780.043	91.53
780.221	92.36
780.398	91.95
780.576	93.23
780.753	92.54
780.931	91.45
781.108	92.29
781.286	93.63
781.463	92.63
781.64	92.95
781.818	94.7
781.995	94.3
782.172	92.63
782.35	95.33
782.527	95.31
782.704	93.23
782.882	88.8
783.059	90.63
783.236	88.58
783.413	86.44
783.59	87
783.768	88.9
783.945	86.32
784.122	86.95
784.299	89.95
784.476	88.17
784.653	87.77
784.83	86.83
785.007	85.3
785.184	82.44
785.361	83.81
785.538	85.48
785.715	90.38
785.892	90.62
786.069	94.33
786.246	93.9
786.423	92.5
786.6	91.01
786.776	93.4
786.953	88.45
787.13	91.74
787.307	93.16
787.484	89.65
787.66	88.62
787.837	89.11
788.014	87.08
788.191	85.72
788.367	84.52
788.544	85.95
788.721	85.06
788.897	85.56
789.074	88.59
789.25	88.42
789.427	85.55
789.603	85.51
789.78	84.06
789.956	80.2
790.133	79.3
790.309	81.01
790.486	83.7
790.662	82.85
790.839	82.73
791.015	85.7
791.192	83.82
791.368	83.89
791.544	84.61
791.721	85.24
791.897	84.03
792.073	82.51
792.249	83.2
792.426	80.92
792.602	83.02
792.778	85.17
792.954	89.52
793.13	87.78
793.307	89.7
793.483	85.93
793.659	84.44
793.835	85.61
794.011	88.49
794.187	90.29
794.363	89.41
794.539	91.77
794.715	88.17
794.891	85.69
795.067	83.63
795.243	85.01
795.419	82.55
795.595	85.19
795.771	83.17
795.947	79.63
796.122	77.93
796.298	76.72
796.474	82.1
796.65	83.07
796.826	84.6
797.001	85.22
797.177	79.33
797.353	70.44
797.529	71.82
797.704	74.2
797.88	72.5
798.056	78.8
798.231	76.46
798.407	77.11
798.582	75.03
798.758	77.48
798.934	83.06
799.109	85.12
799.285	83.5
799.46	82.5
799.636	82.69
799.811	78.64
799.986	77.7
800.162	76.38
800.337	83.77
800.513	83.12
800.688	78.96
800.863	83.92
801.039	81.69
801.214	71.04
801.389	69.05
801.565	70.36
801.74	68.77
801.915	71.71
802.09	76.88
802.265	79.23
802.441	83.34
802.616	81.33
802.791	85.32
802.966	86.43
803.141	88.75
803.316	87.17
803.491	93.74
803.666	92.09
803.841	92.55
804.016	89.96
804.191	89.05
804.366	83.45
804.541	83.44
804.716	78.14
804.891	78.41
805.066	82.72
805.241	78.91
805.416	88.02
805.591	86.12
805.765	102.2
805.94	93.61
806.115	95.97
806.29	80.81
806.464	85.96
806.639	73.22
806.814	75.57
806.989	75.5
807.163	79.08
807.338	72.44
807.512	75.48
807.687	76.56
807.862	79.4
808.036	85.09
808.211	89.59
808.385	84.78
808.56	82.97
808.734	75.03
808.909	67.87
809.083	69.3
809.258	75.21
809.432	71.95
809.606	74.1
809.781	82.44
809.955	81.55
810.13	78.86
810.304	84.38
810.478	86.21
810.652	81.2
810.827	82.18
811.001	78.55
811.175	76.45
811.349	76.29
811.524	76.56
811.698	69.81
811.872	72.96
812.046	65.54
812.22	63.68
812.394	59.03
812.568	59.56
812.742	56.49
812.916	68.13
813.09	65.96
813.264	62.16
813.438	63.37
813.612	60.75
813.786	56.66
813.96	60.8
814.134	68.19
814.308	75.75
814.482	81.35
814.656	75.94
814.83	67.96
815.003	65.8
815.177	62.44
815.351	61.46
815.525	74.38
815.698	73.66
815.872	68.36
816.046	64.5
816.219	72.97
816.393	61.92
816.567	70.71
816.74	80.28
816.914	84.09
817.088	74
817.261	77.57
817.435	77.59
817.608	78.46
817.782	73.19
817.955	74.63
818.129	72.5
818.302	74.01
818.475	71.7
818.649	73.59
818.822	67.22
818.996	75.36
819.169	75.87
819.342	75.46
819.516	72.63
819.689	72.4
819.862	62.97
820.035	60.52
820.209	55.96
820.382	52.93
820.555	52.75
820.728	47.64
820.901	39.49
821.075	41.94
821.248	53.58
821.421	60.74
821.594	62.75
821.767	76.79
821.94	76.03
822.113	65.79
822.286	70.88
822.459	74.64
822.632	73.46
822.805	62.82
822.978	75.32
823.151	68.22
823.324	58.36
823.496	47.45
823.669	55.27
823.842	59.7
824.015	61.9
824.188	69.37
824.361	67.89
824.533	64.04
824.706	55.3
824.879	61.13
825.051	69.81
825.224	74.61
825.397	76.46
825.569	80.49
825.742	80.8
825.915	77.77
826.087	65.31
826.26	61.38
826.432	53.58
826.605	48.63
826.777	51.39
826.95	69.76
827.122	67.59
827.295	91.6
827.467	99
827.64	78.58
827.812	53.81
827.984	71.59
828.157	39.55
828.329	41.53
828.501	55.67
828.674	59.83
828.846	56.71
829.018	59.31
829.19	48.75
829.363	43.7
829.535	55.67
829.707	52.2
829.879	54.6
830.051	52.32
830.223	73.51
830.395	54.11
830.568	49.89
830.74	42.81
830.912	59.2
831.084	53.8
831.256	49.75
831.428	58.52
831.6	53.02
831.772	36.47
831.943	13.22
832.115	32.74
832.287	42.01
832.459	53.08
832.631	55.47
832.803	69.64
832.975	62.99
833.146	49.91
833.318	55.34
833.49	61.14
833.662	76.75
833.833	73.18
834.005	70.29
834.177	59.74
834.348	50.62
834.52	39.24
834.692	25.6
834.863	27.38
835.035	37.37
835.206	35.45
835.378	27.33
835.549	48.71
835.721	39.48
835.892	40.6
836.064	45.83
836.235	55.64
836.407	53.96
836.578	70.33
836.749	47.81
836.921	61.59
837.092	50.3
837.264	54.43
837.435	46.2
837.606	73.35
837.777	64.95
837.949	68.01
838.12	64.23
838.291	69.02
838.462	60.76
838.633	60.06
838.805	42.17
838.976	53.05
839.147	45.21
839.318	37.23
839.489	29.4
839.66	51.96
839.831	42.82
840.002	44.45
840.173	45.16
840.344	49.96
840.515	37.62
840.686	39.16
840.857	37.66
841.028	37.29
841.199	32.92
841.369	24.31
841.54	2.69
841.711	17.6
841.882	19.52
842.053	22.43
842.223	27.96
842.394	28.99
842.565	28.62
842.736	26.97
842.906	26.5
843.077	45.38
843.248	70.22
843.418	51.22
843.589	57.06
843.759	64.23
843.93	50.57
844.101	32.04
844.271	46.53
844.442	53.49
844.612	44.92
844.783	71.24
844.953	62.01
845.123	53.36
845.294	66.34
845.464	87.38
845.635	43.83
845.805	70.44
845.975	112.32
846.146	64.61
846.316	41.07
846.486	60.25
846.656	61.08
846.827	42.5
846.997	37.85
847.167	46.05
847.337	33.78
847.507	29.44
847.677	30.32
847.848	46.21
848.018	58.79
848.188	69.18
848.358	69.5
848.528	87.71
848.698	70.85
848.868	64.47
849.038	49.31
849.208	54.4
849.378	34.46
849.548	16.27
849.718	-5.56
849.887	25.22
850.057	32.47
850.227	69.95
850.397	83.81
850.567	65.97
850.737	56.01
850.906	21.79
851.076	-3.97
851.246	46.62
851.415	42.47
851.585	35.75
851.755	48.5
851.924	58.64
852.094	28.78
852.264	23.6
852.433	19.6
852.603	0.94
852.772	26.75
852.942	38.25
853.111	45.05
853.281	45.39
853.45	61.85
853.62	46.58
853.789	-2.25
853.959	5.96
854.128	10.33
854.297	7.44
854.467	2.28
854.636	26.82
854.805	20.81
854.975	31.42
855.144	29.46
855.313	64.44
855.482	45.09
855.652	55.46
855.821	10.04
855.99	31.62
856.159	18.5
856.328	25.91
856.497	30.72
856.667	49.19
856.836	42.31
857.005	29.73
857.174	26.34
857.343	17.21
857.512	17.73
857.681	6.15
857.85	18.54
858.019	-8.78
858.188	-6.69
858.356	14.21
858.525	17.05
858.694	25.06
858.863	31.64
859.032	35.06
859.201	34.7
859.369	26.37
859.538	27.05
859.707	23.88
859.876	27.45
860.044	18.65
860.213	32.73
860.382	31.92
860.55	19.9
860.719	20.57
860.888	11.32
861.056	-16.35
861.225	-39.73
861.393	-15.44
861.562	-22.92
861.73	-16.59
861.899	1.08
862.067	-24.75
862.236	-15.04
862.404	-19.77
862.572	-14.37
862.741	-13.37
862.909	9.76
863.078	2.87
863.246	-16.78
863.414	24.59
863.582	28.09
863.751	31.8
863.919	43.08
864.087	78.54
864.255	36.22
864.424	19.43
864.592	29.54
864.76	22.5
864.928	31.26
865.096	53.71
865.264	38.87
865.432	78.71
865.6	82.34
865.768	73.81
865.936	31.98
866.104	49.26
866.272	20.79
866.44	9.14
866.608	16.09
866.776	11.72
866.944	23.62
867.112	23.66
867.28	19.11
867.448	37.49
867.615	46.13
867.783	35.42
867.951	17.42
868.119	45
868.286	23.25
868.454	19.73
868.622	7.21
868.789	23.27
868.957	31.48
869.125	17.3
869.292	-29.37
869.46	-5.74
869.627	-25.33
869.795	-70.94
869.963	-29.64
870.13	13.03
870.298	14.3
870.465	21.41
870.632	15.14
870.8	21.81
870.967	13.99
871.135	26.35
871.302	15.37
871.469	33.05
871.637	46.02
871.804	64.23
871.971	18.24
872.139	16.25
872.306	-4.84
872.473	-12.71
872.64	-125.89
872.807	-99.39
872.975	-213.54
873.142	-35.46
873.309	-41.21
873.476	44.14
873.643	96.73
873.81	93.37
873.977	98.04
874.144	109.71
874.311	41.6
874.478	-0.14
874.645	-77.12
874.812	-13.89
874.979	-38.11
875.146	-36.94
875.313	-19.92
875.48	53.94
875.647	58.48
875.813	7.25
875.98	27.27
876.147	58.48
876.314	52.59
876.481	84.1
876.647	99.86
876.814	51.82
876.981	60.38
877.147	62.52
877.314	73.75
877.481	88.48
877.647	93
877.814	87.13
877.98	75.55
878.147	73.52
878.314	53.23
878.48	49.16
878.647	52.7
878.813	75.46
878.979	65.72
879.146	101.15
879.312	115.04
879.479	72.51
879.645	52.89
879.811	3.36
879.978	12.67
880.144	20.41
880.31	32.96
880.477	43.41
880.643	56.74
880.809	13.19
880.975	-24.37
881.142	-36.85
881.308	413.86
881.474	455.46
881.64	18.04
881.806	16.27
881.972	-24.7
882.138	-10.19
882.304	-42.09
882.47	-96.95
882.636	-108.58
882.802	-69.19
882.968	-3.85
883.134	31.22
883.3	52.32
883.466	172.28
883.632	175.7
883.798	196.02
883.964	235.32
884.129	868.56
884.295	207.46
884.461	132.47
884.627	44.23
884.793	-17.68
884.958	16.3
885.124	-25.08
885.29	-73.56
885.455	-72.86
885.621	31.01
885.787	44.26
885.952	12.05
886.118	45.81
886.283	47.33
886.449	27.8
886.614	-10.57
886.78	26.97
886.945	37.13
887.111	25.38
887.276	36.24
887.442	65.63
887.607	74.54
887.773	60.7
887.938	35.42
888.103	23.99
888.269	41.48
888.434	27.48
888.599	6.74
888.764	39.07
888.93	47.95
889.095	29.42
889.26	14.83
889.425	19.52
889.59	-28.81
889.756	-42.16
889.921	-45.71
890.086	-22.13
890.251	41.02
890.416	17.39
890.581	0.45
890.746	97.52
890.911	57.57
891.076	48.04
891.241	24.51
891.406	29.44
891.571	-45.76
891.736	-153.39
891.901	-19.64
892.065	21.29
892.23	5.75
892.395	-32.68
892.56	-17.35
892.725	-56.62
892.889	-79.98
893.054	40.57
893.219	12.49
893.384	-45.13
893.548	-137.34
893.713	-229.69
893.878	-407.06
