Data from Ofra_PS_T2_1A_0GT14_Reflection_3.txt Node
Date: Wed Jul 21 17:44:55 EDT 2021
User: Adam
Spectrometer: FLMT01687
Trigger mode: 0
Integration Time (sec): 1.100000E0
Scans to average: 2
Electric dark correction enabled: true
Nonlinearity correction enabled: false
Boxcar width: 2
XAxis mode: Wavelengths
Number of Pixels in Spectrum: 3648
>>>>>Begin Spectral Data<<<<<
179.494	629.2
179.716	693.65
179.937	629.54
180.158	587.87
180.38	854.69
180.601	173.76
180.823	19.05
181.044	-185.07
181.265	26.1
181.486	69.84
181.708	123.21
181.929	1064.29
182.15	-582.39
182.372	117.74
182.593	27.35
182.814	34.17
183.035	78.87
183.257	45.36
183.478	-56.06
183.699	25.52
183.92	-6.02
184.141	18.31
184.363	-38.8
184.584	25.38
184.805	44.4
185.026	62.84
185.247	61.78
185.468	54.81
185.689	59.63
185.91	55.17
186.132	49.4
186.353	35.63
186.574	85.19
186.795	61.08
187.016	8.18
187.237	5.09
187.458	-36.57
187.679	-41.12
187.9	-16.9
188.121	2.83
188.342	20.34
188.563	82.67
188.784	141.11
189.005	148.57
189.226	179.14
189.447	157.27
189.667	150.24
189.888	-227.34
190.109	-1238.31
190.33	-754.52
190.551	-1382.74
190.772	-312.23
190.993	-285.56
191.214	-250.11
191.434	-154.5
191.655	-55.52
191.876	-135.79
192.097	-144.67
192.318	-215.06
192.538	-349.12
192.759	-240.21
192.98	-117.6
193.201	-44.75
193.421	-15.38
193.642	22.91
193.863	41.48
194.083	30.07
194.304	6.64
194.525	13.86
194.745	-5.8
194.966	-25.8
195.187	-40.81
195.407	-65.6
195.628	-150.59
195.848	-151.25
196.069	-173.37
196.29	-105.29
196.51	-129.42
196.731	-101.85
196.951	-133.68
197.172	-117.67
197.392	-191.41
197.613	-151.45
197.833	-187.71
198.054	-134.5
198.274	-89.51
198.495	-91.74
198.715	-66.15
198.936	-81.3
199.156	-83.23
199.377	-218.77
199.597	-181.17
199.817	-183.6
200.038	-87.5
200.258	-144.17
200.479	-32.91
200.699	-25.35
200.919	24.81
201.14	-18.65
201.36	-0.98
201.58	18.37
201.801	40.3
202.021	9.34
202.241	7.05
202.461	-13.66
202.682	-86.92
202.902	-165.49
203.122	-106.96
203.342	-84.72
203.563	-27
203.783	-8.8
204.003	-44.71
204.223	-41.52
204.443	42.43
204.663	5.27
204.884	25.55
205.104	87.17
205.324	116.89
205.544	87.17
205.764	94.79
205.984	76.04
206.204	51.91
206.424	44.68
206.644	7
206.864	3.21
207.084	-22.63
207.304	27.63
207.525	-76.72
207.745	-4.41
207.964	49.01
208.184	-18.35
208.404	-79.62
208.624	-82.05
208.844	-96.23
209.064	-446.43
209.284	-439.77
209.504	-221.67
209.724	-76
209.944	-42.68
210.164	0.92
210.384	14.05
210.604	17.29
210.823	-17.73
211.043	-44.55
211.263	-39.6
211.483	-38.11
211.703	-94.14
211.922	-81.62
212.142	-17.42
212.362	-13.22
212.582	-37.71
212.801	-28.11
213.021	-63.47
213.241	-90.44
213.461	-126.93
213.68	-129.71
213.9	-111.8
214.12	-52.96
214.339	-111.62
214.559	-49.86
214.779	6.71
214.998	2.73
215.218	-21.04
215.438	-1.96
215.657	-35.44
215.877	-52.8
216.096	-8.12
216.316	4.36
216.535	4.49
216.755	11.87
216.974	-56.97
217.194	-119.82
217.413	-151.48
217.633	-152.17
217.852	-278.02
218.072	-120.31
218.291	-50.68
218.511	14.54
218.73	-11.01
218.95	-7.29
219.169	-14.18
219.389	-70.69
219.608	-69.48
219.827	-57.25
220.047	-44.76
220.266	-41.94
220.485	-40.23
220.705	-37.19
220.924	-59
221.143	-3.04
221.363	-21.35
221.582	-14.78
221.801	-13.13
222.021	11.73
222.24	-105.52
222.459	-44.84
222.678	-56.65
222.897	-132.83
223.117	-180.32
223.336	-137.1
223.555	-91.81
223.774	-23.81
223.993	-11.46
224.213	57.31
224.432	34.02
224.651	36.16
224.87	-0.39
225.089	19.63
225.308	0.73
225.527	18.61
225.746	9.82
225.965	6.46
226.184	-25.47
226.404	-9.79
226.623	-25.41
226.842	-11.13
227.061	22.84
227.28	29.1
227.499	21.88
227.718	35.15
227.936	25.56
228.155	33.26
228.374	34.12
228.593	40.32
228.812	16.61
229.031	0.66
229.25	-81.06
229.469	-104.63
229.688	-92.84
229.907	-25.55
230.125	-5.73
230.344	23.21
230.563	59.57
230.782	59.41
231.001	-24.78
231.22	-13.26
231.438	8.27
231.657	-9.75
231.876	-31.72
232.095	27.24
232.313	24.24
232.532	22.76
232.751	4.39
232.969	1.54
233.188	-61.02
233.407	-11.1
233.625	-21.02
233.844	-47.23
234.063	-22.6
234.281	7.13
234.5	-4
234.719	10.81
234.937	29.23
235.156	15.42
235.374	22.75
235.593	13.77
235.811	12.58
236.03	-14.01
236.249	-32.56
236.467	-30.42
236.686	-1.99
236.904	1.14
237.123	-17.66
237.341	-10.23
237.559	-12.93
237.778	-23.06
237.996	-46.4
238.215	17.98
238.433	18.22
238.652	14.03
238.87	-14.6
239.088	12.54
239.307	4.32
239.525	0.5
239.743	-14.07
239.962	5.73
240.18	-34.54
240.398	-92.79
240.617	-111.91
240.835	-101.22
241.053	-78.31
241.271	-18.34
241.49	3.08
241.708	13.42
241.926	23.56
242.144	37.44
242.363	-31.21
242.581	-44.48
242.799	-15.37
243.017	4.65
243.235	-19.11
243.453	-2.63
243.672	-0.85
243.89	-14.77
244.108	-31.55
244.326	-12.4
244.544	-12.95
244.762	-5.25
244.98	14.15
245.198	15.19
245.416	-20.2
245.634	-16.85
245.852	-15.8
246.07	-43.74
246.288	-39.44
246.506	-64.7
246.724	-60.52
246.942	-63.7
247.16	-7.03
247.378	-6.63
247.596	17.34
247.814	8.85
248.032	-8.02
248.25	-5.6
248.468	7.25
248.685	18
248.903	54.45
249.121	57.89
249.339	21.36
249.557	7.81
249.775	9.83
249.992	-86.64
250.21	-93.37
250.428	-62.08
250.646	-94.69
250.863	-114.42
251.081	-52.16
251.299	-36.28
251.517	-36.79
251.734	-9.81
251.952	-13.41
252.17	-8.64
252.387	-1.25
252.605	-18.32
252.823	-15.41
253.04	0.32
253.258	12.95
253.475	15.6
253.693	46.02
253.911	40.55
254.128	43.26
254.346	29.32
254.563	-14.47
254.781	-52.5
254.998	-67.01
255.216	-72.79
255.433	-54.03
255.651	5.64
255.868	58.84
256.086	77.98
256.303	61.23
256.521	40.96
256.738	17.55
256.956	-25.08
257.173	-61.48
257.39	-67.04
257.608	-91.51
257.825	-32.49
258.043	20.68
258.26	27.27
258.477	65.67
258.695	48.02
258.912	15.03
259.129	11.51
259.346	-33.92
259.564	-73.92
259.781	-47.55
259.998	1.14
260.216	18.86
260.433	62.35
260.65	62.21
260.867	59.36
261.084	23.83
261.302	-3.54
261.519	-5.25
261.736	-42.14
261.953	-54.99
262.17	-17.94
262.387	-22.11
262.604	-50.91
262.822	-59.11
263.039	-47.42
263.256	-94.39
263.473	-82.15
263.69	-55.06
263.907	-11.86
264.124	-3.7
264.341	-0.33
264.558	8.1
264.775	21.32
264.992	24.64
265.209	34.68
265.426	49.6
265.643	51.49
265.86	55.46
266.077	58.44
266.294	23.5
266.51	-9.08
266.727	-44.68
266.944	-41.18
267.161	-69.02
267.378	-53.71
267.595	-22.03
267.812	-28.41
268.028	-43.42
268.245	-1.77
268.462	-26.06
268.679	-39.09
268.896	13.68
269.112	11.47
269.329	8.38
269.546	15.05
269.763	5.48
269.979	-9.39
270.196	-17.7
270.413	-58.08
270.629	-79.98
270.846	-79.73
271.063	-87.32
271.279	-97.11
271.496	-63.26
271.712	-32.85
271.929	-11.49
272.146	-16.19
272.362	4.68
272.579	55.7
272.795	48.61
273.012	46.17
273.228	42.15
273.445	15.11
273.661	-63.97
273.878	-101.71
274.094	-93.01
274.311	-132.06
274.527	-45.85
274.744	-38.78
274.96	-16.88
275.177	-2.61
275.393	20.71
275.609	15.5
275.826	31.95
276.042	25.04
276.259	4.55
276.475	22.24
276.691	11.5
276.908	-11.39
277.124	7.03
277.34	-6.16
277.557	-16.36
277.773	-22.1
277.989	-8.58
278.205	-24.49
278.422	7.34
278.638	4.1
278.854	43.03
279.07	23.83
279.286	24.03
279.503	-7.56
279.719	-1.55
279.935	-51
280.151	-48.65
280.367	-31.37
280.583	-46.9
280.799	-42.85
281.016	-61.68
281.232	-15.49
281.448	-18.36
281.664	14.81
281.88	-9.46
282.096	22.95
282.312	47.7
282.528	79.91
282.744	79.75
282.96	75.14
283.176	46.45
283.392	24.13
283.608	0.9
283.824	-3.99
284.04	1.5
284.256	8.7
284.471	-3.79
284.687	3.26
284.903	22.39
285.119	37.9
285.335	5.83
285.551	37.68
285.767	14.48
285.982	-18.8
286.198	-67.9
286.414	3.27
286.63	-2.8
286.846	26.16
287.061	12.81
287.277	48.57
287.493	15.18
287.709	34.61
287.924	13.22
288.14	58
288.356	54.56
288.571	74.84
288.787	34.79
289.003	29.63
289.218	8.31
289.434	-23.86
289.65	-28.92
289.865	-19.12
290.081	11.72
290.296	18.07
290.512	16.07
290.727	-11.28
290.943	-19.5
291.159	-27.82
291.374	-34.94
291.59	-51.47
291.805	-36.96
292.021	-22.07
292.236	-35.56
292.451	-14.45
292.667	-3.38
292.882	11.98
293.098	-0.53
293.313	-2.52
293.529	-32.85
293.744	-39.19
293.959	-49.06
294.175	-41.12
294.39	3.35
294.605	18.53
294.821	44.34
295.036	52.39
295.251	60.02
295.467	11.42
295.682	6.9
295.897	-67.2
296.112	-69.18
296.328	-56.55
296.543	-51.19
296.758	-50.12
296.973	10.2
297.188	24.23
297.404	-0.97
297.619	-7.03
297.834	-18.75
298.049	-41.54
298.264	-66.4
298.479	-18.03
298.694	-7.31
298.909	12.53
299.125	26.34
299.34	34.05
299.555	19.3
299.77	41.84
299.985	-5.14
300.2	-60.88
300.415	-72.37
300.63	-30.61
300.845	-50.33
301.06	-57.01
301.275	-16.14
301.49	8.1
301.704	-8.73
301.919	-24.17
302.134	-5.97
302.349	-6
302.564	-72.83
302.779	-78.79
302.994	-34.72
303.209	-56.1
303.423	-44.82
303.638	28.75
303.853	-5.94
304.068	-11.27
304.283	-2.62
304.497	-12.06
304.712	-27.28
304.927	-16
305.142	-14.7
305.356	-8.18
305.571	-20.86
305.786	-31.88
306	-48.45
306.215	-42.79
306.43	-67.23
306.644	-25.12
306.859	4.96
307.074	35.63
307.288	-12.09
307.503	-11.45
307.717	-27.69
307.932	-19.84
308.147	-34.49
308.361	-3.22
308.576	-8.39
308.79	-38.53
309.005	-53.16
309.219	-28.51
309.434	-51.2
309.648	-47.79
309.863	-20.11
310.077	0.38
310.292	-14.21
310.506	5.73
310.72	10.15
310.935	13.52
311.149	5.7
311.364	21.71
311.578	35.12
311.792	32.19
312.007	32.66
312.221	21.05
312.435	24.13
312.649	4.24
312.864	55.85
313.078	61.94
313.292	143.31
313.507	125.59
313.721	153.12
313.935	57.34
314.149	56.96
314.363	18.22
314.578	16.02
314.792	25.31
315.006	5.06
315.22	17.17
315.434	26.31
315.648	31.35
315.862	18.58
316.077	27.97
316.291	10.04
316.505	8.76
316.719	-8.72
316.933	-24.35
317.147	-6.75
317.361	-54.72
317.575	-94.11
317.789	-109.86
318.003	-171.91
318.217	-181.6
318.431	-78.61
318.645	4.69
318.859	-3.22
319.073	26.5
319.287	25.48
319.5	-5.94
319.714	-61.76
319.928	-75.87
320.142	-115.99
320.356	-60.28
320.57	-24.13
320.784	-26.99
320.997	-31.95
321.211	-14.55
321.425	-94.36
321.639	-126.31
321.853	-46.14
322.066	-35.31
322.28	-33.93
322.494	-6.3
322.707	23.9
322.921	-17.61
323.135	-9.73
323.349	1.01
323.562	-19.68
323.776	-34.45
323.989	-21.27
324.203	-49.11
324.417	-48.88
324.63	-68.49
324.844	-65.21
325.057	-56.7
325.271	-21.3
325.485	0.31
325.698	23.26
325.912	33.23
326.125	8.31
326.339	4.72
326.552	-18.83
326.766	-15.8
326.979	0.03
327.193	39.56
327.406	15.09
327.619	7.6
327.833	22.53
328.046	-9.08
328.26	-50.53
328.473	-11.14
328.686	-43.31
328.9	-50
329.113	-36.59
329.326	-59.31
329.54	-44.39
329.753	-22.36
329.966	-57.98
330.179	-48.91
330.393	-23.96
330.606	-24.03
330.819	-6.9
331.032	19.76
331.246	28.5
331.459	47.63
331.672	35.64
331.885	27.15
332.098	4.59
332.311	-21.66
332.525	-62.94
332.738	-21.01
332.951	13.99
333.164	35.66
333.377	51.48
333.59	64.72
333.803	47.73
334.016	29.25
334.229	17.87
334.442	24.71
334.655	36.6
334.868	35.79
335.081	32.18
335.294	19.82
335.507	13.71
335.72	-3.55
335.933	-7.31
336.146	-8.91
336.359	5.64
336.572	-33.12
336.785	-44.56
336.997	-29.43
337.21	-6.65
337.423	-20.19
337.636	-2.78
337.849	11.39
338.062	-2.99
338.274	6.86
338.487	-12.73
338.7	-3.59
338.913	-53.69
339.125	-70.27
339.338	-134.86
339.551	-65.27
339.763	-39.24
339.976	6.86
340.189	29.99
340.402	47.69
340.614	16.96
340.827	4.02
341.039	-18.44
341.252	-23.95
341.465	-18.48
341.677	-14.63
341.89	-42.55
342.102	-8.83
342.315	-30.83
342.527	-73.6
342.74	-64.91
342.952	-28.83
343.165	-29.72
343.377	-2.15
343.59	-1.25
343.802	22.53
344.015	23.63
344.227	28.54
344.44	26.1
344.652	36.64
344.864	16.73
345.077	24.35
345.289	21.73
345.502	24.37
345.714	20.63
345.926	25.83
346.139	11.97
346.351	23.69
346.563	28.4
346.775	28.37
346.988	11.37
347.2	-3.29
347.412	-58.03
347.624	-85.5
347.837	-108.6
348.049	-74.6
348.261	-13.5
348.473	1.89
348.685	-1.7
348.897	-1.37
349.11	-18.82
349.322	-49.31
349.534	-31.64
349.746	-20.33
349.958	-13.08
350.17	-27.38
350.382	-5.86
350.594	-11.76
350.806	-7.36
351.018	-2.37
351.23	-15.9
351.442	-54.37
351.654	-52.96
351.866	-54.55
352.078	-45.23
352.29	-9.2
352.502	8.72
352.714	18.34
352.926	4.65
353.138	3.25
353.35	-9.35
353.561	-22.71
353.773	-47.42
353.985	-20.18
354.197	-36.18
354.409	-31.46
354.621	-30.11
354.832	-15.01
355.044	-27.86
355.256	-20.26
355.468	-5.38
355.679	-7.31
355.891	3.93
356.103	-11.95
356.314	-12.84
356.526	-17.19
356.738	-19.11
356.949	-55.02
357.161	-26.1
357.373	-23.66
357.584	-37.87
357.796	-16.97
358.008	-7.68
358.219	9.22
358.431	15.93
358.642	27.67
358.854	27.08
359.065	10.32
359.277	-22.81
359.488	-29.13
359.7	-46.56
359.911	-62.91
360.123	-33.27
360.334	-37.74
360.546	-54.66
360.757	-59.4
360.969	-42.15
361.18	-16.54
361.391	-3.82
361.603	-6.8
361.814	6.64
362.025	-11.13
362.237	-37.98
362.448	-22.21
362.659	2.18
362.871	-3.82
363.082	8.43
363.293	10.76
363.504	-14.77
363.716	-41.08
363.927	-45.03
364.138	-76.97
364.349	-81.82
364.56	-62.55
364.772	-60.84
364.983	-26.95
365.194	-22.92
365.405	-9.64
365.616	8.3
365.827	17.36
366.038	-22.52
366.25	-25.19
366.461	-48.57
366.672	-24.05
366.883	-1.32
367.094	16.35
367.305	12.36
367.516	15.42
367.727	-25.02
367.938	-50.15
368.149	-55.38
368.36	-39.01
368.571	-29.34
368.781	-27.96
368.992	-36.05
369.203	-54.71
369.414	-82.68
369.625	-91.06
369.836	-90.04
370.047	-117.05
370.258	-91.25
370.468	-80.07
370.679	-100.91
370.89	-89.7
371.101	-62.49
371.312	-60.68
371.522	-43.85
371.733	-23.82
371.944	-6.27
372.155	3.49
372.365	-11.24
372.576	-19.57
372.787	-14.69
372.997	-48.99
373.208	-53.19
373.419	-6.46
373.629	-33.32
373.84	-36.85
374.05	-46.1
374.261	-16.2
374.472	-41.94
374.682	18.04
374.893	6.26
375.103	52.65
375.314	36.03
375.524	27.47
375.735	18.9
375.945	29.36
376.156	0.14
376.366	-1.81
376.577	8.47
376.787	-10.9
376.997	-7.66
377.208	-7.6
377.418	-15.21
377.629	-11.81
377.839	-3.01
378.049	-5.02
378.26	13.57
378.47	20.53
378.68	8.12
378.89	0.59
379.101	-3.48
379.311	-37.53
379.521	-58.6
379.732	-44.16
379.942	-33.75
380.152	-50.82
380.362	-17.94
380.572	-17.65
380.783	-11.9
380.993	-2.86
381.203	18.24
381.413	25.94
381.623	37.86
381.833	33.71
382.043	17.04
382.253	5.34
382.463	-0.54
382.674	-13.44
382.884	-30.24
383.094	-30.89
383.304	-15.23
383.514	-11.81
383.724	-1.44
383.934	-9.33
384.144	-15.52
384.353	-28.38
384.563	-28.08
384.773	-26.09
384.983	-28.18
385.193	-8.08
385.403	-6.29
385.613	-11.22
385.823	-23.72
386.033	-11.73
386.242	-19.22
386.452	-19.82
386.662	-21.23
386.872	-1.76
387.082	-6.71
387.291	-14.18
387.501	-18.99
387.711	-16.29
387.921	-30.65
388.13	-29.3
388.34	-15.7
388.55	-16.18
388.759	-18.45
388.969	-14.11
389.179	-14.05
389.388	-14.41
389.598	-8.79
389.807	-13.24
390.017	-17.15
390.227	-18.18
390.436	-22.92
390.646	-21.18
390.855	-14.66
391.065	-13.35
391.274	-11.97
391.484	-11.27
391.693	-9.63
391.903	-10.62
392.112	-3
392.322	-0.6
392.531	3.16
392.74	3.74
392.95	0.48
393.159	-2.85
393.369	-2.12
393.578	-4.51
393.787	-7.06
393.997	-4.39
394.206	-6.04
394.415	-6.17
394.625	-4.61
394.834	-5.64
395.043	-4.25
395.252	-0.92
395.462	1.45
395.671	2.5
395.88	3.96
396.089	4.46
396.298	2.66
396.508	1.41
396.717	-0.34
396.926	0.47
397.135	-0.22
397.344	-0.14
397.553	0.48
397.762	2.85
397.971	2.13
398.181	2.35
398.39	1.8
398.599	1.06
398.808	0.51
399.017	1.79
399.226	3.25
399.435	4.97
399.644	5.28
399.853	4.23
400.062	3.44
400.27	2.32
400.479	1.62
400.688	0.56
400.897	1.2
401.106	1.18
401.315	1.13
401.524	0.93
401.733	1.95
401.941	1.9
402.15	1.96
402.359	1.71
402.568	1.89
402.777	1.57
402.985	1.44
403.194	1.28
403.403	1.47
403.612	0.96
403.82	0.97
404.029	1.16
404.238	1
404.446	1.26
404.655	1.2
404.864	1.32
405.072	0.97
405.281	1.31
405.489	0.86
405.698	0.99
405.906	0.86
406.115	1.02
406.324	0.95
406.532	1.17
406.741	1.58
406.949	1.67
407.158	1.62
407.366	1.74
407.574	1.73
407.783	1.55
407.991	1.28
408.2	1.61
408.408	1.56
408.617	1.41
408.825	1.27
409.033	1.44
409.242	1.38
409.45	1.4
409.658	1.37
409.867	1.54
410.075	1.41
410.283	1.22
410.491	1.09
410.7	1.12
410.908	1.06
411.116	1.28
411.324	1.21
411.533	1.21
411.741	1.52
411.949	1.52
412.157	1.28
412.365	1.32
412.573	1.35
412.781	1.28
412.99	1.14
413.198	1.45
413.406	1.46
413.614	1.5
413.822	1.3
414.03	1.28
414.238	0.93
414.446	0.96
414.654	0.69
414.862	0.84
415.07	0.98
415.278	1.25
415.486	1.03
415.694	1.21
415.902	0.97
416.109	0.87
416.317	0.88
416.525	0.86
416.733	0.84
416.941	1.07
417.149	1.05
417.357	1.02
417.564	1.29
417.772	1.59
417.98	1.52
418.188	1.52
418.395	1.55
418.603	1.65
418.811	1.24
419.019	1.1
419.226	1.38
419.434	1.39
419.642	1.14
419.849	1.33
420.057	1.38
420.265	1.21
420.472	1.06
420.68	1.14
420.887	0.97
421.095	1.07
421.302	1
421.51	1.23
421.717	1.25
421.925	1.39
422.132	1.18
422.34	0.95
422.547	1.01
422.755	0.96
422.962	0.81
423.17	0.85
423.377	1.12
423.585	0.98
423.792	0.86
423.999	1.04
424.207	1.06
424.414	1.14
424.621	1.08
424.829	1.16
425.036	1.02
425.243	1.15
425.451	0.97
425.658	0.73
425.865	0.86
426.072	0.92
426.28	1.18
426.487	1.2
426.694	1.55
426.901	1.34
427.108	1.26
427.315	0.92
427.523	1.24
427.73	1.15
427.937	1.2
428.144	1.08
428.351	1.13
428.558	1.14
428.765	1.05
428.972	1
429.179	1.16
429.386	1.47
429.593	1.25
429.8	1.17
430.007	1.29
430.214	1.4
430.421	1.13
430.628	0.92
430.835	0.9
431.042	1.08
431.249	1.16
431.456	1.11
431.662	1.3
431.869	1.47
432.076	1.42
432.283	1.47
432.49	1.57
432.697	1.56
432.903	1.31
433.11	1.25
433.317	1.31
433.524	1.47
433.73	1.4
433.937	1.77
434.144	1.67
434.35	1.49
434.557	1.26
434.764	1.3
434.97	1.1
435.177	1.29
435.384	1.21
435.59	1.28
435.797	1.46
436.003	1.55
436.21	1.5
436.416	1.65
436.623	1.66
436.829	1.76
437.036	1.79
437.242	1.77
437.449	1.66
437.655	1.72
437.862	1.61
438.068	1.6
438.275	1.68
438.481	1.98
438.687	1.88
438.894	1.76
439.1	1.8
439.307	2.05
439.513	1.85
439.719	1.93
439.926	2.02
440.132	1.92
440.338	1.66
440.544	1.76
440.751	1.77
440.957	1.9
441.163	1.85
441.369	1.94
441.575	1.69
441.782	1.58
441.988	1.39
442.194	1.43
442.4	1.33
442.606	1.64
442.812	1.8
443.018	1.97
443.224	2.09
443.431	2.24
443.637	2.04
443.843	1.87
444.049	1.81
444.255	1.82
444.461	1.84
444.667	1.81
444.873	2.07
445.079	2.05
445.284	2.09
445.49	1.83
445.696	1.73
445.902	1.58
446.108	1.53
446.314	1.45
446.52	1.55
446.726	1.76
446.931	1.7
447.137	1.76
447.343	1.8
447.549	1.71
447.755	1.65
447.96	1.76
448.166	1.71
448.372	1.62
448.578	1.76
448.783	1.72
448.989	1.81
449.195	1.99
449.4	1.99
449.606	1.94
449.812	1.94
450.017	1.96
450.223	1.81
450.428	1.82
450.634	2.01
450.84	2.21
451.045	2.14
451.251	2.12
451.456	2.38
451.662	2.29
451.867	2.29
452.073	2.26
452.278	2.38
452.483	2.34
452.689	2.25
452.894	2.21
453.1	2.26
453.305	2.19
453.51	2.13
453.716	2.16
453.921	2.16
454.127	2.1
454.332	2.06
454.537	1.99
454.742	2.04
454.948	2.02
455.153	2.09
455.358	2.23
455.563	2.42
455.769	2.47
455.974	2.48
456.179	2.36
456.384	2.36
456.589	2.25
456.795	2.09
457	2.05
457.205	2.3
457.41	2.22
457.615	2.14
457.82	2.23
458.025	2.22
458.23	2.04
458.435	2.07
458.64	1.97
458.845	2.18
459.05	2.22
459.255	2.28
459.46	2.31
459.665	2.38
459.87	2.24
460.075	2.15
460.28	2.15
460.485	2.24
460.69	2.34
460.895	2.17
461.099	2.2
461.304	2.32
461.509	2.34
461.714	2.26
461.919	2.52
462.123	2.45
462.328	2.42
462.533	2.31
462.738	2.48
462.942	2.36
463.147	2.49
463.352	2.54
463.556	2.6
463.761	2.59
463.966	2.63
464.17	2.66
464.375	2.49
464.58	2.49
464.784	2.32
464.989	2.23
465.193	2.24
465.398	2.32
465.602	2.43
465.807	2.43
466.011	2.56
466.216	2.57
466.42	2.58
466.625	2.59
466.829	2.72
467.034	2.71
467.238	2.9
467.443	2.88
467.647	2.74
467.851	2.81
468.056	2.86
468.26	2.71
468.464	2.72
468.669	2.83
468.873	2.92
469.077	2.88
469.282	2.93
469.486	3.07
469.69	3.14
469.894	3
470.099	3.14
470.303	3.23
470.507	3.12
470.711	2.99
470.915	2.97
471.119	2.83
471.324	2.75
471.528	2.78
471.732	2.87
471.936	2.91
472.14	2.98
472.344	3.02
472.548	3.12
472.752	3.22
472.956	3.42
473.16	3.42
473.364	3.36
473.568	3.25
473.772	3.29
473.976	3.11
474.18	3.04
474.384	3.14
474.588	3.2
474.792	3.07
474.995	3.17
475.199	3.31
475.403	3.32
475.607	3.33
475.811	3.36
476.015	3.37
476.218	3.42
476.422	3.4
476.626	3.53
476.83	3.61
477.033	3.59
477.237	3.5
477.441	3.59
477.644	3.54
477.848	3.5
478.052	3.46
478.255	3.5
478.459	3.43
478.663	3.62
478.866	3.72
479.07	3.79
479.273	3.91
479.477	4.01
479.681	3.85
479.884	3.77
480.088	3.78
480.291	3.74
480.495	3.72
480.698	3.7
480.901	3.8
481.105	3.87
481.308	3.85
481.512	3.85
481.715	3.94
481.919	3.94
482.122	3.95
482.325	3.93
482.529	3.94
482.732	3.92
482.935	3.79
483.138	3.71
483.342	3.83
483.545	3.88
483.748	3.9
483.952	4.05
484.155	4.23
484.358	4.22
484.561	4.17
484.764	4.14
484.967	4.19
485.171	4.19
485.374	4.15
485.577	4.29
485.78	4.37
485.983	4.4
486.186	4.26
486.389	4.22
486.592	4.1
486.795	4.12
486.998	4.02
487.201	4.11
487.404	4.24
487.607	4.38
487.81	4.32
488.013	4.41
488.216	4.45
488.419	4.42
488.622	4.26
488.825	4.22
489.028	4.18
489.231	4.11
489.433	4.05
489.636	4.04
489.839	4.05
490.042	3.96
490.245	3.91
490.447	3.92
490.65	3.97
490.853	4.06
491.056	4.13
491.258	4.2
491.461	4.25
491.664	4.35
491.866	4.21
492.069	4.34
492.272	4.32
492.474	4.35
492.677	4.3
492.879	4.42
493.082	4.44
493.285	4.58
493.487	4.52
493.69	4.46
493.892	4.37
494.095	4.23
494.297	4.16
494.5	4.23
494.702	4.29
494.905	4.39
495.107	4.41
495.309	4.44
495.512	4.46
495.714	4.51
495.917	4.52
496.119	4.51
496.321	4.56
496.524	4.58
496.726	4.53
496.928	4.55
497.13	4.62
497.333	4.59
497.535	4.58
497.737	4.57
497.939	4.51
498.142	4.5
498.344	4.46
498.546	4.37
498.748	4.44
498.95	4.65
499.152	4.64
499.355	4.69
499.557	4.8
499.759	4.84
499.961	4.65
500.163	4.69
500.365	4.65
500.567	4.69
500.769	4.63
500.971	4.72
501.173	4.65
501.375	4.71
501.577	4.59
501.779	4.61
501.981	4.55
502.183	4.59
502.385	4.6
502.587	4.6
502.788	4.69
502.99	4.79
503.192	4.91
503.394	4.91
503.596	4.92
503.798	4.99
503.999	5.03
504.201	4.98
504.403	5.06
504.605	5.12
504.806	5.04
505.008	5
505.21	5.12
505.411	5.1
505.613	5.12
505.815	5.17
506.016	5.24
506.218	5.24
506.42	5.23
506.621	5.24
506.823	5.26
507.024	5.17
507.226	5.13
507.427	5.15
507.629	5.19
507.83	5.19
508.032	5.25
508.233	5.32
508.435	5.37
508.636	5.43
508.838	5.42
509.039	5.43
509.24	5.41
509.442	5.44
509.643	5.34
509.845	5.44
510.046	5.51
510.247	5.5
510.448	5.49
510.65	5.62
510.851	5.68
511.052	5.69
511.254	5.67
511.455	5.79
511.656	5.81
511.857	5.86
512.058	5.85
512.26	5.89
512.461	5.83
512.662	5.85
512.863	5.72
513.064	5.7
513.265	5.76
513.466	5.78
513.667	5.72
513.868	5.76
514.069	5.82
514.27	5.85
514.471	5.78
514.672	5.84
514.873	5.86
515.074	5.92
515.275	5.81
515.476	5.9
515.677	5.88
515.878	6
516.079	5.95
516.28	6.04
516.481	6.18
516.682	6.25
516.882	6.12
517.083	6.17
517.284	6.1
517.485	5.99
517.686	5.95
517.886	5.95
518.087	6.01
518.288	6.08
518.488	6.1
518.689	6.15
518.89	6.17
519.091	6.2
519.291	6.19
519.492	6.23
519.692	6.24
519.893	6.36
520.094	6.3
520.294	6.26
520.495	6.25
520.695	6.24
520.896	6.21
521.096	6.29
521.297	6.39
521.497	6.36
521.698	6.34
521.898	6.32
522.099	6.33
522.299	6.42
522.499	6.45
522.7	6.49
522.9	6.46
523.101	6.51
523.301	6.5
523.501	6.55
523.702	6.55
523.902	6.65
524.102	6.67
524.302	6.59
524.503	6.61
524.703	6.62
524.903	6.64
525.103	6.57
525.304	6.69
525.504	6.77
525.704	6.81
525.904	6.74
526.104	6.73
526.304	6.67
526.504	6.62
526.705	6.65
526.905	6.74
527.105	6.8
527.305	6.82
527.505	6.74
527.705	6.74
527.905	6.76
528.105	6.74
528.305	6.66
528.505	6.71
528.705	6.79
528.905	6.75
529.105	6.76
529.304	6.89
529.504	7.02
529.704	6.94
529.904	6.94
530.104	6.94
530.304	6.95
530.503	6.82
530.703	6.82
530.903	6.8
531.103	6.86
531.303	6.81
531.502	6.89
531.702	7.02
531.902	7.08
532.101	7.04
532.301	7.12
532.501	7.13
532.7	7.05
532.9	7.08
533.1	7.17
533.299	7.19
533.499	7.25
533.698	7.22
533.898	7.17
534.097	7.19
534.297	7.25
534.496	7.2
534.696	7.27
534.895	7.4
535.095	7.46
535.294	7.42
535.494	7.39
535.693	7.43
535.892	7.41
536.092	7.3
536.291	7.28
536.491	7.34
536.69	7.38
536.889	7.29
537.088	7.31
537.288	7.42
537.487	7.54
537.686	7.53
537.886	7.62
538.085	7.71
538.284	7.82
538.483	7.72
538.682	7.76
538.882	7.77
539.081	7.86
539.28	7.73
539.479	7.78
539.678	7.75
539.877	7.86
540.076	7.8
540.275	7.85
540.474	7.94
540.673	8.02
540.872	7.97
541.071	8.09
541.27	8.08
541.469	8.1
541.668	8.18
541.867	8.24
542.066	8.23
542.265	8.32
542.464	8.3
542.663	8.27
542.862	8.44
543.06	8.52
543.259	8.55
543.458	8.62
543.657	8.69
543.856	8.67
544.054	8.64
544.253	8.65
544.452	8.64
544.651	8.75
544.849	8.67
545.048	8.75
545.247	8.83
545.445	8.91
545.644	8.84
545.843	8.9
546.041	8.89
546.24	8.93
546.438	8.97
546.637	9.01
546.836	9.14
547.034	9.22
547.233	9.3
547.431	9.29
547.63	9.34
547.828	9.35
548.027	9.36
548.225	9.32
548.423	9.43
548.622	9.5
548.82	9.5
549.019	9.59
549.217	9.76
549.415	9.84
549.614	9.93
549.812	10
550.01	9.97
550.209	9.96
550.407	9.98
550.605	10.03
550.803	10.09
551.002	10.22
551.2	10.29
551.398	10.38
551.596	10.53
551.794	10.67
551.993	10.73
552.191	10.72
552.389	10.8
552.587	10.81
552.785	10.78
552.983	10.88
553.181	11.03
553.379	11.14
553.577	11.17
553.775	11.32
553.973	11.35
554.171	11.42
554.369	11.37
554.567	11.4
554.765	11.45
554.963	11.6
555.161	11.58
555.359	11.71
555.557	11.92
555.755	12.01
555.952	12.11
556.15	12.27
556.348	12.4
556.546	12.52
556.744	12.57
556.941	12.59
557.139	12.67
557.337	12.64
557.535	12.56
557.732	12.66
557.93	12.8
558.128	12.91
558.325	13.09
558.523	13.26
558.721	13.4
558.918	13.46
559.116	13.54
559.313	13.51
559.511	13.65
559.708	13.64
559.906	13.75
560.104	13.88
560.301	14.04
560.498	14.08
560.696	14.17
560.893	14.3
561.091	14.39
561.288	14.53
561.486	14.65
561.683	14.76
561.88	14.75
562.078	14.83
562.275	14.78
562.473	14.88
562.67	15.06
562.867	15.18
563.064	15.26
563.262	15.42
563.459	15.54
563.656	15.63
563.853	15.75
564.051	15.81
564.248	15.92
564.445	15.94
564.642	15.98
564.839	16.1
565.036	16.32
565.234	16.52
565.431	16.58
565.628	16.68
565.825	16.85
566.022	16.93
566.219	16.95
566.416	17.11
566.613	17.19
566.81	17.19
567.007	17.14
567.204	17.12
567.401	17.2
567.598	17.24
567.795	17.31
567.991	17.43
568.188	17.58
568.385	17.67
568.582	17.79
568.779	17.87
568.976	17.92
569.172	18.05
569.369	18.01
569.566	18.06
569.763	18.17
569.96	18.21
570.156	18.21
570.353	18.25
570.55	18.31
570.746	18.33
570.943	18.35
571.14	18.38
571.336	18.44
571.533	18.51
571.729	18.53
571.926	18.61
572.123	18.7
572.319	18.76
572.516	18.76
572.712	18.77
572.909	18.87
573.105	18.9
573.302	18.91
573.498	19.05
573.695	19.18
573.891	19.2
574.087	19.22
574.284	19.24
574.48	19.13
574.677	19.04
574.873	18.99
575.069	19.02
575.266	19.14
575.462	19.1
575.658	19.21
575.854	19.35
576.051	19.41
576.247	19.34
576.443	19.36
576.639	19.26
576.835	19.17
577.032	19.04
577.228	19.17
577.424	19.3
577.62	19.28
577.816	19.31
578.012	19.36
578.208	19.26
578.404	19.23
578.6	19.37
578.796	19.35
578.993	19.38
579.189	19.36
579.384	19.28
579.58	19.13
579.776	19.11
579.972	19.04
580.168	19.01
580.364	19.04
580.56	19.16
580.756	19.19
580.952	19.24
581.148	19.25
581.343	19.28
581.539	19.26
581.735	19.25
581.931	19.3
582.127	19.37
582.322	19.29
582.518	19.27
582.714	19.3
582.909	19.2
583.105	19.16
583.301	19.19
583.496	19.25
583.692	19.18
583.888	19.22
584.083	19.33
584.279	19.29
584.474	19.26
584.67	19.31
584.866	19.31
585.061	19.08
585.257	19.27
585.452	19.21
585.648	19.18
585.843	19.2
586.039	19.33
586.234	19.25
586.429	19.23
586.625	19.28
586.82	19.26
587.015	19.24
587.211	19.06
587.406	19.08
587.601	19.02
587.797	19.01
587.992	18.97
588.187	19.19
588.383	19.21
588.578	19.29
588.773	19.36
588.968	19.51
589.163	19.5
589.359	19.48
589.554	19.5
589.749	19.51
589.944	19.52
590.139	19.49
590.334	19.6
590.529	19.6
590.724	19.67
590.919	19.77
591.114	19.84
591.309	19.95
591.504	20.01
591.699	19.95
591.894	20.07
592.089	20.08
592.284	20.08
592.479	20.23
592.674	20.27
592.869	20.23
593.064	20.39
593.259	20.46
593.454	20.59
593.648	20.65
593.843	20.61
594.038	20.58
594.233	20.55
594.428	20.48
594.622	20.56
594.817	20.8
595.012	20.88
595.206	21.06
595.401	21.06
595.596	21.14
595.79	21.17
595.985	21.33
596.18	21.4
596.374	21.64
596.569	21.72
596.763	21.76
596.958	21.83
597.153	21.9
597.347	21.79
597.542	21.91
597.736	21.95
597.931	22
598.125	22.05
598.319	22.29
598.514	22.29
598.708	22.33
598.903	22.33
599.097	22.42
599.291	22.44
599.486	22.48
599.68	22.54
599.874	22.7
600.069	22.69
600.263	22.68
600.457	22.72
600.651	22.84
600.846	22.78
601.04	22.88
601.234	22.96
601.428	23.1
601.622	23.14
601.817	23.14
602.011	23.23
602.205	23.28
602.399	23.23
602.593	23.16
602.787	23.31
602.981	23.24
603.175	23.29
603.369	23.25
603.563	23.28
603.757	23.31
603.951	23.32
604.145	23.32
604.339	23.41
604.533	23.39
604.727	23.28
604.921	23.27
605.115	23.3
605.309	23.41
605.502	23.39
605.696	23.38
605.89	23.4
606.084	23.24
606.278	23.12
606.471	23.12
606.665	23.1
606.859	23
607.053	23.05
607.246	23.05
607.44	23.04
607.634	22.99
607.827	23.04
608.021	22.89
608.214	22.79
608.408	22.7
608.602	22.64
608.795	22.53
608.989	22.57
609.182	22.54
609.376	22.57
609.569	22.58
609.763	22.51
609.956	22.4
610.15	22.4
610.343	22.35
610.537	22.29
610.73	22.33
610.923	22.35
611.117	22.19
611.31	22.08
611.504	22.04
611.697	21.89
611.89	21.79
612.083	21.78
612.277	21.78
612.47	21.7
612.663	21.69
612.856	21.66
613.05	21.53
613.243	21.44
613.436	21.25
613.629	21.18
613.822	21.07
614.015	21.08
614.209	20.94
614.402	20.99
614.595	20.9
614.788	20.81
614.981	20.72
615.174	20.6
615.367	20.5
615.56	20.36
615.753	20.3
615.946	20.22
616.139	20.27
616.332	20.39
616.525	20.36
616.718	20.42
616.911	20.44
617.103	20.42
617.296	20.25
617.489	20.28
617.682	20.15
617.875	20.12
618.067	20.02
618.26	19.88
618.453	19.92
618.646	19.94
618.838	19.88
619.031	19.98
619.224	20.07
619.417	19.92
619.609	20.02
619.802	20
619.994	19.95
620.187	19.92
620.38	19.93
620.572	19.69
620.765	19.68
620.957	19.53
621.15	19.5
621.342	19.49
621.535	19.6
621.727	19.54
621.92	19.43
622.112	19.35
622.305	19.38
622.497	19.18
622.69	19.24
622.882	19.34
623.074	19.39
623.267	19.2
623.459	19.27
623.651	19.15
623.844	19.13
624.036	19.17
624.228	19.18
624.42	19.14
624.613	19.28
624.805	19.19
624.997	19.1
625.189	19.1
625.381	19.1
625.574	18.93
625.766	18.91
625.958	18.84
626.15	18.89
626.342	18.93
626.534	18.94
626.726	18.92
626.918	18.96
627.11	18.92
627.302	18.8
627.494	18.74
627.686	18.74
627.878	18.68
628.07	18.69
628.262	18.69
628.454	18.69
628.646	18.75
628.838	18.79
629.029	18.64
629.221	18.66
629.413	18.52
629.605	18.33
629.797	18.21
629.989	18.28
630.18	18.21
630.372	18.2
630.564	18.23
630.755	18.25
630.947	18.28
631.139	18.16
631.33	18.15
631.522	18.17
631.714	18.17
631.905	18.11
632.097	18.12
632.289	18.14
632.48	18.14
632.672	17.97
632.863	17.86
633.055	17.9
633.246	17.86
633.438	17.75
633.629	17.85
633.821	17.81
634.012	17.71
634.203	17.68
634.395	17.74
634.586	17.72
634.777	17.74
634.969	17.84
635.16	17.87
635.351	17.8
635.543	17.78
635.734	17.79
635.925	17.7
636.117	17.63
636.308	17.63
636.499	17.55
636.69	17.42
636.881	17.39
637.073	17.51
637.264	17.45
637.455	17.54
637.646	17.69
637.837	17.73
638.028	17.63
638.219	17.65
638.41	17.53
638.601	17.39
638.792	17.37
638.983	17.29
639.174	17.21
639.365	17.19
639.556	17.16
639.747	17.08
639.938	17.12
640.129	17.09
640.32	17.11
640.511	17.21
640.701	17.33
640.892	17.29
641.083	17.38
641.274	17.4
641.465	17.33
641.655	17.19
641.846	17.13
642.037	17.07
642.228	17
642.418	17.03
642.609	17.08
642.8	17.16
642.99	17.11
643.181	17.15
643.372	17.09
643.562	17.06
643.753	16.91
643.943	16.83
644.134	16.72
644.324	16.7
644.515	16.66
644.705	16.78
644.896	16.87
645.086	16.89
645.277	16.79
645.467	16.69
645.658	16.63
645.848	16.54
646.038	16.59
646.229	16.58
646.419	16.5
646.61	16.43
646.8	16.37
646.99	16.28
647.18	16.16
647.371	16.16
647.561	16.13
647.751	16.13
647.941	16
648.132	16.03
648.322	16.07
648.512	16.28
648.702	16.23
648.892	16.29
649.082	16.3
649.272	16.21
649.462	15.86
649.653	15.78
649.843	15.79
650.033	15.8
650.223	15.7
650.413	15.76
650.603	15.87
650.793	15.77
650.983	15.69
651.172	15.7
651.362	15.6
651.552	15.44
651.742	15.38
651.932	15.36
652.122	15.36
652.312	15.5
652.502	15.58
652.691	15.55
652.881	15.49
653.071	15.41
653.261	15.12
653.45	14.84
653.64	14.8
653.83	14.69
654.019	14.64
654.209	14.69
654.399	14.75
654.588	14.63
654.778	14.48
654.968	14.26
655.157	14.04
655.347	13.88
655.536	13.72
655.726	13.69
655.915	13.62
656.105	13.55
656.294	13.55
656.484	13.36
656.673	13.23
656.863	13.18
657.052	13.05
657.241	12.76
657.431	12.5
657.62	12.32
657.809	11.96
657.999	11.77
658.188	11.61
658.377	11.58
658.567	11.44
658.756	11.37
658.945	11.25
659.134	11.08
659.324	10.98
659.513	10.88
659.702	10.7
659.891	10.67
660.08	10.54
660.269	10.42
660.458	10.25
660.648	10.1
660.837	9.88
661.026	9.77
661.215	9.62
661.404	9.39
661.593	9.43
661.782	9.11
661.971	8.98
662.16	8.8
662.349	8.69
662.538	8.34
662.726	8.39
662.915	8.22
663.104	8.11
663.293	8.1
663.482	8.18
663.671	7.97
663.86	7.87
664.048	7.8
664.237	7.7
664.426	7.51
664.615	7.51
664.803	7.43
664.992	7.28
665.181	7.18
665.369	7.04
665.558	6.96
665.747	6.93
665.935	6.93
666.124	6.92
666.312	6.96
666.501	6.89
666.69	6.83
666.878	6.79
667.067	6.56
667.255	6.47
667.444	6.69
667.632	6.67
667.82	6.68
668.009	6.65
668.197	6.67
668.386	6.38
668.574	6.5
668.762	6.41
668.951	6.34
669.139	6.23
669.327	6.09
669.516	6.1
669.704	6.01
669.892	6.22
670.08	6.28
670.269	6.3
670.457	6.09
670.645	6.03
670.833	6.07
671.021	6.11
671.21	6.14
671.398	6.32
671.586	6.4
671.774	6.22
671.962	6.14
672.15	6.14
672.338	6.04
672.526	6.05
672.714	5.97
672.902	6.02
673.09	6.19
673.278	6.41
673.466	6.45
673.654	6.73
673.842	6.73
674.03	6.68
674.218	6.49
674.405	6.55
674.593	6.44
674.781	6.52
674.969	6.5
675.157	6.74
675.344	6.85
675.532	6.96
675.72	7.11
675.908	7.28
676.095	7.21
676.283	7.27
676.471	7.41
676.658	7.35
676.846	7.32
677.033	7.38
677.221	7.4
677.409	7.29
677.596	7.35
677.784	7.42
677.971	7.49
678.159	7.52
678.346	7.57
678.534	7.69
678.721	7.97
678.909	7.97
679.096	7.95
679.283	8.18
679.471	8.31
679.658	8.3
679.846	8.46
680.033	8.77
680.22	8.77
680.408	8.77
680.595	8.88
680.782	8.95
680.969	9.11
681.157	9.22
681.344	9.32
681.531	9.35
681.718	9.41
681.905	9.5
682.093	9.69
682.28	9.95
682.467	10.21
682.654	10.49
682.841	10.76
683.028	10.98
683.215	11.16
683.402	11.1
683.589	11.27
683.776	11.28
683.963	11.33
684.15	11.57
684.337	11.93
684.524	12.12
684.711	12.32
684.898	12.5
685.085	12.61
685.271	12.98
685.458	13.17
685.645	13.44
685.832	13.96
686.019	14.39
686.205	14.71
686.392	15.07
686.579	15.44
686.766	15.83
686.952	16.12
687.139	16.72
687.326	17
687.512	17.35
687.699	17.61
687.886	17.95
688.072	17.9
688.259	18.6
688.445	19.13
688.632	19.47
688.818	20.06
689.005	20.53
689.191	20.78
689.378	21.4
689.564	21.97
689.751	22.36
689.937	23.03
690.124	23.55
690.31	23.93
690.496	24.46
690.683	25.06
690.869	25.5
691.055	26.15
691.242	26.7
691.428	27.26
691.614	27.89
691.8	28.66
691.987	29.31
692.173	29.85
692.359	30.6
692.545	31.32
692.731	31.73
692.918	32.33
693.104	32.99
693.29	33.71
693.476	34.27
693.662	35.17
693.848	35.8
694.034	36.5
694.22	36.88
694.406	37.61
694.592	38.07
694.778	38.68
694.964	39.22
695.15	39.99
695.336	40.62
695.522	41.54
695.708	42.14
695.894	42.83
696.08	43.45
696.265	43.97
696.451	44.44
696.637	45.39
696.823	45.81
697.009	46.02
697.194	46.39
697.38	46.75
697.566	46.98
697.751	47.65
697.937	48.68
698.123	49.23
698.308	49.99
698.494	50.46
698.68	50.97
698.865	51.45
699.051	52.22
699.236	52.4
699.422	52.97
699.607	53.51
699.793	53.97
699.978	54.39
700.164	54.88
700.349	55.65
700.535	56.08
700.72	56.18
700.906	56.7
701.091	57.16
701.276	57.13
701.462	58.02
701.647	58.89
701.832	59.27
702.018	59.73
702.203	59.95
702.388	59.77
702.573	59.95
702.759	60.53
702.944	60.58
703.129	61.15
703.314	61.55
703.499	61.81
703.684	61.66
703.87	62.89
704.055	63.69
704.24	64.12
704.425	64.51
704.61	64.53
704.795	64.3
704.98	64.28
705.165	64.33
705.35	64.68
705.535	65.46
705.72	65.73
705.905	66.11
706.09	66.73
706.275	66.83
706.459	66.75
706.644	66.93
706.829	67.06
707.014	66.84
707.199	67.21
707.384	67.71
707.568	67.78
707.753	68.21
707.938	68.52
708.123	68.44
708.307	68.58
708.492	68.98
708.677	69.32
708.861	69.39
709.046	69.34
709.231	69.93
709.415	70.42
709.6	69.9
709.784	70.14
709.969	70.62
710.153	70.26
710.338	69.95
710.522	70.19
710.707	70.46
710.891	70.38
711.076	70.5
711.26	70.59
711.445	70.95
711.629	71.18
711.813	71.61
711.998	71.72
712.182	71.61
712.366	72.07
712.551	72.79
712.735	72.84
712.919	72.81
713.103	73.48
713.288	73.14
713.472	72.51
713.656	73.16
713.84	73.73
714.024	73.87
714.208	73.7
714.393	74.11
714.577	73.95
714.761	74.14
714.945	74.35
715.129	74.65
715.313	74.76
715.497	74.49
715.681	74.87
715.865	74.08
716.049	74.46
716.233	74.06
716.417	74.33
716.601	73.67
716.785	74.28
716.968	74.14
717.152	74.8
717.336	74.9
717.52	74.83
717.704	74.87
717.888	75.05
718.071	74.9
718.255	75.18
718.439	75.57
718.622	75.6
718.806	75.95
718.99	75.66
719.174	75.37
719.357	75.09
719.541	75.19
719.724	74.7
719.908	75.24
720.092	75.87
720.275	76.64
720.459	76.62
720.642	76.9
720.826	76.52
721.009	75.78
721.193	75.1
721.376	75.06
721.559	75.37
721.743	75.83
721.926	76.88
722.11	77.73
722.293	77.53
722.476	76.88
722.66	76.52
722.843	75.88
723.026	75.07
723.21	75.71
723.393	76.74
723.576	76.91
723.759	76.38
723.942	77.1
724.126	76.53
724.309	76.03
724.492	76.08
724.675	76.32
724.858	76.6
725.041	77.43
725.224	77.73
725.407	78.05
725.59	78.45
725.774	77.38
725.957	76.69
726.14	76.66
726.322	76.65
726.505	76.46
726.688	77.39
726.871	77.37
727.054	77.44
727.237	76.82
727.42	77.93
727.603	77.9
727.786	78.26
727.968	78.39
728.151	78.93
728.334	78.05
728.517	77.63
728.699	77.63
728.882	77.03
729.065	77.44
729.248	77.97
729.43	78.49
729.613	79.22
729.796	80.2
729.978	79.44
730.161	79.18
730.343	79
730.526	79.5
730.708	78.56
730.891	79.55
731.073	79.68
731.256	79.26
731.438	78.5
731.621	79.74
731.803	79.36
731.986	79.22
732.168	79.47
732.35	79.74
732.533	78.96
732.715	78.6
732.898	79.36
733.08	79.4
733.262	79.67
733.444	79.92
733.627	80.34
733.809	79.97
733.991	81.35
734.173	80.62
734.355	80.56
734.538	80.84
734.72	80.63
734.902	80.17
735.084	80.97
735.266	81
735.448	81.48
735.63	81.42
735.812	80.99
735.994	82.1
736.176	82.88
736.358	82.31
736.54	83.91
736.722	83.08
736.904	81.52
737.086	81
737.268	82.26
737.45	81.76
737.632	82.74
737.814	82.03
737.995	81.88
738.177	80.8
738.359	79.26
738.541	79.57
738.723	80.75
738.904	81.59
739.086	81.57
739.268	82.16
739.449	82.11
739.631	81.58
739.813	81.32
739.994	81.8
740.176	81.89
740.358	81.8
740.539	83.05
740.721	83.25
740.902	83.43
741.084	83.57
741.265	83.51
741.447	82.94
741.628	83.2
741.81	82.42
741.991	83.55
742.172	84.33
742.354	84.85
742.535	84.07
742.717	85.05
742.898	85.24
743.079	85.3
743.261	84.53
743.442	83.84
743.623	84.01
743.804	83.57
743.986	84.44
744.167	83.22
744.348	84.37
744.529	84.23
744.71	83.44
744.891	82.45
745.073	83.54
745.254	82.92
745.435	81.79
745.616	81.9
745.797	81.29
745.978	80.76
746.159	80.95
746.34	80.36
746.521	81.71
746.702	80.65
746.883	80.69
747.064	79.77
747.245	80.46
747.426	79.77
747.606	80.99
747.787	82.13
747.968	83.15
748.149	82.99
748.33	82.2
748.51	82.23
748.691	81.76
748.872	81.73
749.053	81.74
749.233	81.3
749.414	80.73
749.595	79.9
749.775	78.56
749.956	78.65
750.137	78.4
750.317	79.65
750.498	80.68
750.678	81.4
750.859	82.11
751.04	82.29
751.22	80.52
751.4	80.27
751.581	79.71
751.761	80.82
751.942	81.83
752.122	82.7
752.303	81.8
752.483	81.46
752.663	79.66
752.844	77.47
753.024	78.37
753.204	78.95
753.385	78.58
753.565	78.9
753.745	79.85
753.925	78.22
754.106	77.68
754.286	79
754.466	78.41
754.646	79.21
754.826	78.44
755.006	78.04
755.187	79.21
755.367	79.3
755.547	79.74
755.727	80.94
755.907	81.71
756.087	82.06
756.267	82.04
756.447	81.38
756.627	80
756.807	81.01
756.987	79.12
757.167	79.15
757.346	80.24
757.526	79.93
757.706	81.19
757.886	82.01
758.066	82.72
758.246	84.12
758.425	84.43
758.605	81.77
758.785	81.44
758.965	81.21
759.144	77.83
759.324	79.83
759.504	80.53
759.683	80.63
759.863	80.06
760.043	80.41
760.222	79.35
760.402	79.75
760.581	80.23
760.761	82.18
760.94	81.23
761.12	83.75
761.299	82.66
761.479	82.29
761.658	78.92
761.838	77.69
762.017	76.3
762.197	76.79
762.376	76.11
762.555	77.58
762.735	80.41
762.914	79.01
763.093	79.22
763.273	78.92
763.452	78.98
763.631	78.06
763.81	77.41
763.99	75.86
764.169	75.97
764.348	73.5
764.527	73.01
764.706	74.91
764.885	77.42
765.064	76.3
765.243	78.14
765.423	80.03
765.602	79.03
765.781	76.66
765.96	76.38
766.139	77.02
766.318	76.8
766.497	76.12
766.676	76.27
766.854	78.26
767.033	78.23
767.212	75.92
767.391	76.98
767.57	79.03
767.749	78.56
767.928	80.39
768.106	80.77
768.285	77.25
768.464	75.46
768.643	75.75
768.821	73.66
769	75.05
769.179	77.91
769.357	77.22
769.536	74.86
769.715	74.92
769.893	76.41
770.072	74.37
770.25	75.16
770.429	77.38
770.607	76.15
770.786	73.68
770.964	75.76
771.143	75.41
771.321	76.1
771.5	78.32
771.678	78.54
771.857	76.61
772.035	78.09
772.213	78.27
772.392	74.17
772.57	76.8
772.748	78.23
772.927	74.02
773.105	72.94
773.283	76.48
773.461	74.18
773.64	73.1
773.818	75.72
773.996	77.55
774.174	74.35
774.352	72.1
774.531	71.05
774.709	71.98
774.887	68.85
775.065	69.23
775.243	71.01
775.421	71.97
775.599	73.55
775.777	71.27
775.955	69.5
776.133	69.04
776.311	69.84
776.489	66.62
776.667	68.81
776.844	70.22
777.022	68.2
777.2	67.91
777.378	68.46
777.556	70.08
777.734	75.1
777.911	79.09
778.089	78.15
778.267	77.54
778.445	75.24
778.622	71.13
778.8	69.25
778.978	72.64
779.155	73.18
779.333	73.41
779.511	73.52
779.688	76.13
779.866	71.17
780.043	68.34
780.221	68.22
780.398	68.03
780.576	68.1
780.753	70.18
780.931	71.88
781.108	72.46
781.286	72.38
781.463	67.44
781.64	64.67
781.818	66.06
781.995	64.94
782.172	65.36
782.35	66.4
782.527	70.59
782.704	69.2
782.882	71.1
783.059	70.25
783.236	73.68
783.413	72.55
783.59	71.24
783.768	68.35
783.945	69.04
784.122	67.36
784.299	67.32
784.476	66.76
784.653	67.55
784.83	66.48
785.007	63.49
785.184	63.17
785.361	63.38
785.538	69.77
785.715	74.37
785.892	75.26
786.069	78.69
786.246	81.57
786.423	76.68
786.6	71.89
786.776	75.48
786.953	71.39
787.13	71.81
787.307	72.55
787.484	75.8
787.66	71.62
787.837	70.85
788.014	66.93
788.191	63.6
788.367	57.3
788.544	61.4
788.721	63.28
788.897	67.27
789.074	70.8
789.25	71.02
789.427	69.59
789.603	66.91
789.78	66.19
789.956	61.82
790.133	61.99
790.309	64.38
790.486	67.97
790.662	65.32
790.839	67.33
791.015	69.32
791.192	65.61
791.368	63.63
791.544	61.44
791.721	58.14
791.897	56.34
792.073	55.29
792.249	51.85
792.426	59.01
792.602	65.21
792.778	65.62
792.954	64.58
793.13	66.04
793.307	56.05
793.483	46.86
793.659	47.09
793.835	50.73
794.011	49.35
794.187	54.17
794.363	56.75
794.539	61.12
794.715	56.3
794.891	58.1
795.067	56.4
795.243	60.93
795.419	61.71
795.595	61.67
795.771	60.17
795.947	62.39
796.122	58.07
796.298	58.17
796.474	59.93
796.65	61.93
796.826	57.73
797.001	60.94
797.177	54.88
797.353	58.54
797.529	57.58
797.704	58.2
797.88	57.06
798.056	56.32
798.231	51.61
798.407	55.24
798.582	56.31
798.758	63.82
798.934	72.53
799.109	71.23
799.285	65.7
799.46	72.07
799.636	69.04
799.811	64.25
799.986	68.17
800.162	71.65
800.337	65.62
800.513	58.95
800.688	58.61
800.863	64.37
801.039	59.27
801.214	59.01
801.389	64.55
801.565	58.66
801.74	49.05
801.915	58.91
802.09	55.71
802.265	57.59
802.441	58.23
802.616	58.64
802.791	53.39
802.966	59.83
803.141	57.08
803.316	55.62
803.491	63.54
803.666	64.97
803.841	57.86
804.016	53.45
804.191	59.62
804.366	57.21
804.541	56.07
804.716	57.89
804.891	55.66
805.066	61.94
805.241	57.49
805.416	59.03
805.591	55.53
805.765	62.66
805.94	58.37
806.115	56.13
806.29	48.23
806.464	53.21
806.639	45.99
806.814	35.62
806.989	24.41
807.163	38.88
807.338	38.29
807.512	42.16
807.687	39.94
807.862	67.41
808.036	67.75
808.211	67.59
808.385	72.51
808.56	86.83
808.734	78.51
808.909	66.85
809.083	62.22
809.258	69.22
809.432	56.37
809.606	40.65
809.781	40.96
809.955	49.06
810.13	42.89
810.304	48.2
810.478	51.52
810.652	57.42
810.827	55.73
811.001	52.85
811.175	49.91
811.349	50.83
811.524	39.09
811.698	26.38
811.872	28.03
812.046	34.93
812.22	45
812.394	54.61
812.568	65.01
812.742	65.31
812.916	62.63
813.09	53.71
813.264	48.87
813.438	47.82
813.612	48.1
813.786	43.75
813.96	48.56
814.134	48.85
814.308	69.58
814.482	69.49
814.656	66.01
814.83	70.27
815.003	75.01
815.177	54.6
815.351	44.2
815.525	48.77
815.698	38.78
815.872	28.85
816.046	20.04
816.219	35.01
816.393	45.38
816.567	50.96
816.74	48.9
816.914	61.43
817.088	62.89
817.261	45.38
817.435	35.79
817.608	43.19
817.782	32.33
817.955	25.26
818.129	31.19
818.302	42.86
818.475	54.19
818.649	57.59
818.822	45.49
818.996	63.63
819.169	63.4
819.342	44.8
819.516	55.12
819.689	69.94
819.862	56.87
820.035	39.67
820.209	44.23
820.382	42.2
820.555	46.65
820.728	33.19
820.901	34.79
821.075	39.85
821.248	33.88
821.421	16.19
821.594	19.13
821.767	56.76
821.94	75.75
822.113	59.76
822.286	57.42
822.459	74.53
822.632	55.64
822.805	37.05
822.978	35.24
823.151	39.12
823.324	22.31
823.496	-3.52
823.669	-14.42
823.842	-1.89
824.015	-7.55
824.188	-13.58
824.361	1.94
824.533	-8.49
824.706	2.43
824.879	-1.9
825.051	8.47
825.224	13.54
825.397	14.73
825.569	-12.59
825.742	19.94
825.915	49.88
826.087	58.87
826.26	52.97
826.432	68.52
826.605	59.26
826.777	28.71
826.95	27.28
827.122	16.14
827.295	30.96
827.467	34.54
827.64	27.01
827.812	21.51
827.984	43.31
828.157	8.49
828.329	-38.19
828.501	-18
828.674	2.29
828.846	-19.27
829.018	18.03
829.19	16.27
829.363	29.19
829.535	32.59
829.707	42.59
829.879	15.94
830.051	17.77
830.223	8.4
830.395	-19.2
830.568	-24.98
830.74	-10.4
830.912	20.93
831.084	3.08
831.256	8.93
831.428	1.35
831.6	-24.57
831.772	-61.42
831.943	-66.46
832.115	-48.24
832.287	-21.25
832.459	-8.1
832.631	10.61
832.803	46.57
832.975	76.16
833.146	63.38
833.318	71.26
833.49	87.46
833.662	53.01
833.833	17.35
834.005	12.14
834.177	20.98
834.348	11.28
834.52	4.27
834.692	1.57
834.863	-16.63
835.035	-12.37
835.206	-60.08
835.378	-47.22
835.549	-51.67
835.721	-10.27
835.892	-31.74
836.064	-20.57
836.235	-23.13
836.407	-0.79
836.578	-41.5
836.749	-34.43
836.921	-75.88
837.092	-71.45
837.264	-79.84
837.435	-84.86
837.606	-29.35
837.777	12.47
837.949	30.23
838.12	38.4
838.291	52.23
838.462	43.47
838.633	15.84
838.805	12.63
838.976	27.31
839.147	-3.28
839.318	-36.27
839.489	-81.54
839.66	-70.3
839.831	-21.6
840.002	-6.72
840.173	-20.03
840.344	65.79
840.515	79.3
840.686	-82.79
840.857	-95.46
841.028	-84.08
841.199	-102.46
841.369	-118.28
841.54	-79.41
841.711	-42.14
841.882	-14.95
842.053	-16.16
842.223	-16.72
842.394	-8.39
842.565	-8.36
842.736	3.43
842.906	-5.75
843.077	25.47
843.248	57.53
843.418	36.75
843.589	-8.34
843.759	64.69
843.93	55.16
844.101	17.44
844.271	40.77
844.442	60.99
844.612	58.91
844.783	24.75
844.953	18.45
845.123	18.93
845.294	-3.65
845.464	-152.09
845.635	-1.95
845.805	-8.22
845.975	-4.18
846.146	-39.51
846.316	-42.12
846.486	-25.03
846.656	12.47
846.827	0.54
846.997	5.85
847.167	44.8
847.337	14.59
847.507	-42.25
847.677	-27.56
847.848	39.1
848.018	31.45
848.188	40.24
848.358	31.77
848.528	32.19
848.698	-5.14
848.868	-76.9
849.038	-156.2
849.208	-46.4
849.378	9.31
849.548	-21.03
849.718	-2.5
849.887	19.4
850.057	0.95
850.227	-34.29
850.397	-40.47
850.567	-126.62
850.737	-350.65
850.906	-1060.63
851.076	-976.95
851.246	-332.72
851.415	-17.32
851.585	-4.38
851.755	-47.87
851.924	25.79
852.094	-22.81
852.264	-131.31
852.433	-939.9
852.603	-121.66
852.772	-97.1
852.942	-50.45
853.111	-48.87
853.281	-19.61
853.45	-1.76
853.62	-119.55
853.789	-128.36
853.959	-105.82
854.128	-118.59
854.297	-127.41
854.467	-111.36
854.636	-108.9
854.805	-37.29
854.975	-76.25
855.144	-118.22
855.313	59.09
855.482	-356.57
855.652	-256.51
855.821	-141.13
855.99	3.41
856.159	2.48
856.328	28.22
856.497	14.34
856.667	19.4
856.836	5.15
857.005	-22.87
857.174	-56.02
857.343	-89.97
857.512	-84.16
857.681	-142.34
857.85	-164.75
858.019	-75.88
858.188	-61.09
858.356	-80.03
858.525	-148.88
858.694	-134.77
858.863	-295.51
859.032	-211.68
859.201	-308.92
859.369	-152.17
859.538	-132.66
859.707	-100.54
859.876	-102.84
860.044	-61.69
860.213	29.27
860.382	24.93
860.55	33.32
860.719	45.49
860.888	54.8
861.056	1.4
861.225	-11.78
861.393	49.95
861.562	59.19
861.73	-45.02
861.899	-142.67
862.067	-1270.69
862.236	-136.37
862.404	-395.82
862.572	-236.3
862.741	-82.41
862.909	-67.43
863.078	-157.62
863.246	-60.64
863.414	-36.92
863.582	-41.09
863.751	-93.9
863.919	-88.68
864.087	-34.23
864.255	-18.3
864.424	-379.88
864.592	-30.77
864.76	-52.29
864.928	-227.6
865.096	-194.75
865.264	-88.01
865.432	-1935.23
865.6	-197.75
865.768	-183.48
865.936	-205.59
866.104	-249.11
866.272	-302.66
866.44	-513.58
866.608	832.88
866.776	321.12
866.944	3243.02
867.112	-570.55
867.28	-243.57
867.448	-89.72
867.615	-30.3
867.783	11.17
867.951	-11.02
868.119	6.57
868.286	-63.91
868.454	-225.62
868.622	-249.76
868.789	-330.26
868.957	-4860.71
869.125	-2201.32
869.292	-150.25
869.46	-254.84
869.627	-24.64
869.795	-60.89
869.963	-12.67
870.13	18.89
870.298	27.95
870.465	-57.27
870.632	-71.71
870.8	-74.69
870.967	-173.34
871.135	-244.32
871.302	-229.69
871.469	-236.17
871.637	-309.43
871.804	-181.14
871.971	-193.77
872.139	-497.91
872.306	-36.92
872.473	-77.29
872.64	-317.81
872.807	-106.98
872.975	9.68
873.142	-234.36
873.309	1701.35
873.476	67.82
873.643	100.89
873.81	32.57
873.977	46.19
874.144	71.71
874.311	-84.59
874.478	-156.53
874.645	-189.88
874.812	-125.7
874.979	-94.46
875.146	-98.09
875.313	-98.84
875.48	13.29
875.647	-29.51
875.813	-76.85
875.98	-35.53
876.147	-54.3
876.314	-121.54
876.481	1058.26
876.647	-1388.2
876.814	652.59
876.981	-152.12
877.147	-126.94
877.314	-30.26
877.481	29.48
877.647	43.58
877.814	10.27
877.98	-20.24
878.147	13.9
878.314	28.37
878.48	-3.85
878.647	-11.78
878.813	60.49
878.979	58.94
879.146	6.64
879.312	-17.79
879.479	-26.33
879.645	-108.4
879.811	-314.98
879.978	-730.15
880.144	-186.94
880.31	-132.84
880.477	-494.07
880.643	-556.51
880.809	-204.12
880.975	-174.23
881.142	-956.82
881.308	-58.5
881.474	-7.18
881.64	-38.35
881.806	-68.79
881.972	-29.24
882.138	-33.5
882.304	-20.61
882.47	-195.62
882.636	-860.25
882.802	-207.17
882.968	-45.11
883.134	-23.31
883.3	-21.52
883.466	28.37
883.632	60.76
883.798	13.09
883.964	-17.59
884.129	-16.12
884.295	-3.06
884.461	-92.53
884.627	-107.2
884.793	-115.14
884.958	-69.38
885.124	-159.99
885.29	-239.04
885.455	-406.07
885.621	-123.95
885.787	-131.75
885.952	-87.55
886.118	-103.74
886.283	-65.03
886.449	-146.86
886.614	-157.95
886.78	-305.58
886.945	1046.72
887.111	-830.35
887.276	-717.33
887.442	-1281.36
887.607	-499.29
887.773	-319.9
887.938	-234.07
888.103	-262.69
888.269	-222.14
888.434	-358.11
888.599	-140.64
888.764	-27.44
888.93	8.12
889.095	12.98
889.26	-39.78
889.425	-12.6
889.59	-41.51
889.756	-107.59
889.921	-78.13
890.086	-2.42
890.251	5.01
890.416	-120.71
890.581	-705.65
890.746	98.39
890.911	255.73
891.076	156.11
891.241	-308.58
891.406	34.6
891.571	43.48
891.736	-123.62
891.901	-368.58
892.065	414.84
892.23	146.91
892.395	278.77
892.56	440.32
892.725	-503.52
892.889	-993.9
893.054	-159.78
893.219	-58.75
893.384	-27.61
893.548	-118.64
893.713	-145.04
893.878	-129.21
