Data from Ofra_PS_T2_2A_2GT03_Reflection_3.txt Node
Date: Wed Jul 21 17:29:15 EDT 2021
User: Adam
Spectrometer: FLMT01687
Trigger mode: 0
Integration Time (sec): 1.100000E0
Scans to average: 2
Electric dark correction enabled: true
Nonlinearity correction enabled: false
Boxcar width: 2
XAxis mode: Wavelengths
Number of Pixels in Spectrum: 3648
>>>>>Begin Spectral Data<<<<<
179.494	544
179.716	643.53
179.937	597.18
180.158	604
180.38	932.5
180.601	340.33
180.823	60.87
181.044	-164.45
181.265	16.18
181.486	39.68
181.708	107.62
181.929	755.1
182.15	-690.14
182.372	137.5
182.593	13.24
182.814	26.16
183.035	29.57
183.257	59.94
183.478	-55.74
183.699	15.4
183.92	-12.34
184.141	16.56
184.363	-79.27
184.584	-35.04
184.805	-25.67
185.026	-3.66
185.247	10.53
185.468	10.46
185.689	6.54
185.91	15.81
186.132	22.24
186.353	2.97
186.574	30.53
186.795	36.38
187.016	2.82
187.237	2.71
187.458	-35.55
187.679	-4.02
187.9	-9.7
188.121	-27.34
188.342	-41.89
188.563	29.85
188.784	42.63
189.005	55.33
189.226	117.82
189.447	97.6
189.667	-45.63
189.888	-409.85
190.109	-1403.9
190.33	-844.52
190.551	-1397.35
190.772	-327.85
190.993	-242.24
191.214	-221.62
191.434	-135.06
191.655	-35.09
191.876	-72.11
192.097	-113.99
192.318	-126.23
192.538	-187.68
192.759	-155.7
192.98	-38.12
193.201	12.67
193.421	21.03
193.642	28.63
193.863	27.51
194.083	-2.6
194.304	-16.39
194.525	-18.17
194.745	-33.91
194.966	-49.7
195.187	-54.94
195.407	-99.52
195.628	-196.9
195.848	-202.24
196.069	-205.97
196.29	-128.42
196.51	-132.93
196.731	-87.27
196.951	-101.34
197.172	-103.18
197.392	-151.04
197.613	-128.97
197.833	-173.96
198.054	-134.65
198.274	-72.63
198.495	-79.9
198.715	-54.35
198.936	-53.31
199.156	-34.52
199.377	-124.91
199.597	-128.39
199.817	-117.49
200.038	-39.45
200.258	-130.07
200.479	-66.09
200.699	-61.66
200.919	-11.73
201.14	-44.46
201.36	-48.45
201.58	7.51
201.801	46.72
202.021	8.67
202.241	4.75
202.461	13.24
202.682	-81.07
202.902	-167.29
203.122	-95.19
203.342	-87.27
203.563	-44.9
203.783	-6.03
204.003	-63.31
204.223	-65.03
204.443	1.31
204.663	-23.59
204.884	-23.38
205.104	32.61
205.324	69.68
205.544	45.2
205.764	48.3
205.984	47.01
206.204	47.25
206.424	35.17
206.644	20.25
206.864	26.58
207.084	-16.62
207.304	-5.68
207.525	-192.5
207.745	-135.27
207.964	-30.16
208.184	-60.29
208.404	-103.11
208.624	-85.29
208.844	-66.42
209.064	-372.81
209.284	-385.75
209.504	-217.45
209.724	-67.71
209.944	-51.2
210.164	-21.23
210.384	10.31
210.604	5.32
210.823	-54.18
211.043	-71.28
211.263	-48.59
211.483	-66.04
211.703	-117.37
211.922	-81.21
212.142	-8.46
212.362	-13.07
212.582	-2.11
212.801	14.11
213.021	-15.68
213.241	-43.86
213.461	-80.5
213.68	-118.73
213.9	-100.46
214.12	-71.1
214.339	-143.3
214.559	-101.57
214.779	-45.89
214.998	-51.91
215.218	-101.39
215.438	-53.01
215.657	-60.54
215.877	-56.57
216.096	-19.47
216.316	-1.8
216.535	-19.06
216.755	-33.74
216.974	-138.17
217.194	-177.85
217.413	-176.42
217.633	-141.79
217.852	-189.64
218.072	-75.47
218.291	-36.69
218.511	16.51
218.73	-23.87
218.95	-22.64
219.169	-26.54
219.389	-64.88
219.608	-54.53
219.827	-35.77
220.047	-25.42
220.266	-6.67
220.485	0.72
220.705	-0.07
220.924	-4.32
221.143	32.14
221.363	9.63
221.582	8.96
221.801	17.48
222.021	20.19
222.24	-74.3
222.459	-16.7
222.678	-3.25
222.897	-97.94
223.117	-158.6
223.336	-134.02
223.555	-126.44
223.774	-91.33
223.993	-51.39
224.213	27.04
224.432	4.75
224.651	39.49
224.87	-1.56
225.089	13.7
225.308	-0.06
225.527	22.4
225.746	2.71
225.965	-6.49
226.184	-45.95
226.404	-15.29
226.623	-51.72
226.842	-35.21
227.061	6.66
227.28	21.71
227.499	17.11
227.718	42.45
227.936	46.69
228.155	47.85
228.374	27.24
228.593	25.85
228.812	19.55
229.031	0.35
229.25	-50
229.469	-29.23
229.688	-24.45
229.907	13.86
230.125	26.9
230.344	42.79
230.563	47.64
230.782	63.53
231.001	-6.1
231.22	5.52
231.438	29.95
231.657	11.6
231.876	-23.84
232.095	23.94
232.313	22.26
232.532	-0.65
232.751	-30.17
232.969	-47.77
233.188	-106.34
233.407	-15.81
233.625	-11.17
233.844	-0.62
234.063	28.75
234.281	41.94
234.5	25.76
234.719	31.53
234.937	35.89
235.156	38.08
235.374	23.55
235.593	-0.27
235.811	-3.7
236.03	-11.87
236.249	-46.93
236.467	-38.39
236.686	-4.26
236.904	0.51
237.123	-27.07
237.341	-35.35
237.559	-31.57
237.778	-56.8
237.996	-90.73
238.215	-19.73
238.433	7.42
238.652	13.51
238.87	-9.62
239.088	11
239.307	-3.6
239.525	-18.8
239.743	-55.21
239.962	-30.09
240.18	-57.55
240.398	-116.73
240.617	-111.26
240.835	-77.14
241.053	-48.43
241.271	-1.91
241.49	17.11
241.708	2.38
241.926	-13.22
242.144	-26.33
242.363	-81.84
242.581	-92.98
242.799	-32.82
243.017	11.56
243.235	-11.91
243.453	-1.4
243.672	0.12
243.89	-18.66
244.108	-49.42
244.326	-16.68
244.544	-25.3
244.762	-28.44
244.98	-28.72
245.198	-8.17
245.416	-53.6
245.634	-29.46
245.852	-22.16
246.07	-26.91
246.288	-41.12
246.506	-67.67
246.724	-34.22
246.942	-42.7
247.16	7
247.378	24.39
247.596	69.77
247.814	57.24
248.032	33.96
248.25	29.45
248.468	11.29
248.685	11.84
248.903	31.4
249.121	33.41
249.339	-7.86
249.557	-8.04
249.775	-2.12
249.992	-75.72
250.21	-73.89
250.428	-40.22
250.646	-68.7
250.863	-94.64
251.081	-55.14
251.299	-28.57
251.517	-25.4
251.734	-12.44
251.952	-32.29
252.17	-21.73
252.387	-22.8
252.605	-39.05
252.823	-26.99
253.04	3.99
253.258	12.04
253.475	17.27
253.693	49.16
253.911	30.51
254.128	23.67
254.346	19.29
254.563	1.41
254.781	-28.84
254.998	-31.4
255.216	-54.85
255.433	-43.48
255.651	-1.49
255.868	50.1
256.086	55.27
256.303	60.2
256.521	49.97
256.738	18.98
256.956	-18.75
257.173	-37.96
257.39	-48.17
257.608	-102.5
257.825	-33.97
258.043	-12.8
258.26	-25.24
258.477	33.61
258.695	48.31
258.912	-7.92
259.129	-6.87
259.346	-20.52
259.564	-79.17
259.781	-111.15
259.998	-41.16
260.216	14.61
260.433	50.67
260.65	30.74
260.867	50.85
261.084	25.42
261.302	-23.13
261.519	-38.22
261.736	-30.62
261.953	-45.59
262.17	-13.29
262.387	-40.12
262.604	-84.91
262.822	-104.67
263.039	-97.85
263.256	-142.08
263.473	-81.17
263.69	-40.72
263.907	5.51
264.124	23.4
264.341	12.94
264.558	-1.88
264.775	14.36
264.992	3.39
265.209	6.37
265.426	29.05
265.643	38.47
265.86	36.58
266.077	41.59
266.294	4.47
266.51	-50.39
266.727	-75.02
266.944	-62.99
267.161	-80.91
267.378	-50.35
267.595	-9.89
267.812	-21.98
268.028	-63.16
268.245	-24.4
268.462	-63.97
268.679	-72.77
268.896	-9.56
269.112	-0.86
269.329	-21.24
269.546	-5.47
269.763	-11.43
269.979	-41.33
270.196	-29.89
270.413	-43.6
270.629	-53.27
270.846	-62.41
271.063	-43.34
271.279	-57.1
271.496	-52.67
271.712	-26.21
271.929	17.33
272.146	-15
272.362	-11.55
272.579	28.37
272.795	38.78
273.012	15.09
273.228	17.13
273.445	-1.73
273.661	-47.24
273.878	-107.1
274.094	-98.05
274.311	-123.87
274.527	-56.17
274.744	-47.05
274.96	-30.9
275.177	-4.51
275.393	16.19
275.609	29.01
275.826	43.62
276.042	37.64
276.259	14.65
276.475	23.28
276.691	21.77
276.908	-5.52
277.124	2.54
277.34	5.48
277.557	-1.78
277.773	-14.75
277.989	-13.05
278.205	-20.13
278.422	-5.28
278.638	-2.96
278.854	12.62
279.07	6.18
279.286	-8.39
279.503	-29.59
279.719	-49.43
279.935	-90.83
280.151	-96
280.367	-38.59
280.583	-69.42
280.799	-38.12
281.016	-49.36
281.232	-7.02
281.448	-19.56
281.664	4.93
281.88	-42.45
282.096	-18.49
282.312	5.12
282.528	33.69
282.744	57.18
282.96	61.1
283.176	53.07
283.392	10.35
283.608	-8.34
283.824	-22.74
284.04	-21.33
284.256	-17.92
284.471	1.6
284.687	4.42
284.903	41.44
285.119	70.41
285.335	32.47
285.551	28.39
285.767	6.33
285.982	-24.78
286.198	-76.06
286.414	3.98
286.63	17.76
286.846	48.02
287.061	29.19
287.277	56.39
287.493	19.73
287.709	19.71
287.924	-8.24
288.14	32.53
288.356	24.65
288.571	48.67
288.787	42.93
289.003	43.93
289.218	18.75
289.434	-14.63
289.65	-16.16
289.865	-28.4
290.081	3.36
290.296	23.12
290.512	25.91
290.727	-7.48
290.943	-18.2
291.159	-28.47
291.374	-36.58
291.59	-60.9
291.805	-28.73
292.021	-9.84
292.236	-18.11
292.451	1.19
292.667	19.51
292.882	23.05
293.098	19.27
293.313	-2.4
293.529	-38.1
293.744	-55.52
293.959	-58.21
294.175	-52.24
294.39	-13.22
294.605	6.01
294.821	29.97
295.036	30.3
295.251	36.04
295.467	15.64
295.682	-10.46
295.897	-63.27
296.112	-68.19
296.328	-60.82
296.543	-78.95
296.758	-51.41
296.973	-1.63
297.188	29.87
297.404	2.78
297.619	-1.05
297.834	-19.21
298.049	-41.23
298.264	-74.75
298.479	-2.16
298.694	9.78
298.909	28.35
299.125	34.89
299.34	52.39
299.555	19.39
299.77	33.61
299.985	-11.47
300.2	-63.55
300.415	-83.45
300.63	-34.49
300.845	-49.92
301.06	-33.74
301.275	1.92
301.49	7.51
301.704	-11.24
301.919	-23.91
302.134	-35.18
302.349	-49.73
302.564	-112.7
302.779	-144.99
302.994	-96.55
303.209	-33
303.423	19.56
303.638	70.21
303.853	26.35
304.068	3.64
304.283	-4.36
304.497	-19.13
304.712	-30.41
304.927	-22.04
305.142	-26.74
305.356	-29.94
305.571	-25.31
305.786	-46.09
306	-61.73
306.215	-49.78
306.43	-43.44
306.644	-13.43
306.859	51.18
307.074	64.66
307.288	22.85
307.503	8.85
307.717	-12.97
307.932	-36.61
308.147	-50.35
308.361	-18.12
308.576	-20.03
308.79	-82.63
309.005	-55.67
309.219	-29.89
309.434	-42.9
309.648	-50.46
309.863	-8.86
310.077	-21.02
310.292	-38.28
310.506	-26.67
310.72	-1.52
310.935	10.06
311.149	11.75
311.364	40.67
311.578	46.92
311.792	36.23
312.007	34.73
312.221	23.6
312.435	10.35
312.649	-8.07
312.864	18.9
313.078	32.68
313.292	91.2
313.507	59.76
313.721	92.67
313.935	29.99
314.149	16.61
314.363	0.89
314.578	15
314.792	6.35
315.006	-2.78
315.22	12.85
315.434	19
315.648	26.51
315.862	30.4
316.077	28.34
316.291	-0.88
316.505	7.19
316.719	-4.98
316.933	-27.26
317.147	-17.5
317.361	-52.49
317.575	-91.27
317.789	-151.78
318.003	-195.03
318.217	-157.24
318.431	-74.71
318.645	-10.54
318.859	8.92
319.073	35.81
319.287	21.73
319.5	-1.02
319.714	-46.72
319.928	-73.48
320.142	-106.79
320.356	-41.19
320.57	2.51
320.784	7.36
320.997	-10.67
321.211	-4.67
321.425	-75.02
321.639	-107.01
321.853	-41.23
322.066	-13.35
322.28	-21.71
322.494	3.92
322.707	28.76
322.921	7.97
323.135	13.48
323.349	35.98
323.562	9.88
323.776	-8.43
323.989	-7.82
324.203	-43.86
324.417	-62.18
324.63	-71.73
324.844	-80.12
325.057	-80.25
325.271	-45.64
325.485	-17.82
325.698	5.68
325.912	25.04
326.125	-1.01
326.339	0.1
326.552	-20.12
326.766	-23.52
326.979	-7.42
327.193	34.62
327.406	16.91
327.619	7.38
327.833	20.43
328.046	-12.56
328.26	-50.97
328.473	-13.94
328.686	-29.62
328.9	-41.93
329.113	-18.28
329.326	-27.15
329.54	-29.39
329.753	-31.25
329.966	-63.06
330.179	-42.79
330.393	-25.81
330.606	-32.26
330.819	-9.13
331.032	10.38
331.246	3.2
331.459	34.95
331.672	29.28
331.885	19.58
332.098	-9.93
332.311	0.7
332.525	-65.57
332.738	-55.26
332.951	-21.87
333.164	15.21
333.377	11.22
333.59	36.56
333.803	43.47
334.016	27.53
334.229	35.98
334.442	50.06
334.655	56.59
334.868	62.81
335.081	69.37
335.294	32.26
335.507	2.87
335.72	-3.82
335.933	-23.45
336.146	-34.5
336.359	-6.27
336.572	-18.17
336.785	-55.55
336.997	-29.53
337.21	-18.81
337.423	-28.3
337.636	-25.56
337.849	5.62
338.062	-22.72
338.274	-10.4
338.487	-26.16
338.7	-6.31
338.913	-48.21
339.125	-61.75
339.338	-117.02
339.551	-69.37
339.763	-53.08
339.976	-29.94
340.189	-9.65
340.402	9.24
340.614	-7.32
340.827	-24.19
341.039	-37.94
341.252	-20.49
341.465	-15.26
341.677	-15.41
341.89	-31.33
342.102	1.33
342.315	-21.2
342.527	-33.6
342.74	-33.76
342.952	20.06
343.165	18.2
343.377	48.04
343.59	31.27
343.802	40.85
344.015	20.58
344.227	14.96
344.44	-2.09
344.652	8.09
344.864	-11.7
345.077	15.58
345.289	22.79
345.502	30.96
345.714	23.51
345.926	32.61
346.139	20.57
346.351	30.81
346.563	25.72
346.775	29.46
346.988	14.48
347.2	-3.21
347.412	-63.53
347.624	-75.99
347.837	-89.56
348.049	-63.31
348.261	-18.73
348.473	-4.35
348.685	-20.89
348.897	-19.79
349.11	-26.78
349.322	-67.87
349.534	-45.52
349.746	-28.1
349.958	-19.64
350.17	-21.33
350.382	5.48
350.594	-3.87
350.806	-6.39
351.018	-1.94
351.23	-12.98
351.442	-56.92
351.654	-53.09
351.866	-52.15
352.078	-52.26
352.29	-22.4
352.502	4.65
352.714	21.61
352.926	19.96
353.138	13.01
353.35	11.76
353.561	9.6
353.773	-24.69
353.985	-16.93
354.197	-18.56
354.409	-29.29
354.621	-41.13
354.832	-20.99
355.044	-18.68
355.256	-10.12
355.468	10.02
355.679	11.09
355.891	11.1
356.103	-4.62
356.314	-4.14
356.526	-4.23
356.738	-3.67
356.949	-11.17
357.161	4.38
357.373	-3.76
357.584	-29.02
357.796	-16.08
358.008	-11.34
358.219	2.52
358.431	-3.28
358.642	1.46
358.854	-3.99
359.065	-13.67
359.277	-53.75
359.488	-57.88
359.7	-71.67
359.911	-83.54
360.123	-76.45
360.334	-77.55
360.546	-83.32
360.757	-82.45
360.969	-69.91
361.18	-49.15
361.391	-31.68
361.603	-41.56
361.814	-17.5
362.025	-21
362.237	-20
362.448	3.71
362.659	19.07
362.871	11.07
363.082	18.91
363.293	18.75
363.504	-6.72
363.716	-25.65
363.927	-35.72
364.138	-61.08
364.349	-81.73
364.56	-71.68
364.772	-59.38
364.983	-34.26
365.194	-28.29
365.405	-8.57
365.616	13.32
365.827	24.31
366.038	7.93
366.25	6.13
366.461	-26.41
366.672	-22.08
366.883	-28.36
367.094	-22.07
367.305	-27.86
367.516	-13.12
367.727	-44.39
367.938	-43.12
368.149	-36.3
368.36	-18.6
368.571	-9.53
368.781	-16.91
368.992	-27.42
369.203	-43.39
369.414	-65.95
369.625	-85.95
369.836	-65.07
370.047	-89.46
370.258	-74.93
370.468	-73.15
370.679	-76.71
370.89	-76.23
371.101	-51.77
371.312	-59.34
371.522	-59.49
371.733	-40.89
371.944	-28.17
372.155	-11.38
372.365	-16.48
372.576	-8.46
372.787	-19.49
372.997	-36.24
373.208	-40.5
373.419	-12.45
373.629	-45.83
373.84	-47.35
374.05	-60.77
374.261	-54.14
374.472	-66.13
374.682	-8.79
374.893	0.82
375.103	40.25
375.314	33.23
375.524	33.72
375.735	28.78
375.945	35.31
376.156	11.75
376.366	7.75
376.577	-3.46
376.787	-5.38
376.997	-11.62
377.208	-19.1
377.418	-37.79
377.629	-13.99
377.839	-17.51
378.049	-12.06
378.26	10.49
378.47	16.61
378.68	4.81
378.89	2.56
379.101	-4.02
379.311	-44.61
379.521	-61.54
379.732	-59.86
379.942	-62.66
380.152	-84.35
380.362	-34.59
380.572	-24.05
380.783	-4.3
380.993	3.73
381.203	20.47
381.413	22.25
381.623	25.22
381.833	15.98
382.043	6.96
382.253	-2.23
382.463	-0.95
382.674	-15.9
382.884	-42.46
383.094	-34.4
383.304	-26.38
383.514	-27.04
383.724	-7.14
383.934	-2.81
384.144	-17.67
384.353	-29.25
384.563	-33.88
384.773	-32.65
384.983	-40.89
385.193	-12.95
385.403	-0.18
385.613	3.31
385.823	-3.95
386.033	5.48
386.242	-8.9
386.452	-15.66
386.662	-25.05
386.872	-5.69
387.082	-12.68
387.291	-16.82
387.501	-11.14
387.711	-0.39
387.921	-18.63
388.13	-10.72
388.34	-1.41
388.55	-8.08
388.759	-8.17
388.969	-0.17
389.179	-3.93
389.388	-3.96
389.598	2.61
389.807	-7.68
390.017	-12.5
390.227	-13.1
390.436	-14.24
390.646	-15.94
390.855	-7.85
391.065	-5.51
391.274	-4.25
391.484	-4.6
391.693	-1.39
391.903	-0.42
392.112	1.84
392.322	4.89
392.531	6.92
392.74	5.95
392.95	1.75
393.159	-0.27
393.369	-1.09
393.578	-0.31
393.787	-1.75
393.997	-0.12
394.206	-0.88
394.415	-0.74
394.625	-1.41
394.834	-2.2
395.043	-0.72
395.252	0.74
395.462	2.65
395.671	4.54
395.88	5.6
396.089	5.91
396.298	5.17
396.508	4.59
396.717	3.37
396.926	3.78
397.135	2.93
397.344	3.18
397.553	3.69
397.762	5.2
397.971	4.82
398.181	5.06
398.39	4.53
398.599	3.78
398.808	3.22
399.017	4.6
399.226	5.86
399.435	7.02
399.644	8.01
399.853	7.03
400.062	6.14
400.27	5.33
400.479	4.57
400.688	3.27
400.897	3.86
401.106	4
401.315	3.74
401.524	4
401.733	4.61
401.941	5.27
402.15	5.34
402.359	5.26
402.568	5.71
402.777	5.97
402.985	5.44
403.194	5.21
403.403	5.46
403.612	5.05
403.82	4.68
404.029	4.89
404.238	4.98
404.446	5.29
404.655	5.02
404.864	4.93
405.072	4.69
405.281	4.82
405.489	4.54
405.698	4.62
405.906	4.72
406.115	4.58
406.324	4.42
406.532	4.51
406.741	4.78
406.949	4.78
407.158	4.95
407.366	5.05
407.574	4.93
407.783	4.89
407.991	4.65
408.2	4.85
408.408	4.79
408.617	4.66
408.825	4.4
409.033	4.6
409.242	4.53
409.45	4.71
409.658	4.67
409.867	4.78
410.075	4.66
410.283	4.44
410.491	4.22
410.7	4.24
410.908	4.3
411.116	4.71
411.324	4.79
411.533	4.8
411.741	5.15
411.949	5.17
412.157	4.65
412.365	4.66
412.573	4.64
412.781	4.54
412.99	4.33
413.198	4.68
413.406	4.69
413.614	4.7
413.822	4.41
414.03	4.33
414.238	3.97
414.446	4
414.654	3.79
414.862	4.05
415.07	4.24
415.278	4.66
415.486	4.42
415.694	4.49
415.902	4.26
416.109	4.01
416.317	3.79
416.525	3.8
416.733	3.89
416.941	4.14
417.149	4.22
417.357	4.28
417.564	4.39
417.772	4.63
417.98	4.41
418.188	4.47
418.395	4.51
418.603	4.56
418.811	4.22
419.019	4.12
419.226	4.24
419.434	4.23
419.642	3.97
419.849	4.1
420.057	4.23
420.265	4.15
420.472	3.85
420.68	3.98
420.887	3.86
421.095	3.8
421.302	3.68
421.51	4.02
421.717	4.08
421.925	4.16
422.132	4.04
422.34	3.88
422.547	3.9
422.755	3.8
422.962	3.62
423.17	3.63
423.377	3.8
423.585	3.62
423.792	3.55
423.999	3.7
424.207	3.72
424.414	3.81
424.621	3.9
424.829	3.87
425.036	3.82
425.243	3.93
425.451	3.87
425.658	3.5
425.865	3.73
426.072	3.75
426.28	3.93
426.487	3.92
426.694	4.22
426.901	3.97
427.108	3.91
427.315	3.66
427.523	3.82
427.73	3.73
427.937	3.73
428.144	3.58
428.351	3.62
428.558	3.79
428.765	3.6
428.972	3.44
429.179	3.64
429.386	3.88
429.593	3.56
429.8	3.54
430.007	3.92
430.214	3.98
430.421	3.71
430.628	3.56
430.835	3.48
431.042	3.6
431.249	3.65
431.456	3.63
431.662	3.86
431.869	4.08
432.076	3.9
432.283	3.97
432.49	3.96
432.697	3.9
432.903	3.65
433.11	3.58
433.317	3.68
433.524	3.91
433.73	3.83
433.937	4.19
434.144	4.09
434.35	3.91
434.557	3.69
434.764	3.75
434.97	3.66
435.177	3.97
435.384	3.9
435.59	4.12
435.797	4.33
436.003	4.46
436.21	4.32
436.416	4.42
436.623	4.25
436.829	4.25
437.036	4.32
437.242	4.44
437.449	4.44
437.655	4.57
437.862	4.5
438.068	4.3
438.275	4.42
438.481	4.59
438.687	4.51
438.894	4.5
439.1	4.58
439.307	4.57
439.513	4.4
439.719	4.4
439.926	4.56
440.132	4.56
440.338	4.41
440.544	4.58
440.751	4.62
440.957	4.64
441.163	4.52
441.369	4.6
441.575	4.29
441.782	4.28
441.988	4.13
442.194	4.21
442.4	4.16
442.606	4.64
442.812	4.7
443.018	4.83
443.224	4.82
443.431	5
443.637	4.72
443.843	4.58
444.049	4.56
444.255	4.52
444.461	4.53
444.667	4.48
444.873	4.68
445.079	4.64
445.284	4.8
445.49	4.56
445.696	4.51
445.902	4.38
446.108	4.3
446.314	4.18
446.52	4.27
446.726	4.51
446.931	4.54
447.137	4.59
447.343	4.67
447.549	4.63
447.755	4.43
447.96	4.51
448.166	4.47
448.372	4.49
448.578	4.53
448.783	4.58
448.989	4.62
449.195	4.81
449.4	4.76
449.606	4.75
449.812	4.67
450.017	4.71
450.223	4.52
450.428	4.47
450.634	4.57
450.84	4.73
451.045	4.66
451.251	4.61
451.456	4.81
451.662	4.86
451.867	4.92
452.073	4.9
452.278	5.12
452.483	5.23
452.689	5.12
452.894	5.14
453.1	5.18
453.305	4.98
453.51	4.81
453.716	4.75
453.921	4.67
454.127	4.58
454.332	4.59
454.537	4.59
454.742	4.62
454.948	4.54
455.153	4.63
455.358	4.8
455.563	4.87
455.769	4.99
455.974	4.99
456.179	4.86
456.384	4.82
456.589	4.75
456.795	4.58
457	4.61
457.205	4.86
457.41	4.81
457.615	4.8
457.82	4.89
458.025	4.94
458.23	4.76
458.435	4.78
458.64	4.73
458.845	4.87
459.05	4.83
459.255	4.82
459.46	4.85
459.665	4.84
459.87	4.78
460.075	4.76
460.28	4.91
460.485	4.97
460.69	5.06
460.895	4.94
461.099	4.91
461.304	4.96
461.509	4.95
461.714	4.81
461.919	4.99
462.123	4.95
462.328	4.99
462.533	4.9
462.738	5.14
462.942	5.03
463.147	5.15
463.352	5.13
463.556	5.18
463.761	5.08
463.966	5.06
464.17	5.05
464.375	4.84
464.58	4.79
464.784	4.77
464.989	4.75
465.193	4.79
465.398	4.86
465.602	4.97
465.807	4.97
466.011	5.08
466.216	5.15
466.42	5.17
466.625	5.29
466.829	5.39
467.034	5.41
467.238	5.6
467.443	5.63
467.647	5.46
467.851	5.46
468.056	5.53
468.26	5.31
468.464	5.32
468.669	5.46
468.873	5.57
469.077	5.5
469.282	5.6
469.486	5.72
469.69	5.74
469.894	5.62
470.099	5.7
470.303	5.81
470.507	5.69
470.711	5.54
470.915	5.53
471.119	5.46
471.324	5.29
471.528	5.37
471.732	5.51
471.936	5.45
472.14	5.55
472.344	5.64
472.548	5.68
472.752	5.81
472.956	6.04
473.16	5.95
473.364	5.9
473.568	5.85
473.772	5.89
473.976	5.83
474.18	5.93
474.384	6
474.588	5.99
474.792	5.79
474.995	5.87
475.199	5.94
475.403	6.03
475.607	6.05
475.811	6.06
476.015	6.05
476.218	6.13
476.422	6
476.626	6.14
476.83	6.26
477.033	6.24
477.237	6.04
477.441	6.1
477.644	6.02
477.848	6.03
478.052	5.97
478.255	6.02
478.459	6.08
478.663	6.3
478.866	6.38
479.07	6.46
479.273	6.67
479.477	6.77
479.681	6.58
479.884	6.5
480.088	6.48
480.291	6.36
480.495	6.27
480.698	6.38
480.901	6.44
481.105	6.53
481.308	6.49
481.512	6.47
481.715	6.5
481.919	6.5
482.122	6.52
482.325	6.57
482.529	6.61
482.732	6.56
482.935	6.51
483.138	6.43
483.342	6.48
483.545	6.54
483.748	6.59
483.952	6.67
484.155	6.82
484.358	6.86
484.561	6.82
484.764	6.83
484.967	6.87
485.171	6.87
485.374	6.83
485.577	6.87
485.78	6.92
485.983	6.96
486.186	6.92
486.389	6.89
486.592	6.9
486.795	6.9
486.998	6.81
487.201	6.79
487.404	6.89
487.607	6.99
487.81	6.99
488.013	7.12
488.216	7.18
488.419	7.15
488.622	7.06
488.825	7
489.028	6.88
489.231	6.82
489.433	6.78
489.636	6.65
489.839	6.65
490.042	6.62
490.245	6.6
490.447	6.65
490.65	6.79
490.853	6.79
491.056	6.84
491.258	6.86
491.461	6.87
491.664	6.91
491.866	6.81
492.069	6.87
492.272	6.86
492.474	6.91
492.677	6.93
492.879	7.1
493.082	7.16
493.285	7.27
493.487	7.21
493.69	7.16
493.892	7.06
494.095	6.98
494.297	6.94
494.5	6.95
494.702	6.94
494.905	7.03
495.107	7
495.309	7
495.512	7.01
495.714	7.12
495.917	7.11
496.119	7.13
496.321	7.2
496.524	7.32
496.726	7.3
496.928	7.33
497.13	7.35
497.333	7.29
497.535	7.22
497.737	7.19
497.939	7.21
498.142	7.21
498.344	7.23
498.546	7.11
498.748	7.16
498.95	7.26
499.152	7.25
499.355	7.24
499.557	7.41
499.759	7.54
499.961	7.44
500.163	7.55
500.365	7.63
500.567	7.69
500.769	7.5
500.971	7.53
501.173	7.44
501.375	7.42
501.577	7.26
501.779	7.34
501.981	7.41
502.183	7.45
502.385	7.42
502.587	7.47
502.788	7.52
502.99	7.54
503.192	7.61
503.394	7.64
503.596	7.69
503.798	7.78
503.999	7.79
504.201	7.75
504.403	7.77
504.605	7.82
504.806	7.71
505.008	7.65
505.21	7.65
505.411	7.72
505.613	7.69
505.815	7.72
506.016	7.85
506.218	8.02
506.42	7.99
506.621	8.05
506.823	8.14
507.024	8.08
507.226	8.01
507.427	8.03
507.629	8.05
507.83	8.05
508.032	8.03
508.233	8.11
508.435	8.12
508.636	8.19
508.838	8.2
509.039	8.24
509.24	8.25
509.442	8.34
509.643	8.22
509.845	8.19
510.046	8.26
510.247	8.23
510.448	8.22
510.65	8.32
510.851	8.47
511.052	8.42
511.254	8.42
511.455	8.51
511.656	8.56
511.857	8.63
512.058	8.63
512.26	8.62
512.461	8.6
512.662	8.69
512.863	8.49
513.064	8.49
513.265	8.58
513.466	8.6
513.667	8.53
513.868	8.61
514.069	8.73
514.27	8.82
514.471	8.78
514.672	8.76
514.873	8.87
515.074	8.86
515.275	8.71
515.476	8.74
515.677	8.79
515.878	8.87
516.079	8.81
516.28	8.89
516.481	8.94
516.682	8.97
516.882	8.84
517.083	8.88
517.284	8.88
517.485	8.85
517.686	8.89
517.886	8.87
518.087	8.93
518.288	9.01
518.488	8.96
518.689	8.91
518.89	8.9
519.091	8.94
519.291	8.92
519.492	8.98
519.692	9.02
519.893	9.15
520.094	9.14
520.294	9.08
520.495	9.12
520.695	9.18
520.896	9.15
521.096	9.19
521.297	9.28
521.497	9.27
521.698	9.25
521.898	9.25
522.099	9.23
522.299	9.28
522.499	9.28
522.7	9.32
522.9	9.3
523.101	9.37
523.301	9.33
523.501	9.36
523.702	9.38
523.902	9.5
524.102	9.6
524.302	9.63
524.503	9.7
524.703	9.7
524.903	9.74
525.103	9.62
525.304	9.68
525.504	9.77
525.704	9.88
525.904	9.81
526.104	9.82
526.304	9.82
526.504	9.74
526.705	9.67
526.905	9.78
527.105	9.78
527.305	9.76
527.505	9.69
527.705	9.72
527.905	9.73
528.105	9.76
528.305	9.71
528.505	9.79
528.705	9.86
528.905	9.82
529.105	9.85
529.304	9.97
529.504	10.1
529.704	10.05
529.904	10.07
530.104	10.06
530.304	10.12
530.503	9.96
530.703	9.91
530.903	9.94
531.103	10
531.303	9.99
531.502	10.12
531.702	10.29
531.902	10.25
532.101	10.25
532.301	10.25
532.501	10.3
532.7	10.23
532.9	10.27
533.1	10.29
533.299	10.32
533.499	10.29
533.698	10.29
533.898	10.33
534.097	10.33
534.297	10.4
534.496	10.44
534.696	10.48
534.895	10.55
535.095	10.67
535.294	10.6
535.494	10.52
535.693	10.6
535.892	10.62
536.092	10.54
536.291	10.55
536.491	10.69
536.69	10.78
536.889	10.74
537.088	10.78
537.288	10.82
537.487	10.85
537.686	10.82
537.886	10.89
538.085	10.91
538.284	11.06
538.483	11.01
538.682	11.05
538.882	11.12
539.081	11.26
539.28	11.15
539.479	11.16
539.678	11.13
539.877	11.16
540.076	11.11
540.275	11.16
540.474	11.23
540.673	11.29
540.872	11.26
541.071	11.38
541.27	11.43
541.469	11.51
541.668	11.56
541.867	11.62
542.066	11.63
542.265	11.73
542.464	11.68
542.663	11.7
542.862	11.81
543.06	11.88
543.259	11.9
543.458	11.98
543.657	12.07
543.856	12.07
544.054	11.99
544.253	12.01
544.452	12.06
544.651	12.17
544.849	12.16
545.048	12.3
545.247	12.37
545.445	12.43
545.644	12.41
545.843	12.46
546.041	12.47
546.24	12.57
546.438	12.67
546.637	12.75
546.836	12.93
547.034	13
547.233	13.04
547.431	13.07
547.63	13.1
547.828	13.12
548.027	13.18
548.225	13.14
548.423	13.19
548.622	13.31
548.82	13.27
549.019	13.34
549.217	13.55
549.415	13.6
549.614	13.59
549.812	13.68
550.01	13.75
550.209	13.79
550.407	13.92
550.605	14.01
550.803	14.18
551.002	14.27
551.2	14.32
551.398	14.36
551.596	14.5
551.794	14.62
551.993	14.68
552.191	14.77
552.389	14.86
552.587	14.97
552.785	14.96
552.983	15.1
553.181	15.21
553.379	15.38
553.577	15.4
553.775	15.49
553.973	15.52
554.171	15.61
554.369	15.53
554.567	15.65
554.765	15.78
554.963	15.88
555.161	15.87
555.359	16.04
555.557	16.14
555.755	16.16
555.952	16.34
556.15	16.47
556.348	16.63
556.546	16.77
556.744	16.91
556.941	16.98
557.139	17.15
557.337	17.19
557.535	17.17
557.732	17.29
557.93	17.4
558.128	17.46
558.325	17.57
558.523	17.69
558.721	17.87
558.918	17.94
559.116	18.08
559.313	18.15
559.511	18.29
559.708	18.2
559.906	18.26
560.104	18.26
560.301	18.44
560.498	18.59
560.696	18.77
560.893	18.9
561.091	19.11
561.288	19.24
561.486	19.28
561.683	19.43
561.88	19.54
562.078	19.67
562.275	19.64
562.473	19.78
562.67	20.01
562.867	20.21
563.064	20.34
563.262	20.56
563.459	20.69
563.656	20.83
563.853	20.89
564.051	20.96
564.248	21.1
564.445	21.21
564.642	21.24
564.839	21.42
565.036	21.56
565.234	21.76
565.431	21.9
565.628	22
565.825	22.1
566.022	22.28
566.219	22.25
566.416	22.36
566.613	22.47
566.81	22.6
567.007	22.62
567.204	22.69
567.401	22.76
567.598	22.88
567.795	22.87
567.991	22.92
568.188	23.14
568.385	23.32
568.582	23.4
568.779	23.53
568.976	23.68
569.172	23.79
569.369	23.72
569.566	23.8
569.763	23.86
569.96	23.94
570.156	23.93
570.353	23.98
570.55	24.08
570.746	24.13
570.943	24.11
571.14	24.14
571.336	24.27
571.533	24.36
571.729	24.39
571.926	24.49
572.123	24.66
572.319	24.65
572.516	24.58
572.712	24.68
572.909	24.77
573.105	24.74
573.302	24.91
573.498	25.04
573.695	25.01
573.891	25.04
574.087	25.13
574.284	25.09
574.48	24.98
574.677	25.07
574.873	25.2
575.069	25.24
575.266	25.31
575.462	25.32
575.658	25.46
575.854	25.45
576.051	25.5
576.247	25.46
576.443	25.59
576.639	25.53
576.835	25.46
577.032	25.42
577.228	25.64
577.424	25.66
577.62	25.6
577.816	25.66
578.012	25.64
578.208	25.5
578.404	25.54
578.6	25.59
578.796	25.61
578.993	25.63
579.189	25.63
579.384	25.47
579.58	25.45
579.776	25.37
579.972	25.24
580.168	25.13
580.364	25.25
580.56	25.2
580.756	25.16
580.952	25.23
581.148	25.27
581.343	25.21
581.539	25.29
581.735	25.3
581.931	25.35
582.127	25.39
582.322	25.44
582.518	25.53
582.714	25.56
582.909	25.51
583.105	25.47
583.301	25.45
583.496	25.38
583.692	25.27
583.888	25.22
584.083	25.34
584.279	25.34
584.474	25.24
584.67	25.42
584.866	25.42
585.061	25.11
585.257	25.15
585.452	25.23
585.648	25.11
585.843	25.27
586.039	25.46
586.234	25.47
586.429	25.38
586.625	25.53
586.82	25.34
587.015	25.3
587.211	25.19
587.406	25.28
587.601	25.18
587.797	25.2
587.992	25.24
588.187	25.42
588.383	25.34
588.578	25.3
588.773	25.44
588.968	25.45
589.163	25.31
589.359	25.28
589.554	25.32
589.749	25.24
589.944	25.31
590.139	25.48
590.334	25.58
590.529	25.6
590.724	25.69
590.919	25.81
591.114	25.71
591.309	25.82
591.504	25.92
591.699	25.88
591.894	25.86
592.089	25.91
592.284	25.88
592.479	25.97
592.674	26.02
592.869	26.14
593.064	26.19
593.259	26.35
593.454	26.47
593.648	26.57
593.843	26.51
594.038	26.56
594.233	26.55
594.428	26.51
594.622	26.53
594.817	26.69
595.012	26.84
595.206	26.88
595.401	26.96
595.596	27.09
595.79	27.21
595.985	27.27
596.18	27.41
596.374	27.52
596.569	27.66
596.763	27.49
596.958	27.59
597.153	27.64
597.347	27.66
597.542	27.7
597.736	27.86
597.931	27.89
598.125	27.92
598.319	28.1
598.514	28.15
598.708	28.27
598.903	28.26
599.097	28.33
599.291	28.3
599.486	28.29
599.68	28.38
599.874	28.6
600.069	28.62
600.263	28.61
600.457	28.7
600.651	28.72
600.846	28.65
601.04	28.75
601.234	28.73
601.428	28.87
601.622	28.95
601.817	29.09
602.011	29.19
602.205	29.27
602.399	29.16
602.593	29.15
602.787	29.2
602.981	29.18
603.175	29.3
603.369	29.33
603.563	29.33
603.757	29.37
603.951	29.39
604.145	29.36
604.339	29.43
604.533	29.38
604.727	29.24
604.921	29.11
605.115	29.12
605.309	29.16
605.502	29.14
605.696	29.04
605.89	28.99
606.084	28.85
606.278	28.7
606.471	28.61
606.665	28.61
606.859	28.59
607.053	28.62
607.246	28.59
607.44	28.55
607.634	28.46
607.827	28.5
608.021	28.31
608.214	28.24
608.408	28.13
608.602	28.16
608.795	28.04
608.989	28.07
609.182	27.96
609.376	27.94
609.569	27.72
609.763	27.6
609.956	27.37
610.15	27.23
610.343	27.27
610.537	27.28
610.73	27.27
610.923	27.34
611.117	27.31
611.31	27.16
611.504	27.13
611.697	26.97
611.89	26.88
612.083	26.91
612.277	26.9
612.47	26.65
612.663	26.52
612.856	26.48
613.05	26.33
613.243	26.2
613.436	26.17
613.629	26.18
613.822	26.09
614.015	25.94
614.209	25.81
614.402	25.84
614.595	25.81
614.788	25.69
614.981	25.62
615.174	25.5
615.367	25.32
615.56	25.1
615.753	25.04
615.946	24.94
616.139	24.98
616.332	25.06
616.525	25.12
616.718	25.09
616.911	25.09
617.103	25.08
617.296	25
617.489	24.82
617.682	24.69
617.875	24.67
618.067	24.51
618.26	24.38
618.453	24.43
618.646	24.48
618.838	24.53
619.031	24.53
619.224	24.61
619.417	24.55
619.609	24.56
619.802	24.43
619.994	24.44
620.187	24.34
620.38	24.22
620.572	24.02
620.765	24.06
620.957	23.86
621.15	23.71
621.342	23.83
621.535	23.93
621.727	23.82
621.92	23.83
622.112	23.88
622.305	23.84
622.497	23.7
622.69	23.63
622.882	23.66
623.074	23.69
623.267	23.55
623.459	23.51
623.651	23.45
623.844	23.49
624.036	23.47
624.228	23.46
624.42	23.5
624.613	23.69
624.805	23.56
624.997	23.51
625.189	23.5
625.381	23.43
625.574	23.29
625.766	23.23
625.958	23.14
626.15	23.16
626.342	23.14
626.534	23.15
626.726	23.14
626.918	23.15
627.11	23.05
627.302	23.01
627.494	22.94
627.686	23.01
627.878	22.95
628.07	22.96
628.262	22.89
628.454	22.88
628.646	22.84
628.838	22.86
629.029	22.73
629.221	22.79
629.413	22.66
629.605	22.47
629.797	22.41
629.989	22.45
630.18	22.36
630.372	22.32
630.564	22.39
630.755	22.38
630.947	22.34
631.139	22.13
631.33	22.06
631.522	22.15
631.714	22.14
631.905	22.02
632.097	22.14
632.289	22.21
632.48	22.05
632.672	21.98
632.863	22.01
633.055	21.97
633.246	21.94
633.438	21.9
633.629	21.88
633.821	21.91
634.012	21.8
634.203	21.69
634.395	21.67
634.586	21.65
634.777	21.54
634.969	21.67
635.16	21.71
635.351	21.61
635.543	21.55
635.734	21.58
635.925	21.52
636.117	21.5
636.308	21.5
636.499	21.47
636.69	21.39
636.881	21.28
637.073	21.38
637.264	21.42
637.455	21.49
637.646	21.57
637.837	21.64
638.028	21.52
638.219	21.55
638.41	21.43
638.601	21.33
638.792	21.37
638.983	21.31
639.174	21.19
639.365	21.25
639.556	21.27
639.747	21.12
639.938	21.25
640.129	21.21
640.32	21.12
640.511	21.09
640.701	21.21
640.892	21.07
641.083	21.26
641.274	21.37
641.465	21.41
641.655	21.32
641.846	21.36
642.037	21.22
642.228	21.13
642.418	21.11
642.609	21.08
642.8	21.08
642.99	20.97
643.181	20.95
643.372	20.97
643.562	20.93
643.753	20.79
643.943	20.78
644.134	20.68
644.324	20.61
644.515	20.63
644.705	20.78
644.896	20.77
645.086	20.79
645.277	20.67
645.467	20.62
645.658	20.57
645.848	20.57
646.038	20.57
646.229	20.61
646.419	20.49
646.61	20.4
646.8	20.41
646.99	20.36
647.18	20.3
647.371	20.41
647.561	20.31
647.751	20.32
647.941	20.3
648.132	20.33
648.322	20.17
648.512	20.34
648.702	20.25
648.892	20.23
649.082	20.22
649.272	20.17
649.462	19.92
649.653	19.77
649.843	19.71
650.033	19.73
650.223	19.67
650.413	19.68
650.603	19.79
650.793	19.83
650.983	19.59
651.172	19.68
651.362	19.64
651.552	19.52
651.742	19.38
651.932	19.46
652.122	19.47
652.312	19.54
652.502	19.52
652.691	19.49
652.881	19.35
653.071	19.22
653.261	19.04
653.45	18.87
653.64	18.88
653.83	18.7
654.019	18.55
654.209	18.4
654.399	18.36
654.588	18.18
654.778	18.16
654.968	17.97
655.157	17.78
655.347	17.62
655.536	17.41
655.726	17.29
655.915	17.16
656.105	17.05
656.294	16.95
656.484	16.67
656.673	16.45
656.863	16.36
657.052	16.11
657.241	15.85
657.431	15.8
657.62	15.62
657.809	15.26
657.999	15.21
658.188	14.99
658.377	14.76
658.567	14.6
658.756	14.54
658.945	14.29
659.134	14.12
659.324	13.95
659.513	13.77
659.702	13.53
659.891	13.35
660.08	13.13
660.269	13.02
660.458	12.75
660.648	12.59
660.837	12.45
661.026	12.45
661.215	12.19
661.404	12.04
661.593	11.85
661.782	11.59
661.971	11.36
662.16	11.24
662.349	11.19
662.538	11.03
662.726	11
662.915	10.75
663.104	10.53
663.293	10.31
663.482	10.28
663.671	10.06
663.86	10.03
664.048	10.01
664.237	9.95
664.426	9.73
664.615	9.8
664.803	9.75
664.992	9.6
665.181	9.5
665.369	9.4
665.558	9.1
665.747	8.92
665.935	8.81
666.124	8.79
666.312	8.79
666.501	8.69
666.69	8.58
666.878	8.53
667.067	8.33
667.255	8.35
667.444	8.62
667.632	8.65
667.82	8.74
668.009	8.73
668.197	8.63
668.386	8.44
668.574	8.48
668.762	8.29
668.951	8.22
669.139	8.17
669.327	8.11
669.516	8
669.704	7.99
669.892	8.21
670.08	8.17
670.269	8.1
670.457	8.07
670.645	7.96
670.833	7.91
671.021	7.93
671.21	7.93
671.398	8.11
671.586	8.13
671.774	7.98
671.962	8.02
672.15	8.04
672.338	7.91
672.526	8.01
672.714	7.95
672.902	8.02
673.09	8.3
673.278	8.59
673.466	8.56
673.654	8.79
673.842	8.76
674.03	8.54
674.218	8.29
674.405	8.4
674.593	8.31
674.781	8.31
674.969	8.42
675.157	8.65
675.344	8.77
675.532	8.98
675.72	9.15
675.908	9.26
676.095	9.08
676.283	9.18
676.471	9.31
676.658	9.29
676.846	9.38
677.033	9.63
677.221	9.61
677.409	9.38
677.596	9.47
677.784	9.49
677.971	9.58
678.159	9.77
678.346	10.02
678.534	10.1
678.721	10.35
678.909	10.32
679.096	10.3
679.283	10.44
679.471	10.58
679.658	10.62
679.846	10.91
680.033	11.22
680.22	11.18
680.408	11.12
680.595	11.13
680.782	11.08
680.969	11.17
681.157	11.42
681.344	11.64
681.531	11.69
681.718	11.75
681.905	11.89
682.093	12.05
682.28	12.26
682.467	12.65
682.654	12.91
682.841	13.06
683.028	13.19
683.215	13.52
683.402	13.44
683.589	13.63
683.776	13.81
683.963	13.91
684.15	14.16
684.337	14.63
684.524	14.83
684.711	15.09
684.898	15.39
685.085	15.5
685.271	15.79
685.458	16.17
685.645	16.4
685.832	16.75
686.019	17.13
686.205	17.32
686.392	17.66
686.579	17.95
686.766	18.44
686.952	18.74
687.139	19.4
687.326	19.66
687.512	20.26
687.699	20.62
687.886	21.01
688.072	21.23
688.259	21.64
688.445	22.1
688.632	22.55
688.818	23.34
689.005	23.76
689.191	24.33
689.378	25.04
689.564	25.61
689.751	25.98
689.937	26.56
690.124	27.27
690.31	27.61
690.496	28.2
690.683	28.77
690.869	29.41
691.055	30.03
691.242	30.89
691.428	31.53
691.614	32.32
691.8	33.13
691.987	33.88
692.173	34.43
692.359	35.23
692.545	35.93
692.731	36.59
692.918	37.3
693.104	38.04
693.29	38.65
693.476	39.43
693.662	40.22
693.848	40.85
694.034	41.38
694.22	42.09
694.406	42.82
694.592	43.42
694.778	44.24
694.964	44.93
695.15	45.71
695.336	46.36
695.522	47.19
695.708	47.7
695.894	48.5
696.08	49.25
696.265	49.79
696.451	50.33
696.637	51.17
696.823	51.86
697.009	52.17
697.194	52.88
697.38	53.44
697.566	53.99
697.751	54.65
697.937	55.79
698.123	56.48
698.308	57.28
698.494	57.82
698.68	58.25
698.865	58.57
699.051	59.07
699.236	59.39
699.422	59.95
699.607	60.6
699.793	61.16
699.978	61.52
700.164	62.2
700.349	62.85
700.535	63.09
700.72	63.25
700.906	64.11
701.091	64.82
701.276	65.19
701.462	66.19
701.647	67.11
701.832	67.41
702.018	67.85
702.203	68.2
702.388	68.39
702.573	68.75
702.759	69.68
702.944	69.84
703.129	70.23
703.314	70.63
703.499	70.8
703.684	70.9
703.87	71.91
704.055	72.64
704.24	72.99
704.425	73.69
704.61	73.83
704.795	73.55
704.98	73.77
705.165	73.85
705.35	74.42
705.535	74.62
705.72	74.97
705.905	75.43
706.09	76.3
706.275	76.07
706.459	76.29
706.644	76.48
706.829	76.67
707.014	76.33
707.199	76.89
707.384	77.53
707.568	77.66
707.753	77.91
707.938	78.38
708.123	78.46
708.307	78.86
708.492	78.96
708.677	79.42
708.861	79.42
709.046	79.42
709.231	79.38
709.415	79.77
709.6	79.25
709.784	79.49
709.969	79.54
710.153	79.37
710.338	79.61
710.522	80.01
710.707	80.51
710.891	80.95
711.076	81.22
711.26	80.98
711.445	81.42
711.629	81.3
711.813	81.42
711.998	81.87
712.182	82.04
712.366	82.13
712.551	82.92
712.735	82.82
712.919	82.55
713.103	83.07
713.288	82.94
713.472	82.38
713.656	83.47
713.84	83.56
714.024	83.89
714.208	84.09
714.393	84.53
714.577	83.85
714.761	83.95
714.945	83.77
715.129	83.75
715.313	83.79
715.497	83.68
715.681	84.46
715.865	84.63
716.049	84.69
716.233	84.7
716.417	85.09
716.601	84.63
716.785	84.48
716.968	84.93
717.152	84.95
717.336	85.01
717.52	84.92
717.704	85.28
717.888	85.23
718.071	85.61
718.255	86.04
718.439	86.05
718.622	86.1
718.806	86.24
718.99	85.92
719.174	85.7
719.357	85.92
719.541	86.49
719.724	86.27
719.908	87.42
720.092	87.97
720.275	88.49
720.459	88.14
720.642	88.21
720.826	86.87
721.009	86.9
721.193	86.36
721.376	86.12
721.559	86.62
721.743	87.16
721.926	86.83
722.11	86.99
722.293	86.69
722.476	86.69
722.66	86.86
722.843	86.78
723.026	86.81
723.21	87.6
723.393	87.78
723.576	87.33
723.759	87.09
723.942	87.14
724.126	86.65
724.309	86.49
724.492	86.94
724.675	87.1
724.858	87.83
725.041	88.49
725.224	88.61
725.407	88.61
725.59	89.26
725.774	88.72
725.957	88.21
726.14	88.15
726.322	88.02
726.505	87.62
726.688	88.22
726.871	88.09
727.054	87.94
727.237	88.29
727.42	88.69
727.603	88.76
727.786	89.38
727.968	90.17
728.151	90.24
728.334	90.04
728.517	89.85
728.699	90.05
728.882	89.69
729.065	89.86
729.248	90.37
729.43	90.44
729.613	91.12
729.796	91.58
729.978	90.61
730.161	90.42
730.343	90.31
730.526	90.7
730.708	89.97
730.891	91.04
731.073	90.73
731.256	90.19
731.438	89.6
731.621	90.68
731.803	90.44
731.986	91.19
732.168	91.52
732.35	91.6
732.533	91.42
732.715	91.64
732.898	92.31
733.08	92.94
733.262	93.76
733.444	93.23
733.627	93.36
733.809	93.01
733.991	93.4
734.173	92.17
734.355	91.95
734.538	92.29
734.72	91.45
734.902	91.77
735.084	91.9
735.266	92.48
735.448	92.53
735.63	92.86
735.812	92
735.994	93.11
736.176	92.98
736.358	92.6
736.54	93.71
736.722	93.67
736.904	92.5
737.086	92.71
737.268	93.83
737.45	92.95
737.632	93.16
737.814	92.41
737.995	93
738.177	91.9
738.359	91.46
738.541	91.75
738.723	92.62
738.904	92.65
739.086	93.57
739.268	94.26
739.449	94.02
739.631	94.26
739.813	94.61
739.994	94.48
740.176	94.13
740.358	94.41
740.539	95.79
740.721	95.81
740.902	95.84
741.084	95.96
741.265	96.09
741.447	95.86
741.628	95.85
741.81	96.09
741.991	96.44
742.172	96.88
742.354	96.06
742.535	95.09
742.717	95.11
742.898	95.8
743.079	96.39
743.261	97.01
743.442	96.41
743.623	97.27
743.804	96.81
743.986	97.53
744.167	96.16
744.348	96.95
744.529	96.55
744.71	95.28
744.891	94.16
745.073	94.59
745.254	93.79
745.435	92.24
745.616	92.81
745.797	91.55
745.978	91.04
746.159	92.6
746.34	92.45
746.521	93.95
746.702	93.76
746.883	94.37
747.064	93.27
747.245	94.02
747.426	92.71
747.606	93.7
747.787	94.86
747.968	94.86
748.149	95.29
748.33	95.9
748.51	95.26
748.691	93.19
748.872	93.96
749.053	92.8
749.233	91.57
749.414	91.01
749.595	90.73
749.775	89.71
749.956	89.73
750.137	90.59
750.317	91.71
750.498	94.27
750.678	94.35
750.859	95.4
751.04	95.3
751.22	94.83
751.4	93.2
751.581	91.74
751.761	92.43
751.942	92.99
752.122	91.89
752.303	90.79
752.483	92.16
752.663	91.17
752.844	89.02
753.024	91.59
753.204	92.45
753.385	91.44
753.565	91.35
753.745	92.64
753.925	91.25
754.106	91.12
754.286	91.93
754.466	92.2
754.646	92.72
754.826	91.66
755.006	90.91
755.187	91.77
755.367	91.63
755.547	90.57
755.727	92.41
755.907	93.76
756.087	93.81
756.267	92.31
756.447	92.2
756.627	90
756.807	90.54
756.987	89.38
757.167	90.86
757.346	92.05
757.526	91.86
757.706	92.08
757.886	93.98
758.066	94.6
758.246	96.11
758.425	96.57
758.605	95.55
758.785	94.36
758.965	93.56
759.144	89.95
759.324	90.85
759.504	92.02
759.683	91.86
759.863	89.55
760.043	89.08
760.222	88.59
760.402	86.8
760.581	86.96
760.761	90.45
760.94	90.69
761.12	92.54
761.299	94.19
761.479	93.97
761.658	90.95
761.838	91.83
762.017	90.27
762.197	88.35
762.376	88.74
762.555	90.92
762.735	92.29
762.914	90.37
763.093	92.16
763.273	90.88
763.452	89.48
763.631	88.71
763.81	90.27
763.99	88.67
764.169	89.77
764.348	89.19
764.527	87.51
764.706	89.42
764.885	90.89
765.064	88.86
765.243	90.19
765.423	91.48
765.602	89.64
765.781	87.57
765.96	87.69
766.139	86.24
766.318	87.33
766.497	86.81
766.676	88.3
766.854	89.72
767.033	90.22
767.212	87.79
767.391	86.51
767.57	86.44
767.749	85.59
767.928	86.33
768.106	86.14
768.285	86.1
768.464	85.02
768.643	85.9
768.821	85.43
769	89.75
769.179	89.72
769.357	88.49
769.536	88.22
769.715	88.11
769.893	87.02
770.072	88.49
770.25	89.06
770.429	89.32
770.607	88.67
770.786	86.78
770.964	87.95
771.143	87.59
771.321	87.54
771.5	89.34
771.678	88.28
771.857	85.81
772.035	86.54
772.213	84.95
772.392	83.06
772.57	85.56
772.748	88.3
772.927	87.55
773.105	88.37
773.283	88.43
773.461	88.2
773.64	88.04
773.818	88.03
773.996	88.88
774.174	88.2
774.352	83.48
774.531	78.96
774.709	81.39
774.887	77.96
775.065	77.32
775.243	79.67
775.421	81.82
775.599	82.85
775.777	83.41
775.955	82.14
776.133	81.09
776.311	80.47
776.489	76.13
776.667	77.14
776.844	78.85
777.022	76.71
777.2	77.5
777.378	78.66
777.556	79.43
777.734	81.31
777.911	86.33
778.089	85.44
778.267	85.34
778.445	84.18
778.622	81.59
778.8	81.5
778.978	84.79
779.155	84.25
779.333	85.06
779.511	84.93
779.688	86.27
779.866	80.23
780.043	77.38
780.221	78.08
780.398	78.45
780.576	76.63
780.753	79.16
780.931	81.25
781.108	79.52
781.286	80.54
781.463	76.31
781.64	73.81
781.818	74.09
781.995	75.28
782.172	73.65
782.35	75.53
782.527	80.89
782.704	80.75
782.882	80.25
783.059	79.52
783.236	82.12
783.413	81.62
783.59	81.55
783.768	77.7
783.945	80.77
784.122	80.88
784.299	80.89
784.476	80.44
784.653	81.17
784.83	77.87
785.007	72.56
785.184	71.68
785.361	72.49
785.538	79.64
785.715	82.18
785.892	86.78
786.069	86.98
786.246	87.72
786.423	82.84
786.6	81.53
786.776	82.67
786.953	80.42
787.13	83.36
787.307	86.28
787.484	87.22
787.66	83.56
787.837	85.35
788.014	77.79
788.191	71.97
788.367	67.77
788.544	71.2
788.721	69.43
788.897	73.43
789.074	75.85
789.25	75.39
789.427	75.57
789.603	74.7
789.78	74.04
789.956	71.02
790.133	72.31
790.309	71.05
790.486	76.66
790.662	75.14
790.839	78.82
791.015	77.93
791.192	76.24
791.368	75.42
791.544	72.66
791.721	69.9
791.897	71.71
792.073	67.53
792.249	58.55
792.426	65.3
792.602	69.45
792.778	71.07
792.954	72.27
793.13	75.35
793.307	67.74
793.483	61.07
793.659	61.28
793.835	65.3
794.011	66.28
794.187	73.15
794.363	74.5
794.539	76.21
794.715	71
794.891	69.41
795.067	65.71
795.243	70.04
795.419	63.94
795.595	61.83
795.771	63.88
795.947	64.85
796.122	60.19
796.298	63.2
796.474	68.96
796.65	70.74
796.826	68.68
797.001	70.57
797.177	68.13
797.353	72.97
797.529	71.86
797.704	74.26
797.88	75.32
798.056	75
798.231	66.73
798.407	69.85
798.582	66.59
798.758	72.29
798.934	80.97
799.109	82.73
799.285	82.04
799.46	90.14
799.636	79.63
799.811	70.18
799.986	70.14
800.162	67.4
800.337	65.15
800.513	64.48
800.688	67.41
800.863	78.86
801.039	73.6
801.214	67.91
801.389	77.67
801.565	73.15
801.74	53.36
801.915	61.89
802.09	60.08
802.265	65.9
802.441	62.08
802.616	68.97
802.791	69.36
802.966	72.87
803.141	66.79
803.316	73.28
803.491	79.08
803.666	79.82
803.841	79.36
804.016	72.26
804.191	69.78
804.366	63.36
804.541	57.86
804.716	57.92
804.891	61.35
805.066	67.39
805.241	67.92
805.416	67.94
805.591	62.66
805.765	62.99
805.94	64.99
806.115	60.41
806.29	54.62
806.464	60.1
806.639	57.17
806.814	45.66
806.989	42.01
807.163	57.48
807.338	53.06
807.512	48.35
807.687	41.28
807.862	52.49
808.036	53.82
808.211	65.02
808.385	81.87
808.56	99.53
808.734	106.59
808.909	92.56
809.083	79.92
809.258	78.96
809.432	74.71
809.606	57.56
809.781	63.71
809.955	66.31
810.13	60.04
810.304	50.62
810.478	53.61
810.652	61.52
810.827	68.25
811.001	59.25
811.175	59.24
811.349	58.88
811.524	44.73
811.698	29.59
811.872	41.84
812.046	53.17
812.22	65.49
812.394	66.86
812.568	71.01
812.742	77.08
812.916	69.76
813.09	54.64
813.264	60.29
813.438	61.05
813.612	53.43
813.786	50.81
813.96	63.09
814.134	59.79
814.308	78.19
814.482	70.17
814.656	68.58
814.83	63.35
815.003	65.67
815.177	47.74
815.351	48.29
815.525	52.61
815.698	54.25
815.872	46.46
816.046	38.96
816.219	46.12
816.393	60.52
816.567	59.79
816.74	64.76
816.914	87.25
817.088	93.08
817.261	77.38
817.435	66.48
817.608	62.36
817.782	41.74
817.955	40.9
818.129	36.52
818.302	56.19
818.475	71.2
818.649	68.83
818.822	53.57
818.996	75.36
819.169	74.67
819.342	53.67
819.516	64.22
819.689	72.1
819.862	58.66
820.035	39.92
820.209	39.62
820.382	35.48
820.555	37.73
820.728	23.05
820.901	28.46
821.075	37.98
821.248	49.43
821.421	30.75
821.594	42.81
821.767	68.7
821.94	71.09
822.113	41.33
822.286	48.72
822.459	55.76
822.632	31.95
822.805	15.21
822.978	28.58
823.151	33.35
823.324	14.02
823.496	1.66
823.669	10.82
823.842	15.15
824.015	2.73
824.188	14.97
824.361	27.34
824.533	23.67
824.706	26.31
824.879	28.5
825.051	34.42
825.224	28.32
825.397	10.25
825.569	-7.22
825.742	19.15
825.915	27.15
826.087	48.28
826.26	43.91
826.432	52.39
826.605	48.78
826.777	33.26
826.95	32.03
827.122	24.27
827.295	36.57
827.467	38.4
827.64	13.52
827.812	-0.4
827.984	15.7
828.157	-8.93
828.329	-66.07
828.501	-29.28
828.674	1.37
828.846	-22.08
829.018	5.16
829.19	8.32
829.363	40.59
829.535	24.75
829.707	30.34
829.879	-2.96
830.051	-8.09
830.223	-37.54
830.395	-59.29
830.568	-65.61
830.74	-45.09
830.912	3.45
831.084	-5.2
831.256	3.81
831.428	2.58
831.6	-5.19
831.772	-52.13
831.943	-76.29
832.115	-47.75
832.287	-7.9
832.459	3.26
832.631	27.02
832.803	66.44
832.975	78.92
833.146	64.92
833.318	52.96
833.49	33.65
833.662	8.04
833.833	-3.93
834.005	5.77
834.177	17.64
834.348	25.34
834.52	15.53
834.692	24.43
834.863	-15.44
835.035	-2.16
835.206	-25.88
835.378	-5.93
835.549	-10.38
835.721	34.61
835.892	25.62
836.064	24.31
836.235	24.48
836.407	44.55
836.578	-13.01
836.749	-39.8
836.921	-93.49
837.092	-115.15
837.264	-119.67
837.435	-118.4
837.606	-58.28
837.777	-15.57
837.949	16.21
838.12	20.61
838.291	28.31
838.462	19.53
838.633	-5.1
838.805	-13.72
838.976	7.47
839.147	-22.74
839.318	-57.01
839.489	-114.29
839.66	-98.83
839.831	-70.95
840.002	-73.66
840.173	-103.13
840.344	-15.94
840.515	-77.85
840.686	-258.04
840.857	-168.15
841.028	-111.19
841.199	-103.46
841.369	-80.7
841.54	-50.28
841.711	-25.15
841.882	18.18
842.053	8.38
842.223	-11.17
842.394	1.87
842.565	21.52
842.736	8.27
842.906	4.46
843.077	25.89
843.248	61.32
843.418	45.51
843.589	9.81
843.759	80.29
843.93	47.55
844.101	-4.12
844.271	-0.07
844.442	11.25
844.612	8.47
844.783	-14.19
844.953	-52.98
845.123	-51.35
845.294	-67.24
845.464	-290.45
845.635	-154
845.805	-21.97
845.975	-9.78
846.146	-43.56
846.316	-32.91
846.486	-4.4
846.656	25.32
846.827	7.78
846.997	3.62
847.167	37
847.337	8.11
847.507	-68.92
847.677	-42.47
847.848	30.24
848.018	32.36
848.188	40.17
848.358	36.2
848.528	23.83
848.698	-16.84
848.868	-94.48
849.038	-202.52
849.208	-55.22
849.378	-29.4
849.548	-29.32
849.718	-14.25
849.887	9.06
850.057	-11.68
850.227	-38.95
850.397	-47.58
850.567	-166.99
850.737	-416.52
850.906	-1366.25
851.076	-832.81
851.246	-445.03
851.415	-22.26
851.585	-13.09
851.755	-46.27
851.924	-34.99
852.094	-60.14
852.264	-152.88
852.433	-1056.73
852.603	-175.5
852.772	-32.08
852.942	-53.38
853.111	-62.99
853.281	-18.03
853.45	27.18
853.62	-96.82
853.789	-103.51
853.959	-94.08
854.128	-90.35
854.297	-161.49
854.467	-102.99
854.636	-57.43
854.805	-18.45
854.975	-35
855.144	-54.52
855.313	-63.64
855.482	-377.37
855.652	-258.1
855.821	-267.15
855.99	-49.63
856.159	-15.42
856.328	-3.18
856.497	-29.2
856.667	-0.72
856.836	11.25
857.005	-28.82
857.174	-71.67
857.343	-79.65
857.512	-40.75
857.681	-79.17
857.85	-98.76
858.019	-30.42
858.188	-8.91
858.356	-49.49
858.525	-138.44
858.694	-109.74
858.863	-235.07
859.032	-233.74
859.201	-309.3
859.369	-152.55
859.538	-97.87
859.707	-55.54
859.876	-55.23
860.044	-51.95
860.213	13.79
860.382	4.94
860.55	1.83
860.719	35.73
860.888	50.18
861.056	10.22
861.225	0.18
861.393	63.48
861.562	95.15
861.73	33.2
861.899	40.31
862.067	-1203.45
862.236	-100.47
862.404	-330.55
862.572	-216.8
862.741	-100.24
862.909	-56.72
863.078	-219.52
863.246	-127.86
863.414	-114.29
863.582	-34.17
863.751	-72.06
863.919	-33.51
864.087	-6.44
864.255	20.52
864.424	-398.41
864.592	-60.95
864.76	-108.95
864.928	-207.2
865.096	-227.71
865.264	-80.32
865.432	-1372.73
865.6	23.5
865.768	-110.11
865.936	-73.58
866.104	-61.02
866.272	-146.56
866.44	-423.23
866.608	571.2
866.776	347.68
866.944	3400
867.112	-548.31
867.28	-244.35
867.448	-115.39
867.615	-37.74
867.783	-25.48
867.951	-41.91
868.119	-19.28
868.286	-48.84
868.454	-220.05
868.622	-190.69
868.789	-260.9
868.957	-2750
869.125	-2292.11
869.292	-108.6
869.46	-185
869.627	-2.31
869.795	-45.58
869.963	-29.4
870.13	-15.87
870.298	-8.14
870.465	-108.17
870.632	-134.33
870.8	-84.87
870.967	-174.5
871.135	-259.27
871.302	-192.77
871.469	-162.17
871.637	-228.83
871.804	-108.82
871.971	-98.02
872.139	-438.6
872.306	-30.76
872.473	-81.41
872.64	-318.45
872.807	-198.05
872.975	-29.88
873.142	-351.64
873.309	2824.32
873.476	-42.72
873.643	35.38
873.81	-28.81
873.977	9.08
874.144	33.04
874.311	-123.76
874.478	-188.81
874.645	-207.27
874.812	-212.24
874.979	-134.82
875.146	-143.8
875.313	-158.31
875.48	-31.43
875.647	-13.01
875.813	-62.9
875.98	-20.4
876.147	-21.35
876.314	-95.83
876.481	1017.36
876.647	-1062.92
876.814	454.4
876.981	-48.85
877.147	-17.73
877.314	37.55
877.481	69.9
877.647	79.03
877.814	37.34
877.98	-26.61
878.147	-19.83
878.314	49.25
878.48	-38.95
878.647	32.56
878.813	96.54
878.979	81.4
879.146	-10.89
879.312	-3.73
879.479	-79.4
879.645	-217.23
879.811	-388.33
879.978	-751.91
880.144	-252.25
880.31	-146.65
880.477	-382.37
880.643	-466.2
880.809	-214.59
880.975	-107.92
881.142	-759.09
881.308	-105.08
881.474	-16.61
881.64	-9.51
881.806	-103.25
881.972	-18.86
882.138	42.24
882.304	42.94
882.47	-102.92
882.636	-598.36
882.802	-276.43
882.968	-81.21
883.134	-55.61
883.3	-86.07
883.466	-13.34
883.632	46.25
883.798	9.11
883.964	-5.88
884.129	33.75
884.295	55.74
884.461	-64.12
884.627	-95.4
884.793	-126
884.958	-78.99
885.124	-204.28
885.29	-250.41
885.455	-335.44
885.621	-55.61
885.787	-96.66
885.952	-40.29
886.118	-74.48
886.283	-64.21
886.449	-185.25
886.614	-193.04
886.78	-373.08
886.945	1609.84
887.111	-888.44
887.276	-638.07
887.442	-1331.82
887.607	-580.66
887.773	-308.92
887.938	-299.48
888.103	-430.34
888.269	-254.22
888.434	-302.16
888.599	-154.5
888.764	6.84
888.93	35.93
889.095	-11.05
889.26	-87.76
889.425	-29.82
889.59	-68.07
889.756	-104.11
889.921	-55.98
890.086	13.99
890.251	-5.08
890.416	-136.16
890.581	-1211.29
890.746	177.14
890.911	356.05
891.076	205.45
891.241	-441.79
891.406	-15.77
891.571	-30.81
891.736	-325.23
891.901	-561.06
892.065	756.04
892.23	170.23
892.395	298.43
892.56	431.21
892.725	-626.56
892.889	-2007.32
893.054	-291.8
893.219	-127.39
893.384	-57.12
893.548	-120.46
893.713	-135.42
893.878	-94.86
