Data from Ofra_2a_PS_2CX10_Reflection_1.txt Node
Date: Tue Jul 20 09:37:11 EDT 2021
User: Adam
Spectrometer: FLMT01687
Trigger mode: 0
Integration Time (sec): 9.450000E-1
Scans to average: 3
Electric dark correction enabled: true
Nonlinearity correction enabled: false
Boxcar width: 3
XAxis mode: Wavelengths
Number of Pixels in Spectrum: 3648
>>>>>Begin Spectral Data<<<<<
179.494	578.11
179.716	446.65
179.937	450.55
180.158	1875.78
180.38	-893.6
180.601	-160.78
180.823	-70
181.044	-85.06
181.265	-34.69
181.486	18.11
181.708	584.78
181.929	-14.19
182.15	-362.5
182.372	43.5
182.593	64.9
182.814	164.97
183.035	115.08
183.257	40.36
183.478	35.87
183.699	42.57
183.92	36.74
184.141	38.25
184.363	27.37
184.584	16.53
184.805	22.12
185.026	30.09
185.247	11.9
185.468	10.33
185.689	19.63
185.91	25.94
186.132	26.17
186.353	18.57
186.574	7.42
186.795	-5.02
187.016	0.33
187.237	-4.64
187.458	-21.34
187.679	-22.25
187.9	-16.92
188.121	-4.07
188.342	12.75
188.563	14.55
188.784	16.2
189.005	29.76
189.226	22.31
189.447	24.17
189.667	24.07
189.888	39.18
190.109	33.33
190.33	17.73
190.551	-0.64
190.772	0.21
190.993	12.41
191.214	10.96
191.434	9.29
191.655	20.15
191.876	36.27
192.097	42.12
192.318	40.64
192.538	29.84
192.759	35.79
192.98	26.84
193.201	40.59
193.421	31.15
193.642	25.02
193.863	33.07
194.083	41.74
194.304	25.32
194.525	42.81
194.745	5.51
194.966	13.1
195.187	23.99
195.407	21.3
195.628	20.66
195.848	20.13
196.069	13.71
196.29	19.15
196.51	29.33
196.731	44.58
196.951	50.67
197.172	50.42
197.392	49.57
197.613	43.41
197.833	49.42
198.054	41.92
198.274	18.69
198.495	26.15
198.715	18.56
198.936	9.87
199.156	7.59
199.377	7.54
199.597	5.21
199.817	12.63
200.038	9.41
200.258	13.22
200.479	23.11
200.699	23.33
200.919	20.53
201.14	0.75
201.36	16.89
201.58	28.62
201.801	23.96
202.021	27.43
202.241	33.98
202.461	51.03
202.682	77.91
202.902	58.89
203.122	53.14
203.342	78.95
203.563	77.47
203.783	72.88
204.003	52.58
204.223	44.82
204.443	53.43
204.663	56.16
204.884	42.64
205.104	47.54
205.324	62.14
205.544	72.75
205.764	74.43
205.984	70.03
206.204	61.57
206.424	56.73
206.644	44.79
206.864	34.63
207.084	38.24
207.304	30.97
207.525	17.47
207.745	33.25
207.964	20.13
208.184	17.54
208.404	16.65
208.624	-16.18
208.844	-19.15
209.064	-3.46
209.284	-4.03
209.504	-2.39
209.724	-12.98
209.944	-33.8
210.164	5.72
210.384	18.4
210.604	24.51
210.823	13.15
211.043	6.03
211.263	25.75
211.483	29.14
211.703	24.71
211.922	18.87
212.142	5.66
212.362	3.92
212.582	2.22
212.801	-15.73
213.021	-10.25
213.241	-11.47
213.461	9.61
213.68	26.41
213.9	25.61
214.12	25.64
214.339	40.78
214.559	46.33
214.779	48.55
214.998	34.8
215.218	36.4
215.438	49.37
215.657	54.06
215.877	50.63
216.096	47.97
216.316	35.27
216.535	32.28
216.755	23.78
216.974	7.43
217.194	1.53
217.413	15.84
217.633	-3.78
217.852	-1.18
218.072	-14.6
218.291	11.02
218.511	15.11
218.73	19.93
218.95	13.54
219.169	26.53
219.389	19.38
219.608	40.53
219.827	27.04
220.047	33.28
220.266	40.35
220.485	36.51
220.705	21.13
220.924	24.43
221.143	9.99
221.363	11.14
221.582	8.29
221.801	3.14
222.021	5.62
222.24	17.52
222.459	13.67
222.678	4.75
222.897	6.75
223.117	14.59
223.336	8.55
223.555	5.57
223.774	16.37
223.993	34.59
224.213	42.7
224.432	46.91
224.651	40.27
224.87	47.6
225.089	46.17
225.308	39.02
225.527	27.88
225.746	19.05
225.965	32.57
226.184	43.1
226.404	27.26
226.623	33.24
226.842	22.22
227.061	26.74
227.28	44.07
227.499	39.26
227.718	30.38
227.936	33.58
228.155	30.16
228.374	40.11
228.593	38.41
228.812	26.25
229.031	14.18
229.25	24.32
229.469	34.94
229.688	41.36
229.907	34.69
230.125	38.82
230.344	47.41
230.563	52.75
230.782	41.28
231.001	39.15
231.22	27.92
231.438	28.19
231.657	25.75
231.876	17.16
232.095	19.99
232.313	27.89
232.532	24.75
232.751	28.14
232.969	30.55
233.188	19.61
233.407	19.15
233.625	12.26
233.844	14.02
234.063	14.14
234.281	11.89
234.5	15.22
234.719	20.25
234.937	25.35
235.156	18.55
235.374	4.11
235.593	-4.3
235.811	-5.93
236.03	-19.89
236.249	-5.95
236.467	-1.25
236.686	13.52
236.904	22.14
237.123	26.54
237.341	33.91
237.559	36.07
237.778	45.22
237.996	56.13
238.215	51.62
238.433	55.21
238.652	51.45
238.87	47.87
239.088	38.59
239.307	25.48
239.525	17.94
239.743	7.11
239.962	8.59
240.18	16
240.398	20.62
240.617	32.94
240.835	30.97
241.053	36.95
241.271	46.5
241.49	29.56
241.708	24.81
241.926	19.99
242.144	29.37
242.363	36.69
242.581	30.96
242.799	22.74
243.017	28.4
243.235	31.45
243.453	24.81
243.672	12.6
243.89	14.04
244.108	21.83
244.326	18.58
244.544	27.47
244.762	28.64
244.98	33.3
245.198	30.12
245.416	27.98
245.634	18.42
245.852	22.57
246.07	20.06
246.288	17.68
246.506	12.34
246.724	28.77
246.942	38.42
247.16	37.03
247.378	32.78
247.596	34.31
247.814	27.63
248.032	28.18
248.25	22.11
248.468	20.41
248.685	24.04
248.903	31.43
249.121	29.32
249.339	33.46
249.557	41.27
249.775	24.8
249.992	14.36
250.21	9.47
250.428	13.57
250.646	7.75
250.863	2.1
251.081	-1.8
251.299	29.14
251.517	42.41
251.734	57.95
251.952	43.27
252.17	43.71
252.387	49.46
252.605	41.63
252.823	17.44
253.04	11.19
253.258	4.89
253.475	10.83
253.693	27.57
253.911	21.79
254.128	21.84
254.346	21.93
254.563	23.42
254.781	19.95
254.998	27.06
255.216	25.57
255.433	23.5
255.651	22.21
255.868	19.15
256.086	12.26
256.303	18.32
256.521	1.78
256.738	-4.84
256.956	-10.46
257.173	-7.06
257.39	7.69
257.608	11.43
257.825	6.97
258.043	17.6
258.26	13.96
258.477	27.52
258.695	35.45
258.912	36.66
259.129	37.21
259.346	37.36
259.564	37.52
259.781	46.73
259.998	39.92
260.216	37.07
260.433	25.83
260.65	27.85
260.867	13.87
261.084	15.86
261.302	-0.51
261.519	-9.68
261.736	-9.89
261.953	8.46
262.17	18.05
262.387	28.8
262.604	14.55
262.822	25.82
263.039	31.03
263.256	33.09
263.473	11.6
263.69	6.58
263.907	5.86
264.124	16.09
264.341	9.06
264.558	9.39
264.775	9.75
264.992	22.23
265.209	22.37
265.426	18.65
265.643	17.04
265.86	15.83
266.077	13.95
266.294	12.59
266.51	13.73
266.727	1.41
266.944	-40.29
267.161	-47
267.378	-44.72
267.595	-33.9
267.812	-48.36
268.028	-46.03
268.245	-33.98
268.462	3.81
268.679	1.95
268.896	1.96
269.112	2.27
269.329	16.22
269.546	11.45
269.763	16.11
269.979	16.31
270.196	27.59
270.413	26.01
270.629	31.3
270.846	37.39
271.063	49.28
271.279	45.45
271.496	45.44
271.712	36.13
271.929	40.56
272.146	31.66
272.362	8.88
272.579	-3.36
272.795	-0.41
273.012	3.43
273.228	10.17
273.445	5.3
273.661	7.07
273.878	17.83
274.094	20.17
274.311	20.95
274.527	20.88
274.744	22.73
274.96	25.34
275.177	31.19
275.393	25.5
275.609	31.97
275.826	30.8
276.042	52.29
276.259	47.37
276.475	41.59
276.691	39.24
276.908	38.76
277.124	24.5
277.34	20.07
277.557	10.61
277.773	7.26
277.989	16.72
278.205	-4.61
278.422	2.8
278.638	22.77
278.854	28.01
279.07	17.4
279.286	24.97
279.503	22.16
279.719	46.37
279.935	23.91
280.151	20.09
280.367	18.44
280.583	21.42
280.799	22.7
281.016	23.69
281.232	14.09
281.448	25.41
281.664	19.9
281.88	26.93
282.096	29.5
282.312	17.77
282.528	8.54
282.744	3.97
282.96	13.27
283.176	16.99
283.392	19.55
283.608	16.47
283.824	13.35
284.04	19.64
284.256	23.63
284.471	26.52
284.687	20.82
284.903	18.92
285.119	12.94
285.335	22.59
285.551	33.06
285.767	36.57
285.982	32.25
286.198	31.85
286.414	28.36
286.63	33.73
286.846	32.27
287.061	28.75
287.277	26.9
287.493	28.34
287.709	31.93
287.924	32.39
288.14	38.04
288.356	38.91
288.571	25.88
288.787	26.68
289.003	28.35
289.218	33.16
289.434	31.35
289.65	26.51
289.865	27.75
290.081	33.86
290.296	35.59
290.512	41.92
290.727	44.87
290.943	39.01
291.159	34.5
291.374	37.99
291.59	38.08
291.805	41.86
292.021	21.84
292.236	10.34
292.451	16.93
292.667	24.09
292.882	12.66
293.098	11.83
293.313	6.84
293.529	15.39
293.744	26.05
293.959	24.81
294.175	24.52
294.39	44.89
294.605	36.65
294.821	33.42
295.036	31.99
295.251	33.62
295.467	31.69
295.682	35.36
295.897	25.16
296.112	31.45
296.328	35.99
296.543	31.06
296.758	31.2
296.973	34.07
297.188	34.93
297.404	34.55
297.619	30.35
297.834	32.82
298.049	35.99
298.264	21.19
298.479	10.68
298.694	6.44
298.909	5.58
299.125	9.94
299.34	6.59
299.555	9.71
299.77	11.06
299.985	12.9
300.2	7.96
300.415	8.73
300.63	6.72
300.845	6.7
301.06	1.78
301.275	9.88
301.49	15.93
301.704	16.12
301.919	15.5
302.134	8.96
302.349	5.97
302.564	10.13
302.779	5.05
302.994	-0.3
303.209	-9.26
303.423	-1.51
303.638	9.4
303.853	13.55
304.068	19.29
304.283	14.64
304.497	20.87
304.712	29.93
304.927	19.95
305.142	24.58
305.356	27.95
305.571	29.77
305.786	36
306	34.76
306.215	35.17
306.43	48.56
306.644	49.6
306.859	43.36
307.074	37.16
307.288	34.16
307.503	36.43
307.717	33.62
307.932	32.87
308.147	23.69
308.361	21.14
308.576	18.01
308.79	10.62
309.005	7.33
309.219	13.3
309.434	5.01
309.648	-5.7
309.863	4.47
310.077	6.72
310.292	16.15
310.506	32.47
310.72	28.17
310.935	34.23
311.149	36.47
311.364	39.47
311.578	34.94
311.792	29.91
312.007	18.31
312.221	15.31
312.435	14.42
312.649	-9.27
312.864	-30.17
313.078	-13.39
313.292	-11.72
313.507	-10.01
313.721	-11.16
313.935	0.19
314.149	27.88
314.363	35.01
314.578	29.25
314.792	30
315.006	25.56
315.22	32.94
315.434	27.11
315.648	23.41
315.862	17.07
316.077	25.1
316.291	28.94
316.505	32.63
316.719	11.25
316.933	10.73
317.147	15.86
317.361	17.13
317.575	9.48
317.789	8.07
318.003	4.47
318.217	17.82
318.431	16.73
318.645	15.71
318.859	6.88
319.073	4.02
319.287	10.58
319.5	14.52
319.714	14.56
319.928	23.58
320.142	26.04
320.356	44.35
320.57	49.8
320.784	45.18
320.997	46.39
321.211	52.25
321.425	38.54
321.639	28.29
321.853	22.37
322.066	15.59
322.28	13.84
322.494	10.38
322.707	6.68
322.921	7.41
323.135	10.53
323.349	13.49
323.562	23.46
323.776	22.62
323.989	25.21
324.203	32.34
324.417	31.04
324.63	29.59
324.844	17.61
325.057	13.21
325.271	5.22
325.485	10.01
325.698	6.52
325.912	21.81
326.125	21.32
326.339	30.32
326.552	31.56
326.766	45.02
326.979	41
327.193	37.96
327.406	25.81
327.619	20.85
327.833	16.88
328.046	7.48
328.26	-16.86
328.473	-10.64
328.686	-4.47
328.9	-16.79
329.113	-4.63
329.326	-1.09
329.54	6.21
329.753	17.77
329.966	15.84
330.179	15.03
330.393	32.62
330.606	34.74
330.819	36.21
331.032	38.94
331.246	40.03
331.459	40.12
331.672	42.21
331.885	32.7
332.098	31.13
332.311	17.76
332.525	20.01
332.738	20.53
332.951	25.2
333.164	16.35
333.377	4.08
333.59	8.5
333.803	20.92
334.016	5.89
334.229	7.95
334.442	8.96
334.655	27.42
334.868	43.01
335.081	44.73
335.294	38.21
335.507	52.67
335.72	46.69
335.933	54.45
336.146	43.96
336.359	37.14
336.572	32.66
336.785	35.48
336.997	23.31
337.21	28.42
337.423	14.3
337.636	13.74
337.849	8.91
338.062	13.36
338.274	17.03
338.487	18.64
338.7	16.61
338.913	14.36
339.125	9.12
339.338	22.54
339.551	26.77
339.763	16.12
339.976	13.48
340.189	10.24
340.402	14.03
340.614	20.37
340.827	8.89
341.039	3.1
341.252	16.25
341.465	19.57
341.677	25.59
341.89	25.77
342.102	19.27
342.315	30.44
342.527	33.94
342.74	28.15
342.952	25.8
343.165	26.98
343.377	35.25
343.59	35.63
343.802	32.35
344.015	29.47
344.227	22.74
344.44	26.44
344.652	26.52
344.864	21.71
345.077	24.68
345.289	18.56
345.502	17.17
345.714	20.11
345.926	9.42
346.139	10.6
346.351	-4.87
346.563	-1.95
346.775	0.69
346.988	-4.95
347.2	4.14
347.412	10.65
347.624	8.9
347.837	16.12
348.049	13.65
348.261	18.12
348.473	21.13
348.685	21.15
348.897	23.01
349.11	24.57
349.322	21.84
349.534	23.08
349.746	18.32
349.958	19.11
350.17	16.42
350.382	10.85
350.594	4.1
350.806	6.8
351.018	12.98
351.23	14.55
351.442	15.76
351.654	15.03
351.866	20.01
352.078	22.14
352.29	25.46
352.502	19.86
352.714	25.2
352.926	24.76
353.138	21.74
353.35	15.98
353.561	10.49
353.773	7.99
353.985	13.78
354.197	3.57
354.409	3.69
354.621	10.46
354.832	4.54
355.044	11.22
355.256	12.27
355.468	8.72
355.679	20.63
355.891	23.14
356.103	15.04
356.314	21.08
356.526	13.28
356.738	14.03
356.949	17.9
357.161	5.8
357.373	2.73
357.584	4.44
357.796	12.19
358.008	22.65
358.219	22.17
358.431	16.5
358.642	16.82
358.854	19.53
359.065	22.24
359.277	2.47
359.488	-8.58
359.7	-4.93
359.911	-5.94
360.123	9.99
360.334	3.37
360.546	0.65
360.757	14.68
360.969	25.75
361.18	24.71
361.391	22.7
361.603	15.89
361.814	18.56
362.025	24.31
362.237	25.63
362.448	22.82
362.659	13.27
362.871	24.42
363.082	29.58
363.293	29.15
363.504	28.5
363.716	26.12
363.927	21.36
364.138	30.1
364.349	27.53
364.56	22.73
364.772	24.24
364.983	22.4
365.194	26.71
365.405	25.65
365.616	23.29
365.827	22.99
366.038	33.4
366.25	33.74
366.461	30.55
366.672	23.96
366.883	36.21
367.094	30.36
367.305	31.17
367.516	24.48
367.727	21.81
367.938	27.03
368.149	29.22
368.36	23.07
368.571	29.46
368.781	22.99
368.992	25.75
369.203	28.85
369.414	21.28
369.625	16.39
369.836	18.16
370.047	11.96
370.258	9.42
370.468	3.63
370.679	-2.43
370.89	6.69
371.101	7.25
371.312	-0.07
371.522	8.09
371.733	5.68
371.944	6.53
372.155	1.65
372.365	4.16
372.576	9.11
372.787	15.28
372.997	7.11
373.208	18.28
373.419	24.33
373.629	35.33
373.84	28.49
374.05	28.59
374.261	25.12
374.472	29.85
374.682	23.55
374.893	16.92
375.103	12.52
375.314	12.42
375.524	8.61
375.735	9.37
375.945	3.58
376.156	10.81
376.366	13.14
376.577	14.55
376.787	12.69
376.997	17.12
377.208	13.88
377.418	17.89
377.629	15.48
377.839	17.75
378.049	17.74
378.26	23.59
378.47	21.32
378.68	25.53
378.89	25.59
379.101	19.03
379.311	13.22
379.521	19.59
379.732	17.52
379.942	22.26
380.152	23.28
380.362	26.84
380.572	28.79
380.783	28.74
380.993	20.79
381.203	22.45
381.413	18.14
381.623	18.27
381.833	13.18
382.043	10.91
382.253	12.6
382.463	18.01
382.674	17.66
382.884	16.85
383.094	15.97
383.304	15.8
383.514	18.1
383.724	16.68
383.934	15.76
384.144	12.55
384.353	12.27
384.563	8.45
384.773	4.54
384.983	6.21
385.193	7.68
385.403	7.84
385.613	5.1
385.823	6.38
386.033	11.19
386.242	13.35
386.452	9.23
386.662	7.58
386.872	4.77
387.082	7.4
387.291	8.59
387.501	7.04
387.711	6.95
387.921	4.78
388.13	1.9
388.34	1.67
388.55	2.99
388.759	-1.2
388.969	-4.44
389.179	-0.44
389.388	1.6
389.598	2.98
389.807	1.92
390.017	0.83
390.227	2.16
390.436	3.66
390.646	1.96
390.855	1.21
391.065	2.66
391.274	2.88
391.484	2.33
391.693	3.21
391.903	2.77
392.112	1.84
392.322	3.91
392.531	3.64
392.74	3.05
392.95	3.75
393.159	4.77
393.369	4.35
393.578	4.92
393.787	4.81
393.997	5.63
394.206	5.68
394.415	5.21
394.625	3.45
394.834	3.93
395.043	4.57
395.252	4.84
395.462	3.38
395.671	4.32
395.88	4.88
396.089	5.54
396.298	5.41
396.508	5.11
396.717	4.17
396.926	3.63
397.135	3.15
397.344	2.66
397.553	2.81
397.762	2.56
397.971	2.1
398.181	2.01
398.39	2.78
398.599	2.99
398.808	3.42
399.017	3.45
399.226	3.84
399.435	3.79
399.644	3.81
399.853	3.67
400.062	3.63
400.27	3.39
400.479	3.25
400.688	3.14
400.897	3.34
401.106	3.47
401.315	3.4
401.524	3.47
401.733	3.62
401.941	3.51
402.15	3.4
402.359	3.35
402.568	3.32
402.777	3.24
402.985	3.11
403.194	3
403.403	2.88
403.612	2.86
403.82	2.85
404.029	2.81
404.238	2.89
404.446	2.88
404.655	2.79
404.864	2.87
405.072	2.89
405.281	2.76
405.489	2.92
405.698	2.91
405.906	2.88
406.115	2.88
406.324	2.74
406.532	2.76
406.741	2.88
406.949	2.71
407.158	2.74
407.366	2.74
407.574	2.81
407.783	2.82
407.991	2.74
408.2	2.66
408.408	2.74
408.617	2.66
408.825	2.61
409.033	2.56
409.242	2.59
409.45	2.57
409.658	2.57
409.867	2.54
410.075	2.54
410.283	2.51
410.491	2.5
410.7	2.53
410.908	2.57
411.116	2.45
411.324	2.45
411.533	2.37
411.741	2.37
411.949	2.4
412.157	2.41
412.365	2.39
412.573	2.43
412.781	2.43
412.99	2.54
413.198	2.57
413.406	2.49
413.614	2.49
413.822	2.42
414.03	2.42
414.238	2.47
414.446	2.36
414.654	2.31
414.862	2.3
415.07	2.29
415.278	2.29
415.486	2.36
415.694	2.23
415.902	2.22
416.109	2.3
416.317	2.2
416.525	2.26
416.733	2.33
416.941	2.28
417.149	2.43
417.357	2.5
417.564	2.46
417.772	2.53
417.98	2.41
418.188	2.26
418.395	2.24
418.603	1.99
418.811	1.95
419.019	1.87
419.226	1.98
419.434	1.97
419.642	2.07
419.849	2.1
420.057	2.27
420.265	2.37
420.472	2.4
420.68	2.22
420.887	2.28
421.095	2.29
421.302	2.39
421.51	2.38
421.717	2.35
421.925	2.27
422.132	2.27
422.34	2.18
422.547	2.07
422.755	1.92
422.962	1.8
423.17	1.72
423.377	1.85
423.585	1.95
423.792	2.03
423.999	2.04
424.207	1.99
424.414	2.06
424.621	2.05
424.829	1.93
425.036	1.81
425.243	1.8
425.451	1.85
425.658	1.99
425.865	1.88
426.072	1.98
426.28	2.1
426.487	2.12
426.694	2.03
426.901	1.94
427.108	1.91
427.315	1.95
427.523	1.89
427.73	1.88
427.937	1.95
428.144	2.09
428.351	2.2
428.558	2.11
428.765	2.12
428.972	2.13
429.179	2.05
429.386	2.11
429.593	2.01
429.8	2.06
430.007	2.18
430.214	2.25
430.421	2.24
430.628	2.2
430.835	2.14
431.042	2.15
431.249	2.12
431.456	2.13
431.662	2.1
431.869	2.19
432.076	2.31
432.283	2.3
432.49	2.35
432.697	2.32
432.903	2.3
433.11	2.36
433.317	2.34
433.524	2.2
433.73	2.28
433.937	2.22
434.144	2.35
434.35	2.3
434.557	2.26
434.764	2.22
434.97	2.36
435.177	2.3
435.384	2.4
435.59	2.37
435.797	2.44
436.003	2.42
436.21	2.41
436.416	2.37
436.623	2.43
436.829	2.4
437.036	2.36
437.242	2.34
437.449	2.41
437.655	2.39
437.862	2.44
438.068	2.45
438.275	2.42
438.481	2.52
438.687	2.59
438.894	2.54
439.1	2.62
439.307	2.62
439.513	2.56
439.719	2.6
439.926	2.57
440.132	2.53
440.338	2.58
440.544	2.55
440.751	2.51
440.957	2.5
441.163	2.49
441.369	2.5
441.575	2.53
441.782	2.5
441.988	2.51
442.194	2.62
442.4	2.67
442.606	2.74
442.812	2.75
443.018	2.73
443.224	2.75
443.431	2.76
443.637	2.7
443.843	2.73
444.049	2.71
444.255	2.68
444.461	2.7
444.667	2.78
444.873	2.79
445.079	2.81
445.284	2.77
445.49	2.71
445.696	2.72
445.902	2.77
446.108	2.76
446.314	2.81
446.52	2.83
446.726	2.89
446.931	2.95
447.137	3
447.343	2.95
447.549	2.89
447.755	2.87
447.96	2.85
448.166	2.85
448.372	2.87
448.578	2.85
448.783	2.89
448.989	2.96
449.195	2.96
449.4	2.93
449.606	2.93
449.812	2.98
450.017	2.99
450.223	2.95
450.428	2.92
450.634	3
450.84	3.07
451.045	3.05
451.251	3.02
451.456	3.02
451.662	3.06
451.867	3.1
452.073	3.06
452.278	3.05
452.483	3.09
452.689	3.07
452.894	3
453.1	2.96
453.305	2.97
453.51	2.94
453.716	2.95
453.921	2.98
454.127	3.01
454.332	3.07
454.537	3.16
454.742	3.13
454.948	3.16
455.153	3.17
455.358	3.13
455.563	3.15
455.769	3.2
455.974	3.13
456.179	3.12
456.384	3.09
456.589	3.16
456.795	3.11
457	3.15
457.205	3.12
457.41	3.12
457.615	3.17
457.82	3.26
458.025	3.19
458.23	3.25
458.435	3.17
458.64	3.23
458.845	3.26
459.05	3.24
459.255	3.21
459.46	3.23
459.665	3.27
459.87	3.32
460.075	3.3
460.28	3.33
460.485	3.38
460.69	3.32
460.895	3.36
461.099	3.37
461.304	3.36
461.509	3.32
461.714	3.29
461.919	3.28
462.123	3.35
462.328	3.35
462.533	3.36
462.738	3.38
462.942	3.43
463.147	3.42
463.352	3.49
463.556	3.51
463.761	3.54
463.966	3.56
464.17	3.6
464.375	3.56
464.58	3.59
464.784	3.56
464.989	3.57
465.193	3.59
465.398	3.51
465.602	3.5
465.807	3.58
466.011	3.61
466.216	3.61
466.42	3.62
466.625	3.6
466.829	3.68
467.034	3.73
467.238	3.72
467.443	3.8
467.647	3.85
467.851	3.85
468.056	3.82
468.26	3.79
468.464	3.74
468.669	3.78
468.873	3.71
469.077	3.73
469.282	3.75
469.486	3.82
469.69	3.84
469.894	3.95
470.099	3.96
470.303	3.98
470.507	3.97
470.711	3.97
470.915	4.06
471.119	4.08
471.324	4.01
471.528	4.03
471.732	4.04
471.936	4.04
472.14	4.04
472.344	4.03
472.548	4.07
472.752	4.13
472.956	4.16
473.16	4.2
473.364	4.21
473.568	4.25
473.772	4.24
473.976	4.3
474.18	4.26
474.384	4.24
474.588	4.26
474.792	4.3
474.995	4.28
475.199	4.3
475.403	4.3
475.607	4.36
475.811	4.4
476.015	4.42
476.218	4.39
476.422	4.47
476.626	4.47
476.83	4.48
477.033	4.51
477.237	4.52
477.441	4.53
477.644	4.53
477.848	4.54
478.052	4.54
478.255	4.51
478.459	4.49
478.663	4.46
478.866	4.41
479.07	4.47
479.273	4.41
479.477	4.46
479.681	4.47
479.884	4.47
480.088	4.5
480.291	4.57
480.495	4.6
480.698	4.64
480.901	4.63
481.105	4.66
481.308	4.68
481.512	4.68
481.715	4.68
481.919	4.68
482.122	4.72
482.325	4.72
482.529	4.79
482.732	4.84
482.935	4.83
483.138	4.84
483.342	4.89
483.545	4.86
483.748	4.9
483.952	4.86
484.155	4.87
484.358	4.91
484.561	4.93
484.764	4.93
484.967	4.95
485.171	4.92
485.374	4.93
485.577	4.94
485.78	4.93
485.983	4.95
486.186	4.94
486.389	4.94
486.592	5
486.795	4.98
486.998	4.98
487.201	4.98
487.404	5
487.607	4.99
487.81	5
488.013	4.98
488.216	4.98
488.419	4.95
488.622	4.94
488.825	4.91
489.028	4.91
489.231	4.88
489.433	4.88
489.636	4.87
489.839	4.89
490.042	4.92
490.245	4.9
490.447	4.89
490.65	4.89
490.853	4.89
491.056	4.88
491.258	4.93
491.461	4.89
491.664	4.86
491.866	4.89
492.069	4.91
492.272	4.91
492.474	4.92
492.677	4.89
492.879	4.92
493.082	4.97
493.285	5.01
493.487	4.99
493.69	4.99
493.892	4.99
494.095	4.98
494.297	5.03
494.5	5.04
494.702	5
494.905	5.06
495.107	5.07
495.309	5.05
495.512	5.08
495.714	5.08
495.917	5.09
496.119	5.11
496.321	5.1
496.524	5.12
496.726	5.14
496.928	5.18
497.13	5.21
497.333	5.2
497.535	5.2
497.737	5.24
497.939	5.25
498.142	5.26
498.344	5.22
498.546	5.23
498.748	5.21
498.95	5.22
499.152	5.18
499.355	5.18
499.557	5.2
499.759	5.28
499.961	5.26
500.163	5.32
500.365	5.35
500.567	5.37
500.769	5.39
500.971	5.38
501.173	5.34
501.375	5.37
501.577	5.4
501.779	5.43
501.981	5.47
502.183	5.5
502.385	5.52
502.587	5.51
502.788	5.5
502.99	5.49
503.192	5.48
503.394	5.47
503.596	5.47
503.798	5.53
503.999	5.56
504.201	5.58
504.403	5.6
504.605	5.6
504.806	5.63
505.008	5.66
505.21	5.66
505.411	5.7
505.613	5.74
505.815	5.76
506.016	5.82
506.218	5.79
506.42	5.83
506.621	5.84
506.823	5.83
507.024	5.85
507.226	5.87
507.427	5.87
507.629	5.93
507.83	5.91
508.032	5.98
508.233	6.01
508.435	6.03
508.636	6.03
508.838	6.05
509.039	6.08
509.24	6.08
509.442	6.02
509.643	6.01
509.845	6.04
510.046	6.05
510.247	6.07
510.448	6.09
510.65	6.13
510.851	6.18
511.052	6.22
511.254	6.21
511.455	6.22
511.656	6.19
511.857	6.17
512.058	6.18
512.26	6.2
512.461	6.22
512.662	6.23
512.863	6.25
513.064	6.3
513.265	6.34
513.466	6.38
513.667	6.38
513.868	6.4
514.069	6.46
514.27	6.49
514.471	6.5
514.672	6.51
514.873	6.52
515.074	6.53
515.275	6.52
515.476	6.5
515.677	6.5
515.878	6.54
516.079	6.55
516.28	6.51
516.481	6.54
516.682	6.58
516.882	6.59
517.083	6.6
517.284	6.57
517.485	6.58
517.686	6.62
517.886	6.61
518.087	6.58
518.288	6.57
518.488	6.59
518.689	6.58
518.89	6.59
519.091	6.6
519.291	6.63
519.492	6.63
519.692	6.67
519.893	6.66
520.094	6.7
520.294	6.71
520.495	6.71
520.695	6.73
520.896	6.75
521.096	6.77
521.297	6.8
521.497	6.8
521.698	6.8
521.898	6.83
522.099	6.84
522.299	6.89
522.499	6.89
522.7	6.9
522.9	6.88
523.101	6.89
523.301	6.89
523.501	6.91
523.702	6.9
523.902	6.9
524.102	6.92
524.302	6.93
524.503	6.95
524.703	6.97
524.903	6.97
525.103	6.98
525.304	6.99
525.504	6.98
525.704	7
525.904	7.02
526.104	7.05
526.304	7.04
526.504	7.04
526.705	7.07
526.905	7.08
527.105	7.11
527.305	7.08
527.505	7.07
527.705	7.09
527.905	7.11
528.105	7.11
528.305	7.12
528.505	7.14
528.705	7.18
528.905	7.17
529.105	7.19
529.304	7.2
529.504	7.21
529.704	7.22
529.904	7.24
530.104	7.2
530.304	7.24
530.503	7.25
530.703	7.29
530.903	7.3
531.103	7.32
531.303	7.36
531.502	7.39
531.702	7.37
531.902	7.4
532.101	7.37
532.301	7.41
532.501	7.42
532.7	7.41
532.9	7.44
533.1	7.47
533.299	7.47
533.499	7.51
533.698	7.52
533.898	7.55
534.097	7.57
534.297	7.58
534.496	7.61
534.696	7.62
534.895	7.64
535.095	7.67
535.294	7.67
535.494	7.71
535.693	7.77
535.892	7.77
536.092	7.81
536.291	7.83
536.491	7.84
536.69	7.86
536.889	7.85
537.088	7.83
537.288	7.91
537.487	7.93
537.686	7.95
537.886	7.94
538.085	7.98
538.284	8.01
538.483	8.06
538.682	8.04
538.882	8.08
539.081	8.08
539.28	8.13
539.479	8.16
539.678	8.23
539.877	8.23
540.076	8.25
540.275	8.27
540.474	8.28
540.673	8.32
540.872	8.35
541.071	8.34
541.27	8.36
541.469	8.42
541.668	8.46
541.867	8.52
542.066	8.54
542.265	8.57
542.464	8.6
542.663	8.66
542.862	8.64
543.06	8.66
543.259	8.66
543.458	8.68
543.657	8.72
543.856	8.73
544.054	8.79
544.253	8.85
544.452	8.86
544.651	8.91
544.849	8.95
545.048	8.97
545.247	8.99
545.445	8.97
545.644	9.01
545.843	9.07
546.041	9.11
546.24	9.18
546.438	9.23
546.637	9.36
546.836	9.43
547.034	9.5
547.233	9.56
547.431	9.61
547.63	9.67
547.828	9.72
548.027	9.7
548.225	9.77
548.423	9.8
548.622	9.86
548.82	9.93
549.019	9.95
549.217	10.05
549.415	10.15
549.614	10.17
549.812	10.24
550.01	10.32
550.209	10.37
550.407	10.47
550.605	10.5
550.803	10.54
551.002	10.65
551.2	10.71
551.398	10.72
551.596	10.78
551.794	10.84
551.993	10.89
552.191	10.97
552.389	11.01
552.587	11.07
552.785	11.17
552.983	11.26
553.181	11.31
553.379	11.41
553.577	11.52
553.775	11.6
553.973	11.69
554.171	11.74
554.369	11.8
554.567	11.87
554.765	11.87
554.963	11.91
555.161	12.01
555.359	12.09
555.557	12.18
555.755	12.3
555.952	12.41
556.15	12.54
556.348	12.63
556.546	12.73
556.744	12.82
556.941	12.92
557.139	13
557.337	13.08
557.535	13.2
557.732	13.3
557.93	13.37
558.128	13.42
558.325	13.54
558.523	13.63
558.721	13.73
558.918	13.8
559.116	13.88
559.313	13.99
559.511	14.09
559.708	14.18
559.906	14.25
560.104	14.38
560.301	14.47
560.498	14.57
560.696	14.64
560.893	14.72
561.091	14.79
561.288	14.9
561.486	14.95
561.683	15.05
561.88	15.12
562.078	15.2
562.275	15.32
562.473	15.43
562.67	15.52
562.867	15.6
563.064	15.73
563.262	15.83
563.459	15.96
563.656	16.06
563.853	16.15
564.051	16.24
564.248	16.39
564.445	16.45
564.642	16.54
564.839	16.68
565.036	16.8
565.234	16.9
565.431	16.99
565.628	17.1
565.825	17.23
566.022	17.28
566.219	17.28
566.416	17.38
566.613	17.5
566.81	17.55
567.007	17.56
567.204	17.6
567.401	17.72
567.598	17.8
567.795	17.83
567.991	17.87
568.188	17.99
568.385	18.13
568.582	18.22
568.779	18.32
568.976	18.44
569.172	18.56
569.369	18.58
569.566	18.64
569.763	18.69
569.96	18.73
570.156	18.76
570.353	18.8
570.55	18.83
570.746	18.92
570.943	18.97
571.14	19
571.336	19.06
571.533	19.12
571.729	19.17
571.926	19.17
572.123	19.18
572.319	19.25
572.516	19.33
572.712	19.34
572.909	19.39
573.105	19.45
573.302	19.51
573.498	19.58
573.695	19.52
573.891	19.51
574.087	19.58
574.284	19.57
574.48	19.61
574.677	19.64
574.873	19.67
575.069	19.75
575.266	19.76
575.462	19.79
575.658	19.85
575.854	19.86
576.051	19.84
576.247	19.86
576.443	19.9
576.639	19.95
576.835	19.9
577.032	19.89
577.228	19.88
577.424	19.93
577.62	19.9
577.816	19.87
578.012	19.88
578.208	19.93
578.404	19.95
578.6	19.97
578.796	20
578.993	20
579.189	20.04
579.384	19.98
579.58	19.98
579.776	19.89
579.972	19.93
580.168	19.87
580.364	19.94
580.56	19.94
580.756	19.97
580.952	19.97
581.148	20.01
581.343	19.99
581.539	19.96
581.735	19.91
581.931	19.91
582.127	19.9
582.322	19.93
582.518	19.94
582.714	19.89
582.909	19.92
583.105	19.89
583.301	19.9
583.496	19.87
583.692	19.8
583.888	19.76
584.083	19.8
584.279	19.85
584.474	19.83
584.67	19.8
584.866	19.79
585.061	19.85
585.257	19.87
585.452	19.82
585.648	19.73
585.843	19.78
586.039	19.75
586.234	19.76
586.429	19.71
586.625	19.68
586.82	19.67
587.015	19.72
587.211	19.74
587.406	19.79
587.601	19.8
587.797	19.81
587.992	19.85
588.187	19.92
588.383	19.92
588.578	19.89
588.773	19.87
588.968	19.95
589.163	20.01
589.359	19.99
589.554	19.98
589.749	20.03
589.944	20.09
590.139	20.14
590.334	20.14
590.529	20.22
590.724	20.27
590.919	20.35
591.114	20.42
591.309	20.44
591.504	20.49
591.699	20.51
591.894	20.49
592.089	20.52
592.284	20.47
592.479	20.46
592.674	20.51
592.869	20.53
593.064	20.63
593.259	20.68
593.454	20.72
593.648	20.78
593.843	20.9
594.038	20.93
594.233	20.99
594.428	21.04
594.622	21.06
594.817	21.14
595.012	21.23
595.206	21.26
595.401	21.32
595.596	21.49
595.79	21.52
595.985	21.65
596.18	21.73
596.374	21.8
596.569	21.9
596.763	22.06
596.958	22.06
597.153	22.16
597.347	22.23
597.542	22.34
597.736	22.45
597.931	22.57
598.125	22.65
598.319	22.73
598.514	22.84
598.708	22.93
598.903	23.03
599.097	23.1
599.291	23.13
599.486	23.15
599.68	23.17
599.874	23.23
600.069	23.3
600.263	23.34
600.457	23.38
600.651	23.46
600.846	23.45
601.04	23.51
601.234	23.61
601.428	23.62
601.622	23.59
601.817	23.64
602.011	23.65
602.205	23.74
602.399	23.8
602.593	23.76
602.787	23.8
602.981	23.85
603.175	23.87
603.369	23.87
603.563	23.87
603.757	23.84
603.951	23.83
604.145	23.85
604.339	23.86
604.533	23.83
604.727	23.85
604.921	23.81
605.115	23.79
605.309	23.84
605.502	23.83
605.696	23.76
605.89	23.78
606.084	23.68
606.278	23.64
606.471	23.62
606.665	23.51
606.859	23.4
607.053	23.34
607.246	23.27
607.44	23.27
607.634	23.16
607.827	23.07
608.021	22.97
608.214	22.94
608.408	22.87
608.602	22.8
608.795	22.72
608.989	22.74
609.182	22.8
609.376	22.73
609.569	22.68
609.763	22.73
609.956	22.65
610.15	22.66
610.343	22.6
610.537	22.49
610.73	22.47
610.923	22.41
611.117	22.23
611.31	22.17
611.504	22.02
611.697	21.94
611.89	21.85
612.083	21.74
612.277	21.66
612.47	21.57
612.663	21.5
612.856	21.42
613.05	21.28
613.243	21.22
613.436	21.17
613.629	21.06
613.822	21.03
614.015	20.95
614.209	20.94
614.402	20.89
614.595	20.78
614.788	20.71
614.981	20.67
615.174	20.61
615.367	20.54
615.56	20.48
615.753	20.47
615.946	20.43
616.139	20.37
616.332	20.31
616.525	20.28
616.718	20.26
616.911	20.22
617.103	20.14
617.296	20.09
617.489	20.05
617.682	20
617.875	19.91
618.067	19.84
618.26	19.79
618.453	19.71
618.646	19.67
618.838	19.62
619.031	19.6
619.224	19.6
619.417	19.56
619.609	19.51
619.802	19.51
619.994	19.43
620.187	19.42
620.38	19.38
620.572	19.36
620.765	19.32
620.957	19.24
621.15	19.14
621.342	19.18
621.535	19.15
621.727	19.1
621.92	19.04
622.112	19.01
622.305	18.97
622.497	19
622.69	18.93
622.882	18.88
623.074	18.87
623.267	18.83
623.459	18.8
623.651	18.79
623.844	18.76
624.036	18.81
624.228	18.82
624.42	18.79
624.613	18.8
624.805	18.82
624.997	18.78
625.189	18.79
625.381	18.69
625.574	18.63
625.766	18.58
625.958	18.55
626.15	18.54
626.342	18.57
626.534	18.48
626.726	18.47
626.918	18.46
627.11	18.48
627.302	18.45
627.494	18.41
627.686	18.42
627.878	18.43
628.07	18.34
628.262	18.27
628.454	18.23
628.646	18.15
628.838	18.1
629.029	17.93
629.221	17.87
629.413	17.87
629.605	17.8
629.797	17.77
629.989	17.74
630.18	17.69
630.372	17.73
630.564	17.71
630.755	17.66
630.947	17.68
631.139	17.58
631.33	17.57
631.522	17.53
631.714	17.53
631.905	17.48
632.097	17.49
632.289	17.43
632.48	17.44
632.672	17.38
632.863	17.4
633.055	17.34
633.246	17.34
633.438	17.3
633.629	17.37
633.821	17.39
634.012	17.42
634.203	17.43
634.395	17.43
634.586	17.42
634.777	17.43
634.969	17.36
635.16	17.33
635.351	17.27
635.543	17.21
635.734	17.14
635.925	17.19
636.117	17.21
636.308	17.21
636.499	17.19
636.69	17.27
636.881	17.27
637.073	17.3
637.264	17.24
637.455	17.25
637.646	17.22
637.837	17.21
638.028	17.18
638.219	17.15
638.41	17.14
638.601	17.14
638.792	17.09
638.983	17.05
639.174	17.03
639.365	17
639.556	17.03
639.747	17.02
639.938	17.03
640.129	17.01
640.32	17.02
640.511	17.04
640.701	16.98
640.892	16.94
641.083	16.9
641.274	16.85
641.465	16.85
641.655	16.83
641.846	16.74
642.037	16.78
642.228	16.72
642.418	16.73
642.609	16.69
642.8	16.61
642.99	16.61
643.181	16.62
643.372	16.55
643.562	16.57
643.753	16.53
643.943	16.49
644.134	16.53
644.324	16.49
644.515	16.48
644.705	16.51
644.896	16.44
645.086	16.45
645.277	16.51
645.467	16.51
645.658	16.52
645.848	16.52
646.038	16.42
646.229	16.46
646.419	16.47
646.61	16.38
646.8	16.33
646.99	16.26
647.18	16.2
647.371	16.2
647.561	16.15
647.751	16.06
647.941	16.05
648.132	16.03
648.322	16.05
648.512	16.07
648.702	16.06
648.892	16.04
649.082	16.07
649.272	16.06
649.462	16.03
649.653	16.02
649.843	15.94
650.033	15.94
650.223	15.93
650.413	15.88
650.603	15.83
650.793	15.78
650.983	15.7
651.172	15.65
651.362	15.55
651.552	15.49
651.742	15.44
651.932	15.4
652.122	15.33
652.312	15.25
652.502	15.22
652.691	15.18
652.881	15.13
653.071	15.03
653.261	14.96
653.45	14.88
653.64	14.84
653.83	14.74
654.019	14.62
654.209	14.48
654.399	14.43
654.588	14.3
654.778	14.2
654.968	14.08
655.157	13.99
655.347	13.9
655.536	13.75
655.726	13.64
655.915	13.52
656.105	13.47
656.294	13.32
656.484	13.17
656.673	13.08
656.863	13.02
657.052	12.8
657.241	12.65
657.431	12.46
657.62	12.29
657.809	12.15
657.999	12
658.188	11.8
658.377	11.71
658.567	11.58
658.756	11.43
658.945	11.3
659.134	11.14
659.324	10.97
659.513	10.78
659.702	10.63
659.891	10.47
660.08	10.33
660.269	10.21
660.458	10.07
660.648	9.91
660.837	9.84
661.026	9.74
661.215	9.63
661.404	9.51
661.593	9.42
661.782	9.3
661.971	9.16
662.16	9
662.349	8.81
662.538	8.72
662.726	8.56
662.915	8.44
663.104	8.32
663.293	8.25
663.482	8.15
663.671	8.12
663.86	7.96
664.048	7.92
664.237	7.87
664.426	7.85
664.615	7.77
664.803	7.69
664.992	7.65
665.181	7.6
665.369	7.51
665.558	7.4
665.747	7.37
665.935	7.4
666.124	7.36
666.312	7.26
666.501	7.21
666.69	7.22
666.878	7.16
667.067	7.09
667.255	7.01
667.444	7.06
667.632	7.03
667.82	7.05
668.009	7.07
668.197	7.05
668.386	6.98
668.574	6.98
668.762	6.9
668.951	6.92
669.139	6.96
669.327	6.9
669.516	6.94
669.704	7
669.892	6.94
670.08	6.97
670.269	6.95
670.457	6.9
670.645	6.97
670.833	6.95
671.021	6.96
671.21	7.04
671.398	7.08
671.586	7.15
671.774	7.15
671.962	7.15
672.15	7.18
672.338	7.23
672.526	7.24
672.714	7.26
672.902	7.29
673.09	7.4
673.278	7.37
673.466	7.5
673.654	7.57
673.842	7.63
674.03	7.73
674.218	7.78
674.405	7.86
674.593	7.95
674.781	7.98
674.969	7.97
675.157	8.01
675.344	8.02
675.532	8.09
675.72	8.11
675.908	8.25
676.095	8.38
676.283	8.45
676.471	8.59
676.658	8.71
676.846	8.83
677.033	8.91
677.221	8.99
677.409	9.01
677.596	9.14
677.784	9.16
677.971	9.22
678.159	9.29
678.346	9.36
678.534	9.41
678.721	9.51
678.909	9.56
679.096	9.7
679.283	9.77
679.471	9.86
679.658	9.96
679.846	10.12
680.033	10.22
680.22	10.29
680.408	10.37
680.595	10.49
680.782	10.55
680.969	10.6
681.157	10.64
681.344	10.82
681.531	10.95
681.718	11.11
681.905	11.27
682.093	11.46
682.28	11.72
682.467	11.81
682.654	11.9
682.841	12.11
683.028	12.28
683.215	12.4
683.402	12.48
683.589	12.66
683.776	12.86
683.963	13.05
684.15	13.24
684.337	13.36
684.524	13.57
684.711	13.77
684.898	13.96
685.085	14.21
685.271	14.47
685.458	14.68
685.645	14.96
685.832	15.25
686.019	15.59
686.205	15.78
686.392	16.1
686.579	16.28
686.766	16.68
686.952	17.04
687.139	17.42
687.326	17.85
687.512	18.33
687.699	18.68
687.886	19.12
688.072	19.6
688.259	19.95
688.445	20.26
688.632	20.7
688.818	21.11
689.005	21.69
689.191	22.12
689.378	22.45
689.564	23
689.751	23.53
689.937	23.95
690.124	24.46
690.31	24.89
690.496	25.54
690.683	26.2
690.869	26.84
691.055	27.57
691.242	28.18
691.428	28.89
691.614	29.53
691.8	30.14
691.987	30.76
692.173	31.46
692.359	32.06
692.545	32.73
692.731	33.42
692.918	34.06
693.104	34.85
693.29	35.61
693.476	36.14
693.662	36.84
693.848	37.53
694.034	37.98
694.22	38.79
694.406	39.48
694.592	40.07
694.778	40.79
694.964	41.45
695.15	42.11
695.336	43.1
695.522	43.79
695.708	44.42
695.894	45.14
696.08	45.9
696.265	46.64
696.451	47.4
696.637	47.97
696.823	48.57
697.009	49.29
697.194	49.98
697.38	50.53
697.566	51.22
697.751	51.89
697.937	52.55
698.123	53.26
698.308	53.81
698.494	54.44
698.68	55.14
698.865	55.81
699.051	56.4
699.236	57.01
699.422	57.41
699.607	57.97
699.793	58.42
699.978	58.93
700.164	59.37
700.349	59.86
700.535	60.43
700.72	61.07
700.906	61.48
701.091	61.99
701.276	62.51
701.462	63.15
701.647	63.6
701.832	63.92
702.018	64.36
702.203	64.96
702.388	65.4
702.573	65.88
702.759	66.28
702.944	66.8
703.129	67.33
703.314	67.78
703.499	68.22
703.684	68.68
703.87	69.11
704.055	69.38
704.24	69.83
704.425	70.3
704.61	70.65
704.795	71.02
704.98	71.32
705.165	71.61
705.35	71.95
705.535	72.32
705.72	72.51
705.905	72.73
706.09	72.9
706.275	73.11
706.459	73.5
706.644	73.91
706.829	74.08
707.014	74.26
707.199	74.5
707.384	74.69
707.568	75.33
707.753	75.38
707.938	75.5
708.123	75.51
708.307	75.97
708.492	76.34
708.677	76.91
708.861	76.99
709.046	77.36
709.231	77.77
709.415	78
709.6	78.06
709.784	78.4
709.969	78.67
710.153	79.01
710.338	79.12
710.522	79.15
710.707	79.23
710.891	79.44
711.076	79.29
711.26	79.27
711.445	79.19
711.629	79.47
711.813	79.45
711.998	79.83
712.182	80.27
712.366	80.65
712.551	80.71
712.735	80.84
712.919	81.08
713.103	81.36
713.288	81.47
713.472	81.23
713.656	81.14
713.84	81.49
714.024	81.74
714.208	81.76
714.393	82.01
714.577	82.36
714.761	82.6
714.945	82.87
715.129	83.07
715.313	83.12
715.497	83.54
715.681	83.67
715.865	83.81
716.049	84
716.233	84.32
716.417	84.3
716.601	84.58
716.785	84.19
716.968	84.15
717.152	84.04
717.336	83.93
717.52	83.88
717.704	84.1
717.888	84.4
718.071	84.7
718.255	84.82
718.439	84.93
718.622	85.46
718.806	85.4
718.99	85.58
719.174	85.06
719.357	84.98
719.541	85.12
719.724	85.33
719.908	85.18
720.092	85.48
720.275	85.26
720.459	85.66
720.642	85.86
720.826	86.26
721.009	86.36
721.193	86.4
721.376	86.7
721.559	86.8
721.743	86.74
721.926	86.79
722.11	86.57
722.293	86.3
722.476	86.25
722.66	86.05
722.843	86.22
723.026	86.82
723.21	86.96
723.393	87.15
723.576	87.32
723.759	87.56
723.942	87.77
724.126	87.61
724.309	87.32
724.492	87.37
724.675	87.22
724.858	87.63
725.041	87.57
725.224	87.62
725.407	87.64
725.59	87.56
725.774	87.66
725.957	88
726.14	87.69
726.322	87.78
726.505	88.2
726.688	88.89
726.871	89.31
727.054	89.6
727.237	89.57
727.42	90.38
727.603	90.73
727.786	90.5
727.968	90.41
728.151	90.48
728.334	90.29
728.517	90.43
728.699	90.36
728.882	90.48
729.065	90.7
729.248	90.48
729.43	90.39
729.613	90.63
729.796	90.52
729.978	90.58
730.161	90.95
730.343	91.32
730.526	91.44
730.708	91.93
730.891	92.19
731.073	92.31
731.256	92.46
731.438	92.29
731.621	92.33
731.803	92.58
731.986	92.42
732.168	92.43
732.35	92.57
732.533	93.04
732.715	93.12
732.898	92.91
733.08	93.26
733.262	93.18
733.444	92.99
733.627	93.32
733.809	92.78
733.991	92.96
734.173	92.59
734.355	92.8
734.538	92.87
734.72	93.34
734.902	93.23
735.084	93.61
735.266	93.4
735.448	93.82
735.63	93.65
735.812	94.19
735.994	93.99
736.176	94.35
736.358	94.52
736.54	94.46
736.722	94.58
736.904	94.58
737.086	94.12
737.268	94.44
737.45	94.36
737.632	93.79
737.814	94.08
737.995	94.17
738.177	94.27
738.359	94.65
738.541	94.07
738.723	94.44
738.904	94.16
739.086	94.48
739.268	94.93
739.449	95.15
739.631	95.46
739.813	95.52
739.994	95.35
740.176	96.3
740.358	96.36
740.539	95.92
740.721	95.65
740.902	95.08
741.084	95.21
741.265	95.18
741.447	94.54
741.628	93.98
741.81	93.84
741.991	94.25
742.172	94.33
742.354	95.03
742.535	94.92
742.717	94.84
742.898	95.11
743.079	95.43
743.261	95.62
743.442	95.79
743.623	95.11
743.804	95.33
743.986	96.17
744.167	95.96
744.348	96
744.529	94.95
744.71	94.59
744.891	95.12
745.073	94.57
745.254	94.13
745.435	94.29
745.616	93.91
745.797	94.03
745.978	95.27
746.159	94.46
746.34	95
746.521	94.9
746.702	94.16
746.883	94.58
747.064	94.93
747.245	94.74
747.426	94.98
747.606	95.34
747.787	96.05
747.968	97.14
748.149	96.99
748.33	97.79
748.51	96.9
748.691	97.05
748.872	96.24
749.053	95.28
749.233	94.57
749.414	94.42
749.595	93.23
749.775	93.41
749.956	92.78
750.137	92.93
750.317	93.31
750.498	93.44
750.678	93.48
750.859	93.77
751.04	94.15
751.22	94.41
751.4	94.61
751.581	94.42
751.761	95.25
751.942	95.71
752.122	95.66
752.303	94.82
752.483	95.34
752.663	95.38
752.844	94.16
753.024	93.82
753.204	93.19
753.385	93.03
753.565	92.92
753.745	92.41
753.925	92.05
754.106	93.65
754.286	93.34
754.466	93.78
754.646	94.02
754.826	94.13
755.006	94.43
755.187	94.8
755.367	94.53
755.547	95
755.727	94.69
755.907	94.34
756.087	95.18
756.267	94.54
756.447	94.15
756.627	93.62
756.807	93.62
756.987	94.19
757.167	94.38
757.346	93.26
757.526	94.51
757.706	95.01
757.886	95.98
758.066	95.87
758.246	95.22
758.425	94.66
758.605	94.69
758.785	94.3
758.965	93.13
759.144	92.84
759.324	92.65
759.504	92.67
759.683	92.88
759.863	93.39
760.043	92.35
760.222	92.41
760.402	92.34
760.581	91.4
760.761	90.32
760.94	89.99
761.12	89.34
761.299	89.71
761.479	90.38
761.658	89.83
761.838	90.18
762.017	91.36
762.197	92.1
762.376	92
762.555	92.08
762.735	90.46
762.914	90.89
763.093	91.39
763.273	91.03
763.452	90.2
763.631	89.22
763.81	90.18
763.99	92.11
764.169	91.64
764.348	91.66
764.527	91.6
764.706	92.12
764.885	93.94
765.064	92.43
765.243	90.76
765.423	91.38
765.602	90.25
765.781	90.34
765.96	90.32
766.139	89.4
766.318	90.71
766.497	91.98
766.676	91.8
766.854	91.87
767.033	90.75
767.212	89.87
767.391	90.25
767.57	89.63
767.749	89.32
767.928	88.66
768.106	89.04
768.285	90.64
768.464	92.04
768.643	92.39
768.821	92.31
769	92.78
769.179	92.17
769.357	91.71
769.536	91.33
769.715	90.32
769.893	90.29
770.072	90.37
770.25	89.6
770.429	90.87
770.607	91.4
770.786	91.35
770.964	91.21
771.143	90.83
771.321	89.99
771.5	89.58
771.678	88.56
771.857	87.7
772.035	86.67
772.213	87.31
772.392	87.2
772.57	87.55
772.748	87.74
772.927	87.87
773.105	88.74
773.283	88.74
773.461	87.76
773.64	87.01
773.818	86.72
773.996	86.27
774.174	87.51
774.352	87.07
774.531	86.24
774.709	86.44
774.887	86.48
775.065	86.8
775.243	88.42
775.421	86.88
775.599	86.94
775.777	88.91
775.955	88.71
776.133	89.64
776.311	89.88
776.489	89.19
776.667	90.02
776.844	90.1
777.022	87.82
777.2	88.78
777.378	89.43
777.556	88.93
777.734	88.13
777.911	88.03
778.089	86.81
778.267	87.43
778.445	86.32
778.622	84.05
778.8	83.62
778.978	83.12
779.155	81.45
779.333	81.4
779.511	82.1
779.688	81.71
779.866	82.8
780.043	82.91
780.221	83.9
780.398	85
780.576	85.72
780.753	85.74
780.931	86.79
781.108	86.4
781.286	85.67
781.463	85.51
781.64	85.22
781.818	85.26
781.995	85.75
782.172	84.49
782.35	84.24
782.527	86.1
782.704	85.46
782.882	86.85
783.059	86.42
783.236	86.04
783.413	86.53
783.59	86.02
783.768	85.17
783.945	86.56
784.122	85.63
784.299	85.34
784.476	86.82
784.653	86.26
784.83	85.57
785.007	85.87
785.184	85.18
785.361	84.25
785.538	87.15
785.715	85.42
785.892	84.85
786.069	86.02
786.246	85.27
786.423	86.2
786.6	85.62
786.776	82.03
786.953	81.09
787.13	84.88
787.307	85.08
787.484	86.07
787.66	84.76
787.837	85.45
788.014	86.74
788.191	87.27
788.367	84.21
788.544	84.65
788.721	82.09
788.897	82.61
789.074	82.27
789.25	81.78
789.427	80.7
789.603	84.42
789.78	83.71
789.956	86.09
790.133	84.84
790.309	85.29
790.486	86.38
790.662	87.77
790.839	85.93
791.015	85.26
791.192	84.33
791.368	86.35
791.544	85.5
791.721	84.64
791.897	83.87
792.073	82.1
792.249	84.06
792.426	84.69
792.602	82.65
792.778	83.33
792.954	83.02
793.13	82.89
793.307	82.28
793.483	80.44
793.659	81.94
793.835	81.27
794.011	80.79
794.187	78.92
794.363	80.06
794.539	79.75
794.715	79
794.891	74.95
795.067	77.95
795.243	78.64
795.419	82.11
795.595	81.05
795.771	82.48
795.947	83.54
796.122	87.68
796.298	86.11
796.474	85.69
796.65	85.77
796.826	89.68
797.001	91.03
797.177	89.09
797.353	90.31
797.529	92.03
797.704	93.32
797.88	89.91
798.056	89.3
798.231	86.88
798.407	91.96
798.582	87.85
798.758	87.55
798.934	85.53
799.109	84.61
799.285	83.61
799.46	84.57
799.636	82.32
799.811	84.31
799.986	83.45
800.162	85.02
800.337	86.98
800.513	85.99
800.688	86.04
800.863	87.78
801.039	85.26
801.214	84.42
801.389	84.97
801.565	87.75
801.74	84.82
801.915	84.71
802.09	80.06
802.265	80.09
802.441	79.47
802.616	79.61
802.791	78.78
802.966	80.19
803.141	75.96
803.316	80.2
803.491	80.22
803.666	81.44
803.841	80.83
804.016	80.64
804.191	81.17
804.366	84.76
804.541	83.5
804.716	80.62
804.891	84.91
805.066	84.2
805.241	80.28
805.416	78.23
805.591	77.71
805.765	76.2
805.94	80.32
806.115	73.71
806.29	73.79
806.464	72.08
806.639	73.7
806.814	72.65
806.989	71.05
807.163	70.9
807.338	73.06
807.512	65.82
807.687	68.22
807.862	64.07
808.036	61.25
808.211	64.18
808.385	64.8
808.56	63.9
808.734	68.87
808.909	69.16
809.083	74.02
809.258	80.97
809.432	79.94
809.606	78.97
809.781	80.75
809.955	84.02
810.13	89.3
810.304	88.79
810.478	89.03
810.652	93.82
810.827	91.63
811.001	87.81
811.175	82.02
811.349	75.27
811.524	74.08
811.698	72.63
811.872	70.95
812.046	70.09
812.22	67.68
812.394	72.3
812.568	78.45
812.742	78.74
812.916	77.5
813.09	73.28
813.264	73.11
813.438	81
813.612	79.8
813.786	78.94
813.96	81.85
814.134	84.5
814.308	82.92
814.482	83.65
814.656	86.13
814.83	90.18
815.003	90.11
815.177	87.72
815.351	88.11
815.525	87.18
815.698	85.82
815.872	81.02
816.046	73.93
816.219	73.72
816.393	75.38
816.567	69.4
816.74	75.49
816.914	79.89
817.088	79.77
817.261	87.86
817.435	84.32
817.608	81.1
817.782	88.38
817.955	89.48
818.129	84.13
818.302	84.8
818.475	85.57
818.649	85.85
818.822	91.78
818.996	85.64
819.169	81.44
819.342	80.61
819.516	83.45
819.689	80.51
819.862	79.81
820.035	73.54
820.209	69.86
820.382	65.97
820.555	67.73
820.728	60.56
820.901	57.82
821.075	62.32
821.248	60.31
821.421	60.46
821.594	66.44
821.767	69.73
821.94	64.97
822.113	70.62
822.286	73.04
822.459	81.75
822.632	90.26
822.805	92.78
822.978	83.73
823.151	91.34
823.324	78.95
823.496	66.36
823.669	66.28
823.842	67.96
824.015	63.47
824.188	68
824.361	68.8
824.533	78.31
824.706	96.82
824.879	97.37
825.051	99.74
825.224	95.26
825.397	92.52
825.569	94.32
825.742	94.44
825.915	92.39
826.087	85.91
826.26	86.07
826.432	88.36
826.605	81.91
826.777	77.3
826.95	68.39
827.122	61.95
827.295	66.57
827.467	53.86
827.64	46.68
827.812	56.74
827.984	63.32
828.157	69.27
828.329	71.52
828.501	71.85
828.674	77.81
828.846	79.98
829.018	71.35
829.19	64.22
829.363	61.43
829.535	64.19
829.707	58
829.879	57.15
830.051	61.4
830.223	57.25
830.395	55.91
830.568	59.59
830.74	55.83
830.912	61.85
831.084	59.82
831.256	59.16
831.428	64.95
831.6	65.82
831.772	63.44
831.943	69.45
832.115	69.3
832.287	70.66
832.459	69.98
832.631	65.36
832.803	75.77
832.975	81.22
833.146	61.42
833.318	59.48
833.49	65.9
833.662	69.05
833.833	68
834.005	60.61
834.177	58.38
834.348	63.95
834.52	66.7
834.692	69.81
834.863	67.02
835.035	76.86
835.206	73.85
835.378	66.2
835.549	62.61
835.721	59.07
835.892	54.68
836.064	57.93
836.235	58.85
836.407	55.53
836.578	60.77
836.749	68.18
836.921	61.74
837.092	69.59
837.264	69.59
837.435	53.29
837.606	60.96
837.777	55.23
837.949	50.04
838.12	57.48
838.291	48.55
838.462	43.84
838.633	46.08
838.805	41.14
838.976	46.71
839.147	51.24
839.318	45.53
839.489	39.35
839.66	45.88
839.831	47.68
840.002	51.79
840.173	49.85
840.344	48.37
840.515	56.04
840.686	70.74
840.857	71.55
841.028	80.24
841.199	77.26
841.369	68.54
841.54	77.48
841.711	72.84
841.882	67.03
842.053	62.46
842.223	50.93
842.394	73.92
842.565	93.1
842.736	87.19
842.906	90.7
843.077	85.68
843.248	85.67
843.418	85.33
843.589	77.81
843.759	74.34
843.93	65.87
844.101	69.43
844.271	61.9
844.442	54.94
844.612	48.95
844.783	34.93
844.953	23.8
845.123	34.11
845.294	38.48
845.464	39.39
845.635	40.61
845.805	54.68
845.975	51.87
846.146	57.83
846.316	75.12
846.486	68.09
846.656	85.07
846.827	96.09
846.997	99.39
847.167	109.13
847.337	108.47
847.507	94.44
847.677	103.8
847.848	112.17
848.018	105.36
848.188	102.87
848.358	110.7
848.528	106.51
848.698	88.95
848.868	70.39
849.038	63.82
849.208	52.72
849.378	39.06
849.548	46.15
849.718	54.56
849.887	66.53
850.057	66.03
850.227	63.16
850.397	76.88
850.567	96.53
850.737	77.41
850.906	77.1
851.076	70.41
851.246	76.92
851.415	75.09
851.585	63.57
851.755	62.86
851.924	76.82
852.094	65.3
852.264	61.48
852.433	68.04
852.603	71.26
852.772	78.48
852.942	67.25
853.111	59.06
853.281	65.24
853.45	69.15
853.62	56.54
853.789	49.15
853.959	40.5
854.128	23.68
854.297	32.98
854.467	21.86
854.636	26.8
854.805	31.41
854.975	41.53
855.144	43.05
855.313	68.22
855.482	60.86
855.652	65.36
855.821	62.7
855.99	56.5
856.159	40.73
856.328	44.36
856.497	38.87
856.667	40.58
856.836	36.52
857.005	35.24
857.174	44.89
857.343	47.69
857.512	41
857.681	39.93
857.85	38.2
858.019	44.07
858.188	61.84
858.356	50.8
858.525	64.25
858.694	81.56
858.863	68.75
859.032	49.08
859.201	54.9
859.369	30.35
859.538	38.79
859.707	34.56
859.876	40.98
860.044	50.41
860.213	72.38
860.382	66.55
860.55	94.78
860.719	91.78
860.888	81.65
861.056	96.35
861.225	91.95
861.393	93.2
861.562	78.3
861.73	68.41
861.899	66.37
862.067	70.16
862.236	53
862.404	61.22
862.572	65.99
862.741	81.18
862.909	79.21
863.078	69.32
863.246	74.7
863.414	75.46
863.582	61.66
863.751	44.65
863.919	45.31
864.087	46.19
864.255	55.36
864.424	60.08
864.592	77.9
864.76	79.57
864.928	74.4
865.096	63.64
865.264	73.92
865.432	70.24
865.6	46.78
865.768	26.39
865.936	16.75
866.104	28.62
866.272	28.03
866.44	-10.44
866.608	-10.27
866.776	37.08
866.944	34.63
867.112	2.39
867.28	-23.76
867.448	21.25
867.615	45.91
867.783	35.44
867.951	60.01
868.119	85.06
868.286	100.46
868.454	80.85
868.622	74.84
868.789	65.96
868.957	79.04
869.125	66.55
869.292	68.3
869.46	80.79
869.627	97.73
869.795	75.24
869.963	73.74
870.13	72.02
870.298	64.17
870.465	35
870.632	25.1
870.8	13.47
870.967	31.91
871.135	31.51
871.302	21.39
871.469	28.08
871.637	30.24
871.804	33.33
871.971	44.75
872.139	46.25
872.306	47.98
872.473	48.44
872.64	48.89
872.807	68.62
872.975	99.57
873.142	79.02
873.309	80.18
873.476	166.9
873.643	237.5
873.81	211.86
873.977	112.39
874.144	90.63
874.311	101.01
874.478	71.5
874.645	40.75
874.812	21.02
874.979	-27.22
875.146	-33.78
875.313	-70.64
875.48	8.66
875.647	-14.18
875.813	36.8
875.98	53.76
876.147	100.26
876.314	90.14
876.481	70.74
876.647	46.53
876.814	52.8
876.981	35.33
877.147	12.43
877.314	21.17
877.481	25.7
877.647	47.97
877.814	44.53
877.98	68.34
878.147	69.24
878.314	93.93
878.48	65.08
878.647	92.49
878.813	90.26
878.979	107.54
879.146	72.79
879.312	86.61
879.479	85.14
879.645	70.01
879.811	59.78
879.978	57.8
880.144	78.79
880.31	69.56
880.477	55.14
880.643	19.47
880.809	78.18
880.975	35.55
881.142	16.78
881.308	-14.96
881.474	38.26
881.64	-1.91
881.806	47.07
881.972	77.65
882.138	92.96
882.304	84.01
882.47	66.26
882.636	33
882.802	82.91
882.968	71.21
883.134	-62.73
883.3	40.76
883.466	69.68
883.632	51.61
883.798	58.07
883.964	30.44
884.129	32.13
884.295	24.43
884.461	-13.74
884.627	-20.23
884.793	21.07
884.958	29.98
885.124	30.26
885.29	6.17
885.455	20.06
885.621	19.8
885.787	16.74
885.952	12.62
886.118	5.97
886.283	31.41
886.449	37.79
886.614	51.35
886.78	62.23
886.945	50.29
887.111	36.42
887.276	23.44
887.442	21.9
887.607	15.36
887.773	19.52
887.938	9.28
888.103	38.33
888.269	42.95
888.434	49.21
888.599	45.34
888.764	60.19
888.93	62.3
889.095	71.5
889.26	83.2
889.425	92.01
889.59	65.14
889.756	72.18
889.921	52.98
890.086	61.64
890.251	35.74
890.416	2.05
890.581	13.64
890.746	26.03
890.911	0.6
891.076	12.01
891.241	-40.69
891.406	14.87
891.571	12.34
891.736	-9.41
891.901	-9.55
892.065	7.19
892.23	-14.71
892.395	-6.9
892.56	-18.35
892.725	-16.5
892.889	-43.78
893.054	-70.42
893.219	-121.14
893.384	-153.1
893.548	-415
893.713	590.59
893.878	346.74
