Data from Ofra_2a_PS_1GT37_Reflection_1.txt Node
Date: Tue Jul 20 09:33:50 EDT 2021
User: Adam
Spectrometer: FLMT01687
Trigger mode: 0
Integration Time (sec): 9.450000E-1
Scans to average: 3
Electric dark correction enabled: true
Nonlinearity correction enabled: false
Boxcar width: 3
XAxis mode: Wavelengths
Number of Pixels in Spectrum: 3648
>>>>>Begin Spectral Data<<<<<
179.494	869.23
179.716	618.31
179.937	641.76
180.158	1953.13
180.38	-919.77
180.601	-23.05
180.823	75.89
181.044	148.61
181.265	158.37
181.486	31.07
181.708	-1691.3
181.929	-90.23
182.15	-1265.91
182.372	247.65
182.593	296.58
182.814	-114.37
183.035	40.08
183.257	11.44
183.478	30.9
183.699	42.01
183.92	38.97
184.141	48.06
184.363	28.29
184.584	22.95
184.805	31.78
185.026	26.95
185.247	5.75
185.468	6.67
185.689	12.37
185.91	15.86
186.132	23.49
186.353	5.58
186.574	1.63
186.795	-6.39
187.016	0.39
187.237	-12.1
187.458	-17.03
187.679	-44.17
187.9	-2.17
188.121	8.53
188.342	32.78
188.563	36.71
188.784	38.95
189.005	49.19
189.226	48.92
189.447	30.81
189.667	20.07
189.888	27.04
190.109	18.47
190.33	24.02
190.551	13.46
190.772	9.81
190.993	18.58
191.214	21.99
191.434	9.94
191.655	17.3
191.876	19.67
192.097	23.76
192.318	37.47
192.538	36.59
192.759	37.03
192.98	32.82
193.201	52.4
193.421	51.75
193.642	49.89
193.863	32.38
194.083	28.1
194.304	18.25
194.525	31.65
194.745	12.31
194.966	14.83
195.187	20.97
195.407	28.97
195.628	27.04
195.848	30.42
196.069	23.46
196.29	12.94
196.51	-1.95
196.731	-0.5
196.951	-3.68
197.172	-6.02
197.392	17.39
197.613	16.8
197.833	13.82
198.054	13.94
198.274	5.16
198.495	9.79
198.715	5.94
198.936	-18.5
199.156	9.33
199.377	17.21
199.597	29.46
199.817	33.3
200.038	36.41
200.258	44.25
200.479	57.57
200.699	43.56
200.919	36.52
201.14	40.91
201.36	40.27
201.58	26.13
201.801	19.43
202.021	18.44
202.241	12.44
202.461	20
202.682	9.55
202.902	22.28
203.122	33.41
203.342	51.11
203.563	46.85
203.783	54.11
204.003	56.88
204.223	63.82
204.443	49.83
204.663	47.96
204.884	31.59
205.104	44.25
205.324	49.61
205.544	40.95
205.764	35.25
205.984	34.21
206.204	24.15
206.424	36.81
206.644	18.69
206.864	14.02
207.084	18.26
207.304	14.38
207.525	12.29
207.745	8.21
207.964	-4.55
208.184	-4.91
208.404	1.51
208.624	-4.87
208.844	-9.05
209.064	1.7
209.284	18.05
209.504	8.34
209.724	9.98
209.944	10.73
210.164	5.53
210.384	13.96
210.604	7.49
210.823	-5.84
211.043	-3.39
211.263	12.13
211.483	12.39
211.703	20.18
211.922	15.89
212.142	26.56
212.362	28.95
212.582	36.3
212.801	26.53
213.021	26.05
213.241	18.76
213.461	28.92
213.68	24.03
213.9	21.47
214.12	1.98
214.339	15.17
214.559	16
214.779	27.95
214.998	22.7
215.218	17.4
215.438	30.77
215.657	40.99
215.877	36.9
216.096	37.4
216.316	23.4
216.535	25.55
216.755	13.31
216.974	7.25
217.194	8.68
217.413	24.7
217.633	12.47
217.852	12.1
218.072	1.74
218.291	30.77
218.511	24.72
218.73	22.07
218.95	4.52
219.169	4.1
219.389	5.33
219.608	7.51
219.827	-8.66
220.047	-6.1
220.266	5.01
220.485	17.98
220.705	18.33
220.924	30.56
221.143	35.09
221.363	28.24
221.582	16.17
221.801	15.62
222.021	4.18
222.24	1.27
222.459	-4.85
222.678	-9.78
222.897	-8.86
223.117	1.22
223.336	4.15
223.555	-1.82
223.774	12.98
223.993	32.05
224.213	25.54
224.432	37.86
224.651	39.46
224.87	33.96
225.089	44.45
225.308	37.79
225.527	19.13
225.746	31.74
225.965	30.12
226.184	30.32
226.404	30.41
226.623	43.78
226.842	34.33
227.061	41.33
227.28	47.13
227.499	50.22
227.718	42.72
227.936	27.35
228.155	19.28
228.374	23.65
228.593	18.67
228.812	8.34
229.031	-2.97
229.25	7.55
229.469	25.88
229.688	33.4
229.907	29.63
230.125	34.53
230.344	39.23
230.563	37.64
230.782	29.75
231.001	38
231.22	32.45
231.438	38.3
231.657	29.22
231.876	19.8
232.095	15.32
232.313	24.19
232.532	22.94
232.751	28.42
232.969	25.99
233.188	30.85
233.407	43.24
233.625	47.83
233.844	42.12
234.063	42.6
234.281	32.81
234.5	39.87
234.719	37.66
234.937	33.29
235.156	32.17
235.374	33.51
235.593	18.9
235.811	15.95
236.03	-12.82
236.249	-1.56
236.467	-1.86
236.686	-1.39
236.904	-2.14
237.123	17.09
237.341	21.98
237.559	34.63
237.778	37.12
237.996	43.64
238.215	40.6
238.433	39.07
238.652	31.9
238.87	31.83
239.088	23.13
239.307	19.73
239.525	14.33
239.743	6.34
239.962	6.96
240.18	16.78
240.398	22.2
240.617	36.43
240.835	44.56
241.053	51.8
241.271	58.8
241.49	48.53
241.708	37.34
241.926	21.6
242.144	12.5
242.363	6.02
242.581	5.72
242.799	-14.01
243.017	2.49
243.235	4.35
243.453	18.72
243.672	10.94
243.89	17.8
244.108	14.68
244.326	25.09
244.544	21.27
244.762	10.1
244.98	4.34
245.198	5.37
245.416	-8.36
245.634	-2.66
245.852	-6.79
246.07	2.49
246.288	6.76
246.506	18.35
246.724	32.6
246.942	38.25
247.16	23.31
247.378	26.91
247.596	25.07
247.814	22.87
248.032	11.99
248.25	-15.71
248.468	-15.1
248.685	-6.75
248.903	-2.6
249.121	-12.3
249.339	-0.45
249.557	10.33
249.775	11.75
249.992	16.83
250.21	2.29
250.428	6.61
250.646	13.41
250.863	11.81
251.081	-7.09
251.299	12.09
251.517	13.36
251.734	28.78
251.952	18.21
252.17	-4.76
252.387	-6.08
252.605	6.89
252.823	-6.82
253.04	-6.58
253.258	-0.84
253.475	4.42
253.693	19.88
253.911	10.43
254.128	9.19
254.346	13.69
254.563	3.38
254.781	2.42
254.998	9.88
255.216	9.88
255.433	23.38
255.651	27.02
255.868	26.25
256.086	36.12
256.303	36.52
256.521	18.24
256.738	16.24
256.956	-6.83
257.173	-3.63
257.39	-5.6
257.608	-1.85
257.825	-7.03
258.043	10.94
258.26	12.03
258.477	27.63
258.695	26.92
258.912	43.61
259.129	39.91
259.346	50.08
259.564	42.85
259.781	46.87
259.998	46.91
260.216	46.52
260.433	30.13
260.65	38.04
260.867	18.38
261.084	25.61
261.302	19.8
261.519	8.36
261.736	2.28
261.953	14.31
262.17	5.96
262.387	18.19
262.604	11.87
262.822	7.71
263.039	9.37
263.256	13.47
263.473	11.73
263.69	11.48
263.907	8.99
264.124	5.23
264.341	-1.33
264.558	5.36
264.775	12.73
264.992	10.99
265.209	20.24
265.426	24.26
265.643	28.79
265.86	33.34
266.077	35.98
266.294	25.98
266.51	24.31
266.727	12.3
266.944	-40.44
267.161	-42.5
267.378	-49.86
267.595	-50.15
267.812	-54.47
268.028	-47.22
268.245	-34.4
268.462	5.04
268.679	4.12
268.896	3.81
269.112	14.14
269.329	28.32
269.546	27.4
269.763	30.69
269.979	30.21
270.196	33.48
270.413	35.85
270.629	28.47
270.846	31.2
271.063	30.82
271.279	22.9
271.496	20.17
271.712	11.54
271.929	14.66
272.146	14.01
272.362	-7.35
272.579	-6.57
272.795	-1.53
273.012	-1.95
273.228	1.71
273.445	5.51
273.661	3.29
273.878	18.02
274.094	18.78
274.311	21.42
274.527	15.27
274.744	14.05
274.96	13.83
275.177	21.08
275.393	18.97
275.609	20.27
275.826	22.66
276.042	40.9
276.259	44.35
276.475	28.67
276.691	33.83
276.908	34.56
277.124	40.5
277.34	33.06
277.557	35.56
277.773	29.56
277.989	34.61
278.205	23.11
278.422	22.78
278.638	23.45
278.854	16.15
279.07	3.33
279.286	7.6
279.503	15.62
279.719	21.89
279.935	15.97
280.151	13.88
280.367	24.39
280.583	26.47
280.799	28.9
281.016	24.31
281.232	15.48
281.448	4.41
281.664	-1.63
281.88	-2.3
282.096	9.21
282.312	7.99
282.528	5.78
282.744	19.03
282.96	30.61
283.176	33.69
283.392	52.43
283.608	50.43
283.824	42.72
284.04	39.87
284.256	37.35
284.471	31.9
284.687	30.84
284.903	20.62
285.119	5.06
285.335	9.07
285.551	15.19
285.767	16.98
285.982	25.13
286.198	20.59
286.414	25.34
286.63	28.86
286.846	29.75
287.061	26.14
287.277	24.5
287.493	25.77
287.709	27.84
287.924	22.4
288.14	28.88
288.356	28.89
288.571	18.23
288.787	10.98
289.003	15.58
289.218	8.57
289.434	12.35
289.65	17.94
289.865	22.27
290.081	23.57
290.296	28.29
290.512	29.63
290.727	37.05
290.943	28.46
291.159	17.16
291.374	10.39
291.59	7.55
291.805	4.45
292.021	-13.97
292.236	-9.79
292.451	-1.88
292.667	8.86
292.882	9.05
293.098	17.61
293.313	14.97
293.529	17.31
293.744	22.53
293.959	25.34
294.175	13.24
294.39	12.23
294.605	16.77
294.821	21.76
295.036	28.78
295.251	27.69
295.467	15.02
295.682	25.81
295.897	24.18
296.112	19.47
296.328	13.42
296.543	6.08
296.758	1.35
296.973	12.96
297.188	9.74
297.404	23.33
297.619	32.83
297.834	43.55
298.049	52.05
298.264	44.47
298.479	31.19
298.694	36.63
298.909	33.02
299.125	25.8
299.34	22.82
299.555	23.32
299.77	24.15
299.985	29.88
300.2	19.75
300.415	17.21
300.63	14.98
300.845	14.45
301.06	11.2
301.275	20.36
301.49	20.87
301.704	22.95
301.919	22.9
302.134	23.73
302.349	17.15
302.564	12.6
302.779	10.8
302.994	11.97
303.209	15.86
303.423	14.18
303.638	14.39
303.853	21.26
304.068	22.19
304.283	13.37
304.497	9.53
304.712	10.95
304.927	10.31
305.142	6.79
305.356	11
305.571	13.95
305.786	15.85
306	15.3
306.215	16.52
306.43	25.4
306.644	31.5
306.859	30.59
307.074	29.29
307.288	24.23
307.503	30.6
307.717	25.62
307.932	23.34
308.147	21.24
308.361	21.53
308.576	17.58
308.79	18.71
309.005	10.03
309.219	11.09
309.434	8.68
309.648	7.02
309.863	2.19
310.077	6.93
310.292	14.29
310.506	42.28
310.72	51.46
310.935	47.33
311.149	42
311.364	45.15
311.578	44.25
311.792	44.1
312.007	26.97
312.221	31.62
312.435	34.69
312.649	8.45
312.864	4.04
313.078	17.51
313.292	21.64
313.507	27
313.721	3.79
313.935	27.34
314.149	58.03
314.363	62.2
314.578	57.88
314.792	57.46
315.006	55.79
315.22	67.46
315.434	43.87
315.648	36.15
315.862	31.08
316.077	32.78
316.291	31.56
316.505	26.58
316.719	8.09
316.933	19.62
317.147	25.59
317.361	28.85
317.575	25.11
317.789	23.28
318.003	34.47
318.217	37.15
318.431	39.79
318.645	35.56
318.859	28.06
319.073	23.21
319.287	22.32
319.5	18.98
319.714	23.15
319.928	18.86
320.142	17.81
320.356	33.79
320.57	37.19
320.784	40.67
320.997	44.51
321.211	39.51
321.425	32.58
321.639	32.44
321.853	17.54
322.066	11.79
322.28	8.23
322.494	-1.05
322.707	-0.86
322.921	2.74
323.135	3.73
323.349	12.58
323.562	18.25
323.776	12.87
323.989	16.23
324.203	19.87
324.417	19.82
324.63	12.74
324.844	-3.8
325.057	-7.43
325.271	-10.9
325.485	-10.61
325.698	-15.48
325.912	-6.35
326.125	-6.85
326.339	7.27
326.552	9.78
326.766	16.66
326.979	16.41
327.193	19.01
327.406	3.45
327.619	-5.33
327.833	-0.92
328.046	-0.31
328.26	-8.68
328.473	-8.92
328.686	-8.07
328.9	-8.14
329.113	3.67
329.326	-1.9
329.54	-4.29
329.753	1.99
329.966	-1.64
330.179	3.36
330.393	8.82
330.606	13.65
330.819	19.28
331.032	22.07
331.246	24.85
331.459	29.49
331.672	25.12
331.885	25.1
332.098	25.27
332.311	11.17
332.525	16.95
332.738	13.77
332.951	15.8
333.164	8.17
333.377	0.64
333.59	2.84
333.803	16.08
334.016	3.62
334.229	4.87
334.442	7.16
334.655	14.99
334.868	36.25
335.081	36.93
335.294	19.61
335.507	28.68
335.72	25.81
335.933	24.83
336.146	31
336.359	16.26
336.572	7.89
336.785	21.73
336.997	8.32
337.21	7.9
337.423	10.55
337.636	9.63
337.849	11.07
338.062	19.53
338.274	15.54
338.487	22.91
338.7	29.96
338.913	22.21
339.125	21.91
339.338	29.01
339.551	20.75
339.763	18.49
339.976	19.65
340.189	14.93
340.402	17.56
340.614	18.97
340.827	6.84
341.039	14.04
341.252	26.58
341.465	22.5
341.677	16.45
341.89	20.53
342.102	24.05
342.315	31.12
342.527	30.48
342.74	13.73
342.952	22.04
343.165	34.42
343.377	34.62
343.59	25.97
343.802	31.44
344.015	28.76
344.227	31.8
344.44	27.18
344.652	24.93
344.864	32.99
345.077	32.23
345.289	30.93
345.502	35.65
345.714	27.38
345.926	27.64
346.139	21.56
346.351	3.14
346.563	15.31
346.775	1.87
346.988	0.43
347.2	11.94
347.412	10.8
347.624	12.05
347.837	18.12
348.049	15.5
348.261	18.2
348.473	11.3
348.685	6.34
348.897	3.43
349.11	-2.04
349.322	-10.06
349.534	-18.63
349.746	-15.72
349.958	-6.99
350.17	-8.32
350.382	-10.75
350.594	-1.31
350.806	7.23
351.018	10.3
351.23	17.53
351.442	12.61
351.654	16.25
351.866	23.92
352.078	17.79
352.29	10.17
352.502	8.2
352.714	3.49
352.926	4.51
353.138	2.16
353.35	-9.81
353.561	-9.49
353.773	-1.69
353.985	7.54
354.197	3.48
354.409	2.47
354.621	4.85
354.832	10.74
355.044	22.94
355.256	20.57
355.468	12.82
355.679	19.87
355.891	25.75
356.103	25.12
356.314	24.45
356.526	15.51
356.738	8.63
356.949	8.53
357.161	4.78
357.373	4.28
357.584	10.71
357.796	9.16
358.008	11.55
358.219	23.61
358.431	26.12
358.642	22.03
358.854	19.96
359.065	18.6
359.277	17.84
359.488	21.87
359.7	16.68
359.911	16.98
360.123	24.06
360.334	20.33
360.546	15.18
360.757	21.4
360.969	27.08
361.18	19.83
361.391	17.84
361.603	14.14
361.814	14.27
362.025	18.39
362.237	18.08
362.448	12.81
362.659	9.25
362.871	10.41
363.082	12.01
363.293	14.86
363.504	15.72
363.716	17.91
363.927	14.86
364.138	25.57
364.349	33.09
364.56	34.19
364.772	35
364.983	25.56
365.194	18.18
365.405	13.69
365.616	0.1
365.827	-8.8
366.038	1.81
366.25	4.03
366.461	18.79
366.672	18.19
366.883	31.09
367.094	36.88
367.305	36.09
367.516	32.34
367.727	27.19
367.938	23.75
368.149	24.27
368.36	19.58
368.571	24.85
368.781	16.52
368.992	12.3
369.203	17.44
369.414	10.11
369.625	6.98
369.836	10.15
370.047	10.63
370.258	14.46
370.468	12.63
370.679	5.73
370.89	16.9
371.101	16.97
371.312	4.58
371.522	-3.66
371.733	-4.45
371.944	1.29
372.155	-4.54
372.365	-13.85
372.576	-8.86
372.787	0.2
372.997	6.09
373.208	8.53
373.419	4.47
373.629	16.25
373.84	18.12
374.05	23.04
374.261	18.98
374.472	16.48
374.682	12.44
374.893	10.59
375.103	13.32
375.314	11.56
375.524	8.3
375.735	11.96
375.945	14.43
376.156	17.39
376.366	19.02
376.577	12.45
376.787	20.35
376.997	20.65
377.208	20.7
377.418	14.67
377.629	17.41
377.839	22.82
378.049	29.76
378.26	23.25
378.47	23.9
378.68	23.82
378.89	24.89
379.101	16.05
379.311	5.27
379.521	1.35
379.732	-4.97
379.942	-5.45
380.152	-2.85
380.362	-0.14
380.572	9.47
380.783	14.85
380.993	18.08
381.203	24.7
381.413	26.07
381.623	25.3
381.833	22.87
382.043	16.94
382.253	17.45
382.463	15.5
382.674	10.06
382.884	3.25
383.094	-0.08
383.304	1.34
383.514	3.83
383.724	1.57
383.934	-1.05
384.144	6.17
384.353	8.52
384.563	7.09
384.773	5.39
384.983	7.41
385.193	9.83
385.403	10.82
385.613	5.33
385.823	8.46
386.033	9.45
386.242	8.31
386.452	4.31
386.662	6.47
386.872	2.33
387.082	6.12
387.291	2.98
387.501	4.55
387.711	7
387.921	7.39
388.13	5.5
388.34	8.15
388.55	7.3
388.759	6.78
388.969	4.09
389.179	6.57
389.388	6.34
389.598	4.32
389.807	4.22
390.017	2.5
390.227	2.54
390.436	3.62
390.646	2.51
390.855	3.92
391.065	5.11
391.274	5.17
391.484	5.81
391.693	7.78
391.903	8.14
392.112	8
392.322	9.72
392.531	10.84
392.74	9.29
392.95	9.46
393.159	9.15
393.369	9.4
393.578	7.68
393.787	5.91
393.997	5.69
394.206	6.58
394.415	6.73
394.625	6.04
394.834	4.97
395.043	5.77
395.252	6.94
395.462	6.05
395.671	6.16
395.88	6.26
396.089	5.74
396.298	5.8
396.508	5.68
396.717	4.88
396.926	5.09
397.135	4.25
397.344	4.09
397.553	4.47
397.762	4.46
397.971	4.85
398.181	4.63
398.39	4.76
398.599	5.39
398.808	5.41
399.017	5.43
399.226	5.9
399.435	5.93
399.644	6.11
399.853	6.1
400.062	5.85
400.27	5.71
400.479	5.66
400.688	5.42
400.897	5.35
401.106	5.37
401.315	5.15
401.524	5.37
401.733	5.49
401.941	5.62
402.15	5.37
402.359	5.26
402.568	5.2
402.777	5.32
402.985	5.14
403.194	5.12
403.403	4.83
403.612	5.02
403.82	5.03
404.029	4.94
404.238	4.86
404.446	4.89
404.655	4.71
404.864	4.67
405.072	4.65
405.281	4.58
405.489	4.65
405.698	4.65
405.906	4.63
406.115	4.71
406.324	4.7
406.532	4.77
406.741	4.86
406.949	4.77
407.158	4.82
407.366	4.84
407.574	4.88
407.783	4.9
407.991	4.74
408.2	4.58
408.408	4.61
408.617	4.56
408.825	4.5
409.033	4.39
409.242	4.39
409.45	4.42
409.658	4.47
409.867	4.46
410.075	4.38
410.283	4.31
410.491	4.33
410.7	4.35
410.908	4.4
411.116	4.37
411.324	4.37
411.533	4.38
411.741	4.44
411.949	4.46
412.157	4.44
412.365	4.42
412.573	4.42
412.781	4.42
412.99	4.51
413.198	4.56
413.406	4.51
413.614	4.52
413.822	4.48
414.03	4.47
414.238	4.44
414.446	4.32
414.654	4.3
414.862	4.27
415.07	4.3
415.278	4.21
415.486	4.28
415.694	4.2
415.902	4.18
416.109	4.19
416.317	4.21
416.525	4.16
416.733	4.21
416.941	4.04
417.149	4.15
417.357	4.27
417.564	4.15
417.772	4.14
417.98	4.14
418.188	4
418.395	4.06
418.603	3.96
418.811	3.8
419.019	3.8
419.226	3.88
419.434	3.77
419.642	3.88
419.849	3.93
420.057	3.93
420.265	4.04
420.472	4.05
420.68	3.97
420.887	4.05
421.095	4.09
421.302	4.11
421.51	4.17
421.717	4.16
421.925	4.12
422.132	4.01
422.34	3.98
422.547	3.85
422.755	3.83
422.962	3.79
423.17	3.72
423.377	3.82
423.585	3.91
423.792	3.9
423.999	3.97
424.207	3.85
424.414	3.91
424.621	3.93
424.829	3.9
425.036	3.8
425.243	3.92
425.451	3.95
425.658	4.06
425.865	3.92
426.072	3.9
426.28	3.85
426.487	3.96
426.694	3.89
426.901	3.75
427.108	3.74
427.315	3.74
427.523	3.76
427.73	3.81
427.937	3.79
428.144	3.86
428.351	4.07
428.558	4.07
428.765	4.07
428.972	4.07
429.179	4
429.386	4.03
429.593	3.94
429.8	3.9
430.007	3.96
430.214	4.02
430.421	4.02
430.628	3.99
430.835	3.95
431.042	4
431.249	3.99
431.456	3.95
431.662	3.96
431.869	4
432.076	4.05
432.283	4.04
432.49	3.94
432.697	3.95
432.903	3.95
433.11	3.99
433.317	4.02
433.524	3.99
433.73	4.1
433.937	4.15
434.144	4.22
434.35	4.23
434.557	4.19
434.764	4.17
434.97	4.28
435.177	4.23
435.384	4.36
435.59	4.29
435.797	4.3
436.003	4.35
436.21	4.31
436.416	4.23
436.623	4.31
436.829	4.23
437.036	4.3
437.242	4.3
437.449	4.32
437.655	4.41
437.862	4.44
438.068	4.44
438.275	4.42
438.481	4.45
438.687	4.5
438.894	4.46
439.1	4.45
439.307	4.47
439.513	4.41
439.719	4.51
439.926	4.52
440.132	4.51
440.338	4.52
440.544	4.5
440.751	4.53
440.957	4.51
441.163	4.54
441.369	4.46
441.575	4.45
441.782	4.48
441.988	4.5
442.194	4.56
442.4	4.66
442.606	4.67
442.812	4.71
443.018	4.75
443.224	4.79
443.431	4.81
443.637	4.78
443.843	4.78
444.049	4.7
444.255	4.73
444.461	4.73
444.667	4.73
444.873	4.75
445.079	4.74
445.284	4.74
445.49	4.76
445.696	4.77
445.902	4.75
446.108	4.7
446.314	4.74
446.52	4.77
446.726	4.75
446.931	4.76
447.137	4.78
447.343	4.78
447.549	4.78
447.755	4.72
447.96	4.71
448.166	4.75
448.372	4.75
448.578	4.77
448.783	4.78
448.989	4.85
449.195	4.9
449.4	4.88
449.606	4.82
449.812	4.85
450.017	4.81
450.223	4.83
450.428	4.8
450.634	4.8
450.84	4.79
451.045	4.82
451.251	4.86
451.456	4.85
451.662	4.83
451.867	4.89
452.073	4.86
452.278	4.88
452.483	4.91
452.689	4.9
452.894	4.92
453.1	4.93
453.305	4.85
453.51	4.93
453.716	4.94
453.921	4.96
454.127	4.92
454.332	4.88
454.537	4.93
454.742	4.97
454.948	4.92
455.153	4.94
455.358	4.93
455.563	4.94
455.769	4.95
455.974	4.93
456.179	4.88
456.384	4.89
456.589	4.93
456.795	4.9
457	4.95
457.205	4.96
457.41	4.99
457.615	5.09
457.82	5.17
458.025	5.12
458.23	5.16
458.435	5.13
458.64	5.2
458.845	5.16
459.05	5.09
459.255	4.97
459.46	4.99
459.665	5.03
459.87	5.05
460.075	5.03
460.28	5.05
460.485	5.13
460.69	5.16
460.895	5.22
461.099	5.2
461.304	5.2
461.509	5.15
461.714	5.16
461.919	5.09
462.123	5.12
462.328	5.08
462.533	5.1
462.738	5.1
462.942	5.21
463.147	5.18
463.352	5.28
463.556	5.35
463.761	5.4
463.966	5.4
464.17	5.45
464.375	5.36
464.58	5.35
464.784	5.35
464.989	5.31
465.193	5.29
465.398	5.32
465.602	5.31
465.807	5.37
466.011	5.41
466.216	5.39
466.42	5.5
466.625	5.48
466.829	5.51
467.034	5.56
467.238	5.59
467.443	5.63
467.647	5.63
467.851	5.56
468.056	5.58
468.26	5.57
468.464	5.57
468.669	5.6
468.873	5.61
469.077	5.65
469.282	5.71
469.486	5.75
469.69	5.76
469.894	5.81
470.099	5.77
470.303	5.77
470.507	5.82
470.711	5.76
470.915	5.76
471.119	5.79
471.324	5.75
471.528	5.79
471.732	5.78
471.936	5.75
472.14	5.8
472.344	5.8
472.548	5.79
472.752	5.85
472.956	5.86
473.16	5.88
473.364	5.91
473.568	5.94
473.772	6
473.976	6.02
474.18	6.02
474.384	6.06
474.588	6.11
474.792	6.11
474.995	6.12
475.199	6.1
475.403	6.15
475.607	6.16
475.811	6.12
476.015	6.16
476.218	6.19
476.422	6.28
476.626	6.33
476.83	6.34
477.033	6.35
477.237	6.4
477.441	6.4
477.644	6.39
477.848	6.34
478.052	6.35
478.255	6.35
478.459	6.36
478.663	6.34
478.866	6.31
479.07	6.38
479.273	6.41
479.477	6.44
479.681	6.44
479.884	6.42
480.088	6.49
480.291	6.53
480.495	6.56
480.698	6.56
480.901	6.57
481.105	6.61
481.308	6.63
481.512	6.62
481.715	6.63
481.919	6.63
482.122	6.63
482.325	6.63
482.529	6.66
482.732	6.71
482.935	6.72
483.138	6.77
483.342	6.79
483.545	6.78
483.748	6.79
483.952	6.78
484.155	6.81
484.358	6.79
484.561	6.77
484.764	6.73
484.967	6.76
485.171	6.72
485.374	6.72
485.577	6.72
485.78	6.76
485.983	6.77
486.186	6.77
486.389	6.78
486.592	6.82
486.795	6.83
486.998	6.8
487.201	6.82
487.404	6.87
487.607	6.9
487.81	6.9
488.013	6.9
488.216	6.89
488.419	6.88
488.622	6.82
488.825	6.79
489.028	6.76
489.231	6.77
489.433	6.76
489.636	6.73
489.839	6.75
490.042	6.76
490.245	6.77
490.447	6.74
490.65	6.76
490.853	6.8
491.056	6.84
491.258	6.86
491.461	6.89
491.664	6.85
491.866	6.9
492.069	6.91
492.272	6.86
492.474	6.9
492.677	6.86
492.879	6.9
493.082	6.98
493.285	6.98
493.487	6.95
493.69	6.96
493.892	6.95
494.095	6.96
494.297	6.95
494.5	6.96
494.702	6.94
494.905	6.96
495.107	6.97
495.309	6.91
495.512	6.95
495.714	6.97
495.917	6.93
496.119	6.97
496.321	7.01
496.524	7.01
496.726	7.06
496.928	7.05
497.13	7.08
497.333	7.11
497.535	7.1
497.737	7.09
497.939	7.1
498.142	7.12
498.344	7.12
498.546	7.12
498.748	7.14
498.95	7.13
499.152	7.11
499.355	7.12
499.557	7.16
499.759	7.2
499.961	7.19
500.163	7.2
500.365	7.22
500.567	7.24
500.769	7.29
500.971	7.28
501.173	7.28
501.375	7.28
501.577	7.31
501.779	7.34
501.981	7.38
502.183	7.32
502.385	7.33
502.587	7.32
502.788	7.28
502.99	7.25
503.192	7.27
503.394	7.29
503.596	7.35
503.798	7.4
503.999	7.43
504.201	7.5
504.403	7.57
504.605	7.58
504.806	7.6
505.008	7.6
505.21	7.59
505.411	7.61
505.613	7.63
505.815	7.62
506.016	7.66
506.218	7.63
506.42	7.65
506.621	7.71
506.823	7.72
507.024	7.72
507.226	7.71
507.427	7.67
507.629	7.73
507.83	7.73
508.032	7.74
508.233	7.73
508.435	7.74
508.636	7.76
508.838	7.81
509.039	7.81
509.24	7.83
509.442	7.79
509.643	7.79
509.845	7.81
510.046	7.79
510.247	7.8
510.448	7.81
510.65	7.85
510.851	7.89
511.052	7.91
511.254	7.93
511.455	7.95
511.656	7.95
511.857	7.98
512.058	7.99
512.26	7.99
512.461	8.01
512.662	8.04
512.863	8.06
513.064	8.08
513.265	8.09
513.466	8.13
513.667	8.13
513.868	8.11
514.069	8.1
514.27	8.13
514.471	8.15
514.672	8.14
514.873	8.13
515.074	8.18
515.275	8.19
515.476	8.19
515.677	8.19
515.878	8.21
516.079	8.28
516.28	8.24
516.481	8.22
516.682	8.26
516.882	8.26
517.083	8.25
517.284	8.26
517.485	8.22
517.686	8.24
517.886	8.29
518.087	8.29
518.288	8.33
518.488	8.34
518.689	8.29
518.89	8.33
519.091	8.34
519.291	8.34
519.492	8.32
519.692	8.31
519.893	8.34
520.094	8.39
520.294	8.38
520.495	8.39
520.695	8.43
520.896	8.42
521.096	8.45
521.297	8.45
521.497	8.45
521.698	8.47
521.898	8.49
522.099	8.47
522.299	8.47
522.499	8.5
522.7	8.49
522.9	8.5
523.101	8.53
523.301	8.54
523.501	8.58
523.702	8.61
523.902	8.63
524.102	8.63
524.302	8.64
524.503	8.66
524.703	8.68
524.903	8.68
525.103	8.71
525.304	8.72
525.504	8.76
525.704	8.74
525.904	8.74
526.104	8.75
526.304	8.74
526.504	8.7
526.705	8.68
526.905	8.69
527.105	8.7
527.305	8.67
527.505	8.68
527.705	8.67
527.905	8.68
528.105	8.74
528.305	8.73
528.505	8.77
528.705	8.79
528.905	8.77
529.105	8.8
529.304	8.85
529.504	8.84
529.704	8.87
529.904	8.9
530.104	8.89
530.304	8.93
530.503	8.93
530.703	8.96
530.903	8.98
531.103	8.97
531.303	9
531.502	9.03
531.702	9.04
531.902	9.05
532.101	9.02
532.301	9
532.501	9.03
532.7	9.01
532.9	9.04
533.1	9.02
533.299	9.07
533.499	9.12
533.698	9.15
533.898	9.15
534.097	9.17
534.297	9.18
534.496	9.21
534.696	9.18
534.895	9.16
535.095	9.18
535.294	9.17
535.494	9.16
535.693	9.18
535.892	9.18
536.092	9.21
536.291	9.25
536.491	9.24
536.69	9.28
536.889	9.3
537.088	9.29
537.288	9.33
537.487	9.34
537.686	9.39
537.886	9.43
538.085	9.44
538.284	9.45
538.483	9.48
538.682	9.49
538.882	9.5
539.081	9.49
539.28	9.49
539.479	9.53
539.678	9.59
539.877	9.59
540.076	9.6
540.275	9.65
540.474	9.64
540.673	9.73
540.872	9.71
541.071	9.72
541.27	9.73
541.469	9.79
541.668	9.82
541.867	9.87
542.066	9.88
542.265	9.95
542.464	10
542.663	10.08
542.862	10.09
543.06	10.13
543.259	10.14
543.458	10.16
543.657	10.16
543.856	10.16
544.054	10.19
544.253	10.22
544.452	10.19
544.651	10.24
544.849	10.24
545.048	10.27
545.247	10.31
545.445	10.3
545.644	10.33
545.843	10.42
546.041	10.46
546.24	10.51
546.438	10.57
546.637	10.64
546.836	10.67
547.034	10.7
547.233	10.72
547.431	10.74
547.63	10.8
547.828	10.82
548.027	10.84
548.225	10.89
548.423	10.94
548.622	11.02
548.82	11.11
549.019	11.11
549.217	11.2
549.415	11.27
549.614	11.3
549.812	11.38
550.01	11.39
550.209	11.41
550.407	11.51
550.605	11.55
550.803	11.57
551.002	11.64
551.2	11.67
551.398	11.73
551.596	11.8
551.794	11.84
551.993	11.88
552.191	12
552.389	12.06
552.587	12.1
552.785	12.18
552.983	12.22
553.181	12.29
553.379	12.38
553.577	12.41
553.775	12.5
553.973	12.58
554.171	12.66
554.369	12.73
554.567	12.8
554.765	12.79
554.963	12.84
555.161	12.9
555.359	12.95
555.557	13
555.755	13.09
555.952	13.17
556.15	13.28
556.348	13.39
556.546	13.48
556.744	13.55
556.941	13.68
557.139	13.75
557.337	13.82
557.535	13.95
557.732	14.06
557.93	14.13
558.128	14.2
558.325	14.23
558.523	14.3
558.721	14.4
558.918	14.5
559.116	14.53
559.313	14.64
559.511	14.77
559.708	14.86
559.906	14.95
560.104	15.02
560.301	15.08
560.498	15.18
560.696	15.27
560.893	15.37
561.091	15.47
561.288	15.58
561.486	15.68
561.683	15.77
561.88	15.82
562.078	15.9
562.275	15.97
562.473	16.1
562.67	16.14
562.867	16.24
563.064	16.36
563.262	16.5
563.459	16.58
563.656	16.74
563.853	16.8
564.051	16.88
564.248	17.02
564.445	17.1
564.642	17.22
564.839	17.35
565.036	17.41
565.234	17.52
565.431	17.61
565.628	17.69
565.825	17.77
566.022	17.85
566.219	17.92
566.416	18
566.613	18.09
566.81	18.25
567.007	18.29
567.204	18.36
567.401	18.45
567.598	18.49
567.795	18.56
567.991	18.67
568.188	18.72
568.385	18.84
568.582	18.9
568.779	18.94
568.976	19.08
569.172	19.17
569.369	19.19
569.566	19.26
569.763	19.33
569.96	19.42
570.156	19.46
570.353	19.49
570.55	19.56
570.746	19.66
570.943	19.75
571.14	19.77
571.336	19.79
571.533	19.89
571.729	19.93
571.926	19.97
572.123	19.99
572.319	19.98
572.516	20.06
572.712	20.14
572.909	20.2
573.105	20.3
573.302	20.32
573.498	20.34
573.695	20.43
573.891	20.47
574.087	20.46
574.284	20.47
574.48	20.46
574.677	20.5
574.873	20.54
575.069	20.55
575.266	20.6
575.462	20.67
575.658	20.7
575.854	20.77
576.051	20.79
576.247	20.82
576.443	20.87
576.639	20.84
576.835	20.83
577.032	20.86
577.228	20.84
577.424	20.85
577.62	20.88
577.816	20.84
578.012	20.89
578.208	20.91
578.404	20.92
578.6	20.95
578.796	20.98
578.993	21
579.189	20.98
579.384	20.96
579.58	20.97
579.776	20.96
579.972	20.91
580.168	20.92
580.364	20.94
580.56	20.98
580.756	20.98
580.952	20.99
581.148	21.04
581.343	21.04
581.539	21.06
581.735	21.01
581.931	21.02
582.127	21.03
582.322	21
582.518	20.96
582.714	20.95
582.909	20.86
583.105	20.82
583.301	20.75
583.496	20.73
583.692	20.74
583.888	20.74
584.083	20.77
584.279	20.8
584.474	20.83
584.67	20.89
584.866	20.91
585.061	20.92
585.257	20.93
585.452	20.94
585.648	20.92
585.843	20.92
586.039	20.87
586.234	20.86
586.429	20.84
586.625	20.82
586.82	20.79
587.015	20.79
587.211	20.8
587.406	20.89
587.601	20.89
587.797	20.89
587.992	20.87
588.187	20.9
588.383	20.94
588.578	20.93
588.773	20.91
588.968	21
589.163	21.04
589.359	21.12
589.554	21.21
589.749	21.25
589.944	21.35
590.139	21.37
590.334	21.3
590.529	21.37
590.724	21.37
590.919	21.41
591.114	21.4
591.309	21.41
591.504	21.43
591.699	21.51
591.894	21.52
592.089	21.58
592.284	21.55
592.479	21.59
592.674	21.61
592.869	21.66
593.064	21.75
593.259	21.78
593.454	21.81
593.648	21.91
593.843	22.01
594.038	22.08
594.233	22.17
594.428	22.21
594.622	22.25
594.817	22.37
595.012	22.43
595.206	22.44
595.401	22.47
595.596	22.55
595.79	22.6
595.985	22.69
596.18	22.72
596.374	22.74
596.569	22.86
596.763	22.98
596.958	23.02
597.153	23.08
597.347	23.15
597.542	23.23
597.736	23.37
597.931	23.45
598.125	23.48
598.319	23.54
598.514	23.63
598.708	23.69
598.903	23.75
599.097	23.76
599.291	23.83
599.486	23.92
599.68	23.96
599.874	24.05
600.069	24.15
600.263	24.19
600.457	24.26
600.651	24.3
600.846	24.28
601.04	24.37
601.234	24.43
601.428	24.39
601.622	24.4
601.817	24.4
602.011	24.43
602.205	24.46
602.399	24.47
602.593	24.43
602.787	24.5
602.981	24.59
603.175	24.56
603.369	24.56
603.563	24.61
603.757	24.61
603.951	24.61
604.145	24.58
604.339	24.56
604.533	24.56
604.727	24.52
604.921	24.49
605.115	24.47
605.309	24.48
605.502	24.5
605.696	24.44
605.89	24.47
606.084	24.48
606.278	24.45
606.471	24.42
606.665	24.31
606.859	24.26
607.053	24.26
607.246	24.23
607.44	24.21
607.634	24.17
607.827	24.1
608.021	24.09
608.214	24.05
608.408	23.95
608.602	23.89
608.795	23.75
608.989	23.68
609.182	23.69
609.376	23.65
609.569	23.57
609.763	23.55
609.956	23.48
610.15	23.5
610.343	23.45
610.537	23.32
610.73	23.26
610.923	23.21
611.117	23.08
611.31	23.04
611.504	22.95
611.697	22.88
611.89	22.85
612.083	22.81
612.277	22.7
612.47	22.63
612.663	22.53
612.856	22.41
613.05	22.35
613.243	22.28
613.436	22.17
613.629	22.17
613.822	22.13
614.015	22.1
614.209	22.11
614.402	22.05
614.595	21.99
614.788	21.95
614.981	21.86
615.174	21.83
615.367	21.77
615.56	21.67
615.753	21.6
615.946	21.59
616.139	21.55
616.332	21.5
616.525	21.44
616.718	21.35
616.911	21.32
617.103	21.24
617.296	21.13
617.489	21.11
617.682	21.08
617.875	21.05
618.067	21.03
618.26	21
618.453	21
618.646	21
618.838	20.91
619.031	20.88
619.224	20.86
619.417	20.83
619.609	20.81
619.802	20.79
619.994	20.73
620.187	20.72
620.38	20.66
620.572	20.63
620.765	20.57
620.957	20.5
621.15	20.42
621.342	20.4
621.535	20.34
621.727	20.33
621.92	20.26
622.112	20.25
622.305	20.19
622.497	20.15
622.69	20.11
622.882	20.16
623.074	20.13
623.267	20.07
623.459	20.06
623.651	20.11
623.844	20.12
624.036	20.14
624.228	20.05
624.42	20.03
624.613	20.04
624.805	20.04
624.997	20.03
625.189	20.04
625.381	19.96
625.574	19.95
625.766	19.92
625.958	19.93
626.15	19.89
626.342	19.8
626.534	19.75
626.726	19.76
626.918	19.73
627.11	19.67
627.302	19.67
627.494	19.64
627.686	19.65
627.878	19.62
628.07	19.59
628.262	19.58
628.454	19.58
628.646	19.51
628.838	19.45
629.029	19.34
629.221	19.29
629.413	19.25
629.605	19.19
629.797	19.11
629.989	19.06
630.18	19.04
630.372	19.09
630.564	19.07
630.755	19.02
630.947	18.98
631.139	18.97
631.33	18.97
631.522	18.92
631.714	18.86
631.905	18.82
632.097	18.81
632.289	18.74
632.48	18.71
632.672	18.64
632.863	18.64
633.055	18.67
633.246	18.64
633.438	18.63
633.629	18.67
633.821	18.68
634.012	18.7
634.203	18.72
634.395	18.66
634.586	18.68
634.777	18.65
634.969	18.66
635.16	18.6
635.351	18.61
635.543	18.59
635.734	18.55
635.925	18.54
636.117	18.56
636.308	18.5
636.499	18.51
636.69	18.53
636.881	18.53
637.073	18.54
637.264	18.52
637.455	18.54
637.646	18.55
637.837	18.53
638.028	18.48
638.219	18.43
638.41	18.47
638.601	18.48
638.792	18.4
638.983	18.31
639.174	18.35
639.365	18.29
639.556	18.29
639.747	18.25
639.938	18.25
640.129	18.26
640.32	18.33
640.511	18.31
640.701	18.3
640.892	18.25
641.083	18.22
641.274	18.15
641.465	18.12
641.655	18.1
641.846	18.08
642.037	18.1
642.228	18.11
642.418	18.08
642.609	18.11
642.8	18.12
642.99	18.13
643.181	18.08
643.372	18.04
643.562	18.04
643.753	18.02
643.943	17.92
644.134	17.92
644.324	17.88
644.515	17.93
644.705	17.94
644.896	17.88
645.086	17.83
645.277	17.9
645.467	17.87
645.658	17.82
645.848	17.75
646.038	17.71
646.229	17.74
646.419	17.78
646.61	17.74
646.8	17.7
646.99	17.69
647.18	17.68
647.371	17.68
647.561	17.62
647.751	17.53
647.941	17.47
648.132	17.48
648.322	17.5
648.512	17.48
648.702	17.47
648.892	17.47
649.082	17.44
649.272	17.42
649.462	17.41
649.653	17.35
649.843	17.31
650.033	17.27
650.223	17.29
650.413	17.33
650.603	17.32
650.793	17.26
650.983	17.24
651.172	17.2
651.362	17.2
651.552	17.11
651.742	17.02
651.932	17
652.122	16.98
652.312	16.86
652.502	16.8
652.691	16.71
652.881	16.66
653.071	16.56
653.261	16.47
653.45	16.37
653.64	16.35
653.83	16.27
654.019	16.09
654.209	15.98
654.399	15.94
654.588	15.86
654.778	15.7
654.968	15.54
655.157	15.37
655.347	15.35
655.536	15.2
655.726	15.1
655.915	14.98
656.105	14.93
656.294	14.84
656.484	14.79
656.673	14.68
656.863	14.6
657.052	14.39
657.241	14.26
657.431	14.07
657.62	13.89
657.809	13.7
657.999	13.53
658.188	13.32
658.377	13.28
658.567	13.16
658.756	13.03
658.945	12.95
659.134	12.79
659.324	12.65
659.513	12.53
659.702	12.32
659.891	12.09
660.08	12.03
660.269	11.87
660.458	11.74
660.648	11.59
660.837	11.48
661.026	11.32
661.215	11.25
661.404	11.01
661.593	10.83
661.782	10.73
661.971	10.57
662.16	10.39
662.349	10.3
662.538	10.17
662.726	10.07
662.915	9.99
663.104	9.8
663.293	9.72
663.482	9.66
663.671	9.54
663.86	9.44
664.048	9.36
664.237	9.3
664.426	9.29
664.615	9.2
664.803	9.08
664.992	9.01
665.181	8.96
665.369	8.84
665.558	8.79
665.747	8.73
665.935	8.71
666.124	8.69
666.312	8.64
666.501	8.56
666.69	8.56
666.878	8.46
667.067	8.43
667.255	8.38
667.444	8.36
667.632	8.32
667.82	8.25
668.009	8.24
668.197	8.18
668.386	8.13
668.574	8.11
668.762	8.09
668.951	8.1
669.139	8.16
669.327	8.13
669.516	8.16
669.704	8.17
669.892	8.11
670.08	8.03
670.269	8.05
670.457	7.99
670.645	8.01
670.833	8.02
671.021	8.02
671.21	8.14
671.398	8.18
671.586	8.18
671.774	8.23
671.962	8.29
672.15	8.29
672.338	8.4
672.526	8.4
672.714	8.42
672.902	8.48
673.09	8.5
673.278	8.45
673.466	8.55
673.654	8.51
673.842	8.53
674.03	8.61
674.218	8.58
674.405	8.69
674.593	8.73
674.781	8.74
674.969	8.77
675.157	8.79
675.344	8.86
675.532	8.98
675.72	8.99
675.908	9.1
676.095	9.2
676.283	9.19
676.471	9.27
676.658	9.36
676.846	9.39
677.033	9.46
677.221	9.52
677.409	9.58
677.596	9.77
677.784	9.81
677.971	9.85
678.159	9.95
678.346	10.04
678.534	10.08
678.721	10.19
678.909	10.22
679.096	10.3
679.283	10.46
679.471	10.57
679.658	10.67
679.846	10.83
680.033	10.91
680.22	11.01
680.408	11.15
680.595	11.17
680.782	11.23
680.969	11.31
681.157	11.37
681.344	11.55
681.531	11.7
681.718	11.76
681.905	11.88
682.093	12.13
682.28	12.34
682.467	12.46
682.654	12.58
682.841	12.69
683.028	12.92
683.215	13.09
683.402	13.12
683.589	13.24
683.776	13.4
683.963	13.51
684.15	13.74
684.337	13.94
684.524	14.18
684.711	14.43
684.898	14.6
685.085	14.91
685.271	15.16
685.458	15.45
685.645	15.67
685.832	15.94
686.019	16.17
686.205	16.52
686.392	16.75
686.579	16.95
686.766	17.17
686.952	17.54
687.139	17.91
687.326	18.35
687.512	18.66
687.699	19.07
687.886	19.49
688.072	19.83
688.259	20.25
688.445	20.63
688.632	21.07
688.818	21.49
689.005	21.98
689.191	22.54
689.378	23.05
689.564	23.51
689.751	23.96
689.937	24.34
690.124	24.83
690.31	25.17
690.496	25.67
690.683	26.19
690.869	26.68
691.055	27.28
691.242	27.73
691.428	28.44
691.614	29.11
691.8	29.57
691.987	30.13
692.173	30.79
692.359	31.37
692.545	32.08
692.731	32.57
692.918	33.1
693.104	33.63
693.29	34.27
693.476	34.74
693.662	35.36
693.848	35.9
694.034	36.41
694.22	37.15
694.406	37.78
694.592	38.4
694.778	38.93
694.964	39.37
695.15	39.84
695.336	40.64
695.522	41.13
695.708	41.76
695.894	42.39
696.08	43.04
696.265	43.55
696.451	44.31
696.637	44.66
696.823	45.17
697.009	45.76
697.194	46.08
697.38	46.45
697.566	46.92
697.751	47.34
697.937	47.84
698.123	48.32
698.308	48.71
698.494	49.22
698.68	49.83
698.865	50.49
699.051	50.99
699.236	51.45
699.422	51.96
699.607	52.45
699.793	52.83
699.978	53.17
700.164	53.59
700.349	53.95
700.535	54.37
700.72	54.67
700.906	54.9
701.091	55.37
701.276	55.68
701.462	55.94
701.647	56.21
701.832	56.44
702.018	56.75
702.203	57.15
702.388	57.41
702.573	57.9
702.759	58.29
702.944	58.77
703.129	59.14
703.314	59.61
703.499	60.08
703.684	60.39
703.87	60.62
704.055	60.88
704.24	61.02
704.425	61.49
704.61	61.62
704.795	61.72
704.98	62.03
705.165	62.26
705.35	62.44
705.535	62.74
705.72	62.87
705.905	63.07
706.09	63.4
706.275	63.57
706.459	63.91
706.644	64.2
706.829	64.46
707.014	64.52
707.199	64.61
707.384	64.71
707.568	64.9
707.753	65.01
707.938	65.1
708.123	65.15
708.307	65.5
708.492	65.6
708.677	65.9
708.861	66.18
709.046	66.36
709.231	66.56
709.415	66.67
709.6	66.57
709.784	67.06
709.969	67.11
710.153	67.28
710.338	67.37
710.522	67.45
710.707	67.45
710.891	67.75
711.076	67.58
711.26	67.86
711.445	67.74
711.629	67.89
711.813	68.01
711.998	68.38
712.182	68.64
712.366	68.84
712.551	68.65
712.735	68.8
712.919	69.05
713.103	69.05
713.288	69.08
713.472	68.87
713.656	68.89
713.84	69.16
714.024	69.41
714.208	69.23
714.393	69.55
714.577	69.54
714.761	69.64
714.945	69.83
715.129	69.94
715.313	69.88
715.497	70.19
715.681	70.37
715.865	70.6
716.049	70.81
716.233	71.03
716.417	71.22
716.601	71.48
716.785	71.36
716.968	71.01
717.152	71.19
717.336	71.34
717.52	71.46
717.704	71.5
717.888	71.52
718.071	71.69
718.255	71.88
718.439	71.54
718.622	71.48
718.806	71.1
718.99	71.14
719.174	71.01
719.357	70.99
719.541	71.22
719.724	71.57
719.908	71.62
720.092	72.07
720.275	71.97
720.459	72.29
720.642	72.59
720.826	72.75
721.009	72.66
721.193	72.8
721.376	72.72
721.559	72.93
721.743	72.83
721.926	72.66
722.11	72.59
722.293	72.32
722.476	72.15
722.66	72.21
722.843	72.26
723.026	72.35
723.21	72.36
723.393	72.68
723.576	73.48
723.759	73.9
723.942	74.1
724.126	73.83
724.309	73.95
724.492	74.06
724.675	73.79
724.858	73.95
725.041	73.71
725.224	73.81
725.407	74.05
725.59	73.97
725.774	74.15
725.957	74.21
726.14	73.89
726.322	74.1
726.505	74.3
726.688	74.56
726.871	74.75
727.054	75.04
727.237	74.98
727.42	75.2
727.603	75.39
727.786	75.55
727.968	75.48
728.151	75.55
728.334	75.38
728.517	75.85
728.699	76.03
728.882	75.97
729.065	75.73
729.248	75.95
729.43	75.85
729.613	75.84
729.796	75.7
729.978	75.65
730.161	76.13
730.343	76.05
730.526	75.94
730.708	76.22
730.891	76.72
731.073	77.04
731.256	77.21
731.438	77.14
731.621	77.79
731.803	78.15
731.986	78.16
732.168	77.68
732.35	77.72
732.533	77.78
732.715	77.85
732.898	77.54
733.08	77.76
733.262	77.84
733.444	77.92
733.627	77.66
733.809	77.43
733.991	77.59
734.173	77.35
734.355	77.33
734.538	77.67
734.72	77.75
734.902	77.74
735.084	78.21
735.266	77.89
735.448	78.16
735.63	77.79
735.812	77.89
735.994	77.91
736.176	78.18
736.358	77.87
736.54	77.84
736.722	77.79
736.904	77.92
737.086	77.6
737.268	77.99
737.45	78.06
737.632	77.99
737.814	78.12
737.995	78.45
738.177	79.03
738.359	79.38
738.541	79.02
738.723	79.05
738.904	78.87
739.086	79.19
739.268	79.86
739.449	79.33
739.631	79.23
739.813	79.24
739.994	79.73
740.176	80.18
740.358	79.97
740.539	79.34
740.721	79.45
740.902	79.11
741.084	79.26
741.265	78.97
741.447	78.53
741.628	78.68
741.81	78.62
741.991	79.43
742.172	79.53
742.354	79.81
742.535	79.81
742.717	80.35
742.898	80.74
743.079	80.91
743.261	80.3
743.442	80.9
743.623	80.68
743.804	80.8
743.986	80.76
744.167	80.5
744.348	80.31
744.529	79.92
744.71	79.17
744.891	79.27
745.073	79.01
745.254	78.58
745.435	78.09
745.616	78.21
745.797	77.67
745.978	78.17
746.159	77.99
746.34	78.2
746.521	78.17
746.702	77.99
746.883	77.95
747.064	78.59
747.245	78.8
747.426	79.15
747.606	78.82
747.787	79.25
747.968	80.38
748.149	80.26
748.33	80.65
748.51	80.16
748.691	80.39
748.872	80.58
749.053	80.96
749.233	80.07
749.414	79.91
749.595	79.49
749.775	79.34
749.956	78.37
750.137	77.98
750.317	77.7
750.498	78.49
750.678	78.85
750.859	79.21
751.04	79.3
751.22	79.31
751.4	80.16
751.581	80.36
751.761	80.15
751.942	80.08
752.122	79.56
752.303	79.93
752.483	81.54
752.663	80.99
752.844	80.44
753.024	80.08
753.204	79.76
753.385	79.98
753.565	79.37
753.745	77.9
753.925	77.6
754.106	77.9
754.286	78.28
754.466	78.32
754.646	77.56
754.826	77.77
755.006	78.03
755.187	78.39
755.367	77.89
755.547	77.22
755.727	77.33
755.907	78.06
756.087	77.96
756.267	78.04
756.447	78.05
756.627	78.05
756.807	78.63
756.987	79.11
757.167	79.17
757.346	78.81
757.526	78.63
757.706	79.13
757.886	79.63
758.066	78.77
758.246	78.77
758.425	79.36
758.605	79.45
758.785	79.32
758.965	78.09
759.144	78.58
759.324	79.03
759.504	78.9
759.683	77.37
759.863	77.48
760.043	77.3
760.222	77.61
760.402	76.91
760.581	76.58
760.761	75.45
760.94	75.8
761.12	75.49
761.299	75.13
761.479	75.44
761.658	74.73
761.838	74.81
762.017	75.21
762.197	75.59
762.376	76.13
762.555	77.12
762.735	76.39
762.914	77.29
763.093	77.47
763.273	77.96
763.452	77.9
763.631	77.28
763.81	77.8
763.99	78.62
764.169	78.64
764.348	79.32
764.527	78.88
764.706	79.52
764.885	80.16
765.064	79.47
765.243	78.48
765.423	78.83
765.602	77.71
765.781	77.64
765.96	77.62
766.139	77.02
766.318	77.1
766.497	77.56
766.676	77.06
766.854	77.29
767.033	77.56
767.212	76.26
767.391	76.27
767.57	76.23
767.749	75.97
767.928	75.74
768.106	75.34
768.285	75.33
768.464	76.31
768.643	77.09
768.821	76.76
769	77.51
769.179	77.57
769.357	77.67
769.536	77.53
769.715	77.2
769.893	76.49
770.072	76.76
770.25	76.45
770.429	77.22
770.607	77.62
770.786	77.55
770.964	77.53
771.143	77.47
771.321	77.19
771.5	76.4
771.678	75.45
771.857	74.65
772.035	74.59
772.213	74.7
772.392	74.82
772.57	74.91
772.748	75.12
772.927	75.06
773.105	75.85
773.283	75.41
773.461	75.18
773.64	75.17
773.818	73.94
773.996	74.71
774.174	74.51
774.352	73.61
774.531	72.43
774.709	72.7
774.887	72.03
775.065	72.95
775.243	73.38
775.421	73.01
775.599	72.47
775.777	74.19
775.955	73.65
776.133	73.71
776.311	73.28
776.489	72.33
776.667	73.04
776.844	73.18
777.022	73.67
777.2	73.71
777.378	74.97
777.556	76.7
777.734	76.82
777.911	77.51
778.089	78.43
778.267	77.12
778.445	76.91
778.622	76.04
778.8	75.14
778.978	75.05
779.155	73.92
779.333	72.44
779.511	72.15
779.688	70.99
779.866	70.69
780.043	71.22
780.221	70.62
780.398	71.15
780.576	72.64
780.753	71.76
780.931	72.56
781.108	73.69
781.286	72.4
781.463	72.75
781.64	72.08
781.818	72.13
781.995	73.33
782.172	74.04
782.35	73.04
782.527	73.55
782.704	72.7
782.882	73.56
783.059	72.3
783.236	73.04
783.413	72.96
783.59	71.69
783.768	71.04
783.945	71.94
784.122	71.69
784.299	72.15
784.476	71.99
784.653	71.28
784.83	71.51
785.007	70.21
785.184	70.48
785.361	69.58
785.538	68.86
785.715	67.05
785.892	66.31
786.069	66.64
786.246	65.84
786.423	66.5
786.6	66.88
786.776	67.09
786.953	65.97
787.13	67.35
787.307	66.92
787.484	69.66
787.66	67.27
787.837	68.05
788.014	67.93
788.191	69.86
788.367	68.5
788.544	70.18
788.721	68.94
788.897	72.27
789.074	71.12
789.25	71.13
789.427	70.58
789.603	73.12
789.78	72.09
789.956	71.49
790.133	68.89
790.309	68.39
790.486	71.31
790.662	72.11
790.839	72.67
791.015	73.03
791.192	74.03
791.368	75.03
791.544	75.29
791.721	71.01
791.897	70.39
792.073	66.68
792.249	67.52
792.426	67.45
792.602	67.12
792.778	67.69
792.954	69.88
793.13	72.03
793.307	71.92
793.483	71.64
793.659	73.04
793.835	73.3
794.011	72.45
794.187	70.16
794.363	69.66
794.539	70.68
794.715	68.93
794.891	66.33
795.067	64.84
795.243	65.25
795.419	68.22
795.595	67.06
795.771	66.48
795.947	65.84
796.122	68.63
796.298	67.82
796.474	69.19
796.65	69.71
796.826	69.97
797.001	73.11
797.177	73.66
797.353	74.19
797.529	76.04
797.704	73.24
797.88	71.25
798.056	73.13
798.231	70.83
798.407	70.95
798.582	68.03
798.758	66.52
798.934	65.75
799.109	63.85
799.285	61.88
799.46	62.4
799.636	62.87
799.811	65.96
799.986	66.81
800.162	69.92
800.337	74.11
800.513	71.41
800.688	73.07
800.863	75.52
801.039	71.94
801.214	71.83
801.389	71.31
801.565	72.19
801.74	74.97
801.915	75.71
802.09	70.34
802.265	71.85
802.441	73.25
802.616	72.92
802.791	72.7
802.966	72.44
803.141	65.92
803.316	71.36
803.491	67.67
803.666	66.68
803.841	68.82
804.016	65.77
804.191	64.42
804.366	66.24
804.541	63.9
804.716	63.61
804.891	65.08
805.066	61.88
805.241	61.35
805.416	64.45
805.591	70.44
805.765	71.2
805.94	75.19
806.115	68.72
806.29	69.93
806.464	69.67
806.639	68.12
806.814	61.04
806.989	58.6
807.163	55.75
807.338	60.34
807.512	56.27
807.687	54.25
807.862	54.26
808.036	58.32
808.211	61.93
808.385	61.61
808.56	66.1
808.734	68.16
808.909	70.9
809.083	70.32
809.258	71.06
809.432	67.81
809.606	70.38
809.781	62.69
809.955	65.54
810.13	66.28
810.304	64.51
810.478	65.68
810.652	68.93
810.827	67.97
811.001	69.24
811.175	63.71
811.349	62.63
811.524	63.53
811.698	62.89
811.872	65.73
812.046	65.9
812.22	67
812.394	70.01
812.568	74.26
812.742	74.19
812.916	74.8
813.09	68.04
813.264	68.77
813.438	71.13
813.612	70.85
813.786	70.07
813.96	70.94
814.134	65.53
814.308	64.93
814.482	62.03
814.656	63.74
814.83	68.23
815.003	69.07
815.177	70.81
815.351	74.82
815.525	72.33
815.698	70.76
815.872	66.94
816.046	63.62
816.219	61.44
816.393	58.36
816.567	55.06
816.74	60.63
816.914	64.65
817.088	61.39
817.261	62.05
817.435	61.56
817.608	57.22
817.782	59.13
817.955	54.81
818.129	58.98
818.302	67.48
818.475	63.39
818.649	57.96
818.822	65.62
818.996	70.8
819.169	73.15
819.342	67.48
819.516	64.8
819.689	70.19
819.862	73.67
820.035	67.02
820.209	54.87
820.382	52.45
820.555	53.52
820.728	45.7
820.901	45.51
821.075	50.28
821.248	55.35
821.421	61.54
821.594	59.78
821.767	57.64
821.94	62.49
822.113	63.4
822.286	62.78
822.459	66.98
822.632	64.77
822.805	70.97
822.978	71.15
823.151	75.4
823.324	64.09
823.496	47.49
823.669	46.49
823.842	51.38
824.015	49.58
824.188	48.14
824.361	41.11
824.533	44.76
824.706	67.3
824.879	63.12
825.051	65.23
825.224	65.67
825.397	61.94
825.569	68.15
825.742	78.33
825.915	69.18
826.087	62.97
826.26	64.75
826.432	67.35
826.605	71.17
826.777	68.61
826.95	56.74
827.122	66.48
827.295	76.37
827.467	64.56
827.64	57.25
827.812	60.91
827.984	64.28
828.157	66.97
828.329	61.72
828.501	56.86
828.674	60.91
828.846	59.86
829.018	51.18
829.19	44.38
829.363	49.1
829.535	53.29
829.707	54.82
829.879	54.94
830.051	55.58
830.223	58.67
830.395	56.43
830.568	55.21
830.74	53.57
830.912	51.06
831.084	41.48
831.256	48.31
831.428	54.99
831.6	55.88
831.772	56.77
831.943	52.4
832.115	51.08
832.287	62.42
832.459	60.67
832.631	57.32
832.803	70.1
832.975	71.69
833.146	70.63
833.318	82.08
833.49	87.7
833.662	85.04
833.833	87.97
834.005	78.11
834.177	75.11
834.348	79.64
834.52	74.87
834.692	69.62
834.863	60.1
835.035	52.65
835.206	46.48
835.378	39.19
835.549	31.5
835.721	35.66
835.892	33.62
836.064	41.33
836.235	46.2
836.407	43.53
836.578	46.66
836.749	44.47
836.921	40.22
837.092	50.93
837.264	40.93
837.435	22.31
837.606	25.86
837.777	25.21
837.949	29.57
838.12	28.98
838.291	27.88
838.462	36.43
838.633	48.4
838.805	47.46
838.976	40.65
839.147	43.08
839.318	33.62
839.489	26.16
839.66	27.56
839.831	28.08
840.002	32.65
840.173	39.13
840.344	46.07
840.515	59.87
840.686	70.41
840.857	70.34
841.028	71.97
841.199	68.4
841.369	69.79
841.54	73.98
841.711	72.32
841.882	61.14
842.053	56.64
842.223	58.57
842.394	50.83
842.565	59.36
842.736	49.22
842.906	46.52
843.077	61.23
843.248	67.1
843.418	53.88
843.589	65.14
843.759	58.29
843.93	65.72
844.101	66.09
844.271	51.94
844.442	45.12
844.612	54.18
844.783	42.88
844.953	43.75
845.123	42.86
845.294	40.34
845.464	50.39
845.635	43.65
845.805	53.63
845.975	46.73
846.146	32.79
846.316	42.23
846.486	50.29
846.656	52.4
846.827	64.73
846.997	61.65
847.167	71.99
847.337	82.37
847.507	73.79
847.677	70.99
847.848	62.47
848.018	48.02
848.188	37.87
848.358	38.27
848.528	37.81
848.698	30.77
848.868	20.82
849.038	42.09
849.208	69.08
849.378	65.54
849.548	72.49
849.718	75.01
849.887	61.67
850.057	64.43
850.227	49.32
850.397	30.29
850.567	51.26
850.737	34.16
850.906	30.96
851.076	38.73
851.246	41.49
851.415	56.96
851.585	56.87
851.755	43.87
851.924	54.58
852.094	56.72
852.264	56.74
852.433	50.75
852.603	50.88
852.772	51.02
852.942	44.95
853.111	38.37
853.281	37.06
853.45	41.06
853.62	47.67
853.789	36.93
853.959	29.57
854.128	30.79
854.297	48.97
854.467	50.41
854.636	53.81
854.805	57.71
854.975	70.04
855.144	76.27
855.313	86.68
855.482	66.54
855.652	63.83
855.821	58.86
855.99	58.77
856.159	50.35
856.328	46.18
856.497	37.31
856.667	36.94
856.836	37.4
857.005	35.39
857.174	32.88
857.343	29.92
857.512	24.49
857.681	27.55
857.85	34.51
858.019	41.46
858.188	50.92
858.356	53.61
858.525	48.59
858.694	59.64
858.863	63.28
859.032	66.31
859.201	62.6
859.369	47.05
859.538	37.81
859.707	44.79
859.876	48.69
860.044	51.96
860.213	40.71
860.382	58.01
860.55	73.45
860.719	78.64
860.888	75.08
861.056	59.19
861.225	29.63
861.393	51.67
861.562	25.85
861.73	22.18
861.899	8.39
862.067	21.99
862.236	45.31
862.404	56.8
862.572	45.78
862.741	42.8
862.909	42.78
863.078	46.98
863.246	47.62
863.414	35.63
863.582	36.48
863.751	44.72
863.919	65.41
864.087	64.88
864.255	66.53
864.424	60.5
864.592	53.26
864.76	65.45
864.928	63.12
865.096	45.93
865.264	40.7
865.432	31.28
865.6	19.51
865.768	10.99
865.936	-13.19
866.104	-34.35
866.272	-27.07
866.44	-48.01
866.608	-34.35
866.776	10.12
866.944	-4.55
867.112	-29.9
867.28	-57.54
867.448	-20.12
867.615	-17.71
867.783	-15.79
867.951	-5.52
868.119	56.51
868.286	74.8
868.454	67.99
868.622	68.55
868.789	88.19
868.957	86.58
869.125	66.01
869.292	59.61
869.46	50.94
869.627	49.34
869.795	32.13
869.963	27.82
870.13	28.74
870.298	25.16
870.465	16.11
870.632	23.22
870.8	21.56
870.967	38.95
871.135	45.5
871.302	42.62
871.469	36.33
871.637	31.51
871.804	42.96
871.971	39.92
872.139	47.92
872.306	31.88
872.473	27.25
872.64	36.26
872.807	47.18
872.975	54.45
873.142	53.33
873.309	62.33
873.476	138.57
873.643	240.51
873.81	245.34
873.977	160.02
874.144	173.07
874.311	189.75
874.478	93.16
874.645	81.08
874.812	49.76
874.979	39.29
875.146	51.41
875.313	49.32
875.48	111.91
875.647	82.21
875.813	54.78
875.98	28.23
876.147	51.7
876.314	41.39
876.481	37.72
876.647	20.06
876.814	42.32
876.981	34.83
877.147	23.51
877.314	7.94
877.481	22
877.647	34.61
877.814	33.53
877.98	47.61
878.147	58.37
878.314	91.8
878.48	81.36
878.647	103.89
878.813	102.22
878.979	114.66
879.146	74.92
879.312	95.14
879.479	66.6
879.645	62.15
879.811	47.91
879.978	47.3
880.144	52.72
880.31	39.5
880.477	-5.77
880.643	-23.87
880.809	42.08
880.975	15.96
881.142	15.49
881.308	18.57
881.474	75.72
881.64	99.51
881.806	74.39
881.972	72.12
882.138	69.19
882.304	30.14
882.47	37.77
882.636	-24.84
882.802	-91.62
882.968	-198.98
883.134	-295.09
883.3	-98.06
883.466	-8.88
883.632	-32.45
883.798	2.32
883.964	25.04
884.129	53.69
884.295	45.19
884.461	32.87
884.627	7.68
884.793	47.78
884.958	37.25
885.124	31.33
885.29	34.39
885.455	48.31
885.621	49.23
885.787	54.19
885.952	36.22
886.118	43.91
886.283	61.29
886.449	53.3
886.614	61.77
886.78	72.33
886.945	64.74
887.111	77.51
887.276	57.93
887.442	27.48
887.607	9.13
887.773	-13.45
887.938	-50.08
888.103	-25.57
888.269	-1.91
888.434	-5.45
888.599	10.08
888.764	19.05
888.93	51.86
889.095	64.88
889.26	105.07
889.425	105.11
889.59	87.75
889.756	107.86
889.921	97.16
890.086	79.76
890.251	53.28
890.416	15.08
890.581	15.65
890.746	9.83
890.911	-11.67
891.076	-17.12
891.241	-27.77
891.406	30.5
891.571	31.17
891.736	28.87
891.901	69.73
892.065	63.8
892.23	65.99
892.395	47.03
892.56	25.48
892.725	8.41
892.889	-28.89
893.054	-105.6
893.219	-150.3
893.384	-218.2
893.548	-553.33
893.713	859.41
893.878	335.33
